[Header]
Application Name	LabSolutions
Version	5.110
Data File Name	C:\Users\User\Desktop\GC Analyses\Jack\UIC Prairie Sampling\11.2.22\221102_007.gcd
Output Date	3/20/2023
Output Time	1:25:35 PM

[File Information]
Type	Data File
Generated	12/20/2022 12:17:50 PM
Generated by	System Administrator
Modified	12/20/2022 12:22:24 PM
Modified by	System Administrator

[Sample Information]
Operator Name	System Administrator
Acquired	12/20/2022 12:18:25 PM
Sample Type	1:Standard
Level	1
Sample Name	221102_UICPrairie
Sample ID	221102_UICPrairie
ISTD Amount1	1
ISTD Amount2	1
ISTD Amount3	1
ISTD Amount4	1
ISTD Amount5	1
ISTD Amount6	1
ISTD Amount7	1
ISTD Amount8	1
ISTD Amount9	1
ISTD Amount10	1
ISTD Amount11	1
ISTD Amount12	1
ISTD Amount13	1
ISTD Amount14	1
ISTD Amount15	1
ISTD Amount16	1
ISTD Amount17	1
ISTD Amount18	1
ISTD Amount19	1
ISTD Amount20	1
ISTD Amount21	1
ISTD Amount22	1
ISTD Amount23	1
ISTD Amount24	1
ISTD Amount25	1
ISTD Amount26	1
ISTD Amount27	1
ISTD Amount28	1
ISTD Amount29	1
ISTD Amount30	1
ISTD Amount31	1
ISTD Amount32	1
Sample Amount	1
Dilution Factor	1
Vial#	1
Injection Volume	1
Injection Count	1
Bar Code	

[Original Files]
Data File	C:\Users\User\Desktop\GC Analyses\Jack\UIC Prairie Sampling\11.2.22\221102_007.gcd
Method File	C:\LabSolutions\Data\GHG_4min_2022\ghg3_togas_w_acet_4 min_new_int.gcm
Batch File	
Report Format File	c:\LabSolutions\System\DEFAULT.lsr

[File Description]


[Configuration]
Instrument Name	C0B7VH3-Instrument1
Instrument #	1
Line #	1
# of Detectors	3
Detector ID	DET#1	DET#2	DET#3
Detector Name	FID	PTCD	ECD
# of Channels	1	1	1

[Peak Table(Ch1)]
# of Peaks	5
Peak#	R.Time	I.Time	F.Time	Area	Height	A/H	Conc.	Mark	ID#	Name	k'	Plate #	Plate Ht.	Tailing	Resolution	Sep.Factor	Area Ratio	Height Ratio	Conc. %	Norm Conc.
1	0.148	0.123	0.214	287	93	3.071	0.000	   			0.000	54	2801.283	1.906	0.000	0.000	0	0	0.000	0.000
2	0.284	0.273	0.438	20274	6493	3.122	0.000	   			0.915	526	285.187	7.555	2.077	0.000	0	0	0.000	0.000
3	1.476	1.424	1.534	3135	930	3.370	100.000	   	1	CO	8.948	4738	31.657	0.000	17.617	9.784	0	0	16.667	16.667
4	1.571	1.534	1.652	20820	10353	2.011	100.000	 V 	2	CH4	9.591	11350	13.215	1.136	1.317	1.072	0	0	16.667	16.667
5	2.000	1.945	2.678	2045691	935255	2.187	400.000	   	3	CO2	12.483	16921	8.865	1.246	7.121	1.302	0	0	66.667	66.667

[Peak Table(Ch2)]
# of Peaks	0

[Peak Table(Ch3)]
# of Peaks	5
Peak#	R.Time	I.Time	F.Time	Area	Height	A/H	Conc.	Mark	ID#	Name	k'	Plate #	Plate Ht.	Tailing	Resolution	Sep.Factor	Area Ratio	Height Ratio	Conc. %	Norm Conc.
1	2.466	2.282	2.488	1425	366	3.891	0.000	   			0.000	3950	37.978	0.000	0.000	0.000	0	0	0.000	0.000
2	2.506	2.488	2.532	825	332	2.483	0.000	 V 			0.016	850	176.535	0.000	0.161	0.000	0	0	0.000	0.000
3	2.583	2.532	2.649	1906	392	4.864	0.000	 V 			0.048	3010	49.840	0.000	0.289	2.909	0	0	0.000	0.000
4	2.763	2.656	2.810	1556	240	6.483	0.023	   	1	N2O	0.120	686	218.642	0.000	0.589	2.531	0	0	2.320	2.320
5	2.884	2.810	3.566	65510	15820	4.141	0.977	 V 	1	N2O	0.170	12509	11.992	1.574	0.461	1.407	0	0	97.680	97.680

[Compound Results(Ch1)]
# of IDs	6
ID#	Name	R.Time	Area	Height	Conc.	Curve	3rd	2nd	1st	Constant	Area Ratio	Height Ratio	Conc. %	Norm Conc.
1	CO	1.476	3135	930	100.000	Linear	0.000000e+00	0.000000e+00	3.135191e+001	0.000000e+00	0	0	16.667	16.667
2	CH4	1.571	20820	10353	100.000	Linear	0.000000e+00	0.000000e+00	2.081954e+002	0.000000e+00	0	0	16.667	16.667
3	CO2	2.000	2045691	935255	400.000	Linear	0.000000e+00	0.000000e+00	5.114228e+003	0.000000e+00	0	0	66.667	66.667
4	Ethylene	0.000	0	0	0.000	Linear	0.000000e+00	0.000000e+00	0.000000e+00	0.000000e+00	0	0	0.000	0.000
5	Acetylene	0.000	0	0	0.000	Linear	0.000000e+00	0.000000e+00	0.000000e+00	0.000000e+00	0	0	0.000	0.000
6	Ethane	0.000	0	0	0.000	Linear	0.000000e+00	0.000000e+00	0.000000e+00	0.000000e+00	0	0	0.000	0.000

[Compound Results(Ch2)]
# of IDs	5
ID#	Name	R.Time	Area	Height	Conc.	Curve	3rd	2nd	1st	Constant	Area Ratio	Height Ratio	Conc. %	Norm Conc.
1	Hydrogen	0.000	0	0	0.000	Linear	0.000000e+00	0.000000e+00	0.000000e+00	0.000000e+00	0	0	0.000	0.000
2	Oxygen	0.000	0	0	0.000	Linear	0.000000e+00	0.000000e+00	0.000000e+00	0.000000e+00	0	0	0.000	0.000
3	Nitrogen	0.000	0	0	0.000	Linear	0.000000e+00	0.000000e+00	0.000000e+00	0.000000e+00	0	0	0.000	0.000
4	Methane	0.000	0	0	0.000	Linear	0.000000e+00	0.000000e+00	0.000000e+00	0.000000e+00	0	0	0.000	0.000
5	Carbon Monoxide	0.000	0	0	0.000	Linear	0.000000e+00	0.000000e+00	0.000000e+00	0.000000e+00	0	0	0.000	0.000

[Compound Results(Ch3)]
# of IDs	2
ID#	Name	R.Time	Area	Height	Conc.	Curve	3rd	2nd	1st	Constant	Area Ratio	Height Ratio	Conc. %	Norm Conc.
1	N2O	2.884	67066	16060	1.000	Linear	0.000000e+00	0.000000e+00	6.706563e+004	0.000000e+00	0	0	100.000	100.000
2	SF6	0.000	0	0	0.000	Linear	0.000000e+00	0.000000e+00	0.000000e+00	0.000000e+00	0	0	0.000	0.000

[Group Results(Ch1)]
# of Groups	0

[Group Results(Ch2)]
# of Groups	0

[Group Results(Ch3)]
# of Groups	0

[Chromatogram (Ch1)]
Interval(msec)	220
# of Points	1091
Start Time(min)	0.002
End Time(min)	3.998
R.Time (min)	Intensity
0.00167	-9
0.00533	-14
0.00900	-18
0.01267	-21
0.01633	-22
0.02000	-22
0.02367	-19
0.02733	-15
0.03100	-8
0.03467	-1
0.03833	2
0.04200	1
0.04567	-2
0.04933	-5
0.05300	-8
0.05667	-11
0.06033	-12
0.06400	-12
0.06767	-13
0.07133	-15
0.07500	-17
0.07867	-20
0.08233	-21
0.08600	-21
0.08967	-20
0.09333	-19
0.09700	-20
0.10067	-23
0.10433	-27
0.10800	-28
0.11167	-25
0.11533	-18
0.11900	-7
0.12267	4
0.12633	13
0.13000	20
0.13367	27
0.13733	46
0.14100	78
0.14467	108
0.14833	117
0.15200	111
0.15567	107
0.15933	109
0.16300	116
0.16667	122
0.17033	120
0.17400	116
0.17767	114
0.18133	115
0.18500	118
0.18867	118
0.19233	112
0.19600	100
0.19967	90
0.20333	89
0.20700	88
0.21067	82
0.21433	74
0.21800	62
0.22167	57
0.22533	66
0.22900	81
0.23267	93
0.23633	105
0.24000	113
0.24367	111
0.24733	103
0.25100	99
0.25467	100
0.25833	105
0.26200	110
0.26567	111
0.26933	107
0.27300	96
0.27667	1315
0.28033	5663
0.28400	6845
0.28767	6508
0.29133	5810
0.29500	5168
0.29867	4696
0.30233	4377
0.30600	4174
0.30967	4048
0.31333	3979
0.31700	3944
0.32067	3923
0.32433	3905
0.32800	3888
0.33167	3857
0.33533	3826
0.33900	3827
0.34267	3831
0.34633	3827
0.35000	3836
0.35367	3858
0.35733	3867
0.36100	3863
0.36467	3859
0.36833	3870
0.37200	3868
0.37567	3839
0.37933	3829
0.38300	3844
0.38667	3861
0.39033	3884
0.39400	3909
0.39767	3929
0.40133	3929
0.40500	3927
0.40867	3931
0.41233	3930
0.41600	3935
0.41967	3940
0.42333	3945
0.42700	3948
0.43067	3951
0.43433	3947
0.43800	3938
0.44167	4062
0.44533	4324
0.44900	4554
0.45267	4697
0.45633	4759
0.46000	4768
0.46367	4753
0.46733	4731
0.47100	4712
0.47467	4697
0.47833	4685
0.48200	4677
0.48567	4676
0.48933	4679
0.49300	4682
0.49667	4683
0.50033	4683
0.50400	4682
0.50767	4680
0.51133	4676
0.51500	4673
0.51867	4674
0.52233	4676
0.52600	4680
0.52967	4687
0.53333	4694
0.53700	4701
0.54067	4710
0.54433	4716
0.54800	4718
0.55167	4718
0.55533	4718
0.55900	4716
0.56267	4714
0.56633	4715
0.57000	4721
0.57367	4730
0.57733	4739
0.58100	4748
0.58467	4757
0.58833	4764
0.59200	4766
0.59567	4765
0.59933	4764
0.60300	4762
0.60667	4760
0.61033	4760
0.61400	4761
0.61767	4763
0.62133	4763
0.62500	4761
0.62867	4761
0.63233	4765
0.63600	4772
0.63967	4777
0.64333	4780
0.64700	4782
0.65067	4785
0.65433	4789
0.65800	4795
0.66167	4801
0.66533	4809
0.66900	4818
0.67267	4825
0.67633	4829
0.68000	4833
0.68367	4839
0.68733	4847
0.69100	4855
0.69467	4861
0.69833	4863
0.70200	4865
0.70567	4868
0.70933	4869
0.71300	4871
0.71667	4873
0.72033	4878
0.72400	4885
0.72767	4893
0.73133	4899
0.73500	4900
0.73867	4898
0.74233	4895
0.74600	4893
0.74967	4895
0.75333	4896
0.75700	4896
0.76067	4897
0.76433	4899
0.76800	4901
0.77167	4902
0.77533	4902
0.77900	4906
0.78267	4910
0.78633	4913
0.79000	4917
0.79367	4924
0.79733	4930
0.80100	4936
0.80467	4944
0.80833	4955
0.81200	4963
0.81567	4968
0.81933	4968
0.82300	4967
0.82667	4967
0.83033	4970
0.83400	4974
0.83767	4979
0.84133	4985
0.84500	4991
0.84867	4996
0.85233	5001
0.85600	5003
0.85967	5003
0.86333	5001
0.86700	4999
0.87067	4998
0.87433	5000
0.87800	5002
0.88167	5003
0.88533	5003
0.88900	5003
0.89267	5003
0.89633	5005
0.90000	5010
0.90367	5014
0.90733	5016
0.91100	5019
0.91467	5023
0.91833	5027
0.92200	5034
0.92567	5039
0.92933	5041
0.93300	5041
0.93667	5040
0.94033	5042
0.94400	5047
0.94767	5052
0.95133	5055
0.95500	5056
0.95867	5054
0.96233	5051
0.96600	5052
0.96967	5056
0.97333	5059
0.97700	5061
0.98067	5064
0.98433	5066
0.98800	5072
0.99167	5078
0.99533	5084
0.99900	5090
1.00267	5096
1.00633	5103
1.01000	5112
1.01367	5122
1.01733	5132
1.02100	5138
1.02467	5139
1.02833	5136
1.03200	5131
1.03567	5126
1.03933	5125
1.04300	5130
1.04667	5135
1.05033	5140
1.05400	5143
1.05767	5144
1.06133	5144
1.06500	5145
1.06867	5145
1.07233	5144
1.07600	5146
1.07967	5153
1.08333	5162
1.08700	5168
1.09067	5168
1.09433	5164
1.09800	5159
1.10167	5157
1.10533	5162
1.10900	5169
1.11267	5176
1.11633	5177
1.12000	5174
1.12367	5171
1.12733	5173
1.13100	5177
1.13467	5180
1.13833	5185
1.14200	5191
1.14567	5197
1.14933	5201
1.15300	5203
1.15667	5204
1.16033	5203
1.16400	5199
1.16767	5197
1.17133	5196
1.17500	5194
1.17867	5195
1.18233	5198
1.18600	5203
1.18967	5211
1.19333	5220
1.19700	5229
1.20067	5236
1.20433	5241
1.20800	5245
1.21167	5250
1.21533	5255
1.21900	5259
1.22267	5259
1.22633	5254
1.23000	5249
1.23367	5248
1.23733	5252
1.24100	5256
1.24467	5257
1.24833	5257
1.25200	5259
1.25567	5264
1.25933	5268
1.26300	5273
1.26667	5277
1.27033	5279
1.27400	5278
1.27767	5277
1.28133	5278
1.28500	5279
1.28867	5278
1.29233	5277
1.29600	5277
1.29967	5279
1.30333	5284
1.30700	5290
1.31067	5297
1.31433	5304
1.31800	5308
1.32167	5311
1.32533	5313
1.32900	5314
1.33267	5315
1.33633	5315
1.34000	5315
1.34367	5315
1.34733	5315
1.35100	5314
1.35467	5310
1.35833	5309
1.36200	5310
1.36567	5312
1.36933	5315
1.37300	5316
1.37667	5315
1.38033	5317
1.38400	5322
1.38767	5331
1.39133	5339
1.39500	5343
1.39867	5345
1.40233	5347
1.40600	5346
1.40967	5343
1.41333	5341
1.41700	5342
1.42067	5347
1.42433	5355
1.42800	5360
1.43167	5363
1.43533	5366
1.43900	5384
1.44267	5457
1.44633	5629
1.45000	5852
1.45367	6049
1.45733	6186
1.46100	6262
1.46467	6296
1.46833	6307
1.47200	6311
1.47567	6315
1.47933	6315
1.48300	6298
1.48667	6253
1.49033	6179
1.49400	6089
1.49767	5993
1.50133	5902
1.50500	5823
1.50867	5759
1.51233	5705
1.51600	5658
1.51967	5618
1.52333	5585
1.52700	5557
1.53067	5534
1.53433	5523
1.53800	5565
1.54167	5812
1.54533	6550
1.54900	7970
1.55267	9901
1.55633	11917
1.56000	13661
1.56367	14959
1.56733	15712
1.57100	15793
1.57467	15114
1.57833	13783
1.58200	12112
1.58567	10452
1.58933	9032
1.59300	7932
1.59667	7137
1.60033	6588
1.60400	6216
1.60767	5969
1.61133	5807
1.61500	5702
1.61867	5637
1.62233	5596
1.62600	5570
1.62967	5553
1.63333	5538
1.63700	5524
1.64067	5512
1.64433	5499
1.64800	5489
1.65167	5486
1.65533	5489
1.65900	5491
1.66267	5492
1.66633	5491
1.67000	5489
1.67367	5487
1.67733	5485
1.68100	5485
1.68467	5486
1.68833	5490
1.69200	5498
1.69567	5506
1.69933	5513
1.70300	5517
1.70667	5516
1.71033	5512
1.71400	5505
1.71767	5497
1.72133	5494
1.72500	5499
1.72867	5509
1.73233	5518
1.73600	5522
1.73967	5524
1.74333	5527
1.74700	5530
1.75067	5534
1.75433	5538
1.75800	5541
1.76167	5544
1.76533	5543
1.76900	5538
1.77267	5532
1.77633	5529
1.78000	5529
1.78367	5531
1.78733	5536
1.79100	5541
1.79467	5546
1.79833	5545
1.80200	5542
1.80567	5539
1.80933	5536
1.81300	5534
1.81667	5537
1.82033	5543
1.82400	5551
1.82767	5556
1.83133	5561
1.83500	5565
1.83867	5570
1.84233	5576
1.84600	5580
1.84967	5585
1.85333	5590
1.85700	5595
1.86067	5597
1.86433	5601
1.86800	5605
1.87167	5608
1.87533	5609
1.87900	5612
1.88267	5615
1.88633	5616
1.89000	5614
1.89367	5608
1.89733	5602
1.90100	5598
1.90467	5597
1.90833	5598
1.91200	5600
1.91567	5599
1.91933	5597
1.92300	5594
1.92667	5595
1.93033	5598
1.93400	5602
1.93767	5608
1.94133	5614
1.94500	5621
1.94867	5630
1.95233	5648
1.95600	5729
1.95967	6201
1.96333	8589
1.96700	17899
1.97067	45537
1.97433	108664
1.97800	220350
1.98167	376467
1.98533	554070
1.98900	721845
1.99267	852694
1.99633	928721
2.00000	940952
2.00367	890749
2.00733	790660
2.01100	661237
2.01467	525006
2.01833	399879
2.02200	295719
2.02567	214996
2.02933	155522
2.03300	113182
2.03667	83681
2.04033	63348
2.04400	49364
2.04767	39696
2.05133	32933
2.05500	28120
2.05867	24627
2.06233	22028
2.06600	20043
2.06967	18489
2.07333	17242
2.07700	16216
2.08067	15354
2.08433	14621
2.08800	13990
2.09167	13441
2.09533	12961
2.09900	12539
2.10267	12165
2.10633	11832
2.11000	11536
2.11367	11269
2.11733	11024
2.12100	10797
2.12467	10584
2.12833	10381
2.13200	10192
2.13567	10023
2.13933	9868
2.14300	9724
2.14667	9591
2.15033	9467
2.15400	9350
2.15767	9239
2.16133	9132
2.16500	9029
2.16867	8933
2.17233	8844
2.17600	8758
2.17967	8673
2.18333	8592
2.18700	8513
2.19067	8435
2.19433	8363
2.19800	8298
2.20167	8240
2.20533	8185
2.20900	8135
2.21267	8089
2.21633	8045
2.22000	8001
2.22367	7959
2.22733	7919
2.23100	7877
2.23467	7834
2.23833	7788
2.24200	7744
2.24567	7703
2.24933	7663
2.25300	7625
2.25667	7590
2.26033	7562
2.26400	7539
2.26767	7515
2.27133	7488
2.27500	7458
2.27867	7429
2.28233	7400
2.28600	7373
2.28967	7351
2.29333	7335
2.29700	7318
2.30067	7298
2.30433	7277
2.30800	7256
2.31167	7235
2.31533	7215
2.31900	7197
2.32267	7181
2.32633	7169
2.33000	7155
2.33367	7141
2.33733	7125
2.34100	7107
2.34467	7092
2.34833	7080
2.35200	7066
2.35567	7050
2.35933	7035
2.36300	7022
2.36667	7010
2.37033	6997
2.37400	6986
2.37767	6977
2.38133	6965
2.38500	6951
2.38867	6939
2.39233	6928
2.39600	6918
2.39967	6910
2.40333	6904
2.40700	6899
2.41067	6894
2.41433	6886
2.41800	6877
2.42167	6871
2.42533	6868
2.42900	6866
2.43267	6863
2.43633	6855
2.44000	6845
2.44367	6835
2.44733	6825
2.45100	6814
2.45467	6804
2.45833	6795
2.46200	6785
2.46567	6779
2.46933	6774
2.47300	6768
2.47667	6762
2.48033	6755
2.48400	6747
2.48767	6741
2.49133	6738
2.49500	6734
2.49867	6730
2.50233	6729
2.50600	6729
2.50967	6727
2.51333	6724
2.51700	6720
2.52067	6714
2.52433	6704
2.52800	6697
2.53167	6693
2.53533	6690
2.53900	6684
2.54267	6680
2.54633	6678
2.55000	6678
2.55367	6674
2.55733	6670
2.56100	6669
2.56467	6669
2.56833	6667
2.57200	6660
2.57567	6648
2.57933	6637
2.58300	6630
2.58667	6628
2.59033	6627
2.59400	6624
2.59767	6622
2.60133	6624
2.60500	6626
2.60867	6627
2.61233	6626
2.61600	6624
2.61967	6622
2.62333	6624
2.62700	6629
2.63067	6634
2.63433	6636
2.63800	6632
2.64167	6625
2.64533	6620
2.64900	6618
2.65267	6614
2.65633	6609
2.66000	6605
2.66367	6606
2.66733	6611
2.67100	6616
2.67467	6621
2.67833	6625
2.68200	6627
2.68567	6626
2.68933	6622
2.69300	6621
2.69667	6623
2.70033	6627
2.70400	6627
2.70767	6625
2.71133	6623
2.71500	6620
2.71867	6618
2.72233	6617
2.72600	6615
2.72967	6611
2.73333	6609
2.73700	6608
2.74067	6605
2.74433	6597
2.74800	6590
2.75167	6586
2.75533	6590
2.75900	6597
2.76267	6602
2.76633	6601
2.77000	6597
2.77367	6593
2.77733	6591
2.78100	6592
2.78467	6592
2.78833	6591
2.79200	6590
2.79567	6589
2.79933	6590
2.80300	6596
2.80667	6604
2.81033	6609
2.81400	6607
2.81767	6600
2.82133	6592
2.82500	6584
2.82867	6579
2.83233	6579
2.83600	6581
2.83967	6583
2.84333	6586
2.84700	6587
2.85067	6587
2.85433	6585
2.85800	6585
2.86167	6586
2.86533	6587
2.86900	6585
2.87267	6582
2.87633	6582
2.88000	6581
2.88367	6581
2.88733	6580
2.89100	6579
2.89467	6578
2.89833	6576
2.90200	6575
2.90567	6577
2.90933	6581
2.91300	6584
2.91667	6588
2.92033	6587
2.92400	6586
2.92767	6584
2.93133	6582
2.93500	6581
2.93867	6584
2.94233	6587
2.94600	6589
2.94967	6587
2.95333	6582
2.95700	6578
2.96067	6578
2.96433	6581
2.96800	6582
2.97167	6581
2.97533	6580
2.97900	6582
2.98267	6585
2.98633	6588
2.99000	6590
2.99367	6592
2.99733	6591
3.00100	6589
3.00467	6587
3.00833	6584
3.01200	6580
3.01567	6576
3.01933	6572
3.02300	6567
3.02667	6563
3.03033	6557
3.03400	6551
3.03767	6548
3.04133	6549
3.04500	6552
3.04867	6554
3.05233	6555
3.05600	6560
3.05967	6569
3.06333	6580
3.06700	6585
3.07067	6583
3.07433	6578
3.07800	6572
3.08167	6569
3.08533	6568
3.08900	6568
3.09267	6566
3.09633	6563
3.10000	6563
3.10367	6566
3.10733	6569
3.11100	6573
3.11467	6579
3.11833	6579
3.12200	6573
3.12567	6565
3.12933	6561
3.13300	6562
3.13667	6565
3.14033	6568
3.14400	6569
3.14767	6569
3.15133	6567
3.15500	6563
3.15867	6561
3.16233	6559
3.16600	6556
3.16967	6554
3.17333	6555
3.17700	6556
3.18067	6557
3.18433	6558
3.18800	6556
3.19167	6553
3.19533	6550
3.19900	6549
3.20267	6549
3.20633	6547
3.21000	6546
3.21367	6548
3.21733	6553
3.22100	6559
3.22467	6560
3.22833	6557
3.23200	6552
3.23567	6542
3.23933	6534
3.24300	6530
3.24667	6528
3.25033	6526
3.25400	6531
3.25767	6541
3.26133	6554
3.26500	6562
3.26867	6565
3.27233	6565
3.27600	6562
3.27967	6559
3.28333	6558
3.28700	6556
3.29067	6554
3.29433	6553
3.29800	6553
3.30167	6550
3.30533	6546
3.30900	6543
3.31267	6538
3.31633	6532
3.32000	6527
3.32367	6527
3.32733	6532
3.33100	6536
3.33467	6537
3.33833	6537
3.34200	6536
3.34567	6536
3.34933	6536
3.35300	6534
3.35667	6532
3.36033	6530
3.36400	6532
3.36767	6538
3.37133	6546
3.37500	6551
3.37867	6555
3.38233	6553
3.38600	6549
3.38967	6542
3.39333	6537
3.39700	6530
3.40067	6526
3.40433	6523
3.40800	6520
3.41167	6517
3.41533	6515
3.41900	6518
3.42267	6521
3.42633	6525
3.43000	6533
3.43367	6539
3.43733	6540
3.44100	6537
3.44467	6533
3.44833	6526
3.45200	6521
3.45567	6519
3.45933	6518
3.46300	6517
3.46667	6519
3.47033	6522
3.47400	6526
3.47767	6529
3.48133	6530
3.48500	6529
3.48867	6527
3.49233	6523
3.49600	6517
3.49967	6514
3.50333	6513
3.50700	6513
3.51067	6516
3.51433	6520
3.51800	6524
3.52167	6531
3.52533	6538
3.52900	6544
3.53267	6547
3.53633	6547
3.54000	6543
3.54367	6536
3.54733	6530
3.55100	6524
3.55467	6521
3.55833	6518
3.56200	6514
3.56567	6513
3.56933	6515
3.57300	6521
3.57667	6527
3.58033	6530
3.58400	6528
3.58767	6524
3.59133	6522
3.59500	6522
3.59867	6524
3.60233	6524
3.60600	6522
3.60967	6519
3.61333	6514
3.61700	6511
3.62067	6510
3.62433	6510
3.62800	6512
3.63167	6517
3.63533	6523
3.63900	6525
3.64267	6524
3.64633	6522
3.65000	6520
3.65367	6519
3.65733	6521
3.66100	6522
3.66467	6518
3.66833	6511
3.67200	6507
3.67567	6506
3.67933	6507
3.68300	6512
3.68667	6518
3.69033	6524
3.69400	6528
3.69767	6529
3.70133	6527
3.70500	6525
3.70867	6524
3.71233	6525
3.71600	6525
3.71967	6522
3.72333	6521
3.72700	6521
3.73067	6523
3.73433	6526
3.73800	6530
3.74167	6533
3.74533	6533
3.74900	6534
3.75267	6530
3.75633	6524
3.76000	6516
3.76367	6510
3.76733	6506
3.77100	6500
3.77467	6495
3.77833	6495
3.78200	6497
3.78567	6499
3.78933	6501
3.79300	6507
3.79667	6515
3.80033	6521
3.80400	6521
3.80767	6517
3.81133	6510
3.81500	6502
3.81867	6496
3.82233	6492
3.82600	6490
3.82967	6492
3.83333	6498
3.83700	6507
3.84067	6511
3.84433	6510
3.84800	6508
3.85167	6508
3.85533	6511
3.85900	6512
3.86267	6510
3.86633	6507
3.87000	6502
3.87367	6499
3.87733	6499
3.88100	6499
3.88467	6499
3.88833	6501
3.89200	6502
3.89567	6504
3.89933	6508
3.90300	6514
3.90667	6515
3.91033	6512
3.91400	6510
3.91767	6506
3.92133	6500
3.92500	6497
3.92867	6498
3.93233	6498
3.93600	6498
3.93967	6499
3.94333	6500
3.94700	6501
3.95067	6502
3.95433	6506
3.95800	6512
3.96167	6514
3.96533	6513
3.96900	6513
3.97267	6515
3.97633	6519
3.98000	6520
3.98367	6517
3.98733	6514
3.99100	6512
3.99467	6510
3.99833	6509

[Chromatogram (Ch2)]
Interval(msec)	220
# of Points	1091
Start Time(min)	0.002
End Time(min)	3.998
R.Time (min)	Intensity
0.00167	0
0.00533	-0
0.00900	-0
0.01267	-0
0.01633	-0
0.02000	-0
0.02367	-0
0.02733	-0
0.03100	-0
0.03467	-0
0.03833	-0
0.04200	0
0.04567	0
0.04933	1
0.05300	1
0.05667	1
0.06033	1
0.06400	1
0.06767	1
0.07133	0
0.07500	0
0.07867	0
0.08233	1
0.08600	1
0.08967	0
0.09333	0
0.09700	0
0.10067	0
0.10433	0
0.10800	0
0.11167	1
0.11533	1
0.11900	1
0.12267	2
0.12633	2
0.13000	2
0.13367	2
0.13733	2
0.14100	1
0.14467	1
0.14833	1
0.15200	1
0.15567	0
0.15933	0
0.16300	0
0.16667	0
0.17033	0
0.17400	-0
0.17767	-0
0.18133	-1
0.18500	-1
0.18867	-1
0.19233	-1
0.19600	-1
0.19967	-1
0.20333	-0
0.20700	-0
0.21067	0
0.21433	-0
0.21800	-0
0.22167	-0
0.22533	0
0.22900	0
0.23267	0
0.23633	0
0.24000	0
0.24367	1
0.24733	1
0.25100	1
0.25467	1
0.25833	1
0.26200	1
0.26567	1
0.26933	1
0.27300	1
0.27667	0
0.28033	0
0.28400	0
0.28767	0
0.29133	0
0.29500	0
0.29867	0
0.30233	1
0.30600	1
0.30967	1
0.31333	1
0.31700	1
0.32067	1
0.32433	1
0.32800	1
0.33167	2
0.33533	2
0.33900	2
0.34267	2
0.34633	1
0.35000	1
0.35367	1
0.35733	1
0.36100	1
0.36467	0
0.36833	0
0.37200	0
0.37567	0
0.37933	0
0.38300	0
0.38667	0
0.39033	0
0.39400	0
0.39767	0
0.40133	-0
0.40500	-0
0.40867	-1
0.41233	-1
0.41600	-1
0.41967	-2
0.42333	-2
0.42700	-2
0.43067	-2
0.43433	-2
0.43800	-2
0.44167	-3
0.44533	-3
0.44900	-3
0.45267	-3
0.45633	-2
0.46000	-2
0.46367	-2
0.46733	-1
0.47100	-1
0.47467	-1
0.47833	-2
0.48200	-2
0.48567	-2
0.48933	-2
0.49300	-2
0.49667	-2
0.50033	-2
0.50400	-2
0.50767	-2
0.51133	-2
0.51500	-2
0.51867	-2
0.52233	-2
0.52600	-3
0.52967	-3
0.53333	-3
0.53700	-3
0.54067	-3
0.54433	-2
0.54800	-2
0.55167	-2
0.55533	-2
0.55900	-2
0.56267	-2
0.56633	-2
0.57000	-2
0.57367	-2
0.57733	-2
0.58100	-2
0.58467	-2
0.58833	-2
0.59200	-2
0.59567	-2
0.59933	-2
0.60300	-2
0.60667	-2
0.61033	-1
0.61400	-1
0.61767	-1
0.62133	-1
0.62500	-1
0.62867	-1
0.63233	-1
0.63600	-1
0.63967	-1
0.64333	-2
0.64700	-2
0.65067	-2
0.65433	-2
0.65800	-3
0.66167	-3
0.66533	-3
0.66900	-4
0.67267	-4
0.67633	-4
0.68000	-3
0.68367	-3
0.68733	-4
0.69100	-3
0.69467	-3
0.69833	-3
0.70200	-3
0.70567	-3
0.70933	-3
0.71300	-3
0.71667	-3
0.72033	-3
0.72400	-3
0.72767	-3
0.73133	-3
0.73500	-4
0.73867	-4
0.74233	-4
0.74600	-5
0.74967	-5
0.75333	-5
0.75700	-4
0.76067	-4
0.76433	-4
0.76800	-4
0.77167	-4
0.77533	-4
0.77900	-4
0.78267	-4
0.78633	-4
0.79000	-4
0.79367	-4
0.79733	-5
0.80100	-4
0.80467	-5
0.80833	-5
0.81200	-5
0.81567	-5
0.81933	-5
0.82300	-5
0.82667	-5
0.83033	-6
0.83400	-6
0.83767	-5
0.84133	-5
0.84500	-5
0.84867	-5
0.85233	-5
0.85600	-5
0.85967	-5
0.86333	-6
0.86700	-6
0.87067	-6
0.87433	-6
0.87800	-6
0.88167	-6
0.88533	-6
0.88900	-5
0.89267	-5
0.89633	-5
0.90000	-5
0.90367	-5
0.90733	-4
0.91100	-4
0.91467	-4
0.91833	-4
0.92200	-4
0.92567	-4
0.92933	-4
0.93300	-4
0.93667	-4
0.94033	-5
0.94400	-5
0.94767	-5
0.95133	-5
0.95500	-5
0.95867	-6
0.96233	-6
0.96600	-6
0.96967	-6
0.97333	-6
0.97700	-6
0.98067	-6
0.98433	-6
0.98800	-6
0.99167	-6
0.99533	-5
0.99900	-5
1.00267	-5
1.00633	-5
1.01000	-5
1.01367	-5
1.01733	-5
1.02100	-5
1.02467	-5
1.02833	-5
1.03200	-6
1.03567	-6
1.03933	-6
1.04300	-6
1.04667	-6
1.05033	-6
1.05400	-6
1.05767	-6
1.06133	-6
1.06500	-6
1.06867	-6
1.07233	-6
1.07600	-6
1.07967	-5
1.08333	-5
1.08700	-5
1.09067	-5
1.09433	-5
1.09800	-5
1.10167	-5
1.10533	-5
1.10900	-5
1.11267	-4
1.11633	-4
1.12000	-4
1.12367	-4
1.12733	-4
1.13100	-4
1.13467	-4
1.13833	-4
1.14200	-5
1.14567	-5
1.14933	-5
1.15300	-5
1.15667	-6
1.16033	-6
1.16400	-7
1.16767	-7
1.17133	-7
1.17500	-7
1.17867	-7
1.18233	-7
1.18600	-7
1.18967	-7
1.19333	-7
1.19700	-7
1.20067	-7
1.20433	-7
1.20800	-8
1.21167	-8
1.21533	-7
1.21900	-7
1.22267	-7
1.22633	-7
1.23000	-7
1.23367	-7
1.23733	-7
1.24100	-7
1.24467	-7
1.24833	-7
1.25200	-7
1.25567	-7
1.25933	-7
1.26300	-7
1.26667	-7
1.27033	-7
1.27400	-7
1.27767	-8
1.28133	-8
1.28500	-8
1.28867	-8
1.29233	-8
1.29600	-8
1.29967	-8
1.30333	-8
1.30700	-8
1.31067	-8
1.31433	-7
1.31800	-7
1.32167	-7
1.32533	-7
1.32900	-7
1.33267	-7
1.33633	-7
1.34000	-7
1.34367	-7
1.34733	-7
1.35100	-7
1.35467	-7
1.35833	-7
1.36200	-7
1.36567	-7
1.36933	-7
1.37300	-7
1.37667	-7
1.38033	-7
1.38400	-6
1.38767	-6
1.39133	-6
1.39500	-6
1.39867	-6
1.40233	-6
1.40600	-6
1.40967	-7
1.41333	-7
1.41700	-7
1.42067	-7
1.42433	-7
1.42800	-7
1.43167	-7
1.43533	-7
1.43900	-7
1.44267	-7
1.44633	-7
1.45000	-7
1.45367	-7
1.45733	-8
1.46100	-8
1.46467	-8
1.46833	-8
1.47200	-8
1.47567	-8
1.47933	-8
1.48300	-8
1.48667	-7
1.49033	-7
1.49400	-7
1.49767	-7
1.50133	-7
1.50500	-8
1.50867	-8
1.51233	-8
1.51600	-8
1.51967	-8
1.52333	-8
1.52700	-8
1.53067	-8
1.53433	-8
1.53800	-9
1.54167	-10
1.54533	-10
1.54900	-10
1.55267	-11
1.55633	-10
1.56000	-10
1.56367	-10
1.56733	-10
1.57100	-10
1.57467	-10
1.57833	-10
1.58200	-10
1.58567	-9
1.58933	-9
1.59300	-10
1.59667	-10
1.60033	-10
1.60400	-11
1.60767	-12
1.61133	-14
1.61500	-15
1.61867	-17
1.62233	-20
1.62600	-22
1.62967	-25
1.63333	-28
1.63700	-31
1.64067	-35
1.64433	-38
1.64800	-42
1.65167	-46
1.65533	-49
1.65900	-53
1.66267	-57
1.66633	-61
1.67000	-65
1.67367	-70
1.67733	-76
1.68100	-81
1.68467	-86
1.68833	-91
1.69200	-95
1.69567	-99
1.69933	-102
1.70300	-105
1.70667	-108
1.71033	-111
1.71400	-113
1.71767	-114
1.72133	-115
1.72500	-116
1.72867	-117
1.73233	-117
1.73600	-118
1.73967	-118
1.74333	-119
1.74700	-119
1.75067	-120
1.75433	-121
1.75800	-122
1.76167	-122
1.76533	-123
1.76900	-123
1.77267	-123
1.77633	-124
1.78000	-124
1.78367	-123
1.78733	-123
1.79100	-123
1.79467	-122
1.79833	-122
1.80200	-122
1.80567	-123
1.80933	-124
1.81300	-125
1.81667	-126
1.82033	-126
1.82400	-126
1.82767	-126
1.83133	-127
1.83500	-127
1.83867	-127
1.84233	-127
1.84600	-127
1.84967	-127
1.85333	-127
1.85700	-127
1.86067	-127
1.86433	-127
1.86800	-127
1.87167	-127
1.87533	-127
1.87900	-128
1.88267	-128
1.88633	-127
1.89000	-127
1.89367	-127
1.89733	-126
1.90100	-126
1.90467	-126
1.90833	-125
1.91200	-125
1.91567	-124
1.91933	-124
1.92300	-123
1.92667	-123
1.93033	-123
1.93400	-123
1.93767	-122
1.94133	-122
1.94500	-123
1.94867	-123
1.95233	-123
1.95600	-123
1.95967	-123
1.96333	-123
1.96700	-123
1.97067	-122
1.97433	-122
1.97800	-121
1.98167	-120
1.98533	-119
1.98900	-119
1.99267	-118
1.99633	-119
2.00000	-119
2.00367	-119
2.00733	-119
2.01100	-119
2.01467	-119
2.01833	-119
2.02200	-118
2.02567	-118
2.02933	-118
2.03300	-117
2.03667	-117
2.04033	-116
2.04400	-116
2.04767	-116
2.05133	-115
2.05500	-115
2.05867	-115
2.06233	-115
2.06600	-115
2.06967	-114
2.07333	-114
2.07700	-115
2.08067	-114
2.08433	-114
2.08800	-113
2.09167	-113
2.09533	-112
2.09900	-112
2.10267	-112
2.10633	-112
2.11000	-111
2.11367	-111
2.11733	-110
2.12100	-110
2.12467	-110
2.12833	-109
2.13200	-109
2.13567	-109
2.13933	-108
2.14300	-108
2.14667	-107
2.15033	-107
2.15400	-107
2.15767	-107
2.16133	-107
2.16500	-107
2.16867	-106
2.17233	-106
2.17600	-105
2.17967	-104
2.18333	-104
2.18700	-103
2.19067	-103
2.19433	-103
2.19800	-103
2.20167	-102
2.20533	-102
2.20900	-101
2.21267	-101
2.21633	-100
2.22000	-100
2.22367	-101
2.22733	-101
2.23100	-102
2.23467	-103
2.23833	-103
2.24200	-103
2.24567	-103
2.24933	-102
2.25300	-101
2.25667	-100
2.26033	-99
2.26400	-98
2.26767	-97
2.27133	-97
2.27500	-97
2.27867	-97
2.28233	-98
2.28600	-98
2.28967	-99
2.29333	-99
2.29700	-99
2.30067	-98
2.30433	-98
2.30800	-97
2.31167	-97
2.31533	-96
2.31900	-95
2.32267	-94
2.32633	-93
2.33000	-92
2.33367	-92
2.33733	-92
2.34100	-91
2.34467	-91
2.34833	-90
2.35200	-89
2.35567	-89
2.35933	-88
2.36300	-87
2.36667	-85
2.37033	-84
2.37400	-82
2.37767	-79
2.38133	-77
2.38500	-74
2.38867	-71
2.39233	-67
2.39600	-64
2.39967	-60
2.40333	-56
2.40700	-51
2.41067	-47
2.41433	-43
2.41800	-40
2.42167	-36
2.42533	-33
2.42900	-31
2.43267	-28
2.43633	-26
2.44000	-23
2.44367	-21
2.44733	-19
2.45100	-17
2.45467	-15
2.45833	-14
2.46200	-13
2.46567	-11
2.46933	-10
2.47300	-9
2.47667	-8
2.48033	-7
2.48400	-6
2.48767	-5
2.49133	-4
2.49500	-3
2.49867	-3
2.50233	-2
2.50600	-1
2.50967	0
2.51333	1
2.51700	2
2.52067	3
2.52433	4
2.52800	5
2.53167	5
2.53533	5
2.53900	4
2.54267	4
2.54633	4
2.55000	4
2.55367	4
2.55733	5
2.56100	5
2.56467	6
2.56833	6
2.57200	7
2.57567	7
2.57933	7
2.58300	7
2.58667	7
2.59033	8
2.59400	8
2.59767	8
2.60133	9
2.60500	9
2.60867	10
2.61233	10
2.61600	10
2.61967	10
2.62333	11
2.62700	11
2.63067	12
2.63433	12
2.63800	13
2.64167	13
2.64533	13
2.64900	14
2.65267	14
2.65633	14
2.66000	14
2.66367	14
2.66733	14
2.67100	14
2.67467	14
2.67833	15
2.68200	15
2.68567	15
2.68933	15
2.69300	15
2.69667	15
2.70033	16
2.70400	16
2.70767	16
2.71133	16
2.71500	16
2.71867	16
2.72233	16
2.72600	16
2.72967	16
2.73333	16
2.73700	16
2.74067	16
2.74433	16
2.74800	16
2.75167	17
2.75533	17
2.75900	17
2.76267	17
2.76633	17
2.77000	17
2.77367	17
2.77733	17
2.78100	17
2.78467	18
2.78833	18
2.79200	18
2.79567	18
2.79933	18
2.80300	18
2.80667	17
2.81033	16
2.81400	16
2.81767	15
2.82133	15
2.82500	15
2.82867	15
2.83233	15
2.83600	15
2.83967	16
2.84333	17
2.84700	17
2.85067	16
2.85433	14
2.85800	10
2.86167	5
2.86533	-4
2.86900	-16
2.87267	-32
2.87633	-53
2.88000	-78
2.88367	-109
2.88733	-144
2.89100	-185
2.89467	-231
2.89833	-282
2.90200	-337
2.90567	-397
2.90933	-460
2.91300	-527
2.91667	-596
2.92033	-669
2.92400	-744
2.92767	-822
2.93133	-903
2.93500	-985
2.93867	-1069
2.94233	-1155
2.94600	-1242
2.94967	-1330
2.95333	-1416
2.95700	-1489
2.96067	-1536
2.96433	-1549
2.96800	-1527
2.97167	-1473
2.97533	-1394
2.97900	-1297
2.98267	-1191
2.98633	-1080
2.99000	-971
2.99367	-865
2.99733	-765
3.00100	-673
3.00467	-589
3.00833	-514
3.01200	-446
3.01567	-386
3.01933	-334
3.02300	-288
3.02667	-248
3.03033	-214
3.03400	-184
3.03767	-158
3.04133	-136
3.04500	-117
3.04867	-100
3.05233	-86
3.05600	-74
3.05967	-63
3.06333	-54
3.06700	-46
3.07067	-40
3.07433	-34
3.07800	-29
3.08167	-25
3.08533	-21
3.08900	-18
3.09267	-15
3.09633	-13
3.10000	-10
3.10367	-8
3.10733	-7
3.11100	-6
3.11467	-4
3.11833	-3
3.12200	-2
3.12567	-2
3.12933	-1
3.13300	0
3.13667	1
3.14033	2
3.14400	2
3.14767	3
3.15133	3
3.15500	3
3.15867	4
3.16233	4
3.16600	5
3.16967	5
3.17333	5
3.17700	5
3.18067	5
3.18433	5
3.18800	5
3.19167	5
3.19533	5
3.19900	5
3.20267	6
3.20633	6
3.21000	7
3.21367	7
3.21733	8
3.22100	8
3.22467	9
3.22833	9
3.23200	9
3.23567	10
3.23933	10
3.24300	11
3.24667	11
3.25033	11
3.25400	11
3.25767	11
3.26133	11
3.26500	11
3.26867	11
3.27233	11
3.27600	11
3.27967	11
3.28333	11
3.28700	11
3.29067	12
3.29433	12
3.29800	12
3.30167	12
3.30533	12
3.30900	12
3.31267	12
3.31633	12
3.32000	12
3.32367	13
3.32733	13
3.33100	13
3.33467	13
3.33833	13
3.34200	13
3.34567	13
3.34933	13
3.35300	13
3.35667	13
3.36033	13
3.36400	13
3.36767	13
3.37133	14
3.37500	14
3.37867	14
3.38233	14
3.38600	14
3.38967	14
3.39333	14
3.39700	14
3.40067	14
3.40433	14
3.40800	13
3.41167	13
3.41533	13
3.41900	13
3.42267	13
3.42633	13
3.43000	13
3.43367	13
3.43733	13
3.44100	13
3.44467	13
3.44833	13
3.45200	12
3.45567	12
3.45933	12
3.46300	12
3.46667	12
3.47033	12
3.47400	12
3.47767	13
3.48133	13
3.48500	13
3.48867	13
3.49233	13
3.49600	13
3.49967	14
3.50333	14
3.50700	14
3.51067	15
3.51433	15
3.51800	15
3.52167	15
3.52533	15
3.52900	15
3.53267	15
3.53633	15
3.54000	15
3.54367	15
3.54733	15
3.55100	15
3.55467	15
3.55833	16
3.56200	16
3.56567	16
3.56933	16
3.57300	16
3.57667	16
3.58033	16
3.58400	17
3.58767	16
3.59133	16
3.59500	16
3.59867	16
3.60233	16
3.60600	16
3.60967	17
3.61333	17
3.61700	17
3.62067	17
3.62433	17
3.62800	17
3.63167	17
3.63533	17
3.63900	17
3.64267	17
3.64633	17
3.65000	16
3.65367	16
3.65733	16
3.66100	16
3.66467	16
3.66833	16
3.67200	16
3.67567	16
3.67933	16
3.68300	16
3.68667	16
3.69033	16
3.69400	16
3.69767	16
3.70133	16
3.70500	16
3.70867	15
3.71233	15
3.71600	15
3.71967	15
3.72333	15
3.72700	15
3.73067	15
3.73433	15
3.73800	16
3.74167	16
3.74533	16
3.74900	16
3.75267	16
3.75633	16
3.76000	16
3.76367	16
3.76733	16
3.77100	16
3.77467	16
3.77833	16
3.78200	16
3.78567	15
3.78933	15
3.79300	15
3.79667	15
3.80033	15
3.80400	15
3.80767	15
3.81133	15
3.81500	15
3.81867	15
3.82233	15
3.82600	15
3.82967	15
3.83333	15
3.83700	15
3.84067	15
3.84433	15
3.84800	15
3.85167	14
3.85533	14
3.85900	14
3.86267	14
3.86633	14
3.87000	14
3.87367	14
3.87733	14
3.88100	14
3.88467	14
3.88833	14
3.89200	14
3.89567	14
3.89933	14
3.90300	14
3.90667	14
3.91033	14
3.91400	14
3.91767	14
3.92133	15
3.92500	15
3.92867	15
3.93233	15
3.93600	15
3.93967	15
3.94333	15
3.94700	16
3.95067	16
3.95433	16
3.95800	16
3.96167	16
3.96533	16
3.96900	16
3.97267	16
3.97633	16
3.98000	15
3.98367	15
3.98733	15
3.99100	15
3.99467	15
3.99833	14

[Chromatogram (Ch3)]
Interval(msec)	220
# of Points	1091
Start Time(min)	0.002
End Time(min)	3.998
R.Time (min)	Intensity
0.00167	-1
0.00533	-1
0.00900	2
0.01267	4
0.01633	5
0.02000	6
0.02367	5
0.02733	5
0.03100	6
0.03467	7
0.03833	7
0.04200	6
0.04567	5
0.04933	4
0.05300	3
0.05667	4
0.06033	3
0.06400	1
0.06767	1
0.07133	-2
0.07500	-5
0.07867	-4
0.08233	-2
0.08600	-1
0.08967	0
0.09333	1
0.09700	2
0.10067	2
0.10433	2
0.10800	4
0.11167	3
0.11533	3
0.11900	2
0.12267	2
0.12633	2
0.13000	3
0.13367	8
0.13733	10
0.14100	9
0.14467	6
0.14833	3
0.15200	4
0.15567	3
0.15933	3
0.16300	3
0.16667	3
0.17033	4
0.17400	4
0.17767	4
0.18133	5
0.18500	5
0.18867	5
0.19233	2
0.19600	-0
0.19967	-1
0.20333	-2
0.20700	-2
0.21067	-4
0.21433	-4
0.21800	-4
0.22167	-5
0.22533	-6
0.22900	-5
0.23267	-3
0.23633	-2
0.24000	-2
0.24367	-2
0.24733	-0
0.25100	0
0.25467	-1
0.25833	-4
0.26200	-6
0.26567	-7
0.26933	-6
0.27300	-4
0.27667	-1
0.28033	1
0.28400	4
0.28767	3
0.29133	2
0.29500	4
0.29867	5
0.30233	1
0.30600	-3
0.30967	-4
0.31333	-4
0.31700	-3
0.32067	-2
0.32433	-3
0.32800	-4
0.33167	-3
0.33533	-3
0.33900	-4
0.34267	-3
0.34633	-0
0.35000	-0
0.35367	-1
0.35733	-1
0.36100	-1
0.36467	-1
0.36833	-1
0.37200	-2
0.37567	-3
0.37933	-4
0.38300	-6
0.38667	-7
0.39033	-6
0.39400	-6
0.39767	-6
0.40133	-5
0.40500	-5
0.40867	-3
0.41233	-4
0.41600	-3
0.41967	-2
0.42333	-3
0.42700	-3
0.43067	-3
0.43433	-5
0.43800	-7
0.44167	-7
0.44533	-8
0.44900	-7
0.45267	-5
0.45633	-6
0.46000	-6
0.46367	-4
0.46733	-0
0.47100	1
0.47467	1
0.47833	1
0.48200	-2
0.48567	-3
0.48933	-2
0.49300	-3
0.49667	-5
0.50033	-6
0.50400	-5
0.50767	-5
0.51133	-4
0.51500	-2
0.51867	-2
0.52233	-3
0.52600	-6
0.52967	-10
0.53333	-10
0.53700	-7
0.54067	-6
0.54433	-5
0.54800	-3
0.55167	-1
0.55533	0
0.55900	0
0.56267	1
0.56633	1
0.57000	1
0.57367	0
0.57733	-0
0.58100	-0
0.58467	-1
0.58833	-2
0.59200	-2
0.59567	-3
0.59933	-3
0.60300	-4
0.60667	-4
0.61033	-5
0.61400	-7
0.61767	-8
0.62133	-9
0.62500	-12
0.62867	-11
0.63233	-7
0.63600	-4
0.63967	-5
0.64333	-5
0.64700	-3
0.65067	-5
0.65433	-6
0.65800	-7
0.66167	-6
0.66533	-7
0.66900	-7
0.67267	-7
0.67633	-8
0.68000	-10
0.68367	-13
0.68733	-10
0.69100	-6
0.69467	-5
0.69833	-3
0.70200	-2
0.70567	-2
0.70933	-2
0.71300	-3
0.71667	-5
0.72033	-7
0.72400	-7
0.72767	-6
0.73133	-7
0.73500	-9
0.73867	-11
0.74233	-14
0.74600	-15
0.74967	-15
0.75333	-15
0.75700	-12
0.76067	-8
0.76433	-7
0.76800	-6
0.77167	-7
0.77533	-8
0.77900	-8
0.78267	-6
0.78633	-6
0.79000	-5
0.79367	-4
0.79733	-3
0.80100	-1
0.80467	-2
0.80833	-4
0.81200	-6
0.81567	-8
0.81933	-9
0.82300	-7
0.82667	-8
0.83033	-10
0.83400	-11
0.83767	-11
0.84133	-10
0.84500	-9
0.84867	-9
0.85233	-10
0.85600	-8
0.85967	-6
0.86333	-4
0.86700	-2
0.87067	-1
0.87433	-1
0.87800	-5
0.88167	-7
0.88533	-8
0.88900	-8
0.89267	-8
0.89633	-8
0.90000	-9
0.90367	-10
0.90733	-11
0.91100	-10
0.91467	-7
0.91833	-5
0.92200	-4
0.92567	-5
0.92933	-4
0.93300	-2
0.93667	-1
0.94033	1
0.94400	2
0.94767	0
0.95133	0
0.95500	-0
0.95867	-2
0.96233	-2
0.96600	-2
0.96967	-2
0.97333	-3
0.97700	-2
0.98067	-3
0.98433	-4
0.98800	-4
0.99167	-2
0.99533	0
0.99900	2
1.00267	0
1.00633	-3
1.01000	-3
1.01367	-5
1.01733	-4
1.02100	-4
1.02467	-6
1.02833	-7
1.03200	-8
1.03567	-7
1.03933	-6
1.04300	-7
1.04667	-6
1.05033	-7
1.05400	-8
1.05767	-8
1.06133	-8
1.06500	-6
1.06867	-5
1.07233	-6
1.07600	-7
1.07967	-8
1.08333	-9
1.08700	-9
1.09067	-8
1.09433	-7
1.09800	-6
1.10167	-4
1.10533	-3
1.10900	-2
1.11267	-2
1.11633	-3
1.12000	-4
1.12367	-5
1.12733	-4
1.13100	-3
1.13467	-3
1.13833	-3
1.14200	-2
1.14567	-1
1.14933	-1
1.15300	-1
1.15667	-1
1.16033	-2
1.16400	-3
1.16767	-4
1.17133	-7
1.17500	-9
1.17867	-11
1.18233	-10
1.18600	-8
1.18967	-5
1.19333	-4
1.19700	-3
1.20067	-4
1.20433	-3
1.20800	-1
1.21167	-1
1.21533	-1
1.21900	-0
1.22267	-2
1.22633	-5
1.23000	-6
1.23367	-5
1.23733	-5
1.24100	-6
1.24467	-7
1.24833	-7
1.25200	-5
1.25567	-4
1.25933	-3
1.26300	-2
1.26667	-2
1.27033	-1
1.27400	-0
1.27767	-2
1.28133	-4
1.28500	-3
1.28867	-2
1.29233	-1
1.29600	0
1.29967	2
1.30333	0
1.30700	-3
1.31067	-5
1.31433	-6
1.31800	-8
1.32167	-5
1.32533	-3
1.32900	-1
1.33267	0
1.33633	-2
1.34000	-5
1.34367	-4
1.34733	-4
1.35100	-5
1.35467	-7
1.35833	-8
1.36200	-9
1.36567	-7
1.36933	-4
1.37300	-4
1.37667	-6
1.38033	-2
1.38400	0
1.38767	0
1.39133	-1
1.39500	-3
1.39867	-4
1.40233	-5
1.40600	-6
1.40967	-5
1.41333	-3
1.41700	-2
1.42067	-2
1.42433	-4
1.42800	-5
1.43167	-4
1.43533	-0
1.43900	2
1.44267	3
1.44633	3
1.45000	3
1.45367	3
1.45733	1
1.46100	0
1.46467	2
1.46833	3
1.47200	4
1.47567	3
1.47933	0
1.48300	-2
1.48667	-3
1.49033	-2
1.49400	-2
1.49767	-4
1.50133	-6
1.50500	-6
1.50867	-5
1.51233	-2
1.51600	-1
1.51967	-2
1.52333	-2
1.52700	-2
1.53067	-3
1.53433	-3
1.53800	-3
1.54167	-2
1.54533	-2
1.54900	-3
1.55267	-4
1.55633	-5
1.56000	-6
1.56367	-7
1.56733	-6
1.57100	-6
1.57467	-4
1.57833	-1
1.58200	2
1.58567	3
1.58933	1
1.59300	1
1.59667	2
1.60033	1
1.60400	-1
1.60767	-3
1.61133	-4
1.61500	-6
1.61867	-5
1.62233	-3
1.62600	1
1.62967	3
1.63333	5
1.63700	3
1.64067	2
1.64433	-2
1.64800	-3
1.65167	-2
1.65533	-3
1.65900	-3
1.66267	-3
1.66633	-0
1.67000	1
1.67367	3
1.67733	3
1.68100	5
1.68467	7
1.68833	8
1.69200	8
1.69567	7
1.69933	5
1.70300	5
1.70667	6
1.71033	8
1.71400	10
1.71767	11
1.72133	10
1.72500	10
1.72867	10
1.73233	11
1.73600	10
1.73967	11
1.74333	13
1.74700	14
1.75067	15
1.75433	16
1.75800	18
1.76167	17
1.76533	15
1.76900	14
1.77267	13
1.77633	13
1.78000	13
1.78367	15
1.78733	16
1.79100	18
1.79467	21
1.79833	24
1.80200	24
1.80567	23
1.80933	21
1.81300	21
1.81667	21
1.82033	23
1.82400	24
1.82767	25
1.83133	25
1.83500	26
1.83867	27
1.84233	26
1.84600	26
1.84967	28
1.85333	32
1.85700	36
1.86067	37
1.86433	38
1.86800	37
1.87167	36
1.87533	35
1.87900	35
1.88267	37
1.88633	39
1.89000	41
1.89367	43
1.89733	43
1.90100	44
1.90467	46
1.90833	46
1.91200	47
1.91567	47
1.91933	45
1.92300	44
1.92667	43
1.93033	45
1.93400	48
1.93767	51
1.94133	51
1.94500	49
1.94867	48
1.95233	49
1.95600	51
1.95967	53
1.96333	54
1.96700	54
1.97067	54
1.97433	56
1.97800	59
1.98167	57
1.98533	57
1.98900	59
1.99267	61
1.99633	61
2.00000	62
2.00367	61
2.00733	60
2.01100	61
2.01467	62
2.01833	64
2.02200	67
2.02567	70
2.02933	73
2.03300	75
2.03667	75
2.04033	75
2.04400	76
2.04767	73
2.05133	69
2.05500	70
2.05867	72
2.06233	73
2.06600	76
2.06967	77
2.07333	77
2.07700	77
2.08067	79
2.08433	82
2.08800	86
2.09167	85
2.09533	85
2.09900	86
2.10267	87
2.10633	89
2.11000	88
2.11367	86
2.11733	87
2.12100	89
2.12467	90
2.12833	91
2.13200	93
2.13567	95
2.13933	98
2.14300	100
2.14667	101
2.15033	103
2.15400	104
2.15767	105
2.16133	106
2.16500	105
2.16867	104
2.17233	105
2.17600	105
2.17967	105
2.18333	108
2.18700	110
2.19067	114
2.19433	115
2.19800	114
2.20167	112
2.20533	111
2.20900	112
2.21267	113
2.21633	114
2.22000	116
2.22367	120
2.22733	126
2.23100	129
2.23467	131
2.23833	132
2.24200	135
2.24567	138
2.24933	140
2.25300	140
2.25667	141
2.26033	141
2.26400	140
2.26767	141
2.27133	140
2.27500	139
2.27867	139
2.28233	139
2.28600	142
2.28967	143
2.29333	145
2.29700	146
2.30067	147
2.30433	149
2.30800	152
2.31167	153
2.31533	155
2.31900	156
2.32267	158
2.32633	160
2.33000	161
2.33367	163
2.33733	163
2.34100	164
2.34467	165
2.34833	166
2.35200	167
2.35567	169
2.35933	169
2.36300	170
2.36667	172
2.37033	174
2.37400	173
2.37767	173
2.38133	173
2.38500	173
2.38867	173
2.39233	173
2.39600	174
2.39967	177
2.40333	183
2.40700	186
2.41067	189
2.41433	191
2.41800	195
2.42167	199
2.42533	203
2.42900	204
2.43267	206
2.43633	209
2.44000	213
2.44367	241
2.44733	304
2.45100	374
2.45467	421
2.45833	436
2.46200	442
2.46567	444
2.46933	439
2.47300	426
2.47667	407
2.48033	390
2.48400	379
2.48767	377
2.49133	380
2.49500	385
2.49867	392
2.50233	397
2.50600	396
2.50967	392
2.51333	382
2.51700	371
2.52067	360
2.52433	349
2.52800	342
2.53167	338
2.53533	337
2.53900	339
2.54267	343
2.54633	350
2.55000	358
2.55367	368
2.55733	379
2.56100	393
2.56467	404
2.56833	413
2.57200	421
2.57567	426
2.57933	430
2.58300	430
2.58667	428
2.59033	422
2.59400	411
2.59767	398
2.60133	382
2.60500	365
2.60867	344
2.61233	313
2.61600	276
2.61967	235
2.62333	192
2.62700	152
2.63067	115
2.63433	84
2.63800	59
2.64167	40
2.64533	24
2.64900	16
2.65267	14
2.65633	17
2.66000	21
2.66367	29
2.66733	40
2.67100	51
2.67467	61
2.67833	70
2.68200	80
2.68567	95
2.68933	109
2.69300	123
2.69667	137
2.70033	150
2.70400	161
2.70767	173
2.71133	183
2.71500	192
2.71867	202
2.72233	211
2.72600	222
2.72967	232
2.73333	240
2.73700	247
2.74067	253
2.74433	259
2.74800	263
2.75167	265
2.75533	266
2.75900	268
2.76267	268
2.76633	268
2.77000	268
2.77367	268
2.77733	267
2.78100	264
2.78467	261
2.78833	258
2.79200	256
2.79567	255
2.79933	253
2.80300	249
2.80667	248
2.81033	247
2.81400	248
2.81767	250
2.82133	256
2.82500	275
2.82867	323
2.83233	438
2.83600	668
2.83967	1082
2.84333	1748
2.84700	2717
2.85067	4009
2.85433	5593
2.85800	7396
2.86167	9302
2.86533	11170
2.86900	12857
2.87267	14240
2.87633	15226
2.88000	15766
2.88367	15861
2.88733	15564
2.89100	14951
2.89467	14104
2.89833	13104
2.90200	12029
2.90567	10933
2.90933	9855
2.91300	8824
2.91667	7858
2.92033	6972
2.92400	6167
2.92767	5443
2.93133	4795
2.93500	4219
2.93867	3709
2.94233	3258
2.94600	2862
2.94967	2516
2.95333	2213
2.95700	1947
2.96067	1715
2.96433	1513
2.96800	1340
2.97167	1189
2.97533	1057
2.97900	945
2.98267	850
2.98633	767
2.99000	694
2.99367	630
2.99733	575
3.00100	529
3.00467	491
3.00833	459
3.01200	432
3.01567	407
3.01933	384
3.02300	365
3.02667	349
3.03033	337
3.03400	324
3.03767	315
3.04133	308
3.04500	303
3.04867	297
3.05233	293
3.05600	288
3.05967	284
3.06333	279
3.06700	275
3.07067	274
3.07433	273
3.07800	271
3.08167	269
3.08533	266
3.08900	261
3.09267	258
3.09633	257
3.10000	256
3.10367	254
3.10733	254
3.11100	252
3.11467	249
3.11833	246
3.12200	245
3.12567	242
3.12933	240
3.13300	241
3.13667	241
3.14033	239
3.14400	238
3.14767	238
3.15133	239
3.15500	238
3.15867	238
3.16233	239
3.16600	240
3.16967	240
3.17333	240
3.17700	238
3.18067	236
3.18433	232
3.18800	229
3.19167	226
3.19533	222
3.19900	221
3.20267	222
3.20633	220
3.21000	218
3.21367	217
3.21733	215
3.22100	212
3.22467	209
3.22833	205
3.23200	203
3.23567	202
3.23933	202
3.24300	201
3.24667	201
3.25033	199
3.25400	195
3.25767	191
3.26133	189
3.26500	189
3.26867	189
3.27233	186
3.27600	181
3.27967	180
3.28333	180
3.28700	179
3.29067	179
3.29433	176
3.29800	173
3.30167	171
3.30533	171
3.30900	171
3.31267	171
3.31633	170
3.32000	168
3.32367	164
3.32733	159
3.33100	156
3.33467	154
3.33833	152
3.34200	153
3.34567	153
3.34933	150
3.35300	150
3.35667	149
3.36033	148
3.36400	148
3.36767	146
3.37133	146
3.37500	145
3.37867	145
3.38233	147
3.38600	148
3.38967	146
3.39333	145
3.39700	146
3.40067	147
3.40433	144
3.40800	140
3.41167	137
3.41533	134
3.41900	134
3.42267	134
3.42633	133
3.43000	131
3.43367	132
3.43733	132
3.44100	133
3.44467	133
3.44833	129
3.45200	128
3.45567	128
3.45933	129
3.46300	130
3.46667	129
3.47033	127
3.47400	127
3.47767	126
3.48133	127
3.48500	128
3.48867	128
3.49233	129
3.49600	131
3.49967	133
3.50333	132
3.50700	132
3.51067	130
3.51433	127
3.51800	124
3.52167	123
3.52533	123
3.52900	123
3.53267	123
3.53633	124
3.54000	123
3.54367	121
3.54733	122
3.55100	124
3.55467	124
3.55833	122
3.56200	119
3.56567	115
3.56933	115
3.57300	116
3.57667	117
3.58033	117
3.58400	118
3.58767	119
3.59133	121
3.59500	122
3.59867	123
3.60233	124
3.60600	125
3.60967	125
3.61333	126
3.61700	125
3.62067	124
3.62433	121
3.62800	121
3.63167	120
3.63533	120
3.63900	119
3.64267	117
3.64633	115
3.65000	113
3.65367	110
3.65733	108
3.66100	107
3.66467	108
3.66833	110
3.67200	112
3.67567	113
3.67933	115
3.68300	116
3.68667	116
3.69033	115
3.69400	115
3.69767	116
3.70133	117
3.70500	119
3.70867	119
3.71233	119
3.71600	120
3.71967	121
3.72333	116
3.72700	112
3.73067	111
3.73433	110
3.73800	111
3.74167	111
3.74533	109
3.74900	109
3.75267	111
3.75633	115
3.76000	115
3.76367	114
3.76733	113
3.77100	113
3.77467	113
3.77833	112
3.78200	113
3.78567	114
3.78933	113
3.79300	113
3.79667	112
3.80033	111
3.80400	111
3.80767	110
3.81133	109
3.81500	109
3.81867	108
3.82233	107
3.82600	107
3.82967	106
3.83333	105
3.83700	107
3.84067	110
3.84433	109
3.84800	107
3.85167	106
3.85533	108
3.85900	108
3.86267	108
3.86633	110
3.87000	112
3.87367	113
3.87733	112
3.88100	109
3.88467	107
3.88833	106
3.89200	106
3.89567	108
3.89933	110
3.90300	110
3.90667	110
3.91033	113
3.91400	114
3.91767	114
3.92133	111
3.92500	110
3.92867	111
3.93233	112
3.93600	112
3.93967	110
3.94333	111
3.94700	111
3.95067	110
3.95433	110
3.95800	110
3.96167	107
3.96533	105
3.96900	104
3.97267	104
3.97633	107
3.98000	108
3.98367	109
3.98733	109
3.99100	108
3.99467	106
3.99833	106

[Status Trace (Column Oven Temperature)]
Interval(msec)	1000
# of Points	240
Start Time(min)	0.003
End Time(min)	3.986
Intensity Units	
Intensity Multiplier	1
R.Time (min)	Intensity
0.00280	34.98
0.01947	34.98
0.03613	34.98
0.05280	34.99
0.06947	34.99
0.08613	35.00
0.10280	35.00
0.11947	34.99
0.13613	34.98
0.15280	34.98
0.16947	34.99
0.18613	34.99
0.20280	35.00
0.21947	35.00
0.23613	34.99
0.25280	34.99
0.26947	34.99
0.28613	34.98
0.30280	34.98
0.31947	34.98
0.33613	34.97
0.35280	34.98
0.36947	34.97
0.38613	34.97
0.40280	34.96
0.41947	34.96
0.43613	34.97
0.45280	34.98
0.46947	34.98
0.48613	34.98
0.50280	34.98
0.51947	34.98
0.53613	34.98
0.55280	34.99
0.56947	34.99
0.58613	34.97
0.60280	34.98
0.61947	34.98
0.63613	34.98
0.65280	34.98
0.66947	34.98
0.68613	34.98
0.70280	34.97
0.71947	34.97
0.73613	34.97
0.75280	34.97
0.76947	34.97
0.78613	34.98
0.80280	34.98
0.81947	34.99
0.83613	35.00
0.85280	34.99
0.86947	35.00
0.88613	35.00
0.90280	34.98
0.91947	34.98
0.93613	34.98
0.95280	34.98
0.96947	34.98
0.98613	34.98
1.00280	34.98
1.01947	34.98
1.03613	35.00
1.05280	35.01
1.06947	35.00
1.08613	34.99
1.10280	34.99
1.11947	34.98
1.13613	34.98
1.15280	34.98
1.16947	35.00
1.18613	34.98
1.20280	34.98
1.21947	34.97
1.23613	34.98
1.25280	34.98
1.26947	34.99
1.28613	34.99
1.30280	34.99
1.31947	34.99
1.33613	34.99
1.35280	34.99
1.36947	34.99
1.38613	34.99
1.40280	34.99
1.41947	34.99
1.43613	34.99
1.45280	34.98
1.46947	34.98
1.48613	34.97
1.50280	34.98
1.51947	34.98
1.53613	34.99
1.55280	34.99
1.56947	34.99
1.58613	35.00
1.60280	35.03
1.61947	35.13
1.63613	35.29
1.65280	35.51
1.66947	35.81
1.68613	36.18
1.70280	36.54
1.71947	36.88
1.73613	37.22
1.75280	37.56
1.76947	37.92
1.78613	38.22
1.80280	38.55
1.81947	38.88
1.83613	39.23
1.85280	39.55
1.86947	39.88
1.88613	40.22
1.90280	40.55
1.91947	40.87
1.93613	41.20
1.95280	41.54
1.96947	41.86
1.98613	42.16
2.00280	42.50
2.01947	42.82
2.03613	43.16
2.05280	43.48
2.06947	43.81
2.08613	44.12
2.10280	44.45
2.11947	44.78
2.13613	45.09
2.15280	45.42
2.16947	45.73
2.18613	46.06
2.20280	46.38
2.21947	46.69
2.23613	47.05
2.25280	47.37
2.26947	47.70
2.28613	48.05
2.30280	48.39
2.31947	48.71
2.33613	49.03
2.35280	49.35
2.36947	49.59
2.38613	49.70
2.40280	49.71
2.41947	49.71
2.43613	49.72
2.45280	49.72
2.46947	49.73
2.48613	49.75
2.50280	49.75
2.51947	49.74
2.53613	49.79
2.55280	49.80
2.56947	49.81
2.58613	49.82
2.60280	49.83
2.61947	49.84
2.63613	49.83
2.65280	49.84
2.66947	49.85
2.68613	49.85
2.70280	49.85
2.71947	49.84
2.73613	49.85
2.75280	49.85
2.76947	49.85
2.78613	49.84
2.80280	49.86
2.81947	49.89
2.83613	49.88
2.85280	49.88
2.86947	49.88
2.88613	49.87
2.90280	49.86
2.91947	49.85
2.93613	49.85
2.95280	49.86
2.96947	49.86
2.98613	49.88
3.00280	49.89
3.01947	49.92
3.03613	49.93
3.05280	49.95
3.06947	49.95
3.08613	49.96
3.10280	49.96
3.11947	49.96
3.13613	49.97
3.15280	49.97
3.16947	49.98
3.18613	50.00
3.20280	50.00
3.21947	50.00
3.23613	50.01
3.25280	50.01
3.26947	50.01
3.28613	50.02
3.30280	50.02
3.31947	50.02
3.33613	50.03
3.35280	50.05
3.36947	50.05
3.38613	50.07
3.40280	50.08
3.41947	50.08
3.43613	50.09
3.45280	50.10
3.46947	50.11
3.48613	50.10
3.50280	50.10
3.51947	50.09
3.53613	50.09
3.55280	50.08
3.56947	50.07
3.58613	50.07
3.60280	50.07
3.61947	50.08
3.63613	50.08
3.65280	50.08
3.66947	50.07
3.68613	50.07
3.70280	50.07
3.71947	50.07
3.73613	50.08
3.75280	50.07
3.76947	50.07
3.78613	50.07
3.80280	50.07
3.81947	50.08
3.83613	50.07
3.85280	50.08
3.86947	50.09
3.88613	50.09
3.90280	50.09
3.91947	50.09
3.93613	50.08
3.95280	50.08
3.96947	50.07
3.98613	50.08

[Status Trace (Injection Unit Temperature)]
Interval(msec)	1000
# of Points	240
Start Time(min)	0.003
End Time(min)	3.986
Intensity Units	
Intensity Multiplier	1
R.Time (min)	Intensity
0.00280	99.97
0.01947	99.97
0.03613	99.97
0.05280	99.97
0.06947	99.97
0.08613	99.97
0.10280	99.97
0.11947	99.97
0.13613	99.97
0.15280	99.97
0.16947	99.97
0.18613	99.97
0.20280	99.97
0.21947	99.97
0.23613	99.97
0.25280	99.97
0.26947	99.97
0.28613	99.98
0.30280	99.97
0.31947	99.98
0.33613	99.97
0.35280	99.98
0.36947	99.98
0.38613	99.97
0.40280	99.98
0.41947	99.97
0.43613	99.98
0.45280	99.97
0.46947	99.97
0.48613	99.97
0.50280	99.97
0.51947	99.97
0.53613	99.97
0.55280	99.97
0.56947	99.96
0.58613	99.97
0.60280	99.97
0.61947	99.97
0.63613	99.97
0.65280	99.97
0.66947	99.97
0.68613	99.97
0.70280	99.97
0.71947	99.97
0.73613	99.97
0.75280	99.97
0.76947	99.97
0.78613	99.97
0.80280	99.97
0.81947	99.97
0.83613	99.97
0.85280	99.97
0.86947	99.97
0.88613	99.97
0.90280	99.97
0.91947	99.97
0.93613	99.97
0.95280	99.97
0.96947	99.97
0.98613	99.97
1.00280	99.97
1.01947	99.97
1.03613	99.98
1.05280	99.97
1.06947	99.97
1.08613	99.97
1.10280	99.97
1.11947	99.97
1.13613	99.98
1.15280	99.97
1.16947	99.98
1.18613	99.98
1.20280	99.97
1.21947	99.98
1.23613	99.97
1.25280	99.98
1.26947	99.98
1.28613	99.98
1.30280	99.97
1.31947	99.98
1.33613	99.97
1.35280	99.97
1.36947	99.98
1.38613	99.97
1.40280	99.98
1.41947	99.98
1.43613	99.98
1.45280	99.98
1.46947	99.98
1.48613	99.98
1.50280	99.98
1.51947	99.97
1.53613	99.98
1.55280	99.98
1.56947	99.98
1.58613	99.97
1.60280	99.98
1.61947	99.98
1.63613	99.98
1.65280	99.98
1.66947	99.98
1.68613	99.98
1.70280	99.98
1.71947	99.98
1.73613	99.98
1.75280	99.98
1.76947	99.98
1.78613	99.98
1.80280	99.98
1.81947	99.98
1.83613	99.98
1.85280	99.97
1.86947	99.98
1.88613	99.97
1.90280	99.98
1.91947	99.98
1.93613	99.98
1.95280	99.97
1.96947	99.97
1.98613	99.97
2.00280	99.97
2.01947	99.97
2.03613	99.97
2.05280	99.97
2.06947	99.97
2.08613	99.97
2.10280	99.97
2.11947	99.97
2.13613	99.97
2.15280	99.97
2.16947	99.97
2.18613	99.97
2.20280	99.97
2.21947	99.97
2.23613	99.96
2.25280	99.97
2.26947	99.96
2.28613	99.97
2.30280	99.96
2.31947	99.96
2.33613	99.97
2.35280	99.97
2.36947	99.97
2.38613	99.97
2.40280	99.96
2.41947	99.97
2.43613	99.96
2.45280	99.97
2.46947	99.97
2.48613	99.97
2.50280	99.97
2.51947	99.97
2.53613	99.97
2.55280	99.97
2.56947	99.97
2.58613	99.97
2.60280	99.97
2.61947	99.97
2.63613	99.97
2.65280	99.97
2.66947	99.98
2.68613	99.97
2.70280	99.98
2.71947	99.98
2.73613	99.98
2.75280	99.98
2.76947	99.98
2.78613	99.98
2.80280	99.99
2.81947	99.99
2.83613	99.99
2.85280	99.99
2.86947	99.99
2.88613	99.99
2.90280	100.00
2.91947	100.00
2.93613	100.00
2.95280	100.00
2.96947	100.00
2.98613	100.00
3.00280	100.00
3.01947	100.00
3.03613	100.00
3.05280	100.01
3.06947	100.01
3.08613	100.01
3.10280	100.01
3.11947	100.01
3.13613	100.02
3.15280	100.02
3.16947	100.02
3.18613	100.02
3.20280	100.02
3.21947	100.02
3.23613	100.02
3.25280	100.02
3.26947	100.02
3.28613	100.03
3.30280	100.03
3.31947	100.03
3.33613	100.02
3.35280	100.03
3.36947	100.03
3.38613	100.03
3.40280	100.03
3.41947	100.03
3.43613	100.03
3.45280	100.03
3.46947	100.03
3.48613	100.03
3.50280	100.03
3.51947	100.03
3.53613	100.04
3.55280	100.04
3.56947	100.04
3.58613	100.04
3.60280	100.04
3.61947	100.04
3.63613	100.04
3.65280	100.04
3.66947	100.04
3.68613	100.04
3.70280	100.04
3.71947	100.04
3.73613	100.04
3.75280	100.04
3.76947	100.04
3.78613	100.04
3.80280	100.04
3.81947	100.04
3.83613	100.04
3.85280	100.04
3.86947	100.04
3.88613	100.04
3.90280	100.04
3.91947	100.04
3.93613	100.05
3.95280	100.04
3.96947	100.04
3.98613	100.04

[Status Trace (Carrier Gas Pressure)]
Interval(msec)	1000
# of Points	240
Start Time(min)	0.003
End Time(min)	3.986
Intensity Units	
Intensity Multiplier	1
R.Time (min)	Intensity
0.00280	58.00
0.01947	56.32
0.03613	56.35
0.05280	58.66
0.06947	59.83
0.08613	58.25
0.10280	57.97
0.11947	58.01
0.13613	58.01
0.15280	58.01
0.16947	58.00
0.18613	58.00
0.20280	58.00
0.21947	58.00
0.23613	58.00
0.25280	58.00
0.26947	58.00
0.28613	58.00
0.30280	58.00
0.31947	58.00
0.33613	58.00
0.35280	58.00
0.36947	58.00
0.38613	58.00
0.40280	58.00
0.41947	58.00
0.43613	58.00
0.45280	58.00
0.46947	58.00
0.48613	58.00
0.50280	58.00
0.51947	58.00
0.53613	58.00
0.55280	58.00
0.56947	58.00
0.58613	58.00
0.60280	58.00
0.61947	58.00
0.63613	58.00
0.65280	58.00
0.66947	58.00
0.68613	58.00
0.70280	58.00
0.71947	58.00
0.73613	58.00
0.75280	58.00
0.76947	58.00
0.78613	58.00
0.80280	58.00
0.81947	58.00
0.83613	58.00
0.85280	58.00
0.86947	58.00
0.88613	58.00
0.90280	58.00
0.91947	58.00
0.93613	58.00
0.95280	58.00
0.96947	58.00
0.98613	58.00
1.00280	58.00
1.01947	58.00
1.03613	58.00
1.05280	58.00
1.06947	58.00
1.08613	58.00
1.10280	58.00
1.11947	58.00
1.13613	58.00
1.15280	58.00
1.16947	58.00
1.18613	58.00
1.20280	58.00
1.21947	58.00
1.23613	58.00
1.25280	58.00
1.26947	58.00
1.28613	58.00
1.30280	58.00
1.31947	58.00
1.33613	58.00
1.35280	58.00
1.36947	58.00
1.38613	58.00
1.40280	58.00
1.41947	58.00
1.43613	58.00
1.45280	58.00
1.46947	58.00
1.48613	58.00
1.50280	58.00
1.51947	58.00
1.53613	58.00
1.55280	58.00
1.56947	58.00
1.58613	58.00
1.60280	58.00
1.61947	58.00
1.63613	58.00
1.65280	58.00
1.66947	58.01
1.68613	58.01
1.70280	58.00
1.71947	58.00
1.73613	58.00
1.75280	58.00
1.76947	58.00
1.78613	58.00
1.80280	58.00
1.81947	58.00
1.83613	58.00
1.85280	58.00
1.86947	58.00
1.88613	58.00
1.90280	58.00
1.91947	58.00
1.93613	58.00
1.95280	58.00
1.96947	58.00
1.98613	58.00
2.00280	58.00
2.01947	58.00
2.03613	58.00
2.05280	58.00
2.06947	58.00
2.08613	58.00
2.10280	58.00
2.11947	58.00
2.13613	58.00
2.15280	58.00
2.16947	58.00
2.18613	58.00
2.20280	58.00
2.21947	58.00
2.23613	58.00
2.25280	58.00
2.26947	58.00
2.28613	58.00
2.30280	58.00
2.31947	58.00
2.33613	58.00
2.35280	58.00
2.36947	58.00
2.38613	57.99
2.40280	57.99
2.41947	58.00
2.43613	58.00
2.45280	58.00
2.46947	58.00
2.48613	58.00
2.50280	57.96
2.51947	58.01
2.53613	57.99
2.55280	58.00
2.56947	58.00
2.58613	58.00
2.60280	58.00
2.61947	58.00
2.63613	58.00
2.65280	58.00
2.66947	58.00
2.68613	58.00
2.70280	58.00
2.71947	58.00
2.73613	58.00
2.75280	58.00
2.76947	58.00
2.78613	58.00
2.80280	58.00
2.81947	58.00
2.83613	58.00
2.85280	58.00
2.86947	58.00
2.88613	58.00
2.90280	58.00
2.91947	58.00
2.93613	58.00
2.95280	58.00
2.96947	58.00
2.98613	58.00
3.00280	58.00
3.01947	58.00
3.03613	58.00
3.05280	58.00
3.06947	58.00
3.08613	58.00
3.10280	58.00
3.11947	58.00
3.13613	58.00
3.15280	58.00
3.16947	58.00
3.18613	58.00
3.20280	58.00
3.21947	58.00
3.23613	58.00
3.25280	58.00
3.26947	58.00
3.28613	58.00
3.30280	58.00
3.31947	58.00
3.33613	58.00
3.35280	58.00
3.36947	58.00
3.38613	58.00
3.40280	58.00
3.41947	58.00
3.43613	58.00
3.45280	58.00
3.46947	58.00
3.48613	58.00
3.50280	58.00
3.51947	58.00
3.53613	58.00
3.55280	58.00
3.56947	58.00
3.58613	58.00
3.60280	58.00
3.61947	58.00
3.63613	58.00
3.65280	58.00
3.66947	58.00
3.68613	58.00
3.70280	58.00
3.71947	58.00
3.73613	58.00
3.75280	58.00
3.76947	58.00
3.78613	58.00
3.80280	58.00
3.81947	58.00
3.83613	58.00
3.85280	58.00
3.86947	58.00
3.88613	58.00
3.90280	58.00
3.91947	58.00
3.93613	58.00
3.95280	58.00
3.96947	58.00
3.98613	58.00

[Status Trace (Carrier Gas Flow)]
Interval(msec)	1000
# of Points	240
Start Time(min)	0.003
End Time(min)	3.986
Intensity Units	
Intensity Multiplier	1
R.Time (min)	Intensity
0.00280	34.52
0.01947	34.58
0.03613	34.54
0.05280	34.55
0.06947	34.49
0.08613	34.52
0.10280	34.52
0.11947	34.52
0.13613	34.52
0.15280	34.52
0.16947	34.52
0.18613	34.52
0.20280	34.52
0.21947	34.52
0.23613	34.52
0.25280	34.52
0.26947	34.52
0.28613	34.52
0.30280	34.52
0.31947	34.52
0.33613	34.52
0.35280	34.52
0.36947	34.52
0.38613	34.52
0.40280	34.52
0.41947	34.52
0.43613	34.52
0.45280	34.52
0.46947	34.52
0.48613	34.52
0.50280	34.52
0.51947	34.52
0.53613	34.52
0.55280	34.52
0.56947	34.52
0.58613	34.52
0.60280	34.52
0.61947	34.52
0.63613	34.52
0.65280	34.52
0.66947	34.52
0.68613	34.52
0.70280	34.52
0.71947	34.52
0.73613	34.52
0.75280	34.52
0.76947	34.52
0.78613	34.52
0.80280	34.52
0.81947	34.52
0.83613	34.52
0.85280	34.52
0.86947	34.52
0.88613	34.52
0.90280	34.52
0.91947	34.52
0.93613	34.52
0.95280	34.52
0.96947	34.52
0.98613	34.52
1.00280	34.52
1.01947	34.51
1.03613	34.52
1.05280	34.52
1.06947	34.52
1.08613	34.51
1.10280	34.52
1.11947	34.52
1.13613	34.52
1.15280	34.51
1.16947	34.52
1.18613	34.52
1.20280	34.52
1.21947	34.52
1.23613	34.52
1.25280	34.52
1.26947	34.52
1.28613	34.52
1.30280	34.52
1.31947	34.52
1.33613	34.52
1.35280	34.52
1.36947	34.52
1.38613	34.52
1.40280	34.52
1.41947	34.52
1.43613	34.52
1.45280	34.52
1.46947	34.52
1.48613	34.52
1.50280	34.52
1.51947	34.52
1.53613	34.52
1.55280	34.52
1.56947	34.52
1.58613	34.52
1.60280	34.52
1.61947	34.52
1.63613	34.52
1.65280	34.52
1.66947	34.52
1.68613	34.52
1.70280	34.52
1.71947	34.52
1.73613	34.52
1.75280	34.52
1.76947	34.52
1.78613	34.52
1.80280	34.52
1.81947	34.52
1.83613	34.52
1.85280	34.52
1.86947	34.52
1.88613	34.52
1.90280	34.52
1.91947	34.52
1.93613	34.52
1.95280	34.52
1.96947	34.52
1.98613	34.52
2.00280	34.52
2.01947	34.52
2.03613	34.52
2.05280	34.52
2.06947	34.52
2.08613	34.52
2.10280	34.52
2.11947	34.52
2.13613	34.52
2.15280	34.52
2.16947	34.52
2.18613	34.52
2.20280	34.52
2.21947	34.52
2.23613	34.52
2.25280	34.52
2.26947	34.52
2.28613	34.52
2.30280	34.52
2.31947	34.52
2.33613	34.52
2.35280	34.52
2.36947	34.52
2.38613	34.52
2.40280	34.52
2.41947	34.52
2.43613	34.52
2.45280	34.52
2.46947	34.52
2.48613	34.52
2.50280	34.66
2.51947	34.52
2.53613	34.52
2.55280	34.51
2.56947	34.53
2.58613	34.52
2.60280	34.52
2.61947	34.53
2.63613	34.51
2.65280	34.52
2.66947	34.52
2.68613	34.52
2.70280	34.52
2.71947	34.52
2.73613	34.52
2.75280	34.52
2.76947	34.52
2.78613	34.52
2.80280	34.52
2.81947	34.52
2.83613	34.52
2.85280	34.52
2.86947	34.52
2.88613	34.52
2.90280	34.52
2.91947	34.52
2.93613	34.52
2.95280	34.52
2.96947	34.52
2.98613	34.52
3.00280	34.52
3.01947	34.52
3.03613	34.52
3.05280	34.52
3.06947	34.52
3.08613	34.52
3.10280	34.52
3.11947	34.52
3.13613	34.52
3.15280	34.52
3.16947	34.52
3.18613	34.52
3.20280	34.52
3.21947	34.52
3.23613	34.52
3.25280	34.52
3.26947	34.51
3.28613	34.52
3.30280	34.52
3.31947	34.53
3.33613	34.53
3.35280	34.53
3.36947	34.52
3.38613	34.52
3.40280	34.52
3.41947	34.52
3.43613	34.52
3.45280	34.52
3.46947	34.52
3.48613	34.52
3.50280	34.52
3.51947	34.52
3.53613	34.52
3.55280	34.52
3.56947	34.52
3.58613	34.52
3.60280	34.52
3.61947	34.52
3.63613	34.52
3.65280	34.52
3.66947	34.52
3.68613	34.52
3.70280	34.52
3.71947	34.52
3.73613	34.52
3.75280	34.52
3.76947	34.52
3.78613	34.52
3.80280	34.52
3.81947	34.52
3.83613	34.52
3.85280	34.52
3.86947	34.52
3.88613	34.52
3.90280	34.52
3.91947	34.52
3.93613	34.52
3.95280	34.52
3.96947	34.52
3.98613	34.52

[Status Trace (Column Flow)]
Interval(msec)	1000
# of Points	240
Start Time(min)	0.003
End Time(min)	3.986
Intensity Units	
Intensity Multiplier	1
R.Time (min)	Intensity
0.00280	5.57
0.01947	5.37
0.03613	5.38
0.05280	5.64
0.06947	5.78
0.08613	5.60
0.10280	5.56
0.11947	5.57
0.13613	5.57
0.15280	5.57
0.16947	5.57
0.18613	5.57
0.20280	5.57
0.21947	5.57
0.23613	5.57
0.25280	5.57
0.26947	5.57
0.28613	5.57
0.30280	5.57
0.31947	5.57
0.33613	5.57
0.35280	5.57
0.36947	5.57
0.38613	5.57
0.40280	5.57
0.41947	5.57
0.43613	5.57
0.45280	5.57
0.46947	5.57
0.48613	5.57
0.50280	5.57
0.51947	5.57
0.53613	5.57
0.55280	5.57
0.56947	5.57
0.58613	5.57
0.60280	5.57
0.61947	5.57
0.63613	5.57
0.65280	5.57
0.66947	5.57
0.68613	5.57
0.70280	5.57
0.71947	5.57
0.73613	5.57
0.75280	5.57
0.76947	5.57
0.78613	5.57
0.80280	5.57
0.81947	5.57
0.83613	5.57
0.85280	5.57
0.86947	5.57
0.88613	5.57
0.90280	5.57
0.91947	5.57
0.93613	5.57
0.95280	5.57
0.96947	5.57
0.98613	5.57
1.00280	5.57
1.01947	5.57
1.03613	5.57
1.05280	5.57
1.06947	5.57
1.08613	5.57
1.10280	5.57
1.11947	5.57
1.13613	5.57
1.15280	5.57
1.16947	5.57
1.18613	5.57
1.20280	5.57
1.21947	5.57
1.23613	5.57
1.25280	5.57
1.26947	5.57
1.28613	5.57
1.30280	5.57
1.31947	5.57
1.33613	5.57
1.35280	5.57
1.36947	5.57
1.38613	5.57
1.40280	5.57
1.41947	5.57
1.43613	5.57
1.45280	5.57
1.46947	5.57
1.48613	5.57
1.50280	5.57
1.51947	5.57
1.53613	5.57
1.55280	5.57
1.56947	5.57
1.58613	5.57
1.60280	5.57
1.61947	5.56
1.63613	5.56
1.65280	5.55
1.66947	5.54
1.68613	5.53
1.70280	5.52
1.71947	5.51
1.73613	5.50
1.75280	5.49
1.76947	5.48
1.78613	5.47
1.80280	5.46
1.81947	5.45
1.83613	5.43
1.85280	5.42
1.86947	5.41
1.88613	5.40
1.90280	5.39
1.91947	5.38
1.93613	5.37
1.95280	5.36
1.96947	5.36
1.98613	5.35
2.00280	5.34
2.01947	5.33
2.03613	5.32
2.05280	5.31
2.06947	5.30
2.08613	5.29
2.10280	5.28
2.11947	5.27
2.13613	5.26
2.15280	5.25
2.16947	5.24
2.18613	5.23
2.20280	5.22
2.21947	5.21
2.23613	5.20
2.25280	5.19
2.26947	5.18
2.28613	5.18
2.30280	5.17
2.31947	5.16
2.33613	5.15
2.35280	5.14
2.36947	5.13
2.38613	5.13
2.40280	5.13
2.41947	5.13
2.43613	5.13
2.45280	5.13
2.46947	5.13
2.48613	5.13
2.50280	5.12
2.51947	5.13
2.53613	5.13
2.55280	5.13
2.56947	5.13
2.58613	5.12
2.60280	5.12
2.61947	5.12
2.63613	5.12
2.65280	5.12
2.66947	5.12
2.68613	5.12
2.70280	5.12
2.71947	5.12
2.73613	5.12
2.75280	5.12
2.76947	5.12
2.78613	5.12
2.80280	5.12
2.81947	5.12
2.83613	5.12
2.85280	5.12
2.86947	5.12
2.88613	5.12
2.90280	5.12
2.91947	5.12
2.93613	5.12
2.95280	5.12
2.96947	5.12
2.98613	5.12
3.00280	5.12
3.01947	5.12
3.03613	5.12
3.05280	5.12
3.06947	5.12
3.08613	5.12
3.10280	5.12
3.11947	5.12
3.13613	5.12
3.15280	5.12
3.16947	5.12
3.18613	5.12
3.20280	5.12
3.21947	5.12
3.23613	5.12
3.25280	5.12
3.26947	5.12
3.28613	5.12
3.30280	5.12
3.31947	5.12
3.33613	5.12
3.35280	5.12
3.36947	5.12
3.38613	5.12
3.40280	5.12
3.41947	5.12
3.43613	5.12
3.45280	5.12
3.46947	5.12
3.48613	5.12
3.50280	5.12
3.51947	5.12
3.53613	5.12
3.55280	5.12
3.56947	5.12
3.58613	5.12
3.60280	5.12
3.61947	5.12
3.63613	5.12
3.65280	5.12
3.66947	5.12
3.68613	5.12
3.70280	5.12
3.71947	5.12
3.73613	5.12
3.75280	5.12
3.76947	5.12
3.78613	5.12
3.80280	5.12
3.81947	5.12
3.83613	5.12
3.85280	5.12
3.86947	5.12
3.88613	5.12
3.90280	5.12
3.91947	5.12
3.93613	5.12
3.95280	5.12
3.96947	5.12
3.98613	5.12

[Status Trace (Linear Velocity)]
Interval(msec)	1000
# of Points	240
Start Time(min)	0.003
End Time(min)	3.986
Intensity Units	
Intensity Multiplier	1
R.Time (min)	Intensity
0.00280	39.03
0.01947	37.93
0.03613	37.95
0.05280	39.46
0.06947	40.23
0.08613	39.19
0.10280	39.01
0.11947	39.03
0.13613	39.04
0.15280	39.03
0.16947	39.03
0.18613	39.03
0.20280	39.03
0.21947	39.03
0.23613	39.03
0.25280	39.03
0.26947	39.03
0.28613	39.03
0.30280	39.03
0.31947	39.03
0.33613	39.03
0.35280	39.03
0.36947	39.03
0.38613	39.03
0.40280	39.03
0.41947	39.03
0.43613	39.03
0.45280	39.03
0.46947	39.03
0.48613	39.03
0.50280	39.03
0.51947	39.03
0.53613	39.03
0.55280	39.03
0.56947	39.03
0.58613	39.03
0.60280	39.03
0.61947	39.03
0.63613	39.03
0.65280	39.03
0.66947	39.03
0.68613	39.03
0.70280	39.03
0.71947	39.03
0.73613	39.03
0.75280	39.03
0.76947	39.03
0.78613	39.03
0.80280	39.03
0.81947	39.03
0.83613	39.03
0.85280	39.03
0.86947	39.03
0.88613	39.03
0.90280	39.03
0.91947	39.03
0.93613	39.03
0.95280	39.03
0.96947	39.03
0.98613	39.03
1.00280	39.03
1.01947	39.03
1.03613	39.03
1.05280	39.03
1.06947	39.03
1.08613	39.03
1.10280	39.03
1.11947	39.03
1.13613	39.03
1.15280	39.03
1.16947	39.03
1.18613	39.03
1.20280	39.03
1.21947	39.03
1.23613	39.03
1.25280	39.03
1.26947	39.03
1.28613	39.03
1.30280	39.03
1.31947	39.03
1.33613	39.03
1.35280	39.03
1.36947	39.03
1.38613	39.03
1.40280	39.03
1.41947	39.03
1.43613	39.03
1.45280	39.03
1.46947	39.03
1.48613	39.03
1.50280	39.03
1.51947	39.03
1.53613	39.03
1.55280	39.03
1.56947	39.03
1.58613	39.03
1.60280	39.03
1.61947	39.02
1.63613	39.00
1.65280	38.98
1.66947	38.95
1.68613	38.92
1.70280	38.88
1.71947	38.85
1.73613	38.81
1.75280	38.78
1.76947	38.75
1.78613	38.72
1.80280	38.69
1.81947	38.66
1.83613	38.62
1.85280	38.59
1.86947	38.56
1.88613	38.53
1.90280	38.50
1.91947	38.47
1.93613	38.44
1.95280	38.41
1.96947	38.38
1.98613	38.35
2.00280	38.32
2.01947	38.29
2.03613	38.26
2.05280	38.23
2.06947	38.20
2.08613	38.17
2.10280	38.14
2.11947	38.11
2.13613	38.08
2.15280	38.05
2.16947	38.02
2.18613	37.99
2.20280	37.97
2.21947	37.94
2.23613	37.91
2.25280	37.88
2.26947	37.85
2.28613	37.82
2.30280	37.79
2.31947	37.76
2.33613	37.73
2.35280	37.70
2.36947	37.68
2.38613	37.66
2.40280	37.66
2.41947	37.67
2.43613	37.67
2.45280	37.67
2.46947	37.67
2.48613	37.66
2.50280	37.64
2.51947	37.67
2.53613	37.66
2.55280	37.66
2.56947	37.66
2.58613	37.66
2.60280	37.66
2.61947	37.66
2.63613	37.66
2.65280	37.66
2.66947	37.66
2.68613	37.66
2.70280	37.66
2.71947	37.66
2.73613	37.66
2.75280	37.66
2.76947	37.66
2.78613	37.66
2.80280	37.66
2.81947	37.65
2.83613	37.65
2.85280	37.65
2.86947	37.65
2.88613	37.65
2.90280	37.66
2.91947	37.66
2.93613	37.66
2.95280	37.66
2.96947	37.66
2.98613	37.65
3.00280	37.65
3.01947	37.65
3.03613	37.65
3.05280	37.65
3.06947	37.65
3.08613	37.65
3.10280	37.65
3.11947	37.65
3.13613	37.65
3.15280	37.65
3.16947	37.64
3.18613	37.64
3.20280	37.64
3.21947	37.64
3.23613	37.64
3.25280	37.64
3.26947	37.64
3.28613	37.64
3.30280	37.64
3.31947	37.64
3.33613	37.64
3.35280	37.64
3.36947	37.64
3.38613	37.64
3.40280	37.64
3.41947	37.64
3.43613	37.63
3.45280	37.63
3.46947	37.63
3.48613	37.63
3.50280	37.63
3.51947	37.63
3.53613	37.63
3.55280	37.64
3.56947	37.64
3.58613	37.64
3.60280	37.64
3.61947	37.64
3.63613	37.64
3.65280	37.64
3.66947	37.64
3.68613	37.64
3.70280	37.64
3.71947	37.64
3.73613	37.64
3.75280	37.64
3.76947	37.64
3.78613	37.64
3.80280	37.64
3.81947	37.64
3.83613	37.64
3.85280	37.64
3.86947	37.64
3.88613	37.63
3.90280	37.64
3.91947	37.64
3.93613	37.64
3.95280	37.64
3.96947	37.64
3.98613	37.64

