[Header]
Application Name	LabSolutions
Version	5.110
Data File Name	C:\Users\User\Desktop\Junior\UIC Prairie Sampling\2023\8.2.23\080223_028.gcd
Output Date	8/31/2023
Output Time	12:43:07 PM

[File Information]
Type	Data File
Generated	8/29/2023 6:57:40 PM
Generated by	System Administrator
Modified	8/29/2023 7:04:18 PM
Modified by	System Administrator

[Sample Information]
Operator Name	System Administrator
Acquired	8/29/2023 7:00:17 PM
Sample Type	0:Unknown
Level	0
Sample Name	028
Sample ID	028
ISTD Amount1	1
ISTD Amount2	1
ISTD Amount3	1
ISTD Amount4	1
ISTD Amount5	1
ISTD Amount6	1
ISTD Amount7	1
ISTD Amount8	1
ISTD Amount9	1
ISTD Amount10	1
ISTD Amount11	1
ISTD Amount12	1
ISTD Amount13	1
ISTD Amount14	1
ISTD Amount15	1
ISTD Amount16	1
ISTD Amount17	1
ISTD Amount18	1
ISTD Amount19	1
ISTD Amount20	1
ISTD Amount21	1
ISTD Amount22	1
ISTD Amount23	1
ISTD Amount24	1
ISTD Amount25	1
ISTD Amount26	1
ISTD Amount27	1
ISTD Amount28	1
ISTD Amount29	1
ISTD Amount30	1
ISTD Amount31	1
ISTD Amount32	1
Sample Amount	1
Dilution Factor	1
Vial#	27
Injection Volume	1
Injection Count	1
Bar Code	

[Original Files]
Data File	C:\Users\User\Desktop\Junior\UIC Prairie Sampling\8.2.23\080223_028.gcd
Method File	C:\LabSolutions\Data\GHG_4min_2022\ghg3_togas_w_acet_4 min_new_int.gcm
Batch File	C:\LabSolutions\Data\BATCH FILES\080223.gcb
Report Format File	c:\LabSolutions\System\DEFAULT.lsr

[File Description]


[Configuration]
Instrument Name	C0B7VH3-Instrument1
Instrument #	1
Line #	1
# of Detectors	3
Detector ID	DET#1	DET#2	DET#3
Detector Name	FID	PTCD	ECD
# of Channels	1	1	1

[Peak Table(Ch1)]
# of Peaks	4
Peak#	R.Time	I.Time	F.Time	Area	Height	A/H	Conc.	Mark	ID#	Name	k'	Plate #	Plate Ht.	Tailing	Resolution	Sep.Factor	Area Ratio	Height Ratio	Conc. %	Norm Conc.
1	0.273	0.145	0.383	1296	196	6.615	0.000	   			0.000	28	5383.900	0.988	0.000	0.000	0	0	0.000	0.000
2	1.472	1.432	1.531	4534	2238	2.026	0.000	   	1	CO	4.392	9875	15.189	1.347	9.011	0.000	0	0	0.000	0.000
3	1.564	1.531	1.615	4373	2270	1.927	21.318	 V 	2	CH4	4.728	11846	12.662	1.110	1.571	1.076	0	0	7.784	7.784
4	1.989	1.945	2.528	1310403	633105	2.070	252.539	   	3	CO2	6.286	17750	8.451	1.301	7.259	1.330	0	0	92.216	92.216

[Peak Table(Ch2)]
# of Peaks	0

[Peak Table(Ch3)]
# of Peaks	5
Peak#	R.Time	I.Time	F.Time	Area	Height	A/H	Conc.	Mark	ID#	Name	k'	Plate #	Plate Ht.	Tailing	Resolution	Sep.Factor	Area Ratio	Height Ratio	Conc. %	Norm Conc.
1	2.458	2.396	2.506	751	276	2.716	0.000	   			0.000	14750	10.170	0.000	0.000	0.000	0	0	0.000	0.000
2	2.521	2.506	2.572	295	116	2.536	0.000	 V 			0.025	7590	19.763	0.000	0.634	0.000	0	0	0.000	0.000
3	2.620	2.572	2.697	366	97	3.764	0.000	 V 			0.066	9072	16.535	0.000	0.877	2.588	0	0	0.000	0.000
4	2.891	2.836	3.170	16831	3778	4.455	0.249	   	1	N2O	0.176	15210	9.862	3.000	2.663	2.682	0	0	100.000	100.000
5	3.397	3.291	3.624	1195	161	7.398	0.000	   			0.382	4910	30.550	1.096	3.518	2.169	0	0	0.000	0.000

[Compound Results(Ch1)]
# of IDs	6
ID#	Name	R.Time	Area	Height	Conc.	Curve	3rd	2nd	1st	Constant	Area Ratio	Height Ratio	Conc. %	Norm Conc.
1	CO	1.472	4534	2238	0.000	Linear	0.000000e+00	0.000000e+00	0.000000e+00	0.000000e+00	0	0	0.000	0.000
2	CH4	1.564	4373	2270	21.318	Linear	0.000000e+00	0.000000e+00	2.051179e+002	0.000000e+00	0	0	7.784	7.784
3	CO2	1.989	1310403	633105	252.539	Linear	0.000000e+00	0.000000e+00	5.188919e+003	0.000000e+00	0	0	92.216	92.216
4	Ethylene	0.000	0	0	0.000	Linear	0.000000e+00	0.000000e+00	0.000000e+00	0.000000e+00	0	0	0.000	0.000
5	Acetylene	0.000	0	0	0.000	Linear	0.000000e+00	0.000000e+00	0.000000e+00	0.000000e+00	0	0	0.000	0.000
6	Ethane	0.000	0	0	0.000	Linear	0.000000e+00	0.000000e+00	0.000000e+00	0.000000e+00	0	0	0.000	0.000

[Compound Results(Ch2)]
# of IDs	5
ID#	Name	R.Time	Area	Height	Conc.	Curve	3rd	2nd	1st	Constant	Area Ratio	Height Ratio	Conc. %	Norm Conc.
1	Hydrogen	0.000	0	0	0.000	Linear	0.000000e+00	0.000000e+00	0.000000e+00	0.000000e+00	0	0	0.000	0.000
2	Oxygen	0.000	0	0	0.000	Linear	0.000000e+00	0.000000e+00	0.000000e+00	0.000000e+00	0	0	0.000	0.000
3	Nitrogen	0.000	0	0	0.000	Linear	0.000000e+00	0.000000e+00	0.000000e+00	0.000000e+00	0	0	0.000	0.000
4	Methane	0.000	0	0	0.000	Linear	0.000000e+00	0.000000e+00	0.000000e+00	0.000000e+00	0	0	0.000	0.000
5	Carbon Monoxide	0.000	0	0	0.000	Linear	0.000000e+00	0.000000e+00	0.000000e+00	0.000000e+00	0	0	0.000	0.000

[Compound Results(Ch3)]
# of IDs	2
ID#	Name	R.Time	Area	Height	Conc.	Curve	3rd	2nd	1st	Constant	Area Ratio	Height Ratio	Conc. %	Norm Conc.
1	N2O	2.891	16831	3778	0.249	Linear	0.000000e+00	0.000000e+00	6.759880e+004	0.000000e+00	0	0	100.000	100.000
2	SF6	0.000	0	0	0.000	Linear	0.000000e+00	0.000000e+00	0.000000e+00	0.000000e+00	0	0	0.000	0.000

[Group Results(Ch1)]
# of Groups	0

[Group Results(Ch2)]
# of Groups	0

[Group Results(Ch3)]
# of Groups	0

[Chromatogram (Ch1)]
Interval(msec)	220
# of Points	1091
Start Time(min)	0.002
End Time(min)	3.998
R.Time (min)	Intensity
0.00167	-29
0.00533	-26
0.00900	-23
0.01267	-20
0.01633	-16
0.02000	-9
0.02367	-1
0.02733	2
0.03100	-1
0.03467	-7
0.03833	-12
0.04200	-16
0.04567	-18
0.04933	-18
0.05300	-15
0.05667	-10
0.06033	-4
0.06400	2
0.06767	8
0.07133	11
0.07500	10
0.07867	10
0.08233	8
0.08600	8
0.08967	9
0.09333	9
0.09700	7
0.10067	5
0.10433	3
0.10800	1
0.11167	-3
0.11533	-9
0.11900	-13
0.12267	-15
0.12633	-17
0.13000	-20
0.13367	-22
0.13733	-20
0.14100	-13
0.14467	-7
0.14833	-3
0.15200	-2
0.15567	-2
0.15933	-2
0.16300	-2
0.16667	-0
0.17033	2
0.17400	5
0.17767	8
0.18133	12
0.18500	15
0.18867	19
0.19233	25
0.19600	30
0.19967	38
0.20333	49
0.20700	65
0.21067	82
0.21433	95
0.21800	103
0.22167	109
0.22533	113
0.22900	116
0.23267	119
0.23633	123
0.24000	130
0.24367	138
0.24733	148
0.25100	158
0.25467	168
0.25833	176
0.26200	185
0.26567	193
0.26933	198
0.27300	199
0.27667	198
0.28033	193
0.28400	185
0.28767	178
0.29133	174
0.29500	170
0.29867	163
0.30233	156
0.30600	148
0.30967	141
0.31333	137
0.31700	134
0.32067	133
0.32433	132
0.32800	128
0.33167	121
0.33533	114
0.33900	104
0.34267	94
0.34633	83
0.35000	75
0.35367	69
0.35733	57
0.36100	42
0.36467	30
0.36833	20
0.37200	15
0.37567	12
0.37933	11
0.38300	11
0.38667	13
0.39033	13
0.39400	9
0.39767	5
0.40133	3
0.40500	0
0.40867	-2
0.41233	-5
0.41600	-10
0.41967	-16
0.42333	-22
0.42700	-26
0.43067	-25
0.43433	-21
0.43800	-17
0.44167	-11
0.44533	-6
0.44900	-3
0.45267	2
0.45633	5
0.46000	6
0.46367	3
0.46733	-3
0.47100	-8
0.47467	-11
0.47833	-11
0.48200	-12
0.48567	-14
0.48933	-14
0.49300	-12
0.49667	-7
0.50033	0
0.50400	3
0.50767	0
0.51133	-3
0.51500	-6
0.51867	-8
0.52233	-8
0.52600	-7
0.52967	-7
0.53333	-7
0.53700	-3
0.54067	5
0.54433	11
0.54800	12
0.55167	6
0.55533	-2
0.55900	-9
0.56267	-16
0.56633	-18
0.57000	-16
0.57367	-15
0.57733	-15
0.58100	-13
0.58467	-11
0.58833	-11
0.59200	-11
0.59567	-10
0.59933	-11
0.60300	-12
0.60667	-13
0.61033	-15
0.61400	-19
0.61767	-24
0.62133	-28
0.62500	-30
0.62867	-31
0.63233	-31
0.63600	-29
0.63967	-24
0.64333	-21
0.64700	-19
0.65067	-18
0.65433	-17
0.65800	-16
0.66167	-14
0.66533	-14
0.66900	-16
0.67267	-19
0.67633	-24
0.68000	-25
0.68367	-23
0.68733	-18
0.69100	-11
0.69467	-6
0.69833	-6
0.70200	-7
0.70567	-5
0.70933	-3
0.71300	-5
0.71667	-10
0.72033	-15
0.72400	-18
0.72767	-19
0.73133	-19
0.73500	-18
0.73867	-16
0.74233	-11
0.74600	-6
0.74967	-3
0.75333	-6
0.75700	-12
0.76067	-20
0.76433	-24
0.76800	-25
0.77167	-22
0.77533	-18
0.77900	-18
0.78267	-21
0.78633	-26
0.79000	-31
0.79367	-32
0.79733	-31
0.80100	-30
0.80467	-28
0.80833	-23
0.81200	-22
0.81567	-24
0.81933	-29
0.82300	-34
0.82667	-36
0.83033	-33
0.83400	-26
0.83767	-18
0.84133	-10
0.84500	-3
0.84867	0
0.85233	0
0.85600	-2
0.85967	-7
0.86333	-11
0.86700	-14
0.87067	-16
0.87433	-15
0.87800	-11
0.88167	-7
0.88533	-10
0.88900	-21
0.89267	-32
0.89633	-41
0.90000	-44
0.90367	-43
0.90733	-41
0.91100	-37
0.91467	-32
0.91833	-27
0.92200	-23
0.92567	-18
0.92933	-14
0.93300	-8
0.93667	-2
0.94033	-3
0.94400	-9
0.94767	-15
0.95133	-17
0.95500	-16
0.95867	-13
0.96233	-10
0.96600	-10
0.96967	-13
0.97333	-17
0.97700	-23
0.98067	-27
0.98433	-30
0.98800	-32
0.99167	-33
0.99533	-33
0.99900	-31
1.00267	-30
1.00633	-30
1.01000	-33
1.01367	-37
1.01733	-37
1.02100	-36
1.02467	-34
1.02833	-31
1.03200	-27
1.03567	-24
1.03933	-23
1.04300	-23
1.04667	-22
1.05033	-21
1.05400	-19
1.05767	-16
1.06133	-15
1.06500	-16
1.06867	-19
1.07233	-23
1.07600	-28
1.07967	-32
1.08333	-33
1.08700	-31
1.09067	-28
1.09433	-26
1.09800	-26
1.10167	-28
1.10533	-32
1.10900	-39
1.11267	-46
1.11633	-52
1.12000	-54
1.12367	-50
1.12733	-43
1.13100	-37
1.13467	-32
1.13833	-30
1.14200	-28
1.14567	-26
1.14933	-24
1.15300	-22
1.15667	-23
1.16033	-26
1.16400	-29
1.16767	-29
1.17133	-28
1.17500	-28
1.17867	-30
1.18233	-34
1.18600	-39
1.18967	-43
1.19333	-44
1.19700	-44
1.20067	-46
1.20433	-48
1.20800	-45
1.21167	-41
1.21533	-37
1.21900	-32
1.22267	-30
1.22633	-29
1.23000	-31
1.23367	-34
1.23733	-39
1.24100	-41
1.24467	-41
1.24833	-41
1.25200	-39
1.25567	-36
1.25933	-35
1.26300	-37
1.26667	-40
1.27033	-42
1.27400	-45
1.27767	-47
1.28133	-50
1.28500	-53
1.28867	-55
1.29233	-56
1.29600	-57
1.29967	-58
1.30333	-59
1.30700	-58
1.31067	-56
1.31433	-51
1.31800	-45
1.32167	-41
1.32533	-45
1.32900	-51
1.33267	-56
1.33633	-58
1.34000	-61
1.34367	-60
1.34733	-53
1.35100	-43
1.35467	-36
1.35833	-31
1.36200	-28
1.36567	-30
1.36933	-33
1.37300	-36
1.37667	-37
1.38033	-36
1.38400	-35
1.38767	-35
1.39133	-38
1.39500	-40
1.39867	-40
1.40233	-37
1.40600	-34
1.40967	-34
1.41333	-40
1.41700	-48
1.42067	-53
1.42433	-55
1.42800	-57
1.43167	-54
1.43533	-37
1.43900	-15
1.44267	-1
1.44633	59
1.45000	274
1.45367	657
1.45733	1106
1.46100	1526
1.46467	1866
1.46833	2098
1.47200	2187
1.47567	2109
1.47933	1876
1.48300	1546
1.48667	1193
1.49033	879
1.49400	632
1.49767	448
1.50133	314
1.50500	220
1.50867	150
1.51233	98
1.51600	59
1.51967	31
1.52333	12
1.52700	-1
1.53067	-5
1.53433	28
1.53800	154
1.54167	428
1.54533	833
1.54900	1285
1.55267	1692
1.55633	2004
1.56000	2193
1.56367	2225
1.56733	2077
1.57100	1778
1.57467	1404
1.57833	1034
1.58200	720
1.58567	478
1.58933	301
1.59300	177
1.59667	92
1.60033	37
1.60400	4
1.60767	-18
1.61133	-33
1.61500	-41
1.61867	-44
1.62233	-45
1.62600	-48
1.62967	-52
1.63333	-55
1.63700	-54
1.64067	-51
1.64433	-51
1.64800	-55
1.65167	-59
1.65533	-61
1.65900	-62
1.66267	-62
1.66633	-63
1.67000	-66
1.67367	-66
1.67733	-64
1.68100	-59
1.68467	-54
1.68833	-49
1.69200	-48
1.69567	-51
1.69933	-57
1.70300	-61
1.70667	-62
1.71033	-62
1.71400	-63
1.71767	-66
1.72133	-66
1.72500	-65
1.72867	-66
1.73233	-70
1.73600	-71
1.73967	-68
1.74333	-64
1.74700	-59
1.75067	-56
1.75433	-55
1.75800	-58
1.76167	-63
1.76533	-68
1.76900	-72
1.77267	-72
1.77633	-67
1.78000	-62
1.78367	-68
1.78733	-77
1.79100	-81
1.79467	-81
1.79833	-78
1.80200	-75
1.80567	-70
1.80933	-63
1.81300	-59
1.81667	-58
1.82033	-58
1.82400	-57
1.82767	-56
1.83133	-56
1.83500	-58
1.83867	-62
1.84233	-63
1.84600	-63
1.84967	-66
1.85333	-71
1.85700	-73
1.86067	-73
1.86433	-74
1.86800	-73
1.87167	-71
1.87533	-70
1.87900	-68
1.88267	-66
1.88633	-64
1.89000	-65
1.89367	-69
1.89733	-75
1.90100	-78
1.90467	-78
1.90833	-77
1.91200	-79
1.91567	-82
1.91933	-81
1.92300	-77
1.92667	-68
1.93033	-59
1.93400	-52
1.93767	-51
1.94133	-52
1.94500	-44
1.94867	37
1.95233	549
1.95600	3016
1.95967	11892
1.96333	36170
1.96700	87523
1.97067	172737
1.97433	285760
1.97800	408281
1.98167	518330
1.98533	597349
1.98900	633082
1.99267	621181
1.99633	566668
2.00000	482920
2.00367	387259
2.00733	295082
2.01100	216115
2.01467	153947
2.01833	107854
2.02200	75082
2.02567	52427
2.02933	37036
2.03300	26670
2.03667	19699
2.04033	14985
2.04400	11758
2.04767	9513
2.05133	7919
2.05500	6755
2.05867	5883
2.06233	5210
2.06600	4678
2.06967	4250
2.07333	3899
2.07700	3607
2.08067	3354
2.08433	3136
2.08800	2945
2.09167	2775
2.09533	2623
2.09900	2486
2.10267	2361
2.10633	2247
2.11000	2138
2.11367	2033
2.11733	1935
2.12100	1845
2.12467	1765
2.12833	1695
2.13200	1632
2.13567	1575
2.13933	1522
2.14300	1471
2.14667	1423
2.15033	1377
2.15400	1331
2.15767	1286
2.16133	1244
2.16500	1209
2.16867	1177
2.17233	1146
2.17600	1116
2.17967	1085
2.18333	1052
2.18700	1020
2.19067	988
2.19433	957
2.19800	928
2.20167	899
2.20533	872
2.20900	849
2.21267	830
2.21633	814
2.22000	798
2.22367	781
2.22733	762
2.23100	744
2.23467	725
2.23833	705
2.24200	690
2.24567	677
2.24933	662
2.25300	647
2.25667	633
2.26033	621
2.26400	609
2.26767	599
2.27133	590
2.27500	583
2.27867	573
2.28233	558
2.28600	540
2.28967	525
2.29333	513
2.29700	500
2.30067	487
2.30433	475
2.30800	465
2.31167	456
2.31533	448
2.31900	442
2.32267	437
2.32633	434
2.33000	432
2.33367	430
2.33733	425
2.34100	415
2.34467	402
2.34833	392
2.35200	385
2.35567	379
2.35933	373
2.36300	364
2.36667	355
2.37033	350
2.37400	350
2.37767	354
2.38133	357
2.38500	357
2.38867	356
2.39233	350
2.39600	342
2.39967	336
2.40333	331
2.40700	329
2.41067	327
2.41433	322
2.41800	317
2.42167	312
2.42533	309
2.42900	306
2.43267	304
2.43633	302
2.44000	300
2.44367	297
2.44733	291
2.45100	284
2.45467	276
2.45833	270
2.46200	269
2.46567	269
2.46933	268
2.47300	264
2.47667	260
2.48033	257
2.48400	254
2.48767	251
2.49133	246
2.49500	241
2.49867	239
2.50233	239
2.50600	237
2.50967	234
2.51333	233
2.51700	235
2.52067	236
2.52433	231
2.52800	226
2.53167	224
2.53533	223
2.53900	224
2.54267	225
2.54633	224
2.55000	223
2.55367	220
2.55733	213
2.56100	205
2.56467	197
2.56833	191
2.57200	185
2.57567	184
2.57933	185
2.58300	187
2.58667	187
2.59033	184
2.59400	183
2.59767	182
2.60133	181
2.60500	181
2.60867	185
2.61233	187
2.61600	186
2.61967	181
2.62333	177
2.62700	175
2.63067	173
2.63433	173
2.63800	173
2.64167	174
2.64533	175
2.64900	176
2.65267	176
2.65633	177
2.66000	177
2.66367	176
2.66733	173
2.67100	168
2.67467	169
2.67833	174
2.68200	180
2.68567	182
2.68933	180
2.69300	172
2.69667	163
2.70033	154
2.70400	147
2.70767	146
2.71133	151
2.71500	156
2.71867	162
2.72233	167
2.72600	169
2.72967	166
2.73333	161
2.73700	156
2.74067	154
2.74433	154
2.74800	154
2.75167	155
2.75533	159
2.75900	164
2.76267	166
2.76633	165
2.77000	161
2.77367	155
2.77733	146
2.78100	139
2.78467	135
2.78833	134
2.79200	139
2.79567	147
2.79933	153
2.80300	158
2.80667	161
2.81033	160
2.81400	159
2.81767	158
2.82133	156
2.82500	153
2.82867	150
2.83233	147
2.83600	144
2.83967	142
2.84333	139
2.84700	135
2.85067	131
2.85433	128
2.85800	127
2.86167	131
2.86533	135
2.86900	131
2.87267	124
2.87633	122
2.88000	122
2.88367	124
2.88733	126
2.89100	125
2.89467	124
2.89833	126
2.90200	131
2.90567	132
2.90933	131
2.91300	129
2.91667	129
2.92033	132
2.92400	132
2.92767	132
2.93133	132
2.93500	133
2.93867	135
2.94233	135
2.94600	133
2.94967	130
2.95333	124
2.95700	121
2.96067	120
2.96433	119
2.96800	121
2.97167	122
2.97533	122
2.97900	121
2.98267	121
2.98633	122
2.99000	125
2.99367	131
2.99733	138
3.00100	142
3.00467	142
3.00833	141
3.01200	139
3.01567	135
3.01933	132
3.02300	129
3.02667	126
3.03033	121
3.03400	115
3.03767	108
3.04133	106
3.04500	108
3.04867	111
3.05233	112
3.05600	110
3.05967	108
3.06333	106
3.06700	103
3.07067	101
3.07433	100
3.07800	100
3.08167	101
3.08533	105
3.08900	110
3.09267	114
3.09633	116
3.10000	116
3.10367	114
3.10733	110
3.11100	108
3.11467	106
3.11833	104
3.12200	103
3.12567	102
3.12933	102
3.13300	100
3.13667	100
3.14033	98
3.14400	98
3.14767	102
3.15133	110
3.15500	119
3.15867	127
3.16233	129
3.16600	119
3.16967	107
3.17333	100
3.17700	95
3.18067	91
3.18433	89
3.18800	88
3.19167	87
3.19533	90
3.19900	98
3.20267	107
3.20633	115
3.21000	120
3.21367	123
3.21733	124
3.22100	121
3.22467	118
3.22833	114
3.23200	112
3.23567	112
3.23933	112
3.24300	111
3.24667	108
3.25033	106
3.25400	106
3.25767	106
3.26133	105
3.26500	104
3.26867	103
3.27233	102
3.27600	101
3.27967	100
3.28333	95
3.28700	92
3.29067	90
3.29433	90
3.29800	91
3.30167	94
3.30533	97
3.30900	100
3.31267	100
3.31633	94
3.32000	87
3.32367	81
3.32733	78
3.33100	77
3.33467	77
3.33833	78
3.34200	80
3.34567	83
3.34933	84
3.35300	83
3.35667	83
3.36033	84
3.36400	84
3.36767	84
3.37133	83
3.37500	80
3.37867	75
3.38233	72
3.38600	73
3.38967	78
3.39333	81
3.39700	79
3.40067	72
3.40433	68
3.40800	65
3.41167	64
3.41533	63
3.41900	64
3.42267	65
3.42633	64
3.43000	63
3.43367	67
3.43733	73
3.44100	75
3.44467	72
3.44833	69
3.45200	70
3.45567	77
3.45933	82
3.46300	82
3.46667	76
3.47033	65
3.47400	55
3.47767	50
3.48133	52
3.48500	58
3.48867	63
3.49233	66
3.49600	68
3.49967	67
3.50333	65
3.50700	63
3.51067	63
3.51433	65
3.51800	67
3.52167	70
3.52533	73
3.52900	76
3.53267	80
3.53633	83
3.54000	80
3.54367	74
3.54733	66
3.55100	56
3.55467	48
3.55833	43
3.56200	40
3.56567	36
3.56933	32
3.57300	29
3.57667	30
3.58033	33
3.58400	38
3.58767	37
3.59133	32
3.59500	29
3.59867	30
3.60233	34
3.60600	37
3.60967	41
3.61333	44
3.61700	47
3.62067	49
3.62433	49
3.62800	49
3.63167	49
3.63533	52
3.63900	57
3.64267	59
3.64633	59
3.65000	57
3.65367	55
3.65733	54
3.66100	55
3.66467	55
3.66833	54
3.67200	52
3.67567	51
3.67933	48
3.68300	44
3.68667	39
3.69033	34
3.69400	30
3.69767	27
3.70133	27
3.70500	30
3.70867	32
3.71233	35
3.71600	40
3.71967	45
3.72333	47
3.72700	52
3.73067	56
3.73433	56
3.73800	51
3.74167	43
3.74533	35
3.74900	30
3.75267	31
3.75633	36
3.76000	42
3.76367	45
3.76733	46
3.77100	47
3.77467	46
3.77833	42
3.78200	36
3.78567	30
3.78933	26
3.79300	26
3.79667	29
3.80033	33
3.80400	35
3.80767	35
3.81133	34
3.81500	36
3.81867	40
3.82233	41
3.82600	42
3.82967	40
3.83333	34
3.83700	28
3.84067	22
3.84433	20
3.84800	21
3.85167	24
3.85533	28
3.85900	30
3.86267	31
3.86633	29
3.87000	25
3.87367	19
3.87733	14
3.88100	10
3.88467	7
3.88833	5
3.89200	6
3.89567	9
3.89933	14
3.90300	17
3.90667	20
3.91033	21
3.91400	20
3.91767	16
3.92133	11
3.92500	7
3.92867	5
3.93233	8
3.93600	14
3.93967	20
3.94333	27
3.94700	34
3.95067	39
3.95433	42
3.95800	44
3.96167	45
3.96533	41
3.96900	36
3.97267	30
3.97633	24
3.98000	20
3.98367	21
3.98733	24
3.99100	27
3.99467	30
3.99833	32

[Chromatogram (Ch2)]
Interval(msec)	220
# of Points	1091
Start Time(min)	0.002
End Time(min)	3.998
R.Time (min)	Intensity
0.00167	-1
0.00533	-1
0.00900	-1
0.01267	-1
0.01633	-1
0.02000	-1
0.02367	-1
0.02733	-1
0.03100	-2
0.03467	-2
0.03833	-1
0.04200	-1
0.04567	-1
0.04933	-1
0.05300	-1
0.05667	-1
0.06033	-1
0.06400	-1
0.06767	-1
0.07133	-1
0.07500	-1
0.07867	-1
0.08233	-1
0.08600	-1
0.08967	-1
0.09333	-1
0.09700	-1
0.10067	-1
0.10433	-1
0.10800	-1
0.11167	-1
0.11533	-1
0.11900	-1
0.12267	-1
0.12633	-1
0.13000	-1
0.13367	-0
0.13733	-0
0.14100	-0
0.14467	-0
0.14833	-0
0.15200	-1
0.15567	-1
0.15933	-1
0.16300	-1
0.16667	-1
0.17033	-1
0.17400	-1
0.17767	-1
0.18133	-1
0.18500	-1
0.18867	-1
0.19233	-1
0.19600	-2
0.19967	-2
0.20333	-2
0.20700	-2
0.21067	-2
0.21433	-2
0.21800	-2
0.22167	-2
0.22533	-3
0.22900	-3
0.23267	-3
0.23633	-3
0.24000	-3
0.24367	-3
0.24733	-2
0.25100	-2
0.25467	-2
0.25833	-2
0.26200	-2
0.26567	-2
0.26933	-2
0.27300	-2
0.27667	-2
0.28033	-2
0.28400	-2
0.28767	-2
0.29133	-2
0.29500	-2
0.29867	-2
0.30233	-2
0.30600	-2
0.30967	-2
0.31333	-2
0.31700	-2
0.32067	-2
0.32433	-2
0.32800	-2
0.33167	-2
0.33533	-2
0.33900	-2
0.34267	-2
0.34633	-2
0.35000	-2
0.35367	-2
0.35733	-2
0.36100	-2
0.36467	-2
0.36833	-2
0.37200	-2
0.37567	-2
0.37933	-2
0.38300	-2
0.38667	-2
0.39033	-1
0.39400	-1
0.39767	-1
0.40133	-1
0.40500	-1
0.40867	-1
0.41233	-2
0.41600	-2
0.41967	-2
0.42333	-2
0.42700	-2
0.43067	-2
0.43433	-2
0.43800	-2
0.44167	-2
0.44533	-2
0.44900	-2
0.45267	-2
0.45633	-3
0.46000	-3
0.46367	-3
0.46733	-3
0.47100	-4
0.47467	-4
0.47833	-4
0.48200	-4
0.48567	-4
0.48933	-3
0.49300	-3
0.49667	-3
0.50033	-3
0.50400	-3
0.50767	-3
0.51133	-3
0.51500	-3
0.51867	-3
0.52233	-3
0.52600	-3
0.52967	-3
0.53333	-3
0.53700	-3
0.54067	-3
0.54433	-3
0.54800	-2
0.55167	-2
0.55533	-2
0.55900	-2
0.56267	-2
0.56633	-2
0.57000	-2
0.57367	-2
0.57733	-2
0.58100	-2
0.58467	-2
0.58833	-2
0.59200	-2
0.59567	-2
0.59933	-2
0.60300	-2
0.60667	-2
0.61033	-1
0.61400	-1
0.61767	-1
0.62133	-1
0.62500	-1
0.62867	-2
0.63233	-2
0.63600	-2
0.63967	-2
0.64333	-2
0.64700	-3
0.65067	-3
0.65433	-3
0.65800	-2
0.66167	-2
0.66533	-2
0.66900	-2
0.67267	-2
0.67633	-2
0.68000	-2
0.68367	-2
0.68733	-2
0.69100	-2
0.69467	-2
0.69833	-2
0.70200	-1
0.70567	-1
0.70933	-1
0.71300	-1
0.71667	-0
0.72033	-1
0.72400	-1
0.72767	-1
0.73133	-1
0.73500	-1
0.73867	-1
0.74233	-1
0.74600	-1
0.74967	-1
0.75333	-1
0.75700	-1
0.76067	-1
0.76433	-2
0.76800	-2
0.77167	-2
0.77533	-2
0.77900	-2
0.78267	-2
0.78633	-2
0.79000	-2
0.79367	-2
0.79733	-2
0.80100	-2
0.80467	-2
0.80833	-2
0.81200	-2
0.81567	-2
0.81933	-2
0.82300	-2
0.82667	-2
0.83033	-2
0.83400	-2
0.83767	-2
0.84133	-2
0.84500	-2
0.84867	-2
0.85233	-2
0.85600	-2
0.85967	-2
0.86333	-2
0.86700	-2
0.87067	-2
0.87433	-2
0.87800	-1
0.88167	-1
0.88533	-2
0.88900	-2
0.89267	-2
0.89633	-2
0.90000	-2
0.90367	-2
0.90733	-2
0.91100	-2
0.91467	-2
0.91833	-2
0.92200	-3
0.92567	-3
0.92933	-3
0.93300	-3
0.93667	-3
0.94033	-3
0.94400	-3
0.94767	-2
0.95133	-2
0.95500	-2
0.95867	-2
0.96233	-2
0.96600	-2
0.96967	-2
0.97333	-2
0.97700	-2
0.98067	-2
0.98433	-2
0.98800	-2
0.99167	-2
0.99533	-2
0.99900	-2
1.00267	-3
1.00633	-2
1.01000	-2
1.01367	-2
1.01733	-2
1.02100	-2
1.02467	-2
1.02833	-3
1.03200	-3
1.03567	-3
1.03933	-2
1.04300	-3
1.04667	-3
1.05033	-3
1.05400	-3
1.05767	-3
1.06133	-3
1.06500	-3
1.06867	-3
1.07233	-3
1.07600	-4
1.07967	-4
1.08333	-4
1.08700	-4
1.09067	-4
1.09433	-4
1.09800	-4
1.10167	-4
1.10533	-4
1.10900	-4
1.11267	-4
1.11633	-4
1.12000	-4
1.12367	-4
1.12733	-4
1.13100	-4
1.13467	-4
1.13833	-5
1.14200	-4
1.14567	-4
1.14933	-4
1.15300	-4
1.15667	-4
1.16033	-4
1.16400	-4
1.16767	-3
1.17133	-3
1.17500	-3
1.17867	-3
1.18233	-3
1.18600	-3
1.18967	-3
1.19333	-3
1.19700	-3
1.20067	-3
1.20433	-3
1.20800	-3
1.21167	-3
1.21533	-3
1.21900	-3
1.22267	-2
1.22633	-2
1.23000	-3
1.23367	-3
1.23733	-3
1.24100	-3
1.24467	-3
1.24833	-3
1.25200	-3
1.25567	-3
1.25933	-3
1.26300	-3
1.26667	-3
1.27033	-3
1.27400	-3
1.27767	-3
1.28133	-3
1.28500	-4
1.28867	-4
1.29233	-4
1.29600	-4
1.29967	-4
1.30333	-5
1.30700	-5
1.31067	-5
1.31433	-5
1.31800	-5
1.32167	-5
1.32533	-5
1.32900	-4
1.33267	-4
1.33633	-4
1.34000	-4
1.34367	-4
1.34733	-4
1.35100	-4
1.35467	-4
1.35833	-4
1.36200	-4
1.36567	-4
1.36933	-4
1.37300	-4
1.37667	-4
1.38033	-4
1.38400	-4
1.38767	-4
1.39133	-4
1.39500	-4
1.39867	-4
1.40233	-4
1.40600	-4
1.40967	-4
1.41333	-4
1.41700	-4
1.42067	-5
1.42433	-5
1.42800	-5
1.43167	-4
1.43533	-5
1.43900	-5
1.44267	-5
1.44633	-5
1.45000	-4
1.45367	-4
1.45733	-4
1.46100	-4
1.46467	-4
1.46833	-4
1.47200	-4
1.47567	-4
1.47933	-4
1.48300	-4
1.48667	-4
1.49033	-4
1.49400	-4
1.49767	-4
1.50133	-4
1.50500	-4
1.50867	-4
1.51233	-4
1.51600	-4
1.51967	-4
1.52333	-4
1.52700	-4
1.53067	-4
1.53433	-4
1.53800	-4
1.54167	-4
1.54533	-4
1.54900	-4
1.55267	-4
1.55633	-4
1.56000	-4
1.56367	-4
1.56733	-5
1.57100	-5
1.57467	-5
1.57833	-5
1.58200	-5
1.58567	-5
1.58933	-5
1.59300	-5
1.59667	-6
1.60033	-6
1.60400	-7
1.60767	-8
1.61133	-10
1.61500	-12
1.61867	-14
1.62233	-16
1.62600	-19
1.62967	-22
1.63333	-25
1.63700	-28
1.64067	-31
1.64433	-34
1.64800	-37
1.65167	-40
1.65533	-43
1.65900	-47
1.66267	-50
1.66633	-54
1.67000	-59
1.67367	-64
1.67733	-68
1.68100	-73
1.68467	-77
1.68833	-80
1.69200	-84
1.69567	-86
1.69933	-89
1.70300	-90
1.70667	-92
1.71033	-93
1.71400	-94
1.71767	-95
1.72133	-96
1.72500	-96
1.72867	-97
1.73233	-98
1.73600	-98
1.73967	-98
1.74333	-98
1.74700	-98
1.75067	-98
1.75433	-99
1.75800	-99
1.76167	-99
1.76533	-99
1.76900	-99
1.77267	-100
1.77633	-101
1.78000	-101
1.78367	-102
1.78733	-102
1.79100	-103
1.79467	-103
1.79833	-103
1.80200	-103
1.80567	-102
1.80933	-101
1.81300	-100
1.81667	-99
1.82033	-98
1.82400	-98
1.82767	-98
1.83133	-98
1.83500	-98
1.83867	-99
1.84233	-99
1.84600	-100
1.84967	-100
1.85333	-100
1.85700	-100
1.86067	-100
1.86433	-100
1.86800	-100
1.87167	-100
1.87533	-100
1.87900	-100
1.88267	-100
1.88633	-99
1.89000	-99
1.89367	-99
1.89733	-99
1.90100	-98
1.90467	-98
1.90833	-98
1.91200	-97
1.91567	-97
1.91933	-96
1.92300	-96
1.92667	-96
1.93033	-96
1.93400	-96
1.93767	-96
1.94133	-96
1.94500	-96
1.94867	-96
1.95233	-96
1.95600	-96
1.95967	-96
1.96333	-97
1.96700	-97
1.97067	-97
1.97433	-97
1.97800	-97
1.98167	-97
1.98533	-97
1.98900	-96
1.99267	-96
1.99633	-95
2.00000	-95
2.00367	-95
2.00733	-95
2.01100	-95
2.01467	-95
2.01833	-94
2.02200	-94
2.02567	-93
2.02933	-93
2.03300	-92
2.03667	-92
2.04033	-92
2.04400	-92
2.04767	-92
2.05133	-92
2.05500	-92
2.05867	-92
2.06233	-92
2.06600	-91
2.06967	-90
2.07333	-89
2.07700	-89
2.08067	-88
2.08433	-88
2.08800	-88
2.09167	-88
2.09533	-87
2.09900	-87
2.10267	-87
2.10633	-87
2.11000	-87
2.11367	-86
2.11733	-86
2.12100	-85
2.12467	-85
2.12833	-85
2.13200	-85
2.13567	-85
2.13933	-86
2.14300	-86
2.14667	-85
2.15033	-85
2.15400	-85
2.15767	-84
2.16133	-83
2.16500	-82
2.16867	-82
2.17233	-82
2.17600	-81
2.17967	-81
2.18333	-81
2.18700	-81
2.19067	-80
2.19433	-80
2.19800	-80
2.20167	-79
2.20533	-79
2.20900	-78
2.21267	-78
2.21633	-78
2.22000	-78
2.22367	-78
2.22733	-78
2.23100	-79
2.23467	-78
2.23833	-78
2.24200	-78
2.24567	-77
2.24933	-76
2.25300	-75
2.25667	-75
2.26033	-74
2.26400	-74
2.26767	-74
2.27133	-73
2.27500	-73
2.27867	-73
2.28233	-73
2.28600	-73
2.28967	-72
2.29333	-72
2.29700	-72
2.30067	-72
2.30433	-72
2.30800	-72
2.31167	-71
2.31533	-71
2.31900	-70
2.32267	-70
2.32633	-70
2.33000	-71
2.33367	-71
2.33733	-72
2.34100	-73
2.34467	-72
2.34833	-72
2.35200	-70
2.35567	-69
2.35933	-67
2.36300	-65
2.36667	-63
2.37033	-61
2.37400	-58
2.37767	-55
2.38133	-51
2.38500	-48
2.38867	-44
2.39233	-40
2.39600	-36
2.39967	-31
2.40333	-27
2.40700	-23
2.41067	-19
2.41433	-15
2.41800	-12
2.42167	-9
2.42533	-7
2.42900	-6
2.43267	-4
2.43633	-3
2.44000	-2
2.44367	-0
2.44733	1
2.45100	3
2.45467	4
2.45833	6
2.46200	7
2.46567	7
2.46933	8
2.47300	8
2.47667	9
2.48033	9
2.48400	10
2.48767	11
2.49133	12
2.49500	13
2.49867	13
2.50233	14
2.50600	14
2.50967	14
2.51333	15
2.51700	15
2.52067	16
2.52433	16
2.52800	16
2.53167	16
2.53533	15
2.53900	14
2.54267	14
2.54633	13
2.55000	13
2.55367	12
2.55733	12
2.56100	11
2.56467	10
2.56833	9
2.57200	9
2.57567	9
2.57933	9
2.58300	9
2.58667	9
2.59033	10
2.59400	11
2.59767	12
2.60133	13
2.60500	14
2.60867	15
2.61233	15
2.61600	16
2.61967	17
2.62333	17
2.62700	18
2.63067	18
2.63433	18
2.63800	18
2.64167	17
2.64533	17
2.64900	17
2.65267	17
2.65633	17
2.66000	17
2.66367	18
2.66733	18
2.67100	18
2.67467	18
2.67833	18
2.68200	19
2.68567	20
2.68933	20
2.69300	21
2.69667	21
2.70033	21
2.70400	21
2.70767	21
2.71133	21
2.71500	21
2.71867	21
2.72233	21
2.72600	21
2.72967	22
2.73333	22
2.73700	22
2.74067	23
2.74433	23
2.74800	23
2.75167	24
2.75533	24
2.75900	25
2.76267	26
2.76633	26
2.77000	26
2.77367	27
2.77733	27
2.78100	26
2.78467	26
2.78833	26
2.79200	25
2.79567	25
2.79933	25
2.80300	24
2.80667	24
2.81033	25
2.81400	25
2.81767	25
2.82133	25
2.82500	25
2.82867	25
2.83233	25
2.83600	26
2.83967	26
2.84333	26
2.84700	26
2.85067	26
2.85433	25
2.85800	24
2.86167	21
2.86533	17
2.86900	10
2.87267	-1
2.87633	-16
2.88000	-36
2.88367	-61
2.88733	-91
2.89100	-127
2.89467	-168
2.89833	-214
2.90200	-264
2.90567	-319
2.90933	-377
2.91300	-438
2.91667	-501
2.92033	-566
2.92400	-631
2.92767	-695
2.93133	-758
2.93500	-818
2.93867	-874
2.94233	-929
2.94600	-984
2.94967	-1039
2.95333	-1085
2.95700	-1115
2.96067	-1120
2.96433	-1099
2.96800	-1057
2.97167	-996
2.97533	-924
2.97900	-845
2.98267	-763
2.98633	-682
2.99000	-605
2.99367	-532
2.99733	-465
3.00100	-403
3.00467	-349
3.00833	-300
3.01200	-257
3.01567	-220
3.01933	-187
3.02300	-159
3.02667	-134
3.03033	-113
3.03400	-94
3.03767	-79
3.04133	-65
3.04500	-54
3.04867	-44
3.05233	-35
3.05600	-28
3.05967	-22
3.06333	-16
3.06700	-12
3.07067	-8
3.07433	-5
3.07800	-2
3.08167	0
3.08533	2
3.08900	4
3.09267	6
3.09633	7
3.10000	9
3.10367	10
3.10733	11
3.11100	12
3.11467	13
3.11833	13
3.12200	14
3.12567	14
3.12933	15
3.13300	15
3.13667	16
3.14033	16
3.14400	16
3.14767	17
3.15133	17
3.15500	17
3.15867	18
3.16233	18
3.16600	18
3.16967	19
3.17333	19
3.17700	19
3.18067	19
3.18433	20
3.18800	20
3.19167	20
3.19533	20
3.19900	20
3.20267	20
3.20633	20
3.21000	20
3.21367	20
3.21733	20
3.22100	20
3.22467	20
3.22833	20
3.23200	20
3.23567	20
3.23933	20
3.24300	20
3.24667	21
3.25033	21
3.25400	21
3.25767	21
3.26133	22
3.26500	22
3.26867	23
3.27233	23
3.27600	24
3.27967	24
3.28333	25
3.28700	25
3.29067	25
3.29433	25
3.29800	26
3.30167	26
3.30533	26
3.30900	26
3.31267	26
3.31633	27
3.32000	27
3.32367	28
3.32733	28
3.33100	29
3.33467	29
3.33833	30
3.34200	30
3.34567	30
3.34933	30
3.35300	30
3.35667	30
3.36033	30
3.36400	30
3.36767	30
3.37133	30
3.37500	30
3.37867	30
3.38233	30
3.38600	30
3.38967	30
3.39333	30
3.39700	30
3.40067	31
3.40433	31
3.40800	30
3.41167	30
3.41533	30
3.41900	30
3.42267	30
3.42633	30
3.43000	30
3.43367	30
3.43733	30
3.44100	30
3.44467	30
3.44833	29
3.45200	29
3.45567	29
3.45933	29
3.46300	29
3.46667	28
3.47033	28
3.47400	28
3.47767	28
3.48133	28
3.48500	28
3.48867	28
3.49233	28
3.49600	27
3.49967	27
3.50333	27
3.50700	27
3.51067	27
3.51433	27
3.51800	27
3.52167	27
3.52533	27
3.52900	27
3.53267	27
3.53633	27
3.54000	27
3.54367	27
3.54733	27
3.55100	27
3.55467	28
3.55833	28
3.56200	28
3.56567	28
3.56933	28
3.57300	28
3.57667	28
3.58033	28
3.58400	28
3.58767	28
3.59133	28
3.59500	28
3.59867	28
3.60233	28
3.60600	28
3.60967	28
3.61333	28
3.61700	28
3.62067	28
3.62433	27
3.62800	27
3.63167	27
3.63533	27
3.63900	27
3.64267	27
3.64633	27
3.65000	27
3.65367	27
3.65733	28
3.66100	28
3.66467	28
3.66833	28
3.67200	29
3.67567	29
3.67933	29
3.68300	29
3.68667	29
3.69033	29
3.69400	28
3.69767	28
3.70133	28
3.70500	28
3.70867	28
3.71233	28
3.71600	27
3.71967	27
3.72333	27
3.72700	27
3.73067	27
3.73433	27
3.73800	27
3.74167	27
3.74533	27
3.74900	27
3.75267	27
3.75633	27
3.76000	27
3.76367	27
3.76733	27
3.77100	27
3.77467	27
3.77833	27
3.78200	27
3.78567	27
3.78933	27
3.79300	27
3.79667	27
3.80033	27
3.80400	27
3.80767	27
3.81133	27
3.81500	27
3.81867	27
3.82233	27
3.82600	27
3.82967	27
3.83333	27
3.83700	28
3.84067	28
3.84433	28
3.84800	27
3.85167	27
3.85533	27
3.85900	27
3.86267	27
3.86633	27
3.87000	27
3.87367	27
3.87733	27
3.88100	27
3.88467	27
3.88833	27
3.89200	27
3.89567	28
3.89933	28
3.90300	28
3.90667	28
3.91033	28
3.91400	28
3.91767	28
3.92133	28
3.92500	27
3.92867	28
3.93233	28
3.93600	27
3.93967	27
3.94333	27
3.94700	27
3.95067	27
3.95433	28
3.95800	28
3.96167	28
3.96533	28
3.96900	28
3.97267	28
3.97633	28
3.98000	28
3.98367	28
3.98733	28
3.99100	28
3.99467	28
3.99833	28

[Chromatogram (Ch3)]
Interval(msec)	220
# of Points	1091
Start Time(min)	0.002
End Time(min)	3.998
R.Time (min)	Intensity
0.00167	1
0.00533	3
0.00900	4
0.01267	5
0.01633	3
0.02000	-0
0.02367	-4
0.02733	-5
0.03100	-5
0.03467	-6
0.03833	-6
0.04200	-5
0.04567	-2
0.04933	1
0.05300	1
0.05667	1
0.06033	1
0.06400	1
0.06767	2
0.07133	1
0.07500	0
0.07867	0
0.08233	0
0.08600	-1
0.08967	-1
0.09333	1
0.09700	2
0.10067	3
0.10433	4
0.10800	5
0.11167	3
0.11533	2
0.11900	0
0.12267	-2
0.12633	-3
0.13000	-3
0.13367	-3
0.13733	-3
0.14100	-4
0.14467	-5
0.14833	-4
0.15200	-2
0.15567	-4
0.15933	-6
0.16300	-7
0.16667	-5
0.17033	-3
0.17400	-3
0.17767	-5
0.18133	-6
0.18500	-6
0.18867	-7
0.19233	-6
0.19600	-6
0.19967	-6
0.20333	-7
0.20700	-7
0.21067	-6
0.21433	-6
0.21800	-5
0.22167	-4
0.22533	-3
0.22900	-4
0.23267	-2
0.23633	-1
0.24000	-0
0.24367	-1
0.24733	-1
0.25100	-0
0.25467	2
0.25833	4
0.26200	7
0.26567	8
0.26933	6
0.27300	4
0.27667	2
0.28033	1
0.28400	1
0.28767	-1
0.29133	-3
0.29500	-3
0.29867	-1
0.30233	-0
0.30600	-3
0.30967	-3
0.31333	-3
0.31700	-2
0.32067	-2
0.32433	-2
0.32800	1
0.33167	4
0.33533	5
0.33900	3
0.34267	1
0.34633	0
0.35000	1
0.35367	0
0.35733	-1
0.36100	-1
0.36467	-1
0.36833	-2
0.37200	-3
0.37567	-3
0.37933	2
0.38300	6
0.38667	7
0.39033	10
0.39400	10
0.39767	9
0.40133	7
0.40500	4
0.40867	2
0.41233	1
0.41600	1
0.41967	-2
0.42333	-8
0.42700	-9
0.43067	-8
0.43433	-6
0.43800	-4
0.44167	-2
0.44533	1
0.44900	1
0.45267	1
0.45633	0
0.46000	-1
0.46367	-1
0.46733	-0
0.47100	0
0.47467	1
0.47833	1
0.48200	2
0.48567	2
0.48933	1
0.49300	-1
0.49667	-2
0.50033	-1
0.50400	1
0.50767	2
0.51133	5
0.51500	6
0.51867	4
0.52233	4
0.52600	4
0.52967	5
0.53333	5
0.53700	5
0.54067	3
0.54433	1
0.54800	-1
0.55167	-2
0.55533	-0
0.55900	4
0.56267	5
0.56633	3
0.57000	1
0.57367	-0
0.57733	-1
0.58100	-2
0.58467	-4
0.58833	-4
0.59200	-5
0.59567	-6
0.59933	-7
0.60300	-9
0.60667	-9
0.61033	-9
0.61400	-9
0.61767	-8
0.62133	-8
0.62500	-6
0.62867	-3
0.63233	0
0.63600	1
0.63967	1
0.64333	1
0.64700	-1
0.65067	-1
0.65433	-2
0.65800	-2
0.66167	-0
0.66533	-0
0.66900	-3
0.67267	-5
0.67633	-3
0.68000	-2
0.68367	-4
0.68733	-4
0.69100	-5
0.69467	-6
0.69833	-5
0.70200	-2
0.70567	-1
0.70933	-0
0.71300	3
0.71667	5
0.72033	5
0.72400	3
0.72767	1
0.73133	0
0.73500	1
0.73867	2
0.74233	0
0.74600	-1
0.74967	-1
0.75333	-1
0.75700	1
0.76067	4
0.76433	4
0.76800	4
0.77167	4
0.77533	3
0.77900	4
0.78267	3
0.78633	3
0.79000	1
0.79367	2
0.79733	3
0.80100	2
0.80467	0
0.80833	0
0.81200	1
0.81567	2
0.81933	2
0.82300	0
0.82667	-1
0.83033	-1
0.83400	2
0.83767	4
0.84133	5
0.84500	7
0.84867	9
0.85233	10
0.85600	10
0.85967	9
0.86333	6
0.86700	5
0.87067	4
0.87433	3
0.87800	2
0.88167	3
0.88533	4
0.88900	1
0.89267	-1
0.89633	-2
0.90000	-1
0.90367	1
0.90733	3
0.91100	4
0.91467	4
0.91833	1
0.92200	1
0.92567	1
0.92933	1
0.93300	0
0.93667	1
0.94033	2
0.94400	2
0.94767	3
0.95133	5
0.95500	7
0.95867	7
0.96233	7
0.96600	6
0.96967	4
0.97333	4
0.97700	6
0.98067	6
0.98433	8
0.98800	6
0.99167	6
0.99533	7
0.99900	9
1.00267	10
1.00633	12
1.01000	12
1.01367	11
1.01733	8
1.02100	7
1.02467	8
1.02833	6
1.03200	6
1.03567	7
1.03933	7
1.04300	7
1.04667	5
1.05033	3
1.05400	4
1.05767	7
1.06133	9
1.06500	9
1.06867	7
1.07233	6
1.07600	6
1.07967	8
1.08333	8
1.08700	9
1.09067	10
1.09433	9
1.09800	9
1.10167	10
1.10533	10
1.10900	10
1.11267	10
1.11633	11
1.12000	10
1.12367	10
1.12733	10
1.13100	8
1.13467	8
1.13833	7
1.14200	6
1.14567	7
1.14933	8
1.15300	10
1.15667	11
1.16033	11
1.16400	10
1.16767	7
1.17133	6
1.17500	8
1.17867	9
1.18233	8
1.18600	9
1.18967	12
1.19333	15
1.19700	16
1.20067	15
1.20433	14
1.20800	13
1.21167	10
1.21533	9
1.21900	6
1.22267	4
1.22633	5
1.23000	8
1.23367	8
1.23733	5
1.24100	2
1.24467	4
1.24833	7
1.25200	8
1.25567	9
1.25933	9
1.26300	10
1.26667	14
1.27033	16
1.27400	19
1.27767	21
1.28133	19
1.28500	14
1.28867	11
1.29233	12
1.29600	12
1.29967	10
1.30333	8
1.30700	8
1.31067	8
1.31433	8
1.31800	7
1.32167	5
1.32533	6
1.32900	6
1.33267	6
1.33633	6
1.34000	8
1.34367	9
1.34733	6
1.35100	4
1.35467	5
1.35833	6
1.36200	5
1.36567	6
1.36933	7
1.37300	9
1.37667	9
1.38033	9
1.38400	11
1.38767	10
1.39133	9
1.39500	7
1.39867	5
1.40233	5
1.40600	7
1.40967	6
1.41333	5
1.41700	4
1.42067	2
1.42433	1
1.42800	3
1.43167	2
1.43533	2
1.43900	3
1.44267	4
1.44633	3
1.45000	1
1.45367	2
1.45733	4
1.46100	7
1.46467	7
1.46833	7
1.47200	10
1.47567	12
1.47933	13
1.48300	13
1.48667	11
1.49033	8
1.49400	4
1.49767	2
1.50133	5
1.50500	7
1.50867	9
1.51233	7
1.51600	5
1.51967	7
1.52333	9
1.52700	9
1.53067	9
1.53433	8
1.53800	8
1.54167	9
1.54533	10
1.54900	12
1.55267	13
1.55633	12
1.56000	13
1.56367	14
1.56733	12
1.57100	11
1.57467	10
1.57833	8
1.58200	6
1.58567	6
1.58933	7
1.59300	10
1.59667	10
1.60033	6
1.60400	5
1.60767	5
1.61133	5
1.61500	6
1.61867	7
1.62233	8
1.62600	8
1.62967	8
1.63333	10
1.63700	12
1.64067	14
1.64433	15
1.64800	17
1.65167	15
1.65533	11
1.65900	12
1.66267	14
1.66633	15
1.67000	16
1.67367	18
1.67733	19
1.68100	21
1.68467	21
1.68833	20
1.69200	18
1.69567	17
1.69933	16
1.70300	17
1.70667	17
1.71033	19
1.71400	20
1.71767	24
1.72133	25
1.72500	25
1.72867	24
1.73233	23
1.73600	21
1.73967	16
1.74333	13
1.74700	15
1.75067	17
1.75433	19
1.75800	19
1.76167	18
1.76533	18
1.76900	19
1.77267	18
1.77633	18
1.78000	18
1.78367	18
1.78733	20
1.79100	21
1.79467	20
1.79833	21
1.80200	23
1.80567	23
1.80933	20
1.81300	19
1.81667	18
1.82033	17
1.82400	18
1.82767	22
1.83133	25
1.83500	27
1.83867	28
1.84233	27
1.84600	27
1.84967	24
1.85333	22
1.85700	22
1.86067	22
1.86433	22
1.86800	22
1.87167	21
1.87533	20
1.87900	21
1.88267	21
1.88633	21
1.89000	23
1.89367	23
1.89733	24
1.90100	25
1.90467	26
1.90833	27
1.91200	28
1.91567	28
1.91933	29
1.92300	31
1.92667	35
1.93033	37
1.93400	38
1.93767	37
1.94133	35
1.94500	35
1.94867	38
1.95233	41
1.95600	39
1.95967	37
1.96333	35
1.96700	34
1.97067	35
1.97433	37
1.97800	40
1.98167	43
1.98533	43
1.98900	43
1.99267	44
1.99633	45
2.00000	46
2.00367	45
2.00733	47
2.01100	50
2.01467	51
2.01833	49
2.02200	47
2.02567	46
2.02933	48
2.03300	52
2.03667	52
2.04033	51
2.04400	51
2.04767	52
2.05133	54
2.05500	54
2.05867	52
2.06233	50
2.06600	50
2.06967	52
2.07333	54
2.07700	56
2.08067	59
2.08433	61
2.08800	63
2.09167	64
2.09533	62
2.09900	63
2.10267	64
2.10633	65
2.11000	64
2.11367	63
2.11733	61
2.12100	60
2.12467	62
2.12833	64
2.13200	63
2.13567	62
2.13933	64
2.14300	67
2.14667	70
2.15033	71
2.15400	71
2.15767	73
2.16133	73
2.16500	77
2.16867	79
2.17233	78
2.17600	75
2.17967	74
2.18333	75
2.18700	76
2.19067	76
2.19433	76
2.19800	77
2.20167	78
2.20533	79
2.20900	81
2.21267	83
2.21633	84
2.22000	83
2.22367	83
2.22733	81
2.23100	83
2.23467	84
2.23833	82
2.24200	80
2.24567	78
2.24933	78
2.25300	80
2.25667	82
2.26033	84
2.26400	86
2.26767	90
2.27133	92
2.27500	93
2.27867	94
2.28233	92
2.28600	90
2.28967	91
2.29333	89
2.29700	87
2.30067	87
2.30433	91
2.30800	90
2.31167	88
2.31533	87
2.31900	87
2.32267	91
2.32633	95
2.33000	97
2.33367	99
2.33733	102
2.34100	102
2.34467	100
2.34833	95
2.35200	94
2.35567	95
2.35933	96
2.36300	96
2.36667	97
2.37033	97
2.37400	96
2.37767	94
2.38133	91
2.38500	89
2.38867	87
2.39233	89
2.39600	95
2.39967	101
2.40333	105
2.40700	111
2.41067	117
2.41433	120
2.41800	122
2.42167	123
2.42533	125
2.42900	126
2.43267	126
2.43633	124
2.44000	128
2.44367	174
2.44733	252
2.45100	318
2.45467	358
2.45833	368
2.46200	355
2.46567	337
2.46933	322
2.47300	310
2.47667	294
2.48033	275
2.48400	253
2.48767	230
2.49133	209
2.49500	194
2.49867	183
2.50233	178
2.50600	180
2.50967	185
2.51333	192
2.51700	199
2.52067	204
2.52433	203
2.52800	196
2.53167	186
2.53533	175
2.53900	164
2.54267	154
2.54633	144
2.55000	135
2.55367	129
2.55733	124
2.56100	122
2.56467	121
2.56833	119
2.57200	119
2.57567	118
2.57933	119
2.58300	122
2.58667	127
2.59033	132
2.59400	139
2.59767	145
2.60133	152
2.60500	159
2.60867	167
2.61233	175
2.61600	178
2.61967	179
2.62333	177
2.62700	173
2.63067	167
2.63433	162
2.63800	156
2.64167	150
2.64533	143
2.64900	135
2.65267	127
2.65633	118
2.66000	109
2.66367	102
2.66733	97
2.67100	92
2.67467	88
2.67833	85
2.68200	83
2.68567	82
2.68933	82
2.69300	80
2.69667	77
2.70033	74
2.70400	73
2.70767	73
2.71133	71
2.71500	71
2.71867	74
2.72233	75
2.72600	76
2.72967	80
2.73333	83
2.73700	86
2.74067	89
2.74433	89
2.74800	88
2.75167	89
2.75533	94
2.75900	98
2.76267	101
2.76633	103
2.77000	105
2.77367	107
2.77733	107
2.78100	112
2.78467	116
2.78833	120
2.79200	123
2.79567	126
2.79933	129
2.80300	131
2.80667	132
2.81033	134
2.81400	138
2.81767	141
2.82133	144
2.82500	144
2.82867	144
2.83233	145
2.83600	152
2.83967	171
2.84333	210
2.84700	281
2.85067	407
2.85433	605
2.85800	887
2.86167	1259
2.86533	1705
2.86900	2194
2.87267	2688
2.87633	3148
2.88000	3540
2.88367	3829
2.88733	4001
2.89100	4048
2.89467	3982
2.89833	3829
2.90200	3609
2.90567	3345
2.90933	3059
2.91300	2771
2.91667	2489
2.92033	2222
2.92400	1970
2.92767	1729
2.93133	1511
2.93500	1339
2.93867	1218
2.94233	1136
2.94600	1083
2.94967	1057
2.95333	1047
2.95700	1045
2.96067	1052
2.96433	1064
2.96800	1073
2.97167	1080
2.97533	1087
2.97900	1091
2.98267	1093
2.98633	1093
2.99000	1091
2.99367	1087
2.99733	1080
3.00100	1075
3.00467	1067
3.00833	1058
3.01200	1047
3.01567	1039
3.01933	1031
3.02300	1021
3.02667	1007
3.03033	996
3.03400	989
3.03767	983
3.04133	976
3.04500	969
3.04867	964
3.05233	960
3.05600	956
3.05967	949
3.06333	943
3.06700	937
3.07067	932
3.07433	926
3.07800	921
3.08167	915
3.08533	909
3.08900	908
3.09267	907
3.09633	904
3.10000	901
3.10367	897
3.10733	892
3.11100	887
3.11467	885
3.11833	886
3.12200	884
3.12567	882
3.12933	880
3.13300	881
3.13667	884
3.14033	883
3.14400	880
3.14767	878
3.15133	878
3.15500	878
3.15867	876
3.16233	874
3.16600	870
3.16967	868
3.17333	866
3.17700	866
3.18067	863
3.18433	860
3.18800	855
3.19167	850
3.19533	842
3.19900	837
3.20267	834
3.20633	833
3.21000	832
3.21367	831
3.21733	832
3.22100	830
3.22467	825
3.22833	820
3.23200	815
3.23567	813
3.23933	810
3.24300	807
3.24667	805
3.25033	806
3.25400	805
3.25767	805
3.26133	803
3.26500	799
3.26867	794
3.27233	789
3.27600	785
3.27967	783
3.28333	783
3.28700	783
3.29067	785
3.29433	790
3.29800	794
3.30167	797
3.30533	799
3.30900	800
3.31267	803
3.31633	808
3.32000	811
3.32367	816
3.32733	818
3.33100	823
3.33467	828
3.33833	832
3.34200	838
3.34567	843
3.34933	847
3.35300	850
3.35667	855
3.36033	859
3.36400	865
3.36767	871
3.37133	875
3.37500	880
3.37867	887
3.38233	890
3.38600	890
3.38967	891
3.39333	891
3.39700	889
3.40067	886
3.40433	884
3.40800	881
3.41167	875
3.41533	868
3.41900	863
3.42267	858
3.42633	851
3.43000	844
3.43367	836
3.43733	826
3.44100	814
3.44467	801
3.44833	793
3.45200	787
3.45567	782
3.45933	774
3.46300	767
3.46667	758
3.47033	749
3.47400	741
3.47767	734
3.48133	726
3.48500	720
3.48867	715
3.49233	709
3.49600	704
3.49967	696
3.50333	689
3.50700	685
3.51067	679
3.51433	675
3.51800	671
3.52167	666
3.52533	663
3.52900	660
3.53267	657
3.53633	656
3.54000	658
3.54367	657
3.54733	655
3.55100	653
3.55467	650
3.55833	645
3.56200	641
3.56567	637
3.56933	637
3.57300	637
3.57667	637
3.58033	635
3.58400	632
3.58767	630
3.59133	628
3.59500	626
3.59867	623
3.60233	622
3.60600	621
3.60967	616
3.61333	612
3.61700	612
3.62067	610
3.62433	605
3.62800	601
3.63167	599
3.63533	596
3.63900	595
3.64267	595
3.64633	592
3.65000	588
3.65367	583
3.65733	582
3.66100	581
3.66467	580
3.66833	581
3.67200	584
3.67567	583
3.67933	583
3.68300	583
3.68667	580
3.69033	577
3.69400	575
3.69767	573
3.70133	569
3.70500	566
3.70867	565
3.71233	566
3.71600	564
3.71967	565
3.72333	566
3.72700	567
3.73067	565
3.73433	561
3.73800	559
3.74167	557
3.74533	556
3.74900	556
3.75267	555
3.75633	555
3.76000	555
3.76367	553
3.76733	553
3.77100	552
3.77467	551
3.77833	550
3.78200	549
3.78567	549
3.78933	546
3.79300	545
3.79667	544
3.80033	543
3.80400	543
3.80767	545
3.81133	547
3.81500	544
3.81867	539
3.82233	535
3.82600	531
3.82967	529
3.83333	529
3.83700	527
3.84067	526
3.84433	526
3.84800	526
3.85167	526
3.85533	526
3.85900	527
3.86267	525
3.86633	521
3.87000	518
3.87367	516
3.87733	514
3.88100	511
3.88467	513
3.88833	515
3.89200	516
3.89567	516
3.89933	515
3.90300	515
3.90667	513
3.91033	514
3.91400	514
3.91767	512
3.92133	511
3.92500	509
3.92867	506
3.93233	505
3.93600	501
3.93967	499
3.94333	498
3.94700	497
3.95067	496
3.95433	494
3.95800	494
3.96167	494
3.96533	495
3.96900	497
3.97267	496
3.97633	496
3.98000	496
3.98367	496
3.98733	493
3.99100	489
3.99467	486
3.99833	479

[Status Trace (Column Oven Temperature)]
Interval(msec)	1000
# of Points	240
Start Time(min)	0.002
End Time(min)	3.985
Intensity Units	
Intensity Multiplier	1
R.Time (min)	Intensity
0.00162	35.03
0.01828	35.04
0.03495	35.04
0.05162	35.03
0.06828	35.03
0.08495	35.03
0.10162	35.03
0.11828	35.02
0.13495	35.02
0.15162	35.02
0.16828	35.02
0.18495	35.02
0.20162	35.03
0.21828	35.03
0.23495	35.02
0.25162	35.02
0.26828	35.02
0.28495	35.02
0.30162	35.02
0.31828	35.02
0.33495	35.03
0.35162	35.03
0.36828	35.02
0.38495	35.02
0.40162	35.03
0.41828	35.03
0.43495	35.03
0.45162	35.03
0.46828	35.02
0.48495	35.02
0.50162	35.03
0.51828	35.03
0.53495	35.02
0.55162	35.01
0.56828	35.01
0.58495	35.01
0.60162	35.01
0.61828	35.01
0.63495	35.01
0.65162	35.00
0.66828	35.00
0.68495	35.00
0.70162	35.00
0.71828	34.99
0.73495	35.00
0.75162	34.99
0.76828	34.99
0.78495	35.00
0.80162	35.00
0.81828	35.00
0.83495	35.01
0.85162	35.00
0.86828	35.00
0.88495	35.00
0.90162	35.00
0.91828	35.00
0.93495	35.00
0.95162	35.00
0.96828	34.99
0.98495	34.99
1.00162	34.99
1.01828	34.98
1.03495	34.98
1.05162	34.98
1.06828	34.99
1.08495	34.99
1.10162	34.99
1.11828	35.00
1.13495	35.00
1.15162	35.00
1.16828	34.99
1.18495	35.00
1.20162	35.00
1.21828	35.00
1.23495	35.00
1.25162	34.99
1.26828	34.99
1.28495	34.99
1.30162	35.00
1.31828	35.00
1.33495	34.99
1.35162	34.99
1.36828	34.99
1.38495	34.99
1.40162	34.99
1.41828	34.99
1.43495	34.99
1.45162	34.99
1.46828	34.99
1.48495	34.99
1.50162	34.98
1.51828	34.98
1.53495	34.98
1.55162	34.98
1.56828	34.99
1.58495	34.99
1.60162	35.02
1.61828	35.12
1.63495	35.27
1.65162	35.49
1.66828	35.79
1.68495	36.15
1.70162	36.50
1.71828	36.85
1.73495	37.20
1.75162	37.53
1.76828	37.86
1.78495	38.21
1.80162	38.53
1.81828	38.83
1.83495	39.16
1.85162	39.49
1.86828	39.82
1.88495	40.15
1.90162	40.48
1.91828	40.78
1.93495	41.12
1.95162	41.44
1.96828	41.78
1.98495	42.10
2.00162	42.43
2.01828	42.76
2.03495	43.09
2.05162	43.43
2.06828	43.74
2.08495	44.08
2.10162	44.40
2.11828	44.72
2.13495	45.06
2.15162	45.38
2.16828	45.69
2.18495	46.03
2.20162	46.36
2.21828	46.69
2.23495	47.04
2.25162	47.35
2.26828	47.69
2.28495	48.00
2.30162	48.34
2.31828	48.66
2.33495	49.03
2.35162	49.32
2.36828	49.56
2.38495	49.66
2.40162	49.68
2.41828	49.66
2.43495	49.69
2.45162	49.68
2.46828	49.71
2.48495	49.72
2.50162	49.73
2.51828	49.73
2.53495	49.76
2.55162	49.76
2.56828	49.79
2.58495	49.80
2.60162	49.80
2.61828	49.80
2.63495	49.82
2.65162	49.83
2.66828	49.85
2.68495	49.85
2.70162	49.85
2.71828	49.87
2.73495	49.88
2.75162	49.86
2.76828	49.84
2.78495	49.87
2.80162	49.88
2.81828	49.88
2.83495	49.89
2.85162	49.89
2.86828	49.90
2.88495	49.91
2.90162	49.91
2.91828	49.92
2.93495	49.93
2.95162	49.95
2.96828	49.96
2.98495	49.97
3.00162	49.97
3.01828	49.99
3.03495	50.00
3.05162	50.00
3.06828	50.01
3.08495	50.03
3.10162	50.03
3.11828	50.04
3.13495	50.05
3.15162	50.06
3.16828	50.07
3.18495	50.07
3.20162	50.09
3.21828	50.10
3.23495	50.12
3.25162	50.13
3.26828	50.12
3.28495	50.12
3.30162	50.11
3.31828	50.09
3.33495	50.07
3.35162	50.04
3.36828	50.02
3.38495	50.00
3.40162	49.99
3.41828	49.98
3.43495	49.97
3.45162	49.97
3.46828	49.97
3.48495	49.97
3.50162	49.98
3.51828	49.98
3.53495	49.99
3.55162	49.99
3.56828	49.99
3.58495	49.99
3.60162	49.99
3.61828	50.00
3.63495	50.01
3.65162	50.01
3.66828	50.01
3.68495	50.02
3.70162	50.02
3.71828	50.02
3.73495	50.03
3.75162	50.03
3.76828	50.04
3.78495	50.04
3.80162	50.04
3.81828	50.05
3.83495	50.05
3.85162	50.05
3.86828	50.05
3.88495	50.05
3.90162	50.05
3.91828	50.05
3.93495	50.05
3.95162	50.05
3.96828	50.06
3.98495	50.06

[Status Trace (Injection Unit Temperature)]
Interval(msec)	1000
# of Points	240
Start Time(min)	0.002
End Time(min)	3.985
Intensity Units	
Intensity Multiplier	1
R.Time (min)	Intensity
0.00162	99.97
0.01828	99.97
0.03495	99.98
0.05162	99.98
0.06828	99.97
0.08495	99.97
0.10162	99.98
0.11828	99.98
0.13495	99.98
0.15162	99.98
0.16828	99.98
0.18495	99.98
0.20162	99.98
0.21828	99.98
0.23495	99.98
0.25162	99.98
0.26828	99.98
0.28495	99.98
0.30162	99.98
0.31828	99.98
0.33495	99.98
0.35162	99.98
0.36828	99.98
0.38495	99.99
0.40162	99.98
0.41828	99.98
0.43495	99.98
0.45162	99.99
0.46828	99.98
0.48495	99.99
0.50162	99.98
0.51828	99.99
0.53495	99.99
0.55162	99.99
0.56828	99.98
0.58495	99.99
0.60162	99.98
0.61828	99.98
0.63495	99.98
0.65162	99.98
0.66828	99.99
0.68495	99.98
0.70162	99.98
0.71828	99.99
0.73495	99.99
0.75162	99.98
0.76828	99.99
0.78495	99.98
0.80162	99.98
0.81828	99.99
0.83495	99.98
0.85162	99.98
0.86828	99.98
0.88495	99.98
0.90162	99.98
0.91828	99.99
0.93495	99.98
0.95162	99.99
0.96828	99.98
0.98495	99.98
1.00162	99.98
1.01828	99.98
1.03495	99.98
1.05162	99.98
1.06828	99.98
1.08495	99.98
1.10162	99.98
1.11828	99.98
1.13495	99.98
1.15162	99.98
1.16828	99.98
1.18495	99.98
1.20162	99.98
1.21828	99.98
1.23495	99.98
1.25162	99.98
1.26828	99.98
1.28495	99.98
1.30162	99.98
1.31828	99.98
1.33495	99.98
1.35162	99.98
1.36828	99.98
1.38495	99.98
1.40162	99.98
1.41828	99.98
1.43495	99.98
1.45162	99.98
1.46828	99.98
1.48495	99.98
1.50162	99.98
1.51828	99.98
1.53495	99.98
1.55162	99.98
1.56828	99.98
1.58495	99.98
1.60162	99.98
1.61828	99.98
1.63495	99.98
1.65162	99.98
1.66828	99.98
1.68495	99.98
1.70162	99.98
1.71828	99.98
1.73495	99.98
1.75162	99.98
1.76828	99.98
1.78495	99.98
1.80162	99.98
1.81828	99.98
1.83495	99.98
1.85162	99.98
1.86828	99.98
1.88495	99.98
1.90162	99.98
1.91828	99.98
1.93495	99.98
1.95162	99.98
1.96828	99.98
1.98495	99.98
2.00162	99.98
2.01828	99.98
2.03495	99.98
2.05162	99.97
2.06828	99.97
2.08495	99.97
2.10162	99.97
2.11828	99.97
2.13495	99.97
2.15162	99.97
2.16828	99.97
2.18495	99.97
2.20162	99.97
2.21828	99.97
2.23495	99.96
2.25162	99.97
2.26828	99.96
2.28495	99.96
2.30162	99.96
2.31828	99.96
2.33495	99.96
2.35162	99.96
2.36828	99.96
2.38495	99.96
2.40162	99.96
2.41828	99.96
2.43495	99.96
2.45162	99.96
2.46828	99.97
2.48495	99.97
2.50162	99.97
2.51828	99.97
2.53495	99.97
2.55162	99.97
2.56828	99.97
2.58495	99.97
2.60162	99.97
2.61828	99.97
2.63495	99.97
2.65162	99.98
2.66828	99.98
2.68495	99.98
2.70162	99.98
2.71828	99.98
2.73495	99.98
2.75162	99.99
2.76828	99.98
2.78495	99.99
2.80162	99.99
2.81828	99.99
2.83495	99.99
2.85162	100.00
2.86828	99.99
2.88495	100.00
2.90162	100.00
2.91828	100.00
2.93495	100.00
2.95162	100.00
2.96828	100.00
2.98495	100.00
3.00162	100.00
3.01828	100.01
3.03495	100.01
3.05162	100.01
3.06828	100.01
3.08495	100.01
3.10162	100.01
3.11828	100.01
3.13495	100.02
3.15162	100.01
3.16828	100.01
3.18495	100.01
3.20162	100.02
3.21828	100.02
3.23495	100.02
3.25162	100.02
3.26828	100.02
3.28495	100.02
3.30162	100.02
3.31828	100.02
3.33495	100.03
3.35162	100.03
3.36828	100.03
3.38495	100.03
3.40162	100.03
3.41828	100.03
3.43495	100.03
3.45162	100.03
3.46828	100.04
3.48495	100.03
3.50162	100.04
3.51828	100.03
3.53495	100.04
3.55162	100.03
3.56828	100.04
3.58495	100.04
3.60162	100.04
3.61828	100.03
3.63495	100.04
3.65162	100.04
3.66828	100.03
3.68495	100.04
3.70162	100.04
3.71828	100.04
3.73495	100.04
3.75162	100.04
3.76828	100.04
3.78495	100.04
3.80162	100.04
3.81828	100.04
3.83495	100.04
3.85162	100.04
3.86828	100.04
3.88495	100.04
3.90162	100.04
3.91828	100.04
3.93495	100.04
3.95162	100.04
3.96828	100.04
3.98495	100.04

[Status Trace (Carrier Gas Pressure)]
Interval(msec)	1000
# of Points	240
Start Time(min)	0.002
End Time(min)	3.985
Intensity Units	
Intensity Multiplier	1
R.Time (min)	Intensity
0.00162	58.00
0.01828	56.79
0.03495	55.95
0.05162	58.30
0.06828	59.91
0.08495	58.48
0.10162	57.97
0.11828	58.00
0.13495	58.01
0.15162	58.01
0.16828	58.00
0.18495	58.00
0.20162	58.00
0.21828	58.00
0.23495	58.00
0.25162	58.00
0.26828	58.00
0.28495	58.00
0.30162	58.00
0.31828	58.00
0.33495	58.00
0.35162	58.00
0.36828	58.00
0.38495	58.00
0.40162	58.00
0.41828	58.00
0.43495	58.00
0.45162	58.00
0.46828	58.00
0.48495	58.00
0.50162	58.00
0.51828	58.00
0.53495	58.00
0.55162	58.00
0.56828	58.00
0.58495	58.00
0.60162	58.00
0.61828	58.00
0.63495	58.00
0.65162	58.00
0.66828	58.00
0.68495	58.00
0.70162	58.00
0.71828	58.00
0.73495	58.00
0.75162	58.00
0.76828	58.00
0.78495	58.00
0.80162	58.00
0.81828	58.00
0.83495	58.00
0.85162	58.00
0.86828	58.00
0.88495	58.00
0.90162	58.00
0.91828	58.00
0.93495	58.00
0.95162	58.00
0.96828	58.00
0.98495	58.00
1.00162	58.00
1.01828	58.00
1.03495	58.00
1.05162	58.00
1.06828	58.00
1.08495	58.00
1.10162	58.00
1.11828	58.00
1.13495	58.00
1.15162	58.00
1.16828	58.00
1.18495	58.00
1.20162	58.00
1.21828	58.00
1.23495	58.00
1.25162	58.00
1.26828	58.00
1.28495	58.00
1.30162	58.00
1.31828	58.00
1.33495	58.00
1.35162	58.00
1.36828	58.00
1.38495	58.00
1.40162	58.00
1.41828	58.00
1.43495	58.00
1.45162	58.00
1.46828	58.00
1.48495	58.00
1.50162	58.00
1.51828	58.00
1.53495	58.00
1.55162	58.00
1.56828	58.00
1.58495	58.00
1.60162	58.00
1.61828	58.00
1.63495	58.00
1.65162	58.00
1.66828	58.01
1.68495	58.01
1.70162	58.00
1.71828	58.00
1.73495	58.00
1.75162	58.00
1.76828	58.00
1.78495	58.00
1.80162	58.00
1.81828	58.00
1.83495	58.00
1.85162	58.00
1.86828	58.00
1.88495	58.00
1.90162	58.00
1.91828	58.00
1.93495	58.00
1.95162	58.00
1.96828	58.00
1.98495	58.00
2.00162	58.00
2.01828	58.00
2.03495	58.00
2.05162	58.00
2.06828	58.00
2.08495	58.00
2.10162	58.00
2.11828	58.00
2.13495	58.00
2.15162	58.00
2.16828	58.00
2.18495	58.00
2.20162	58.00
2.21828	58.00
2.23495	58.00
2.25162	58.00
2.26828	58.00
2.28495	58.00
2.30162	58.00
2.31828	58.00
2.33495	58.00
2.35162	58.00
2.36828	58.00
2.38495	57.99
2.40162	57.99
2.41828	58.00
2.43495	58.00
2.45162	58.00
2.46828	58.00
2.48495	58.00
2.50162	58.00
2.51828	57.99
2.53495	57.99
2.55162	58.00
2.56828	58.00
2.58495	58.00
2.60162	58.00
2.61828	58.00
2.63495	58.00
2.65162	58.00
2.66828	58.00
2.68495	58.00
2.70162	58.00
2.71828	58.00
2.73495	58.00
2.75162	58.00
2.76828	58.00
2.78495	58.00
2.80162	58.00
2.81828	58.00
2.83495	58.00
2.85162	58.00
2.86828	58.00
2.88495	58.00
2.90162	58.00
2.91828	58.00
2.93495	58.00
2.95162	58.00
2.96828	58.00
2.98495	58.00
3.00162	58.00
3.01828	58.00
3.03495	58.00
3.05162	58.00
3.06828	58.00
3.08495	58.00
3.10162	58.00
3.11828	58.00
3.13495	58.00
3.15162	58.00
3.16828	58.00
3.18495	58.00
3.20162	58.00
3.21828	58.00
3.23495	58.00
3.25162	58.00
3.26828	58.00
3.28495	58.00
3.30162	58.00
3.31828	58.00
3.33495	58.00
3.35162	58.00
3.36828	58.00
3.38495	58.00
3.40162	58.00
3.41828	58.00
3.43495	58.00
3.45162	58.00
3.46828	58.00
3.48495	58.00
3.50162	58.00
3.51828	58.00
3.53495	58.00
3.55162	58.00
3.56828	58.00
3.58495	58.00
3.60162	58.00
3.61828	58.00
3.63495	58.00
3.65162	58.00
3.66828	58.00
3.68495	58.00
3.70162	58.00
3.71828	58.00
3.73495	58.00
3.75162	58.00
3.76828	58.00
3.78495	58.00
3.80162	58.00
3.81828	58.00
3.83495	58.00
3.85162	58.00
3.86828	58.00
3.88495	58.00
3.90162	58.00
3.91828	58.00
3.93495	58.00
3.95162	58.00
3.96828	58.00
3.98495	58.00

[Status Trace (Carrier Gas Flow)]
Interval(msec)	1000
# of Points	240
Start Time(min)	0.002
End Time(min)	3.985
Intensity Units	
Intensity Multiplier	1
R.Time (min)	Intensity
0.00162	34.52
0.01828	33.80
0.03495	34.54
0.05162	34.55
0.06828	34.51
0.08495	34.51
0.10162	34.53
0.11828	34.52
0.13495	34.51
0.15162	34.52
0.16828	34.52
0.18495	34.51
0.20162	34.52
0.21828	34.52
0.23495	34.51
0.25162	34.52
0.26828	34.52
0.28495	34.52
0.30162	34.52
0.31828	34.51
0.33495	34.52
0.35162	34.52
0.36828	34.52
0.38495	34.52
0.40162	34.52
0.41828	34.51
0.43495	34.52
0.45162	34.52
0.46828	34.52
0.48495	34.52
0.50162	34.52
0.51828	34.51
0.53495	34.52
0.55162	34.51
0.56828	34.51
0.58495	34.51
0.60162	34.52
0.61828	34.52
0.63495	34.52
0.65162	34.51
0.66828	34.52
0.68495	34.52
0.70162	34.52
0.71828	34.52
0.73495	34.52
0.75162	34.52
0.76828	34.52
0.78495	34.52
0.80162	34.52
0.81828	34.52
0.83495	34.52
0.85162	34.52
0.86828	34.52
0.88495	34.52
0.90162	34.51
0.91828	34.52
0.93495	34.52
0.95162	34.51
0.96828	34.52
0.98495	34.53
1.00162	34.52
1.01828	34.52
1.03495	34.52
1.05162	34.51
1.06828	34.52
1.08495	34.51
1.10162	34.52
1.11828	34.52
1.13495	34.52
1.15162	34.52
1.16828	34.52
1.18495	34.52
1.20162	34.52
1.21828	34.53
1.23495	34.52
1.25162	34.52
1.26828	34.51
1.28495	34.52
1.30162	34.52
1.31828	34.51
1.33495	34.52
1.35162	34.52
1.36828	34.52
1.38495	34.52
1.40162	34.52
1.41828	34.52
1.43495	34.52
1.45162	34.52
1.46828	34.52
1.48495	34.52
1.50162	34.51
1.51828	34.51
1.53495	34.52
1.55162	34.52
1.56828	34.51
1.58495	34.52
1.60162	34.52
1.61828	34.52
1.63495	34.52
1.65162	34.52
1.66828	34.52
1.68495	34.51
1.70162	34.52
1.71828	34.52
1.73495	34.52
1.75162	34.52
1.76828	34.52
1.78495	34.52
1.80162	34.52
1.81828	34.52
1.83495	34.52
1.85162	34.52
1.86828	34.52
1.88495	34.52
1.90162	34.51
1.91828	34.52
1.93495	34.52
1.95162	34.51
1.96828	34.52
1.98495	34.52
2.00162	34.52
2.01828	34.53
2.03495	34.51
2.05162	34.52
2.06828	34.51
2.08495	34.52
2.10162	34.52
2.11828	34.52
2.13495	34.52
2.15162	34.52
2.16828	34.51
2.18495	34.52
2.20162	34.52
2.21828	34.52
2.23495	34.52
2.25162	34.52
2.26828	34.52
2.28495	34.52
2.30162	34.52
2.31828	34.51
2.33495	34.52
2.35162	34.52
2.36828	34.52
2.38495	34.52
2.40162	34.51
2.41828	34.52
2.43495	34.52
2.45162	34.52
2.46828	34.52
2.48495	34.52
2.50162	34.52
2.51828	34.51
2.53495	34.52
2.55162	34.52
2.56828	34.52
2.58495	34.52
2.60162	34.52
2.61828	34.51
2.63495	34.51
2.65162	34.52
2.66828	34.53
2.68495	34.52
2.70162	34.51
2.71828	34.52
2.73495	34.52
2.75162	34.52
2.76828	34.52
2.78495	34.52
2.80162	34.53
2.81828	34.51
2.83495	34.52
2.85162	34.52
2.86828	34.52
2.88495	34.52
2.90162	34.52
2.91828	34.52
2.93495	34.52
2.95162	34.51
2.96828	34.52
2.98495	34.52
3.00162	34.53
3.01828	34.52
3.03495	34.52
3.05162	34.52
3.06828	34.52
3.08495	34.52
3.10162	34.52
3.11828	34.52
3.13495	34.52
3.15162	34.52
3.16828	34.52
3.18495	34.52
3.20162	34.52
3.21828	34.52
3.23495	34.51
3.25162	34.52
3.26828	34.52
3.28495	34.53
3.30162	34.53
3.31828	34.51
3.33495	34.52
3.35162	34.53
3.36828	34.52
3.38495	34.52
3.40162	34.52
3.41828	34.52
3.43495	34.53
3.45162	34.51
3.46828	34.51
3.48495	34.52
3.50162	34.52
3.51828	34.51
3.53495	34.51
3.55162	34.52
3.56828	34.52
3.58495	34.51
3.60162	34.51
3.61828	34.51
3.63495	34.53
3.65162	34.52
3.66828	34.52
3.68495	34.51
3.70162	34.52
3.71828	34.52
3.73495	34.51
3.75162	34.52
3.76828	34.52
3.78495	34.52
3.80162	34.52
3.81828	34.51
3.83495	34.52
3.85162	34.52
3.86828	34.52
3.88495	34.51
3.90162	34.52
3.91828	34.52
3.93495	34.51
3.95162	34.51
3.96828	34.52
3.98495	34.52

[Status Trace (Column Flow)]
Interval(msec)	1000
# of Points	240
Start Time(min)	0.002
End Time(min)	3.985
Intensity Units	
Intensity Multiplier	1
R.Time (min)	Intensity
0.00162	5.49
0.01828	5.35
0.03495	5.25
0.05162	5.53
0.06828	5.71
0.08495	5.55
0.10162	5.49
0.11828	5.49
0.13495	5.49
0.15162	5.49
0.16828	5.49
0.18495	5.49
0.20162	5.49
0.21828	5.49
0.23495	5.49
0.25162	5.49
0.26828	5.49
0.28495	5.49
0.30162	5.49
0.31828	5.49
0.33495	5.49
0.35162	5.49
0.36828	5.49
0.38495	5.49
0.40162	5.49
0.41828	5.49
0.43495	5.49
0.45162	5.49
0.46828	5.49
0.48495	5.49
0.50162	5.49
0.51828	5.49
0.53495	5.49
0.55162	5.49
0.56828	5.49
0.58495	5.49
0.60162	5.49
0.61828	5.49
0.63495	5.49
0.65162	5.49
0.66828	5.49
0.68495	5.49
0.70162	5.49
0.71828	5.49
0.73495	5.49
0.75162	5.49
0.76828	5.49
0.78495	5.49
0.80162	5.49
0.81828	5.49
0.83495	5.49
0.85162	5.49
0.86828	5.49
0.88495	5.49
0.90162	5.49
0.91828	5.49
0.93495	5.49
0.95162	5.49
0.96828	5.49
0.98495	5.49
1.00162	5.49
1.01828	5.49
1.03495	5.49
1.05162	5.49
1.06828	5.49
1.08495	5.49
1.10162	5.49
1.11828	5.49
1.13495	5.49
1.15162	5.49
1.16828	5.49
1.18495	5.49
1.20162	5.49
1.21828	5.49
1.23495	5.49
1.25162	5.49
1.26828	5.49
1.28495	5.49
1.30162	5.49
1.31828	5.49
1.33495	5.49
1.35162	5.49
1.36828	5.49
1.38495	5.49
1.40162	5.49
1.41828	5.49
1.43495	5.49
1.45162	5.49
1.46828	5.49
1.48495	5.49
1.50162	5.49
1.51828	5.49
1.53495	5.49
1.55162	5.49
1.56828	5.49
1.58495	5.49
1.60162	5.49
1.61828	5.49
1.63495	5.48
1.65162	5.48
1.66828	5.47
1.68495	5.46
1.70162	5.44
1.71828	5.44
1.73495	5.42
1.75162	5.41
1.76828	5.40
1.78495	5.39
1.80162	5.38
1.81828	5.37
1.83495	5.36
1.85162	5.35
1.86828	5.35
1.88495	5.33
1.90162	5.32
1.91828	5.32
1.93495	5.31
1.95162	5.30
1.96828	5.29
1.98495	5.28
2.00162	5.27
2.01828	5.26
2.03495	5.25
2.05162	5.24
2.06828	5.23
2.08495	5.22
2.10162	5.21
2.11828	5.20
2.13495	5.19
2.15162	5.18
2.16828	5.17
2.18495	5.16
2.20162	5.15
2.21828	5.14
2.23495	5.13
2.25162	5.12
2.26828	5.12
2.28495	5.11
2.30162	5.10
2.31828	5.09
2.33495	5.08
2.35162	5.07
2.36828	5.06
2.38495	5.06
2.40162	5.06
2.41828	5.06
2.43495	5.06
2.45162	5.06
2.46828	5.06
2.48495	5.06
2.50162	5.06
2.51828	5.06
2.53495	5.06
2.55162	5.06
2.56828	5.06
2.58495	5.06
2.60162	5.06
2.61828	5.06
2.63495	5.06
2.65162	5.06
2.66828	5.06
2.68495	5.06
2.70162	5.06
2.71828	5.06
2.73495	5.05
2.75162	5.06
2.76828	5.06
2.78495	5.06
2.80162	5.05
2.81828	5.05
2.83495	5.05
2.85162	5.05
2.86828	5.05
2.88495	5.05
2.90162	5.05
2.91828	5.05
2.93495	5.05
2.95162	5.05
2.96828	5.05
2.98495	5.05
3.00162	5.05
3.01828	5.05
3.03495	5.05
3.05162	5.05
3.06828	5.05
3.08495	5.05
3.10162	5.05
3.11828	5.05
3.13495	5.05
3.15162	5.05
3.16828	5.05
3.18495	5.05
3.20162	5.05
3.21828	5.05
3.23495	5.05
3.25162	5.05
3.26828	5.05
3.28495	5.05
3.30162	5.05
3.31828	5.05
3.33495	5.05
3.35162	5.05
3.36828	5.05
3.38495	5.05
3.40162	5.05
3.41828	5.05
3.43495	5.05
3.45162	5.05
3.46828	5.05
3.48495	5.05
3.50162	5.05
3.51828	5.05
3.53495	5.05
3.55162	5.05
3.56828	5.05
3.58495	5.05
3.60162	5.05
3.61828	5.05
3.63495	5.05
3.65162	5.05
3.66828	5.05
3.68495	5.05
3.70162	5.05
3.71828	5.05
3.73495	5.05
3.75162	5.05
3.76828	5.05
3.78495	5.05
3.80162	5.05
3.81828	5.05
3.83495	5.05
3.85162	5.05
3.86828	5.05
3.88495	5.05
3.90162	5.05
3.91828	5.05
3.93495	5.05
3.95162	5.05
3.96828	5.05
3.98495	5.05

[Status Trace (Linear Velocity)]
Interval(msec)	1000
# of Points	240
Start Time(min)	0.002
End Time(min)	3.985
Intensity Units	
Intensity Multiplier	1
R.Time (min)	Intensity
0.00162	39.01
0.01828	38.21
0.03495	37.66
0.05162	39.21
0.06828	40.26
0.08495	39.32
0.10162	38.99
0.11828	39.01
0.13495	39.01
0.15162	39.01
0.16828	39.01
0.18495	39.01
0.20162	39.01
0.21828	39.01
0.23495	39.01
0.25162	39.01
0.26828	39.01
0.28495	39.01
0.30162	39.01
0.31828	39.01
0.33495	39.01
0.35162	39.01
0.36828	39.01
0.38495	39.01
0.40162	39.01
0.41828	39.01
0.43495	39.01
0.45162	39.01
0.46828	39.01
0.48495	39.01
0.50162	39.01
0.51828	39.01
0.53495	39.01
0.55162	39.01
0.56828	39.01
0.58495	39.01
0.60162	39.01
0.61828	39.01
0.63495	39.01
0.65162	39.01
0.66828	39.01
0.68495	39.01
0.70162	39.01
0.71828	39.01
0.73495	39.01
0.75162	39.01
0.76828	39.01
0.78495	39.01
0.80162	39.01
0.81828	39.01
0.83495	39.01
0.85162	39.01
0.86828	39.01
0.88495	39.01
0.90162	39.01
0.91828	39.01
0.93495	39.01
0.95162	39.01
0.96828	39.01
0.98495	39.01
1.00162	39.01
1.01828	39.01
1.03495	39.01
1.05162	39.01
1.06828	39.01
1.08495	39.01
1.10162	39.01
1.11828	39.01
1.13495	39.01
1.15162	39.01
1.16828	39.01
1.18495	39.01
1.20162	39.01
1.21828	39.01
1.23495	39.01
1.25162	39.01
1.26828	39.01
1.28495	39.01
1.30162	39.01
1.31828	39.01
1.33495	39.01
1.35162	39.01
1.36828	39.01
1.38495	39.01
1.40162	39.01
1.41828	39.01
1.43495	39.01
1.45162	39.01
1.46828	39.01
1.48495	39.01
1.50162	39.01
1.51828	39.01
1.53495	39.01
1.55162	39.01
1.56828	39.01
1.58495	39.01
1.60162	39.01
1.61828	39.00
1.63495	38.99
1.65162	38.97
1.66828	38.94
1.68495	38.90
1.70162	38.87
1.71828	38.84
1.73495	38.80
1.75162	38.77
1.76828	38.74
1.78495	38.70
1.80162	38.67
1.81828	38.65
1.83495	38.62
1.85162	38.58
1.86828	38.55
1.88495	38.52
1.90162	38.49
1.91828	38.46
1.93495	38.43
1.95162	38.40
1.96828	38.37
1.98495	38.34
2.00162	38.31
2.01828	38.28
2.03495	38.25
2.05162	38.22
2.06828	38.19
2.08495	38.16
2.10162	38.13
2.11828	38.10
2.13495	38.07
2.15162	38.04
2.16828	38.01
2.18495	37.98
2.20162	37.95
2.21828	37.92
2.23495	37.89
2.25162	37.86
2.26828	37.84
2.28495	37.80
2.30162	37.77
2.31828	37.75
2.33495	37.71
2.35162	37.69
2.36828	37.66
2.38495	37.65
2.40162	37.65
2.41828	37.65
2.43495	37.65
2.45162	37.65
2.46828	37.65
2.48495	37.65
2.50162	37.65
2.51828	37.64
2.53495	37.64
2.55162	37.65
2.56828	37.65
2.58495	37.64
2.60162	37.64
2.61828	37.64
2.63495	37.64
2.65162	37.64
2.66828	37.64
2.68495	37.64
2.70162	37.64
2.71828	37.64
2.73495	37.64
2.75162	37.64
2.76828	37.64
2.78495	37.64
2.80162	37.64
2.81828	37.64
2.83495	37.64
2.85162	37.64
2.86828	37.63
2.88495	37.63
2.90162	37.63
2.91828	37.63
2.93495	37.63
2.95162	37.63
2.96828	37.63
2.98495	37.63
3.00162	37.63
3.01828	37.63
3.03495	37.63
3.05162	37.63
3.06828	37.62
3.08495	37.62
3.10162	37.62
3.11828	37.62
3.13495	37.62
3.15162	37.62
3.16828	37.62
3.18495	37.62
3.20162	37.62
3.21828	37.62
3.23495	37.62
3.25162	37.61
3.26828	37.62
3.28495	37.62
3.30162	37.62
3.31828	37.62
3.33495	37.62
3.35162	37.62
3.36828	37.62
3.38495	37.63
3.40162	37.63
3.41828	37.63
3.43495	37.63
3.45162	37.63
3.46828	37.63
3.48495	37.63
3.50162	37.63
3.51828	37.63
3.53495	37.63
3.55162	37.63
3.56828	37.63
3.58495	37.63
3.60162	37.63
3.61828	37.63
3.63495	37.62
3.65162	37.62
3.66828	37.62
3.68495	37.62
3.70162	37.62
3.71828	37.62
3.73495	37.62
3.75162	37.62
3.76828	37.62
3.78495	37.62
3.80162	37.62
3.81828	37.62
3.83495	37.62
3.85162	37.62
3.86828	37.62
3.88495	37.62
3.90162	37.62
3.91828	37.62
3.93495	37.62
3.95162	37.62
3.96828	37.62
3.98495	37.62

