[Header]
Application Name	LabSolutions
Version	5.110
Data File Name	C:\Users\User\Desktop\Junior\UIC Prairie Sampling\2023\8.2.23\080223_024.gcd
Output Date	8/31/2023
Output Time	12:43:06 PM

[File Information]
Type	Data File
Generated	8/29/2023 6:30:41 PM
Generated by	System Administrator
Modified	8/29/2023 6:37:19 PM
Modified by	System Administrator

[Sample Information]
Operator Name	System Administrator
Acquired	8/29/2023 6:33:18 PM
Sample Type	0:Unknown
Level	0
Sample Name	024
Sample ID	024
ISTD Amount1	1
ISTD Amount2	1
ISTD Amount3	1
ISTD Amount4	1
ISTD Amount5	1
ISTD Amount6	1
ISTD Amount7	1
ISTD Amount8	1
ISTD Amount9	1
ISTD Amount10	1
ISTD Amount11	1
ISTD Amount12	1
ISTD Amount13	1
ISTD Amount14	1
ISTD Amount15	1
ISTD Amount16	1
ISTD Amount17	1
ISTD Amount18	1
ISTD Amount19	1
ISTD Amount20	1
ISTD Amount21	1
ISTD Amount22	1
ISTD Amount23	1
ISTD Amount24	1
ISTD Amount25	1
ISTD Amount26	1
ISTD Amount27	1
ISTD Amount28	1
ISTD Amount29	1
ISTD Amount30	1
ISTD Amount31	1
ISTD Amount32	1
Sample Amount	1
Dilution Factor	1
Vial#	23
Injection Volume	1
Injection Count	1
Bar Code	

[Original Files]
Data File	C:\Users\User\Desktop\Junior\UIC Prairie Sampling\8.2.23\080223_024.gcd
Method File	C:\LabSolutions\Data\GHG_4min_2022\ghg3_togas_w_acet_4 min_new_int.gcm
Batch File	C:\LabSolutions\Data\BATCH FILES\080223.gcb
Report Format File	c:\LabSolutions\System\DEFAULT.lsr

[File Description]


[Configuration]
Instrument Name	C0B7VH3-Instrument1
Instrument #	1
Line #	1
# of Detectors	3
Detector ID	DET#1	DET#2	DET#3
Detector Name	FID	PTCD	ECD
# of Channels	1	1	1

[Peak Table(Ch1)]
# of Peaks	4
Peak#	R.Time	I.Time	F.Time	Area	Height	A/H	Conc.	Mark	ID#	Name	k'	Plate #	Plate Ht.	Tailing	Resolution	Sep.Factor	Area Ratio	Height Ratio	Conc. %	Norm Conc.
1	0.288	0.170	0.405	2297	337	6.822	0.000	   			0.000	40	3791.901	0.970	0.000	0.000	0	0	0.000	0.000
2	1.476	1.454	1.516	858	507	1.692	0.000	   	1	CO	4.130	13563	11.059	1.294	10.170	0.000	0	0	0.000	0.000
3	1.564	1.516	1.644	18094	9299	1.946	88.215	 V 	2	CH4	4.436	11737	12.780	1.146	1.623	1.074	0	0	19.048	19.048
4	1.989	1.941	2.623	1945324	933902	2.083	374.900	   	3	CO2	5.914	17505	8.569	1.297	7.217	1.333	0	0	80.952	80.952

[Peak Table(Ch2)]
# of Peaks	1
Peak#	R.Time	I.Time	F.Time	Area	Height	A/H	Conc.	Mark	ID#	Name	k'	Plate #	Plate Ht.	Tailing	Resolution	Sep.Factor	Area Ratio	Height Ratio	Conc. %	Norm Conc.
1	2.963	2.928	3.056	1150	324	3.545	0.000	   	1	Hydrogen	0.000	15432	9.720	1.924	0.000	0.000	0	0	0.000	0.000

[Peak Table(Ch3)]
# of Peaks	5
Peak#	R.Time	I.Time	F.Time	Area	Height	A/H	Conc.	Mark	ID#	Name	k'	Plate #	Plate Ht.	Tailing	Resolution	Sep.Factor	Area Ratio	Height Ratio	Conc. %	Norm Conc.
1	2.458	2.418	2.506	711	266	2.672	0.000	   			0.000	13902	10.790	0.000	0.000	0.000	0	0	0.000	0.000
2	2.521	2.506	2.568	324	132	2.461	0.000	 V 			0.025	6487	23.122	0.000	0.598	0.000	0	0	0.000	0.000
3	2.620	2.568	2.689	421	112	3.772	0.000	 V 			0.066	7915	18.952	0.000	0.815	2.588	0	0	0.000	0.000
4	2.895	2.733	3.877	69175	11864	5.831	1.023	S  	1	N2O	0.177	11364	13.200	3.578	2.429	2.705	0	0	100.000	100.000
5	3.408	3.291	3.646	2303	298	7.724	0.000	T  			0.386	4557	32.915	1.158	3.306	2.176	0	0	0.000	0.000

[Compound Results(Ch1)]
# of IDs	6
ID#	Name	R.Time	Area	Height	Conc.	Curve	3rd	2nd	1st	Constant	Area Ratio	Height Ratio	Conc. %	Norm Conc.
1	CO	1.476	858	507	0.000	Linear	0.000000e+00	0.000000e+00	0.000000e+00	0.000000e+00	0	0	0.000	0.000
2	CH4	1.564	18094	9299	88.215	Linear	0.000000e+00	0.000000e+00	2.051179e+002	0.000000e+00	0	0	19.048	19.048
3	CO2	1.989	1945324	933902	374.900	Linear	0.000000e+00	0.000000e+00	5.188919e+003	0.000000e+00	0	0	80.952	80.952
4	Ethylene	0.000	0	0	0.000	Linear	0.000000e+00	0.000000e+00	0.000000e+00	0.000000e+00	0	0	0.000	0.000
5	Acetylene	0.000	0	0	0.000	Linear	0.000000e+00	0.000000e+00	0.000000e+00	0.000000e+00	0	0	0.000	0.000
6	Ethane	0.000	0	0	0.000	Linear	0.000000e+00	0.000000e+00	0.000000e+00	0.000000e+00	0	0	0.000	0.000

[Compound Results(Ch2)]
# of IDs	5
ID#	Name	R.Time	Area	Height	Conc.	Curve	3rd	2nd	1st	Constant	Area Ratio	Height Ratio	Conc. %	Norm Conc.
1	Hydrogen	2.963	1150	324	0.000	Linear	0.000000e+00	0.000000e+00	0.000000e+00	0.000000e+00	0	0	0.000	0.000
2	Oxygen	0.000	0	0	0.000	Linear	0.000000e+00	0.000000e+00	0.000000e+00	0.000000e+00	0	0	0.000	0.000
3	Nitrogen	0.000	0	0	0.000	Linear	0.000000e+00	0.000000e+00	0.000000e+00	0.000000e+00	0	0	0.000	0.000
4	Methane	0.000	0	0	0.000	Linear	0.000000e+00	0.000000e+00	0.000000e+00	0.000000e+00	0	0	0.000	0.000
5	Carbon Monoxide	0.000	0	0	0.000	Linear	0.000000e+00	0.000000e+00	0.000000e+00	0.000000e+00	0	0	0.000	0.000

[Compound Results(Ch3)]
# of IDs	2
ID#	Name	R.Time	Area	Height	Conc.	Curve	3rd	2nd	1st	Constant	Area Ratio	Height Ratio	Conc. %	Norm Conc.
1	N2O	2.895	69175	11864	1.023	Linear	0.000000e+00	0.000000e+00	6.759880e+004	0.000000e+00	0	0	100.000	100.000
2	SF6	0.000	0	0	0.000	Linear	0.000000e+00	0.000000e+00	0.000000e+00	0.000000e+00	0	0	0.000	0.000

[Group Results(Ch1)]
# of Groups	0

[Group Results(Ch2)]
# of Groups	0

[Group Results(Ch3)]
# of Groups	0

[Chromatogram (Ch1)]
Interval(msec)	220
# of Points	1091
Start Time(min)	0.002
End Time(min)	3.998
R.Time (min)	Intensity
0.00167	-6
0.00533	2
0.00900	12
0.01267	21
0.01633	24
0.02000	22
0.02367	22
0.02733	23
0.03100	23
0.03467	22
0.03833	20
0.04200	17
0.04567	11
0.04933	3
0.05300	-1
0.05667	0
0.06033	4
0.06400	7
0.06767	9
0.07133	10
0.07500	12
0.07867	15
0.08233	18
0.08600	21
0.08967	22
0.09333	21
0.09700	18
0.10067	16
0.10433	15
0.10800	12
0.11167	7
0.11533	2
0.11900	1
0.12267	3
0.12633	7
0.13000	10
0.13367	14
0.13733	15
0.14100	13
0.14467	12
0.14833	12
0.15200	16
0.15567	23
0.15933	31
0.16300	37
0.16667	42
0.17033	47
0.17400	55
0.17767	63
0.18133	68
0.18500	69
0.18867	71
0.19233	74
0.19600	80
0.19967	89
0.20333	103
0.20700	121
0.21067	141
0.21433	160
0.21800	176
0.22167	194
0.22533	213
0.22900	232
0.23267	249
0.23633	264
0.24000	278
0.24367	290
0.24733	303
0.25100	315
0.25467	323
0.25833	329
0.26200	339
0.26567	352
0.26933	365
0.27300	377
0.27667	387
0.28033	394
0.28400	398
0.28767	400
0.29133	398
0.29500	396
0.29867	394
0.30233	388
0.30600	380
0.30967	370
0.31333	355
0.31700	336
0.32067	315
0.32433	295
0.32800	279
0.33167	269
0.33533	262
0.33900	251
0.34267	236
0.34633	221
0.35000	208
0.35367	196
0.35733	183
0.36100	172
0.36467	160
0.36833	149
0.37200	139
0.37567	130
0.37933	120
0.38300	110
0.38667	100
0.39033	93
0.39400	90
0.39767	87
0.40133	83
0.40500	80
0.40867	76
0.41233	72
0.41600	68
0.41967	66
0.42333	65
0.42700	67
0.43067	68
0.43433	64
0.43800	58
0.44167	49
0.44533	40
0.44900	34
0.45267	30
0.45633	27
0.46000	23
0.46367	17
0.46733	13
0.47100	11
0.47467	10
0.47833	10
0.48200	11
0.48567	14
0.48933	17
0.49300	20
0.49667	25
0.50033	31
0.50400	35
0.50767	34
0.51133	32
0.51500	30
0.51867	27
0.52233	26
0.52600	27
0.52967	28
0.53333	31
0.53700	32
0.54067	30
0.54433	27
0.54800	23
0.55167	22
0.55533	25
0.55900	30
0.56267	36
0.56633	38
0.57000	37
0.57367	37
0.57733	38
0.58100	39
0.58467	39
0.58833	38
0.59200	36
0.59567	35
0.59933	33
0.60300	30
0.60667	27
0.61033	26
0.61400	27
0.61767	26
0.62133	24
0.62500	24
0.62867	24
0.63233	25
0.63600	23
0.63967	22
0.64333	24
0.64700	30
0.65067	35
0.65433	35
0.65800	29
0.66167	24
0.66533	19
0.66900	13
0.67267	7
0.67633	6
0.68000	10
0.68367	16
0.68733	22
0.69100	26
0.69467	30
0.69833	33
0.70200	34
0.70567	33
0.70933	28
0.71300	22
0.71667	17
0.72033	18
0.72400	21
0.72767	23
0.73133	23
0.73500	23
0.73867	22
0.74233	21
0.74600	20
0.74967	16
0.75333	14
0.75700	13
0.76067	14
0.76433	16
0.76800	16
0.77167	13
0.77533	13
0.77900	14
0.78267	15
0.78633	14
0.79000	11
0.79367	9
0.79733	10
0.80100	13
0.80467	17
0.80833	21
0.81200	25
0.81567	27
0.81933	26
0.82300	26
0.82667	25
0.83033	22
0.83400	21
0.83767	24
0.84133	29
0.84500	31
0.84867	30
0.85233	26
0.85600	23
0.85967	25
0.86333	28
0.86700	29
0.87067	29
0.87433	29
0.87800	27
0.88167	25
0.88533	21
0.88900	15
0.89267	11
0.89633	10
0.90000	9
0.90367	7
0.90733	6
0.91100	4
0.91467	5
0.91833	8
0.92200	12
0.92567	18
0.92933	24
0.93300	25
0.93667	26
0.94033	28
0.94400	26
0.94767	20
0.95133	11
0.95500	0
0.95867	-8
0.96233	-13
0.96600	-14
0.96967	-10
0.97333	-5
0.97700	-0
0.98067	5
0.98433	8
0.98800	8
0.99167	7
0.99533	6
0.99900	7
1.00267	8
1.00633	9
1.01000	11
1.01367	13
1.01733	14
1.02100	12
1.02467	10
1.02833	6
1.03200	3
1.03567	-3
1.03933	-7
1.04300	-4
1.04667	-1
1.05033	2
1.05400	5
1.05767	7
1.06133	7
1.06500	6
1.06867	3
1.07233	-0
1.07600	-1
1.07967	-3
1.08333	-5
1.08700	-6
1.09067	-5
1.09433	-2
1.09800	1
1.10167	3
1.10533	2
1.10900	1
1.11267	2
1.11633	1
1.12000	1
1.12367	2
1.12733	-0
1.13100	-4
1.13467	-5
1.13833	-5
1.14200	-7
1.14567	-9
1.14933	-11
1.15300	-9
1.15667	-8
1.16033	-8
1.16400	-8
1.16767	-6
1.17133	-6
1.17500	-8
1.17867	-11
1.18233	-12
1.18600	-11
1.18967	-9
1.19333	-7
1.19700	-8
1.20067	-10
1.20433	-10
1.20800	-8
1.21167	-7
1.21533	-6
1.21900	-5
1.22267	-2
1.22633	5
1.23000	9
1.23367	6
1.23733	-0
1.24100	-5
1.24467	-10
1.24833	-17
1.25200	-20
1.25567	-20
1.25933	-19
1.26300	-18
1.26667	-16
1.27033	-13
1.27400	-8
1.27767	-3
1.28133	-1
1.28500	3
1.28867	6
1.29233	4
1.29600	1
1.29967	-2
1.30333	-5
1.30700	-9
1.31067	-14
1.31433	-16
1.31800	-15
1.32167	-15
1.32533	-17
1.32900	-18
1.33267	-16
1.33633	-13
1.34000	-8
1.34367	-4
1.34733	2
1.35100	5
1.35467	2
1.35833	-3
1.36200	-3
1.36567	-1
1.36933	1
1.37300	2
1.37667	1
1.38033	-4
1.38400	-11
1.38767	-19
1.39133	-25
1.39500	-29
1.39867	-28
1.40233	-22
1.40600	-17
1.40967	-16
1.41333	-17
1.41700	-20
1.42067	-20
1.42433	-18
1.42800	-17
1.43167	-15
1.43533	-5
1.43900	11
1.44267	5
1.44633	-25
1.45000	-31
1.45367	16
1.45733	99
1.46100	197
1.46467	301
1.46833	403
1.47200	482
1.47567	519
1.47933	502
1.48300	438
1.48667	352
1.49033	265
1.49400	190
1.49767	129
1.50133	84
1.50500	53
1.50867	33
1.51233	18
1.51600	11
1.51967	8
1.52333	8
1.52700	11
1.53067	40
1.53433	203
1.53800	746
1.54167	1898
1.54533	3583
1.54900	5441
1.55267	7107
1.55633	8382
1.56000	9153
1.56367	9296
1.56733	8723
1.57100	7535
1.57467	6024
1.57833	4515
1.58200	3221
1.58567	2214
1.58933	1481
1.59300	969
1.59667	621
1.60033	389
1.60400	236
1.60767	139
1.61133	78
1.61500	41
1.61867	19
1.62233	8
1.62600	0
1.62967	-6
1.63333	-9
1.63700	-12
1.64067	-15
1.64433	-17
1.64800	-17
1.65167	-17
1.65533	-17
1.65900	-21
1.66267	-27
1.66633	-29
1.67000	-29
1.67367	-29
1.67733	-25
1.68100	-21
1.68467	-21
1.68833	-25
1.69200	-29
1.69567	-32
1.69933	-35
1.70300	-40
1.70667	-46
1.71033	-53
1.71400	-55
1.71767	-50
1.72133	-42
1.72500	-34
1.72867	-28
1.73233	-24
1.73600	-27
1.73967	-32
1.74333	-37
1.74700	-41
1.75067	-43
1.75433	-43
1.75800	-42
1.76167	-40
1.76533	-39
1.76900	-40
1.77267	-39
1.77633	-36
1.78000	-31
1.78367	-26
1.78733	-24
1.79100	-24
1.79467	-25
1.79833	-28
1.80200	-30
1.80567	-30
1.80933	-30
1.81300	-30
1.81667	-31
1.82033	-34
1.82400	-39
1.82767	-39
1.83133	-38
1.83500	-38
1.83867	-37
1.84233	-35
1.84600	-37
1.84967	-41
1.85333	-45
1.85700	-48
1.86067	-48
1.86433	-45
1.86800	-43
1.87167	-42
1.87533	-37
1.87900	-27
1.88267	-18
1.88633	-11
1.89000	-10
1.89367	-12
1.89733	-15
1.90100	-20
1.90467	-25
1.90833	-29
1.91200	-32
1.91567	-30
1.91933	-28
1.92300	-26
1.92667	-25
1.93033	-23
1.93400	-24
1.93767	-24
1.94133	-22
1.94500	-7
1.94867	114
1.95233	882
1.95600	4607
1.95967	18084
1.96333	55099
1.96700	133596
1.97067	263027
1.97433	432512
1.97800	613513
1.98167	773099
1.98533	885127
1.98900	933902
1.99267	914355
1.99633	834006
2.00000	711855
2.00367	572236
2.00733	437125
2.01100	320751
2.01467	228692
2.01833	160215
2.02200	111433
2.02567	77677
2.02933	54738
2.03300	39291
2.03667	28908
2.04033	21893
2.04400	17103
2.04767	13777
2.05133	11420
2.05500	9708
2.05867	8433
2.06233	7454
2.06600	6683
2.06967	6066
2.07333	5559
2.07700	5134
2.08067	4772
2.08433	4458
2.08800	4180
2.09167	3933
2.09533	3713
2.09900	3516
2.10267	3336
2.10633	3170
2.11000	3019
2.11367	2883
2.11733	2760
2.12100	2647
2.12467	2542
2.12833	2445
2.13200	2354
2.13567	2271
2.13933	2195
2.14300	2122
2.14667	2054
2.15033	1992
2.15400	1932
2.15767	1872
2.16133	1813
2.16500	1756
2.16867	1702
2.17233	1651
2.17600	1603
2.17967	1556
2.18333	1512
2.18700	1470
2.19067	1431
2.19433	1390
2.19800	1350
2.20167	1312
2.20533	1279
2.20900	1250
2.21267	1221
2.21633	1194
2.22000	1172
2.22367	1149
2.22733	1126
2.23100	1106
2.23467	1084
2.23833	1063
2.24200	1041
2.24567	1020
2.24933	1002
2.25300	987
2.25667	973
2.26033	957
2.26400	940
2.26767	922
2.27133	902
2.27500	881
2.27867	862
2.28233	846
2.28600	830
2.28967	811
2.29333	792
2.29700	772
2.30067	751
2.30433	730
2.30800	712
2.31167	699
2.31533	689
2.31900	682
2.32267	677
2.32633	675
2.33000	671
2.33367	667
2.33733	663
2.34100	658
2.34467	650
2.34833	640
2.35200	628
2.35567	613
2.35933	598
2.36300	589
2.36667	585
2.37033	582
2.37400	575
2.37767	565
2.38133	556
2.38500	549
2.38867	544
2.39233	542
2.39600	542
2.39967	543
2.40333	542
2.40700	538
2.41067	529
2.41433	516
2.41800	503
2.42167	496
2.42533	492
2.42900	487
2.43267	479
2.43633	470
2.44000	462
2.44367	455
2.44733	449
2.45100	446
2.45467	443
2.45833	439
2.46200	437
2.46567	434
2.46933	429
2.47300	424
2.47667	418
2.48033	410
2.48400	403
2.48767	396
2.49133	391
2.49500	387
2.49867	387
2.50233	389
2.50600	390
2.50967	387
2.51333	383
2.51700	380
2.52067	377
2.52433	372
2.52800	365
2.53167	359
2.53533	355
2.53900	353
2.54267	353
2.54633	349
2.55000	343
2.55367	340
2.55733	338
2.56100	336
2.56467	332
2.56833	332
2.57200	332
2.57567	329
2.57933	327
2.58300	323
2.58667	319
2.59033	317
2.59400	316
2.59767	316
2.60133	315
2.60500	311
2.60867	305
2.61233	300
2.61600	300
2.61967	301
2.62333	300
2.62700	298
2.63067	297
2.63433	299
2.63800	301
2.64167	299
2.64533	300
2.64900	301
2.65267	302
2.65633	299
2.66000	295
2.66367	293
2.66733	289
2.67100	282
2.67467	275
2.67833	270
2.68200	267
2.68567	264
2.68933	262
2.69300	261
2.69667	261
2.70033	265
2.70400	266
2.70767	264
2.71133	264
2.71500	266
2.71867	263
2.72233	258
2.72600	254
2.72967	253
2.73333	254
2.73700	255
2.74067	255
2.74433	256
2.74800	255
2.75167	255
2.75533	254
2.75900	255
2.76267	258
2.76633	261
2.77000	263
2.77367	261
2.77733	257
2.78100	253
2.78467	247
2.78833	240
2.79200	236
2.79567	239
2.79933	244
2.80300	247
2.80667	250
2.81033	251
2.81400	252
2.81767	254
2.82133	255
2.82500	254
2.82867	250
2.83233	247
2.83600	243
2.83967	239
2.84333	235
2.84700	232
2.85067	231
2.85433	230
2.85800	228
2.86167	228
2.86533	228
2.86900	228
2.87267	229
2.87633	232
2.88000	232
2.88367	231
2.88733	231
2.89100	230
2.89467	228
2.89833	225
2.90200	223
2.90567	221
2.90933	220
2.91300	217
2.91667	213
2.92033	210
2.92400	209
2.92767	209
2.93133	210
2.93500	209
2.93867	206
2.94233	201
2.94600	199
2.94967	201
2.95333	203
2.95700	203
2.96067	203
2.96433	205
2.96800	209
2.97167	213
2.97533	215
2.97900	214
2.98267	211
2.98633	207
2.99000	206
2.99367	207
2.99733	209
3.00100	213
3.00467	217
3.00833	218
3.01200	218
3.01567	219
3.01933	219
3.02300	218
3.02667	215
3.03033	211
3.03400	208
3.03767	205
3.04133	203
3.04500	202
3.04867	202
3.05233	201
3.05600	198
3.05967	194
3.06333	189
3.06700	184
3.07067	182
3.07433	181
3.07800	182
3.08167	185
3.08533	189
3.08900	192
3.09267	195
3.09633	197
3.10000	199
3.10367	199
3.10733	201
3.11100	204
3.11467	205
3.11833	206
3.12200	207
3.12567	206
3.12933	203
3.13300	198
3.13667	194
3.14033	192
3.14400	190
3.14767	186
3.15133	183
3.15500	182
3.15867	183
3.16233	186
3.16600	189
3.16967	188
3.17333	184
3.17700	181
3.18067	179
3.18433	176
3.18800	174
3.19167	172
3.19533	170
3.19900	169
3.20267	170
3.20633	171
3.21000	169
3.21367	168
3.21733	169
3.22100	170
3.22467	172
3.22833	175
3.23200	177
3.23567	179
3.23933	179
3.24300	179
3.24667	178
3.25033	176
3.25400	174
3.25767	171
3.26133	173
3.26500	174
3.26867	174
3.27233	170
3.27600	163
3.27967	159
3.28333	156
3.28700	152
3.29067	148
3.29433	145
3.29800	145
3.30167	147
3.30533	149
3.30900	149
3.31267	150
3.31633	153
3.32000	158
3.32367	162
3.32733	165
3.33100	165
3.33467	164
3.33833	162
3.34200	161
3.34567	159
3.34933	158
3.35300	157
3.35667	154
3.36033	150
3.36400	146
3.36767	142
3.37133	140
3.37500	141
3.37867	145
3.38233	152
3.38600	158
3.38967	164
3.39333	166
3.39700	164
3.40067	159
3.40433	152
3.40800	149
3.41167	150
3.41533	154
3.41900	158
3.42267	159
3.42633	157
3.43000	154
3.43367	148
3.43733	143
3.44100	139
3.44467	138
3.44833	138
3.45200	137
3.45567	136
3.45933	135
3.46300	135
3.46667	137
3.47033	139
3.47400	139
3.47767	137
3.48133	135
3.48500	137
3.48867	140
3.49233	144
3.49600	146
3.49967	149
3.50333	151
3.50700	153
3.51067	152
3.51433	149
3.51800	145
3.52167	139
3.52533	136
3.52900	133
3.53267	129
3.53633	124
3.54000	122
3.54367	123
3.54733	123
3.55100	124
3.55467	125
3.55833	125
3.56200	125
3.56567	125
3.56933	126
3.57300	131
3.57667	134
3.58033	134
3.58400	133
3.58767	130
3.59133	125
3.59500	122
3.59867	120
3.60233	120
3.60600	121
3.60967	121
3.61333	120
3.61700	119
3.62067	117
3.62433	114
3.62800	113
3.63167	114
3.63533	116
3.63900	118
3.64267	117
3.64633	113
3.65000	108
3.65367	105
3.65733	104
3.66100	104
3.66467	106
3.66833	106
3.67200	104
3.67567	103
3.67933	103
3.68300	105
3.68667	110
3.69033	116
3.69400	119
3.69767	118
3.70133	117
3.70500	114
3.70867	108
3.71233	100
3.71600	94
3.71967	93
3.72333	95
3.72700	98
3.73067	104
3.73433	107
3.73800	107
3.74167	109
3.74533	113
3.74900	118
3.75267	121
3.75633	120
3.76000	118
3.76367	117
3.76733	124
3.77100	129
3.77467	128
3.77833	122
3.78200	117
3.78567	115
3.78933	113
3.79300	114
3.79667	115
3.80033	115
3.80400	111
3.80767	107
3.81133	103
3.81500	98
3.81867	92
3.82233	88
3.82600	87
3.82967	89
3.83333	91
3.83700	92
3.84067	94
3.84433	99
3.84800	105
3.85167	109
3.85533	110
3.85900	109
3.86267	106
3.86633	100
3.87000	96
3.87367	96
3.87733	95
3.88100	94
3.88467	92
3.88833	87
3.89200	81
3.89567	75
3.89933	71
3.90300	69
3.90667	66
3.91033	65
3.91400	70
3.91767	78
3.92133	85
3.92500	87
3.92867	85
3.93233	85
3.93600	90
3.93967	93
3.94333	94
3.94700	90
3.95067	85
3.95433	80
3.95800	77
3.96167	75
3.96533	73
3.96900	73
3.97267	75
3.97633	80
3.98000	84
3.98367	85
3.98733	85
3.99100	83
3.99467	82
3.99833	81

[Chromatogram (Ch2)]
Interval(msec)	220
# of Points	1091
Start Time(min)	0.002
End Time(min)	3.998
R.Time (min)	Intensity
0.00167	0
0.00533	0
0.00900	0
0.01267	0
0.01633	0
0.02000	0
0.02367	1
0.02733	1
0.03100	1
0.03467	1
0.03833	1
0.04200	1
0.04567	1
0.04933	0
0.05300	0
0.05667	0
0.06033	0
0.06400	0
0.06767	0
0.07133	-0
0.07500	-0
0.07867	0
0.08233	0
0.08600	0
0.08967	0
0.09333	0
0.09700	0
0.10067	0
0.10433	0
0.10800	0
0.11167	0
0.11533	1
0.11900	1
0.12267	1
0.12633	1
0.13000	1
0.13367	1
0.13733	1
0.14100	1
0.14467	1
0.14833	1
0.15200	1
0.15567	1
0.15933	1
0.16300	1
0.16667	1
0.17033	1
0.17400	1
0.17767	1
0.18133	1
0.18500	1
0.18867	0
0.19233	-0
0.19600	-0
0.19967	-0
0.20333	-1
0.20700	-1
0.21067	-1
0.21433	-1
0.21800	-1
0.22167	-1
0.22533	-1
0.22900	-2
0.23267	-2
0.23633	-2
0.24000	-2
0.24367	-2
0.24733	-2
0.25100	-2
0.25467	-2
0.25833	-1
0.26200	-1
0.26567	-1
0.26933	-1
0.27300	-2
0.27667	-2
0.28033	-2
0.28400	-2
0.28767	-2
0.29133	-2
0.29500	-2
0.29867	-1
0.30233	-1
0.30600	-1
0.30967	-1
0.31333	-1
0.31700	-1
0.32067	-1
0.32433	-1
0.32800	-0
0.33167	-0
0.33533	-0
0.33900	-0
0.34267	-0
0.34633	-0
0.35000	-0
0.35367	-0
0.35733	-0
0.36100	-0
0.36467	-0
0.36833	-0
0.37200	-0
0.37567	-0
0.37933	-0
0.38300	-0
0.38667	-0
0.39033	-0
0.39400	-0
0.39767	-1
0.40133	-1
0.40500	-1
0.40867	-1
0.41233	-1
0.41600	-1
0.41967	-1
0.42333	-1
0.42700	-1
0.43067	-1
0.43433	-1
0.43800	-1
0.44167	-1
0.44533	-1
0.44900	-1
0.45267	-1
0.45633	-0
0.46000	-0
0.46367	-0
0.46733	-0
0.47100	-0
0.47467	-1
0.47833	-1
0.48200	-1
0.48567	-1
0.48933	-1
0.49300	-1
0.49667	-1
0.50033	-1
0.50400	-1
0.50767	-1
0.51133	-1
0.51500	-1
0.51867	-1
0.52233	-1
0.52600	-1
0.52967	-1
0.53333	-1
0.53700	-0
0.54067	-0
0.54433	0
0.54800	0
0.55167	0
0.55533	-0
0.55900	-0
0.56267	-1
0.56633	-1
0.57000	-1
0.57367	-1
0.57733	-1
0.58100	-1
0.58467	-1
0.58833	-1
0.59200	-1
0.59567	-2
0.59933	-2
0.60300	-2
0.60667	-2
0.61033	-1
0.61400	-1
0.61767	-1
0.62133	-1
0.62500	-1
0.62867	-1
0.63233	-0
0.63600	-0
0.63967	-0
0.64333	-0
0.64700	-1
0.65067	-1
0.65433	-1
0.65800	-1
0.66167	-1
0.66533	-1
0.66900	-1
0.67267	-1
0.67633	-1
0.68000	-1
0.68367	-2
0.68733	-2
0.69100	-2
0.69467	-2
0.69833	-2
0.70200	-2
0.70567	-1
0.70933	-1
0.71300	-1
0.71667	-1
0.72033	-1
0.72400	-1
0.72767	-1
0.73133	-1
0.73500	-1
0.73867	-1
0.74233	-1
0.74600	-1
0.74967	-1
0.75333	-1
0.75700	-1
0.76067	-1
0.76433	-1
0.76800	-1
0.77167	-1
0.77533	-1
0.77900	-2
0.78267	-2
0.78633	-2
0.79000	-2
0.79367	-2
0.79733	-2
0.80100	-1
0.80467	-1
0.80833	-1
0.81200	-1
0.81567	-1
0.81933	-1
0.82300	-1
0.82667	-1
0.83033	-2
0.83400	-2
0.83767	-2
0.84133	-2
0.84500	-1
0.84867	-1
0.85233	-2
0.85600	-2
0.85967	-2
0.86333	-2
0.86700	-2
0.87067	-2
0.87433	-2
0.87800	-2
0.88167	-2
0.88533	-2
0.88900	-2
0.89267	-2
0.89633	-1
0.90000	-1
0.90367	-1
0.90733	-1
0.91100	-1
0.91467	-1
0.91833	-1
0.92200	-1
0.92567	-1
0.92933	-1
0.93300	-2
0.93667	-2
0.94033	-2
0.94400	-2
0.94767	-2
0.95133	-2
0.95500	-2
0.95867	-2
0.96233	-2
0.96600	-1
0.96967	-1
0.97333	-1
0.97700	-1
0.98067	-1
0.98433	-1
0.98800	-1
0.99167	-1
0.99533	-1
0.99900	-1
1.00267	-1
1.00633	-1
1.01000	-1
1.01367	-1
1.01733	-1
1.02100	-1
1.02467	-1
1.02833	-1
1.03200	-1
1.03567	-2
1.03933	-2
1.04300	-2
1.04667	-2
1.05033	-2
1.05400	-2
1.05767	-2
1.06133	-2
1.06500	-2
1.06867	-1
1.07233	-1
1.07600	-1
1.07967	-1
1.08333	-2
1.08700	-2
1.09067	-2
1.09433	-2
1.09800	-2
1.10167	-2
1.10533	-2
1.10900	-2
1.11267	-2
1.11633	-2
1.12000	-2
1.12367	-2
1.12733	-2
1.13100	-2
1.13467	-2
1.13833	-2
1.14200	-2
1.14567	-2
1.14933	-2
1.15300	-2
1.15667	-2
1.16033	-2
1.16400	-2
1.16767	-2
1.17133	-2
1.17500	-2
1.17867	-2
1.18233	-2
1.18600	-2
1.18967	-2
1.19333	-2
1.19700	-2
1.20067	-2
1.20433	-2
1.20800	-2
1.21167	-2
1.21533	-2
1.21900	-1
1.22267	-1
1.22633	-1
1.23000	-1
1.23367	-1
1.23733	-2
1.24100	-2
1.24467	-2
1.24833	-2
1.25200	-2
1.25567	-3
1.25933	-2
1.26300	-2
1.26667	-2
1.27033	-2
1.27400	-2
1.27767	-2
1.28133	-2
1.28500	-2
1.28867	-2
1.29233	-2
1.29600	-2
1.29967	-2
1.30333	-2
1.30700	-2
1.31067	-2
1.31433	-2
1.31800	-2
1.32167	-2
1.32533	-2
1.32900	-2
1.33267	-2
1.33633	-2
1.34000	-2
1.34367	-2
1.34733	-2
1.35100	-2
1.35467	-2
1.35833	-2
1.36200	-2
1.36567	-2
1.36933	-2
1.37300	-1
1.37667	-1
1.38033	-1
1.38400	-1
1.38767	-0
1.39133	-0
1.39500	-0
1.39867	-0
1.40233	0
1.40600	0
1.40967	0
1.41333	-0
1.41700	-0
1.42067	-0
1.42433	-1
1.42800	-1
1.43167	-1
1.43533	-1
1.43900	-1
1.44267	-1
1.44633	-1
1.45000	-1
1.45367	-0
1.45733	-0
1.46100	-0
1.46467	-0
1.46833	-0
1.47200	-0
1.47567	-0
1.47933	-0
1.48300	-0
1.48667	-0
1.49033	-1
1.49400	-1
1.49767	-1
1.50133	-2
1.50500	-2
1.50867	-2
1.51233	-2
1.51600	-1
1.51967	-1
1.52333	-1
1.52700	-1
1.53067	-0
1.53433	-0
1.53800	-0
1.54167	-1
1.54533	-1
1.54900	-1
1.55267	-1
1.55633	-1
1.56000	-1
1.56367	-1
1.56733	-1
1.57100	-1
1.57467	-1
1.57833	-1
1.58200	-1
1.58567	-1
1.58933	-2
1.59300	-2
1.59667	-3
1.60033	-4
1.60400	-5
1.60767	-6
1.61133	-8
1.61500	-10
1.61867	-12
1.62233	-14
1.62600	-16
1.62967	-19
1.63333	-22
1.63700	-25
1.64067	-28
1.64433	-32
1.64800	-35
1.65167	-38
1.65533	-42
1.65900	-45
1.66267	-49
1.66633	-52
1.67000	-57
1.67367	-61
1.67733	-66
1.68100	-71
1.68467	-75
1.68833	-79
1.69200	-82
1.69567	-85
1.69933	-88
1.70300	-90
1.70667	-91
1.71033	-92
1.71400	-93
1.71767	-93
1.72133	-93
1.72500	-93
1.72867	-93
1.73233	-93
1.73600	-93
1.73967	-93
1.74333	-93
1.74700	-92
1.75067	-92
1.75433	-93
1.75800	-93
1.76167	-94
1.76533	-95
1.76900	-96
1.77267	-97
1.77633	-98
1.78000	-98
1.78367	-98
1.78733	-99
1.79100	-99
1.79467	-99
1.79833	-100
1.80200	-100
1.80567	-101
1.80933	-101
1.81300	-101
1.81667	-101
1.82033	-101
1.82400	-100
1.82767	-99
1.83133	-98
1.83500	-97
1.83867	-96
1.84233	-95
1.84600	-94
1.84967	-94
1.85333	-94
1.85700	-94
1.86067	-95
1.86433	-96
1.86800	-96
1.87167	-97
1.87533	-97
1.87900	-98
1.88267	-97
1.88633	-97
1.89000	-97
1.89367	-96
1.89733	-96
1.90100	-96
1.90467	-97
1.90833	-97
1.91200	-97
1.91567	-97
1.91933	-97
1.92300	-97
1.92667	-97
1.93033	-96
1.93400	-96
1.93767	-96
1.94133	-96
1.94500	-96
1.94867	-96
1.95233	-95
1.95600	-95
1.95967	-95
1.96333	-95
1.96700	-95
1.97067	-95
1.97433	-95
1.97800	-94
1.98167	-94
1.98533	-93
1.98900	-93
1.99267	-92
1.99633	-92
2.00000	-92
2.00367	-92
2.00733	-91
2.01100	-91
2.01467	-91
2.01833	-91
2.02200	-91
2.02567	-90
2.02933	-90
2.03300	-90
2.03667	-89
2.04033	-89
2.04400	-88
2.04767	-88
2.05133	-87
2.05500	-86
2.05867	-86
2.06233	-85
2.06600	-85
2.06967	-85
2.07333	-85
2.07700	-85
2.08067	-85
2.08433	-85
2.08800	-84
2.09167	-84
2.09533	-83
2.09900	-83
2.10267	-82
2.10633	-82
2.11000	-82
2.11367	-82
2.11733	-82
2.12100	-82
2.12467	-81
2.12833	-81
2.13200	-80
2.13567	-80
2.13933	-80
2.14300	-79
2.14667	-78
2.15033	-78
2.15400	-78
2.15767	-78
2.16133	-78
2.16500	-78
2.16867	-78
2.17233	-78
2.17600	-78
2.17967	-78
2.18333	-78
2.18700	-78
2.19067	-77
2.19433	-77
2.19800	-76
2.20167	-76
2.20533	-75
2.20900	-75
2.21267	-75
2.21633	-74
2.22000	-74
2.22367	-74
2.22733	-73
2.23100	-73
2.23467	-72
2.23833	-72
2.24200	-71
2.24567	-71
2.24933	-71
2.25300	-70
2.25667	-70
2.26033	-70
2.26400	-71
2.26767	-71
2.27133	-72
2.27500	-72
2.27867	-72
2.28233	-71
2.28600	-71
2.28967	-71
2.29333	-70
2.29700	-70
2.30067	-69
2.30433	-69
2.30800	-68
2.31167	-67
2.31533	-67
2.31900	-67
2.32267	-68
2.32633	-68
2.33000	-68
2.33367	-68
2.33733	-67
2.34100	-67
2.34467	-66
2.34833	-66
2.35200	-65
2.35567	-64
2.35933	-63
2.36300	-61
2.36667	-59
2.37033	-57
2.37400	-54
2.37767	-50
2.38133	-47
2.38500	-43
2.38867	-39
2.39233	-35
2.39600	-31
2.39967	-27
2.40333	-23
2.40700	-19
2.41067	-16
2.41433	-13
2.41800	-10
2.42167	-8
2.42533	-6
2.42900	-5
2.43267	-3
2.43633	-2
2.44000	-1
2.44367	1
2.44733	3
2.45100	4
2.45467	6
2.45833	8
2.46200	9
2.46567	10
2.46933	10
2.47300	11
2.47667	12
2.48033	13
2.48400	14
2.48767	14
2.49133	15
2.49500	15
2.49867	16
2.50233	16
2.50600	17
2.50967	17
2.51333	18
2.51700	19
2.52067	19
2.52433	20
2.52800	20
2.53167	21
2.53533	21
2.53900	21
2.54267	20
2.54633	20
2.55000	19
2.55367	17
2.55733	16
2.56100	15
2.56467	13
2.56833	12
2.57200	11
2.57567	11
2.57933	11
2.58300	11
2.58667	12
2.59033	12
2.59400	13
2.59767	14
2.60133	15
2.60500	16
2.60867	17
2.61233	18
2.61600	19
2.61967	20
2.62333	20
2.62700	21
2.63067	21
2.63433	22
2.63800	22
2.64167	22
2.64533	22
2.64900	23
2.65267	23
2.65633	23
2.66000	23
2.66367	23
2.66733	24
2.67100	24
2.67467	24
2.67833	24
2.68200	24
2.68567	24
2.68933	25
2.69300	24
2.69667	24
2.70033	24
2.70400	24
2.70767	25
2.71133	25
2.71500	25
2.71867	25
2.72233	25
2.72600	25
2.72967	25
2.73333	26
2.73700	26
2.74067	26
2.74433	27
2.74800	27
2.75167	28
2.75533	28
2.75900	28
2.76267	29
2.76633	29
2.77000	29
2.77367	29
2.77733	30
2.78100	30
2.78467	30
2.78833	30
2.79200	30
2.79567	30
2.79933	30
2.80300	30
2.80667	30
2.81033	30
2.81400	30
2.81767	30
2.82133	30
2.82500	30
2.82867	30
2.83233	30
2.83600	30
2.83967	29
2.84333	29
2.84700	29
2.85067	29
2.85433	28
2.85800	27
2.86167	26
2.86533	23
2.86900	18
2.87267	11
2.87633	1
2.88000	-11
2.88367	-27
2.88733	-45
2.89100	-65
2.89467	-87
2.89833	-110
2.90200	-133
2.90567	-156
2.90933	-176
2.91300	-194
2.91667	-207
2.92033	-215
2.92400	-217
2.92767	-211
2.93133	-195
2.93500	-166
2.93867	-122
2.94233	-63
2.94600	9
2.94967	79
2.95333	133
2.95700	166
2.96067	181
2.96433	181
2.96800	174
2.97167	162
2.97533	149
2.97900	136
2.98267	123
2.98633	112
2.99000	103
2.99367	94
2.99733	86
3.00100	80
3.00467	74
3.00833	69
3.01200	65
3.01567	61
3.01933	57
3.02300	54
3.02667	51
3.03033	49
3.03400	46
3.03767	44
3.04133	43
3.04500	41
3.04867	40
3.05233	39
3.05600	38
3.05967	37
3.06333	36
3.06700	35
3.07067	35
3.07433	34
3.07800	34
3.08167	33
3.08533	33
3.08900	32
3.09267	32
3.09633	31
3.10000	31
3.10367	31
3.10733	30
3.11100	30
3.11467	30
3.11833	30
3.12200	30
3.12567	29
3.12933	29
3.13300	29
3.13667	29
3.14033	29
3.14400	29
3.14767	29
3.15133	30
3.15500	30
3.15867	30
3.16233	30
3.16600	30
3.16967	30
3.17333	30
3.17700	30
3.18067	30
3.18433	30
3.18800	30
3.19167	30
3.19533	30
3.19900	30
3.20267	30
3.20633	30
3.21000	30
3.21367	30
3.21733	30
3.22100	30
3.22467	30
3.22833	29
3.23200	29
3.23567	29
3.23933	29
3.24300	29
3.24667	29
3.25033	29
3.25400	29
3.25767	29
3.26133	29
3.26500	29
3.26867	29
3.27233	29
3.27600	29
3.27967	30
3.28333	30
3.28700	30
3.29067	30
3.29433	30
3.29800	30
3.30167	31
3.30533	31
3.30900	31
3.31267	32
3.31633	32
3.32000	32
3.32367	32
3.32733	32
3.33100	33
3.33467	33
3.33833	33
3.34200	33
3.34567	33
3.34933	33
3.35300	33
3.35667	33
3.36033	33
3.36400	33
3.36767	33
3.37133	33
3.37500	33
3.37867	33
3.38233	33
3.38600	33
3.38967	33
3.39333	33
3.39700	33
3.40067	33
3.40433	33
3.40800	33
3.41167	32
3.41533	32
3.41900	32
3.42267	32
3.42633	32
3.43000	32
3.43367	32
3.43733	32
3.44100	32
3.44467	32
3.44833	32
3.45200	32
3.45567	32
3.45933	32
3.46300	32
3.46667	32
3.47033	32
3.47400	32
3.47767	32
3.48133	32
3.48500	32
3.48867	32
3.49233	32
3.49600	31
3.49967	31
3.50333	31
3.50700	31
3.51067	31
3.51433	31
3.51800	31
3.52167	31
3.52533	31
3.52900	31
3.53267	31
3.53633	31
3.54000	31
3.54367	31
3.54733	31
3.55100	31
3.55467	31
3.55833	30
3.56200	30
3.56567	30
3.56933	30
3.57300	30
3.57667	30
3.58033	30
3.58400	30
3.58767	30
3.59133	30
3.59500	30
3.59867	30
3.60233	30
3.60600	30
3.60967	30
3.61333	30
3.61700	30
3.62067	30
3.62433	30
3.62800	30
3.63167	30
3.63533	30
3.63900	30
3.64267	31
3.64633	31
3.65000	31
3.65367	31
3.65733	30
3.66100	30
3.66467	30
3.66833	30
3.67200	30
3.67567	30
3.67933	30
3.68300	31
3.68667	31
3.69033	31
3.69400	31
3.69767	30
3.70133	30
3.70500	30
3.70867	30
3.71233	30
3.71600	30
3.71967	30
3.72333	30
3.72700	30
3.73067	29
3.73433	29
3.73800	29
3.74167	30
3.74533	30
3.74900	30
3.75267	30
3.75633	30
3.76000	30
3.76367	30
3.76733	31
3.77100	31
3.77467	31
3.77833	31
3.78200	31
3.78567	30
3.78933	30
3.79300	30
3.79667	30
3.80033	31
3.80400	31
3.80767	31
3.81133	31
3.81500	31
3.81867	31
3.82233	31
3.82600	31
3.82967	31
3.83333	31
3.83700	31
3.84067	30
3.84433	30
3.84800	30
3.85167	30
3.85533	30
3.85900	30
3.86267	30
3.86633	31
3.87000	31
3.87367	31
3.87733	31
3.88100	32
3.88467	32
3.88833	32
3.89200	32
3.89567	32
3.89933	32
3.90300	32
3.90667	32
3.91033	32
3.91400	32
3.91767	32
3.92133	31
3.92500	31
3.92867	31
3.93233	31
3.93600	31
3.93967	31
3.94333	31
3.94700	31
3.95067	31
3.95433	32
3.95800	32
3.96167	32
3.96533	32
3.96900	31
3.97267	31
3.97633	31
3.98000	31
3.98367	31
3.98733	31
3.99100	31
3.99467	31
3.99833	31

[Chromatogram (Ch3)]
Interval(msec)	220
# of Points	1091
Start Time(min)	0.002
End Time(min)	3.998
R.Time (min)	Intensity
0.00167	-1
0.00533	-2
0.00900	-3
0.01267	-1
0.01633	1
0.02000	1
0.02367	3
0.02733	5
0.03100	5
0.03467	3
0.03833	2
0.04200	3
0.04567	4
0.04933	6
0.05300	6
0.05667	6
0.06033	7
0.06400	8
0.06767	9
0.07133	10
0.07500	10
0.07867	9
0.08233	8
0.08600	7
0.08967	10
0.09333	11
0.09700	10
0.10067	7
0.10433	4
0.10800	3
0.11167	3
0.11533	2
0.11900	0
0.12267	1
0.12633	2
0.13000	2
0.13367	1
0.13733	-1
0.14100	-0
0.14467	2
0.14833	1
0.15200	-1
0.15567	-3
0.15933	-4
0.16300	-6
0.16667	-5
0.17033	0
0.17400	5
0.17767	8
0.18133	9
0.18500	10
0.18867	8
0.19233	7
0.19600	7
0.19967	5
0.20333	3
0.20700	1
0.21067	-0
0.21433	-0
0.21800	-0
0.22167	0
0.22533	1
0.22900	3
0.23267	4
0.23633	5
0.24000	6
0.24367	6
0.24733	5
0.25100	2
0.25467	2
0.25833	4
0.26200	3
0.26567	2
0.26933	2
0.27300	0
0.27667	-1
0.28033	2
0.28400	2
0.28767	1
0.29133	1
0.29500	4
0.29867	5
0.30233	6
0.30600	6
0.30967	7
0.31333	6
0.31700	5
0.32067	2
0.32433	1
0.32800	2
0.33167	4
0.33533	5
0.33900	8
0.34267	10
0.34633	10
0.35000	10
0.35367	9
0.35733	8
0.36100	6
0.36467	3
0.36833	1
0.37200	-1
0.37567	1
0.37933	3
0.38300	4
0.38667	4
0.39033	4
0.39400	6
0.39767	6
0.40133	7
0.40500	7
0.40867	3
0.41233	1
0.41600	2
0.41967	3
0.42333	2
0.42700	3
0.43067	3
0.43433	2
0.43800	-0
0.44167	0
0.44533	0
0.44900	2
0.45267	3
0.45633	3
0.46000	2
0.46367	0
0.46733	-0
0.47100	0
0.47467	2
0.47833	5
0.48200	5
0.48567	5
0.48933	4
0.49300	3
0.49667	3
0.50033	2
0.50400	3
0.50767	3
0.51133	2
0.51500	3
0.51867	7
0.52233	9
0.52600	9
0.52967	9
0.53333	7
0.53700	3
0.54067	-2
0.54433	-4
0.54800	-3
0.55167	-1
0.55533	2
0.55900	5
0.56267	5
0.56633	4
0.57000	4
0.57367	5
0.57733	5
0.58100	3
0.58467	1
0.58833	-1
0.59200	0
0.59567	2
0.59933	3
0.60300	3
0.60667	4
0.61033	3
0.61400	2
0.61767	1
0.62133	1
0.62500	0
0.62867	2
0.63233	3
0.63600	5
0.63967	6
0.64333	6
0.64700	7
0.65067	6
0.65433	2
0.65800	1
0.66167	2
0.66533	4
0.66900	5
0.67267	4
0.67633	3
0.68000	5
0.68367	4
0.68733	5
0.69100	7
0.69467	7
0.69833	9
0.70200	8
0.70567	8
0.70933	9
0.71300	10
0.71667	10
0.72033	10
0.72400	9
0.72767	9
0.73133	8
0.73500	6
0.73867	3
0.74233	2
0.74600	2
0.74967	3
0.75333	1
0.75700	1
0.76067	4
0.76433	9
0.76800	11
0.77167	13
0.77533	12
0.77900	10
0.78267	8
0.78633	8
0.79000	6
0.79367	7
0.79733	7
0.80100	10
0.80467	10
0.80833	9
0.81200	7
0.81567	6
0.81933	7
0.82300	7
0.82667	6
0.83033	6
0.83400	6
0.83767	5
0.84133	4
0.84500	4
0.84867	4
0.85233	5
0.85600	6
0.85967	7
0.86333	6
0.86700	4
0.87067	6
0.87433	8
0.87800	9
0.88167	9
0.88533	9
0.88900	10
0.89267	9
0.89633	6
0.90000	3
0.90367	2
0.90733	4
0.91100	4
0.91467	3
0.91833	4
0.92200	5
0.92567	5
0.92933	7
0.93300	9
0.93667	7
0.94033	5
0.94400	4
0.94767	4
0.95133	6
0.95500	9
0.95867	11
0.96233	11
0.96600	10
0.96967	11
0.97333	13
0.97700	14
0.98067	13
0.98433	13
0.98800	12
0.99167	10
0.99533	9
0.99900	8
1.00267	9
1.00633	12
1.01000	11
1.01367	13
1.01733	13
1.02100	12
1.02467	10
1.02833	11
1.03200	11
1.03567	10
1.03933	9
1.04300	8
1.04667	7
1.05033	5
1.05400	5
1.05767	6
1.06133	5
1.06500	4
1.06867	5
1.07233	7
1.07600	9
1.07967	12
1.08333	13
1.08700	11
1.09067	11
1.09433	10
1.09800	8
1.10167	5
1.10533	6
1.10900	8
1.11267	9
1.11633	8
1.12000	8
1.12367	9
1.12733	10
1.13100	13
1.13467	13
1.13833	11
1.14200	10
1.14567	11
1.14933	11
1.15300	11
1.15667	10
1.16033	12
1.16400	13
1.16767	13
1.17133	12
1.17500	10
1.17867	10
1.18233	10
1.18600	12
1.18967	12
1.19333	12
1.19700	11
1.20067	9
1.20433	8
1.20800	8
1.21167	7
1.21533	6
1.21900	7
1.22267	8
1.22633	9
1.23000	9
1.23367	10
1.23733	12
1.24100	11
1.24467	12
1.24833	11
1.25200	10
1.25567	11
1.25933	10
1.26300	9
1.26667	9
1.27033	11
1.27400	13
1.27767	13
1.28133	13
1.28500	13
1.28867	11
1.29233	11
1.29600	13
1.29967	13
1.30333	13
1.30700	13
1.31067	13
1.31433	11
1.31800	8
1.32167	7
1.32533	9
1.32900	12
1.33267	15
1.33633	15
1.34000	14
1.34367	14
1.34733	15
1.35100	15
1.35467	15
1.35833	13
1.36200	12
1.36567	11
1.36933	13
1.37300	14
1.37667	13
1.38033	11
1.38400	11
1.38767	10
1.39133	8
1.39500	8
1.39867	9
1.40233	10
1.40600	11
1.40967	11
1.41333	10
1.41700	10
1.42067	10
1.42433	11
1.42800	11
1.43167	11
1.43533	11
1.43900	9
1.44267	6
1.44633	5
1.45000	5
1.45367	7
1.45733	9
1.46100	8
1.46467	9
1.46833	8
1.47200	10
1.47567	12
1.47933	12
1.48300	12
1.48667	10
1.49033	10
1.49400	11
1.49767	12
1.50133	10
1.50500	10
1.50867	12
1.51233	11
1.51600	11
1.51967	12
1.52333	12
1.52700	13
1.53067	15
1.53433	14
1.53800	12
1.54167	11
1.54533	10
1.54900	12
1.55267	11
1.55633	12
1.56000	14
1.56367	15
1.56733	13
1.57100	11
1.57467	9
1.57833	8
1.58200	9
1.58567	8
1.58933	8
1.59300	9
1.59667	9
1.60033	11
1.60400	10
1.60767	10
1.61133	11
1.61500	12
1.61867	14
1.62233	16
1.62600	19
1.62967	18
1.63333	16
1.63700	16
1.64067	18
1.64433	17
1.64800	17
1.65167	16
1.65533	14
1.65900	9
1.66267	9
1.66633	11
1.67000	11
1.67367	12
1.67733	12
1.68100	11
1.68467	11
1.68833	11
1.69200	11
1.69567	11
1.69933	13
1.70300	15
1.70667	17
1.71033	20
1.71400	22
1.71767	23
1.72133	23
1.72500	22
1.72867	22
1.73233	22
1.73600	20
1.73967	19
1.74333	20
1.74700	22
1.75067	24
1.75433	24
1.75800	23
1.76167	22
1.76533	22
1.76900	20
1.77267	18
1.77633	17
1.78000	17
1.78367	18
1.78733	21
1.79100	23
1.79467	23
1.79833	21
1.80200	22
1.80567	24
1.80933	22
1.81300	22
1.81667	22
1.82033	21
1.82400	21
1.82767	22
1.83133	23
1.83500	24
1.83867	24
1.84233	23
1.84600	23
1.84967	21
1.85333	21
1.85700	21
1.86067	22
1.86433	23
1.86800	22
1.87167	23
1.87533	26
1.87900	27
1.88267	29
1.88633	29
1.89000	30
1.89367	32
1.89733	32
1.90100	30
1.90467	30
1.90833	31
1.91200	32
1.91567	35
1.91933	37
1.92300	37
1.92667	36
1.93033	35
1.93400	34
1.93767	33
1.94133	34
1.94500	37
1.94867	40
1.95233	43
1.95600	42
1.95967	41
1.96333	38
1.96700	38
1.97067	40
1.97433	42
1.97800	42
1.98167	42
1.98533	40
1.98900	41
1.99267	43
1.99633	45
2.00000	45
2.00367	46
2.00733	43
2.01100	43
2.01467	42
2.01833	42
2.02200	43
2.02567	43
2.02933	44
2.03300	46
2.03667	49
2.04033	52
2.04400	54
2.04767	55
2.05133	52
2.05500	51
2.05867	52
2.06233	52
2.06600	52
2.06967	52
2.07333	54
2.07700	55
2.08067	56
2.08433	58
2.08800	58
2.09167	59
2.09533	58
2.09900	59
2.10267	60
2.10633	62
2.11000	64
2.11367	66
2.11733	66
2.12100	65
2.12467	63
2.12833	63
2.13200	64
2.13567	64
2.13933	65
2.14300	67
2.14667	70
2.15033	71
2.15400	73
2.15767	72
2.16133	70
2.16500	70
2.16867	69
2.17233	67
2.17600	68
2.17967	71
2.18333	76
2.18700	79
2.19067	79
2.19433	79
2.19800	78
2.20167	79
2.20533	81
2.20900	81
2.21267	79
2.21633	78
2.22000	78
2.22367	78
2.22733	78
2.23100	80
2.23467	81
2.23833	84
2.24200	86
2.24567	86
2.24933	84
2.25300	83
2.25667	82
2.26033	80
2.26400	80
2.26767	83
2.27133	85
2.27500	84
2.27867	84
2.28233	88
2.28600	90
2.28967	92
2.29333	92
2.29700	90
2.30067	91
2.30433	91
2.30800	91
2.31167	90
2.31533	87
2.31900	83
2.32267	82
2.32633	86
2.33000	89
2.33367	91
2.33733	90
2.34100	90
2.34467	91
2.34833	91
2.35200	93
2.35567	95
2.35933	95
2.36300	93
2.36667	92
2.37033	94
2.37400	96
2.37767	97
2.38133	98
2.38500	96
2.38867	89
2.39233	88
2.39600	94
2.39967	97
2.40333	103
2.40700	109
2.41067	114
2.41433	118
2.41800	119
2.42167	120
2.42533	119
2.42900	119
2.43267	119
2.43633	118
2.44000	123
2.44367	169
2.44733	247
2.45100	315
2.45467	363
2.45833	383
2.46200	380
2.46567	369
2.46933	360
2.47300	354
2.47667	344
2.48033	325
2.48400	300
2.48767	276
2.49133	256
2.49500	241
2.49867	231
2.50233	227
2.50600	228
2.50967	233
2.51333	241
2.51700	245
2.52067	245
2.52433	241
2.52800	233
2.53167	223
2.53533	211
2.53900	197
2.54267	185
2.54633	175
2.55000	164
2.55367	156
2.55733	151
2.56100	149
2.56467	148
2.56833	148
2.57200	151
2.57567	152
2.57933	156
2.58300	161
2.58667	168
2.59033	173
2.59400	179
2.59767	187
2.60133	193
2.60500	197
2.60867	203
2.61233	210
2.61600	216
2.61967	220
2.62333	217
2.62700	213
2.63067	207
2.63433	199
2.63800	189
2.64167	181
2.64533	171
2.64900	159
2.65267	150
2.65633	141
2.66000	133
2.66367	125
2.66733	120
2.67100	117
2.67467	115
2.67833	112
2.68200	109
2.68567	107
2.68933	104
2.69300	102
2.69667	102
2.70033	103
2.70400	102
2.70767	101
2.71133	103
2.71500	104
2.71867	105
2.72233	105
2.72600	106
2.72967	107
2.73333	110
2.73700	113
2.74067	115
2.74433	120
2.74800	121
2.75167	122
2.75533	123
2.75900	126
2.76267	131
2.76633	135
2.77000	137
2.77367	137
2.77733	138
2.78100	137
2.78467	139
2.78833	142
2.79200	145
2.79567	148
2.79933	151
2.80300	152
2.80667	153
2.81033	156
2.81400	161
2.81767	163
2.82133	166
2.82500	170
2.82867	175
2.83233	183
2.83600	207
2.83967	262
2.84333	384
2.84700	625
2.85067	1034
2.85433	1658
2.85800	2527
2.86167	3641
2.86533	4955
2.86900	6387
2.87267	7808
2.87633	9077
2.88000	10172
2.88367	11068
2.88733	11702
2.89100	12023
2.89467	12035
2.89833	11778
2.90200	11311
2.90567	10693
2.90933	9985
2.91300	9231
2.91667	8472
2.92033	7727
2.92400	7017
2.92767	6355
2.93133	5748
2.93500	5195
2.93867	4697
2.94233	4249
2.94600	3848
2.94967	3493
2.95333	3178
2.95700	2899
2.96067	2654
2.96433	2438
2.96800	2249
2.97167	2085
2.97533	1943
2.97900	1816
2.98267	1706
2.98633	1609
2.99000	1526
2.99367	1455
2.99733	1393
3.00100	1336
3.00467	1288
3.00833	1247
3.01200	1210
3.01567	1176
3.01933	1144
3.02300	1117
3.02667	1095
3.03033	1075
3.03400	1057
3.03767	1040
3.04133	1025
3.04500	1010
3.04867	999
3.05233	990
3.05600	980
3.05967	972
3.06333	966
3.06700	957
3.07067	948
3.07433	941
3.07800	936
3.08167	933
3.08533	931
3.08900	930
3.09267	927
3.09633	926
3.10000	927
3.10367	926
3.10733	924
3.11100	922
3.11467	920
3.11833	918
3.12200	914
3.12567	911
3.12933	912
3.13300	912
3.13667	910
3.14033	907
3.14400	905
3.14767	902
3.15133	899
3.15500	897
3.15867	895
3.16233	890
3.16600	887
3.16967	884
3.17333	883
3.17700	880
3.18067	874
3.18433	869
3.18800	866
3.19167	862
3.19533	859
3.19900	858
3.20267	855
3.20633	850
3.21000	846
3.21367	842
3.21733	838
3.22100	834
3.22467	832
3.22833	830
3.23200	826
3.23567	822
3.23933	820
3.24300	819
3.24667	819
3.25033	816
3.25400	812
3.25767	808
3.26133	805
3.26500	804
3.26867	807
3.27233	808
3.27600	808
3.27967	807
3.28333	808
3.28700	810
3.29067	810
3.29433	811
3.29800	818
3.30167	825
3.30533	830
3.30900	836
3.31267	843
3.31633	851
3.32000	855
3.32367	861
3.32733	871
3.33100	884
3.33467	896
3.33833	906
3.34200	914
3.34567	925
3.34933	937
3.35300	952
3.35667	964
3.36033	975
3.36400	987
3.36767	999
3.37133	1010
3.37500	1021
3.37867	1031
3.38233	1037
3.38600	1041
3.38967	1045
3.39333	1050
3.39700	1052
3.40067	1052
3.40433	1050
3.40800	1049
3.41167	1043
3.41533	1037
3.41900	1031
3.42267	1020
3.42633	1009
3.43000	1000
3.43367	990
3.43733	977
3.44100	965
3.44467	952
3.44833	939
3.45200	922
3.45567	908
3.45933	893
3.46300	881
3.46667	866
3.47033	852
3.47400	839
3.47767	828
3.48133	820
3.48500	811
3.48867	801
3.49233	791
3.49600	781
3.49967	771
3.50333	762
3.50700	755
3.51067	748
3.51433	742
3.51800	737
3.52167	730
3.52533	721
3.52900	716
3.53267	712
3.53633	708
3.54000	705
3.54367	702
3.54733	698
3.55100	694
3.55467	690
3.55833	685
3.56200	684
3.56567	684
3.56933	682
3.57300	681
3.57667	678
3.58033	678
3.58400	675
3.58767	672
3.59133	671
3.59500	670
3.59867	667
3.60233	662
3.60600	657
3.60967	655
3.61333	654
3.61700	653
3.62067	653
3.62433	649
3.62800	644
3.63167	641
3.63533	639
3.63900	637
3.64267	635
3.64633	631
3.65000	626
3.65367	622
3.65733	620
3.66100	621
3.66467	619
3.66833	618
3.67200	617
3.67567	617
3.67933	617
3.68300	616
3.68667	614
3.69033	612
3.69400	609
3.69767	606
3.70133	606
3.70500	605
3.70867	602
3.71233	601
3.71600	599
3.71967	599
3.72333	598
3.72700	596
3.73067	596
3.73433	596
3.73800	599
3.74167	599
3.74533	597
3.74900	595
3.75267	592
3.75633	591
3.76000	591
3.76367	591
3.76733	592
3.77100	590
3.77467	587
3.77833	584
3.78200	583
3.78567	583
3.78933	581
3.79300	579
3.79667	577
3.80033	577
3.80400	578
3.80767	578
3.81133	577
3.81500	575
3.81867	573
3.82233	569
3.82600	565
3.82967	564
3.83333	563
3.83700	559
3.84067	556
3.84433	554
3.84800	553
3.85167	551
3.85533	549
3.85900	548
3.86267	547
3.86633	547
3.87000	547
3.87367	546
3.87733	545
3.88100	543
3.88467	542
3.88833	539
3.89200	538
3.89567	537
3.89933	535
3.90300	535
3.90667	536
3.91033	536
3.91400	531
3.91767	530
3.92133	530
3.92500	531
3.92867	530
3.93233	528
3.93600	527
3.93967	527
3.94333	527
3.94700	526
3.95067	525
3.95433	524
3.95800	521
3.96167	521
3.96533	519
3.96900	517
3.97267	516
3.97633	513
3.98000	512
3.98367	513
3.98733	513
3.99100	514
3.99467	513
3.99833	507

[Status Trace (Column Oven Temperature)]
Interval(msec)	1000
# of Points	239
Start Time(min)	0.014
End Time(min)	3.981
Intensity Units	
Intensity Multiplier	1
R.Time (min)	Intensity
0.01383	35.05
0.03050	35.04
0.04717	35.04
0.06383	35.03
0.08050	35.03
0.09717	35.03
0.11383	35.03
0.13050	35.03
0.14717	35.02
0.16383	35.01
0.18050	35.01
0.19717	35.01
0.21383	35.02
0.23050	35.02
0.24717	35.02
0.26383	35.02
0.28050	35.02
0.29717	35.02
0.31383	35.01
0.33050	35.02
0.34717	35.02
0.36383	35.02
0.38050	35.01
0.39717	35.01
0.41383	35.01
0.43050	35.01
0.44717	35.01
0.46383	35.01
0.48050	35.01
0.49717	35.00
0.51383	35.00
0.53050	35.00
0.54717	35.00
0.56383	35.00
0.58050	35.00
0.59717	35.00
0.61383	35.00
0.63050	35.00
0.64717	35.00
0.66383	35.00
0.68050	35.00
0.69717	35.00
0.71383	34.99
0.73050	35.00
0.74717	35.00
0.76383	35.00
0.78050	35.00
0.79717	35.00
0.81383	35.01
0.83050	35.01
0.84717	35.01
0.86383	35.01
0.88050	35.00
0.89717	35.00
0.91383	35.00
0.93050	35.00
0.94717	34.99
0.96383	34.99
0.98050	34.99
0.99717	34.99
1.01383	34.99
1.03050	34.99
1.04717	34.99
1.06383	34.99
1.08050	34.99
1.09717	34.99
1.11383	34.99
1.13050	34.99
1.14717	34.99
1.16383	34.99
1.18050	35.00
1.19717	35.00
1.21383	34.99
1.23050	34.98
1.24717	34.98
1.26383	34.98
1.28050	34.99
1.29717	35.00
1.31383	35.00
1.33050	35.01
1.34717	35.02
1.36383	35.01
1.38050	35.02
1.39717	35.01
1.41383	35.01
1.43050	35.00
1.44717	35.00
1.46383	34.99
1.48050	34.99
1.49717	34.99
1.51383	34.98
1.53050	34.98
1.54717	34.99
1.56383	35.00
1.58050	35.00
1.59717	35.03
1.61383	35.11
1.63050	35.25
1.64717	35.45
1.66383	35.73
1.68050	36.10
1.69717	36.47
1.71383	36.81
1.73050	37.13
1.74717	37.44
1.76383	37.79
1.78050	38.13
1.79717	38.47
1.81383	38.82
1.83050	39.12
1.84717	39.42
1.86383	39.77
1.88050	40.08
1.89717	40.41
1.91383	40.74
1.93050	41.06
1.94717	41.38
1.96383	41.73
1.98050	42.05
1.99717	42.37
2.01383	42.71
2.03050	43.03
2.04717	43.36
2.06383	43.68
2.08050	44.02
2.09717	44.33
2.11383	44.66
2.13050	44.99
2.14717	45.30
2.16383	45.64
2.18050	45.97
2.19717	46.29
2.21383	46.63
2.23050	46.96
2.24717	47.27
2.26383	47.62
2.28050	47.95
2.29717	48.27
2.31383	48.60
2.33050	48.93
2.34717	49.27
2.36383	49.52
2.38050	49.64
2.39717	49.67
2.41383	49.66
2.43050	49.68
2.44717	49.69
2.46383	49.71
2.48050	49.72
2.49717	49.74
2.51383	49.74
2.53050	49.75
2.54717	49.76
2.56383	49.79
2.58050	49.81
2.59717	49.82
2.61383	49.81
2.63050	49.82
2.64717	49.83
2.66383	49.83
2.68050	49.84
2.69717	49.85
2.71383	49.86
2.73050	49.86
2.74717	49.86
2.76383	49.86
2.78050	49.85
2.79717	49.86
2.81383	49.86
2.83050	49.86
2.84717	49.87
2.86383	49.88
2.88050	49.90
2.89717	49.92
2.91383	49.93
2.93050	49.95
2.94717	49.97
2.96383	49.98
2.98050	49.99
2.99717	49.99
3.01383	50.00
3.03050	50.01
3.04717	50.02
3.06383	50.03
3.08050	50.03
3.09717	50.04
3.11383	50.06
3.13050	50.06
3.14717	50.07
3.16383	50.06
3.18050	50.07
3.19717	50.08
3.21383	50.08
3.23050	50.09
3.24717	50.10
3.26383	50.10
3.28050	50.11
3.29717	50.11
3.31383	50.11
3.33050	50.09
3.34717	50.07
3.36383	50.06
3.38050	50.04
3.39717	50.04
3.41383	50.03
3.43050	50.02
3.44717	50.02
3.46383	50.01
3.48050	50.00
3.49717	50.01
3.51383	50.01
3.53050	50.01
3.54717	50.01
3.56383	50.02
3.58050	50.03
3.59717	50.03
3.61383	50.04
3.63050	50.04
3.64717	50.05
3.66383	50.04
3.68050	50.03
3.69717	50.05
3.71383	50.05
3.73050	50.06
3.74717	50.06
3.76383	50.06
3.78050	50.06
3.79717	50.06
3.81383	50.06
3.83050	50.06
3.84717	50.06
3.86383	50.06
3.88050	50.06
3.89717	50.06
3.91383	50.06
3.93050	50.06
3.94717	50.06
3.96383	50.06
3.98050	50.06

[Status Trace (Injection Unit Temperature)]
Interval(msec)	1000
# of Points	239
Start Time(min)	0.014
End Time(min)	3.981
Intensity Units	
Intensity Multiplier	1
R.Time (min)	Intensity
0.01383	99.96
0.03050	99.96
0.04717	99.96
0.06383	99.96
0.08050	99.96
0.09717	99.96
0.11383	99.96
0.13050	99.96
0.14717	99.97
0.16383	99.96
0.18050	99.96
0.19717	99.97
0.21383	99.97
0.23050	99.97
0.24717	99.97
0.26383	99.97
0.28050	99.97
0.29717	99.97
0.31383	99.97
0.33050	99.97
0.34717	99.97
0.36383	99.97
0.38050	99.97
0.39717	99.97
0.41383	99.97
0.43050	99.97
0.44717	99.97
0.46383	99.97
0.48050	99.97
0.49717	99.98
0.51383	99.97
0.53050	99.98
0.54717	99.98
0.56383	99.97
0.58050	99.97
0.59717	99.98
0.61383	99.97
0.63050	99.98
0.64717	99.98
0.66383	99.98
0.68050	99.98
0.69717	99.98
0.71383	99.98
0.73050	99.98
0.74717	99.98
0.76383	99.98
0.78050	99.98
0.79717	99.98
0.81383	99.98
0.83050	99.98
0.84717	99.98
0.86383	99.98
0.88050	99.98
0.89717	99.98
0.91383	99.98
0.93050	99.98
0.94717	99.98
0.96383	99.98
0.98050	99.98
0.99717	99.98
1.01383	99.98
1.03050	99.98
1.04717	99.98
1.06383	99.98
1.08050	99.98
1.09717	99.98
1.11383	99.98
1.13050	99.98
1.14717	99.98
1.16383	99.98
1.18050	99.98
1.19717	99.98
1.21383	99.98
1.23050	99.98
1.24717	99.98
1.26383	99.98
1.28050	99.98
1.29717	99.98
1.31383	99.98
1.33050	99.98
1.34717	99.98
1.36383	99.98
1.38050	99.98
1.39717	99.98
1.41383	99.98
1.43050	99.98
1.44717	99.98
1.46383	99.98
1.48050	99.98
1.49717	99.98
1.51383	99.98
1.53050	99.98
1.54717	99.98
1.56383	99.98
1.58050	99.98
1.59717	99.98
1.61383	99.98
1.63050	99.98
1.64717	99.98
1.66383	99.98
1.68050	99.98
1.69717	99.98
1.71383	99.98
1.73050	99.98
1.74717	99.98
1.76383	99.98
1.78050	99.98
1.79717	99.98
1.81383	99.98
1.83050	99.98
1.84717	99.98
1.86383	99.98
1.88050	99.98
1.89717	99.98
1.91383	99.98
1.93050	99.98
1.94717	99.98
1.96383	99.98
1.98050	99.97
1.99717	99.97
2.01383	99.97
2.03050	99.97
2.04717	99.97
2.06383	99.97
2.08050	99.97
2.09717	99.97
2.11383	99.96
2.13050	99.97
2.14717	99.97
2.16383	99.96
2.18050	99.96
2.19717	99.96
2.21383	99.96
2.23050	99.96
2.24717	99.96
2.26383	99.96
2.28050	99.96
2.29717	99.96
2.31383	99.96
2.33050	99.96
2.34717	99.96
2.36383	99.96
2.38050	99.96
2.39717	99.96
2.41383	99.96
2.43050	99.96
2.44717	99.96
2.46383	99.96
2.48050	99.96
2.49717	99.96
2.51383	99.96
2.53050	99.96
2.54717	99.96
2.56383	99.96
2.58050	99.96
2.59717	99.96
2.61383	99.96
2.63050	99.96
2.64717	99.97
2.66383	99.97
2.68050	99.97
2.69717	99.97
2.71383	99.97
2.73050	99.98
2.74717	99.97
2.76383	99.98
2.78050	99.98
2.79717	99.98
2.81383	99.99
2.83050	99.99
2.84717	99.99
2.86383	99.99
2.88050	99.99
2.89717	99.99
2.91383	99.99
2.93050	99.99
2.94717	99.99
2.96383	99.99
2.98050	100.00
2.99717	100.00
3.01383	100.00
3.03050	100.00
3.04717	100.00
3.06383	100.01
3.08050	100.00
3.09717	100.01
3.11383	100.01
3.13050	100.01
3.14717	100.01
3.16383	100.01
3.18050	100.01
3.19717	100.02
3.21383	100.02
3.23050	100.02
3.24717	100.02
3.26383	100.02
3.28050	100.02
3.29717	100.02
3.31383	100.02
3.33050	100.02
3.34717	100.02
3.36383	100.02
3.38050	100.02
3.39717	100.02
3.41383	100.02
3.43050	100.02
3.44717	100.02
3.46383	100.03
3.48050	100.03
3.49717	100.03
3.51383	100.02
3.53050	100.03
3.54717	100.03
3.56383	100.03
3.58050	100.03
3.59717	100.03
3.61383	100.03
3.63050	100.03
3.64717	100.03
3.66383	100.03
3.68050	100.03
3.69717	100.03
3.71383	100.04
3.73050	100.04
3.74717	100.04
3.76383	100.03
3.78050	100.04
3.79717	100.04
3.81383	100.04
3.83050	100.04
3.84717	100.04
3.86383	100.04
3.88050	100.04
3.89717	100.04
3.91383	100.05
3.93050	100.04
3.94717	100.04
3.96383	100.04
3.98050	100.04

[Status Trace (Carrier Gas Pressure)]
Interval(msec)	1000
# of Points	239
Start Time(min)	0.014
End Time(min)	3.981
Intensity Units	
Intensity Multiplier	1
R.Time (min)	Intensity
0.01383	57.67
0.03050	55.42
0.04717	57.81
0.06383	59.81
0.08050	58.75
0.09717	57.99
0.11383	58.00
0.13050	58.01
0.14717	58.01
0.16383	58.00
0.18050	58.00
0.19717	58.00
0.21383	58.00
0.23050	58.00
0.24717	58.00
0.26383	58.00
0.28050	58.00
0.29717	58.00
0.31383	58.00
0.33050	58.00
0.34717	58.00
0.36383	58.00
0.38050	58.00
0.39717	58.00
0.41383	58.00
0.43050	58.00
0.44717	58.00
0.46383	58.00
0.48050	58.00
0.49717	58.00
0.51383	58.00
0.53050	58.00
0.54717	58.00
0.56383	58.00
0.58050	58.00
0.59717	58.00
0.61383	58.00
0.63050	58.00
0.64717	58.00
0.66383	58.00
0.68050	58.00
0.69717	58.00
0.71383	58.00
0.73050	58.00
0.74717	58.00
0.76383	58.00
0.78050	58.00
0.79717	58.00
0.81383	58.00
0.83050	58.00
0.84717	58.00
0.86383	58.00
0.88050	58.00
0.89717	58.00
0.91383	58.00
0.93050	58.00
0.94717	58.00
0.96383	58.00
0.98050	58.00
0.99717	58.00
1.01383	58.00
1.03050	58.00
1.04717	58.00
1.06383	58.00
1.08050	58.00
1.09717	58.00
1.11383	58.00
1.13050	58.00
1.14717	58.00
1.16383	58.00
1.18050	58.00
1.19717	58.00
1.21383	58.00
1.23050	58.00
1.24717	58.00
1.26383	58.00
1.28050	58.00
1.29717	58.00
1.31383	58.00
1.33050	58.00
1.34717	58.00
1.36383	58.00
1.38050	58.00
1.39717	58.00
1.41383	58.00
1.43050	58.00
1.44717	58.00
1.46383	58.00
1.48050	58.00
1.49717	58.00
1.51383	58.00
1.53050	58.00
1.54717	58.00
1.56383	58.00
1.58050	58.00
1.59717	58.00
1.61383	58.00
1.63050	58.00
1.64717	58.00
1.66383	58.00
1.68050	58.01
1.69717	58.00
1.71383	58.00
1.73050	58.00
1.74717	58.00
1.76383	58.00
1.78050	58.00
1.79717	58.00
1.81383	58.00
1.83050	58.00
1.84717	58.00
1.86383	58.00
1.88050	58.00
1.89717	58.00
1.91383	58.00
1.93050	58.00
1.94717	58.00
1.96383	58.00
1.98050	58.00
1.99717	58.00
2.01383	58.00
2.03050	58.00
2.04717	58.00
2.06383	58.00
2.08050	58.00
2.09717	58.00
2.11383	58.00
2.13050	58.00
2.14717	58.00
2.16383	58.00
2.18050	58.00
2.19717	58.00
2.21383	58.00
2.23050	58.00
2.24717	58.00
2.26383	58.00
2.28050	58.00
2.29717	58.00
2.31383	58.00
2.33050	58.00
2.34717	58.00
2.36383	58.00
2.38050	57.99
2.39717	57.99
2.41383	58.00
2.43050	58.00
2.44717	58.00
2.46383	58.00
2.48050	58.00
2.49717	58.00
2.51383	57.99
2.53050	57.99
2.54717	58.00
2.56383	58.00
2.58050	58.00
2.59717	58.00
2.61383	58.00
2.63050	58.00
2.64717	58.00
2.66383	58.00
2.68050	58.00
2.69717	58.00
2.71383	58.00
2.73050	58.00
2.74717	58.00
2.76383	58.00
2.78050	58.00
2.79717	58.00
2.81383	58.00
2.83050	58.00
2.84717	58.00
2.86383	58.00
2.88050	58.00
2.89717	58.00
2.91383	58.00
2.93050	58.00
2.94717	58.00
2.96383	58.00
2.98050	58.00
2.99717	58.00
3.01383	58.00
3.03050	58.00
3.04717	58.00
3.06383	58.00
3.08050	58.00
3.09717	58.00
3.11383	58.00
3.13050	58.00
3.14717	58.00
3.16383	58.00
3.18050	58.00
3.19717	58.00
3.21383	58.00
3.23050	58.00
3.24717	58.00
3.26383	58.00
3.28050	58.00
3.29717	58.00
3.31383	58.00
3.33050	58.00
3.34717	58.00
3.36383	58.00
3.38050	58.00
3.39717	58.00
3.41383	58.00
3.43050	58.00
3.44717	58.00
3.46383	58.00
3.48050	58.00
3.49717	58.00
3.51383	58.00
3.53050	58.00
3.54717	58.00
3.56383	58.00
3.58050	58.00
3.59717	58.00
3.61383	58.00
3.63050	58.00
3.64717	58.00
3.66383	58.00
3.68050	58.00
3.69717	58.00
3.71383	58.00
3.73050	58.00
3.74717	58.00
3.76383	58.00
3.78050	58.00
3.79717	58.00
3.81383	58.00
3.83050	58.00
3.84717	58.00
3.86383	58.00
3.88050	58.00
3.89717	58.00
3.91383	58.00
3.93050	58.00
3.94717	58.00
3.96383	58.00
3.98050	58.00

[Status Trace (Carrier Gas Flow)]
Interval(msec)	1000
# of Points	239
Start Time(min)	0.014
End Time(min)	3.981
Intensity Units	
Intensity Multiplier	1
R.Time (min)	Intensity
0.01383	34.35
0.03050	34.54
0.04717	34.55
0.06383	34.53
0.08050	34.51
0.09717	34.52
0.11383	34.52
0.13050	34.51
0.14717	34.52
0.16383	34.52
0.18050	34.51
0.19717	34.51
0.21383	34.52
0.23050	34.53
0.24717	34.52
0.26383	34.52
0.28050	34.52
0.29717	34.52
0.31383	34.51
0.33050	34.52
0.34717	34.52
0.36383	34.52
0.38050	34.52
0.39717	34.52
0.41383	34.52
0.43050	34.52
0.44717	34.52
0.46383	34.52
0.48050	34.52
0.49717	34.52
0.51383	34.53
0.53050	34.53
0.54717	34.51
0.56383	34.52
0.58050	34.53
0.59717	34.51
0.61383	34.52
0.63050	34.52
0.64717	34.52
0.66383	34.52
0.68050	34.52
0.69717	34.52
0.71383	34.52
0.73050	34.52
0.74717	34.52
0.76383	34.52
0.78050	34.52
0.79717	34.52
0.81383	34.52
0.83050	34.52
0.84717	34.52
0.86383	34.52
0.88050	34.51
0.89717	34.51
0.91383	34.52
0.93050	34.52
0.94717	34.52
0.96383	34.52
0.98050	34.52
0.99717	34.51
1.01383	34.52
1.03050	34.52
1.04717	34.52
1.06383	34.51
1.08050	34.51
1.09717	34.53
1.11383	34.52
1.13050	34.52
1.14717	34.53
1.16383	34.51
1.18050	34.51
1.19717	34.52
1.21383	34.52
1.23050	34.52
1.24717	34.52
1.26383	34.51
1.28050	34.52
1.29717	34.52
1.31383	34.52
1.33050	34.52
1.34717	34.52
1.36383	34.52
1.38050	34.52
1.39717	34.51
1.41383	34.52
1.43050	34.52
1.44717	34.52
1.46383	34.51
1.48050	34.52
1.49717	34.52
1.51383	34.52
1.53050	34.52
1.54717	34.52
1.56383	34.51
1.58050	34.52
1.59717	34.52
1.61383	34.52
1.63050	34.51
1.64717	34.52
1.66383	34.52
1.68050	34.51
1.69717	34.52
1.71383	34.53
1.73050	34.52
1.74717	34.52
1.76383	34.52
1.78050	34.52
1.79717	34.52
1.81383	34.52
1.83050	34.52
1.84717	34.52
1.86383	34.52
1.88050	34.52
1.89717	34.52
1.91383	34.52
1.93050	34.53
1.94717	34.52
1.96383	34.52
1.98050	34.52
1.99717	34.52
2.01383	34.52
2.03050	34.51
2.04717	34.52
2.06383	34.51
2.08050	34.52
2.09717	34.52
2.11383	34.52
2.13050	34.52
2.14717	34.52
2.16383	34.52
2.18050	34.51
2.19717	34.52
2.21383	34.52
2.23050	34.52
2.24717	34.52
2.26383	34.52
2.28050	34.52
2.29717	34.51
2.31383	34.51
2.33050	34.52
2.34717	34.52
2.36383	34.52
2.38050	34.52
2.39717	34.51
2.41383	34.51
2.43050	34.52
2.44717	34.52
2.46383	34.52
2.48050	34.51
2.49717	34.52
2.51383	34.51
2.53050	34.52
2.54717	34.52
2.56383	34.52
2.58050	34.52
2.59717	34.52
2.61383	34.52
2.63050	34.52
2.64717	34.52
2.66383	34.52
2.68050	34.52
2.69717	34.51
2.71383	34.52
2.73050	34.52
2.74717	34.52
2.76383	34.52
2.78050	34.52
2.79717	34.51
2.81383	34.51
2.83050	34.52
2.84717	34.51
2.86383	34.52
2.88050	34.52
2.89717	34.52
2.91383	34.52
2.93050	34.52
2.94717	34.52
2.96383	34.52
2.98050	34.51
2.99717	34.52
3.01383	34.52
3.03050	34.51
3.04717	34.52
3.06383	34.52
3.08050	34.52
3.09717	34.51
3.11383	34.52
3.13050	34.52
3.14717	34.52
3.16383	34.53
3.18050	34.52
3.19717	34.51
3.21383	34.52
3.23050	34.52
3.24717	34.51
3.26383	34.51
3.28050	34.52
3.29717	34.52
3.31383	34.52
3.33050	34.52
3.34717	34.52
3.36383	34.51
3.38050	34.52
3.39717	34.52
3.41383	34.52
3.43050	34.51
3.44717	34.52
3.46383	34.52
3.48050	34.51
3.49717	34.52
3.51383	34.52
3.53050	34.52
3.54717	34.52
3.56383	34.52
3.58050	34.53
3.59717	34.52
3.61383	34.52
3.63050	34.52
3.64717	34.52
3.66383	34.52
3.68050	34.52
3.69717	34.52
3.71383	34.52
3.73050	34.53
3.74717	34.52
3.76383	34.52
3.78050	34.52
3.79717	34.52
3.81383	34.52
3.83050	34.52
3.84717	34.52
3.86383	34.53
3.88050	34.52
3.89717	34.51
3.91383	34.53
3.93050	34.52
3.94717	34.51
3.96383	34.52
3.98050	34.51

[Status Trace (Column Flow)]
Interval(msec)	1000
# of Points	239
Start Time(min)	0.014
End Time(min)	3.981
Intensity Units	
Intensity Multiplier	1
R.Time (min)	Intensity
0.01383	5.45
0.03050	5.19
0.04717	5.47
0.06383	5.70
0.08050	5.58
0.09717	5.49
0.11383	5.49
0.13050	5.49
0.14717	5.49
0.16383	5.49
0.18050	5.49
0.19717	5.49
0.21383	5.49
0.23050	5.49
0.24717	5.49
0.26383	5.49
0.28050	5.49
0.29717	5.49
0.31383	5.49
0.33050	5.49
0.34717	5.49
0.36383	5.49
0.38050	5.49
0.39717	5.49
0.41383	5.49
0.43050	5.49
0.44717	5.49
0.46383	5.49
0.48050	5.49
0.49717	5.49
0.51383	5.49
0.53050	5.49
0.54717	5.49
0.56383	5.49
0.58050	5.49
0.59717	5.49
0.61383	5.49
0.63050	5.49
0.64717	5.49
0.66383	5.49
0.68050	5.49
0.69717	5.49
0.71383	5.49
0.73050	5.49
0.74717	5.49
0.76383	5.49
0.78050	5.49
0.79717	5.49
0.81383	5.49
0.83050	5.49
0.84717	5.49
0.86383	5.49
0.88050	5.49
0.89717	5.49
0.91383	5.49
0.93050	5.49
0.94717	5.49
0.96383	5.49
0.98050	5.49
0.99717	5.49
1.01383	5.49
1.03050	5.49
1.04717	5.49
1.06383	5.49
1.08050	5.49
1.09717	5.49
1.11383	5.49
1.13050	5.49
1.14717	5.49
1.16383	5.49
1.18050	5.49
1.19717	5.49
1.21383	5.49
1.23050	5.49
1.24717	5.49
1.26383	5.49
1.28050	5.49
1.29717	5.49
1.31383	5.49
1.33050	5.49
1.34717	5.49
1.36383	5.49
1.38050	5.49
1.39717	5.49
1.41383	5.49
1.43050	5.49
1.44717	5.49
1.46383	5.49
1.48050	5.49
1.49717	5.49
1.51383	5.49
1.53050	5.49
1.54717	5.49
1.56383	5.49
1.58050	5.49
1.59717	5.49
1.61383	5.49
1.63050	5.48
1.64717	5.48
1.66383	5.47
1.68050	5.46
1.69717	5.45
1.71383	5.44
1.73050	5.43
1.74717	5.42
1.76383	5.41
1.78050	5.39
1.79717	5.39
1.81383	5.37
1.83050	5.36
1.84717	5.36
1.86383	5.35
1.88050	5.34
1.89717	5.33
1.91383	5.32
1.93050	5.31
1.94717	5.30
1.96383	5.29
1.98050	5.28
1.99717	5.27
2.01383	5.26
2.03050	5.25
2.04717	5.24
2.06383	5.23
2.08050	5.22
2.09717	5.21
2.11383	5.20
2.13050	5.19
2.14717	5.18
2.16383	5.17
2.18050	5.16
2.19717	5.16
2.21383	5.15
2.23050	5.14
2.24717	5.13
2.26383	5.12
2.28050	5.11
2.29717	5.10
2.31383	5.09
2.33050	5.08
2.34717	5.07
2.36383	5.06
2.38050	5.06
2.39717	5.06
2.41383	5.06
2.43050	5.06
2.44717	5.06
2.46383	5.06
2.48050	5.06
2.49717	5.06
2.51383	5.06
2.53050	5.06
2.54717	5.06
2.56383	5.06
2.58050	5.06
2.59717	5.06
2.61383	5.06
2.63050	5.06
2.64717	5.06
2.66383	5.06
2.68050	5.06
2.69717	5.06
2.71383	5.06
2.73050	5.05
2.74717	5.05
2.76383	5.06
2.78050	5.06
2.79717	5.06
2.81383	5.05
2.83050	5.05
2.84717	5.05
2.86383	5.05
2.88050	5.05
2.89717	5.05
2.91383	5.05
2.93050	5.05
2.94717	5.05
2.96383	5.05
2.98050	5.05
2.99717	5.05
3.01383	5.05
3.03050	5.05
3.04717	5.05
3.06383	5.05
3.08050	5.05
3.09717	5.05
3.11383	5.05
3.13050	5.05
3.14717	5.05
3.16383	5.05
3.18050	5.05
3.19717	5.05
3.21383	5.05
3.23050	5.05
3.24717	5.05
3.26383	5.05
3.28050	5.05
3.29717	5.05
3.31383	5.05
3.33050	5.05
3.34717	5.05
3.36383	5.05
3.38050	5.05
3.39717	5.05
3.41383	5.05
3.43050	5.05
3.44717	5.05
3.46383	5.05
3.48050	5.05
3.49717	5.05
3.51383	5.05
3.53050	5.05
3.54717	5.05
3.56383	5.05
3.58050	5.05
3.59717	5.05
3.61383	5.05
3.63050	5.05
3.64717	5.05
3.66383	5.05
3.68050	5.05
3.69717	5.05
3.71383	5.05
3.73050	5.05
3.74717	5.05
3.76383	5.05
3.78050	5.05
3.79717	5.05
3.81383	5.05
3.83050	5.05
3.84717	5.05
3.86383	5.05
3.88050	5.05
3.89717	5.05
3.91383	5.05
3.93050	5.05
3.94717	5.05
3.96383	5.05
3.98050	5.05

[Status Trace (Linear Velocity)]
Interval(msec)	1000
# of Points	239
Start Time(min)	0.014
End Time(min)	3.981
Intensity Units	
Intensity Multiplier	1
R.Time (min)	Intensity
0.01383	38.79
0.03050	37.32
0.04717	38.88
0.06383	40.19
0.08050	39.49
0.09717	39.00
0.11383	39.00
0.13050	39.01
0.14717	39.01
0.16383	39.01
0.18050	39.01
0.19717	39.01
0.21383	39.01
0.23050	39.01
0.24717	39.01
0.26383	39.01
0.28050	39.01
0.29717	39.01
0.31383	39.01
0.33050	39.01
0.34717	39.01
0.36383	39.01
0.38050	39.01
0.39717	39.01
0.41383	39.01
0.43050	39.01
0.44717	39.01
0.46383	39.01
0.48050	39.01
0.49717	39.01
0.51383	39.01
0.53050	39.01
0.54717	39.01
0.56383	39.01
0.58050	39.01
0.59717	39.01
0.61383	39.01
0.63050	39.01
0.64717	39.01
0.66383	39.01
0.68050	39.01
0.69717	39.01
0.71383	39.01
0.73050	39.01
0.74717	39.01
0.76383	39.01
0.78050	39.01
0.79717	39.01
0.81383	39.01
0.83050	39.01
0.84717	39.01
0.86383	39.01
0.88050	39.01
0.89717	39.01
0.91383	39.01
0.93050	39.01
0.94717	39.01
0.96383	39.01
0.98050	39.01
0.99717	39.01
1.01383	39.01
1.03050	39.01
1.04717	39.01
1.06383	39.01
1.08050	39.01
1.09717	39.01
1.11383	39.01
1.13050	39.01
1.14717	39.01
1.16383	39.01
1.18050	39.01
1.19717	39.01
1.21383	39.01
1.23050	39.01
1.24717	39.01
1.26383	39.01
1.28050	39.01
1.29717	39.01
1.31383	39.01
1.33050	39.01
1.34717	39.01
1.36383	39.01
1.38050	39.01
1.39717	39.01
1.41383	39.01
1.43050	39.01
1.44717	39.01
1.46383	39.01
1.48050	39.01
1.49717	39.01
1.51383	39.01
1.53050	39.01
1.54717	39.01
1.56383	39.01
1.58050	39.01
1.59717	39.01
1.61383	39.00
1.63050	38.99
1.64717	38.97
1.66383	38.94
1.68050	38.91
1.69717	38.87
1.71383	38.84
1.73050	38.81
1.74717	38.78
1.76383	38.74
1.78050	38.71
1.79717	38.68
1.81383	38.65
1.83050	38.62
1.84717	38.59
1.86383	38.56
1.88050	38.53
1.89717	38.50
1.91383	38.47
1.93050	38.44
1.94717	38.41
1.96383	38.37
1.98050	38.34
1.99717	38.32
2.01383	38.28
2.03050	38.25
2.04717	38.23
2.06383	38.19
2.08050	38.16
2.09717	38.14
2.11383	38.11
2.13050	38.07
2.14717	38.05
2.16383	38.02
2.18050	37.99
2.19717	37.96
2.21383	37.93
2.23050	37.90
2.24717	37.87
2.26383	37.84
2.28050	37.81
2.29717	37.78
2.31383	37.75
2.33050	37.72
2.34717	37.69
2.36383	37.67
2.38050	37.65
2.39717	37.65
2.41383	37.65
2.43050	37.65
2.44717	37.65
2.46383	37.65
2.48050	37.65
2.49717	37.65
2.51383	37.64
2.53050	37.64
2.54717	37.65
2.56383	37.65
2.58050	37.64
2.59717	37.64
2.61383	37.64
2.63050	37.64
2.64717	37.64
2.66383	37.64
2.68050	37.64
2.69717	37.64
2.71383	37.64
2.73050	37.64
2.74717	37.64
2.76383	37.64
2.78050	37.64
2.79717	37.64
2.81383	37.64
2.83050	37.64
2.84717	37.64
2.86383	37.64
2.88050	37.63
2.89717	37.63
2.91383	37.63
2.93050	37.63
2.94717	37.63
2.96383	37.63
2.98050	37.63
2.99717	37.63
3.01383	37.63
3.03050	37.63
3.04717	37.62
3.06383	37.62
3.08050	37.62
3.09717	37.62
3.11383	37.62
3.13050	37.62
3.14717	37.62
3.16383	37.62
3.18050	37.62
3.19717	37.62
3.21383	37.62
3.23050	37.62
3.24717	37.62
3.26383	37.62
3.28050	37.62
3.29717	37.62
3.31383	37.62
3.33050	37.62
3.34717	37.62
3.36383	37.62
3.38050	37.62
3.39717	37.62
3.41383	37.62
3.43050	37.62
3.44717	37.62
3.46383	37.63
3.48050	37.63
3.49717	37.62
3.51383	37.62
3.53050	37.63
3.54717	37.62
3.56383	37.62
3.58050	37.62
3.59717	37.62
3.61383	37.62
3.63050	37.62
3.64717	37.62
3.66383	37.62
3.68050	37.62
3.69717	37.62
3.71383	37.62
3.73050	37.62
3.74717	37.62
3.76383	37.62
3.78050	37.62
3.79717	37.62
3.81383	37.62
3.83050	37.62
3.84717	37.62
3.86383	37.62
3.88050	37.62
3.89717	37.62
3.91383	37.62
3.93050	37.62
3.94717	37.62
3.96383	37.62
3.98050	37.62

