[Header]
Application Name	LabSolutions
Version	5.110
Data File Name	C:\Users\User\Desktop\Junior\UIC Prairie Sampling\2023\8.2.23\080223_081.gcd
Output Date	8/31/2023
Output Time	12:43:11 PM

[File Information]
Type	Data File
Generated	8/30/2023 12:54:28 AM
Generated by	System Administrator
Modified	8/30/2023 1:01:06 AM
Modified by	System Administrator

[Sample Information]
Operator Name	System Administrator
Acquired	8/30/2023 12:57:05 AM
Sample Type	0:Unknown
Level	0
Sample Name	081
Sample ID	081
ISTD Amount1	1
ISTD Amount2	1
ISTD Amount3	1
ISTD Amount4	1
ISTD Amount5	1
ISTD Amount6	1
ISTD Amount7	1
ISTD Amount8	1
ISTD Amount9	1
ISTD Amount10	1
ISTD Amount11	1
ISTD Amount12	1
ISTD Amount13	1
ISTD Amount14	1
ISTD Amount15	1
ISTD Amount16	1
ISTD Amount17	1
ISTD Amount18	1
ISTD Amount19	1
ISTD Amount20	1
ISTD Amount21	1
ISTD Amount22	1
ISTD Amount23	1
ISTD Amount24	1
ISTD Amount25	1
ISTD Amount26	1
ISTD Amount27	1
ISTD Amount28	1
ISTD Amount29	1
ISTD Amount30	1
ISTD Amount31	1
ISTD Amount32	1
Sample Amount	1
Dilution Factor	1
Vial#	80
Injection Volume	1
Injection Count	1
Bar Code	

[Original Files]
Data File	C:\Users\User\Desktop\Junior\UIC Prairie Sampling\8.2.23\080223_081.gcd
Method File	C:\LabSolutions\Data\GHG_4min_2022\ghg3_togas_w_acet_4 min_new_int.gcm
Batch File	C:\LabSolutions\Data\BATCH FILES\080223.gcb
Report Format File	c:\LabSolutions\System\DEFAULT.lsr

[File Description]


[Configuration]
Instrument Name	C0B7VH3-Instrument1
Instrument #	1
Line #	1
# of Detectors	3
Detector ID	DET#1	DET#2	DET#3
Detector Name	FID	PTCD	ECD
# of Channels	1	1	1

[Peak Table(Ch1)]
# of Peaks	4
Peak#	R.Time	I.Time	F.Time	Area	Height	A/H	Conc.	Mark	ID#	Name	k'	Plate #	Plate Ht.	Tailing	Resolution	Sep.Factor	Area Ratio	Height Ratio	Conc. %	Norm Conc.
1	0.317	0.200	0.394	1160	176	6.609	0.000	   			0.000	58	2567.191	0.864	0.000	0.000	0	0	0.000	0.000
2	1.472	1.432	1.527	4941	2462	2.007	0.000	   	1	CO	3.644	9524	15.750	1.272	10.211	0.000	0	0	0.000	0.000
3	1.564	1.527	1.622	5300	2708	1.957	25.841	 V 	2	CH4	3.933	11609	12.921	1.120	1.549	1.079	0	0	3.802	3.802
4	1.989	1.941	2.616	3392862	1625273	2.088	653.867	   	3	CO2	5.274	17151	8.746	1.272	7.160	1.341	0	0	96.198	96.198

[Peak Table(Ch2)]
# of Peaks	0

[Peak Table(Ch3)]
# of Peaks	5
Peak#	R.Time	I.Time	F.Time	Area	Height	A/H	Conc.	Mark	ID#	Name	k'	Plate #	Plate Ht.	Tailing	Resolution	Sep.Factor	Area Ratio	Height Ratio	Conc. %	Norm Conc.
1	2.458	2.326	2.568	1258	325	3.867	0.000	   			0.000	13232	11.336	0.000	0.000	0.000	0	0	0.000	0.000
2	2.627	2.568	2.697	376	99	3.811	0.000	 V 			0.069	9626	15.582	0.000	1.752	0.000	0	0	0.000	0.000
3	2.891	2.733	2.979	16558	4502	3.678	0.245	   	1	N2O	0.176	13485	11.124	1.385	2.555	2.565	0	0	100.000	100.000
4	3.049	2.979	3.327	15073	929	16.225	0.000	   	2	SF6	0.240	35	4329.523	0.000	0.145	1.364	0	0	0.000	0.000
5	3.397	3.327	3.995	11928	645	18.505	0.000	 V 			0.382	215	696.429	0.000	0.232	1.590	0	0	0.000	0.000

[Compound Results(Ch1)]
# of IDs	6
ID#	Name	R.Time	Area	Height	Conc.	Curve	3rd	2nd	1st	Constant	Area Ratio	Height Ratio	Conc. %	Norm Conc.
1	CO	1.472	4941	2462	0.000	Linear	0.000000e+00	0.000000e+00	0.000000e+00	0.000000e+00	0	0	0.000	0.000
2	CH4	1.564	5300	2708	25.841	Linear	0.000000e+00	0.000000e+00	2.051179e+002	0.000000e+00	0	0	3.802	3.802
3	CO2	1.989	3392862	1625273	653.867	Linear	0.000000e+00	0.000000e+00	5.188919e+003	0.000000e+00	0	0	96.198	96.198
4	Ethylene	0.000	0	0	0.000	Linear	0.000000e+00	0.000000e+00	0.000000e+00	0.000000e+00	0	0	0.000	0.000
5	Acetylene	0.000	0	0	0.000	Linear	0.000000e+00	0.000000e+00	0.000000e+00	0.000000e+00	0	0	0.000	0.000
6	Ethane	0.000	0	0	0.000	Linear	0.000000e+00	0.000000e+00	0.000000e+00	0.000000e+00	0	0	0.000	0.000

[Compound Results(Ch2)]
# of IDs	5
ID#	Name	R.Time	Area	Height	Conc.	Curve	3rd	2nd	1st	Constant	Area Ratio	Height Ratio	Conc. %	Norm Conc.
1	Hydrogen	0.000	0	0	0.000	Linear	0.000000e+00	0.000000e+00	0.000000e+00	0.000000e+00	0	0	0.000	0.000
2	Oxygen	0.000	0	0	0.000	Linear	0.000000e+00	0.000000e+00	0.000000e+00	0.000000e+00	0	0	0.000	0.000
3	Nitrogen	0.000	0	0	0.000	Linear	0.000000e+00	0.000000e+00	0.000000e+00	0.000000e+00	0	0	0.000	0.000
4	Methane	0.000	0	0	0.000	Linear	0.000000e+00	0.000000e+00	0.000000e+00	0.000000e+00	0	0	0.000	0.000
5	Carbon Monoxide	0.000	0	0	0.000	Linear	0.000000e+00	0.000000e+00	0.000000e+00	0.000000e+00	0	0	0.000	0.000

[Compound Results(Ch3)]
# of IDs	2
ID#	Name	R.Time	Area	Height	Conc.	Curve	3rd	2nd	1st	Constant	Area Ratio	Height Ratio	Conc. %	Norm Conc.
1	N2O	2.891	16558	4502	0.245	Linear	0.000000e+00	0.000000e+00	6.759880e+004	0.000000e+00	0	0	100.000	100.000
2	SF6	3.049	15073	929	0.000	Linear	0.000000e+00	0.000000e+00	0.000000e+00	0.000000e+00	0	0	0.000	0.000

[Group Results(Ch1)]
# of Groups	0

[Group Results(Ch2)]
# of Groups	0

[Group Results(Ch3)]
# of Groups	0

[Chromatogram (Ch1)]
Interval(msec)	220
# of Points	1091
Start Time(min)	0.002
End Time(min)	3.998
R.Time (min)	Intensity
0.00167	12
0.00533	8
0.00900	3
0.01267	-0
0.01633	-1
0.02000	1
0.02367	1
0.02733	-1
0.03100	-3
0.03467	-4
0.03833	-2
0.04200	2
0.04567	6
0.04933	9
0.05300	9
0.05667	6
0.06033	1
0.06400	-3
0.06767	-2
0.07133	1
0.07500	7
0.07867	12
0.08233	15
0.08600	17
0.08967	18
0.09333	16
0.09700	16
0.10067	13
0.10433	7
0.10800	-0
0.11167	-5
0.11533	-8
0.11900	-9
0.12267	-7
0.12633	-3
0.13000	-0
0.13367	2
0.13733	1
0.14100	-4
0.14467	-6
0.14833	-5
0.15200	-2
0.15567	1
0.15933	2
0.16300	7
0.16667	13
0.17033	18
0.17400	20
0.17767	19
0.18133	16
0.18500	12
0.18867	7
0.19233	5
0.19600	10
0.19967	18
0.20333	22
0.20700	22
0.21067	21
0.21433	25
0.21800	34
0.22167	48
0.22533	60
0.22900	71
0.23267	85
0.23633	103
0.24000	120
0.24367	134
0.24733	147
0.25100	152
0.25467	151
0.25833	149
0.26200	150
0.26567	157
0.26933	169
0.27300	177
0.27667	179
0.28033	177
0.28400	174
0.28767	174
0.29133	174
0.29500	176
0.29867	183
0.30233	192
0.30600	198
0.30967	201
0.31333	202
0.31700	202
0.32067	202
0.32433	195
0.32800	185
0.33167	177
0.33533	170
0.33900	164
0.34267	156
0.34633	144
0.35000	131
0.35367	118
0.35733	104
0.36100	93
0.36467	84
0.36833	79
0.37200	74
0.37567	67
0.37933	59
0.38300	52
0.38667	47
0.39033	42
0.39400	32
0.39767	22
0.40133	18
0.40500	23
0.40867	30
0.41233	34
0.41600	36
0.41967	34
0.42333	31
0.42700	28
0.43067	26
0.43433	24
0.43800	23
0.44167	20
0.44533	19
0.44900	19
0.45267	22
0.45633	24
0.46000	24
0.46367	21
0.46733	16
0.47100	9
0.47467	3
0.47833	1
0.48200	0
0.48567	2
0.48933	4
0.49300	6
0.49667	7
0.50033	6
0.50400	5
0.50767	6
0.51133	7
0.51500	7
0.51867	7
0.52233	7
0.52600	3
0.52967	-2
0.53333	-7
0.53700	-12
0.54067	-15
0.54433	-15
0.54800	-14
0.55167	-15
0.55533	-15
0.55900	-13
0.56267	-10
0.56633	-6
0.57000	-3
0.57367	-1
0.57733	-1
0.58100	-1
0.58467	1
0.58833	7
0.59200	13
0.59567	15
0.59933	11
0.60300	2
0.60667	-6
0.61033	-8
0.61400	-8
0.61767	-8
0.62133	-9
0.62500	-6
0.62867	-1
0.63233	2
0.63600	4
0.63967	8
0.64333	7
0.64700	2
0.65067	-1
0.65433	-1
0.65800	-1
0.66167	-1
0.66533	-3
0.66900	-3
0.67267	-1
0.67633	5
0.68000	12
0.68367	14
0.68733	13
0.69100	10
0.69467	6
0.69833	1
0.70200	-4
0.70567	-8
0.70933	-11
0.71300	-15
0.71667	-18
0.72033	-19
0.72400	-15
0.72767	-9
0.73133	-3
0.73500	-1
0.73867	-6
0.74233	-12
0.74600	-14
0.74967	-13
0.75333	-11
0.75700	-6
0.76067	0
0.76433	7
0.76800	11
0.77167	11
0.77533	7
0.77900	1
0.78267	-2
0.78633	-2
0.79000	-2
0.79367	-5
0.79733	-7
0.80100	-7
0.80467	-4
0.80833	2
0.81200	6
0.81567	8
0.81933	11
0.82300	13
0.82667	14
0.83033	12
0.83400	7
0.83767	2
0.84133	-1
0.84500	-7
0.84867	-15
0.85233	-21
0.85600	-22
0.85967	-20
0.86333	-19
0.86700	-15
0.87067	-10
0.87433	-7
0.87800	-10
0.88167	-13
0.88533	-13
0.88900	-11
0.89267	-9
0.89633	-8
0.90000	-10
0.90367	-13
0.90733	-15
0.91100	-13
0.91467	-10
0.91833	-8
0.92200	-5
0.92567	-4
0.92933	-6
0.93300	-7
0.93667	-9
0.94033	-12
0.94400	-15
0.94767	-19
0.95133	-25
0.95500	-28
0.95867	-28
0.96233	-25
0.96600	-19
0.96967	-11
0.97333	-4
0.97700	1
0.98067	3
0.98433	2
0.98800	3
0.99167	2
0.99533	0
0.99900	-1
1.00267	-4
1.00633	-8
1.01000	-13
1.01367	-18
1.01733	-22
1.02100	-26
1.02467	-30
1.02833	-33
1.03200	-33
1.03567	-30
1.03933	-27
1.04300	-25
1.04667	-21
1.05033	-18
1.05400	-16
1.05767	-12
1.06133	-6
1.06500	-2
1.06867	-2
1.07233	-6
1.07600	-10
1.07967	-13
1.08333	-15
1.08700	-19
1.09067	-24
1.09433	-26
1.09800	-26
1.10167	-27
1.10533	-28
1.10900	-27
1.11267	-25
1.11633	-25
1.12000	-26
1.12367	-28
1.12733	-32
1.13100	-38
1.13467	-44
1.13833	-45
1.14200	-44
1.14567	-43
1.14933	-41
1.15300	-33
1.15667	-25
1.16033	-18
1.16400	-17
1.16767	-21
1.17133	-24
1.17500	-27
1.17867	-33
1.18233	-37
1.18600	-39
1.18967	-36
1.19333	-30
1.19700	-22
1.20067	-13
1.20433	-6
1.20800	-3
1.21167	-3
1.21533	-6
1.21900	-11
1.22267	-18
1.22633	-23
1.23000	-27
1.23367	-31
1.23733	-33
1.24100	-35
1.24467	-36
1.24833	-38
1.25200	-38
1.25567	-38
1.25933	-38
1.26300	-38
1.26667	-38
1.27033	-39
1.27400	-41
1.27767	-43
1.28133	-40
1.28500	-32
1.28867	-27
1.29233	-26
1.29600	-26
1.29967	-24
1.30333	-23
1.30700	-22
1.31067	-25
1.31433	-29
1.31800	-33
1.32167	-38
1.32533	-39
1.32900	-36
1.33267	-33
1.33633	-31
1.34000	-30
1.34367	-32
1.34733	-34
1.35100	-38
1.35467	-40
1.35833	-39
1.36200	-37
1.36567	-39
1.36933	-43
1.37300	-46
1.37667	-46
1.38033	-45
1.38400	-43
1.38767	-39
1.39133	-35
1.39500	-35
1.39867	-39
1.40233	-44
1.40600	-49
1.40967	-54
1.41333	-58
1.41700	-60
1.42067	-62
1.42433	-64
1.42800	-66
1.43167	-59
1.43533	-41
1.43900	-19
1.44267	-0
1.44633	74
1.45000	313
1.45367	725
1.45733	1212
1.46100	1669
1.46467	2045
1.46833	2305
1.47200	2408
1.47567	2326
1.47933	2074
1.48300	1716
1.48667	1332
1.49033	983
1.49400	698
1.49767	483
1.50133	326
1.50500	212
1.50867	129
1.51233	73
1.51600	39
1.51967	21
1.52333	10
1.52700	5
1.53067	10
1.53433	57
1.53800	209
1.54167	533
1.54533	1011
1.54900	1545
1.55267	2029
1.55633	2400
1.56000	2624
1.56367	2665
1.56733	2496
1.57100	2147
1.57467	1708
1.57833	1272
1.58200	900
1.58567	611
1.58933	398
1.59300	246
1.59667	143
1.60033	73
1.60400	28
1.60767	2
1.61133	-14
1.61500	-25
1.61867	-31
1.62233	-35
1.62600	-34
1.62967	-35
1.63333	-42
1.63700	-51
1.64067	-57
1.64433	-60
1.64800	-60
1.65167	-61
1.65533	-62
1.65900	-64
1.66267	-66
1.66633	-69
1.67000	-72
1.67367	-72
1.67733	-70
1.68100	-64
1.68467	-59
1.68833	-56
1.69200	-54
1.69567	-52
1.69933	-53
1.70300	-58
1.70667	-62
1.71033	-65
1.71400	-70
1.71767	-76
1.72133	-81
1.72500	-81
1.72867	-77
1.73233	-73
1.73600	-72
1.73967	-77
1.74333	-83
1.74700	-87
1.75067	-88
1.75433	-83
1.75800	-76
1.76167	-70
1.76533	-67
1.76900	-67
1.77267	-65
1.77633	-59
1.78000	-53
1.78367	-50
1.78733	-51
1.79100	-54
1.79467	-57
1.79833	-61
1.80200	-61
1.80567	-60
1.80933	-62
1.81300	-70
1.81667	-77
1.82033	-82
1.82400	-84
1.82767	-83
1.83133	-79
1.83500	-72
1.83867	-66
1.84233	-63
1.84600	-62
1.84967	-67
1.85333	-73
1.85700	-74
1.86067	-72
1.86433	-69
1.86800	-67
1.87167	-68
1.87533	-72
1.87900	-80
1.88267	-86
1.88633	-90
1.89000	-90
1.89367	-84
1.89733	-76
1.90100	-70
1.90467	-66
1.90833	-63
1.91200	-62
1.91567	-63
1.91933	-67
1.92300	-72
1.92667	-77
1.93033	-84
1.93400	-90
1.93767	-93
1.94133	-87
1.94500	-51
1.94867	185
1.95233	1671
1.95600	8888
1.95967	35242
1.96333	108515
1.96700	263458
1.97067	513006
1.97433	826673
1.97800	1144618
1.98167	1407757
1.98533	1574490
1.98900	1625224
1.99267	1561429
1.99633	1403337
2.00000	1185132
2.00367	946129
2.00733	719932
2.01100	527407
2.01467	376058
2.01833	263805
2.02200	183907
2.02567	128597
2.02933	90966
2.03300	65580
2.03667	48472
2.04033	36879
2.04400	28933
2.04767	23397
2.05133	19457
2.05500	16583
2.05867	14434
2.06233	12786
2.06600	11484
2.06967	10432
2.07333	9566
2.07700	8843
2.08067	8227
2.08433	7693
2.08800	7224
2.09167	6808
2.09533	6437
2.09900	6102
2.10267	5797
2.10633	5521
2.11000	5268
2.11367	5034
2.11733	4818
2.12100	4618
2.12467	4430
2.12833	4254
2.13200	4088
2.13567	3932
2.13933	3786
2.14300	3652
2.14667	3529
2.15033	3415
2.15400	3312
2.15767	3214
2.16133	3115
2.16500	3018
2.16867	2928
2.17233	2842
2.17600	2763
2.17967	2687
2.18333	2614
2.18700	2545
2.19067	2479
2.19433	2413
2.19800	2346
2.20167	2281
2.20533	2220
2.20900	2163
2.21267	2111
2.21633	2065
2.22000	2021
2.22367	1978
2.22733	1934
2.23100	1890
2.23467	1848
2.23833	1809
2.24200	1771
2.24567	1732
2.24933	1695
2.25300	1660
2.25667	1629
2.26033	1600
2.26400	1570
2.26767	1538
2.27133	1505
2.27500	1473
2.27867	1445
2.28233	1420
2.28600	1395
2.28967	1369
2.29333	1344
2.29700	1320
2.30067	1297
2.30433	1272
2.30800	1251
2.31167	1230
2.31533	1209
2.31900	1189
2.32267	1169
2.32633	1150
2.33000	1131
2.33367	1114
2.33733	1099
2.34100	1084
2.34467	1067
2.34833	1049
2.35200	1031
2.35567	1014
2.35933	997
2.36300	982
2.36667	968
2.37033	954
2.37400	939
2.37767	924
2.38133	909
2.38500	899
2.38867	892
2.39233	885
2.39600	878
2.39967	873
2.40333	864
2.40700	849
2.41067	834
2.41433	820
2.41800	806
2.42167	791
2.42533	779
2.42900	767
2.43267	757
2.43633	749
2.44000	742
2.44367	735
2.44733	730
2.45100	724
2.45467	715
2.45833	706
2.46200	693
2.46567	680
2.46933	670
2.47300	663
2.47667	660
2.48033	656
2.48400	650
2.48767	641
2.49133	630
2.49500	616
2.49867	602
2.50233	593
2.50600	590
2.50967	591
2.51333	590
2.51700	587
2.52067	581
2.52433	575
2.52800	570
2.53167	566
2.53533	564
2.53900	563
2.54267	559
2.54633	552
2.55000	544
2.55367	534
2.55733	523
2.56100	513
2.56467	506
2.56833	500
2.57200	496
2.57567	490
2.57933	482
2.58300	476
2.58667	472
2.59033	468
2.59400	464
2.59767	461
2.60133	462
2.60500	465
2.60867	466
2.61233	464
2.61600	460
2.61967	455
2.62333	449
2.62700	442
2.63067	434
2.63433	428
2.63800	423
2.64167	417
2.64533	411
2.64900	406
2.65267	401
2.65633	398
2.66000	396
2.66367	394
2.66733	391
2.67100	383
2.67467	374
2.67833	367
2.68200	362
2.68567	356
2.68933	353
2.69300	354
2.69667	357
2.70033	357
2.70400	358
2.70767	357
2.71133	354
2.71500	351
2.71867	348
2.72233	343
2.72600	339
2.72967	335
2.73333	333
2.73700	332
2.74067	333
2.74433	335
2.74800	335
2.75167	333
2.75533	331
2.75900	331
2.76267	332
2.76633	334
2.77000	331
2.77367	323
2.77733	317
2.78100	312
2.78467	308
2.78833	304
2.79200	299
2.79567	294
2.79933	290
2.80300	285
2.80667	279
2.81033	273
2.81400	268
2.81767	264
2.82133	260
2.82500	260
2.82867	267
2.83233	279
2.83600	288
2.83967	290
2.84333	288
2.84700	284
2.85067	279
2.85433	274
2.85800	271
2.86167	267
2.86533	262
2.86900	258
2.87267	256
2.87633	253
2.88000	251
2.88367	249
2.88733	246
2.89100	243
2.89467	243
2.89833	244
2.90200	244
2.90567	244
2.90933	242
2.91300	238
2.91667	234
2.92033	228
2.92400	222
2.92767	219
2.93133	220
2.93500	218
2.93867	216
2.94233	218
2.94600	222
2.94967	228
2.95333	235
2.95700	241
2.96067	245
2.96433	246
2.96800	241
2.97167	235
2.97533	231
2.97900	227
2.98267	225
2.98633	226
2.99000	228
2.99367	230
2.99733	234
3.00100	236
3.00467	232
3.00833	226
3.01200	222
3.01567	219
3.01933	218
3.02300	219
3.02667	219
3.03033	214
3.03400	204
3.03767	197
3.04133	194
3.04500	197
3.04867	202
3.05233	205
3.05600	204
3.05967	201
3.06333	197
3.06700	194
3.07067	192
3.07433	191
3.07800	192
3.08167	192
3.08533	190
3.08900	185
3.09267	180
3.09633	175
3.10000	169
3.10367	160
3.10733	153
3.11100	148
3.11467	146
3.11833	148
3.12200	154
3.12567	161
3.12933	167
3.13300	168
3.13667	163
3.14033	156
3.14400	151
3.14767	146
3.15133	143
3.15500	141
3.15867	141
3.16233	143
3.16600	149
3.16967	156
3.17333	162
3.17700	164
3.18067	163
3.18433	160
3.18800	150
3.19167	138
3.19533	131
3.19900	132
3.20267	135
3.20633	139
3.21000	144
3.21367	150
3.21733	152
3.22100	151
3.22467	149
3.22833	148
3.23200	148
3.23567	144
3.23933	136
3.24300	130
3.24667	128
3.25033	125
3.25400	122
3.25767	119
3.26133	114
3.26500	110
3.26867	109
3.27233	111
3.27600	116
3.27967	123
3.28333	129
3.28700	133
3.29067	133
3.29433	131
3.29800	127
3.30167	126
3.30533	128
3.30900	130
3.31267	132
3.31633	131
3.32000	128
3.32367	125
3.32733	123
3.33100	122
3.33467	119
3.33833	114
3.34200	110
3.34567	107
3.34933	107
3.35300	106
3.35667	106
3.36033	106
3.36400	103
3.36767	101
3.37133	100
3.37500	98
3.37867	95
3.38233	95
3.38600	93
3.38967	91
3.39333	90
3.39700	90
3.40067	91
3.40433	91
3.40800	92
3.41167	93
3.41533	94
3.41900	94
3.42267	94
3.42633	95
3.43000	93
3.43367	92
3.43733	91
3.44100	91
3.44467	92
3.44833	94
3.45200	95
3.45567	92
3.45933	86
3.46300	80
3.46667	77
3.47033	75
3.47400	73
3.47767	71
3.48133	68
3.48500	67
3.48867	68
3.49233	69
3.49600	70
3.49967	73
3.50333	79
3.50700	86
3.51067	92
3.51433	95
3.51800	94
3.52167	93
3.52533	90
3.52900	86
3.53267	81
3.53633	74
3.54000	72
3.54367	72
3.54733	74
3.55100	77
3.55467	76
3.55833	72
3.56200	71
3.56567	73
3.56933	78
3.57300	80
3.57667	75
3.58033	68
3.58400	64
3.58767	63
3.59133	62
3.59500	60
3.59867	57
3.60233	55
3.60600	54
3.60967	53
3.61333	53
3.61700	53
3.62067	55
3.62433	59
3.62800	63
3.63167	64
3.63533	63
3.63900	60
3.64267	56
3.64633	52
3.65000	46
3.65367	42
3.65733	41
3.66100	43
3.66467	47
3.66833	48
3.67200	51
3.67567	56
3.67933	62
3.68300	64
3.68667	61
3.69033	56
3.69400	51
3.69767	46
3.70133	44
3.70500	44
3.70867	44
3.71233	42
3.71600	39
3.71967	35
3.72333	32
3.72700	30
3.73067	29
3.73433	30
3.73800	30
3.74167	28
3.74533	27
3.74900	26
3.75267	27
3.75633	30
3.76000	35
3.76367	41
3.76733	47
3.77100	54
3.77467	60
3.77833	61
3.78200	58
3.78567	52
3.78933	46
3.79300	42
3.79667	39
3.80033	37
3.80400	35
3.80767	35
3.81133	34
3.81500	34
3.81867	30
3.82233	26
3.82600	23
3.82967	20
3.83333	15
3.83700	14
3.84067	15
3.84433	16
3.84800	15
3.85167	11
3.85533	7
3.85900	4
3.86267	5
3.86633	9
3.87000	14
3.87367	17
3.87733	19
3.88100	20
3.88467	21
3.88833	21
3.89200	21
3.89567	25
3.89933	28
3.90300	27
3.90667	25
3.91033	22
3.91400	20
3.91767	18
3.92133	16
3.92500	15
3.92867	17
3.93233	18
3.93600	18
3.93967	18
3.94333	17
3.94700	16
3.95067	15
3.95433	14
3.95800	13
3.96167	13
3.96533	14
3.96900	13
3.97267	12
3.97633	10
3.98000	8
3.98367	8
3.98733	6
3.99100	3
3.99467	-1
3.99833	-2

[Chromatogram (Ch2)]
Interval(msec)	220
# of Points	1091
Start Time(min)	0.002
End Time(min)	3.998
R.Time (min)	Intensity
0.00167	-0
0.00533	-0
0.00900	-1
0.01267	-1
0.01633	-1
0.02000	-1
0.02367	-1
0.02733	-0
0.03100	-0
0.03467	-0
0.03833	-1
0.04200	-1
0.04567	-1
0.04933	-1
0.05300	-1
0.05667	-1
0.06033	-0
0.06400	-0
0.06767	0
0.07133	0
0.07500	0
0.07867	1
0.08233	1
0.08600	1
0.08967	0
0.09333	0
0.09700	1
0.10067	1
0.10433	1
0.10800	1
0.11167	1
0.11533	1
0.11900	1
0.12267	1
0.12633	1
0.13000	1
0.13367	1
0.13733	0
0.14100	0
0.14467	-0
0.14833	-0
0.15200	-0
0.15567	-0
0.15933	-0
0.16300	0
0.16667	0
0.17033	-0
0.17400	-0
0.17767	-0
0.18133	-0
0.18500	-0
0.18867	-0
0.19233	-0
0.19600	-0
0.19967	-1
0.20333	-1
0.20700	-1
0.21067	-1
0.21433	-1
0.21800	-1
0.22167	-1
0.22533	-1
0.22900	-1
0.23267	-1
0.23633	-1
0.24000	-1
0.24367	-1
0.24733	-1
0.25100	-1
0.25467	-1
0.25833	-1
0.26200	-1
0.26567	-1
0.26933	-1
0.27300	-1
0.27667	-1
0.28033	-0
0.28400	-0
0.28767	-0
0.29133	-0
0.29500	-0
0.29867	0
0.30233	0
0.30600	0
0.30967	0
0.31333	-0
0.31700	-1
0.32067	-1
0.32433	-1
0.32800	-1
0.33167	-1
0.33533	-2
0.33900	-2
0.34267	-2
0.34633	-2
0.35000	-2
0.35367	-2
0.35733	-1
0.36100	-1
0.36467	-1
0.36833	-1
0.37200	-1
0.37567	-0
0.37933	-0
0.38300	-0
0.38667	-0
0.39033	-0
0.39400	0
0.39767	0
0.40133	0
0.40500	0
0.40867	1
0.41233	0
0.41600	0
0.41967	0
0.42333	-0
0.42700	-0
0.43067	-0
0.43433	-0
0.43800	-0
0.44167	-0
0.44533	-0
0.44900	-0
0.45267	-0
0.45633	-0
0.46000	-0
0.46367	-0
0.46733	-0
0.47100	-0
0.47467	-0
0.47833	-0
0.48200	-0
0.48567	-0
0.48933	-1
0.49300	-0
0.49667	-0
0.50033	-0
0.50400	-0
0.50767	-0
0.51133	-1
0.51500	-1
0.51867	-1
0.52233	-1
0.52600	-1
0.52967	-1
0.53333	-1
0.53700	-1
0.54067	-1
0.54433	-0
0.54800	-0
0.55167	-0
0.55533	-0
0.55900	-1
0.56267	-1
0.56633	-1
0.57000	-0
0.57367	-0
0.57733	-0
0.58100	-0
0.58467	-0
0.58833	-0
0.59200	-0
0.59567	-1
0.59933	-1
0.60300	-1
0.60667	-1
0.61033	-2
0.61400	-2
0.61767	-1
0.62133	-1
0.62500	-2
0.62867	-2
0.63233	-2
0.63600	-2
0.63967	-1
0.64333	-1
0.64700	-1
0.65067	-0
0.65433	-0
0.65800	0
0.66167	0
0.66533	0
0.66900	0
0.67267	0
0.67633	0
0.68000	0
0.68367	0
0.68733	0
0.69100	0
0.69467	0
0.69833	-0
0.70200	-0
0.70567	-0
0.70933	-1
0.71300	-1
0.71667	-1
0.72033	-1
0.72400	-1
0.72767	-0
0.73133	-0
0.73500	-0
0.73867	-0
0.74233	-0
0.74600	-0
0.74967	-0
0.75333	-0
0.75700	-0
0.76067	-0
0.76433	-0
0.76800	-0
0.77167	-0
0.77533	-0
0.77900	-0
0.78267	-0
0.78633	-0
0.79000	-0
0.79367	-0
0.79733	-0
0.80100	-0
0.80467	-1
0.80833	-1
0.81200	-1
0.81567	-1
0.81933	-2
0.82300	-2
0.82667	-3
0.83033	-3
0.83400	-3
0.83767	-3
0.84133	-3
0.84500	-3
0.84867	-3
0.85233	-3
0.85600	-3
0.85967	-3
0.86333	-3
0.86700	-3
0.87067	-3
0.87433	-3
0.87800	-3
0.88167	-3
0.88533	-3
0.88900	-2
0.89267	-2
0.89633	-2
0.90000	-2
0.90367	-2
0.90733	-2
0.91100	-2
0.91467	-1
0.91833	-1
0.92200	-1
0.92567	-1
0.92933	-1
0.93300	-1
0.93667	-1
0.94033	-2
0.94400	-2
0.94767	-2
0.95133	-2
0.95500	-2
0.95867	-2
0.96233	-2
0.96600	-2
0.96967	-2
0.97333	-2
0.97700	-2
0.98067	-2
0.98433	-2
0.98800	-2
0.99167	-2
0.99533	-2
0.99900	-2
1.00267	-2
1.00633	-2
1.01000	-2
1.01367	-2
1.01733	-2
1.02100	-2
1.02467	-2
1.02833	-2
1.03200	-1
1.03567	-1
1.03933	-1
1.04300	-1
1.04667	-1
1.05033	-1
1.05400	-1
1.05767	-1
1.06133	-1
1.06500	-1
1.06867	-1
1.07233	-1
1.07600	-1
1.07967	-1
1.08333	-1
1.08700	-1
1.09067	-1
1.09433	-2
1.09800	-2
1.10167	-2
1.10533	-2
1.10900	-2
1.11267	-2
1.11633	-2
1.12000	-2
1.12367	-1
1.12733	-1
1.13100	-1
1.13467	-1
1.13833	-1
1.14200	-2
1.14567	-2
1.14933	-2
1.15300	-2
1.15667	-3
1.16033	-3
1.16400	-3
1.16767	-2
1.17133	-2
1.17500	-2
1.17867	-2
1.18233	-1
1.18600	-1
1.18967	-1
1.19333	-1
1.19700	-1
1.20067	-1
1.20433	-1
1.20800	-1
1.21167	-1
1.21533	-1
1.21900	-2
1.22267	-2
1.22633	-2
1.23000	-2
1.23367	-2
1.23733	-2
1.24100	-2
1.24467	-2
1.24833	-2
1.25200	-2
1.25567	-2
1.25933	-2
1.26300	-2
1.26667	-2
1.27033	-2
1.27400	-2
1.27767	-2
1.28133	-2
1.28500	-2
1.28867	-1
1.29233	-1
1.29600	-1
1.29967	-1
1.30333	-1
1.30700	-2
1.31067	-2
1.31433	-2
1.31800	-2
1.32167	-2
1.32533	-2
1.32900	-2
1.33267	-3
1.33633	-3
1.34000	-3
1.34367	-3
1.34733	-3
1.35100	-3
1.35467	-2
1.35833	-2
1.36200	-2
1.36567	-2
1.36933	-2
1.37300	-3
1.37667	-3
1.38033	-3
1.38400	-3
1.38767	-3
1.39133	-3
1.39500	-3
1.39867	-3
1.40233	-3
1.40600	-3
1.40967	-3
1.41333	-2
1.41700	-2
1.42067	-2
1.42433	-2
1.42800	-2
1.43167	-2
1.43533	-3
1.43900	-3
1.44267	-3
1.44633	-3
1.45000	-3
1.45367	-4
1.45733	-4
1.46100	-4
1.46467	-3
1.46833	-3
1.47200	-3
1.47567	-3
1.47933	-3
1.48300	-3
1.48667	-3
1.49033	-3
1.49400	-3
1.49767	-3
1.50133	-3
1.50500	-4
1.50867	-4
1.51233	-3
1.51600	-3
1.51967	-3
1.52333	-2
1.52700	-2
1.53067	-2
1.53433	-2
1.53800	-2
1.54167	-2
1.54533	-2
1.54900	-2
1.55267	-2
1.55633	-2
1.56000	-2
1.56367	-2
1.56733	-2
1.57100	-2
1.57467	-2
1.57833	-2
1.58200	-2
1.58567	-3
1.58933	-3
1.59300	-4
1.59667	-4
1.60033	-5
1.60400	-6
1.60767	-8
1.61133	-9
1.61500	-11
1.61867	-13
1.62233	-16
1.62600	-18
1.62967	-21
1.63333	-24
1.63700	-27
1.64067	-30
1.64433	-34
1.64800	-37
1.65167	-40
1.65533	-44
1.65900	-47
1.66267	-51
1.66633	-55
1.67000	-59
1.67367	-63
1.67733	-68
1.68100	-72
1.68467	-76
1.68833	-80
1.69200	-83
1.69567	-85
1.69933	-87
1.70300	-89
1.70667	-90
1.71033	-91
1.71400	-92
1.71767	-93
1.72133	-93
1.72500	-94
1.72867	-94
1.73233	-95
1.73600	-95
1.73967	-95
1.74333	-96
1.74700	-96
1.75067	-97
1.75433	-97
1.75800	-98
1.76167	-98
1.76533	-98
1.76900	-98
1.77267	-98
1.77633	-98
1.78000	-97
1.78367	-96
1.78733	-96
1.79100	-95
1.79467	-95
1.79833	-95
1.80200	-95
1.80567	-96
1.80933	-97
1.81300	-97
1.81667	-98
1.82033	-98
1.82400	-99
1.82767	-100
1.83133	-100
1.83500	-100
1.83867	-100
1.84233	-100
1.84600	-100
1.84967	-99
1.85333	-99
1.85700	-99
1.86067	-100
1.86433	-100
1.86800	-99
1.87167	-99
1.87533	-99
1.87900	-99
1.88267	-99
1.88633	-99
1.89000	-99
1.89367	-99
1.89733	-99
1.90100	-98
1.90467	-98
1.90833	-97
1.91200	-98
1.91567	-98
1.91933	-98
1.92300	-98
1.92667	-97
1.93033	-97
1.93400	-97
1.93767	-97
1.94133	-97
1.94500	-97
1.94867	-97
1.95233	-97
1.95600	-96
1.95967	-96
1.96333	-96
1.96700	-95
1.97067	-95
1.97433	-94
1.97800	-94
1.98167	-94
1.98533	-94
1.98900	-93
1.99267	-93
1.99633	-92
2.00000	-91
2.00367	-90
2.00733	-90
2.01100	-90
2.01467	-90
2.01833	-90
2.02200	-90
2.02567	-90
2.02933	-91
2.03300	-91
2.03667	-91
2.04033	-92
2.04400	-92
2.04767	-91
2.05133	-91
2.05500	-90
2.05867	-90
2.06233	-89
2.06600	-89
2.06967	-88
2.07333	-88
2.07700	-88
2.08067	-87
2.08433	-87
2.08800	-86
2.09167	-86
2.09533	-85
2.09900	-84
2.10267	-83
2.10633	-83
2.11000	-83
2.11367	-82
2.11733	-82
2.12100	-82
2.12467	-82
2.12833	-82
2.13200	-82
2.13567	-81
2.13933	-81
2.14300	-80
2.14667	-80
2.15033	-80
2.15400	-80
2.15767	-80
2.16133	-80
2.16500	-81
2.16867	-81
2.17233	-81
2.17600	-81
2.17967	-81
2.18333	-80
2.18700	-80
2.19067	-79
2.19433	-79
2.19800	-78
2.20167	-77
2.20533	-76
2.20900	-76
2.21267	-76
2.21633	-76
2.22000	-76
2.22367	-76
2.22733	-77
2.23100	-77
2.23467	-77
2.23833	-77
2.24200	-76
2.24567	-76
2.24933	-75
2.25300	-75
2.25667	-75
2.26033	-75
2.26400	-75
2.26767	-74
2.27133	-73
2.27500	-72
2.27867	-71
2.28233	-71
2.28600	-70
2.28967	-69
2.29333	-69
2.29700	-68
2.30067	-68
2.30433	-68
2.30800	-68
2.31167	-68
2.31533	-68
2.31900	-68
2.32267	-68
2.32633	-68
2.33000	-68
2.33367	-67
2.33733	-66
2.34100	-66
2.34467	-65
2.34833	-64
2.35200	-63
2.35567	-61
2.35933	-61
2.36300	-60
2.36667	-58
2.37033	-57
2.37400	-54
2.37767	-52
2.38133	-49
2.38500	-45
2.38867	-41
2.39233	-37
2.39600	-33
2.39967	-29
2.40333	-25
2.40700	-21
2.41067	-17
2.41433	-14
2.41800	-11
2.42167	-8
2.42533	-6
2.42900	-4
2.43267	-2
2.43633	-0
2.44000	1
2.44367	3
2.44733	4
2.45100	5
2.45467	6
2.45833	8
2.46200	9
2.46567	10
2.46933	11
2.47300	12
2.47667	13
2.48033	14
2.48400	14
2.48767	14
2.49133	15
2.49500	15
2.49867	15
2.50233	16
2.50600	17
2.50967	17
2.51333	18
2.51700	18
2.52067	18
2.52433	18
2.52800	18
2.53167	18
2.53533	18
2.53900	18
2.54267	17
2.54633	17
2.55000	16
2.55367	16
2.55733	15
2.56100	14
2.56467	13
2.56833	13
2.57200	13
2.57567	13
2.57933	13
2.58300	14
2.58667	14
2.59033	15
2.59400	15
2.59767	16
2.60133	16
2.60500	16
2.60867	17
2.61233	17
2.61600	17
2.61967	17
2.62333	18
2.62700	18
2.63067	19
2.63433	19
2.63800	19
2.64167	20
2.64533	20
2.64900	20
2.65267	20
2.65633	20
2.66000	20
2.66367	20
2.66733	21
2.67100	22
2.67467	22
2.67833	22
2.68200	23
2.68567	23
2.68933	24
2.69300	24
2.69667	25
2.70033	25
2.70400	26
2.70767	26
2.71133	26
2.71500	27
2.71867	27
2.72233	27
2.72600	26
2.72967	26
2.73333	26
2.73700	26
2.74067	26
2.74433	26
2.74800	26
2.75167	27
2.75533	27
2.75900	28
2.76267	28
2.76633	29
2.77000	29
2.77367	29
2.77733	30
2.78100	30
2.78467	31
2.78833	31
2.79200	31
2.79567	31
2.79933	31
2.80300	31
2.80667	31
2.81033	31
2.81400	31
2.81767	30
2.82133	30
2.82500	30
2.82867	30
2.83233	30
2.83600	30
2.83967	30
2.84333	30
2.84700	30
2.85067	29
2.85433	29
2.85800	27
2.86167	24
2.86533	20
2.86900	13
2.87267	2
2.87633	-12
2.88000	-31
2.88367	-56
2.88733	-85
2.89100	-121
2.89467	-162
2.89833	-208
2.90200	-258
2.90567	-314
2.90933	-373
2.91300	-434
2.91667	-499
2.92033	-564
2.92400	-630
2.92767	-696
2.93133	-761
2.93500	-823
2.93867	-882
2.94233	-939
2.94600	-997
2.94967	-1054
2.95333	-1103
2.95700	-1134
2.96067	-1141
2.96433	-1122
2.96800	-1080
2.97167	-1020
2.97533	-946
2.97900	-866
2.98267	-783
2.98633	-700
2.99000	-621
2.99367	-546
2.99733	-478
3.00100	-415
3.00467	-359
3.00833	-309
3.01200	-265
3.01567	-226
3.01933	-192
3.02300	-163
3.02667	-137
3.03033	-115
3.03400	-96
3.03767	-79
3.04133	-65
3.04500	-53
3.04867	-43
3.05233	-34
3.05600	-27
3.05967	-21
3.06333	-16
3.06700	-11
3.07067	-7
3.07433	-3
3.07800	-1
3.08167	2
3.08533	4
3.08900	7
3.09267	8
3.09633	10
3.10000	11
3.10367	12
3.10733	13
3.11100	14
3.11467	15
3.11833	15
3.12200	16
3.12567	17
3.12933	17
3.13300	18
3.13667	18
3.14033	19
3.14400	19
3.14767	19
3.15133	19
3.15500	20
3.15867	20
3.16233	20
3.16600	20
3.16967	20
3.17333	20
3.17700	20
3.18067	21
3.18433	21
3.18800	21
3.19167	22
3.19533	22
3.19900	22
3.20267	22
3.20633	22
3.21000	23
3.21367	23
3.21733	23
3.22100	23
3.22467	23
3.22833	24
3.23200	24
3.23567	24
3.23933	25
3.24300	25
3.24667	25
3.25033	25
3.25400	25
3.25767	25
3.26133	25
3.26500	25
3.26867	25
3.27233	25
3.27600	25
3.27967	25
3.28333	25
3.28700	25
3.29067	24
3.29433	24
3.29800	25
3.30167	25
3.30533	25
3.30900	25
3.31267	26
3.31633	26
3.32000	27
3.32367	27
3.32733	27
3.33100	27
3.33467	28
3.33833	28
3.34200	28
3.34567	28
3.34933	28
3.35300	28
3.35667	28
3.36033	28
3.36400	28
3.36767	28
3.37133	28
3.37500	28
3.37867	27
3.38233	27
3.38600	27
3.38967	28
3.39333	28
3.39700	28
3.40067	28
3.40433	28
3.40800	28
3.41167	28
3.41533	28
3.41900	28
3.42267	28
3.42633	28
3.43000	28
3.43367	28
3.43733	28
3.44100	28
3.44467	28
3.44833	29
3.45200	29
3.45567	29
3.45933	29
3.46300	29
3.46667	29
3.47033	29
3.47400	29
3.47767	29
3.48133	29
3.48500	29
3.48867	29
3.49233	28
3.49600	28
3.49967	28
3.50333	28
3.50700	28
3.51067	28
3.51433	29
3.51800	29
3.52167	29
3.52533	29
3.52900	29
3.53267	29
3.53633	29
3.54000	29
3.54367	29
3.54733	29
3.55100	29
3.55467	29
3.55833	29
3.56200	29
3.56567	29
3.56933	29
3.57300	29
3.57667	29
3.58033	29
3.58400	29
3.58767	29
3.59133	29
3.59500	29
3.59867	29
3.60233	29
3.60600	29
3.60967	29
3.61333	29
3.61700	29
3.62067	29
3.62433	29
3.62800	29
3.63167	29
3.63533	29
3.63900	29
3.64267	29
3.64633	29
3.65000	29
3.65367	29
3.65733	29
3.66100	29
3.66467	29
3.66833	29
3.67200	29
3.67567	29
3.67933	29
3.68300	29
3.68667	29
3.69033	29
3.69400	29
3.69767	29
3.70133	30
3.70500	30
3.70867	30
3.71233	30
3.71600	30
3.71967	30
3.72333	30
3.72700	30
3.73067	30
3.73433	30
3.73800	30
3.74167	30
3.74533	30
3.74900	30
3.75267	30
3.75633	30
3.76000	30
3.76367	29
3.76733	29
3.77100	29
3.77467	28
3.77833	28
3.78200	28
3.78567	28
3.78933	28
3.79300	28
3.79667	28
3.80033	28
3.80400	28
3.80767	28
3.81133	28
3.81500	28
3.81867	29
3.82233	29
3.82600	29
3.82967	29
3.83333	29
3.83700	29
3.84067	29
3.84433	29
3.84800	29
3.85167	29
3.85533	29
3.85900	29
3.86267	29
3.86633	29
3.87000	29
3.87367	29
3.87733	29
3.88100	29
3.88467	29
3.88833	29
3.89200	29
3.89567	30
3.89933	30
3.90300	30
3.90667	30
3.91033	30
3.91400	30
3.91767	30
3.92133	30
3.92500	30
3.92867	30
3.93233	29
3.93600	29
3.93967	30
3.94333	30
3.94700	30
3.95067	30
3.95433	30
3.95800	30
3.96167	30
3.96533	29
3.96900	29
3.97267	29
3.97633	30
3.98000	29
3.98367	29
3.98733	29
3.99100	30
3.99467	30
3.99833	30

[Chromatogram (Ch3)]
Interval(msec)	220
# of Points	1091
Start Time(min)	0.002
End Time(min)	3.998
R.Time (min)	Intensity
0.00167	1
0.00533	1
0.00900	0
0.01267	-1
0.01633	-3
0.02000	-3
0.02367	-1
0.02733	-2
0.03100	-3
0.03467	-7
0.03833	-9
0.04200	-7
0.04567	-5
0.04933	-4
0.05300	-6
0.05667	-6
0.06033	-4
0.06400	-3
0.06767	-3
0.07133	-4
0.07500	-4
0.07867	-4
0.08233	-3
0.08600	-2
0.08967	-2
0.09333	-2
0.09700	-1
0.10067	2
0.10433	4
0.10800	5
0.11167	3
0.11533	1
0.11900	1
0.12267	0
0.12633	-0
0.13000	-2
0.13367	-4
0.13733	-5
0.14100	-4
0.14467	-6
0.14833	-4
0.15200	-4
0.15567	-4
0.15933	1
0.16300	4
0.16667	3
0.17033	3
0.17400	2
0.17767	2
0.18133	4
0.18500	4
0.18867	-0
0.19233	-0
0.19600	0
0.19967	-0
0.20333	-2
0.20700	-4
0.21067	-3
0.21433	-3
0.21800	-2
0.22167	-2
0.22533	-2
0.22900	-1
0.23267	0
0.23633	1
0.24000	0
0.24367	-2
0.24733	-2
0.25100	-1
0.25467	-3
0.25833	-4
0.26200	-4
0.26567	-6
0.26933	-10
0.27300	-13
0.27667	-14
0.28033	-12
0.28400	-10
0.28767	-9
0.29133	-6
0.29500	-5
0.29867	-4
0.30233	-3
0.30600	-3
0.30967	-1
0.31333	-0
0.31700	-1
0.32067	-3
0.32433	-2
0.32800	-1
0.33167	-1
0.33533	-1
0.33900	-3
0.34267	-4
0.34633	-3
0.35000	-2
0.35367	-3
0.35733	-3
0.36100	-3
0.36467	-4
0.36833	-3
0.37200	-3
0.37567	-5
0.37933	-6
0.38300	-8
0.38667	-7
0.39033	-7
0.39400	-6
0.39767	-5
0.40133	-4
0.40500	-3
0.40867	-2
0.41233	-2
0.41600	-5
0.41967	-8
0.42333	-9
0.42700	-11
0.43067	-11
0.43433	-9
0.43800	-7
0.44167	-6
0.44533	-8
0.44900	-6
0.45267	-3
0.45633	-2
0.46000	-2
0.46367	-3
0.46733	-5
0.47100	-5
0.47467	-5
0.47833	-4
0.48200	-3
0.48567	-3
0.48933	-2
0.49300	-2
0.49667	-3
0.50033	-4
0.50400	-5
0.50767	-6
0.51133	-7
0.51500	-5
0.51867	-5
0.52233	-5
0.52600	-4
0.52967	-3
0.53333	-1
0.53700	1
0.54067	2
0.54433	-0
0.54800	-3
0.55167	-5
0.55533	-5
0.55900	-5
0.56267	-6
0.56633	-5
0.57000	-5
0.57367	-7
0.57733	-7
0.58100	-6
0.58467	-7
0.58833	-9
0.59200	-9
0.59567	-10
0.59933	-11
0.60300	-12
0.60667	-12
0.61033	-8
0.61400	-5
0.61767	-3
0.62133	-2
0.62500	-3
0.62867	-3
0.63233	-1
0.63600	-1
0.63967	-2
0.64333	-0
0.64700	0
0.65067	0
0.65433	-2
0.65800	-3
0.66167	-1
0.66533	-0
0.66900	-2
0.67267	-3
0.67633	-4
0.68000	-6
0.68367	-6
0.68733	-6
0.69100	-5
0.69467	-3
0.69833	-4
0.70200	-4
0.70567	-4
0.70933	-4
0.71300	-6
0.71667	-7
0.72033	-6
0.72400	-6
0.72767	-7
0.73133	-7
0.73500	-9
0.73867	-11
0.74233	-8
0.74600	-6
0.74967	-5
0.75333	-2
0.75700	-0
0.76067	1
0.76433	-1
0.76800	-3
0.77167	-3
0.77533	-4
0.77900	-5
0.78267	-4
0.78633	-3
0.79000	-1
0.79367	-1
0.79733	-2
0.80100	-4
0.80467	-4
0.80833	-5
0.81200	-4
0.81567	-6
0.81933	-6
0.82300	-6
0.82667	-6
0.83033	-7
0.83400	-7
0.83767	-7
0.84133	-5
0.84500	-3
0.84867	-1
0.85233	-1
0.85600	-1
0.85967	-0
0.86333	-1
0.86700	-2
0.87067	-4
0.87433	-6
0.87800	-9
0.88167	-11
0.88533	-12
0.88900	-11
0.89267	-9
0.89633	-7
0.90000	-8
0.90367	-8
0.90733	-7
0.91100	-5
0.91467	-4
0.91833	-3
0.92200	-3
0.92567	-3
0.92933	-3
0.93300	-3
0.93667	-2
0.94033	-4
0.94400	-6
0.94767	-6
0.95133	-5
0.95500	-3
0.95867	-0
0.96233	2
0.96600	1
0.96967	-0
0.97333	-3
0.97700	-4
0.98067	-4
0.98433	-4
0.98800	-4
0.99167	-3
0.99533	-2
0.99900	1
1.00267	1
1.00633	-2
1.01000	-3
1.01367	-0
1.01733	-1
1.02100	-1
1.02467	-3
1.02833	-1
1.03200	2
1.03567	2
1.03933	0
1.04300	-3
1.04667	-4
1.05033	-5
1.05400	-4
1.05767	-1
1.06133	1
1.06500	3
1.06867	2
1.07233	2
1.07600	1
1.07967	2
1.08333	1
1.08700	-2
1.09067	-2
1.09433	-2
1.09800	-0
1.10167	1
1.10533	0
1.10900	2
1.11267	2
1.11633	1
1.12000	2
1.12367	3
1.12733	4
1.13100	5
1.13467	4
1.13833	3
1.14200	5
1.14567	8
1.14933	7
1.15300	8
1.15667	8
1.16033	7
1.16400	7
1.16767	5
1.17133	2
1.17500	0
1.17867	-1
1.18233	-2
1.18600	-2
1.18967	-3
1.19333	-2
1.19700	1
1.20067	2
1.20433	1
1.20800	3
1.21167	5
1.21533	1
1.21900	-0
1.22267	-1
1.22633	-2
1.23000	-1
1.23367	-0
1.23733	0
1.24100	1
1.24467	-0
1.24833	-1
1.25200	-0
1.25567	0
1.25933	3
1.26300	2
1.26667	-0
1.27033	2
1.27400	4
1.27767	7
1.28133	7
1.28500	7
1.28867	6
1.29233	4
1.29600	2
1.29967	2
1.30333	3
1.30700	3
1.31067	1
1.31433	2
1.31800	3
1.32167	5
1.32533	6
1.32900	6
1.33267	7
1.33633	5
1.34000	4
1.34367	3
1.34733	0
1.35100	-3
1.35467	-3
1.35833	-2
1.36200	0
1.36567	1
1.36933	0
1.37300	0
1.37667	3
1.38033	6
1.38400	6
1.38767	5
1.39133	3
1.39500	2
1.39867	2
1.40233	2
1.40600	4
1.40967	5
1.41333	7
1.41700	6
1.42067	4
1.42433	3
1.42800	2
1.43167	4
1.43533	2
1.43900	-0
1.44267	-2
1.44633	-4
1.45000	-1
1.45367	0
1.45733	-0
1.46100	1
1.46467	1
1.46833	1
1.47200	3
1.47567	5
1.47933	6
1.48300	8
1.48667	7
1.49033	4
1.49400	0
1.49767	-3
1.50133	-3
1.50500	-2
1.50867	-3
1.51233	-1
1.51600	3
1.51967	5
1.52333	5
1.52700	5
1.53067	3
1.53433	2
1.53800	3
1.54167	5
1.54533	5
1.54900	4
1.55267	4
1.55633	5
1.56000	3
1.56367	-1
1.56733	-3
1.57100	-4
1.57467	-5
1.57833	-4
1.58200	-2
1.58567	0
1.58933	2
1.59300	4
1.59667	5
1.60033	4
1.60400	3
1.60767	3
1.61133	2
1.61500	3
1.61867	5
1.62233	6
1.62600	5
1.62967	7
1.63333	9
1.63700	9
1.64067	9
1.64433	10
1.64800	10
1.65167	8
1.65533	7
1.65900	6
1.66267	6
1.66633	9
1.67000	12
1.67367	12
1.67733	8
1.68100	7
1.68467	8
1.68833	10
1.69200	12
1.69567	14
1.69933	15
1.70300	16
1.70667	16
1.71033	13
1.71400	10
1.71767	8
1.72133	9
1.72500	10
1.72867	10
1.73233	9
1.73600	9
1.73967	13
1.74333	13
1.74700	13
1.75067	12
1.75433	12
1.75800	12
1.76167	13
1.76533	14
1.76900	16
1.77267	16
1.77633	17
1.78000	17
1.78367	17
1.78733	18
1.79100	18
1.79467	17
1.79833	15
1.80200	13
1.80567	14
1.80933	16
1.81300	17
1.81667	22
1.82033	26
1.82400	25
1.82767	23
1.83133	23
1.83500	23
1.83867	22
1.84233	22
1.84600	23
1.84967	25
1.85333	26
1.85700	24
1.86067	22
1.86433	21
1.86800	21
1.87167	23
1.87533	26
1.87900	26
1.88267	26
1.88633	26
1.89000	25
1.89367	25
1.89733	27
1.90100	29
1.90467	30
1.90833	32
1.91200	32
1.91567	33
1.91933	34
1.92300	34
1.92667	33
1.93033	31
1.93400	28
1.93767	26
1.94133	25
1.94500	25
1.94867	25
1.95233	28
1.95600	30
1.95967	32
1.96333	32
1.96700	33
1.97067	33
1.97433	33
1.97800	33
1.98167	34
1.98533	38
1.98900	40
1.99267	38
1.99633	38
2.00000	37
2.00367	39
2.00733	39
2.01100	41
2.01467	44
2.01833	47
2.02200	49
2.02567	51
2.02933	51
2.03300	50
2.03667	48
2.04033	45
2.04400	44
2.04767	43
2.05133	43
2.05500	41
2.05867	39
2.06233	40
2.06600	43
2.06967	46
2.07333	49
2.07700	52
2.08067	53
2.08433	54
2.08800	55
2.09167	53
2.09533	55
2.09900	58
2.10267	59
2.10633	59
2.11000	58
2.11367	58
2.11733	58
2.12100	58
2.12467	57
2.12833	58
2.13200	60
2.13567	61
2.13933	63
2.14300	65
2.14667	64
2.15033	61
2.15400	62
2.15767	65
2.16133	67
2.16500	68
2.16867	68
2.17233	68
2.17600	70
2.17967	73
2.18333	74
2.18700	76
2.19067	77
2.19433	77
2.19800	78
2.20167	81
2.20533	82
2.20900	83
2.21267	83
2.21633	82
2.22000	84
2.22367	84
2.22733	81
2.23100	77
2.23467	74
2.23833	74
2.24200	74
2.24567	76
2.24933	80
2.25300	82
2.25667	83
2.26033	83
2.26400	84
2.26767	84
2.27133	85
2.27500	86
2.27867	89
2.28233	92
2.28600	95
2.28967	95
2.29333	94
2.29700	91
2.30067	90
2.30433	92
2.30800	93
2.31167	93
2.31533	91
2.31900	91
2.32267	92
2.32633	92
2.33000	94
2.33367	95
2.33733	95
2.34100	96
2.34467	99
2.34833	101
2.35200	102
2.35567	100
2.35933	100
2.36300	100
2.36667	99
2.37033	100
2.37400	99
2.37767	97
2.38133	97
2.38500	95
2.38867	90
2.39233	94
2.39600	99
2.39967	104
2.40333	110
2.40700	114
2.41067	117
2.41433	118
2.41800	119
2.42167	119
2.42533	121
2.42900	120
2.43267	117
2.43633	114
2.44000	119
2.44367	169
2.44733	254
2.45100	330
2.45467	381
2.45833	400
2.46200	388
2.46567	362
2.46933	340
2.47300	326
2.47667	314
2.48033	297
2.48400	275
2.48767	247
2.49133	219
2.49500	201
2.49867	190
2.50233	183
2.50600	180
2.50967	179
2.51333	179
2.51700	182
2.52067	185
2.52433	186
2.52800	183
2.53167	175
2.53533	164
2.53900	151
2.54267	136
2.54633	121
2.55000	111
2.55367	104
2.55733	99
2.56100	92
2.56467	87
2.56833	85
2.57200	86
2.57567	90
2.57933	93
2.58300	94
2.58667	97
2.59033	100
2.59400	104
2.59767	110
2.60133	117
2.60500	124
2.60867	131
2.61233	137
2.61600	144
2.61967	148
2.62333	150
2.62700	150
2.63067	147
2.63433	142
2.63800	135
2.64167	125
2.64533	114
2.64900	103
2.65267	94
2.65633	87
2.66000	83
2.66367	78
2.66733	71
2.67100	65
2.67467	59
2.67833	53
2.68200	49
2.68567	48
2.68933	46
2.69300	44
2.69667	42
2.70033	40
2.70400	39
2.70767	40
2.71133	40
2.71500	41
2.71867	43
2.72233	43
2.72600	41
2.72967	41
2.73333	42
2.73700	45
2.74067	45
2.74433	46
2.74800	49
2.75167	51
2.75533	53
2.75900	56
2.76267	57
2.76633	56
2.77000	59
2.77367	63
2.77733	67
2.78100	72
2.78467	76
2.78833	78
2.79200	80
2.79567	82
2.79933	86
2.80300	90
2.80667	93
2.81033	97
2.81400	100
2.81767	104
2.82133	110
2.82500	114
2.82867	115
2.83233	118
2.83600	127
2.83967	147
2.84333	194
2.84700	283
2.85067	436
2.85433	667
2.85800	993
2.86167	1416
2.86533	1919
2.86900	2470
2.87267	3027
2.87633	3546
2.88000	3984
2.88367	4303
2.88733	4489
2.89100	4539
2.89467	4467
2.89833	4293
2.90200	4048
2.90567	3753
2.90933	3431
2.91300	3102
2.91667	2781
2.92033	2475
2.92400	2192
2.92767	1936
2.93133	1703
2.93500	1495
2.93867	1312
2.94233	1150
2.94600	1007
2.94967	882
2.95333	773
2.95700	680
2.96067	594
2.96433	505
2.96800	369
2.97167	193
2.97533	69
2.97900	35
2.98267	75
2.98633	160
2.99000	264
2.99367	373
2.99733	475
3.00100	567
3.00467	647
3.00833	716
3.01200	776
3.01567	826
3.01933	867
3.02300	900
3.02667	926
3.03033	947
3.03400	962
3.03767	974
3.04133	985
3.04500	992
3.04867	995
3.05233	995
3.05600	992
3.05967	988
3.06333	985
3.06700	984
3.07067	980
3.07433	977
3.07800	971
3.08167	965
3.08533	959
3.08900	954
3.09267	950
3.09633	943
3.10000	937
3.10367	932
3.10733	928
3.11100	925
3.11467	922
3.11833	916
3.12200	911
3.12567	907
3.12933	905
3.13300	905
3.13667	903
3.14033	902
3.14400	900
3.14767	895
3.15133	890
3.15500	887
3.15867	887
3.16233	887
3.16600	885
3.16967	883
3.17333	882
3.17700	880
3.18067	879
3.18433	876
3.18800	871
3.19167	866
3.19533	861
3.19900	859
3.20267	857
3.20633	856
3.21000	852
3.21367	848
3.21733	845
3.22100	843
3.22467	842
3.22833	838
3.23200	835
3.23567	831
3.23933	827
3.24300	824
3.24667	823
3.25033	820
3.25400	817
3.25767	816
3.26133	815
3.26500	813
3.26867	810
3.27233	805
3.27600	802
3.27967	800
3.28333	799
3.28700	796
3.29067	792
3.29433	791
3.29800	789
3.30167	788
3.30533	787
3.30900	787
3.31267	789
3.31633	791
3.32000	790
3.32367	790
3.32733	791
3.33100	792
3.33467	794
3.33833	797
3.34200	800
3.34567	802
3.34933	806
3.35300	812
3.35667	821
3.36033	829
3.36400	834
3.36767	841
3.37133	847
3.37500	851
3.37867	855
3.38233	857
3.38600	860
3.38967	863
3.39333	866
3.39700	868
3.40067	869
3.40433	870
3.40800	872
3.41167	874
3.41533	872
3.41900	868
3.42267	864
3.42633	860
3.43000	857
3.43367	855
3.43733	850
3.44100	844
3.44467	837
3.44833	831
3.45200	824
3.45567	816
3.45933	808
3.46300	800
3.46667	792
3.47033	784
3.47400	775
3.47767	765
3.48133	756
3.48500	747
3.48867	737
3.49233	727
3.49600	720
3.49967	715
3.50333	711
3.50700	708
3.51067	705
3.51433	701
3.51800	695
3.52167	690
3.52533	689
3.52900	687
3.53267	682
3.53633	677
3.54000	673
3.54367	668
3.54733	665
3.55100	661
3.55467	658
3.55833	656
3.56200	657
3.56567	659
3.56933	659
3.57300	657
3.57667	653
3.58033	649
3.58400	645
3.58767	646
3.59133	646
3.59500	640
3.59867	634
3.60233	632
3.60600	632
3.60967	630
3.61333	624
3.61700	622
3.62067	621
3.62433	618
3.62800	614
3.63167	611
3.63533	609
3.63900	606
3.64267	604
3.64633	601
3.65000	597
3.65367	594
3.65733	594
3.66100	596
3.66467	598
3.66833	595
3.67200	591
3.67567	587
3.67933	585
3.68300	584
3.68667	585
3.69033	584
3.69400	581
3.69767	579
3.70133	577
3.70500	576
3.70867	576
3.71233	575
3.71600	575
3.71967	573
3.72333	572
3.72700	573
3.73067	571
3.73433	568
3.73800	566
3.74167	565
3.74533	565
3.74900	566
3.75267	565
3.75633	566
3.76000	566
3.76367	565
3.76733	562
3.77100	559
3.77467	556
3.77833	555
3.78200	555
3.78567	554
3.78933	554
3.79300	552
3.79667	551
3.80033	548
3.80400	544
3.80767	543
3.81133	542
3.81500	540
3.81867	539
3.82233	539
3.82600	538
3.82967	537
3.83333	535
3.83700	534
3.84067	533
3.84433	532
3.84800	531
3.85167	531
3.85533	530
3.85900	528
3.86267	525
3.86633	523
3.87000	523
3.87367	527
3.87733	530
3.88100	531
3.88467	530
3.88833	528
3.89200	527
3.89567	524
3.89933	523
3.90300	521
3.90667	518
3.91033	518
3.91400	517
3.91767	517
3.92133	519
3.92500	521
3.92867	520
3.93233	517
3.93600	514
3.93967	513
3.94333	513
3.94700	512
3.95067	509
3.95433	505
3.95800	503
3.96167	503
3.96533	505
3.96900	507
3.97267	509
3.97633	510
3.98000	510
3.98367	506
3.98733	501
3.99100	497
3.99467	493
3.99833	487

[Status Trace (Column Oven Temperature)]
Interval(msec)	1000
# of Points	240
Start Time(min)	0.004
End Time(min)	3.987
Intensity Units	
Intensity Multiplier	1
R.Time (min)	Intensity
0.00350	35.04
0.02017	35.04
0.03683	35.04
0.05350	35.04
0.07017	35.03
0.08683	35.03
0.10350	35.03
0.12017	35.02
0.13683	35.02
0.15350	35.02
0.17017	35.02
0.18683	35.03
0.20350	35.03
0.22017	35.03
0.23683	35.03
0.25350	35.02
0.27017	35.02
0.28683	35.01
0.30350	35.01
0.32017	35.01
0.33683	35.01
0.35350	35.01
0.37017	35.00
0.38683	35.00
0.40350	35.00
0.42017	35.01
0.43683	35.00
0.45350	35.01
0.47017	35.00
0.48683	35.00
0.50350	35.01
0.52017	35.01
0.53683	35.01
0.55350	35.01
0.57017	35.01
0.58683	35.00
0.60350	35.01
0.62017	35.01
0.63683	35.00
0.65350	35.00
0.67017	35.00
0.68683	35.00
0.70350	35.00
0.72017	35.00
0.73683	34.99
0.75350	34.98
0.77017	34.98
0.78683	34.98
0.80350	34.98
0.82017	34.99
0.83683	34.99
0.85350	34.99
0.87017	35.01
0.88683	35.00
0.90350	35.00
0.92017	35.00
0.93683	35.00
0.95350	35.00
0.97017	35.00
0.98683	34.99
1.00350	34.99
1.02017	34.99
1.03683	35.00
1.05350	34.99
1.07017	34.99
1.08683	35.00
1.10350	35.01
1.12017	35.00
1.13683	35.00
1.15350	35.01
1.17017	35.01
1.18683	35.00
1.20350	35.00
1.22017	35.00
1.23683	35.00
1.25350	35.00
1.27017	34.99
1.28683	35.00
1.30350	34.99
1.32017	34.99
1.33683	35.00
1.35350	34.99
1.37017	34.99
1.38683	34.98
1.40350	34.98
1.42017	34.98
1.43683	34.99
1.45350	35.00
1.47017	35.00
1.48683	35.00
1.50350	35.00
1.52017	34.99
1.53683	34.99
1.55350	34.98
1.57017	34.99
1.58683	35.00
1.60350	35.04
1.62017	35.14
1.63683	35.32
1.65350	35.54
1.67017	35.86
1.68683	36.23
1.70350	36.58
1.72017	36.92
1.73683	37.25
1.75350	37.61
1.77017	37.93
1.78683	38.22
1.80350	38.55
1.82017	38.89
1.83683	39.23
1.85350	39.56
1.87017	39.88
1.88683	40.22
1.90350	40.54
1.92017	40.88
1.93683	41.20
1.95350	41.53
1.97017	41.86
1.98683	42.18
2.00350	42.50
2.02017	42.82
2.03683	43.17
2.05350	43.47
2.07017	43.80
2.08683	44.14
2.10350	44.47
2.12017	44.80
2.13683	45.12
2.15350	45.44
2.17017	45.79
2.18683	46.10
2.20350	46.43
2.22017	46.76
2.23683	47.09
2.25350	47.44
2.27017	47.77
2.28683	48.10
2.30350	48.42
2.32017	48.77
2.33683	49.08
2.35350	49.36
2.37017	49.60
2.38683	49.68
2.40350	49.69
2.42017	49.70
2.43683	49.72
2.45350	49.71
2.47017	49.71
2.48683	49.74
2.50350	49.75
2.52017	49.76
2.53683	49.76
2.55350	49.77
2.57017	49.80
2.58683	49.81
2.60350	49.82
2.62017	49.82
2.63683	49.82
2.65350	49.84
2.67017	49.85
2.68683	49.85
2.70350	49.84
2.72017	49.86
2.73683	49.88
2.75350	49.88
2.77017	49.87
2.78683	49.86
2.80350	49.85
2.82017	49.85
2.83683	49.86
2.85350	49.86
2.87017	49.87
2.88683	49.88
2.90350	49.89
2.92017	49.91
2.93683	49.92
2.95350	49.94
2.97017	49.95
2.98683	49.97
3.00350	49.98
3.02017	50.00
3.03683	50.00
3.05350	50.01
3.07017	50.02
3.08683	50.02
3.10350	50.03
3.12017	50.03
3.13683	50.04
3.15350	50.05
3.17017	50.06
3.18683	50.07
3.20350	50.07
3.22017	50.08
3.23683	50.08
3.25350	50.08
3.27017	50.09
3.28683	50.10
3.30350	50.10
3.32017	50.09
3.33683	50.09
3.35350	50.09
3.37017	50.09
3.38683	50.08
3.40350	50.08
3.42017	50.08
3.43683	50.08
3.45350	50.08
3.47017	50.08
3.48683	50.08
3.50350	50.08
3.52017	50.07
3.53683	50.08
3.55350	50.08
3.57017	50.08
3.58683	50.08
3.60350	50.08
3.62017	50.08
3.63683	50.08
3.65350	50.09
3.67017	50.08
3.68683	50.08
3.70350	50.08
3.72017	50.08
3.73683	50.08
3.75350	50.08
3.77017	50.08
3.78683	50.08
3.80350	50.09
3.82017	50.08
3.83683	50.08
3.85350	50.09
3.87017	50.09
3.88683	50.08
3.90350	50.08
3.92017	50.07
3.93683	50.07
3.95350	50.07
3.97017	50.07
3.98683	50.07

[Status Trace (Injection Unit Temperature)]
Interval(msec)	1000
# of Points	240
Start Time(min)	0.004
End Time(min)	3.987
Intensity Units	
Intensity Multiplier	1
R.Time (min)	Intensity
0.00350	99.98
0.02017	99.98
0.03683	99.98
0.05350	99.98
0.07017	99.98
0.08683	99.98
0.10350	99.98
0.12017	99.99
0.13683	99.98
0.15350	99.98
0.17017	99.98
0.18683	99.98
0.20350	99.98
0.22017	99.98
0.23683	99.98
0.25350	99.98
0.27017	99.98
0.28683	99.98
0.30350	99.98
0.32017	99.98
0.33683	99.98
0.35350	99.98
0.37017	99.98
0.38683	99.98
0.40350	99.98
0.42017	99.98
0.43683	99.98
0.45350	99.98
0.47017	99.98
0.48683	99.98
0.50350	99.98
0.52017	99.98
0.53683	99.98
0.55350	99.98
0.57017	99.98
0.58683	99.98
0.60350	99.98
0.62017	99.98
0.63683	99.98
0.65350	99.98
0.67017	99.98
0.68683	99.98
0.70350	99.98
0.72017	99.98
0.73683	99.98
0.75350	99.98
0.77017	99.98
0.78683	99.98
0.80350	99.98
0.82017	99.98
0.83683	99.98
0.85350	99.98
0.87017	99.98
0.88683	99.98
0.90350	99.98
0.92017	99.98
0.93683	99.98
0.95350	99.98
0.97017	99.98
0.98683	99.98
1.00350	99.98
1.02017	99.98
1.03683	99.98
1.05350	99.98
1.07017	99.98
1.08683	99.98
1.10350	99.98
1.12017	99.98
1.13683	99.98
1.15350	99.98
1.17017	99.98
1.18683	99.98
1.20350	99.98
1.22017	99.98
1.23683	99.98
1.25350	99.98
1.27017	99.98
1.28683	99.98
1.30350	99.98
1.32017	99.98
1.33683	99.98
1.35350	99.98
1.37017	99.98
1.38683	99.98
1.40350	99.98
1.42017	99.98
1.43683	99.98
1.45350	99.98
1.47017	99.98
1.48683	99.98
1.50350	99.98
1.52017	99.98
1.53683	99.98
1.55350	99.99
1.57017	99.98
1.58683	99.98
1.60350	99.98
1.62017	99.98
1.63683	99.98
1.65350	99.98
1.67017	99.99
1.68683	99.98
1.70350	99.99
1.72017	99.98
1.73683	99.98
1.75350	99.98
1.77017	99.98
1.78683	99.98
1.80350	99.98
1.82017	99.98
1.83683	99.98
1.85350	99.98
1.87017	99.98
1.88683	99.98
1.90350	99.98
1.92017	99.98
1.93683	99.98
1.95350	99.98
1.97017	99.98
1.98683	99.98
2.00350	99.98
2.02017	99.98
2.03683	99.97
2.05350	99.97
2.07017	99.97
2.08683	99.97
2.10350	99.97
2.12017	99.96
2.13683	99.97
2.15350	99.97
2.17017	99.96
2.18683	99.97
2.20350	99.96
2.22017	99.96
2.23683	99.96
2.25350	99.96
2.27017	99.96
2.28683	99.96
2.30350	99.96
2.32017	99.96
2.33683	99.96
2.35350	99.96
2.37017	99.96
2.38683	99.96
2.40350	99.96
2.42017	99.96
2.43683	99.96
2.45350	99.96
2.47017	99.96
2.48683	99.96
2.50350	99.96
2.52017	99.96
2.53683	99.97
2.55350	99.97
2.57017	99.97
2.58683	99.97
2.60350	99.97
2.62017	99.97
2.63683	99.97
2.65350	99.97
2.67017	99.98
2.68683	99.98
2.70350	99.98
2.72017	99.98
2.73683	99.98
2.75350	99.98
2.77017	99.98
2.78683	99.98
2.80350	99.98
2.82017	99.99
2.83683	99.99
2.85350	99.99
2.87017	99.99
2.88683	99.99
2.90350	99.99
2.92017	100.00
2.93683	100.00
2.95350	99.99
2.97017	100.00
2.98683	100.00
3.00350	100.00
3.02017	100.01
3.03683	100.01
3.05350	100.01
3.07017	100.01
3.08683	100.01
3.10350	100.01
3.12017	100.01
3.13683	100.01
3.15350	100.01
3.17017	100.01
3.18683	100.01
3.20350	100.01
3.22017	100.01
3.23683	100.01
3.25350	100.02
3.27017	100.02
3.28683	100.02
3.30350	100.02
3.32017	100.02
3.33683	100.02
3.35350	100.02
3.37017	100.02
3.38683	100.02
3.40350	100.02
3.42017	100.02
3.43683	100.02
3.45350	100.02
3.47017	100.03
3.48683	100.03
3.50350	100.03
3.52017	100.03
3.53683	100.03
3.55350	100.02
3.57017	100.03
3.58683	100.03
3.60350	100.03
3.62017	100.03
3.63683	100.03
3.65350	100.03
3.67017	100.03
3.68683	100.03
3.70350	100.03
3.72017	100.04
3.73683	100.03
3.75350	100.03
3.77017	100.04
3.78683	100.03
3.80350	100.03
3.82017	100.04
3.83683	100.04
3.85350	100.04
3.87017	100.03
3.88683	100.04
3.90350	100.03
3.92017	100.04
3.93683	100.04
3.95350	100.04
3.97017	100.04
3.98683	100.04

[Status Trace (Carrier Gas Pressure)]
Interval(msec)	1000
# of Points	240
Start Time(min)	0.004
End Time(min)	3.987
Intensity Units	
Intensity Multiplier	1
R.Time (min)	Intensity
0.00350	58.00
0.02017	56.13
0.03683	56.43
0.05350	58.70
0.07017	59.87
0.08683	58.27
0.10350	57.97
0.12017	58.00
0.13683	58.01
0.15350	58.01
0.17017	58.00
0.18683	58.00
0.20350	58.00
0.22017	58.00
0.23683	58.00
0.25350	58.00
0.27017	58.00
0.28683	58.00
0.30350	58.00
0.32017	58.00
0.33683	58.00
0.35350	58.00
0.37017	58.00
0.38683	58.00
0.40350	58.00
0.42017	58.00
0.43683	58.00
0.45350	58.00
0.47017	58.00
0.48683	58.00
0.50350	58.00
0.52017	58.00
0.53683	58.00
0.55350	58.00
0.57017	58.00
0.58683	58.00
0.60350	58.00
0.62017	58.00
0.63683	58.00
0.65350	58.00
0.67017	58.00
0.68683	58.00
0.70350	58.00
0.72017	58.00
0.73683	58.00
0.75350	58.00
0.77017	58.00
0.78683	58.00
0.80350	58.00
0.82017	58.00
0.83683	58.00
0.85350	58.00
0.87017	58.00
0.88683	58.00
0.90350	58.00
0.92017	58.00
0.93683	58.00
0.95350	58.00
0.97017	58.00
0.98683	58.00
1.00350	58.00
1.02017	58.00
1.03683	58.00
1.05350	58.00
1.07017	58.00
1.08683	58.00
1.10350	58.00
1.12017	58.00
1.13683	58.00
1.15350	58.00
1.17017	58.00
1.18683	58.00
1.20350	58.00
1.22017	58.00
1.23683	58.00
1.25350	58.00
1.27017	58.00
1.28683	58.00
1.30350	58.00
1.32017	58.00
1.33683	58.00
1.35350	58.00
1.37017	58.00
1.38683	58.00
1.40350	58.00
1.42017	58.00
1.43683	58.00
1.45350	58.00
1.47017	58.00
1.48683	58.00
1.50350	58.00
1.52017	58.00
1.53683	58.00
1.55350	58.00
1.57017	58.00
1.58683	58.00
1.60350	58.00
1.62017	58.00
1.63683	58.00
1.65350	58.00
1.67017	58.01
1.68683	58.01
1.70350	58.00
1.72017	58.00
1.73683	58.00
1.75350	58.00
1.77017	58.00
1.78683	58.00
1.80350	58.00
1.82017	58.00
1.83683	58.00
1.85350	58.00
1.87017	58.00
1.88683	58.00
1.90350	58.00
1.92017	58.00
1.93683	58.00
1.95350	58.00
1.97017	58.00
1.98683	58.00
2.00350	58.00
2.02017	58.00
2.03683	58.00
2.05350	58.00
2.07017	58.00
2.08683	58.00
2.10350	58.00
2.12017	58.00
2.13683	58.00
2.15350	58.00
2.17017	58.00
2.18683	58.00
2.20350	58.00
2.22017	58.00
2.23683	58.00
2.25350	58.00
2.27017	58.00
2.28683	58.00
2.30350	58.00
2.32017	58.00
2.33683	58.00
2.35350	58.00
2.37017	58.00
2.38683	57.99
2.40350	57.99
2.42017	58.00
2.43683	58.00
2.45350	58.00
2.47017	58.00
2.48683	58.00
2.50350	57.97
2.52017	58.01
2.53683	57.99
2.55350	58.00
2.57017	58.00
2.58683	58.00
2.60350	58.00
2.62017	58.00
2.63683	58.00
2.65350	58.00
2.67017	58.00
2.68683	58.00
2.70350	58.00
2.72017	58.00
2.73683	58.00
2.75350	58.00
2.77017	58.00
2.78683	58.00
2.80350	58.00
2.82017	58.00
2.83683	58.00
2.85350	58.00
2.87017	58.00
2.88683	58.00
2.90350	58.00
2.92017	58.00
2.93683	58.00
2.95350	58.00
2.97017	58.00
2.98683	58.00
3.00350	58.00
3.02017	58.00
3.03683	58.00
3.05350	58.00
3.07017	58.00
3.08683	58.00
3.10350	58.00
3.12017	58.00
3.13683	58.00
3.15350	58.00
3.17017	58.00
3.18683	58.00
3.20350	58.00
3.22017	58.00
3.23683	58.00
3.25350	58.00
3.27017	58.00
3.28683	58.00
3.30350	58.00
3.32017	58.00
3.33683	58.00
3.35350	58.00
3.37017	58.00
3.38683	58.00
3.40350	58.00
3.42017	58.00
3.43683	58.00
3.45350	58.00
3.47017	58.00
3.48683	58.00
3.50350	58.00
3.52017	58.00
3.53683	58.00
3.55350	58.00
3.57017	58.00
3.58683	58.00
3.60350	58.00
3.62017	58.00
3.63683	58.00
3.65350	58.00
3.67017	58.00
3.68683	58.00
3.70350	58.00
3.72017	58.00
3.73683	58.00
3.75350	58.00
3.77017	58.00
3.78683	58.00
3.80350	58.00
3.82017	58.00
3.83683	58.00
3.85350	58.00
3.87017	58.00
3.88683	58.00
3.90350	58.00
3.92017	58.00
3.93683	58.00
3.95350	58.00
3.97017	58.00
3.98683	58.00

[Status Trace (Carrier Gas Flow)]
Interval(msec)	1000
# of Points	240
Start Time(min)	0.004
End Time(min)	3.987
Intensity Units	
Intensity Multiplier	1
R.Time (min)	Intensity
0.00350	34.52
0.02017	34.59
0.03683	34.54
0.05350	34.54
0.07017	34.49
0.08683	34.51
0.10350	34.52
0.12017	34.52
0.13683	34.52
0.15350	34.52
0.17017	34.52
0.18683	34.52
0.20350	34.52
0.22017	34.52
0.23683	34.52
0.25350	34.52
0.27017	34.52
0.28683	34.52
0.30350	34.52
0.32017	34.52
0.33683	34.51
0.35350	34.52
0.37017	34.52
0.38683	34.52
0.40350	34.51
0.42017	34.52
0.43683	34.52
0.45350	34.52
0.47017	34.52
0.48683	34.52
0.50350	34.52
0.52017	34.52
0.53683	34.52
0.55350	34.52
0.57017	34.52
0.58683	34.52
0.60350	34.52
0.62017	34.52
0.63683	34.52
0.65350	34.52
0.67017	34.52
0.68683	34.52
0.70350	34.52
0.72017	34.52
0.73683	34.52
0.75350	34.52
0.77017	34.51
0.78683	34.52
0.80350	34.52
0.82017	34.51
0.83683	34.53
0.85350	34.52
0.87017	34.52
0.88683	34.51
0.90350	34.52
0.92017	34.52
0.93683	34.52
0.95350	34.52
0.97017	34.52
0.98683	34.52
1.00350	34.52
1.02017	34.52
1.03683	34.52
1.05350	34.51
1.07017	34.52
1.08683	34.52
1.10350	34.52
1.12017	34.52
1.13683	34.52
1.15350	34.52
1.17017	34.52
1.18683	34.52
1.20350	34.52
1.22017	34.52
1.23683	34.52
1.25350	34.52
1.27017	34.51
1.28683	34.51
1.30350	34.52
1.32017	34.52
1.33683	34.52
1.35350	34.52
1.37017	34.52
1.38683	34.51
1.40350	34.51
1.42017	34.52
1.43683	34.52
1.45350	34.52
1.47017	34.52
1.48683	34.52
1.50350	34.52
1.52017	34.52
1.53683	34.52
1.55350	34.53
1.57017	34.51
1.58683	34.52
1.60350	34.52
1.62017	34.52
1.63683	34.51
1.65350	34.52
1.67017	34.52
1.68683	34.51
1.70350	34.52
1.72017	34.52
1.73683	34.51
1.75350	34.52
1.77017	34.52
1.78683	34.51
1.80350	34.52
1.82017	34.52
1.83683	34.52
1.85350	34.52
1.87017	34.52
1.88683	34.52
1.90350	34.52
1.92017	34.52
1.93683	34.52
1.95350	34.52
1.97017	34.52
1.98683	34.52
2.00350	34.52
2.02017	34.52
2.03683	34.52
2.05350	34.52
2.07017	34.52
2.08683	34.52
2.10350	34.52
2.12017	34.52
2.13683	34.52
2.15350	34.51
2.17017	34.51
2.18683	34.52
2.20350	34.52
2.22017	34.52
2.23683	34.52
2.25350	34.52
2.27017	34.52
2.28683	34.52
2.30350	34.52
2.32017	34.52
2.33683	34.52
2.35350	34.52
2.37017	34.52
2.38683	34.51
2.40350	34.52
2.42017	34.52
2.43683	34.51
2.45350	34.53
2.47017	34.52
2.48683	34.52
2.50350	34.66
2.52017	34.52
2.53683	34.52
2.55350	34.52
2.57017	34.52
2.58683	34.51
2.60350	34.52
2.62017	34.52
2.63683	34.52
2.65350	34.52
2.67017	34.52
2.68683	34.52
2.70350	34.52
2.72017	34.51
2.73683	34.52
2.75350	34.52
2.77017	34.52
2.78683	34.52
2.80350	34.52
2.82017	34.52
2.83683	34.52
2.85350	34.52
2.87017	34.52
2.88683	34.53
2.90350	34.51
2.92017	34.52
2.93683	34.52
2.95350	34.52
2.97017	34.51
2.98683	34.52
3.00350	34.52
3.02017	34.51
3.03683	34.52
3.05350	34.52
3.07017	34.51
3.08683	34.52
3.10350	34.51
3.12017	34.52
3.13683	34.51
3.15350	34.52
3.17017	34.52
3.18683	34.51
3.20350	34.51
3.22017	34.52
3.23683	34.52
3.25350	34.52
3.27017	34.52
3.28683	34.52
3.30350	34.52
3.32017	34.52
3.33683	34.51
3.35350	34.52
3.37017	34.51
3.38683	34.52
3.40350	34.52
3.42017	34.52
3.43683	34.52
3.45350	34.52
3.47017	34.51
3.48683	34.52
3.50350	34.52
3.52017	34.52
3.53683	34.52
3.55350	34.51
3.57017	34.52
3.58683	34.52
3.60350	34.52
3.62017	34.52
3.63683	34.52
3.65350	34.52
3.67017	34.52
3.68683	34.51
3.70350	34.52
3.72017	34.51
3.73683	34.51
3.75350	34.52
3.77017	34.52
3.78683	34.52
3.80350	34.52
3.82017	34.52
3.83683	34.52
3.85350	34.52
3.87017	34.52
3.88683	34.52
3.90350	34.51
3.92017	34.52
3.93683	34.51
3.95350	34.52
3.97017	34.51
3.98683	34.53

[Status Trace (Column Flow)]
Interval(msec)	1000
# of Points	240
Start Time(min)	0.004
End Time(min)	3.987
Intensity Units	
Intensity Multiplier	1
R.Time (min)	Intensity
0.00350	5.50
0.02017	5.29
0.03683	5.32
0.05350	5.59
0.07017	5.72
0.08683	5.54
0.10350	5.50
0.12017	5.51
0.13683	5.51
0.15350	5.51
0.17017	5.51
0.18683	5.51
0.20350	5.51
0.22017	5.51
0.23683	5.51
0.25350	5.51
0.27017	5.51
0.28683	5.51
0.30350	5.51
0.32017	5.51
0.33683	5.51
0.35350	5.51
0.37017	5.51
0.38683	5.51
0.40350	5.51
0.42017	5.51
0.43683	5.51
0.45350	5.51
0.47017	5.51
0.48683	5.51
0.50350	5.51
0.52017	5.51
0.53683	5.51
0.55350	5.51
0.57017	5.51
0.58683	5.51
0.60350	5.51
0.62017	5.51
0.63683	5.51
0.65350	5.51
0.67017	5.51
0.68683	5.51
0.70350	5.51
0.72017	5.51
0.73683	5.51
0.75350	5.51
0.77017	5.51
0.78683	5.51
0.80350	5.51
0.82017	5.51
0.83683	5.51
0.85350	5.51
0.87017	5.51
0.88683	5.51
0.90350	5.51
0.92017	5.51
0.93683	5.51
0.95350	5.51
0.97017	5.51
0.98683	5.51
1.00350	5.51
1.02017	5.51
1.03683	5.51
1.05350	5.51
1.07017	5.51
1.08683	5.51
1.10350	5.51
1.12017	5.51
1.13683	5.51
1.15350	5.51
1.17017	5.51
1.18683	5.51
1.20350	5.51
1.22017	5.51
1.23683	5.51
1.25350	5.51
1.27017	5.51
1.28683	5.51
1.30350	5.51
1.32017	5.51
1.33683	5.51
1.35350	5.51
1.37017	5.51
1.38683	5.51
1.40350	5.51
1.42017	5.51
1.43683	5.51
1.45350	5.51
1.47017	5.51
1.48683	5.51
1.50350	5.51
1.52017	5.51
1.53683	5.51
1.55350	5.51
1.57017	5.51
1.58683	5.51
1.60350	5.50
1.62017	5.50
1.63683	5.50
1.65350	5.49
1.67017	5.48
1.68683	5.47
1.70350	5.46
1.72017	5.45
1.73683	5.44
1.75350	5.43
1.77017	5.42
1.78683	5.41
1.80350	5.40
1.82017	5.39
1.83683	5.38
1.85350	5.37
1.87017	5.36
1.88683	5.35
1.90350	5.34
1.92017	5.33
1.93683	5.32
1.95350	5.31
1.97017	5.30
1.98683	5.29
2.00350	5.28
2.02017	5.27
2.03683	5.26
2.05350	5.25
2.07017	5.24
2.08683	5.23
2.10350	5.22
2.12017	5.21
2.13683	5.20
2.15350	5.19
2.17017	5.18
2.18683	5.17
2.20350	5.16
2.22017	5.16
2.23683	5.15
2.25350	5.14
2.27017	5.13
2.28683	5.12
2.30350	5.11
2.32017	5.10
2.33683	5.09
2.35350	5.08
2.37017	5.08
2.38683	5.07
2.40350	5.07
2.42017	5.07
2.43683	5.07
2.45350	5.07
2.47017	5.07
2.48683	5.07
2.50350	5.07
2.52017	5.07
2.53683	5.07
2.55350	5.07
2.57017	5.07
2.58683	5.07
2.60350	5.07
2.62017	5.07
2.63683	5.07
2.65350	5.07
2.67017	5.07
2.68683	5.07
2.70350	5.07
2.72017	5.07
2.73683	5.07
2.75350	5.07
2.77017	5.07
2.78683	5.07
2.80350	5.07
2.82017	5.07
2.83683	5.07
2.85350	5.07
2.87017	5.07
2.88683	5.07
2.90350	5.07
2.92017	5.07
2.93683	5.07
2.95350	5.07
2.97017	5.07
2.98683	5.07
3.00350	5.06
3.02017	5.06
3.03683	5.06
3.05350	5.06
3.07017	5.06
3.08683	5.06
3.10350	5.06
3.12017	5.06
3.13683	5.06
3.15350	5.06
3.17017	5.06
3.18683	5.06
3.20350	5.06
3.22017	5.06
3.23683	5.06
3.25350	5.06
3.27017	5.06
3.28683	5.06
3.30350	5.06
3.32017	5.06
3.33683	5.06
3.35350	5.06
3.37017	5.06
3.38683	5.06
3.40350	5.06
3.42017	5.06
3.43683	5.06
3.45350	5.06
3.47017	5.06
3.48683	5.06
3.50350	5.06
3.52017	5.06
3.53683	5.06
3.55350	5.06
3.57017	5.06
3.58683	5.06
3.60350	5.06
3.62017	5.06
3.63683	5.06
3.65350	5.06
3.67017	5.06
3.68683	5.06
3.70350	5.06
3.72017	5.06
3.73683	5.06
3.75350	5.06
3.77017	5.06
3.78683	5.06
3.80350	5.06
3.82017	5.06
3.83683	5.06
3.85350	5.06
3.87017	5.06
3.88683	5.06
3.90350	5.06
3.92017	5.06
3.93683	5.06
3.95350	5.06
3.97017	5.06
3.98683	5.06

[Status Trace (Linear Velocity)]
Interval(msec)	1000
# of Points	240
Start Time(min)	0.004
End Time(min)	3.987
Intensity Units	
Intensity Multiplier	1
R.Time (min)	Intensity
0.00350	39.01
0.02017	37.78
0.03683	37.98
0.05350	39.47
0.07017	40.23
0.08683	39.19
0.10350	38.99
0.12017	39.01
0.13683	39.02
0.15350	39.02
0.17017	39.01
0.18683	39.01
0.20350	39.01
0.22017	39.01
0.23683	39.01
0.25350	39.01
0.27017	39.01
0.28683	39.01
0.30350	39.01
0.32017	39.01
0.33683	39.01
0.35350	39.01
0.37017	39.01
0.38683	39.01
0.40350	39.01
0.42017	39.01
0.43683	39.01
0.45350	39.01
0.47017	39.01
0.48683	39.01
0.50350	39.01
0.52017	39.01
0.53683	39.01
0.55350	39.01
0.57017	39.01
0.58683	39.01
0.60350	39.01
0.62017	39.01
0.63683	39.01
0.65350	39.01
0.67017	39.01
0.68683	39.01
0.70350	39.01
0.72017	39.01
0.73683	39.01
0.75350	39.02
0.77017	39.01
0.78683	39.02
0.80350	39.01
0.82017	39.01
0.83683	39.01
0.85350	39.01
0.87017	39.01
0.88683	39.01
0.90350	39.01
0.92017	39.01
0.93683	39.01
0.95350	39.01
0.97017	39.01
0.98683	39.01
1.00350	39.01
1.02017	39.01
1.03683	39.01
1.05350	39.01
1.07017	39.01
1.08683	39.01
1.10350	39.01
1.12017	39.01
1.13683	39.01
1.15350	39.01
1.17017	39.01
1.18683	39.01
1.20350	39.01
1.22017	39.01
1.23683	39.01
1.25350	39.01
1.27017	39.01
1.28683	39.01
1.30350	39.01
1.32017	39.01
1.33683	39.01
1.35350	39.01
1.37017	39.01
1.38683	39.02
1.40350	39.01
1.42017	39.01
1.43683	39.01
1.45350	39.01
1.47017	39.01
1.48683	39.01
1.50350	39.01
1.52017	39.01
1.53683	39.01
1.55350	39.01
1.57017	39.01
1.58683	39.01
1.60350	39.01
1.62017	39.00
1.63683	38.99
1.65350	38.96
1.67017	38.94
1.68683	38.90
1.70350	38.86
1.72017	38.83
1.73683	38.80
1.75350	38.76
1.77017	38.74
1.78683	38.71
1.80350	38.68
1.82017	38.65
1.83683	38.61
1.85350	38.58
1.87017	38.55
1.88683	38.52
1.90350	38.49
1.92017	38.46
1.93683	38.43
1.95350	38.40
1.97017	38.37
1.98683	38.34
2.00350	38.31
2.02017	38.28
2.03683	38.24
2.05350	38.22
2.07017	38.19
2.08683	38.16
2.10350	38.13
2.12017	38.10
2.13683	38.07
2.15350	38.04
2.17017	38.01
2.18683	37.98
2.20350	37.95
2.22017	37.92
2.23683	37.89
2.25350	37.86
2.27017	37.83
2.28683	37.80
2.30350	37.77
2.32017	37.74
2.33683	37.71
2.35350	37.68
2.37017	37.66
2.38683	37.65
2.40350	37.65
2.42017	37.65
2.43683	37.65
2.45350	37.65
2.47017	37.65
2.48683	37.65
2.50350	37.63
2.52017	37.66
2.53683	37.65
2.55350	37.65
2.57017	37.65
2.58683	37.65
2.60350	37.64
2.62017	37.64
2.63683	37.64
2.65350	37.64
2.67017	37.64
2.68683	37.64
2.70350	37.64
2.72017	37.64
2.73683	37.64
2.75350	37.64
2.77017	37.64
2.78683	37.64
2.80350	37.64
2.82017	37.64
2.83683	37.64
2.85350	37.64
2.87017	37.64
2.88683	37.64
2.90350	37.64
2.92017	37.64
2.93683	37.64
2.95350	37.63
2.97017	37.63
2.98683	37.63
3.00350	37.63
3.02017	37.63
3.03683	37.63
3.05350	37.63
3.07017	37.63
3.08683	37.63
3.10350	37.63
3.12017	37.63
3.13683	37.63
3.15350	37.63
3.17017	37.62
3.18683	37.62
3.20350	37.62
3.22017	37.62
3.23683	37.62
3.25350	37.62
3.27017	37.62
3.28683	37.62
3.30350	37.62
3.32017	37.62
3.33683	37.62
3.35350	37.62
3.37017	37.62
3.38683	37.62
3.40350	37.62
3.42017	37.62
3.43683	37.62
3.45350	37.62
3.47017	37.62
3.48683	37.62
3.50350	37.62
3.52017	37.62
3.53683	37.62
3.55350	37.62
3.57017	37.62
3.58683	37.62
3.60350	37.62
3.62017	37.62
3.63683	37.62
3.65350	37.62
3.67017	37.62
3.68683	37.62
3.70350	37.62
3.72017	37.62
3.73683	37.62
3.75350	37.62
3.77017	37.62
3.78683	37.62
3.80350	37.62
3.82017	37.62
3.83683	37.62
3.85350	37.62
3.87017	37.62
3.88683	37.62
3.90350	37.62
3.92017	37.62
3.93683	37.62
3.95350	37.62
3.97017	37.62
3.98683	37.62

