[Header]
Application Name	LabSolutions
Version	5.110
Data File Name	C:\Users\User\Desktop\Junior\UIC Prairie Sampling\2023\8.2.23\080223_046.gcd
Output Date	8/31/2023
Output Time	12:43:08 PM

[File Information]
Type	Data File
Generated	8/29/2023 8:59:07 PM
Generated by	System Administrator
Modified	8/29/2023 9:05:45 PM
Modified by	System Administrator

[Sample Information]
Operator Name	System Administrator
Acquired	8/29/2023 9:01:44 PM
Sample Type	0:Unknown
Level	0
Sample Name	046
Sample ID	046
ISTD Amount1	1
ISTD Amount2	1
ISTD Amount3	1
ISTD Amount4	1
ISTD Amount5	1
ISTD Amount6	1
ISTD Amount7	1
ISTD Amount8	1
ISTD Amount9	1
ISTD Amount10	1
ISTD Amount11	1
ISTD Amount12	1
ISTD Amount13	1
ISTD Amount14	1
ISTD Amount15	1
ISTD Amount16	1
ISTD Amount17	1
ISTD Amount18	1
ISTD Amount19	1
ISTD Amount20	1
ISTD Amount21	1
ISTD Amount22	1
ISTD Amount23	1
ISTD Amount24	1
ISTD Amount25	1
ISTD Amount26	1
ISTD Amount27	1
ISTD Amount28	1
ISTD Amount29	1
ISTD Amount30	1
ISTD Amount31	1
ISTD Amount32	1
Sample Amount	1
Dilution Factor	1
Vial#	45
Injection Volume	1
Injection Count	1
Bar Code	

[Original Files]
Data File	C:\Users\User\Desktop\Junior\UIC Prairie Sampling\8.2.23\080223_046.gcd
Method File	C:\LabSolutions\Data\GHG_4min_2022\ghg3_togas_w_acet_4 min_new_int.gcm
Batch File	C:\LabSolutions\Data\BATCH FILES\080223.gcb
Report Format File	c:\LabSolutions\System\DEFAULT.lsr

[File Description]


[Configuration]
Instrument Name	C0B7VH3-Instrument1
Instrument #	1
Line #	1
# of Detectors	3
Detector ID	DET#1	DET#2	DET#3
Detector Name	FID	PTCD	ECD
# of Channels	1	1	1

[Peak Table(Ch1)]
# of Peaks	4
Peak#	R.Time	I.Time	F.Time	Area	Height	A/H	Conc.	Mark	ID#	Name	k'	Plate #	Plate Ht.	Tailing	Resolution	Sep.Factor	Area Ratio	Height Ratio	Conc. %	Norm Conc.
1	0.299	0.181	0.398	1085	172	6.299	0.000	   			0.000	49	3044.506	0.933	0.000	0.000	0	0	0.000	0.000
2	1.472	1.424	1.531	7991	3975	2.011	0.000	   	1	CO	3.929	10005	14.993	1.300	10.244	0.000	0	0	0.000	0.000
3	1.564	1.531	1.637	4624	2325	1.989	22.543	 V 	2	CH4	4.235	11510	13.032	1.153	1.565	1.078	0	0	6.486	6.486
4	1.989	1.945	2.480	1686460	813502	2.073	325.012	   	3	CO2	5.660	17642	8.503	1.301	7.197	1.336	0	0	93.514	93.514

[Peak Table(Ch2)]
# of Peaks	0

[Peak Table(Ch3)]
# of Peaks	5
Peak#	R.Time	I.Time	F.Time	Area	Height	A/H	Conc.	Mark	ID#	Name	k'	Plate #	Plate Ht.	Tailing	Resolution	Sep.Factor	Area Ratio	Height Ratio	Conc. %	Norm Conc.
1	2.458	2.396	2.506	765	282	2.710	0.000	   			0.000	13378	11.212	0.000	0.000	0.000	0	0	0.000	0.000
2	2.524	2.506	2.568	283	117	2.419	0.000	 V 			0.027	7078	21.191	0.000	0.644	0.000	0	0	0.000	0.000
3	2.623	2.568	2.682	341	94	3.646	0.000	 V 			0.067	8918	16.820	0.000	0.857	2.500	0	0	0.000	0.000
4	2.891	2.836	2.968	12761	3803	3.355	0.189	   	1	N2O	0.176	14901	10.067	1.319	2.601	2.622	0	0	100.000	100.000
5	3.419	3.298	3.635	999	132	7.588	0.000	   			0.391	5512	27.211	1.339	3.786	2.220	0	0	0.000	0.000

[Compound Results(Ch1)]
# of IDs	6
ID#	Name	R.Time	Area	Height	Conc.	Curve	3rd	2nd	1st	Constant	Area Ratio	Height Ratio	Conc. %	Norm Conc.
1	CO	1.472	7991	3975	0.000	Linear	0.000000e+00	0.000000e+00	0.000000e+00	0.000000e+00	0	0	0.000	0.000
2	CH4	1.564	4624	2325	22.543	Linear	0.000000e+00	0.000000e+00	2.051179e+002	0.000000e+00	0	0	6.486	6.486
3	CO2	1.989	1686460	813502	325.012	Linear	0.000000e+00	0.000000e+00	5.188919e+003	0.000000e+00	0	0	93.514	93.514
4	Ethylene	0.000	0	0	0.000	Linear	0.000000e+00	0.000000e+00	0.000000e+00	0.000000e+00	0	0	0.000	0.000
5	Acetylene	0.000	0	0	0.000	Linear	0.000000e+00	0.000000e+00	0.000000e+00	0.000000e+00	0	0	0.000	0.000
6	Ethane	0.000	0	0	0.000	Linear	0.000000e+00	0.000000e+00	0.000000e+00	0.000000e+00	0	0	0.000	0.000

[Compound Results(Ch2)]
# of IDs	5
ID#	Name	R.Time	Area	Height	Conc.	Curve	3rd	2nd	1st	Constant	Area Ratio	Height Ratio	Conc. %	Norm Conc.
1	Hydrogen	0.000	0	0	0.000	Linear	0.000000e+00	0.000000e+00	0.000000e+00	0.000000e+00	0	0	0.000	0.000
2	Oxygen	0.000	0	0	0.000	Linear	0.000000e+00	0.000000e+00	0.000000e+00	0.000000e+00	0	0	0.000	0.000
3	Nitrogen	0.000	0	0	0.000	Linear	0.000000e+00	0.000000e+00	0.000000e+00	0.000000e+00	0	0	0.000	0.000
4	Methane	0.000	0	0	0.000	Linear	0.000000e+00	0.000000e+00	0.000000e+00	0.000000e+00	0	0	0.000	0.000
5	Carbon Monoxide	0.000	0	0	0.000	Linear	0.000000e+00	0.000000e+00	0.000000e+00	0.000000e+00	0	0	0.000	0.000

[Compound Results(Ch3)]
# of IDs	2
ID#	Name	R.Time	Area	Height	Conc.	Curve	3rd	2nd	1st	Constant	Area Ratio	Height Ratio	Conc. %	Norm Conc.
1	N2O	2.891	12761	3803	0.189	Linear	0.000000e+00	0.000000e+00	6.759880e+004	0.000000e+00	0	0	100.000	100.000
2	SF6	0.000	0	0	0.000	Linear	0.000000e+00	0.000000e+00	0.000000e+00	0.000000e+00	0	0	0.000	0.000

[Group Results(Ch1)]
# of Groups	0

[Group Results(Ch2)]
# of Groups	0

[Group Results(Ch3)]
# of Groups	0

[Chromatogram (Ch1)]
Interval(msec)	220
# of Points	1091
Start Time(min)	0.002
End Time(min)	3.998
R.Time (min)	Intensity
0.00167	-14
0.00533	-13
0.00900	-13
0.01267	-12
0.01633	-12
0.02000	-11
0.02367	-10
0.02733	-8
0.03100	-5
0.03467	-1
0.03833	3
0.04200	5
0.04567	5
0.04933	5
0.05300	4
0.05667	3
0.06033	1
0.06400	-3
0.06767	-6
0.07133	-7
0.07500	-7
0.07867	-4
0.08233	-0
0.08600	-0
0.08967	-4
0.09333	-8
0.09700	-10
0.10067	-9
0.10433	-7
0.10800	-6
0.11167	-7
0.11533	-7
0.11900	-4
0.12267	-1
0.12633	0
0.13000	2
0.13367	3
0.13733	4
0.14100	5
0.14467	7
0.14833	6
0.15200	4
0.15567	2
0.15933	2
0.16300	0
0.16667	-2
0.17033	-6
0.17400	-6
0.17767	-3
0.18133	1
0.18500	5
0.18867	11
0.19233	17
0.19600	22
0.19967	27
0.20333	31
0.20700	34
0.21067	37
0.21433	39
0.21800	42
0.22167	46
0.22533	51
0.22900	55
0.23267	57
0.23633	59
0.24000	64
0.24367	73
0.24733	84
0.25100	96
0.25467	107
0.25833	117
0.26200	125
0.26567	129
0.26933	133
0.27300	136
0.27667	139
0.28033	143
0.28400	154
0.28767	167
0.29133	174
0.29500	177
0.29867	177
0.30233	175
0.30600	168
0.30967	157
0.31333	146
0.31700	138
0.32067	136
0.32433	136
0.32800	137
0.33167	133
0.33533	125
0.33900	114
0.34267	104
0.34633	97
0.35000	91
0.35367	83
0.35733	72
0.36100	64
0.36467	58
0.36833	55
0.37200	53
0.37567	52
0.37933	51
0.38300	48
0.38667	41
0.39033	31
0.39400	20
0.39767	9
0.40133	0
0.40500	-0
0.40867	6
0.41233	15
0.41600	20
0.41967	19
0.42333	15
0.42700	7
0.43067	2
0.43433	0
0.43800	-1
0.44167	-4
0.44533	-5
0.44900	-5
0.45267	-2
0.45633	4
0.46000	9
0.46367	9
0.46733	6
0.47100	3
0.47467	-3
0.47833	-9
0.48200	-12
0.48567	-14
0.48933	-17
0.49300	-19
0.49667	-20
0.50033	-20
0.50400	-17
0.50767	-14
0.51133	-12
0.51500	-14
0.51867	-16
0.52233	-14
0.52600	-11
0.52967	-10
0.53333	-12
0.53700	-12
0.54067	-13
0.54433	-16
0.54800	-24
0.55167	-29
0.55533	-31
0.55900	-28
0.56267	-27
0.56633	-23
0.57000	-18
0.57367	-17
0.57733	-19
0.58100	-18
0.58467	-19
0.58833	-20
0.59200	-18
0.59567	-15
0.59933	-11
0.60300	-9
0.60667	-10
0.61033	-12
0.61400	-16
0.61767	-19
0.62133	-19
0.62500	-14
0.62867	-10
0.63233	-7
0.63600	-8
0.63967	-11
0.64333	-14
0.64700	-17
0.65067	-19
0.65433	-18
0.65800	-15
0.66167	-13
0.66533	-12
0.66900	-9
0.67267	-7
0.67633	-7
0.68000	-8
0.68367	-11
0.68733	-14
0.69100	-18
0.69467	-22
0.69833	-23
0.70200	-20
0.70567	-15
0.70933	-12
0.71300	-12
0.71667	-14
0.72033	-16
0.72400	-16
0.72767	-15
0.73133	-13
0.73500	-12
0.73867	-14
0.74233	-18
0.74600	-19
0.74967	-16
0.75333	-13
0.75700	-14
0.76067	-18
0.76433	-22
0.76800	-24
0.77167	-24
0.77533	-25
0.77900	-29
0.78267	-33
0.78633	-35
0.79000	-32
0.79367	-26
0.79733	-19
0.80100	-15
0.80467	-16
0.80833	-21
0.81200	-24
0.81567	-26
0.81933	-28
0.82300	-32
0.82667	-34
0.83033	-32
0.83400	-29
0.83767	-27
0.84133	-25
0.84500	-20
0.84867	-17
0.85233	-15
0.85600	-15
0.85967	-15
0.86333	-16
0.86700	-17
0.87067	-18
0.87433	-19
0.87800	-23
0.88167	-29
0.88533	-33
0.88900	-33
0.89267	-32
0.89633	-29
0.90000	-25
0.90367	-18
0.90733	-14
0.91100	-14
0.91467	-18
0.91833	-19
0.92200	-19
0.92567	-17
0.92933	-16
0.93300	-16
0.93667	-17
0.94033	-18
0.94400	-20
0.94767	-19
0.95133	-19
0.95500	-20
0.95867	-25
0.96233	-33
0.96600	-38
0.96967	-43
0.97333	-44
0.97700	-42
0.98067	-34
0.98433	-26
0.98800	-20
0.99167	-15
0.99533	-13
0.99900	-15
1.00267	-18
1.00633	-21
1.01000	-24
1.01367	-25
1.01733	-21
1.02100	-17
1.02467	-13
1.02833	-9
1.03200	-6
1.03567	-7
1.03933	-12
1.04300	-18
1.04667	-24
1.05033	-27
1.05400	-28
1.05767	-28
1.06133	-26
1.06500	-25
1.06867	-24
1.07233	-20
1.07600	-19
1.07967	-23
1.08333	-29
1.08700	-36
1.09067	-39
1.09433	-41
1.09800	-43
1.10167	-42
1.10533	-40
1.10900	-37
1.11267	-32
1.11633	-26
1.12000	-24
1.12367	-23
1.12733	-23
1.13100	-25
1.13467	-28
1.13833	-33
1.14200	-38
1.14567	-43
1.14933	-46
1.15300	-47
1.15667	-46
1.16033	-41
1.16400	-35
1.16767	-28
1.17133	-22
1.17500	-19
1.17867	-21
1.18233	-26
1.18600	-30
1.18967	-31
1.19333	-29
1.19700	-27
1.20067	-25
1.20433	-25
1.20800	-26
1.21167	-31
1.21533	-38
1.21900	-43
1.22267	-47
1.22633	-48
1.23000	-43
1.23367	-35
1.23733	-33
1.24100	-35
1.24467	-39
1.24833	-43
1.25200	-45
1.25567	-44
1.25933	-41
1.26300	-34
1.26667	-25
1.27033	-19
1.27400	-19
1.27767	-22
1.28133	-26
1.28500	-30
1.28867	-36
1.29233	-41
1.29600	-44
1.29967	-43
1.30333	-43
1.30700	-45
1.31067	-46
1.31433	-45
1.31800	-45
1.32167	-42
1.32533	-38
1.32900	-34
1.33267	-33
1.33633	-32
1.34000	-31
1.34367	-31
1.34733	-30
1.35100	-32
1.35467	-36
1.35833	-40
1.36200	-47
1.36567	-54
1.36933	-58
1.37300	-57
1.37667	-55
1.38033	-53
1.38400	-48
1.38767	-41
1.39133	-34
1.39500	-29
1.39867	-25
1.40233	-25
1.40600	-29
1.40967	-36
1.41333	-42
1.41700	-45
1.42067	-44
1.42433	-41
1.42800	-37
1.43167	-32
1.43533	-22
1.43900	-2
1.44267	31
1.44633	179
1.45000	603
1.45367	1306
1.45733	2111
1.46100	2852
1.46467	3439
1.46833	3816
1.47200	3931
1.47567	3749
1.47933	3307
1.48300	2711
1.48667	2091
1.49033	1540
1.49400	1097
1.49767	766
1.50133	530
1.50500	364
1.50867	251
1.51233	175
1.51600	122
1.51967	83
1.52333	52
1.52700	29
1.53067	19
1.53433	47
1.53800	170
1.54167	448
1.54533	862
1.54900	1324
1.55267	1741
1.55633	2058
1.56000	2246
1.56367	2275
1.56733	2127
1.57100	1830
1.57467	1456
1.57833	1081
1.58200	761
1.58567	516
1.58933	339
1.59300	216
1.59667	130
1.60033	72
1.60400	34
1.60767	9
1.61133	-7
1.61500	-17
1.61867	-22
1.62233	-27
1.62600	-33
1.62967	-41
1.63333	-48
1.63700	-55
1.64067	-61
1.64433	-63
1.64800	-65
1.65167	-66
1.65533	-67
1.65900	-66
1.66267	-62
1.66633	-60
1.67000	-58
1.67367	-59
1.67733	-61
1.68100	-61
1.68467	-60
1.68833	-61
1.69200	-60
1.69567	-59
1.69933	-55
1.70300	-51
1.70667	-47
1.71033	-43
1.71400	-40
1.71767	-36
1.72133	-32
1.72500	-29
1.72867	-28
1.73233	-29
1.73600	-30
1.73967	-31
1.74333	-33
1.74700	-38
1.75067	-44
1.75433	-49
1.75800	-53
1.76167	-58
1.76533	-63
1.76900	-63
1.77267	-60
1.77633	-58
1.78000	-58
1.78367	-58
1.78733	-59
1.79100	-61
1.79467	-61
1.79833	-59
1.80200	-55
1.80567	-49
1.80933	-45
1.81300	-45
1.81667	-50
1.82033	-55
1.82400	-61
1.82767	-68
1.83133	-72
1.83500	-70
1.83867	-65
1.84233	-59
1.84600	-52
1.84967	-47
1.85333	-44
1.85700	-44
1.86067	-45
1.86433	-45
1.86800	-43
1.87167	-41
1.87533	-40
1.87900	-41
1.88267	-42
1.88633	-43
1.89000	-42
1.89367	-40
1.89733	-39
1.90100	-43
1.90467	-50
1.90833	-55
1.91200	-58
1.91567	-57
1.91933	-54
1.92300	-51
1.92667	-48
1.93033	-47
1.93400	-48
1.93767	-50
1.94133	-52
1.94500	-42
1.94867	61
1.95233	715
1.95600	3882
1.95967	15353
1.96333	46915
1.96700	114060
1.97067	225522
1.97433	372419
1.97800	530348
1.98167	670782
1.98533	770160
1.98900	813493
1.99267	796267
1.99633	725516
2.00000	618266
2.00367	496162
2.00733	378477
2.01100	277497
2.01467	197848
2.01833	138710
2.02200	96617
2.02567	67498
2.02933	47706
2.03300	34369
2.03667	25392
2.04033	19314
2.04400	15154
2.04767	12257
2.05133	10198
2.05500	8700
2.05867	7578
2.06233	6717
2.06600	6039
2.06967	5492
2.07333	5039
2.07700	4657
2.08067	4330
2.08433	4050
2.08800	3804
2.09167	3586
2.09533	3390
2.09900	3213
2.10267	3051
2.10633	2905
2.11000	2769
2.11367	2644
2.11733	2527
2.12100	2419
2.12467	2318
2.12833	2228
2.13200	2147
2.13567	2073
2.13933	2002
2.14300	1932
2.14667	1863
2.15033	1796
2.15400	1735
2.15767	1683
2.16133	1635
2.16500	1591
2.16867	1546
2.17233	1501
2.17600	1456
2.17967	1413
2.18333	1374
2.18700	1338
2.19067	1305
2.19433	1273
2.19800	1241
2.20167	1213
2.20533	1189
2.20900	1163
2.21267	1135
2.21633	1106
2.22000	1077
2.22367	1047
2.22733	1018
2.23100	990
2.23467	967
2.23833	947
2.24200	928
2.24567	908
2.24933	888
2.25300	871
2.25667	857
2.26033	842
2.26400	827
2.26767	814
2.27133	803
2.27500	791
2.27867	778
2.28233	763
2.28600	747
2.28967	731
2.29333	717
2.29700	705
2.30067	691
2.30433	675
2.30800	661
2.31167	651
2.31533	644
2.31900	637
2.32267	631
2.32633	625
2.33000	617
2.33367	607
2.33733	595
2.34100	583
2.34467	568
2.34833	552
2.35200	537
2.35567	526
2.35933	521
2.36300	522
2.36667	525
2.37033	525
2.37400	522
2.37767	514
2.38133	506
2.38500	499
2.38867	496
2.39233	494
2.39600	487
2.39967	474
2.40333	459
2.40700	446
2.41067	437
2.41433	430
2.41800	427
2.42167	428
2.42533	427
2.42900	427
2.43267	427
2.43633	426
2.44000	423
2.44367	414
2.44733	402
2.45100	389
2.45467	381
2.45833	378
2.46200	376
2.46567	373
2.46933	366
2.47300	360
2.47667	356
2.48033	357
2.48400	360
2.48767	364
2.49133	368
2.49500	368
2.49867	364
2.50233	359
2.50600	353
2.50967	348
2.51333	346
2.51700	344
2.52067	341
2.52433	336
2.52800	329
2.53167	321
2.53533	315
2.53900	308
2.54267	301
2.54633	296
2.55000	293
2.55367	291
2.55733	291
2.56100	290
2.56467	288
2.56833	286
2.57200	281
2.57567	275
2.57933	272
2.58300	272
2.58667	273
2.59033	273
2.59400	275
2.59767	274
2.60133	272
2.60500	271
2.60867	268
2.61233	262
2.61600	256
2.61967	251
2.62333	249
2.62700	249
2.63067	251
2.63433	254
2.63800	257
2.64167	261
2.64533	263
2.64900	259
2.65267	253
2.65633	247
2.66000	241
2.66367	237
2.66733	236
2.67100	236
2.67467	234
2.67833	229
2.68200	228
2.68567	229
2.68933	231
2.69300	231
2.69667	227
2.70033	220
2.70400	216
2.70767	219
2.71133	224
2.71500	231
2.71867	233
2.72233	229
2.72600	225
2.72967	223
2.73333	222
2.73700	220
2.74067	220
2.74433	218
2.74800	216
2.75167	215
2.75533	214
2.75900	212
2.76267	210
2.76633	210
2.77000	210
2.77367	206
2.77733	202
2.78100	200
2.78467	198
2.78833	195
2.79200	194
2.79567	195
2.79933	199
2.80300	205
2.80667	205
2.81033	200
2.81400	195
2.81767	190
2.82133	188
2.82500	187
2.82867	184
2.83233	181
2.83600	179
2.83967	179
2.84333	182
2.84700	181
2.85067	178
2.85433	174
2.85800	171
2.86167	170
2.86533	170
2.86900	173
2.87267	175
2.87633	173
2.88000	172
2.88367	172
2.88733	170
2.89100	169
2.89467	170
2.89833	169
2.90200	170
2.90567	171
2.90933	172
2.91300	172
2.91667	173
2.92033	173
2.92400	174
2.92767	175
2.93133	174
2.93500	173
2.93867	174
2.94233	175
2.94600	177
2.94967	176
2.95333	175
2.95700	171
2.96067	167
2.96433	164
2.96800	158
2.97167	153
2.97533	151
2.97900	153
2.98267	158
2.98633	163
2.99000	168
2.99367	169
2.99733	169
3.00100	165
3.00467	161
3.00833	157
3.01200	154
3.01567	152
3.01933	149
3.02300	146
3.02667	145
3.03033	145
3.03400	146
3.03767	150
3.04133	154
3.04500	155
3.04867	152
3.05233	148
3.05600	140
3.05967	129
3.06333	122
3.06700	122
3.07067	125
3.07433	131
3.07800	135
3.08167	136
3.08533	135
3.08900	131
3.09267	130
3.09633	132
3.10000	136
3.10367	142
3.10733	147
3.11100	148
3.11467	142
3.11833	136
3.12200	131
3.12567	129
3.12933	128
3.13300	128
3.13667	128
3.14033	127
3.14400	126
3.14767	123
3.15133	118
3.15500	113
3.15867	111
3.16233	112
3.16600	111
3.16967	108
3.17333	105
3.17700	105
3.18067	109
3.18433	113
3.18800	118
3.19167	120
3.19533	118
3.19900	115
3.20267	110
3.20633	108
3.21000	108
3.21367	110
3.21733	112
3.22100	115
3.22467	118
3.22833	120
3.23200	119
3.23567	114
3.23933	107
3.24300	106
3.24667	111
3.25033	117
3.25400	120
3.25767	120
3.26133	119
3.26500	116
3.26867	111
3.27233	101
3.27600	91
3.27967	83
3.28333	80
3.28700	82
3.29067	87
3.29433	93
3.29800	99
3.30167	105
3.30533	111
3.30900	114
3.31267	114
3.31633	113
3.32000	114
3.32367	115
3.32733	112
3.33100	104
3.33467	99
3.33833	98
3.34200	97
3.34567	95
3.34933	95
3.35300	98
3.35667	99
3.36033	99
3.36400	97
3.36767	94
3.37133	92
3.37500	90
3.37867	88
3.38233	86
3.38600	84
3.38967	82
3.39333	83
3.39700	85
3.40067	88
3.40433	89
3.40800	89
3.41167	93
3.41533	97
3.41900	100
3.42267	100
3.42633	96
3.43000	92
3.43367	89
3.43733	85
3.44100	79
3.44467	75
3.44833	72
3.45200	70
3.45567	70
3.45933	68
3.46300	65
3.46667	60
3.47033	57
3.47400	62
3.47767	73
3.48133	84
3.48500	89
3.48867	88
3.49233	85
3.49600	83
3.49967	80
3.50333	77
3.50700	74
3.51067	76
3.51433	78
3.51800	81
3.52167	83
3.52533	80
3.52900	76
3.53267	75
3.53633	78
3.54000	82
3.54367	84
3.54733	81
3.55100	74
3.55467	66
3.55833	62
3.56200	61
3.56567	61
3.56933	60
3.57300	61
3.57667	65
3.58033	71
3.58400	73
3.58767	73
3.59133	73
3.59500	71
3.59867	67
3.60233	61
3.60600	56
3.60967	53
3.61333	52
3.61700	52
3.62067	52
3.62433	53
3.62800	57
3.63167	61
3.63533	63
3.63900	61
3.64267	57
3.64633	54
3.65000	54
3.65367	56
3.65733	57
3.66100	58
3.66467	59
3.66833	57
3.67200	57
3.67567	56
3.67933	56
3.68300	54
3.68667	53
3.69033	52
3.69400	51
3.69767	51
3.70133	51
3.70500	51
3.70867	52
3.71233	50
3.71600	49
3.71967	50
3.72333	50
3.72700	48
3.73067	45
3.73433	41
3.73800	42
3.74167	45
3.74533	49
3.74900	55
3.75267	60
3.75633	63
3.76000	63
3.76367	60
3.76733	56
3.77100	53
3.77467	48
3.77833	43
3.78200	38
3.78567	37
3.78933	42
3.79300	50
3.79667	57
3.80033	62
3.80400	65
3.80767	64
3.81133	57
3.81500	48
3.81867	40
3.82233	35
3.82600	33
3.82967	31
3.83333	31
3.83700	37
3.84067	46
3.84433	53
3.84800	55
3.85167	54
3.85533	51
3.85900	48
3.86267	44
3.86633	40
3.87000	37
3.87367	32
3.87733	27
3.88100	25
3.88467	25
3.88833	26
3.89200	25
3.89567	23
3.89933	22
3.90300	25
3.90667	32
3.91033	35
3.91400	30
3.91767	22
3.92133	19
3.92500	25
3.92867	34
3.93233	41
3.93600	44
3.93967	44
3.94333	38
3.94700	27
3.95067	17
3.95433	12
3.95800	11
3.96167	11
3.96533	11
3.96900	12
3.97267	17
3.97633	20
3.98000	23
3.98367	23
3.98733	21
3.99100	21
3.99467	20
3.99833	19

[Chromatogram (Ch2)]
Interval(msec)	220
# of Points	1091
Start Time(min)	0.002
End Time(min)	3.998
R.Time (min)	Intensity
0.00167	-0
0.00533	-0
0.00900	-0
0.01267	0
0.01633	0
0.02000	0
0.02367	0
0.02733	0
0.03100	0
0.03467	0
0.03833	0
0.04200	0
0.04567	0
0.04933	0
0.05300	0
0.05667	0
0.06033	1
0.06400	1
0.06767	0
0.07133	0
0.07500	0
0.07867	0
0.08233	0
0.08600	1
0.08967	1
0.09333	1
0.09700	1
0.10067	1
0.10433	1
0.10800	1
0.11167	1
0.11533	1
0.11900	1
0.12267	1
0.12633	1
0.13000	1
0.13367	1
0.13733	1
0.14100	1
0.14467	1
0.14833	1
0.15200	1
0.15567	1
0.15933	1
0.16300	1
0.16667	1
0.17033	1
0.17400	1
0.17767	1
0.18133	1
0.18500	1
0.18867	1
0.19233	1
0.19600	1
0.19967	1
0.20333	1
0.20700	1
0.21067	1
0.21433	1
0.21800	1
0.22167	1
0.22533	1
0.22900	1
0.23267	1
0.23633	1
0.24000	1
0.24367	1
0.24733	1
0.25100	0
0.25467	0
0.25833	0
0.26200	0
0.26567	0
0.26933	0
0.27300	0
0.27667	0
0.28033	0
0.28400	1
0.28767	1
0.29133	0
0.29500	0
0.29867	0
0.30233	0
0.30600	1
0.30967	1
0.31333	0
0.31700	0
0.32067	0
0.32433	0
0.32800	0
0.33167	0
0.33533	0
0.33900	0
0.34267	0
0.34633	0
0.35000	-0
0.35367	-0
0.35733	-0
0.36100	-1
0.36467	-1
0.36833	-1
0.37200	-1
0.37567	-0
0.37933	-0
0.38300	-0
0.38667	0
0.39033	0
0.39400	0
0.39767	0
0.40133	0
0.40500	1
0.40867	1
0.41233	1
0.41600	1
0.41967	0
0.42333	0
0.42700	0
0.43067	-0
0.43433	-0
0.43800	-0
0.44167	-0
0.44533	-0
0.44900	0
0.45267	0
0.45633	0
0.46000	1
0.46367	1
0.46733	0
0.47100	0
0.47467	-0
0.47833	-0
0.48200	-1
0.48567	-1
0.48933	-1
0.49300	-1
0.49667	-1
0.50033	-0
0.50400	-0
0.50767	-1
0.51133	-1
0.51500	-1
0.51867	-1
0.52233	-1
0.52600	-1
0.52967	-1
0.53333	-1
0.53700	-1
0.54067	-1
0.54433	-0
0.54800	-0
0.55167	-0
0.55533	-1
0.55900	-1
0.56267	-1
0.56633	-1
0.57000	-1
0.57367	-1
0.57733	-1
0.58100	-1
0.58467	-1
0.58833	-0
0.59200	-0
0.59567	0
0.59933	-0
0.60300	-0
0.60667	-0
0.61033	-0
0.61400	-1
0.61767	-1
0.62133	-1
0.62500	-1
0.62867	-0
0.63233	-0
0.63600	-0
0.63967	-0
0.64333	0
0.64700	0
0.65067	0
0.65433	0
0.65800	0
0.66167	0
0.66533	-0
0.66900	-0
0.67267	-0
0.67633	-0
0.68000	-0
0.68367	-1
0.68733	-1
0.69100	-1
0.69467	-1
0.69833	-1
0.70200	-1
0.70567	-1
0.70933	-1
0.71300	-1
0.71667	-1
0.72033	-1
0.72400	-1
0.72767	-1
0.73133	-1
0.73500	-1
0.73867	-1
0.74233	-1
0.74600	-1
0.74967	-1
0.75333	-1
0.75700	-1
0.76067	-1
0.76433	-1
0.76800	-1
0.77167	-1
0.77533	-0
0.77900	-0
0.78267	-0
0.78633	-0
0.79000	-0
0.79367	-1
0.79733	-1
0.80100	-1
0.80467	-1
0.80833	-1
0.81200	-2
0.81567	-2
0.81933	-2
0.82300	-2
0.82667	-2
0.83033	-2
0.83400	-2
0.83767	-2
0.84133	-1
0.84500	-1
0.84867	-2
0.85233	-2
0.85600	-2
0.85967	-1
0.86333	-1
0.86700	-1
0.87067	-1
0.87433	-1
0.87800	-1
0.88167	-1
0.88533	-1
0.88900	-1
0.89267	-1
0.89633	-1
0.90000	-1
0.90367	-1
0.90733	-2
0.91100	-2
0.91467	-2
0.91833	-2
0.92200	-2
0.92567	-2
0.92933	-2
0.93300	-2
0.93667	-2
0.94033	-1
0.94400	-1
0.94767	-1
0.95133	-1
0.95500	-1
0.95867	-1
0.96233	-1
0.96600	-1
0.96967	-0
0.97333	-1
0.97700	-1
0.98067	-1
0.98433	-1
0.98800	-1
0.99167	-1
0.99533	-1
0.99900	-1
1.00267	-1
1.00633	-1
1.01000	-1
1.01367	-1
1.01733	-1
1.02100	-0
1.02467	-0
1.02833	-0
1.03200	-0
1.03567	-0
1.03933	-0
1.04300	-0
1.04667	-1
1.05033	-1
1.05400	-1
1.05767	-1
1.06133	-1
1.06500	-1
1.06867	-1
1.07233	-1
1.07600	-1
1.07967	-1
1.08333	-1
1.08700	-1
1.09067	-2
1.09433	-2
1.09800	-1
1.10167	-1
1.10533	-1
1.10900	-1
1.11267	-1
1.11633	-1
1.12000	-1
1.12367	-1
1.12733	-1
1.13100	-1
1.13467	-1
1.13833	-1
1.14200	-1
1.14567	-1
1.14933	-1
1.15300	-1
1.15667	-1
1.16033	-1
1.16400	-1
1.16767	-2
1.17133	-2
1.17500	-2
1.17867	-2
1.18233	-2
1.18600	-2
1.18967	-2
1.19333	-2
1.19700	-2
1.20067	-2
1.20433	-2
1.20800	-2
1.21167	-2
1.21533	-2
1.21900	-2
1.22267	-2
1.22633	-1
1.23000	-1
1.23367	-2
1.23733	-2
1.24100	-2
1.24467	-2
1.24833	-2
1.25200	-2
1.25567	-2
1.25933	-3
1.26300	-3
1.26667	-3
1.27033	-2
1.27400	-2
1.27767	-2
1.28133	-2
1.28500	-1
1.28867	-1
1.29233	-1
1.29600	-1
1.29967	-2
1.30333	-2
1.30700	-2
1.31067	-2
1.31433	-2
1.31800	-1
1.32167	-1
1.32533	-1
1.32900	-1
1.33267	-1
1.33633	-1
1.34000	-1
1.34367	-2
1.34733	-2
1.35100	-2
1.35467	-2
1.35833	-2
1.36200	-2
1.36567	-2
1.36933	-2
1.37300	-3
1.37667	-3
1.38033	-3
1.38400	-3
1.38767	-3
1.39133	-3
1.39500	-3
1.39867	-3
1.40233	-3
1.40600	-3
1.40967	-3
1.41333	-3
1.41700	-3
1.42067	-3
1.42433	-3
1.42800	-2
1.43167	-2
1.43533	-2
1.43900	-2
1.44267	-2
1.44633	-2
1.45000	-2
1.45367	-2
1.45733	-2
1.46100	-2
1.46467	-2
1.46833	-2
1.47200	-2
1.47567	-2
1.47933	-2
1.48300	-2
1.48667	-2
1.49033	-2
1.49400	-2
1.49767	-2
1.50133	-1
1.50500	-1
1.50867	-1
1.51233	-1
1.51600	-1
1.51967	-1
1.52333	-1
1.52700	-1
1.53067	-1
1.53433	-1
1.53800	-1
1.54167	-1
1.54533	-1
1.54900	-1
1.55267	-1
1.55633	-1
1.56000	-1
1.56367	-1
1.56733	-1
1.57100	-2
1.57467	-2
1.57833	-2
1.58200	-2
1.58567	-2
1.58933	-2
1.59300	-3
1.59667	-3
1.60033	-4
1.60400	-5
1.60767	-6
1.61133	-7
1.61500	-9
1.61867	-11
1.62233	-14
1.62600	-17
1.62967	-20
1.63333	-23
1.63700	-26
1.64067	-29
1.64433	-33
1.64800	-36
1.65167	-39
1.65533	-43
1.65900	-46
1.66267	-49
1.66633	-53
1.67000	-57
1.67367	-62
1.67733	-66
1.68100	-71
1.68467	-75
1.68833	-78
1.69200	-81
1.69567	-84
1.69933	-86
1.70300	-88
1.70667	-90
1.71033	-91
1.71400	-92
1.71767	-93
1.72133	-93
1.72500	-94
1.72867	-94
1.73233	-94
1.73600	-94
1.73967	-95
1.74333	-95
1.74700	-95
1.75067	-96
1.75433	-97
1.75800	-97
1.76167	-98
1.76533	-99
1.76900	-99
1.77267	-99
1.77633	-99
1.78000	-99
1.78367	-98
1.78733	-97
1.79100	-96
1.79467	-95
1.79833	-95
1.80200	-95
1.80567	-95
1.80933	-96
1.81300	-97
1.81667	-97
1.82033	-98
1.82400	-99
1.82767	-99
1.83133	-100
1.83500	-100
1.83867	-100
1.84233	-99
1.84600	-99
1.84967	-99
1.85333	-99
1.85700	-98
1.86067	-98
1.86433	-98
1.86800	-98
1.87167	-98
1.87533	-97
1.87900	-97
1.88267	-97
1.88633	-97
1.89000	-98
1.89367	-98
1.89733	-98
1.90100	-97
1.90467	-97
1.90833	-97
1.91200	-97
1.91567	-97
1.91933	-97
1.92300	-96
1.92667	-96
1.93033	-95
1.93400	-95
1.93767	-95
1.94133	-95
1.94500	-95
1.94867	-95
1.95233	-95
1.95600	-94
1.95967	-94
1.96333	-93
1.96700	-93
1.97067	-93
1.97433	-92
1.97800	-92
1.98167	-92
1.98533	-92
1.98900	-92
1.99267	-92
1.99633	-92
2.00000	-92
2.00367	-92
2.00733	-92
2.01100	-91
2.01467	-90
2.01833	-89
2.02200	-89
2.02567	-89
2.02933	-89
2.03300	-88
2.03667	-88
2.04033	-88
2.04400	-87
2.04767	-87
2.05133	-86
2.05500	-86
2.05867	-86
2.06233	-86
2.06600	-86
2.06967	-86
2.07333	-85
2.07700	-85
2.08067	-85
2.08433	-85
2.08800	-85
2.09167	-85
2.09533	-85
2.09900	-84
2.10267	-83
2.10633	-83
2.11000	-83
2.11367	-83
2.11733	-83
2.12100	-83
2.12467	-83
2.12833	-83
2.13200	-83
2.13567	-83
2.13933	-83
2.14300	-83
2.14667	-82
2.15033	-81
2.15400	-80
2.15767	-80
2.16133	-79
2.16500	-79
2.16867	-78
2.17233	-78
2.17600	-78
2.17967	-78
2.18333	-78
2.18700	-78
2.19067	-77
2.19433	-77
2.19800	-77
2.20167	-77
2.20533	-77
2.20900	-77
2.21267	-77
2.21633	-77
2.22000	-76
2.22367	-76
2.22733	-75
2.23100	-75
2.23467	-74
2.23833	-74
2.24200	-74
2.24567	-74
2.24933	-74
2.25300	-74
2.25667	-74
2.26033	-74
2.26400	-74
2.26767	-73
2.27133	-73
2.27500	-72
2.27867	-71
2.28233	-71
2.28600	-71
2.28967	-71
2.29333	-71
2.29700	-70
2.30067	-70
2.30433	-69
2.30800	-69
2.31167	-69
2.31533	-69
2.31900	-69
2.32267	-69
2.32633	-68
2.33000	-67
2.33367	-67
2.33733	-66
2.34100	-66
2.34467	-65
2.34833	-64
2.35200	-63
2.35567	-62
2.35933	-60
2.36300	-59
2.36667	-58
2.37033	-56
2.37400	-54
2.37767	-51
2.38133	-48
2.38500	-45
2.38867	-41
2.39233	-37
2.39600	-33
2.39967	-29
2.40333	-25
2.40700	-21
2.41067	-17
2.41433	-13
2.41800	-10
2.42167	-7
2.42533	-5
2.42900	-3
2.43267	-2
2.43633	-1
2.44000	0
2.44367	2
2.44733	3
2.45100	5
2.45467	6
2.45833	8
2.46200	9
2.46567	9
2.46933	10
2.47300	10
2.47667	11
2.48033	11
2.48400	11
2.48767	12
2.49133	13
2.49500	14
2.49867	14
2.50233	15
2.50600	16
2.50967	16
2.51333	17
2.51700	17
2.52067	18
2.52433	18
2.52800	19
2.53167	19
2.53533	19
2.53900	19
2.54267	18
2.54633	18
2.55000	17
2.55367	16
2.55733	16
2.56100	15
2.56467	15
2.56833	14
2.57200	14
2.57567	14
2.57933	14
2.58300	14
2.58667	14
2.59033	14
2.59400	14
2.59767	14
2.60133	14
2.60500	15
2.60867	15
2.61233	16
2.61600	16
2.61967	17
2.62333	17
2.62700	18
2.63067	18
2.63433	19
2.63800	19
2.64167	19
2.64533	19
2.64900	19
2.65267	20
2.65633	20
2.66000	20
2.66367	21
2.66733	21
2.67100	21
2.67467	21
2.67833	21
2.68200	21
2.68567	21
2.68933	22
2.69300	22
2.69667	23
2.70033	23
2.70400	23
2.70767	23
2.71133	23
2.71500	23
2.71867	24
2.72233	24
2.72600	25
2.72967	25
2.73333	26
2.73700	27
2.74067	27
2.74433	28
2.74800	28
2.75167	29
2.75533	29
2.75900	29
2.76267	29
2.76633	30
2.77000	30
2.77367	30
2.77733	30
2.78100	29
2.78467	29
2.78833	28
2.79200	28
2.79567	27
2.79933	27
2.80300	26
2.80667	26
2.81033	26
2.81400	26
2.81767	26
2.82133	26
2.82500	27
2.82867	27
2.83233	27
2.83600	27
2.83967	27
2.84333	27
2.84700	27
2.85067	27
2.85433	27
2.85800	26
2.86167	23
2.86533	19
2.86900	12
2.87267	1
2.87633	-14
2.88000	-33
2.88367	-58
2.88733	-88
2.89100	-123
2.89467	-164
2.89833	-209
2.90200	-260
2.90567	-314
2.90933	-372
2.91300	-433
2.91667	-496
2.92033	-560
2.92400	-625
2.92767	-689
2.93133	-752
2.93500	-812
2.93867	-869
2.94233	-924
2.94600	-979
2.94967	-1034
2.95333	-1081
2.95700	-1112
2.96067	-1119
2.96433	-1100
2.96800	-1059
2.97167	-1000
2.97533	-928
2.97900	-849
2.98267	-768
2.98633	-686
2.99000	-608
2.99367	-535
2.99733	-468
3.00100	-406
3.00467	-351
3.00833	-302
3.01200	-259
3.01567	-221
3.01933	-188
3.02300	-159
3.02667	-134
3.03033	-112
3.03400	-94
3.03767	-78
3.04133	-64
3.04500	-52
3.04867	-42
3.05233	-33
3.05600	-26
3.05967	-20
3.06333	-14
3.06700	-10
3.07067	-6
3.07433	-2
3.07800	0
3.08167	2
3.08533	4
3.08900	6
3.09267	8
3.09633	9
3.10000	11
3.10367	12
3.10733	13
3.11100	14
3.11467	14
3.11833	15
3.12200	16
3.12567	16
3.12933	17
3.13300	17
3.13667	18
3.14033	18
3.14400	18
3.14767	19
3.15133	19
3.15500	19
3.15867	20
3.16233	20
3.16600	20
3.16967	21
3.17333	21
3.17700	21
3.18067	21
3.18433	22
3.18800	22
3.19167	22
3.19533	23
3.19900	23
3.20267	23
3.20633	23
3.21000	23
3.21367	23
3.21733	23
3.22100	23
3.22467	23
3.22833	23
3.23200	23
3.23567	24
3.23933	24
3.24300	24
3.24667	25
3.25033	25
3.25400	25
3.25767	25
3.26133	25
3.26500	25
3.26867	26
3.27233	26
3.27600	26
3.27967	26
3.28333	26
3.28700	26
3.29067	26
3.29433	26
3.29800	26
3.30167	26
3.30533	26
3.30900	26
3.31267	26
3.31633	26
3.32000	27
3.32367	27
3.32733	27
3.33100	28
3.33467	28
3.33833	29
3.34200	29
3.34567	29
3.34933	29
3.35300	29
3.35667	30
3.36033	30
3.36400	30
3.36767	30
3.37133	30
3.37500	30
3.37867	31
3.38233	31
3.38600	31
3.38967	31
3.39333	31
3.39700	30
3.40067	30
3.40433	30
3.40800	30
3.41167	30
3.41533	30
3.41900	30
3.42267	30
3.42633	30
3.43000	30
3.43367	30
3.43733	30
3.44100	30
3.44467	30
3.44833	30
3.45200	30
3.45567	30
3.45933	30
3.46300	30
3.46667	30
3.47033	30
3.47400	30
3.47767	30
3.48133	30
3.48500	30
3.48867	30
3.49233	30
3.49600	30
3.49967	30
3.50333	30
3.50700	30
3.51067	30
3.51433	30
3.51800	30
3.52167	30
3.52533	30
3.52900	30
3.53267	29
3.53633	29
3.54000	29
3.54367	29
3.54733	29
3.55100	29
3.55467	29
3.55833	29
3.56200	29
3.56567	29
3.56933	29
3.57300	29
3.57667	29
3.58033	29
3.58400	29
3.58767	28
3.59133	28
3.59500	29
3.59867	29
3.60233	29
3.60600	29
3.60967	30
3.61333	30
3.61700	30
3.62067	30
3.62433	30
3.62800	30
3.63167	30
3.63533	29
3.63900	29
3.64267	29
3.64633	29
3.65000	30
3.65367	30
3.65733	30
3.66100	30
3.66467	30
3.66833	30
3.67200	29
3.67567	29
3.67933	29
3.68300	29
3.68667	29
3.69033	28
3.69400	28
3.69767	28
3.70133	28
3.70500	28
3.70867	29
3.71233	29
3.71600	29
3.71967	29
3.72333	29
3.72700	29
3.73067	29
3.73433	29
3.73800	29
3.74167	29
3.74533	29
3.74900	29
3.75267	29
3.75633	29
3.76000	29
3.76367	29
3.76733	29
3.77100	29
3.77467	29
3.77833	30
3.78200	30
3.78567	30
3.78933	30
3.79300	30
3.79667	30
3.80033	29
3.80400	29
3.80767	29
3.81133	29
3.81500	29
3.81867	29
3.82233	29
3.82600	29
3.82967	29
3.83333	29
3.83700	29
3.84067	29
3.84433	29
3.84800	29
3.85167	29
3.85533	29
3.85900	29
3.86267	29
3.86633	29
3.87000	29
3.87367	29
3.87733	30
3.88100	30
3.88467	30
3.88833	30
3.89200	30
3.89567	30
3.89933	30
3.90300	30
3.90667	29
3.91033	29
3.91400	29
3.91767	29
3.92133	29
3.92500	29
3.92867	29
3.93233	29
3.93600	29
3.93967	29
3.94333	29
3.94700	29
3.95067	29
3.95433	29
3.95800	29
3.96167	29
3.96533	29
3.96900	29
3.97267	29
3.97633	29
3.98000	30
3.98367	30
3.98733	30
3.99100	30
3.99467	30
3.99833	30

[Chromatogram (Ch3)]
Interval(msec)	220
# of Points	1091
Start Time(min)	0.002
End Time(min)	3.998
R.Time (min)	Intensity
0.00167	1
0.00533	1
0.00900	0
0.01267	0
0.01633	-1
0.02000	-1
0.02367	-1
0.02733	-2
0.03100	-3
0.03467	-1
0.03833	1
0.04200	2
0.04567	-0
0.04933	-4
0.05300	-4
0.05667	-3
0.06033	1
0.06400	3
0.06767	5
0.07133	8
0.07500	10
0.07867	8
0.08233	6
0.08600	6
0.08967	4
0.09333	4
0.09700	2
0.10067	1
0.10433	-1
0.10800	-1
0.11167	-3
0.11533	-4
0.11900	-3
0.12267	-3
0.12633	-2
0.13000	-2
0.13367	0
0.13733	3
0.14100	6
0.14467	7
0.14833	7
0.15200	7
0.15567	8
0.15933	7
0.16300	7
0.16667	6
0.17033	6
0.17400	6
0.17767	6
0.18133	5
0.18500	3
0.18867	-1
0.19233	-2
0.19600	-0
0.19967	1
0.20333	1
0.20700	5
0.21067	6
0.21433	2
0.21800	0
0.22167	0
0.22533	-1
0.22900	-2
0.23267	-1
0.23633	0
0.24000	0
0.24367	-0
0.24733	2
0.25100	3
0.25467	1
0.25833	-1
0.26200	-2
0.26567	-3
0.26933	-3
0.27300	-1
0.27667	2
0.28033	2
0.28400	1
0.28767	3
0.29133	3
0.29500	2
0.29867	-0
0.30233	-2
0.30600	-2
0.30967	-1
0.31333	-0
0.31700	0
0.32067	1
0.32433	-0
0.32800	-2
0.33167	-3
0.33533	-4
0.33900	-3
0.34267	-3
0.34633	-3
0.35000	-1
0.35367	1
0.35733	2
0.36100	2
0.36467	1
0.36833	1
0.37200	1
0.37567	2
0.37933	3
0.38300	3
0.38667	4
0.39033	5
0.39400	4
0.39767	4
0.40133	4
0.40500	5
0.40867	5
0.41233	5
0.41600	3
0.41967	1
0.42333	1
0.42700	-1
0.43067	-4
0.43433	-4
0.43800	-4
0.44167	-4
0.44533	-2
0.44900	0
0.45267	1
0.45633	-1
0.46000	-2
0.46367	-3
0.46733	-3
0.47100	-2
0.47467	-1
0.47833	0
0.48200	-0
0.48567	-0
0.48933	2
0.49300	5
0.49667	6
0.50033	4
0.50400	3
0.50767	1
0.51133	-1
0.51500	1
0.51867	4
0.52233	5
0.52600	7
0.52967	9
0.53333	8
0.53700	7
0.54067	5
0.54433	4
0.54800	3
0.55167	4
0.55533	6
0.55900	6
0.56267	5
0.56633	5
0.57000	5
0.57367	6
0.57733	7
0.58100	6
0.58467	5
0.58833	4
0.59200	4
0.59567	3
0.59933	1
0.60300	3
0.60667	4
0.61033	1
0.61400	-0
0.61767	-1
0.62133	-1
0.62500	1
0.62867	1
0.63233	3
0.63600	8
0.63967	11
0.64333	10
0.64700	8
0.65067	4
0.65433	0
0.65800	0
0.66167	1
0.66533	2
0.66900	2
0.67267	1
0.67633	-1
0.68000	-2
0.68367	-1
0.68733	-2
0.69100	-1
0.69467	1
0.69833	4
0.70200	7
0.70567	10
0.70933	12
0.71300	11
0.71667	10
0.72033	10
0.72400	9
0.72767	8
0.73133	8
0.73500	7
0.73867	5
0.74233	4
0.74600	4
0.74967	6
0.75333	6
0.75700	5
0.76067	5
0.76433	5
0.76800	5
0.77167	7
0.77533	8
0.77900	7
0.78267	7
0.78633	4
0.79000	4
0.79367	2
0.79733	-0
0.80100	-1
0.80467	1
0.80833	5
0.81200	8
0.81567	10
0.81933	11
0.82300	11
0.82667	8
0.83033	5
0.83400	7
0.83767	8
0.84133	8
0.84500	8
0.84867	7
0.85233	6
0.85600	5
0.85967	4
0.86333	4
0.86700	4
0.87067	6
0.87433	8
0.87800	8
0.88167	7
0.88533	6
0.88900	6
0.89267	8
0.89633	10
0.90000	8
0.90367	7
0.90733	7
0.91100	6
0.91467	8
0.91833	11
0.92200	11
0.92567	9
0.92933	9
0.93300	9
0.93667	7
0.94033	5
0.94400	3
0.94767	2
0.95133	1
0.95500	2
0.95867	5
0.96233	5
0.96600	8
0.96967	11
0.97333	11
0.97700	9
0.98067	8
0.98433	9
0.98800	7
0.99167	5
0.99533	4
0.99900	5
1.00267	6
1.00633	7
1.01000	7
1.01367	10
1.01733	12
1.02100	12
1.02467	13
1.02833	13
1.03200	13
1.03567	11
1.03933	12
1.04300	12
1.04667	10
1.05033	7
1.05400	7
1.05767	9
1.06133	10
1.06500	11
1.06867	13
1.07233	14
1.07600	14
1.07967	13
1.08333	12
1.08700	8
1.09067	6
1.09433	7
1.09800	9
1.10167	10
1.10533	11
1.10900	11
1.11267	12
1.11633	13
1.12000	12
1.12367	9
1.12733	7
1.13100	7
1.13467	8
1.13833	8
1.14200	9
1.14567	8
1.14933	8
1.15300	9
1.15667	10
1.16033	7
1.16400	7
1.16767	6
1.17133	7
1.17500	6
1.17867	5
1.18233	6
1.18600	7
1.18967	8
1.19333	8
1.19700	8
1.20067	8
1.20433	9
1.20800	11
1.21167	11
1.21533	12
1.21900	12
1.22267	13
1.22633	15
1.23000	14
1.23367	11
1.23733	8
1.24100	7
1.24467	6
1.24833	8
1.25200	9
1.25567	9
1.25933	9
1.26300	11
1.26667	14
1.27033	16
1.27400	15
1.27767	13
1.28133	10
1.28500	9
1.28867	9
1.29233	7
1.29600	6
1.29967	4
1.30333	5
1.30700	8
1.31067	9
1.31433	9
1.31800	7
1.32167	8
1.32533	8
1.32900	11
1.33267	13
1.33633	13
1.34000	13
1.34367	12
1.34733	12
1.35100	13
1.35467	15
1.35833	16
1.36200	17
1.36567	18
1.36933	19
1.37300	22
1.37667	23
1.38033	23
1.38400	20
1.38767	19
1.39133	17
1.39500	16
1.39867	15
1.40233	14
1.40600	15
1.40967	16
1.41333	15
1.41700	14
1.42067	13
1.42433	13
1.42800	14
1.43167	15
1.43533	16
1.43900	17
1.44267	18
1.44633	18
1.45000	17
1.45367	15
1.45733	17
1.46100	18
1.46467	19
1.46833	20
1.47200	22
1.47567	21
1.47933	19
1.48300	18
1.48667	19
1.49033	19
1.49400	17
1.49767	14
1.50133	12
1.50500	11
1.50867	10
1.51233	8
1.51600	6
1.51967	7
1.52333	9
1.52700	11
1.53067	12
1.53433	12
1.53800	14
1.54167	15
1.54533	15
1.54900	14
1.55267	13
1.55633	13
1.56000	13
1.56367	12
1.56733	12
1.57100	11
1.57467	11
1.57833	11
1.58200	10
1.58567	10
1.58933	9
1.59300	10
1.59667	14
1.60033	15
1.60400	16
1.60767	15
1.61133	14
1.61500	12
1.61867	14
1.62233	15
1.62600	17
1.62967	19
1.63333	20
1.63700	19
1.64067	18
1.64433	17
1.64800	16
1.65167	17
1.65533	19
1.65900	20
1.66267	20
1.66633	20
1.67000	19
1.67367	19
1.67733	20
1.68100	21
1.68467	21
1.68833	21
1.69200	22
1.69567	23
1.69933	23
1.70300	24
1.70667	26
1.71033	25
1.71400	27
1.71767	26
1.72133	27
1.72500	25
1.72867	23
1.73233	22
1.73600	22
1.73967	22
1.74333	20
1.74700	20
1.75067	21
1.75433	20
1.75800	21
1.76167	22
1.76533	24
1.76900	26
1.77267	27
1.77633	28
1.78000	27
1.78367	28
1.78733	30
1.79100	29
1.79467	27
1.79833	27
1.80200	27
1.80567	27
1.80933	26
1.81300	26
1.81667	27
1.82033	29
1.82400	32
1.82767	34
1.83133	33
1.83500	32
1.83867	32
1.84233	31
1.84600	30
1.84967	31
1.85333	34
1.85700	36
1.86067	38
1.86433	39
1.86800	40
1.87167	43
1.87533	45
1.87900	46
1.88267	45
1.88633	42
1.89000	40
1.89367	41
1.89733	42
1.90100	44
1.90467	45
1.90833	46
1.91200	49
1.91567	51
1.91933	52
1.92300	50
1.92667	49
1.93033	48
1.93400	44
1.93767	44
1.94133	46
1.94500	47
1.94867	47
1.95233	46
1.95600	44
1.95967	44
1.96333	45
1.96700	48
1.97067	48
1.97433	47
1.97800	46
1.98167	47
1.98533	50
1.98900	55
1.99267	56
1.99633	56
2.00000	57
2.00367	56
2.00733	54
2.01100	54
2.01467	55
2.01833	54
2.02200	54
2.02567	56
2.02933	55
2.03300	52
2.03667	52
2.04033	54
2.04400	58
2.04767	61
2.05133	61
2.05500	62
2.05867	62
2.06233	62
2.06600	63
2.06967	64
2.07333	65
2.07700	64
2.08067	66
2.08433	68
2.08800	68
2.09167	67
2.09533	68
2.09900	69
2.10267	67
2.10633	66
2.11000	66
2.11367	67
2.11733	70
2.12100	71
2.12467	71
2.12833	72
2.13200	72
2.13567	74
2.13933	76
2.14300	77
2.14667	78
2.15033	79
2.15400	80
2.15767	80
2.16133	80
2.16500	81
2.16867	80
2.17233	79
2.17600	78
2.17967	76
2.18333	77
2.18700	79
2.19067	81
2.19433	80
2.19800	80
2.20167	83
2.20533	86
2.20900	88
2.21267	89
2.21633	91
2.22000	91
2.22367	93
2.22733	93
2.23100	95
2.23467	96
2.23833	96
2.24200	98
2.24567	101
2.24933	100
2.25300	96
2.25667	97
2.26033	99
2.26400	99
2.26767	99
2.27133	98
2.27500	99
2.27867	102
2.28233	99
2.28600	98
2.28967	100
2.29333	103
2.29700	103
2.30067	103
2.30433	101
2.30800	101
2.31167	99
2.31533	100
2.31900	101
2.32267	104
2.32633	105
2.33000	105
2.33367	105
2.33733	104
2.34100	104
2.34467	106
2.34833	109
2.35200	111
2.35567	111
2.35933	111
2.36300	112
2.36667	111
2.37033	112
2.37400	111
2.37767	108
2.38133	105
2.38500	102
2.38867	97
2.39233	97
2.39600	103
2.39967	112
2.40333	119
2.40700	124
2.41067	127
2.41433	130
2.41800	132
2.42167	130
2.42533	128
2.42900	128
2.43267	127
2.43633	124
2.44000	130
2.44367	176
2.44733	254
2.45100	321
2.45467	365
2.45833	380
2.46200	368
2.46567	345
2.46933	325
2.47300	314
2.47667	303
2.48033	286
2.48400	264
2.48767	243
2.49133	223
2.49500	209
2.49867	198
2.50233	192
2.50600	189
2.50967	193
2.51333	200
2.51700	205
2.52067	209
2.52433	208
2.52800	202
2.53167	192
2.53533	180
2.53900	169
2.54267	158
2.54633	145
2.55000	135
2.55367	127
2.55733	121
2.56100	115
2.56467	112
2.56833	111
2.57200	113
2.57567	116
2.57933	118
2.58300	120
2.58667	123
2.59033	127
2.59400	133
2.59767	139
2.60133	146
2.60500	155
2.60867	164
2.61233	170
2.61600	174
2.61967	176
2.62333	176
2.62700	172
2.63067	165
2.63433	158
2.63800	150
2.64167	145
2.64533	140
2.64900	133
2.65267	124
2.65633	116
2.66000	107
2.66367	102
2.66733	97
2.67100	91
2.67467	84
2.67833	79
2.68200	77
2.68567	77
2.68933	75
2.69300	74
2.69667	74
2.70033	75
2.70400	75
2.70767	77
2.71133	76
2.71500	76
2.71867	78
2.72233	77
2.72600	76
2.72967	75
2.73333	76
2.73700	79
2.74067	80
2.74433	82
2.74800	84
2.75167	86
2.75533	89
2.75900	91
2.76267	92
2.76633	93
2.77000	97
2.77367	98
2.77733	99
2.78100	102
2.78467	105
2.78833	108
2.79200	111
2.79567	114
2.79933	120
2.80300	124
2.80667	127
2.81033	131
2.81400	135
2.81767	139
2.82133	143
2.82500	145
2.82867	145
2.83233	146
2.83600	152
2.83967	168
2.84333	205
2.84700	278
2.85067	404
2.85433	603
2.85800	887
2.86167	1250
2.86533	1689
2.86900	2177
2.87267	2675
2.87633	3140
2.88000	3534
2.88367	3824
2.88733	3993
2.89100	4042
2.89467	3980
2.89833	3829
2.90200	3612
2.90567	3354
2.90933	3071
2.91300	2780
2.91667	2495
2.92033	2224
2.92400	1974
2.92767	1744
2.93133	1538
2.93500	1352
2.93867	1188
2.94233	1045
2.94600	920
2.94967	811
2.95333	713
2.95700	606
2.96067	478
2.96433	388
2.96800	360
2.97167	379
2.97533	426
2.97900	487
2.98267	553
2.98633	621
2.99000	687
2.99367	747
2.99733	801
3.00100	847
3.00467	885
3.00833	918
3.01200	946
3.01567	967
3.01933	982
3.02300	991
3.02667	999
3.03033	1004
3.03400	1009
3.03767	1010
3.04133	1010
3.04500	1006
3.04867	1000
3.05233	995
3.05600	990
3.05967	986
3.06333	981
3.06700	976
3.07067	971
3.07433	966
3.07800	963
3.08167	957
3.08533	953
3.08900	948
3.09267	942
3.09633	937
3.10000	934
3.10367	929
3.10733	924
3.11100	920
3.11467	916
3.11833	914
3.12200	912
3.12567	911
3.12933	910
3.13300	908
3.13667	905
3.14033	902
3.14400	901
3.14767	899
3.15133	896
3.15500	894
3.15867	894
3.16233	894
3.16600	895
3.16967	893
3.17333	891
3.17700	888
3.18067	885
3.18433	882
3.18800	879
3.19167	876
3.19533	876
3.19900	876
3.20267	871
3.20633	870
3.21000	869
3.21367	865
3.21733	861
3.22100	857
3.22467	852
3.22833	849
3.23200	846
3.23567	846
3.23933	844
3.24300	840
3.24667	835
3.25033	830
3.25400	827
3.25767	825
3.26133	825
3.26500	827
3.26867	826
3.27233	820
3.27600	813
3.27967	810
3.28333	807
3.28700	804
3.29067	802
3.29433	801
3.29800	804
3.30167	806
3.30533	806
3.30900	805
3.31267	805
3.31633	805
3.32000	805
3.32367	806
3.32733	807
3.33100	809
3.33467	812
3.33833	816
3.34200	818
3.34567	822
3.34933	829
3.35300	833
3.35667	836
3.36033	841
3.36400	845
3.36767	845
3.37133	848
3.37500	855
3.37867	859
3.38233	861
3.38600	862
3.38967	864
3.39333	866
3.39700	868
3.40067	870
3.40433	870
3.40800	871
3.41167	871
3.41533	870
3.41900	868
3.42267	863
3.42633	857
3.43000	852
3.43367	847
3.43733	843
3.44100	838
3.44467	833
3.44833	829
3.45200	823
3.45567	814
3.45933	801
3.46300	789
3.46667	779
3.47033	770
3.47400	761
3.47767	753
3.48133	747
3.48500	744
3.48867	739
3.49233	737
3.49600	732
3.49967	727
3.50333	723
3.50700	718
3.51067	715
3.51433	711
3.51800	706
3.52167	701
3.52533	698
3.52900	695
3.53267	694
3.53633	690
3.54000	687
3.54367	684
3.54733	681
3.55100	679
3.55467	677
3.55833	674
3.56200	669
3.56567	666
3.56933	662
3.57300	659
3.57667	657
3.58033	655
3.58400	653
3.58767	651
3.59133	650
3.59500	648
3.59867	645
3.60233	644
3.60600	641
3.60967	638
3.61333	635
3.61700	633
3.62067	633
3.62433	631
3.62800	626
3.63167	622
3.63533	617
3.63900	615
3.64267	615
3.64633	611
3.65000	607
3.65367	604
3.65733	601
3.66100	597
3.66467	594
3.66833	593
3.67200	595
3.67567	596
3.67933	597
3.68300	594
3.68667	590
3.69033	589
3.69400	586
3.69767	582
3.70133	581
3.70500	582
3.70867	581
3.71233	581
3.71600	581
3.71967	579
3.72333	580
3.72700	578
3.73067	576
3.73433	576
3.73800	574
3.74167	575
3.74533	574
3.74900	574
3.75267	571
3.75633	571
3.76000	572
3.76367	573
3.76733	572
3.77100	568
3.77467	566
3.77833	565
3.78200	565
3.78567	563
3.78933	561
3.79300	560
3.79667	557
3.80033	556
3.80400	556
3.80767	558
3.81133	557
3.81500	557
3.81867	556
3.82233	554
3.82600	550
3.82967	545
3.83333	544
3.83700	541
3.84067	536
3.84433	533
3.84800	534
3.85167	535
3.85533	536
3.85900	534
3.86267	532
3.86633	530
3.87000	529
3.87367	529
3.87733	530
3.88100	530
3.88467	528
3.88833	525
3.89200	522
3.89567	526
3.89933	528
3.90300	529
3.90667	530
3.91033	530
3.91400	528
3.91767	523
3.92133	519
3.92500	518
3.92867	518
3.93233	515
3.93600	513
3.93967	514
3.94333	515
3.94700	515
3.95067	517
3.95433	518
3.95800	518
3.96167	517
3.96533	516
3.96900	514
3.97267	512
3.97633	511
3.98000	510
3.98367	507
3.98733	504
3.99100	501
3.99467	499
3.99833	493

[Status Trace (Column Oven Temperature)]
Interval(msec)	1000
# of Points	240
Start Time(min)	0.011
End Time(min)	3.995
Intensity Units	
Intensity Multiplier	1
R.Time (min)	Intensity
0.01150	35.04
0.02817	35.05
0.04483	35.05
0.06150	35.04
0.07817	35.03
0.09483	35.03
0.11150	35.03
0.12817	35.03
0.14483	35.04
0.16150	35.04
0.17817	35.03
0.19483	35.04
0.21150	35.03
0.22817	35.02
0.24483	35.02
0.26150	35.02
0.27817	35.01
0.29483	35.01
0.31150	35.00
0.32817	35.00
0.34483	35.00
0.36150	35.01
0.37817	35.01
0.39483	35.00
0.41150	35.01
0.42817	35.01
0.44483	35.01
0.46150	35.01
0.47817	35.00
0.49483	35.00
0.51150	35.00
0.52817	35.01
0.54483	35.00
0.56150	35.01
0.57817	35.01
0.59483	35.00
0.61150	35.00
0.62817	35.01
0.64483	35.01
0.66150	35.00
0.67817	35.01
0.69483	35.00
0.71150	35.00
0.72817	35.00
0.74483	34.99
0.76150	35.00
0.77817	34.99
0.79483	35.00
0.81150	35.01
0.82817	35.00
0.84483	35.00
0.86150	35.00
0.87817	34.99
0.89483	34.99
0.91150	35.00
0.92817	35.00
0.94483	34.99
0.96150	34.99
0.97817	34.99
0.99483	34.99
1.01150	35.00
1.02817	35.00
1.04483	34.99
1.06150	34.99
1.07817	34.99
1.09483	34.99
1.11150	34.99
1.12817	35.00
1.14483	34.99
1.16150	34.99
1.17817	35.00
1.19483	35.00
1.21150	35.01
1.22817	35.01
1.24483	35.00
1.26150	35.01
1.27817	35.00
1.29483	35.00
1.31150	34.99
1.32817	34.98
1.34483	34.98
1.36150	34.98
1.37817	34.98
1.39483	35.00
1.41150	35.00
1.42817	35.00
1.44483	35.01
1.46150	35.00
1.47817	35.01
1.49483	35.00
1.51150	35.00
1.52817	34.99
1.54483	34.99
1.56150	34.99
1.57817	35.00
1.59483	35.01
1.61150	35.08
1.62817	35.21
1.64483	35.41
1.66150	35.68
1.67817	36.05
1.69483	36.40
1.71150	36.75
1.72817	37.09
1.74483	37.42
1.76150	37.78
1.77817	38.09
1.79483	38.39
1.81150	38.73
1.82817	39.07
1.84483	39.39
1.86150	39.74
1.87817	40.06
1.89483	40.38
1.91150	40.72
1.92817	41.04
1.94483	41.37
1.96150	41.69
1.97817	42.01
1.99483	42.35
2.01150	42.68
2.02817	43.00
2.04483	43.32
2.06150	43.64
2.07817	43.97
2.09483	44.29
2.11150	44.62
2.12817	44.95
2.14483	45.27
2.16150	45.60
2.17817	45.93
2.19483	46.26
2.21150	46.57
2.22817	46.89
2.24483	47.24
2.26150	47.60
2.27817	47.92
2.29483	48.24
2.31150	48.58
2.32817	48.90
2.34483	49.21
2.36150	49.49
2.37817	49.64
2.39483	49.68
2.41150	49.66
2.42817	49.69
2.44483	49.71
2.46150	49.71
2.47817	49.74
2.49483	49.75
2.51150	49.75
2.52817	49.76
2.54483	49.78
2.56150	49.77
2.57817	49.80
2.59483	49.82
2.61150	49.82
2.62817	49.82
2.64483	49.83
2.66150	49.82
2.67817	49.85
2.69483	49.86
2.71150	49.89
2.72817	49.88
2.74483	49.86
2.76150	49.85
2.77817	49.85
2.79483	49.87
2.81150	49.88
2.82817	49.89
2.84483	49.89
2.86150	49.90
2.87817	49.90
2.89483	49.91
2.91150	49.92
2.92817	49.94
2.94483	49.95
2.96150	49.97
2.97817	49.98
2.99483	50.00
3.01150	50.00
3.02817	50.00
3.04483	50.01
3.06150	50.01
3.07817	50.02
3.09483	50.02
3.11150	50.03
3.12817	50.05
3.14483	50.06
3.16150	50.07
3.17817	50.07
3.19483	50.07
3.21150	50.08
3.22817	50.09
3.24483	50.09
3.26150	50.09
3.27817	50.10
3.29483	50.11
3.31150	50.10
3.32817	50.09
3.34483	50.08
3.36150	50.07
3.37817	50.07
3.39483	50.07
3.41150	50.06
3.42817	50.06
3.44483	50.05
3.46150	50.04
3.47817	50.04
3.49483	50.05
3.51150	50.05
3.52817	50.05
3.54483	50.05
3.56150	50.06
3.57817	50.06
3.59483	50.06
3.61150	50.06
3.62817	50.06
3.64483	50.06
3.66150	50.06
3.67817	50.07
3.69483	50.07
3.71150	50.07
3.72817	50.07
3.74483	50.06
3.76150	50.06
3.77817	50.07
3.79483	50.08
3.81150	50.07
3.82817	50.07
3.84483	50.07
3.86150	50.07
3.87817	50.06
3.89483	50.07
3.91150	50.06
3.92817	50.06
3.94483	50.07
3.96150	50.07
3.97817	50.07
3.99483	50.07

[Status Trace (Injection Unit Temperature)]
Interval(msec)	1000
# of Points	240
Start Time(min)	0.011
End Time(min)	3.995
Intensity Units	
Intensity Multiplier	1
R.Time (min)	Intensity
0.01150	99.98
0.02817	99.97
0.04483	99.98
0.06150	99.98
0.07817	99.98
0.09483	99.98
0.11150	99.98
0.12817	99.98
0.14483	99.97
0.16150	99.98
0.17817	99.98
0.19483	99.98
0.21150	99.98
0.22817	99.98
0.24483	99.98
0.26150	99.98
0.27817	99.98
0.29483	99.98
0.31150	99.98
0.32817	99.98
0.34483	99.98
0.36150	99.98
0.37817	99.98
0.39483	99.98
0.41150	99.99
0.42817	99.98
0.44483	99.98
0.46150	99.98
0.47817	99.98
0.49483	99.98
0.51150	99.98
0.52817	99.99
0.54483	99.99
0.56150	99.98
0.57817	99.98
0.59483	99.99
0.61150	99.98
0.62817	99.98
0.64483	99.98
0.66150	99.98
0.67817	99.98
0.69483	99.98
0.71150	99.98
0.72817	99.98
0.74483	99.98
0.76150	99.98
0.77817	99.98
0.79483	99.98
0.81150	99.98
0.82817	99.98
0.84483	99.98
0.86150	99.98
0.87817	99.98
0.89483	99.98
0.91150	99.98
0.92817	99.98
0.94483	99.98
0.96150	99.98
0.97817	99.98
0.99483	99.98
1.01150	99.98
1.02817	99.98
1.04483	99.98
1.06150	99.98
1.07817	99.97
1.09483	99.98
1.11150	99.98
1.12817	99.98
1.14483	99.98
1.16150	99.98
1.17817	99.98
1.19483	99.98
1.21150	99.98
1.22817	99.98
1.24483	99.98
1.26150	99.98
1.27817	99.98
1.29483	99.98
1.31150	99.98
1.32817	99.98
1.34483	99.98
1.36150	99.98
1.37817	99.98
1.39483	99.98
1.41150	99.98
1.42817	99.98
1.44483	99.98
1.46150	99.98
1.47817	99.98
1.49483	99.98
1.51150	99.98
1.52817	99.98
1.54483	99.98
1.56150	99.98
1.57817	99.98
1.59483	99.99
1.61150	99.98
1.62817	99.98
1.64483	99.98
1.66150	99.98
1.67817	99.98
1.69483	99.99
1.71150	99.99
1.72817	99.98
1.74483	99.98
1.76150	99.99
1.77817	99.99
1.79483	99.98
1.81150	99.99
1.82817	99.99
1.84483	99.99
1.86150	99.98
1.87817	99.99
1.89483	99.98
1.91150	99.98
1.92817	99.98
1.94483	99.98
1.96150	99.98
1.97817	99.98
1.99483	99.98
2.01150	99.97
2.02817	99.98
2.04483	99.98
2.06150	99.98
2.07817	99.97
2.09483	99.97
2.11150	99.97
2.12817	99.97
2.14483	99.97
2.16150	99.97
2.17817	99.97
2.19483	99.97
2.21150	99.97
2.22817	99.97
2.24483	99.96
2.26150	99.96
2.27817	99.96
2.29483	99.96
2.31150	99.96
2.32817	99.97
2.34483	99.96
2.36150	99.96
2.37817	99.96
2.39483	99.96
2.41150	99.96
2.42817	99.96
2.44483	99.96
2.46150	99.96
2.47817	99.96
2.49483	99.96
2.51150	99.96
2.52817	99.96
2.54483	99.96
2.56150	99.97
2.57817	99.96
2.59483	99.96
2.61150	99.97
2.62817	99.97
2.64483	99.97
2.66150	99.97
2.67817	99.97
2.69483	99.97
2.71150	99.97
2.72817	99.98
2.74483	99.98
2.76150	99.98
2.77817	99.98
2.79483	99.99
2.81150	99.98
2.82817	99.99
2.84483	99.99
2.86150	99.99
2.87817	99.99
2.89483	100.00
2.91150	100.00
2.92817	100.00
2.94483	100.00
2.96150	100.00
2.97817	100.00
2.99483	100.01
3.01150	100.01
3.02817	100.01
3.04483	100.01
3.06150	100.01
3.07817	100.01
3.09483	100.01
3.11150	100.01
3.12817	100.02
3.14483	100.02
3.16150	100.02
3.17817	100.02
3.19483	100.02
3.21150	100.02
3.22817	100.02
3.24483	100.02
3.26150	100.02
3.27817	100.02
3.29483	100.02
3.31150	100.02
3.32817	100.03
3.34483	100.02
3.36150	100.02
3.37817	100.02
3.39483	100.02
3.41150	100.03
3.42817	100.03
3.44483	100.03
3.46150	100.03
3.47817	100.03
3.49483	100.03
3.51150	100.03
3.52817	100.03
3.54483	100.03
3.56150	100.03
3.57817	100.03
3.59483	100.03
3.61150	100.03
3.62817	100.03
3.64483	100.03
3.66150	100.03
3.67817	100.03
3.69483	100.03
3.71150	100.03
3.72817	100.03
3.74483	100.03
3.76150	100.03
3.77817	100.04
3.79483	100.04
3.81150	100.04
3.82817	100.03
3.84483	100.03
3.86150	100.04
3.87817	100.04
3.89483	100.04
3.91150	100.04
3.92817	100.04
3.94483	100.04
3.96150	100.04
3.97817	100.04
3.99483	100.04

[Status Trace (Carrier Gas Pressure)]
Interval(msec)	1000
# of Points	240
Start Time(min)	0.011
End Time(min)	3.995
Intensity Units	
Intensity Multiplier	1
R.Time (min)	Intensity
0.01150	58.00
0.02817	54.99
0.04483	57.54
0.06150	59.63
0.07817	59.13
0.09483	58.01
0.11150	57.99
0.12817	58.01
0.14483	58.01
0.16150	58.01
0.17817	58.00
0.19483	58.00
0.21150	58.00
0.22817	58.00
0.24483	58.00
0.26150	58.00
0.27817	58.00
0.29483	58.00
0.31150	58.00
0.32817	58.00
0.34483	58.00
0.36150	58.00
0.37817	58.00
0.39483	58.00
0.41150	58.00
0.42817	58.00
0.44483	58.00
0.46150	58.00
0.47817	58.00
0.49483	58.00
0.51150	58.00
0.52817	58.00
0.54483	58.00
0.56150	58.00
0.57817	58.00
0.59483	58.00
0.61150	58.00
0.62817	58.00
0.64483	58.00
0.66150	58.00
0.67817	58.00
0.69483	58.00
0.71150	58.00
0.72817	58.00
0.74483	58.00
0.76150	58.00
0.77817	58.00
0.79483	58.00
0.81150	58.00
0.82817	58.00
0.84483	58.00
0.86150	58.00
0.87817	58.00
0.89483	58.00
0.91150	58.00
0.92817	58.00
0.94483	58.00
0.96150	58.00
0.97817	58.00
0.99483	58.00
1.01150	58.00
1.02817	58.00
1.04483	58.00
1.06150	58.00
1.07817	58.00
1.09483	58.00
1.11150	58.00
1.12817	58.00
1.14483	58.00
1.16150	58.00
1.17817	58.00
1.19483	58.00
1.21150	58.00
1.22817	58.00
1.24483	58.00
1.26150	58.00
1.27817	58.00
1.29483	58.00
1.31150	58.00
1.32817	58.00
1.34483	58.00
1.36150	58.00
1.37817	58.00
1.39483	58.00
1.41150	58.00
1.42817	58.00
1.44483	58.00
1.46150	58.00
1.47817	58.00
1.49483	58.00
1.51150	58.00
1.52817	58.00
1.54483	58.00
1.56150	58.00
1.57817	58.00
1.59483	58.00
1.61150	58.00
1.62817	58.00
1.64483	58.00
1.66150	58.00
1.67817	58.01
1.69483	58.00
1.71150	58.00
1.72817	58.00
1.74483	58.00
1.76150	58.00
1.77817	58.00
1.79483	58.00
1.81150	58.00
1.82817	58.00
1.84483	58.00
1.86150	58.00
1.87817	58.00
1.89483	58.00
1.91150	58.00
1.92817	58.00
1.94483	58.00
1.96150	58.00
1.97817	58.00
1.99483	58.00
2.01150	58.00
2.02817	58.00
2.04483	58.00
2.06150	58.00
2.07817	58.00
2.09483	58.00
2.11150	58.00
2.12817	58.00
2.14483	58.00
2.16150	58.00
2.17817	58.00
2.19483	58.00
2.21150	58.00
2.22817	58.00
2.24483	58.00
2.26150	58.00
2.27817	58.00
2.29483	58.00
2.31150	58.00
2.32817	58.00
2.34483	58.00
2.36150	58.00
2.37817	58.00
2.39483	57.99
2.41150	58.00
2.42817	58.00
2.44483	58.00
2.46150	58.00
2.47817	58.00
2.49483	58.00
2.51150	57.99
2.52817	57.99
2.54483	58.00
2.56150	58.00
2.57817	58.00
2.59483	58.00
2.61150	58.00
2.62817	58.00
2.64483	58.00
2.66150	58.00
2.67817	58.00
2.69483	58.00
2.71150	58.00
2.72817	58.00
2.74483	58.00
2.76150	58.00
2.77817	58.00
2.79483	58.00
2.81150	58.00
2.82817	58.00
2.84483	58.00
2.86150	58.00
2.87817	58.00
2.89483	58.00
2.91150	58.00
2.92817	58.00
2.94483	58.00
2.96150	58.00
2.97817	58.00
2.99483	58.00
3.01150	58.00
3.02817	58.00
3.04483	58.00
3.06150	58.00
3.07817	58.00
3.09483	58.00
3.11150	58.00
3.12817	58.00
3.14483	58.00
3.16150	58.00
3.17817	58.00
3.19483	58.00
3.21150	58.00
3.22817	58.00
3.24483	58.00
3.26150	58.00
3.27817	58.00
3.29483	58.00
3.31150	58.00
3.32817	58.00
3.34483	58.00
3.36150	58.00
3.37817	58.00
3.39483	58.00
3.41150	58.00
3.42817	58.00
3.44483	58.00
3.46150	58.00
3.47817	58.00
3.49483	58.00
3.51150	58.00
3.52817	58.00
3.54483	58.00
3.56150	58.00
3.57817	58.00
3.59483	58.00
3.61150	58.00
3.62817	58.00
3.64483	58.00
3.66150	58.00
3.67817	58.00
3.69483	58.00
3.71150	58.00
3.72817	58.00
3.74483	58.00
3.76150	58.00
3.77817	58.00
3.79483	58.00
3.81150	58.00
3.82817	58.00
3.84483	58.00
3.86150	58.00
3.87817	58.00
3.89483	58.00
3.91150	58.00
3.92817	58.00
3.94483	58.00
3.96150	58.00
3.97817	58.00
3.99483	58.00

[Status Trace (Carrier Gas Flow)]
Interval(msec)	1000
# of Points	240
Start Time(min)	0.011
End Time(min)	3.995
Intensity Units	
Intensity Multiplier	1
R.Time (min)	Intensity
0.01150	34.52
0.02817	34.54
0.04483	34.55
0.06150	34.54
0.07817	34.50
0.09483	34.52
0.11150	34.52
0.12817	34.51
0.14483	34.52
0.16150	34.52
0.17817	34.52
0.19483	34.52
0.21150	34.52
0.22817	34.52
0.24483	34.52
0.26150	34.52
0.27817	34.52
0.29483	34.51
0.31150	34.52
0.32817	34.52
0.34483	34.52
0.36150	34.52
0.37817	34.52
0.39483	34.51
0.41150	34.52
0.42817	34.52
0.44483	34.52
0.46150	34.52
0.47817	34.51
0.49483	34.52
0.51150	34.52
0.52817	34.52
0.54483	34.52
0.56150	34.52
0.57817	34.52
0.59483	34.52
0.61150	34.52
0.62817	34.52
0.64483	34.52
0.66150	34.52
0.67817	34.52
0.69483	34.52
0.71150	34.52
0.72817	34.52
0.74483	34.51
0.76150	34.52
0.77817	34.52
0.79483	34.52
0.81150	34.52
0.82817	34.52
0.84483	34.51
0.86150	34.51
0.87817	34.52
0.89483	34.52
0.91150	34.52
0.92817	34.52
0.94483	34.52
0.96150	34.52
0.97817	34.52
0.99483	34.52
1.01150	34.52
1.02817	34.51
1.04483	34.52
1.06150	34.52
1.07817	34.52
1.09483	34.52
1.11150	34.52
1.12817	34.51
1.14483	34.52
1.16150	34.52
1.17817	34.52
1.19483	34.52
1.21150	34.52
1.22817	34.52
1.24483	34.52
1.26150	34.52
1.27817	34.52
1.29483	34.52
1.31150	34.51
1.32817	34.52
1.34483	34.52
1.36150	34.51
1.37817	34.52
1.39483	34.52
1.41150	34.51
1.42817	34.52
1.44483	34.52
1.46150	34.52
1.47817	34.52
1.49483	34.52
1.51150	34.52
1.52817	34.52
1.54483	34.52
1.56150	34.52
1.57817	34.52
1.59483	34.52
1.61150	34.52
1.62817	34.52
1.64483	34.52
1.66150	34.51
1.67817	34.52
1.69483	34.52
1.71150	34.52
1.72817	34.51
1.74483	34.52
1.76150	34.52
1.77817	34.52
1.79483	34.52
1.81150	34.51
1.82817	34.52
1.84483	34.52
1.86150	34.51
1.87817	34.51
1.89483	34.52
1.91150	34.52
1.92817	34.53
1.94483	34.52
1.96150	34.52
1.97817	34.52
1.99483	34.52
2.01150	34.52
2.02817	34.52
2.04483	34.51
2.06150	34.52
2.07817	34.52
2.09483	34.52
2.11150	34.52
2.12817	34.52
2.14483	34.52
2.16150	34.52
2.17817	34.52
2.19483	34.52
2.21150	34.52
2.22817	34.52
2.24483	34.52
2.26150	34.52
2.27817	34.52
2.29483	34.52
2.31150	34.52
2.32817	34.52
2.34483	34.51
2.36150	34.52
2.37817	34.51
2.39483	34.52
2.41150	34.52
2.42817	34.51
2.44483	34.52
2.46150	34.52
2.47817	34.52
2.49483	34.52
2.51150	34.52
2.52817	34.52
2.54483	34.51
2.56150	34.52
2.57817	34.53
2.59483	34.52
2.61150	34.51
2.62817	34.53
2.64483	34.52
2.66150	34.52
2.67817	34.52
2.69483	34.52
2.71150	34.52
2.72817	34.51
2.74483	34.51
2.76150	34.52
2.77817	34.52
2.79483	34.53
2.81150	34.53
2.82817	34.52
2.84483	34.52
2.86150	34.52
2.87817	34.52
2.89483	34.52
2.91150	34.52
2.92817	34.53
2.94483	34.52
2.96150	34.52
2.97817	34.52
2.99483	34.53
3.01150	34.52
3.02817	34.52
3.04483	34.52
3.06150	34.52
3.07817	34.52
3.09483	34.52
3.11150	34.52
3.12817	34.52
3.14483	34.52
3.16150	34.52
3.17817	34.52
3.19483	34.52
3.21150	34.52
3.22817	34.52
3.24483	34.53
3.26150	34.52
3.27817	34.52
3.29483	34.52
3.31150	34.52
3.32817	34.52
3.34483	34.52
3.36150	34.52
3.37817	34.52
3.39483	34.52
3.41150	34.52
3.42817	34.51
3.44483	34.52
3.46150	34.52
3.47817	34.52
3.49483	34.52
3.51150	34.52
3.52817	34.52
3.54483	34.52
3.56150	34.51
3.57817	34.52
3.59483	34.52
3.61150	34.52
3.62817	34.52
3.64483	34.52
3.66150	34.52
3.67817	34.52
3.69483	34.51
3.71150	34.53
3.72817	34.51
3.74483	34.52
3.76150	34.52
3.77817	34.52
3.79483	34.52
3.81150	34.52
3.82817	34.52
3.84483	34.51
3.86150	34.52
3.87817	34.52
3.89483	34.52
3.91150	34.52
3.92817	34.52
3.94483	34.52
3.96150	34.52
3.97817	34.52
3.99483	34.53

[Status Trace (Column Flow)]
Interval(msec)	1000
# of Points	240
Start Time(min)	0.011
End Time(min)	3.995
Intensity Units	
Intensity Multiplier	1
R.Time (min)	Intensity
0.01150	5.50
0.02817	5.15
0.04483	5.44
0.06150	5.69
0.07817	5.63
0.09483	5.50
0.11150	5.50
0.12817	5.50
0.14483	5.50
0.16150	5.50
0.17817	5.50
0.19483	5.50
0.21150	5.50
0.22817	5.50
0.24483	5.50
0.26150	5.50
0.27817	5.50
0.29483	5.50
0.31150	5.50
0.32817	5.50
0.34483	5.50
0.36150	5.50
0.37817	5.50
0.39483	5.50
0.41150	5.50
0.42817	5.50
0.44483	5.50
0.46150	5.50
0.47817	5.50
0.49483	5.50
0.51150	5.50
0.52817	5.50
0.54483	5.50
0.56150	5.50
0.57817	5.50
0.59483	5.50
0.61150	5.50
0.62817	5.50
0.64483	5.50
0.66150	5.50
0.67817	5.50
0.69483	5.50
0.71150	5.50
0.72817	5.50
0.74483	5.50
0.76150	5.50
0.77817	5.50
0.79483	5.50
0.81150	5.50
0.82817	5.50
0.84483	5.50
0.86150	5.50
0.87817	5.50
0.89483	5.50
0.91150	5.50
0.92817	5.50
0.94483	5.50
0.96150	5.50
0.97817	5.50
0.99483	5.50
1.01150	5.50
1.02817	5.50
1.04483	5.50
1.06150	5.50
1.07817	5.50
1.09483	5.50
1.11150	5.50
1.12817	5.50
1.14483	5.50
1.16150	5.50
1.17817	5.50
1.19483	5.50
1.21150	5.50
1.22817	5.50
1.24483	5.50
1.26150	5.50
1.27817	5.50
1.29483	5.50
1.31150	5.50
1.32817	5.50
1.34483	5.50
1.36150	5.50
1.37817	5.50
1.39483	5.50
1.41150	5.50
1.42817	5.50
1.44483	5.50
1.46150	5.50
1.47817	5.50
1.49483	5.50
1.51150	5.50
1.52817	5.50
1.54483	5.50
1.56150	5.50
1.57817	5.50
1.59483	5.50
1.61150	5.50
1.62817	5.49
1.64483	5.49
1.66150	5.48
1.67817	5.47
1.69483	5.45
1.71150	5.44
1.72817	5.43
1.74483	5.42
1.76150	5.41
1.77817	5.40
1.79483	5.39
1.81150	5.38
1.82817	5.37
1.84483	5.36
1.86150	5.35
1.87817	5.34
1.89483	5.33
1.91150	5.32
1.92817	5.31
1.94483	5.30
1.96150	5.29
1.97817	5.29
1.99483	5.27
2.01150	5.27
2.02817	5.26
2.04483	5.25
2.06150	5.24
2.07817	5.23
2.09483	5.22
2.11150	5.21
2.12817	5.20
2.14483	5.19
2.16150	5.18
2.17817	5.17
2.19483	5.16
2.21150	5.15
2.22817	5.14
2.24483	5.13
2.26150	5.12
2.27817	5.12
2.29483	5.11
2.31150	5.10
2.32817	5.09
2.34483	5.08
2.36150	5.07
2.37817	5.07
2.39483	5.06
2.41150	5.07
2.42817	5.07
2.44483	5.06
2.46150	5.06
2.47817	5.06
2.49483	5.06
2.51150	5.06
2.52817	5.06
2.54483	5.06
2.56150	5.06
2.57817	5.06
2.59483	5.06
2.61150	5.06
2.62817	5.06
2.64483	5.06
2.66150	5.06
2.67817	5.06
2.69483	5.06
2.71150	5.06
2.72817	5.06
2.74483	5.06
2.76150	5.06
2.77817	5.06
2.79483	5.06
2.81150	5.06
2.82817	5.06
2.84483	5.06
2.86150	5.06
2.87817	5.06
2.89483	5.06
2.91150	5.06
2.92817	5.06
2.94483	5.06
2.96150	5.06
2.97817	5.06
2.99483	5.06
3.01150	5.06
3.02817	5.06
3.04483	5.06
3.06150	5.06
3.07817	5.06
3.09483	5.06
3.11150	5.06
3.12817	5.06
3.14483	5.05
3.16150	5.05
3.17817	5.05
3.19483	5.05
3.21150	5.05
3.22817	5.05
3.24483	5.05
3.26150	5.05
3.27817	5.05
3.29483	5.05
3.31150	5.05
3.32817	5.05
3.34483	5.05
3.36150	5.05
3.37817	5.05
3.39483	5.06
3.41150	5.06
3.42817	5.06
3.44483	5.06
3.46150	5.06
3.47817	5.06
3.49483	5.06
3.51150	5.06
3.52817	5.06
3.54483	5.06
3.56150	5.06
3.57817	5.06
3.59483	5.06
3.61150	5.06
3.62817	5.06
3.64483	5.06
3.66150	5.06
3.67817	5.06
3.69483	5.05
3.71150	5.06
3.72817	5.05
3.74483	5.06
3.76150	5.06
3.77817	5.05
3.79483	5.05
3.81150	5.05
3.82817	5.05
3.84483	5.06
3.86150	5.06
3.87817	5.06
3.89483	5.06
3.91150	5.06
3.92817	5.06
3.94483	5.06
3.96150	5.05
3.97817	5.05
3.99483	5.06

[Status Trace (Linear Velocity)]
Interval(msec)	1000
# of Points	240
Start Time(min)	0.011
End Time(min)	3.995
Intensity Units	
Intensity Multiplier	1
R.Time (min)	Intensity
0.01150	39.01
0.02817	37.03
0.04483	38.71
0.06150	40.08
0.07817	39.75
0.09483	39.02
0.11150	39.00
0.12817	39.01
0.14483	39.01
0.16150	39.01
0.17817	39.01
0.19483	39.01
0.21150	39.01
0.22817	39.01
0.24483	39.01
0.26150	39.01
0.27817	39.01
0.29483	39.01
0.31150	39.01
0.32817	39.01
0.34483	39.01
0.36150	39.01
0.37817	39.01
0.39483	39.01
0.41150	39.01
0.42817	39.01
0.44483	39.01
0.46150	39.01
0.47817	39.01
0.49483	39.01
0.51150	39.01
0.52817	39.01
0.54483	39.01
0.56150	39.01
0.57817	39.01
0.59483	39.01
0.61150	39.01
0.62817	39.01
0.64483	39.01
0.66150	39.01
0.67817	39.01
0.69483	39.01
0.71150	39.01
0.72817	39.01
0.74483	39.01
0.76150	39.01
0.77817	39.01
0.79483	39.01
0.81150	39.01
0.82817	39.01
0.84483	39.01
0.86150	39.01
0.87817	39.01
0.89483	39.01
0.91150	39.01
0.92817	39.01
0.94483	39.01
0.96150	39.01
0.97817	39.01
0.99483	39.01
1.01150	39.01
1.02817	39.01
1.04483	39.01
1.06150	39.01
1.07817	39.01
1.09483	39.01
1.11150	39.01
1.12817	39.01
1.14483	39.01
1.16150	39.01
1.17817	39.01
1.19483	39.01
1.21150	39.01
1.22817	39.01
1.24483	39.01
1.26150	39.01
1.27817	39.01
1.29483	39.01
1.31150	39.01
1.32817	39.01
1.34483	39.01
1.36150	39.01
1.37817	39.01
1.39483	39.01
1.41150	39.01
1.42817	39.01
1.44483	39.01
1.46150	39.01
1.47817	39.01
1.49483	39.01
1.51150	39.01
1.52817	39.01
1.54483	39.01
1.56150	39.01
1.57817	39.01
1.59483	39.01
1.61150	39.00
1.62817	39.00
1.64483	38.97
1.66150	38.95
1.67817	38.92
1.69483	38.88
1.71150	38.84
1.72817	38.81
1.74483	38.78
1.76150	38.75
1.77817	38.72
1.79483	38.69
1.81150	38.66
1.82817	38.63
1.84483	38.59
1.86150	38.56
1.87817	38.53
1.89483	38.50
1.91150	38.47
1.92817	38.44
1.94483	38.41
1.96150	38.38
1.97817	38.35
1.99483	38.32
2.01150	38.29
2.02817	38.26
2.04483	38.23
2.06150	38.20
2.07817	38.17
2.09483	38.14
2.11150	38.11
2.12817	38.08
2.14483	38.05
2.16150	38.02
2.17817	37.99
2.19483	37.96
2.21150	37.93
2.22817	37.91
2.24483	37.87
2.26150	37.84
2.27817	37.82
2.29483	37.78
2.31150	37.75
2.32817	37.73
2.34483	37.70
2.36150	37.67
2.37817	37.66
2.39483	37.65
2.41150	37.65
2.42817	37.66
2.44483	37.65
2.46150	37.65
2.47817	37.65
2.49483	37.65
2.51150	37.64
2.52817	37.64
2.54483	37.65
2.56150	37.65
2.57817	37.65
2.59483	37.64
2.61150	37.64
2.62817	37.64
2.64483	37.64
2.66150	37.64
2.67817	37.64
2.69483	37.64
2.71150	37.64
2.72817	37.64
2.74483	37.64
2.76150	37.64
2.77817	37.64
2.79483	37.64
2.81150	37.64
2.82817	37.64
2.84483	37.64
2.86150	37.64
2.87817	37.64
2.89483	37.63
2.91150	37.63
2.92817	37.63
2.94483	37.63
2.96150	37.63
2.97817	37.63
2.99483	37.63
3.01150	37.63
3.02817	37.63
3.04483	37.63
3.06150	37.63
3.07817	37.63
3.09483	37.63
3.11150	37.62
3.12817	37.62
3.14483	37.62
3.16150	37.62
3.17817	37.62
3.19483	37.62
3.21150	37.62
3.22817	37.62
3.24483	37.62
3.26150	37.62
3.27817	37.62
3.29483	37.62
3.31150	37.62
3.32817	37.62
3.34483	37.62
3.36150	37.62
3.37817	37.62
3.39483	37.62
3.41150	37.62
3.42817	37.62
3.44483	37.62
3.46150	37.62
3.47817	37.62
3.49483	37.62
3.51150	37.62
3.52817	37.62
3.54483	37.62
3.56150	37.62
3.57817	37.62
3.59483	37.62
3.61150	37.62
3.62817	37.62
3.64483	37.62
3.66150	37.62
3.67817	37.62
3.69483	37.62
3.71150	37.62
3.72817	37.62
3.74483	37.62
3.76150	37.62
3.77817	37.62
3.79483	37.62
3.81150	37.62
3.82817	37.62
3.84483	37.62
3.86150	37.62
3.87817	37.62
3.89483	37.62
3.91150	37.62
3.92817	37.62
3.94483	37.62
3.96150	37.62
3.97817	37.62
3.99483	37.62

