[Header]
Application Name	LabSolutions
Version	5.110
Data File Name	C:\Users\User\Desktop\Junior\UIC Prairie Sampling\2023\8.2.23\080223_012.gcd
Output Date	8/31/2023
Output Time	12:43:05 PM

[File Information]
Type	Data File
Generated	8/29/2023 5:09:38 PM
Generated by	System Administrator
Modified	8/29/2023 5:16:20 PM
Modified by	System Administrator

[Sample Information]
Operator Name	System Administrator
Acquired	8/29/2023 5:12:19 PM
Sample Type	0:Unknown
Level	0
Sample Name	012
Sample ID	012
ISTD Amount1	1
ISTD Amount2	1
ISTD Amount3	1
ISTD Amount4	1
ISTD Amount5	1
ISTD Amount6	1
ISTD Amount7	1
ISTD Amount8	1
ISTD Amount9	1
ISTD Amount10	1
ISTD Amount11	1
ISTD Amount12	1
ISTD Amount13	1
ISTD Amount14	1
ISTD Amount15	1
ISTD Amount16	1
ISTD Amount17	1
ISTD Amount18	1
ISTD Amount19	1
ISTD Amount20	1
ISTD Amount21	1
ISTD Amount22	1
ISTD Amount23	1
ISTD Amount24	1
ISTD Amount25	1
ISTD Amount26	1
ISTD Amount27	1
ISTD Amount28	1
ISTD Amount29	1
ISTD Amount30	1
ISTD Amount31	1
ISTD Amount32	1
Sample Amount	1
Dilution Factor	1
Vial#	11
Injection Volume	1
Injection Count	1
Bar Code	

[Original Files]
Data File	C:\Users\User\Desktop\Junior\UIC Prairie Sampling\8.2.23\080223_012.gcd
Method File	C:\LabSolutions\Data\GHG_4min_2022\ghg3_togas_w_acet_4 min_new_int.gcm
Batch File	C:\LabSolutions\Data\BATCH FILES\080223.gcb
Report Format File	c:\LabSolutions\System\DEFAULT.lsr

[File Description]


[Configuration]
Instrument Name	C0B7VH3-Instrument1
Instrument #	1
Line #	1
# of Detectors	3
Detector ID	DET#1	DET#2	DET#3
Detector Name	FID	PTCD	ECD
# of Channels	1	1	1

[Peak Table(Ch1)]
# of Peaks	4
Peak#	R.Time	I.Time	F.Time	Area	Height	A/H	Conc.	Mark	ID#	Name	k'	Plate #	Plate Ht.	Tailing	Resolution	Sep.Factor	Area Ratio	Height Ratio	Conc. %	Norm Conc.
1	0.258	0.123	0.376	2280	301	7.578	0.000	   			0.000	30	5006.540	0.913	0.000	0.000	0	0	0.000	0.000
2	1.472	1.417	1.531	16595	8295	2.001	0.000	   	1	CO	4.698	10073	14.892	1.231	9.809	0.000	0	0	0.000	0.000
3	1.564	1.531	1.633	4489	2256	1.990	21.884	 V 	2	CH4	5.053	11392	13.167	1.069	1.563	1.076	0	0	11.076	11.076
4	1.989	1.945	2.484	911721	440883	2.068	175.705	   	3	CO2	6.699	17820	8.418	1.306	7.197	1.326	0	0	88.924	88.924

[Peak Table(Ch2)]
# of Peaks	0

[Peak Table(Ch3)]
# of Peaks	5
Peak#	R.Time	I.Time	F.Time	Area	Height	A/H	Conc.	Mark	ID#	Name	k'	Plate #	Plate Ht.	Tailing	Resolution	Sep.Factor	Area Ratio	Height Ratio	Conc. %	Norm Conc.
1	2.458	2.440	2.506	746	273	2.737	0.000	   			0.000	12775	11.742	0.000	0.000	0.000	0	0	0.000	0.000
2	2.517	2.506	2.565	358	152	2.353	0.000	 V 			0.024	4546	32.993	0.000	0.497	0.000	0	0	0.000	0.000
3	2.609	2.565	2.682	438	115	3.799	0.000	 V 			0.061	8631	17.379	0.000	0.701	2.563	0	0	0.000	0.000
4	2.891	2.836	3.269	25960	3943	6.583	0.384	   	1	N2O	0.176	14237	10.536	0.000	2.699	2.878	0	0	100.000	100.000
5	3.375	3.269	3.877	9880	636	15.542	0.000	 V 			0.373	826	181.501	0.000	1.709	2.119	0	0	0.000	0.000

[Compound Results(Ch1)]
# of IDs	6
ID#	Name	R.Time	Area	Height	Conc.	Curve	3rd	2nd	1st	Constant	Area Ratio	Height Ratio	Conc. %	Norm Conc.
1	CO	1.472	16595	8295	0.000	Linear	0.000000e+00	0.000000e+00	0.000000e+00	0.000000e+00	0	0	0.000	0.000
2	CH4	1.564	4489	2256	21.884	Linear	0.000000e+00	0.000000e+00	2.051179e+002	0.000000e+00	0	0	11.076	11.076
3	CO2	1.989	911721	440883	175.705	Linear	0.000000e+00	0.000000e+00	5.188919e+003	0.000000e+00	0	0	88.924	88.924
4	Ethylene	0.000	0	0	0.000	Linear	0.000000e+00	0.000000e+00	0.000000e+00	0.000000e+00	0	0	0.000	0.000
5	Acetylene	0.000	0	0	0.000	Linear	0.000000e+00	0.000000e+00	0.000000e+00	0.000000e+00	0	0	0.000	0.000
6	Ethane	0.000	0	0	0.000	Linear	0.000000e+00	0.000000e+00	0.000000e+00	0.000000e+00	0	0	0.000	0.000

[Compound Results(Ch2)]
# of IDs	5
ID#	Name	R.Time	Area	Height	Conc.	Curve	3rd	2nd	1st	Constant	Area Ratio	Height Ratio	Conc. %	Norm Conc.
1	Hydrogen	0.000	0	0	0.000	Linear	0.000000e+00	0.000000e+00	0.000000e+00	0.000000e+00	0	0	0.000	0.000
2	Oxygen	0.000	0	0	0.000	Linear	0.000000e+00	0.000000e+00	0.000000e+00	0.000000e+00	0	0	0.000	0.000
3	Nitrogen	0.000	0	0	0.000	Linear	0.000000e+00	0.000000e+00	0.000000e+00	0.000000e+00	0	0	0.000	0.000
4	Methane	0.000	0	0	0.000	Linear	0.000000e+00	0.000000e+00	0.000000e+00	0.000000e+00	0	0	0.000	0.000
5	Carbon Monoxide	0.000	0	0	0.000	Linear	0.000000e+00	0.000000e+00	0.000000e+00	0.000000e+00	0	0	0.000	0.000

[Compound Results(Ch3)]
# of IDs	2
ID#	Name	R.Time	Area	Height	Conc.	Curve	3rd	2nd	1st	Constant	Area Ratio	Height Ratio	Conc. %	Norm Conc.
1	N2O	2.891	25960	3943	0.384	Linear	0.000000e+00	0.000000e+00	6.759880e+004	0.000000e+00	0	0	100.000	100.000
2	SF6	0.000	0	0	0.000	Linear	0.000000e+00	0.000000e+00	0.000000e+00	0.000000e+00	0	0	0.000	0.000

[Group Results(Ch1)]
# of Groups	0

[Group Results(Ch2)]
# of Groups	0

[Group Results(Ch3)]
# of Groups	0

[Chromatogram (Ch1)]
Interval(msec)	220
# of Points	1091
Start Time(min)	0.002
End Time(min)	3.998
R.Time (min)	Intensity
0.00167	9
0.00533	9
0.00900	10
0.01267	13
0.01633	20
0.02000	26
0.02367	30
0.02733	31
0.03100	32
0.03467	32
0.03833	30
0.04200	25
0.04567	19
0.04933	15
0.05300	14
0.05667	15
0.06033	14
0.06400	9
0.06767	1
0.07133	-5
0.07500	-7
0.07867	-7
0.08233	-4
0.08600	1
0.08967	9
0.09333	17
0.09700	21
0.10067	20
0.10433	14
0.10800	5
0.11167	-4
0.11533	-6
0.11900	1
0.12267	13
0.12633	27
0.13000	40
0.13367	52
0.13733	59
0.14100	63
0.14467	66
0.14833	65
0.15200	63
0.15567	65
0.15933	72
0.16300	81
0.16667	90
0.17033	99
0.17400	110
0.17767	122
0.18133	131
0.18500	141
0.18867	155
0.19233	170
0.19600	184
0.19967	198
0.20333	214
0.20700	231
0.21067	246
0.21433	259
0.21800	271
0.22167	283
0.22533	294
0.22900	304
0.23267	309
0.23633	313
0.24000	316
0.24367	318
0.24733	320
0.25100	323
0.25467	327
0.25833	331
0.26200	331
0.26567	327
0.26933	320
0.27300	316
0.27667	309
0.28033	298
0.28400	284
0.28767	268
0.29133	252
0.29500	239
0.29867	226
0.30233	208
0.30600	192
0.30967	180
0.31333	173
0.31700	169
0.32067	166
0.32433	159
0.32800	147
0.33167	134
0.33533	123
0.33900	111
0.34267	102
0.34633	95
0.35000	88
0.35367	82
0.35733	77
0.36100	71
0.36467	64
0.36833	56
0.37200	51
0.37567	45
0.37933	38
0.38300	31
0.38667	26
0.39033	25
0.39400	25
0.39767	24
0.40133	23
0.40500	19
0.40867	12
0.41233	6
0.41600	3
0.41967	1
0.42333	1
0.42700	3
0.43067	10
0.43433	17
0.43800	23
0.44167	24
0.44533	21
0.44900	17
0.45267	11
0.45633	6
0.46000	3
0.46367	0
0.46733	-3
0.47100	-4
0.47467	-5
0.47833	-7
0.48200	-7
0.48567	-3
0.48933	3
0.49300	9
0.49667	10
0.50033	10
0.50400	9
0.50767	8
0.51133	5
0.51500	3
0.51867	2
0.52233	1
0.52600	-1
0.52967	-5
0.53333	-10
0.53700	-12
0.54067	-14
0.54433	-16
0.54800	-16
0.55167	-14
0.55533	-10
0.55900	-6
0.56267	-2
0.56633	3
0.57000	4
0.57367	6
0.57733	7
0.58100	8
0.58467	8
0.58833	8
0.59200	6
0.59567	3
0.59933	2
0.60300	1
0.60667	-2
0.61033	-4
0.61400	-7
0.61767	-11
0.62133	-16
0.62500	-20
0.62867	-19
0.63233	-15
0.63600	-14
0.63967	-16
0.64333	-17
0.64700	-15
0.65067	-11
0.65433	-7
0.65800	-4
0.66167	-4
0.66533	-6
0.66900	-8
0.67267	-9
0.67633	-9
0.68000	-7
0.68367	-6
0.68733	-7
0.69100	-11
0.69467	-15
0.69833	-15
0.70200	-15
0.70567	-13
0.70933	-12
0.71300	-10
0.71667	-10
0.72033	-12
0.72400	-14
0.72767	-13
0.73133	-11
0.73500	-12
0.73867	-14
0.74233	-18
0.74600	-22
0.74967	-23
0.75333	-22
0.75700	-21
0.76067	-19
0.76433	-14
0.76800	-7
0.77167	-1
0.77533	2
0.77900	2
0.78267	-1
0.78633	-2
0.79000	-1
0.79367	2
0.79733	3
0.80100	6
0.80467	7
0.80833	4
0.81200	-1
0.81567	-6
0.81933	-9
0.82300	-9
0.82667	-9
0.83033	-11
0.83400	-12
0.83767	-13
0.84133	-14
0.84500	-16
0.84867	-20
0.85233	-24
0.85600	-28
0.85967	-30
0.86333	-31
0.86700	-30
0.87067	-27
0.87433	-22
0.87800	-15
0.88167	-9
0.88533	-4
0.88900	-2
0.89267	-3
0.89633	-6
0.90000	-11
0.90367	-16
0.90733	-18
0.91100	-19
0.91467	-20
0.91833	-21
0.92200	-20
0.92567	-19
0.92933	-20
0.93300	-19
0.93667	-17
0.94033	-17
0.94400	-16
0.94767	-16
0.95133	-19
0.95500	-24
0.95867	-26
0.96233	-27
0.96600	-26
0.96967	-25
0.97333	-21
0.97700	-20
0.98067	-20
0.98433	-22
0.98800	-24
0.99167	-25
0.99533	-25
0.99900	-24
1.00267	-23
1.00633	-24
1.01000	-25
1.01367	-24
1.01733	-21
1.02100	-19
1.02467	-21
1.02833	-25
1.03200	-30
1.03567	-33
1.03933	-35
1.04300	-34
1.04667	-29
1.05033	-23
1.05400	-20
1.05767	-19
1.06133	-18
1.06500	-18
1.06867	-19
1.07233	-21
1.07600	-21
1.07967	-19
1.08333	-17
1.08700	-15
1.09067	-11
1.09433	-9
1.09800	-12
1.10167	-17
1.10533	-20
1.10900	-23
1.11267	-24
1.11633	-25
1.12000	-24
1.12367	-19
1.12733	-15
1.13100	-15
1.13467	-18
1.13833	-20
1.14200	-26
1.14567	-33
1.14933	-41
1.15300	-48
1.15667	-51
1.16033	-51
1.16400	-52
1.16767	-53
1.17133	-50
1.17500	-47
1.17867	-43
1.18233	-39
1.18600	-36
1.18967	-36
1.19333	-36
1.19700	-36
1.20067	-35
1.20433	-33
1.20800	-30
1.21167	-27
1.21533	-26
1.21900	-28
1.22267	-29
1.22633	-33
1.23000	-37
1.23367	-40
1.23733	-38
1.24100	-35
1.24467	-32
1.24833	-30
1.25200	-30
1.25567	-32
1.25933	-34
1.26300	-37
1.26667	-38
1.27033	-38
1.27400	-39
1.27767	-39
1.28133	-40
1.28500	-39
1.28867	-36
1.29233	-34
1.29600	-33
1.29967	-34
1.30333	-33
1.30700	-32
1.31067	-31
1.31433	-29
1.31800	-27
1.32167	-25
1.32533	-22
1.32900	-21
1.33267	-24
1.33633	-24
1.34000	-25
1.34367	-26
1.34733	-29
1.35100	-34
1.35467	-36
1.35833	-35
1.36200	-34
1.36567	-32
1.36933	-28
1.37300	-28
1.37667	-32
1.38033	-35
1.38400	-38
1.38767	-41
1.39133	-46
1.39500	-51
1.39867	-53
1.40233	-54
1.40600	-57
1.40967	-60
1.41333	-61
1.41700	-56
1.42067	-48
1.42433	-43
1.42800	-38
1.43167	-34
1.43533	-25
1.43900	3
1.44267	99
1.44633	504
1.45000	1517
1.45367	3062
1.45733	4759
1.46100	6273
1.46467	7430
1.46833	8121
1.47200	8244
1.47567	7752
1.47933	6752
1.48300	5479
1.48667	4191
1.49033	3064
1.49400	2171
1.49767	1509
1.50133	1036
1.50500	709
1.50867	484
1.51233	328
1.51600	221
1.51967	147
1.52333	101
1.52700	71
1.53067	58
1.53433	86
1.53800	205
1.54167	471
1.54533	868
1.54900	1309
1.55267	1706
1.55633	2007
1.56000	2186
1.56367	2212
1.56733	2066
1.57100	1776
1.57467	1411
1.57833	1048
1.58200	736
1.58567	496
1.58933	322
1.59300	200
1.59667	118
1.60033	67
1.60400	35
1.60767	13
1.61133	-1
1.61500	-11
1.61867	-19
1.62233	-26
1.62600	-31
1.62967	-35
1.63333	-38
1.63700	-39
1.64067	-38
1.64433	-39
1.64800	-40
1.65167	-39
1.65533	-35
1.65900	-31
1.66267	-32
1.66633	-36
1.67000	-40
1.67367	-43
1.67733	-45
1.68100	-45
1.68467	-44
1.68833	-43
1.69200	-44
1.69567	-49
1.69933	-55
1.70300	-64
1.70667	-69
1.71033	-70
1.71400	-65
1.71767	-58
1.72133	-53
1.72500	-52
1.72867	-54
1.73233	-53
1.73600	-52
1.73967	-51
1.74333	-53
1.74700	-58
1.75067	-63
1.75433	-66
1.75800	-64
1.76167	-58
1.76533	-52
1.76900	-47
1.77267	-47
1.77633	-53
1.78000	-59
1.78367	-64
1.78733	-65
1.79100	-66
1.79467	-70
1.79833	-74
1.80200	-77
1.80567	-74
1.80933	-66
1.81300	-59
1.81667	-56
1.82033	-59
1.82400	-65
1.82767	-70
1.83133	-70
1.83500	-70
1.83867	-67
1.84233	-62
1.84600	-56
1.84967	-49
1.85333	-43
1.85700	-40
1.86067	-42
1.86433	-44
1.86800	-46
1.87167	-48
1.87533	-47
1.87900	-46
1.88267	-47
1.88633	-48
1.89000	-53
1.89367	-61
1.89733	-72
1.90100	-79
1.90467	-83
1.90833	-84
1.91200	-85
1.91567	-84
1.91933	-80
1.92300	-72
1.92667	-64
1.93033	-59
1.93400	-57
1.93767	-59
1.94133	-61
1.94500	-55
1.94867	3
1.95233	358
1.95600	2046
1.95967	8120
1.96333	24707
1.96700	59710
1.97067	117794
1.97433	195219
1.97800	280127
1.98167	357521
1.98533	414081
1.98900	440849
1.99267	434301
1.99633	397356
2.00000	339206
2.00367	272195
2.00733	207432
2.01100	151891
2.01467	108151
2.01833	75734
2.02200	52704
2.02567	36794
2.02933	25990
2.03300	18717
2.03667	13826
2.04033	10517
2.04400	8250
2.04767	6672
2.05133	5550
2.05500	4734
2.05867	4125
2.06233	3658
2.06600	3291
2.06967	2989
2.07333	2735
2.07700	2518
2.08067	2333
2.08433	2173
2.08800	2034
2.09167	1913
2.09533	1803
2.09900	1702
2.10267	1610
2.10633	1524
2.11000	1446
2.11367	1377
2.11733	1318
2.12100	1268
2.12467	1224
2.12833	1180
2.13200	1136
2.13567	1093
2.13933	1054
2.14300	1016
2.14667	979
2.15033	946
2.15400	917
2.15767	891
2.16133	867
2.16500	844
2.16867	820
2.17233	794
2.17600	769
2.17967	743
2.18333	717
2.18700	691
2.19067	666
2.19433	646
2.19800	630
2.20167	614
2.20533	598
2.20900	582
2.21267	566
2.21633	549
2.22000	533
2.22367	520
2.22733	508
2.23100	497
2.23467	487
2.23833	478
2.24200	469
2.24567	461
2.24933	455
2.25300	449
2.25667	446
2.26033	442
2.26400	433
2.26767	421
2.27133	406
2.27500	392
2.27867	380
2.28233	373
2.28600	371
2.28967	368
2.29333	363
2.29700	354
2.30067	345
2.30433	335
2.30800	326
2.31167	319
2.31533	315
2.31900	311
2.32267	305
2.32633	293
2.33000	282
2.33367	279
2.33733	278
2.34100	278
2.34467	276
2.34833	271
2.35200	270
2.35567	271
2.35933	273
2.36300	274
2.36667	272
2.37033	267
2.37400	264
2.37767	263
2.38133	263
2.38500	262
2.38867	256
2.39233	249
2.39600	242
2.39967	238
2.40333	236
2.40700	235
2.41067	233
2.41433	231
2.41800	229
2.42167	228
2.42533	225
2.42900	222
2.43267	220
2.43633	220
2.44000	226
2.44367	232
2.44733	233
2.45100	230
2.45467	223
2.45833	215
2.46200	209
2.46567	205
2.46933	201
2.47300	198
2.47667	195
2.48033	193
2.48400	192
2.48767	194
2.49133	197
2.49500	199
2.49867	198
2.50233	192
2.50600	187
2.50967	184
2.51333	185
2.51700	194
2.52067	206
2.52433	213
2.52800	216
2.53167	216
2.53533	215
2.53900	213
2.54267	210
2.54633	205
2.55000	198
2.55367	193
2.55733	187
2.56100	181
2.56467	178
2.56833	177
2.57200	176
2.57567	177
2.57933	179
2.58300	180
2.58667	179
2.59033	177
2.59400	175
2.59767	175
2.60133	174
2.60500	173
2.60867	172
2.61233	168
2.61600	165
2.61967	166
2.62333	168
2.62700	167
2.63067	166
2.63433	164
2.63800	162
2.64167	163
2.64533	166
2.64900	167
2.65267	165
2.65633	160
2.66000	157
2.66367	155
2.66733	152
2.67100	151
2.67467	154
2.67833	156
2.68200	155
2.68567	152
2.68933	153
2.69300	157
2.69667	161
2.70033	163
2.70400	161
2.70767	161
2.71133	162
2.71500	161
2.71867	159
2.72233	159
2.72600	159
2.72967	160
2.73333	159
2.73700	159
2.74067	160
2.74433	161
2.74800	161
2.75167	160
2.75533	158
2.75900	157
2.76267	157
2.76633	156
2.77000	156
2.77367	155
2.77733	155
2.78100	158
2.78467	160
2.78833	160
2.79200	160
2.79567	157
2.79933	155
2.80300	153
2.80667	153
2.81033	156
2.81400	160
2.81767	161
2.82133	161
2.82500	160
2.82867	160
2.83233	159
2.83600	156
2.83967	154
2.84333	149
2.84700	145
2.85067	144
2.85433	145
2.85800	145
2.86167	145
2.86533	144
2.86900	144
2.87267	146
2.87633	149
2.88000	154
2.88367	160
2.88733	166
2.89100	169
2.89467	173
2.89833	174
2.90200	173
2.90567	169
2.90933	162
2.91300	155
2.91667	150
2.92033	145
2.92400	142
2.92767	142
2.93133	143
2.93500	145
2.93867	150
2.94233	159
2.94600	167
2.94967	172
2.95333	172
2.95700	169
2.96067	164
2.96433	157
2.96800	151
2.97167	148
2.97533	149
2.97900	156
2.98267	168
2.98633	179
2.99000	186
2.99367	188
2.99733	186
3.00100	184
3.00467	183
3.00833	184
3.01200	183
3.01567	182
3.01933	180
3.02300	175
3.02667	169
3.03033	164
3.03400	159
3.03767	157
3.04133	157
3.04500	160
3.04867	163
3.05233	166
3.05600	169
3.05967	167
3.06333	162
3.06700	159
3.07067	161
3.07433	164
3.07800	165
3.08167	168
3.08533	172
3.08900	169
3.09267	163
3.09633	154
3.10000	148
3.10367	145
3.10733	144
3.11100	146
3.11467	149
3.11833	150
3.12200	146
3.12567	144
3.12933	144
3.13300	144
3.13667	145
3.14033	148
3.14400	151
3.14767	151
3.15133	148
3.15500	145
3.15867	143
3.16233	138
3.16600	132
3.16967	128
3.17333	129
3.17700	133
3.18067	137
3.18433	141
3.18800	143
3.19167	145
3.19533	147
3.19900	148
3.20267	146
3.20633	141
3.21000	136
3.21367	135
3.21733	136
3.22100	135
3.22467	133
3.22833	129
3.23200	128
3.23567	130
3.23933	133
3.24300	138
3.24667	141
3.25033	142
3.25400	140
3.25767	138
3.26133	135
3.26500	132
3.26867	128
3.27233	128
3.27600	129
3.27967	127
3.28333	125
3.28700	125
3.29067	126
3.29433	130
3.29800	137
3.30167	143
3.30533	144
3.30900	142
3.31267	139
3.31633	139
3.32000	143
3.32367	145
3.32733	146
3.33100	143
3.33467	138
3.33833	133
3.34200	128
3.34567	125
3.34933	125
3.35300	125
3.35667	122
3.36033	120
3.36400	121
3.36767	125
3.37133	126
3.37500	127
3.37867	127
3.38233	130
3.38600	133
3.38967	136
3.39333	135
3.39700	130
3.40067	124
3.40433	118
3.40800	115
3.41167	115
3.41533	115
3.41900	115
3.42267	117
3.42633	119
3.43000	121
3.43367	121
3.43733	123
3.44100	128
3.44467	130
3.44833	128
3.45200	127
3.45567	126
3.45933	128
3.46300	127
3.46667	123
3.47033	121
3.47400	121
3.47767	119
3.48133	117
3.48500	115
3.48867	116
3.49233	120
3.49600	124
3.49967	125
3.50333	123
3.50700	119
3.51067	117
3.51433	119
3.51800	122
3.52167	121
3.52533	118
3.52900	112
3.53267	110
3.53633	114
3.54000	117
3.54367	120
3.54733	123
3.55100	122
3.55467	118
3.55833	110
3.56200	101
3.56567	97
3.56933	99
3.57300	106
3.57667	111
3.58033	116
3.58400	123
3.58767	129
3.59133	132
3.59500	131
3.59867	128
3.60233	123
3.60600	118
3.60967	112
3.61333	106
3.61700	98
3.62067	92
3.62433	88
3.62800	84
3.63167	81
3.63533	83
3.63900	86
3.64267	93
3.64633	100
3.65000	106
3.65367	112
3.65733	114
3.66100	115
3.66467	115
3.66833	112
3.67200	108
3.67567	103
3.67933	99
3.68300	97
3.68667	97
3.69033	96
3.69400	94
3.69767	92
3.70133	91
3.70500	92
3.70867	93
3.71233	96
3.71600	94
3.71967	92
3.72333	91
3.72700	93
3.73067	93
3.73433	91
3.73800	90
3.74167	88
3.74533	85
3.74900	81
3.75267	74
3.75633	72
3.76000	76
3.76367	84
3.76733	89
3.77100	89
3.77467	86
3.77833	86
3.78200	88
3.78567	88
3.78933	87
3.79300	87
3.79667	86
3.80033	85
3.80400	88
3.80767	93
3.81133	97
3.81500	101
3.81867	106
3.82233	109
3.82600	107
3.82967	105
3.83333	105
3.83700	105
3.84067	100
3.84433	85
3.84800	70
3.85167	61
3.85533	59
3.85900	61
3.86267	63
3.86633	69
3.87000	76
3.87367	79
3.87733	80
3.88100	78
3.88467	79
3.88833	79
3.89200	80
3.89567	83
3.89933	87
3.90300	87
3.90667	83
3.91033	78
3.91400	77
3.91767	76
3.92133	74
3.92500	72
3.92867	70
3.93233	69
3.93600	68
3.93967	66
3.94333	64
3.94700	68
3.95067	77
3.95433	84
3.95800	85
3.96167	81
3.96533	77
3.96900	71
3.97267	68
3.97633	66
3.98000	65
3.98367	65
3.98733	69
3.99100	75
3.99467	78
3.99833	79

[Chromatogram (Ch2)]
Interval(msec)	220
# of Points	1091
Start Time(min)	0.002
End Time(min)	3.998
R.Time (min)	Intensity
0.00167	1
0.00533	1
0.00900	1
0.01267	1
0.01633	1
0.02000	0
0.02367	0
0.02733	-0
0.03100	-0
0.03467	-1
0.03833	-1
0.04200	-1
0.04567	-1
0.04933	-1
0.05300	-1
0.05667	-1
0.06033	-1
0.06400	-1
0.06767	-1
0.07133	-1
0.07500	-0
0.07867	-0
0.08233	-0
0.08600	-1
0.08967	-1
0.09333	-1
0.09700	-1
0.10067	-1
0.10433	-1
0.10800	-0
0.11167	-0
0.11533	-0
0.11900	-0
0.12267	-0
0.12633	-0
0.13000	-0
0.13367	0
0.13733	-0
0.14100	-0
0.14467	-1
0.14833	-1
0.15200	-1
0.15567	-2
0.15933	-2
0.16300	-2
0.16667	-2
0.17033	-2
0.17400	-2
0.17767	-1
0.18133	-1
0.18500	-1
0.18867	-1
0.19233	-0
0.19600	-0
0.19967	-0
0.20333	-1
0.20700	-1
0.21067	-1
0.21433	-1
0.21800	-1
0.22167	-1
0.22533	-1
0.22900	-1
0.23267	-1
0.23633	-1
0.24000	-1
0.24367	-1
0.24733	-1
0.25100	-0
0.25467	-0
0.25833	-0
0.26200	-0
0.26567	-0
0.26933	-0
0.27300	-1
0.27667	-1
0.28033	-1
0.28400	-1
0.28767	-1
0.29133	-1
0.29500	-1
0.29867	-1
0.30233	-2
0.30600	-2
0.30967	-2
0.31333	-2
0.31700	-2
0.32067	-2
0.32433	-2
0.32800	-2
0.33167	-2
0.33533	-2
0.33900	-2
0.34267	-2
0.34633	-2
0.35000	-2
0.35367	-2
0.35733	-2
0.36100	-2
0.36467	-2
0.36833	-2
0.37200	-2
0.37567	-2
0.37933	-2
0.38300	-2
0.38667	-2
0.39033	-2
0.39400	-2
0.39767	-2
0.40133	-3
0.40500	-3
0.40867	-2
0.41233	-2
0.41600	-2
0.41967	-2
0.42333	-2
0.42700	-2
0.43067	-1
0.43433	-1
0.43800	-1
0.44167	-1
0.44533	-2
0.44900	-2
0.45267	-2
0.45633	-2
0.46000	-2
0.46367	-2
0.46733	-2
0.47100	-3
0.47467	-3
0.47833	-3
0.48200	-3
0.48567	-2
0.48933	-2
0.49300	-2
0.49667	-2
0.50033	-2
0.50400	-2
0.50767	-2
0.51133	-2
0.51500	-2
0.51867	-1
0.52233	-1
0.52600	-1
0.52967	-2
0.53333	-2
0.53700	-2
0.54067	-1
0.54433	-2
0.54800	-2
0.55167	-2
0.55533	-2
0.55900	-2
0.56267	-2
0.56633	-2
0.57000	-2
0.57367	-2
0.57733	-2
0.58100	-2
0.58467	-2
0.58833	-2
0.59200	-2
0.59567	-2
0.59933	-2
0.60300	-2
0.60667	-2
0.61033	-2
0.61400	-1
0.61767	-1
0.62133	-1
0.62500	-1
0.62867	-1
0.63233	-1
0.63600	-1
0.63967	-1
0.64333	-1
0.64700	-2
0.65067	-2
0.65433	-2
0.65800	-2
0.66167	-2
0.66533	-2
0.66900	-2
0.67267	-2
0.67633	-3
0.68000	-3
0.68367	-3
0.68733	-2
0.69100	-2
0.69467	-2
0.69833	-2
0.70200	-2
0.70567	-2
0.70933	-2
0.71300	-2
0.71667	-1
0.72033	-1
0.72400	-1
0.72767	-1
0.73133	-1
0.73500	-1
0.73867	-1
0.74233	-1
0.74600	-1
0.74967	-1
0.75333	-1
0.75700	-1
0.76067	-1
0.76433	-1
0.76800	-0
0.77167	-0
0.77533	-0
0.77900	-0
0.78267	0
0.78633	0
0.79000	1
0.79367	1
0.79733	1
0.80100	1
0.80467	1
0.80833	1
0.81200	0
0.81567	0
0.81933	-0
0.82300	-0
0.82667	-1
0.83033	-1
0.83400	-2
0.83767	-2
0.84133	-2
0.84500	-2
0.84867	-2
0.85233	-2
0.85600	-2
0.85967	-2
0.86333	-2
0.86700	-2
0.87067	-2
0.87433	-2
0.87800	-2
0.88167	-2
0.88533	-2
0.88900	-2
0.89267	-2
0.89633	-3
0.90000	-3
0.90367	-3
0.90733	-3
0.91100	-3
0.91467	-2
0.91833	-2
0.92200	-2
0.92567	-2
0.92933	-2
0.93300	-2
0.93667	-2
0.94033	-2
0.94400	-2
0.94767	-2
0.95133	-2
0.95500	-2
0.95867	-2
0.96233	-2
0.96600	-2
0.96967	-3
0.97333	-3
0.97700	-3
0.98067	-3
0.98433	-3
0.98800	-3
0.99167	-3
0.99533	-2
0.99900	-2
1.00267	-2
1.00633	-2
1.01000	-2
1.01367	-2
1.01733	-3
1.02100	-3
1.02467	-3
1.02833	-3
1.03200	-3
1.03567	-3
1.03933	-3
1.04300	-3
1.04667	-3
1.05033	-3
1.05400	-3
1.05767	-3
1.06133	-2
1.06500	-2
1.06867	-2
1.07233	-2
1.07600	-3
1.07967	-3
1.08333	-3
1.08700	-3
1.09067	-3
1.09433	-3
1.09800	-3
1.10167	-3
1.10533	-3
1.10900	-3
1.11267	-3
1.11633	-2
1.12000	-2
1.12367	-2
1.12733	-3
1.13100	-3
1.13467	-3
1.13833	-3
1.14200	-3
1.14567	-3
1.14933	-3
1.15300	-3
1.15667	-3
1.16033	-3
1.16400	-3
1.16767	-3
1.17133	-3
1.17500	-3
1.17867	-3
1.18233	-3
1.18600	-3
1.18967	-3
1.19333	-3
1.19700	-3
1.20067	-3
1.20433	-3
1.20800	-3
1.21167	-3
1.21533	-3
1.21900	-3
1.22267	-3
1.22633	-3
1.23000	-4
1.23367	-4
1.23733	-4
1.24100	-4
1.24467	-4
1.24833	-4
1.25200	-4
1.25567	-4
1.25933	-4
1.26300	-4
1.26667	-4
1.27033	-4
1.27400	-4
1.27767	-4
1.28133	-4
1.28500	-4
1.28867	-4
1.29233	-4
1.29600	-3
1.29967	-3
1.30333	-3
1.30700	-3
1.31067	-3
1.31433	-3
1.31800	-3
1.32167	-3
1.32533	-3
1.32900	-3
1.33267	-3
1.33633	-3
1.34000	-4
1.34367	-4
1.34733	-4
1.35100	-4
1.35467	-4
1.35833	-4
1.36200	-4
1.36567	-4
1.36933	-4
1.37300	-4
1.37667	-4
1.38033	-4
1.38400	-3
1.38767	-3
1.39133	-3
1.39500	-3
1.39867	-3
1.40233	-3
1.40600	-3
1.40967	-3
1.41333	-3
1.41700	-3
1.42067	-3
1.42433	-3
1.42800	-3
1.43167	-3
1.43533	-3
1.43900	-3
1.44267	-3
1.44633	-3
1.45000	-3
1.45367	-3
1.45733	-3
1.46100	-3
1.46467	-3
1.46833	-3
1.47200	-3
1.47567	-3
1.47933	-3
1.48300	-3
1.48667	-3
1.49033	-3
1.49400	-2
1.49767	-3
1.50133	-3
1.50500	-3
1.50867	-3
1.51233	-3
1.51600	-3
1.51967	-3
1.52333	-4
1.52700	-4
1.53067	-4
1.53433	-4
1.53800	-4
1.54167	-4
1.54533	-4
1.54900	-4
1.55267	-3
1.55633	-3
1.56000	-4
1.56367	-4
1.56733	-4
1.57100	-4
1.57467	-4
1.57833	-4
1.58200	-4
1.58567	-4
1.58933	-4
1.59300	-4
1.59667	-4
1.60033	-5
1.60400	-6
1.60767	-7
1.61133	-9
1.61500	-11
1.61867	-13
1.62233	-16
1.62600	-19
1.62967	-22
1.63333	-25
1.63700	-28
1.64067	-31
1.64433	-34
1.64800	-37
1.65167	-40
1.65533	-43
1.65900	-47
1.66267	-50
1.66633	-54
1.67000	-58
1.67367	-62
1.67733	-67
1.68100	-72
1.68467	-76
1.68833	-80
1.69200	-83
1.69567	-86
1.69933	-88
1.70300	-90
1.70667	-91
1.71033	-92
1.71400	-93
1.71767	-94
1.72133	-95
1.72500	-95
1.72867	-96
1.73233	-96
1.73600	-97
1.73967	-97
1.74333	-97
1.74700	-97
1.75067	-97
1.75433	-97
1.75800	-97
1.76167	-97
1.76533	-97
1.76900	-97
1.77267	-97
1.77633	-97
1.78000	-97
1.78367	-97
1.78733	-97
1.79100	-98
1.79467	-98
1.79833	-99
1.80200	-99
1.80567	-100
1.80933	-100
1.81300	-100
1.81667	-100
1.82033	-100
1.82400	-100
1.82767	-100
1.83133	-100
1.83500	-100
1.83867	-100
1.84233	-100
1.84600	-100
1.84967	-100
1.85333	-101
1.85700	-101
1.86067	-102
1.86433	-101
1.86800	-101
1.87167	-100
1.87533	-100
1.87900	-99
1.88267	-98
1.88633	-98
1.89000	-98
1.89367	-98
1.89733	-98
1.90100	-98
1.90467	-98
1.90833	-98
1.91200	-98
1.91567	-97
1.91933	-96
1.92300	-96
1.92667	-95
1.93033	-95
1.93400	-95
1.93767	-95
1.94133	-95
1.94500	-95
1.94867	-95
1.95233	-95
1.95600	-96
1.95967	-96
1.96333	-96
1.96700	-96
1.97067	-95
1.97433	-95
1.97800	-94
1.98167	-93
1.98533	-93
1.98900	-92
1.99267	-92
1.99633	-92
2.00000	-92
2.00367	-92
2.00733	-91
2.01100	-91
2.01467	-90
2.01833	-90
2.02200	-90
2.02567	-90
2.02933	-90
2.03300	-90
2.03667	-90
2.04033	-90
2.04400	-89
2.04767	-89
2.05133	-89
2.05500	-89
2.05867	-88
2.06233	-88
2.06600	-87
2.06967	-86
2.07333	-86
2.07700	-85
2.08067	-85
2.08433	-85
2.08800	-85
2.09167	-85
2.09533	-84
2.09900	-84
2.10267	-84
2.10633	-84
2.11000	-83
2.11367	-83
2.11733	-83
2.12100	-83
2.12467	-84
2.12833	-84
2.13200	-83
2.13567	-83
2.13933	-82
2.14300	-81
2.14667	-81
2.15033	-80
2.15400	-79
2.15767	-79
2.16133	-79
2.16500	-78
2.16867	-78
2.17233	-78
2.17600	-78
2.17967	-78
2.18333	-78
2.18700	-77
2.19067	-77
2.19433	-77
2.19800	-77
2.20167	-77
2.20533	-76
2.20900	-76
2.21267	-75
2.21633	-75
2.22000	-74
2.22367	-74
2.22733	-73
2.23100	-73
2.23467	-72
2.23833	-72
2.24200	-73
2.24567	-73
2.24933	-73
2.25300	-73
2.25667	-73
2.26033	-74
2.26400	-74
2.26767	-73
2.27133	-73
2.27500	-73
2.27867	-72
2.28233	-72
2.28600	-71
2.28967	-71
2.29333	-71
2.29700	-70
2.30067	-69
2.30433	-69
2.30800	-69
2.31167	-69
2.31533	-68
2.31900	-68
2.32267	-68
2.32633	-68
2.33000	-67
2.33367	-67
2.33733	-67
2.34100	-68
2.34467	-68
2.34833	-67
2.35200	-66
2.35567	-65
2.35933	-64
2.36300	-62
2.36667	-60
2.37033	-58
2.37400	-56
2.37767	-53
2.38133	-50
2.38500	-46
2.38867	-42
2.39233	-38
2.39600	-33
2.39967	-29
2.40333	-25
2.40700	-21
2.41067	-17
2.41433	-13
2.41800	-10
2.42167	-8
2.42533	-6
2.42900	-4
2.43267	-2
2.43633	-1
2.44000	1
2.44367	3
2.44733	4
2.45100	6
2.45467	7
2.45833	9
2.46200	10
2.46567	10
2.46933	11
2.47300	11
2.47667	12
2.48033	13
2.48400	14
2.48767	16
2.49133	17
2.49500	17
2.49867	18
2.50233	19
2.50600	19
2.50967	19
2.51333	19
2.51700	19
2.52067	19
2.52433	19
2.52800	19
2.53167	19
2.53533	18
2.53900	18
2.54267	18
2.54633	17
2.55000	16
2.55367	15
2.55733	14
2.56100	13
2.56467	13
2.56833	13
2.57200	13
2.57567	13
2.57933	13
2.58300	13
2.58667	13
2.59033	13
2.59400	13
2.59767	14
2.60133	14
2.60500	15
2.60867	15
2.61233	16
2.61600	17
2.61967	18
2.62333	18
2.62700	19
2.63067	19
2.63433	20
2.63800	20
2.64167	20
2.64533	21
2.64900	21
2.65267	21
2.65633	21
2.66000	21
2.66367	22
2.66733	22
2.67100	22
2.67467	22
2.67833	22
2.68200	23
2.68567	23
2.68933	24
2.69300	25
2.69667	26
2.70033	26
2.70400	27
2.70767	27
2.71133	27
2.71500	26
2.71867	26
2.72233	26
2.72600	26
2.72967	26
2.73333	26
2.73700	26
2.74067	27
2.74433	27
2.74800	28
2.75167	28
2.75533	28
2.75900	28
2.76267	28
2.76633	29
2.77000	29
2.77367	29
2.77733	30
2.78100	30
2.78467	30
2.78833	30
2.79200	29
2.79567	28
2.79933	27
2.80300	27
2.80667	26
2.81033	26
2.81400	25
2.81767	25
2.82133	25
2.82500	25
2.82867	25
2.83233	26
2.83600	26
2.83967	26
2.84333	27
2.84700	27
2.85067	27
2.85433	27
2.85800	26
2.86167	24
2.86533	19
2.86900	12
2.87267	2
2.87633	-13
2.88000	-32
2.88367	-57
2.88733	-87
2.89100	-122
2.89467	-163
2.89833	-209
2.90200	-259
2.90567	-313
2.90933	-371
2.91300	-431
2.91667	-494
2.92033	-558
2.92400	-623
2.92767	-687
2.93133	-750
2.93500	-810
2.93867	-867
2.94233	-922
2.94600	-977
2.94967	-1032
2.95333	-1080
2.95700	-1110
2.96067	-1118
2.96433	-1100
2.96800	-1059
2.97167	-1000
2.97533	-928
2.97900	-849
2.98267	-767
2.98633	-686
2.99000	-608
2.99367	-535
2.99733	-467
3.00100	-406
3.00467	-351
3.00833	-302
3.01200	-259
3.01567	-221
3.01933	-188
3.02300	-159
3.02667	-133
3.03033	-112
3.03400	-93
3.03767	-77
3.04133	-64
3.04500	-52
3.04867	-42
3.05233	-34
3.05600	-27
3.05967	-21
3.06333	-16
3.06700	-11
3.07067	-7
3.07433	-4
3.07800	-1
3.08167	2
3.08533	4
3.08900	6
3.09267	8
3.09633	9
3.10000	10
3.10367	11
3.10733	12
3.11100	13
3.11467	14
3.11833	14
3.12200	15
3.12567	15
3.12933	16
3.13300	17
3.13667	17
3.14033	18
3.14400	18
3.14767	19
3.15133	19
3.15500	19
3.15867	20
3.16233	20
3.16600	20
3.16967	20
3.17333	20
3.17700	21
3.18067	21
3.18433	21
3.18800	21
3.19167	22
3.19533	22
3.19900	22
3.20267	22
3.20633	23
3.21000	23
3.21367	23
3.21733	23
3.22100	22
3.22467	22
3.22833	23
3.23200	23
3.23567	23
3.23933	23
3.24300	23
3.24667	24
3.25033	24
3.25400	24
3.25767	24
3.26133	24
3.26500	24
3.26867	25
3.27233	25
3.27600	25
3.27967	25
3.28333	25
3.28700	26
3.29067	26
3.29433	26
3.29800	26
3.30167	26
3.30533	26
3.30900	26
3.31267	26
3.31633	26
3.32000	26
3.32367	26
3.32733	27
3.33100	27
3.33467	27
3.33833	28
3.34200	28
3.34567	28
3.34933	28
3.35300	28
3.35667	29
3.36033	29
3.36400	29
3.36767	30
3.37133	30
3.37500	30
3.37867	30
3.38233	31
3.38600	31
3.38967	31
3.39333	31
3.39700	31
3.40067	31
3.40433	31
3.40800	31
3.41167	31
3.41533	31
3.41900	31
3.42267	31
3.42633	31
3.43000	31
3.43367	31
3.43733	31
3.44100	31
3.44467	31
3.44833	30
3.45200	30
3.45567	30
3.45933	30
3.46300	30
3.46667	30
3.47033	30
3.47400	30
3.47767	30
3.48133	31
3.48500	31
3.48867	31
3.49233	31
3.49600	31
3.49967	31
3.50333	31
3.50700	30
3.51067	30
3.51433	30
3.51800	30
3.52167	30
3.52533	30
3.52900	30
3.53267	30
3.53633	30
3.54000	30
3.54367	30
3.54733	30
3.55100	30
3.55467	30
3.55833	30
3.56200	30
3.56567	30
3.56933	30
3.57300	30
3.57667	30
3.58033	30
3.58400	30
3.58767	30
3.59133	31
3.59500	31
3.59867	31
3.60233	31
3.60600	31
3.60967	31
3.61333	31
3.61700	30
3.62067	30
3.62433	30
3.62800	29
3.63167	29
3.63533	29
3.63900	29
3.64267	29
3.64633	29
3.65000	29
3.65367	29
3.65733	29
3.66100	29
3.66467	29
3.66833	30
3.67200	30
3.67567	30
3.67933	30
3.68300	30
3.68667	29
3.69033	29
3.69400	29
3.69767	29
3.70133	29
3.70500	29
3.70867	29
3.71233	29
3.71600	29
3.71967	29
3.72333	29
3.72700	29
3.73067	29
3.73433	29
3.73800	29
3.74167	29
3.74533	30
3.74900	29
3.75267	29
3.75633	29
3.76000	29
3.76367	29
3.76733	29
3.77100	29
3.77467	29
3.77833	30
3.78200	30
3.78567	30
3.78933	30
3.79300	30
3.79667	30
3.80033	29
3.80400	29
3.80767	30
3.81133	30
3.81500	30
3.81867	30
3.82233	30
3.82600	30
3.82967	30
3.83333	30
3.83700	30
3.84067	30
3.84433	30
3.84800	30
3.85167	30
3.85533	30
3.85900	30
3.86267	30
3.86633	30
3.87000	30
3.87367	30
3.87733	30
3.88100	30
3.88467	30
3.88833	30
3.89200	30
3.89567	30
3.89933	30
3.90300	30
3.90667	30
3.91033	30
3.91400	31
3.91767	31
3.92133	31
3.92500	30
3.92867	30
3.93233	30
3.93600	30
3.93967	30
3.94333	30
3.94700	30
3.95067	30
3.95433	30
3.95800	30
3.96167	30
3.96533	30
3.96900	30
3.97267	30
3.97633	30
3.98000	30
3.98367	30
3.98733	30
3.99100	30
3.99467	30
3.99833	30

[Chromatogram (Ch3)]
Interval(msec)	220
# of Points	1091
Start Time(min)	0.002
End Time(min)	3.998
R.Time (min)	Intensity
0.00167	-0
0.00533	-0
0.00900	-0
0.01267	0
0.01633	2
0.02000	3
0.02367	3
0.02733	3
0.03100	3
0.03467	3
0.03833	3
0.04200	3
0.04567	4
0.04933	3
0.05300	1
0.05667	1
0.06033	1
0.06400	2
0.06767	1
0.07133	1
0.07500	2
0.07867	3
0.08233	4
0.08600	5
0.08967	5
0.09333	5
0.09700	3
0.10067	2
0.10433	0
0.10800	-1
0.11167	-1
0.11533	1
0.11900	2
0.12267	5
0.12633	5
0.13000	4
0.13367	4
0.13733	4
0.14100	3
0.14467	1
0.14833	-0
0.15200	-0
0.15567	1
0.15933	2
0.16300	1
0.16667	1
0.17033	2
0.17400	2
0.17767	0
0.18133	-1
0.18500	-0
0.18867	1
0.19233	4
0.19600	3
0.19967	3
0.20333	2
0.20700	2
0.21067	3
0.21433	3
0.21800	6
0.22167	5
0.22533	4
0.22900	6
0.23267	6
0.23633	6
0.24000	6
0.24367	7
0.24733	7
0.25100	6
0.25467	3
0.25833	0
0.26200	-1
0.26567	-1
0.26933	-0
0.27300	1
0.27667	2
0.28033	1
0.28400	-0
0.28767	-0
0.29133	-3
0.29500	-4
0.29867	-5
0.30233	-5
0.30600	-3
0.30967	-0
0.31333	3
0.31700	4
0.32067	3
0.32433	3
0.32800	5
0.33167	7
0.33533	6
0.33900	7
0.34267	8
0.34633	7
0.35000	8
0.35367	9
0.35733	5
0.36100	2
0.36467	-1
0.36833	-2
0.37200	0
0.37567	3
0.37933	4
0.38300	3
0.38667	2
0.39033	3
0.39400	3
0.39767	3
0.40133	4
0.40500	2
0.40867	-1
0.41233	1
0.41600	2
0.41967	3
0.42333	5
0.42700	6
0.43067	5
0.43433	5
0.43800	5
0.44167	6
0.44533	7
0.44900	7
0.45267	6
0.45633	6
0.46000	6
0.46367	6
0.46733	3
0.47100	1
0.47467	-1
0.47833	1
0.48200	3
0.48567	7
0.48933	8
0.49300	9
0.49667	9
0.50033	9
0.50400	8
0.50767	5
0.51133	4
0.51500	4
0.51867	4
0.52233	4
0.52600	3
0.52967	4
0.53333	4
0.53700	3
0.54067	2
0.54433	0
0.54800	-2
0.55167	-1
0.55533	-3
0.55900	-2
0.56267	1
0.56633	3
0.57000	3
0.57367	3
0.57733	3
0.58100	5
0.58467	5
0.58833	6
0.59200	7
0.59567	8
0.59933	8
0.60300	7
0.60667	5
0.61033	4
0.61400	5
0.61767	4
0.62133	3
0.62500	3
0.62867	4
0.63233	5
0.63600	4
0.63967	2
0.64333	2
0.64700	5
0.65067	7
0.65433	9
0.65800	11
0.66167	12
0.66533	11
0.66900	10
0.67267	9
0.67633	7
0.68000	5
0.68367	4
0.68733	5
0.69100	6
0.69467	6
0.69833	5
0.70200	8
0.70567	9
0.70933	7
0.71300	6
0.71667	6
0.72033	6
0.72400	5
0.72767	5
0.73133	7
0.73500	8
0.73867	8
0.74233	6
0.74600	7
0.74967	9
0.75333	10
0.75700	10
0.76067	8
0.76433	8
0.76800	9
0.77167	10
0.77533	8
0.77900	6
0.78267	5
0.78633	6
0.79000	7
0.79367	7
0.79733	7
0.80100	7
0.80467	5
0.80833	6
0.81200	7
0.81567	8
0.81933	11
0.82300	12
0.82667	11
0.83033	8
0.83400	5
0.83767	3
0.84133	2
0.84500	2
0.84867	3
0.85233	7
0.85600	10
0.85967	10
0.86333	8
0.86700	10
0.87067	11
0.87433	13
0.87800	13
0.88167	10
0.88533	9
0.88900	9
0.89267	9
0.89633	9
0.90000	9
0.90367	7
0.90733	6
0.91100	5
0.91467	3
0.91833	3
0.92200	2
0.92567	2
0.92933	5
0.93300	8
0.93667	9
0.94033	10
0.94400	9
0.94767	7
0.95133	6
0.95500	7
0.95867	7
0.96233	7
0.96600	7
0.96967	7
0.97333	6
0.97700	4
0.98067	4
0.98433	5
0.98800	5
0.99167	5
0.99533	5
0.99900	4
1.00267	4
1.00633	6
1.01000	7
1.01367	8
1.01733	10
1.02100	11
1.02467	11
1.02833	9
1.03200	8
1.03567	7
1.03933	8
1.04300	9
1.04667	9
1.05033	8
1.05400	5
1.05767	2
1.06133	-0
1.06500	-0
1.06867	0
1.07233	2
1.07600	5
1.07967	4
1.08333	4
1.08700	5
1.09067	6
1.09433	10
1.09800	12
1.10167	11
1.10533	10
1.10900	11
1.11267	11
1.11633	9
1.12000	8
1.12367	9
1.12733	9
1.13100	9
1.13467	8
1.13833	6
1.14200	5
1.14567	3
1.14933	3
1.15300	4
1.15667	5
1.16033	7
1.16400	7
1.16767	9
1.17133	11
1.17500	10
1.17867	10
1.18233	10
1.18600	11
1.18967	11
1.19333	12
1.19700	13
1.20067	16
1.20433	18
1.20800	16
1.21167	14
1.21533	13
1.21900	12
1.22267	9
1.22633	6
1.23000	4
1.23367	6
1.23733	8
1.24100	7
1.24467	6
1.24833	7
1.25200	10
1.25567	13
1.25933	12
1.26300	8
1.26667	7
1.27033	5
1.27400	6
1.27767	10
1.28133	11
1.28500	11
1.28867	12
1.29233	10
1.29600	10
1.29967	9
1.30333	8
1.30700	8
1.31067	9
1.31433	7
1.31800	6
1.32167	6
1.32533	7
1.32900	7
1.33267	7
1.33633	4
1.34000	4
1.34367	6
1.34733	9
1.35100	9
1.35467	7
1.35833	7
1.36200	8
1.36567	8
1.36933	6
1.37300	6
1.37667	5
1.38033	5
1.38400	7
1.38767	9
1.39133	12
1.39500	14
1.39867	13
1.40233	11
1.40600	9
1.40967	7
1.41333	8
1.41700	9
1.42067	9
1.42433	10
1.42800	9
1.43167	9
1.43533	10
1.43900	12
1.44267	16
1.44633	17
1.45000	16
1.45367	13
1.45733	12
1.46100	13
1.46467	14
1.46833	14
1.47200	13
1.47567	14
1.47933	14
1.48300	14
1.48667	16
1.49033	16
1.49400	17
1.49767	16
1.50133	15
1.50500	13
1.50867	14
1.51233	13
1.51600	11
1.51967	10
1.52333	10
1.52700	9
1.53067	7
1.53433	7
1.53800	5
1.54167	5
1.54533	4
1.54900	5
1.55267	6
1.55633	9
1.56000	12
1.56367	10
1.56733	10
1.57100	10
1.57467	10
1.57833	11
1.58200	12
1.58567	11
1.58933	11
1.59300	11
1.59667	10
1.60033	9
1.60400	7
1.60767	5
1.61133	4
1.61500	3
1.61867	6
1.62233	10
1.62600	12
1.62967	14
1.63333	15
1.63700	14
1.64067	14
1.64433	16
1.64800	16
1.65167	16
1.65533	14
1.65900	13
1.66267	13
1.66633	12
1.67000	14
1.67367	15
1.67733	15
1.68100	16
1.68467	16
1.68833	18
1.69200	19
1.69567	19
1.69933	18
1.70300	17
1.70667	16
1.71033	17
1.71400	17
1.71767	18
1.72133	19
1.72500	19
1.72867	21
1.73233	21
1.73600	19
1.73967	20
1.74333	21
1.74700	19
1.75067	17
1.75433	19
1.75800	20
1.76167	21
1.76533	23
1.76900	23
1.77267	22
1.77633	21
1.78000	19
1.78367	19
1.78733	18
1.79100	18
1.79467	18
1.79833	19
1.80200	21
1.80567	22
1.80933	21
1.81300	22
1.81667	23
1.82033	24
1.82400	26
1.82767	27
1.83133	25
1.83500	24
1.83867	24
1.84233	24
1.84600	24
1.84967	24
1.85333	25
1.85700	27
1.86067	24
1.86433	23
1.86800	23
1.87167	23
1.87533	24
1.87900	25
1.88267	29
1.88633	30
1.89000	29
1.89367	30
1.89733	31
1.90100	34
1.90467	37
1.90833	38
1.91200	36
1.91567	35
1.91933	34
1.92300	32
1.92667	31
1.93033	31
1.93400	34
1.93767	37
1.94133	39
1.94500	41
1.94867	43
1.95233	44
1.95600	45
1.95967	45
1.96333	43
1.96700	40
1.97067	36
1.97433	33
1.97800	31
1.98167	32
1.98533	35
1.98900	37
1.99267	37
1.99633	40
2.00000	42
2.00367	43
2.00733	44
2.01100	43
2.01467	42
2.01833	42
2.02200	42
2.02567	42
2.02933	43
2.03300	47
2.03667	49
2.04033	51
2.04400	52
2.04767	51
2.05133	50
2.05500	52
2.05867	54
2.06233	53
2.06600	52
2.06967	51
2.07333	51
2.07700	51
2.08067	49
2.08433	51
2.08800	54
2.09167	55
2.09533	55
2.09900	56
2.10267	57
2.10633	57
2.11000	57
2.11367	59
2.11733	62
2.12100	64
2.12467	64
2.12833	64
2.13200	65
2.13567	66
2.13933	64
2.14300	62
2.14667	61
2.15033	60
2.15400	60
2.15767	61
2.16133	63
2.16500	65
2.16867	68
2.17233	71
2.17600	70
2.17967	72
2.18333	72
2.18700	73
2.19067	72
2.19433	71
2.19800	72
2.20167	75
2.20533	77
2.20900	77
2.21267	76
2.21633	74
2.22000	74
2.22367	77
2.22733	80
2.23100	81
2.23467	83
2.23833	81
2.24200	80
2.24567	79
2.24933	78
2.25300	80
2.25667	85
2.26033	86
2.26400	86
2.26767	84
2.27133	85
2.27500	86
2.27867	86
2.28233	86
2.28600	84
2.28967	85
2.29333	86
2.29700	89
2.30067	90
2.30433	89
2.30800	88
2.31167	87
2.31533	85
2.31900	87
2.32267	90
2.32633	93
2.33000	94
2.33367	96
2.33733	97
2.34100	96
2.34467	95
2.34833	94
2.35200	95
2.35567	97
2.35933	97
2.36300	98
2.36667	99
2.37033	97
2.37400	92
2.37767	89
2.38133	87
2.38500	85
2.38867	80
2.39233	79
2.39600	84
2.39967	92
2.40333	102
2.40700	109
2.41067	115
2.41433	117
2.41800	117
2.42167	118
2.42533	119
2.42900	116
2.43267	115
2.43633	114
2.44000	120
2.44367	165
2.44733	241
2.45100	314
2.45467	369
2.45833	394
2.46200	393
2.46567	383
2.46933	376
2.47300	371
2.47667	359
2.48033	341
2.48400	317
2.48767	295
2.49133	278
2.49500	267
2.49867	262
2.50233	260
2.50600	262
2.50967	268
2.51333	273
2.51700	275
2.52067	274
2.52433	265
2.52800	251
2.53167	236
2.53533	222
2.53900	211
2.54267	202
2.54633	193
2.55000	186
2.55367	181
2.55733	176
2.56100	174
2.56467	174
2.56833	175
2.57200	176
2.57567	179
2.57933	184
2.58300	189
2.58667	196
2.59033	207
2.59400	216
2.59767	224
2.60133	231
2.60500	237
2.60867	241
2.61233	240
2.61600	240
2.61967	237
2.62333	231
2.62700	222
2.63067	212
2.63433	201
2.63800	190
2.64167	181
2.64533	173
2.64900	166
2.65267	158
2.65633	152
2.66000	147
2.66367	142
2.66733	137
2.67100	135
2.67467	135
2.67833	133
2.68200	129
2.68567	126
2.68933	128
2.69300	130
2.69667	130
2.70033	131
2.70400	131
2.70767	129
2.71133	129
2.71500	132
2.71867	132
2.72233	130
2.72600	132
2.72967	134
2.73333	136
2.73700	139
2.74067	143
2.74433	146
2.74800	143
2.75167	143
2.75533	144
2.75900	147
2.76267	152
2.76633	155
2.77000	157
2.77367	159
2.77733	161
2.78100	163
2.78467	167
2.78833	169
2.79200	171
2.79567	175
2.79933	178
2.80300	180
2.80667	185
2.81033	187
2.81400	190
2.81767	190
2.82133	190
2.82500	191
2.82867	192
2.83233	192
2.83600	196
2.83967	211
2.84333	244
2.84700	310
2.85067	431
2.85433	629
2.85800	916
2.86167	1290
2.86533	1740
2.86900	2242
2.87267	2753
2.87633	3230
2.88000	3632
2.88367	3930
2.88733	4108
2.89100	4158
2.89467	4096
2.89833	3944
2.90200	3721
2.90567	3455
2.90933	3165
2.91300	2870
2.91667	2581
2.92033	2308
2.92400	2065
2.92767	1858
2.93133	1688
2.93500	1556
2.93867	1454
2.94233	1379
2.94600	1327
2.94967	1291
2.95333	1266
2.95700	1248
2.96067	1233
2.96433	1216
2.96800	1198
2.97167	1183
2.97533	1168
2.97900	1154
2.98267	1139
2.98633	1123
2.99000	1107
2.99367	1094
2.99733	1081
3.00100	1068
3.00467	1058
3.00833	1048
3.01200	1037
3.01567	1024
3.01933	1014
3.02300	1007
3.02667	999
3.03033	992
3.03400	985
3.03767	977
3.04133	970
3.04500	962
3.04867	952
3.05233	945
3.05600	940
3.05967	935
3.06333	929
3.06700	925
3.07067	924
3.07433	924
3.07800	920
3.08167	915
3.08533	911
3.08900	907
3.09267	904
3.09633	902
3.10000	901
3.10367	900
3.10733	900
3.11100	900
3.11467	897
3.11833	892
3.12200	889
3.12567	888
3.12933	887
3.13300	886
3.13667	883
3.14033	880
3.14400	879
3.14767	877
3.15133	875
3.15500	871
3.15867	869
3.16233	867
3.16600	865
3.16967	864
3.17333	860
3.17700	858
3.18067	855
3.18433	852
3.18800	848
3.19167	847
3.19533	846
3.19900	843
3.20267	840
3.20633	837
3.21000	835
3.21367	832
3.21733	830
3.22100	828
3.22467	826
3.22833	824
3.23200	822
3.23567	819
3.23933	817
3.24300	815
3.24667	812
3.25033	812
3.25400	814
3.25767	815
3.26133	814
3.26500	815
3.26867	815
3.27233	815
3.27600	818
3.27967	820
3.28333	823
3.28700	828
3.29067	835
3.29433	842
3.29800	849
3.30167	856
3.30533	864
3.30900	871
3.31267	880
3.31633	889
3.32000	896
3.32367	905
3.32733	916
3.33100	927
3.33467	937
3.33833	948
3.34200	959
3.34567	968
3.34933	976
3.35300	983
3.35667	989
3.36033	997
3.36400	1004
3.36767	1007
3.37133	1010
3.37500	1011
3.37867	1009
3.38233	1005
3.38600	1000
3.38967	994
3.39333	987
3.39700	984
3.40067	981
3.40433	976
3.40800	969
3.41167	959
3.41533	948
3.41900	935
3.42267	921
3.42633	909
3.43000	897
3.43367	885
3.43733	873
3.44100	862
3.44467	851
3.44833	839
3.45200	826
3.45567	814
3.45933	800
3.46300	790
3.46667	780
3.47033	771
3.47400	763
3.47767	751
3.48133	741
3.48500	733
3.48867	727
3.49233	722
3.49600	717
3.49967	712
3.50333	704
3.50700	699
3.51067	695
3.51433	691
3.51800	686
3.52167	681
3.52533	677
3.52900	674
3.53267	672
3.53633	673
3.54000	673
3.54367	673
3.54733	673
3.55100	670
3.55467	667
3.55833	663
3.56200	657
3.56567	653
3.56933	651
3.57300	649
3.57667	646
3.58033	643
3.58400	641
3.58767	639
3.59133	636
3.59500	634
3.59867	635
3.60233	635
3.60600	632
3.60967	629
3.61333	627
3.61700	625
3.62067	624
3.62433	623
3.62800	619
3.63167	614
3.63533	613
3.63900	612
3.64267	610
3.64633	607
3.65000	605
3.65367	604
3.65733	603
3.66100	601
3.66467	602
3.66833	602
3.67200	603
3.67567	603
3.67933	600
3.68300	596
3.68667	593
3.69033	591
3.69400	590
3.69767	589
3.70133	587
3.70500	586
3.70867	586
3.71233	585
3.71600	584
3.71967	584
3.72333	584
3.72700	583
3.73067	582
3.73433	582
3.73800	585
3.74167	585
3.74533	584
3.74900	582
3.75267	579
3.75633	577
3.76000	577
3.76367	576
3.76733	575
3.77100	573
3.77467	573
3.77833	572
3.78200	570
3.78567	570
3.78933	571
3.79300	573
3.79667	572
3.80033	568
3.80400	563
3.80767	559
3.81133	556
3.81500	554
3.81867	553
3.82233	552
3.82600	552
3.82967	553
3.83333	555
3.83700	555
3.84067	553
3.84433	551
3.84800	547
3.85167	545
3.85533	542
3.85900	541
3.86267	542
3.86633	543
3.87000	544
3.87367	542
3.87733	542
3.88100	541
3.88467	539
3.88833	538
3.89200	536
3.89567	531
3.89933	528
3.90300	526
3.90667	523
3.91033	521
3.91400	520
3.91767	520
3.92133	520
3.92500	518
3.92867	519
3.93233	518
3.93600	517
3.93967	516
3.94333	515
3.94700	514
3.95067	515
3.95433	516
3.95800	515
3.96167	514
3.96533	514
3.96900	513
3.97267	509
3.97633	506
3.98000	505
3.98367	504
3.98733	500
3.99100	499
3.99467	498
3.99833	494

[Status Trace (Column Oven Temperature)]
Interval(msec)	1000
# of Points	240
Start Time(min)	0.014
End Time(min)	3.997
Intensity Units	
Intensity Multiplier	1
R.Time (min)	Intensity
0.01383	35.01
0.03050	35.02
0.04717	35.01
0.06383	35.02
0.08050	35.02
0.09717	35.01
0.11383	35.01
0.13050	35.00
0.14717	35.01
0.16383	35.01
0.18050	35.02
0.19717	35.02
0.21383	35.02
0.23050	35.01
0.24717	35.02
0.26383	35.02
0.28050	35.01
0.29717	35.01
0.31383	35.01
0.33050	35.02
0.34717	35.01
0.36383	35.01
0.38050	35.01
0.39717	35.01
0.41383	35.00
0.43050	35.00
0.44717	35.00
0.46383	35.01
0.48050	35.01
0.49717	35.00
0.51383	35.00
0.53050	35.00
0.54717	35.00
0.56383	35.00
0.58050	35.01
0.59717	35.00
0.61383	35.01
0.63050	35.00
0.64717	35.01
0.66383	35.01
0.68050	35.01
0.69717	35.01
0.71383	35.01
0.73050	35.00
0.74717	35.00
0.76383	35.00
0.78050	35.00
0.79717	35.00
0.81383	35.00
0.83050	35.01
0.84717	35.00
0.86383	34.99
0.88050	35.00
0.89717	35.00
0.91383	35.00
0.93050	35.00
0.94717	34.99
0.96383	35.00
0.98050	34.99
0.99717	34.99
1.01383	35.00
1.03050	35.00
1.04717	35.01
1.06383	35.00
1.08050	34.99
1.09717	35.00
1.11383	34.99
1.13050	35.00
1.14717	35.00
1.16383	35.01
1.18050	34.99
1.19717	34.99
1.21383	34.99
1.23050	34.99
1.24717	35.00
1.26383	35.00
1.28050	35.00
1.29717	34.99
1.31383	34.99
1.33050	34.99
1.34717	34.99
1.36383	34.99
1.38050	34.99
1.39717	34.99
1.41383	35.00
1.43050	34.99
1.44717	35.00
1.46383	35.00
1.48050	35.00
1.49717	34.99
1.51383	34.99
1.53050	34.99
1.54717	35.00
1.56383	35.00
1.58050	35.00
1.59717	35.03
1.61383	35.10
1.63050	35.25
1.64717	35.45
1.66383	35.73
1.68050	36.09
1.69717	36.45
1.71383	36.79
1.73050	37.14
1.74717	37.46
1.76383	37.79
1.78050	38.13
1.79717	38.47
1.81383	38.79
1.83050	39.12
1.84717	39.47
1.86383	39.80
1.88050	40.12
1.89717	40.45
1.91383	40.78
1.93050	41.10
1.94717	41.44
1.96383	41.77
1.98050	42.08
1.99717	42.41
2.01383	42.72
2.03050	43.05
2.04717	43.38
2.06383	43.70
2.08050	44.02
2.09717	44.34
2.11383	44.67
2.13050	45.01
2.14717	45.32
2.16383	45.64
2.18050	45.97
2.19717	46.30
2.21383	46.63
2.23050	46.93
2.24717	47.28
2.26383	47.62
2.28050	47.96
2.29717	48.28
2.31383	48.61
2.33050	48.95
2.34717	49.25
2.36383	49.52
2.38050	49.66
2.39717	49.69
2.41383	49.67
2.43050	49.71
2.44717	49.70
2.46383	49.72
2.48050	49.73
2.49717	49.72
2.51383	49.74
2.53050	49.75
2.54717	49.79
2.56383	49.79
2.58050	49.81
2.59717	49.84
2.61383	49.84
2.63050	49.84
2.64717	49.84
2.66383	49.86
2.68050	49.85
2.69717	49.84
2.71383	49.86
2.73050	49.86
2.74717	49.86
2.76383	49.85
2.78050	49.85
2.79717	49.88
2.81383	49.91
2.83050	49.92
2.84717	49.92
2.86383	49.92
2.88050	49.92
2.89717	49.93
2.91383	49.93
2.93050	49.93
2.94717	49.95
2.96383	49.96
2.98050	49.97
2.99717	49.98
3.01383	49.98
3.03050	49.99
3.04717	50.00
3.06383	50.00
3.08050	50.00
3.09717	50.01
3.11383	50.02
3.13050	50.02
3.14717	50.04
3.16383	50.04
3.18050	50.05
3.19717	50.06
3.21383	50.07
3.23050	50.07
3.24717	50.08
3.26383	50.09
3.28050	50.09
3.29717	50.10
3.31383	50.11
3.33050	50.11
3.34717	50.10
3.36383	50.09
3.38050	50.07
3.39717	50.06
3.41383	50.06
3.43050	50.05
3.44717	50.05
3.46383	50.04
3.48050	50.04
3.49717	50.04
3.51383	50.04
3.53050	50.04
3.54717	50.03
3.56383	50.03
3.58050	50.03
3.59717	50.02
3.61383	50.02
3.63050	50.02
3.64717	50.03
3.66383	50.03
3.68050	50.03
3.69717	50.04
3.71383	50.05
3.73050	50.05
3.74717	50.05
3.76383	50.04
3.78050	50.04
3.79717	50.05
3.81383	50.05
3.83050	50.05
3.84717	50.05
3.86383	50.05
3.88050	50.05
3.89717	50.05
3.91383	50.05
3.93050	50.05
3.94717	50.05
3.96383	50.05
3.98050	50.05
3.99717	50.06

[Status Trace (Injection Unit Temperature)]
Interval(msec)	1000
# of Points	240
Start Time(min)	0.014
End Time(min)	3.997
Intensity Units	
Intensity Multiplier	1
R.Time (min)	Intensity
0.01383	99.98
0.03050	99.97
0.04717	99.97
0.06383	99.98
0.08050	99.98
0.09717	99.98
0.11383	99.98
0.13050	99.98
0.14717	99.98
0.16383	99.98
0.18050	99.98
0.19717	99.98
0.21383	99.98
0.23050	99.98
0.24717	99.98
0.26383	99.98
0.28050	99.98
0.29717	99.98
0.31383	99.98
0.33050	99.98
0.34717	99.98
0.36383	99.98
0.38050	99.98
0.39717	99.98
0.41383	99.98
0.43050	99.98
0.44717	99.98
0.46383	99.98
0.48050	99.98
0.49717	99.98
0.51383	99.98
0.53050	99.98
0.54717	99.98
0.56383	99.98
0.58050	99.98
0.59717	99.98
0.61383	99.98
0.63050	99.98
0.64717	99.98
0.66383	99.98
0.68050	99.98
0.69717	99.98
0.71383	99.98
0.73050	99.98
0.74717	99.98
0.76383	99.98
0.78050	99.98
0.79717	99.98
0.81383	99.98
0.83050	99.98
0.84717	99.98
0.86383	99.98
0.88050	99.98
0.89717	99.98
0.91383	99.98
0.93050	99.98
0.94717	99.98
0.96383	99.98
0.98050	99.98
0.99717	99.98
1.01383	99.98
1.03050	99.98
1.04717	99.98
1.06383	99.98
1.08050	99.98
1.09717	99.98
1.11383	99.98
1.13050	99.98
1.14717	99.98
1.16383	99.98
1.18050	99.98
1.19717	99.99
1.21383	99.98
1.23050	99.98
1.24717	99.98
1.26383	99.98
1.28050	99.98
1.29717	99.98
1.31383	99.98
1.33050	99.98
1.34717	99.98
1.36383	99.98
1.38050	99.98
1.39717	99.98
1.41383	99.98
1.43050	99.98
1.44717	99.98
1.46383	99.98
1.48050	99.98
1.49717	99.98
1.51383	99.98
1.53050	99.98
1.54717	99.98
1.56383	99.98
1.58050	99.98
1.59717	99.99
1.61383	99.98
1.63050	99.98
1.64717	99.98
1.66383	99.98
1.68050	99.98
1.69717	99.98
1.71383	99.98
1.73050	99.98
1.74717	99.98
1.76383	99.98
1.78050	99.98
1.79717	99.98
1.81383	99.98
1.83050	99.98
1.84717	99.98
1.86383	99.98
1.88050	99.98
1.89717	99.98
1.91383	99.98
1.93050	99.98
1.94717	99.98
1.96383	99.98
1.98050	99.98
1.99717	99.97
2.01383	99.97
2.03050	99.97
2.04717	99.97
2.06383	99.97
2.08050	99.97
2.09717	99.97
2.11383	99.97
2.13050	99.97
2.14717	99.97
2.16383	99.97
2.18050	99.97
2.19717	99.97
2.21383	99.97
2.23050	99.97
2.24717	99.96
2.26383	99.97
2.28050	99.96
2.29717	99.96
2.31383	99.96
2.33050	99.96
2.34717	99.96
2.36383	99.96
2.38050	99.97
2.39717	99.96
2.41383	99.96
2.43050	99.96
2.44717	99.96
2.46383	99.96
2.48050	99.96
2.49717	99.96
2.51383	99.97
2.53050	99.97
2.54717	99.96
2.56383	99.97
2.58050	99.97
2.59717	99.97
2.61383	99.97
2.63050	99.97
2.64717	99.97
2.66383	99.97
2.68050	99.98
2.69717	99.98
2.71383	99.98
2.73050	99.98
2.74717	99.98
2.76383	99.99
2.78050	99.98
2.79717	99.98
2.81383	99.99
2.83050	99.99
2.84717	99.99
2.86383	99.99
2.88050	99.99
2.89717	99.99
2.91383	100.00
2.93050	100.00
2.94717	100.00
2.96383	100.00
2.98050	100.00
2.99717	100.00
3.01383	100.00
3.03050	100.01
3.04717	100.01
3.06383	100.01
3.08050	100.01
3.09717	100.01
3.11383	100.01
3.13050	100.01
3.14717	100.01
3.16383	100.02
3.18050	100.02
3.19717	100.02
3.21383	100.01
3.23050	100.02
3.24717	100.02
3.26383	100.02
3.28050	100.02
3.29717	100.02
3.31383	100.03
3.33050	100.03
3.34717	100.03
3.36383	100.03
3.38050	100.03
3.39717	100.03
3.41383	100.03
3.43050	100.03
3.44717	100.03
3.46383	100.03
3.48050	100.03
3.49717	100.04
3.51383	100.04
3.53050	100.04
3.54717	100.04
3.56383	100.04
3.58050	100.04
3.59717	100.04
3.61383	100.04
3.63050	100.04
3.64717	100.04
3.66383	100.04
3.68050	100.04
3.69717	100.04
3.71383	100.04
3.73050	100.04
3.74717	100.05
3.76383	100.04
3.78050	100.04
3.79717	100.05
3.81383	100.05
3.83050	100.05
3.84717	100.05
3.86383	100.05
3.88050	100.05
3.89717	100.05
3.91383	100.05
3.93050	100.05
3.94717	100.05
3.96383	100.05
3.98050	100.05
3.99717	100.05

[Status Trace (Carrier Gas Pressure)]
Interval(msec)	1000
# of Points	240
Start Time(min)	0.014
End Time(min)	3.997
Intensity Units	
Intensity Multiplier	1
R.Time (min)	Intensity
0.01383	57.69
0.03050	55.41
0.04717	57.81
0.06383	59.80
0.08050	58.76
0.09717	57.99
0.11383	57.99
0.13050	58.01
0.14717	58.01
0.16383	58.00
0.18050	58.00
0.19717	58.00
0.21383	58.00
0.23050	58.00
0.24717	58.00
0.26383	58.00
0.28050	58.00
0.29717	58.00
0.31383	58.00
0.33050	58.00
0.34717	58.00
0.36383	58.00
0.38050	58.00
0.39717	58.00
0.41383	58.00
0.43050	58.00
0.44717	58.00
0.46383	58.00
0.48050	58.00
0.49717	58.00
0.51383	58.00
0.53050	58.00
0.54717	58.00
0.56383	58.00
0.58050	58.00
0.59717	58.00
0.61383	58.00
0.63050	58.00
0.64717	58.00
0.66383	58.00
0.68050	58.00
0.69717	58.00
0.71383	58.00
0.73050	58.00
0.74717	58.00
0.76383	58.00
0.78050	58.00
0.79717	58.00
0.81383	58.00
0.83050	58.00
0.84717	58.00
0.86383	58.00
0.88050	58.00
0.89717	58.00
0.91383	58.00
0.93050	58.00
0.94717	58.00
0.96383	58.00
0.98050	58.00
0.99717	58.00
1.01383	58.00
1.03050	58.00
1.04717	58.00
1.06383	58.00
1.08050	58.00
1.09717	58.00
1.11383	58.00
1.13050	58.00
1.14717	58.00
1.16383	58.00
1.18050	58.00
1.19717	58.00
1.21383	58.00
1.23050	58.00
1.24717	58.00
1.26383	58.00
1.28050	58.00
1.29717	58.00
1.31383	58.00
1.33050	58.00
1.34717	58.00
1.36383	58.00
1.38050	58.00
1.39717	58.00
1.41383	58.00
1.43050	58.00
1.44717	58.00
1.46383	58.00
1.48050	58.00
1.49717	58.00
1.51383	58.00
1.53050	58.00
1.54717	58.00
1.56383	58.00
1.58050	58.00
1.59717	58.00
1.61383	58.00
1.63050	58.00
1.64717	58.00
1.66383	58.00
1.68050	58.01
1.69717	58.00
1.71383	58.00
1.73050	58.00
1.74717	58.00
1.76383	58.00
1.78050	58.00
1.79717	58.00
1.81383	58.00
1.83050	58.00
1.84717	58.00
1.86383	58.00
1.88050	58.00
1.89717	58.00
1.91383	58.00
1.93050	58.00
1.94717	58.00
1.96383	58.00
1.98050	58.00
1.99717	58.00
2.01383	58.00
2.03050	58.00
2.04717	58.00
2.06383	58.00
2.08050	58.00
2.09717	58.00
2.11383	58.00
2.13050	58.00
2.14717	58.00
2.16383	58.00
2.18050	58.00
2.19717	58.00
2.21383	58.00
2.23050	58.00
2.24717	58.00
2.26383	58.00
2.28050	58.00
2.29717	58.00
2.31383	58.00
2.33050	58.00
2.34717	58.00
2.36383	58.00
2.38050	57.99
2.39717	57.99
2.41383	58.00
2.43050	58.00
2.44717	58.00
2.46383	58.00
2.48050	58.00
2.49717	58.00
2.51383	57.99
2.53050	57.99
2.54717	58.00
2.56383	58.00
2.58050	58.00
2.59717	58.00
2.61383	58.00
2.63050	58.00
2.64717	58.00
2.66383	58.00
2.68050	58.00
2.69717	58.00
2.71383	58.00
2.73050	58.00
2.74717	58.00
2.76383	58.00
2.78050	58.00
2.79717	58.00
2.81383	58.00
2.83050	58.00
2.84717	58.00
2.86383	58.00
2.88050	58.00
2.89717	58.00
2.91383	58.00
2.93050	58.00
2.94717	58.00
2.96383	58.00
2.98050	58.00
2.99717	58.00
3.01383	58.00
3.03050	58.00
3.04717	58.00
3.06383	58.00
3.08050	58.00
3.09717	58.00
3.11383	58.00
3.13050	58.00
3.14717	58.00
3.16383	58.00
3.18050	58.00
3.19717	58.00
3.21383	58.00
3.23050	58.00
3.24717	58.00
3.26383	58.00
3.28050	58.00
3.29717	58.00
3.31383	58.00
3.33050	58.00
3.34717	58.00
3.36383	58.00
3.38050	58.00
3.39717	58.00
3.41383	58.00
3.43050	58.00
3.44717	58.00
3.46383	58.00
3.48050	58.00
3.49717	58.00
3.51383	58.00
3.53050	58.00
3.54717	58.00
3.56383	58.00
3.58050	58.00
3.59717	58.00
3.61383	58.00
3.63050	58.00
3.64717	58.00
3.66383	58.00
3.68050	58.00
3.69717	58.00
3.71383	58.00
3.73050	58.00
3.74717	58.00
3.76383	58.00
3.78050	58.00
3.79717	58.00
3.81383	58.00
3.83050	58.00
3.84717	58.00
3.86383	58.00
3.88050	58.00
3.89717	58.00
3.91383	58.00
3.93050	58.00
3.94717	58.00
3.96383	58.00
3.98050	58.00
3.99717	58.00

[Status Trace (Carrier Gas Flow)]
Interval(msec)	1000
# of Points	240
Start Time(min)	0.014
End Time(min)	3.997
Intensity Units	
Intensity Multiplier	1
R.Time (min)	Intensity
0.01383	34.37
0.03050	34.54
0.04717	34.55
0.06383	34.53
0.08050	34.51
0.09717	34.52
0.11383	34.53
0.13050	34.52
0.14717	34.52
0.16383	34.52
0.18050	34.52
0.19717	34.52
0.21383	34.52
0.23050	34.52
0.24717	34.52
0.26383	34.52
0.28050	34.52
0.29717	34.52
0.31383	34.52
0.33050	34.52
0.34717	34.52
0.36383	34.52
0.38050	34.52
0.39717	34.51
0.41383	34.52
0.43050	34.52
0.44717	34.52
0.46383	34.51
0.48050	34.52
0.49717	34.52
0.51383	34.52
0.53050	34.52
0.54717	34.52
0.56383	34.52
0.58050	34.52
0.59717	34.52
0.61383	34.52
0.63050	34.52
0.64717	34.52
0.66383	34.52
0.68050	34.52
0.69717	34.51
0.71383	34.52
0.73050	34.51
0.74717	34.52
0.76383	34.52
0.78050	34.52
0.79717	34.52
0.81383	34.52
0.83050	34.51
0.84717	34.52
0.86383	34.52
0.88050	34.52
0.89717	34.52
0.91383	34.52
0.93050	34.52
0.94717	34.52
0.96383	34.52
0.98050	34.52
0.99717	34.51
1.01383	34.52
1.03050	34.53
1.04717	34.51
1.06383	34.52
1.08050	34.52
1.09717	34.52
1.11383	34.52
1.13050	34.52
1.14717	34.52
1.16383	34.52
1.18050	34.52
1.19717	34.52
1.21383	34.52
1.23050	34.52
1.24717	34.52
1.26383	34.52
1.28050	34.52
1.29717	34.52
1.31383	34.52
1.33050	34.52
1.34717	34.51
1.36383	34.52
1.38050	34.52
1.39717	34.52
1.41383	34.52
1.43050	34.52
1.44717	34.52
1.46383	34.51
1.48050	34.52
1.49717	34.53
1.51383	34.52
1.53050	34.52
1.54717	34.52
1.56383	34.52
1.58050	34.52
1.59717	34.51
1.61383	34.52
1.63050	34.52
1.64717	34.52
1.66383	34.52
1.68050	34.52
1.69717	34.52
1.71383	34.51
1.73050	34.52
1.74717	34.52
1.76383	34.52
1.78050	34.51
1.79717	34.53
1.81383	34.52
1.83050	34.52
1.84717	34.52
1.86383	34.52
1.88050	34.52
1.89717	34.52
1.91383	34.52
1.93050	34.53
1.94717	34.51
1.96383	34.52
1.98050	34.52
1.99717	34.52
2.01383	34.52
2.03050	34.52
2.04717	34.52
2.06383	34.52
2.08050	34.51
2.09717	34.52
2.11383	34.52
2.13050	34.52
2.14717	34.52
2.16383	34.52
2.18050	34.52
2.19717	34.52
2.21383	34.52
2.23050	34.52
2.24717	34.52
2.26383	34.52
2.28050	34.52
2.29717	34.52
2.31383	34.51
2.33050	34.52
2.34717	34.52
2.36383	34.52
2.38050	34.52
2.39717	34.52
2.41383	34.52
2.43050	34.52
2.44717	34.52
2.46383	34.52
2.48050	34.51
2.49717	34.52
2.51383	34.51
2.53050	34.52
2.54717	34.52
2.56383	34.51
2.58050	34.52
2.59717	34.52
2.61383	34.52
2.63050	34.52
2.64717	34.52
2.66383	34.52
2.68050	34.52
2.69717	34.53
2.71383	34.52
2.73050	34.52
2.74717	34.52
2.76383	34.52
2.78050	34.52
2.79717	34.52
2.81383	34.52
2.83050	34.53
2.84717	34.51
2.86383	34.52
2.88050	34.53
2.89717	34.52
2.91383	34.52
2.93050	34.52
2.94717	34.53
2.96383	34.52
2.98050	34.52
2.99717	34.52
3.01383	34.52
3.03050	34.52
3.04717	34.52
3.06383	34.52
3.08050	34.51
3.09717	34.53
3.11383	34.52
3.13050	34.51
3.14717	34.52
3.16383	34.52
3.18050	34.53
3.19717	34.51
3.21383	34.52
3.23050	34.52
3.24717	34.52
3.26383	34.52
3.28050	34.52
3.29717	34.52
3.31383	34.51
3.33050	34.52
3.34717	34.52
3.36383	34.52
3.38050	34.52
3.39717	34.52
3.41383	34.52
3.43050	34.51
3.44717	34.52
3.46383	34.52
3.48050	34.52
3.49717	34.51
3.51383	34.52
3.53050	34.52
3.54717	34.52
3.56383	34.52
3.58050	34.53
3.59717	34.52
3.61383	34.52
3.63050	34.52
3.64717	34.52
3.66383	34.52
3.68050	34.52
3.69717	34.52
3.71383	34.52
3.73050	34.52
3.74717	34.52
3.76383	34.52
3.78050	34.52
3.79717	34.52
3.81383	34.52
3.83050	34.51
3.84717	34.52
3.86383	34.53
3.88050	34.52
3.89717	34.52
3.91383	34.52
3.93050	34.52
3.94717	34.52
3.96383	34.52
3.98050	34.52
3.99717	34.52

[Status Trace (Column Flow)]
Interval(msec)	1000
# of Points	240
Start Time(min)	0.014
End Time(min)	3.997
Intensity Units	
Intensity Multiplier	1
R.Time (min)	Intensity
0.01383	5.45
0.03050	5.19
0.04717	5.47
0.06383	5.70
0.08050	5.58
0.09717	5.49
0.11383	5.49
0.13050	5.49
0.14717	5.49
0.16383	5.49
0.18050	5.49
0.19717	5.49
0.21383	5.49
0.23050	5.49
0.24717	5.49
0.26383	5.49
0.28050	5.49
0.29717	5.49
0.31383	5.49
0.33050	5.49
0.34717	5.49
0.36383	5.49
0.38050	5.49
0.39717	5.49
0.41383	5.49
0.43050	5.49
0.44717	5.49
0.46383	5.49
0.48050	5.49
0.49717	5.49
0.51383	5.49
0.53050	5.49
0.54717	5.49
0.56383	5.49
0.58050	5.49
0.59717	5.49
0.61383	5.49
0.63050	5.49
0.64717	5.49
0.66383	5.49
0.68050	5.49
0.69717	5.49
0.71383	5.49
0.73050	5.49
0.74717	5.49
0.76383	5.49
0.78050	5.49
0.79717	5.49
0.81383	5.49
0.83050	5.49
0.84717	5.49
0.86383	5.49
0.88050	5.49
0.89717	5.49
0.91383	5.49
0.93050	5.49
0.94717	5.49
0.96383	5.49
0.98050	5.49
0.99717	5.49
1.01383	5.49
1.03050	5.49
1.04717	5.49
1.06383	5.49
1.08050	5.49
1.09717	5.49
1.11383	5.49
1.13050	5.49
1.14717	5.49
1.16383	5.49
1.18050	5.49
1.19717	5.49
1.21383	5.49
1.23050	5.49
1.24717	5.49
1.26383	5.49
1.28050	5.49
1.29717	5.49
1.31383	5.49
1.33050	5.49
1.34717	5.49
1.36383	5.49
1.38050	5.49
1.39717	5.49
1.41383	5.49
1.43050	5.49
1.44717	5.49
1.46383	5.49
1.48050	5.49
1.49717	5.49
1.51383	5.49
1.53050	5.49
1.54717	5.49
1.56383	5.49
1.58050	5.49
1.59717	5.49
1.61383	5.48
1.63050	5.48
1.64717	5.47
1.66383	5.47
1.68050	5.45
1.69717	5.44
1.71383	5.43
1.73050	5.42
1.74717	5.41
1.76383	5.40
1.78050	5.39
1.79717	5.38
1.81383	5.37
1.83050	5.36
1.84717	5.35
1.86383	5.34
1.88050	5.33
1.89717	5.32
1.91383	5.31
1.93050	5.30
1.94717	5.29
1.96383	5.28
1.98050	5.27
1.99717	5.26
2.01383	5.25
2.03050	5.24
2.04717	5.24
2.06383	5.22
2.08050	5.22
2.09717	5.21
2.11383	5.20
2.13050	5.19
2.14717	5.18
2.16383	5.17
2.18050	5.16
2.19717	5.15
2.21383	5.14
2.23050	5.13
2.24717	5.12
2.26383	5.11
2.28050	5.10
2.29717	5.10
2.31383	5.09
2.33050	5.08
2.34717	5.07
2.36383	5.06
2.38050	5.06
2.39717	5.05
2.41383	5.06
2.43050	5.06
2.44717	5.05
2.46383	5.05
2.48050	5.05
2.49717	5.05
2.51383	5.05
2.53050	5.05
2.54717	5.05
2.56383	5.05
2.58050	5.05
2.59717	5.05
2.61383	5.05
2.63050	5.05
2.64717	5.05
2.66383	5.05
2.68050	5.05
2.69717	5.05
2.71383	5.05
2.73050	5.05
2.74717	5.05
2.76383	5.05
2.78050	5.05
2.79717	5.05
2.81383	5.05
2.83050	5.05
2.84717	5.05
2.86383	5.05
2.88050	5.05
2.89717	5.05
2.91383	5.05
2.93050	5.05
2.94717	5.05
2.96383	5.05
2.98050	5.05
2.99717	5.05
3.01383	5.05
3.03050	5.05
3.04717	5.05
3.06383	5.05
3.08050	5.05
3.09717	5.05
3.11383	5.05
3.13050	5.05
3.14717	5.05
3.16383	5.05
3.18050	5.05
3.19717	5.05
3.21383	5.05
3.23050	5.05
3.24717	5.04
3.26383	5.04
3.28050	5.04
3.29717	5.04
3.31383	5.04
3.33050	5.04
3.34717	5.04
3.36383	5.04
3.38050	5.05
3.39717	5.05
3.41383	5.05
3.43050	5.05
3.44717	5.05
3.46383	5.05
3.48050	5.05
3.49717	5.05
3.51383	5.05
3.53050	5.05
3.54717	5.05
3.56383	5.05
3.58050	5.05
3.59717	5.05
3.61383	5.05
3.63050	5.05
3.64717	5.05
3.66383	5.05
3.68050	5.05
3.69717	5.05
3.71383	5.05
3.73050	5.05
3.74717	5.05
3.76383	5.05
3.78050	5.05
3.79717	5.05
3.81383	5.05
3.83050	5.05
3.84717	5.05
3.86383	5.05
3.88050	5.05
3.89717	5.05
3.91383	5.05
3.93050	5.05
3.94717	5.05
3.96383	5.05
3.98050	5.05
3.99717	5.05

[Status Trace (Linear Velocity)]
Interval(msec)	1000
# of Points	240
Start Time(min)	0.014
End Time(min)	3.997
Intensity Units	
Intensity Multiplier	1
R.Time (min)	Intensity
0.01383	38.80
0.03050	37.31
0.04717	38.88
0.06383	40.18
0.08050	39.51
0.09717	39.00
0.11383	39.00
0.13050	39.02
0.14717	39.01
0.16383	39.01
0.18050	39.01
0.19717	39.01
0.21383	39.01
0.23050	39.01
0.24717	39.01
0.26383	39.01
0.28050	39.01
0.29717	39.01
0.31383	39.01
0.33050	39.01
0.34717	39.01
0.36383	39.01
0.38050	39.01
0.39717	39.01
0.41383	39.01
0.43050	39.01
0.44717	39.01
0.46383	39.01
0.48050	39.01
0.49717	39.01
0.51383	39.01
0.53050	39.01
0.54717	39.01
0.56383	39.01
0.58050	39.01
0.59717	39.01
0.61383	39.01
0.63050	39.01
0.64717	39.01
0.66383	39.01
0.68050	39.01
0.69717	39.01
0.71383	39.01
0.73050	39.01
0.74717	39.01
0.76383	39.01
0.78050	39.01
0.79717	39.01
0.81383	39.01
0.83050	39.01
0.84717	39.01
0.86383	39.01
0.88050	39.01
0.89717	39.01
0.91383	39.01
0.93050	39.01
0.94717	39.01
0.96383	39.01
0.98050	39.01
0.99717	39.01
1.01383	39.01
1.03050	39.01
1.04717	39.01
1.06383	39.01
1.08050	39.01
1.09717	39.01
1.11383	39.01
1.13050	39.01
1.14717	39.01
1.16383	39.01
1.18050	39.01
1.19717	39.01
1.21383	39.01
1.23050	39.01
1.24717	39.01
1.26383	39.01
1.28050	39.01
1.29717	39.01
1.31383	39.01
1.33050	39.01
1.34717	39.01
1.36383	39.01
1.38050	39.01
1.39717	39.01
1.41383	39.01
1.43050	39.01
1.44717	39.01
1.46383	39.01
1.48050	39.01
1.49717	39.01
1.51383	39.01
1.53050	39.01
1.54717	39.01
1.56383	39.01
1.58050	39.01
1.59717	39.01
1.61383	39.00
1.63050	38.99
1.64717	38.97
1.66383	38.94
1.68050	38.91
1.69717	38.87
1.71383	38.84
1.73050	38.80
1.74717	38.78
1.76383	38.74
1.78050	38.71
1.79717	38.68
1.81383	38.65
1.83050	38.62
1.84717	38.59
1.86383	38.55
1.88050	38.52
1.89717	38.50
1.91383	38.46
1.93050	38.43
1.94717	38.40
1.96383	38.37
1.98050	38.34
1.99717	38.31
2.01383	38.28
2.03050	38.25
2.04717	38.22
2.06383	38.19
2.08050	38.16
2.09717	38.14
2.11383	38.10
2.13050	38.07
2.14717	38.05
2.16383	38.01
2.18050	37.99
2.19717	37.96
2.21383	37.93
2.23050	37.90
2.24717	37.87
2.26383	37.84
2.28050	37.81
2.29717	37.78
2.31383	37.75
2.33050	37.72
2.34717	37.69
2.36383	37.67
2.38050	37.65
2.39717	37.65
2.41383	37.65
2.43050	37.65
2.44717	37.65
2.46383	37.65
2.48050	37.65
2.49717	37.65
2.51383	37.64
2.53050	37.64
2.54717	37.65
2.56383	37.64
2.58050	37.64
2.59717	37.64
2.61383	37.64
2.63050	37.64
2.64717	37.64
2.66383	37.64
2.68050	37.64
2.69717	37.64
2.71383	37.64
2.73050	37.64
2.74717	37.64
2.76383	37.64
2.78050	37.64
2.79717	37.64
2.81383	37.63
2.83050	37.63
2.84717	37.63
2.86383	37.63
2.88050	37.63
2.89717	37.63
2.91383	37.63
2.93050	37.63
2.94717	37.63
2.96383	37.63
2.98050	37.63
2.99717	37.63
3.01383	37.63
3.03050	37.63
3.04717	37.63
3.06383	37.62
3.08050	37.62
3.09717	37.62
3.11383	37.62
3.13050	37.62
3.14717	37.62
3.16383	37.62
3.18050	37.62
3.19717	37.62
3.21383	37.62
3.23050	37.62
3.24717	37.62
3.26383	37.62
3.28050	37.62
3.29717	37.62
3.31383	37.62
3.33050	37.61
3.34717	37.62
3.36383	37.62
3.38050	37.62
3.39717	37.62
3.41383	37.62
3.43050	37.62
3.44717	37.62
3.46383	37.62
3.48050	37.62
3.49717	37.62
3.51383	37.62
3.53050	37.62
3.54717	37.62
3.56383	37.62
3.58050	37.62
3.59717	37.62
3.61383	37.62
3.63050	37.62
3.64717	37.62
3.66383	37.62
3.68050	37.62
3.69717	37.62
3.71383	37.62
3.73050	37.62
3.74717	37.62
3.76383	37.62
3.78050	37.62
3.79717	37.62
3.81383	37.62
3.83050	37.62
3.84717	37.62
3.86383	37.62
3.88050	37.62
3.89717	37.62
3.91383	37.62
3.93050	37.62
3.94717	37.62
3.96383	37.62
3.98050	37.62
3.99717	37.62

