[Header]
Application Name	LabSolutions
Version	5.110
Data File Name	C:\Users\User\Desktop\Junior\UIC Prairie Sampling\2023\8.2.23\080223_033.gcd
Output Date	8/31/2023
Output Time	12:43:07 PM

[File Information]
Type	Data File
Generated	8/29/2023 7:31:25 PM
Generated by	System Administrator
Modified	8/29/2023 7:38:07 PM
Modified by	System Administrator

[Sample Information]
Operator Name	System Administrator
Acquired	8/29/2023 7:34:05 PM
Sample Type	0:Unknown
Level	0
Sample Name	033
Sample ID	033
ISTD Amount1	1
ISTD Amount2	1
ISTD Amount3	1
ISTD Amount4	1
ISTD Amount5	1
ISTD Amount6	1
ISTD Amount7	1
ISTD Amount8	1
ISTD Amount9	1
ISTD Amount10	1
ISTD Amount11	1
ISTD Amount12	1
ISTD Amount13	1
ISTD Amount14	1
ISTD Amount15	1
ISTD Amount16	1
ISTD Amount17	1
ISTD Amount18	1
ISTD Amount19	1
ISTD Amount20	1
ISTD Amount21	1
ISTD Amount22	1
ISTD Amount23	1
ISTD Amount24	1
ISTD Amount25	1
ISTD Amount26	1
ISTD Amount27	1
ISTD Amount28	1
ISTD Amount29	1
ISTD Amount30	1
ISTD Amount31	1
ISTD Amount32	1
Sample Amount	1
Dilution Factor	1
Vial#	32
Injection Volume	1
Injection Count	1
Bar Code	

[Original Files]
Data File	C:\Users\User\Desktop\Junior\UIC Prairie Sampling\8.2.23\080223_033.gcd
Method File	C:\LabSolutions\Data\GHG_4min_2022\ghg3_togas_w_acet_4 min_new_int.gcm
Batch File	C:\LabSolutions\Data\BATCH FILES\080223.gcb
Report Format File	c:\LabSolutions\System\DEFAULT.lsr

[File Description]


[Configuration]
Instrument Name	C0B7VH3-Instrument1
Instrument #	1
Line #	1
# of Detectors	3
Detector ID	DET#1	DET#2	DET#3
Detector Name	FID	PTCD	ECD
# of Channels	1	1	1

[Peak Table(Ch1)]
# of Peaks	4
Peak#	R.Time	I.Time	F.Time	Area	Height	A/H	Conc.	Mark	ID#	Name	k'	Plate #	Plate Ht.	Tailing	Resolution	Sep.Factor	Area Ratio	Height Ratio	Conc. %	Norm Conc.
1	0.214	0.119	0.354	1167	155	7.538	0.000	   			0.000	23	6590.039	1.298	0.000	0.000	0	0	0.000	0.000
2	1.498	1.468	1.523	1053	413	2.548	0.000	   	1	CO	5.988	901	166.574	0.000	6.766	0.000	0	0	0.000	0.000
3	1.564	1.523	1.670	22255	10790	2.063	108.498	 V 	2	CH4	6.295	11163	13.438	1.155	0.510	1.051	0	0	21.719	21.719
4	1.989	1.941	2.697	2029185	972594	2.086	391.061	   	3	CO2	8.280	17418	8.612	1.287	7.120	1.315	0	0	78.281	78.281

[Peak Table(Ch2)]
# of Peaks	0

[Peak Table(Ch3)]
# of Peaks	5
Peak#	R.Time	I.Time	F.Time	Area	Height	A/H	Conc.	Mark	ID#	Name	k'	Plate #	Plate Ht.	Tailing	Resolution	Sep.Factor	Area Ratio	Height Ratio	Conc. %	Norm Conc.
1	2.458	2.400	2.506	839	292	2.879	0.000	   			0.000	11880	12.626	0.000	0.000	0.000	0	0	0.000	0.000
2	2.521	2.506	2.576	441	148	2.975	0.000	 V 			0.025	2107	71.198	0.000	0.402	0.000	0	0	0.000	0.000
3	2.616	2.576	2.700	483	118	4.090	0.000	 V 			0.064	5835	25.706	0.000	0.535	2.529	0	0	0.000	0.000
4	2.891	2.759	3.951	74081	13213	5.607	1.096	S  	1	N2O	0.176	11861	12.647	3.100	2.262	2.744	0	0	100.000	100.000
5	3.371	3.272	3.500	1088	149	7.308	0.000	T  			0.371	4118	36.427	1.149	3.037	2.110	0	0	0.000	0.000

[Compound Results(Ch1)]
# of IDs	6
ID#	Name	R.Time	Area	Height	Conc.	Curve	3rd	2nd	1st	Constant	Area Ratio	Height Ratio	Conc. %	Norm Conc.
1	CO	1.498	1053	413	0.000	Linear	0.000000e+00	0.000000e+00	0.000000e+00	0.000000e+00	0	0	0.000	0.000
2	CH4	1.564	22255	10790	108.498	Linear	0.000000e+00	0.000000e+00	2.051179e+002	0.000000e+00	0	0	21.719	21.719
3	CO2	1.989	2029185	972594	391.061	Linear	0.000000e+00	0.000000e+00	5.188919e+003	0.000000e+00	0	0	78.281	78.281
4	Ethylene	0.000	0	0	0.000	Linear	0.000000e+00	0.000000e+00	0.000000e+00	0.000000e+00	0	0	0.000	0.000
5	Acetylene	0.000	0	0	0.000	Linear	0.000000e+00	0.000000e+00	0.000000e+00	0.000000e+00	0	0	0.000	0.000
6	Ethane	0.000	0	0	0.000	Linear	0.000000e+00	0.000000e+00	0.000000e+00	0.000000e+00	0	0	0.000	0.000

[Compound Results(Ch2)]
# of IDs	5
ID#	Name	R.Time	Area	Height	Conc.	Curve	3rd	2nd	1st	Constant	Area Ratio	Height Ratio	Conc. %	Norm Conc.
1	Hydrogen	0.000	0	0	0.000	Linear	0.000000e+00	0.000000e+00	0.000000e+00	0.000000e+00	0	0	0.000	0.000
2	Oxygen	0.000	0	0	0.000	Linear	0.000000e+00	0.000000e+00	0.000000e+00	0.000000e+00	0	0	0.000	0.000
3	Nitrogen	0.000	0	0	0.000	Linear	0.000000e+00	0.000000e+00	0.000000e+00	0.000000e+00	0	0	0.000	0.000
4	Methane	0.000	0	0	0.000	Linear	0.000000e+00	0.000000e+00	0.000000e+00	0.000000e+00	0	0	0.000	0.000
5	Carbon Monoxide	0.000	0	0	0.000	Linear	0.000000e+00	0.000000e+00	0.000000e+00	0.000000e+00	0	0	0.000	0.000

[Compound Results(Ch3)]
# of IDs	2
ID#	Name	R.Time	Area	Height	Conc.	Curve	3rd	2nd	1st	Constant	Area Ratio	Height Ratio	Conc. %	Norm Conc.
1	N2O	2.891	74081	13213	1.096	Linear	0.000000e+00	0.000000e+00	6.759880e+004	0.000000e+00	0	0	100.000	100.000
2	SF6	0.000	0	0	0.000	Linear	0.000000e+00	0.000000e+00	0.000000e+00	0.000000e+00	0	0	0.000	0.000

[Group Results(Ch1)]
# of Groups	0

[Group Results(Ch2)]
# of Groups	0

[Group Results(Ch3)]
# of Groups	0

[Chromatogram (Ch1)]
Interval(msec)	220
# of Points	1091
Start Time(min)	0.002
End Time(min)	3.998
R.Time (min)	Intensity
0.00167	30
0.00533	27
0.00900	20
0.01267	12
0.01633	2
0.02000	-9
0.02367	-17
0.02733	-21
0.03100	-17
0.03467	-8
0.03833	-2
0.04200	3
0.04567	9
0.04933	14
0.05300	16
0.05667	17
0.06033	16
0.06400	12
0.06767	8
0.07133	5
0.07500	1
0.07867	-1
0.08233	-1
0.08600	-0
0.08967	0
0.09333	1
0.09700	1
0.10067	4
0.10433	9
0.10800	13
0.11167	15
0.11533	16
0.11900	17
0.12267	18
0.12633	21
0.13000	24
0.13367	29
0.13733	34
0.14100	34
0.14467	34
0.14833	37
0.15200	42
0.15567	50
0.15933	60
0.16300	70
0.16667	80
0.17033	86
0.17400	91
0.17767	96
0.18133	105
0.18500	115
0.18867	127
0.19233	143
0.19600	160
0.19967	170
0.20333	172
0.20700	174
0.21067	177
0.21433	177
0.21800	177
0.22167	177
0.22533	176
0.22900	175
0.23267	174
0.23633	175
0.24000	177
0.24367	176
0.24733	173
0.25100	169
0.25467	168
0.25833	165
0.26200	161
0.26567	158
0.26933	155
0.27300	150
0.27667	145
0.28033	142
0.28400	140
0.28767	137
0.29133	130
0.29500	122
0.29867	114
0.30233	105
0.30600	95
0.30967	86
0.31333	77
0.31700	70
0.32067	61
0.32433	53
0.32800	46
0.33167	44
0.33533	45
0.33900	47
0.34267	45
0.34633	40
0.35000	35
0.35367	31
0.35733	30
0.36100	31
0.36467	32
0.36833	29
0.37200	24
0.37567	20
0.37933	16
0.38300	13
0.38667	9
0.39033	5
0.39400	-0
0.39767	-4
0.40133	-5
0.40500	-5
0.40867	-5
0.41233	-5
0.41600	-6
0.41967	-5
0.42333	-1
0.42700	4
0.43067	7
0.43433	9
0.43800	9
0.44167	3
0.44533	-2
0.44900	-4
0.45267	-5
0.45633	-6
0.46000	-8
0.46367	-8
0.46733	-7
0.47100	-5
0.47467	-2
0.47833	1
0.48200	0
0.48567	-4
0.48933	-8
0.49300	-12
0.49667	-17
0.50033	-22
0.50400	-25
0.50767	-24
0.51133	-20
0.51500	-17
0.51867	-13
0.52233	-10
0.52600	-9
0.52967	-9
0.53333	-10
0.53700	-9
0.54067	-9
0.54433	-10
0.54800	-11
0.55167	-13
0.55533	-13
0.55900	-13
0.56267	-15
0.56633	-17
0.57000	-16
0.57367	-12
0.57733	-6
0.58100	2
0.58467	7
0.58833	6
0.59200	2
0.59567	-2
0.59933	-1
0.60300	0
0.60667	1
0.61033	1
0.61400	-0
0.61767	-0
0.62133	-1
0.62500	-4
0.62867	-8
0.63233	-14
0.63600	-20
0.63967	-22
0.64333	-20
0.64700	-17
0.65067	-13
0.65433	-12
0.65800	-13
0.66167	-13
0.66533	-15
0.66900	-16
0.67267	-16
0.67633	-15
0.68000	-13
0.68367	-9
0.68733	-6
0.69100	-3
0.69467	-1
0.69833	-2
0.70200	-3
0.70567	-4
0.70933	-5
0.71300	-8
0.71667	-12
0.72033	-16
0.72400	-16
0.72767	-13
0.73133	-13
0.73500	-16
0.73867	-15
0.74233	-11
0.74600	-5
0.74967	-3
0.75333	-1
0.75700	1
0.76067	2
0.76433	2
0.76800	-0
0.77167	-3
0.77533	-5
0.77900	-6
0.78267	-9
0.78633	-12
0.79000	-14
0.79367	-18
0.79733	-23
0.80100	-25
0.80467	-25
0.80833	-21
0.81200	-18
0.81567	-20
0.81933	-24
0.82300	-29
0.82667	-34
0.83033	-38
0.83400	-38
0.83767	-34
0.84133	-32
0.84500	-30
0.84867	-26
0.85233	-24
0.85600	-23
0.85967	-22
0.86333	-19
0.86700	-16
0.87067	-14
0.87433	-16
0.87800	-21
0.88167	-24
0.88533	-26
0.88900	-24
0.89267	-19
0.89633	-16
0.90000	-16
0.90367	-18
0.90733	-19
0.91100	-17
0.91467	-13
0.91833	-14
0.92200	-17
0.92567	-20
0.92933	-22
0.93300	-24
0.93667	-24
0.94033	-22
0.94400	-20
0.94767	-21
0.95133	-21
0.95500	-22
0.95867	-22
0.96233	-20
0.96600	-21
0.96967	-22
0.97333	-23
0.97700	-22
0.98067	-23
0.98433	-25
0.98800	-27
0.99167	-23
0.99533	-15
0.99900	-8
1.00267	-6
1.00633	-7
1.01000	-10
1.01367	-11
1.01733	-11
1.02100	-10
1.02467	-12
1.02833	-14
1.03200	-14
1.03567	-15
1.03933	-18
1.04300	-21
1.04667	-20
1.05033	-20
1.05400	-22
1.05767	-25
1.06133	-27
1.06500	-28
1.06867	-31
1.07233	-32
1.07600	-31
1.07967	-29
1.08333	-26
1.08700	-22
1.09067	-17
1.09433	-16
1.09800	-21
1.10167	-26
1.10533	-30
1.10900	-30
1.11267	-26
1.11633	-24
1.12000	-26
1.12367	-28
1.12733	-32
1.13100	-34
1.13467	-33
1.13833	-31
1.14200	-31
1.14567	-32
1.14933	-33
1.15300	-33
1.15667	-32
1.16033	-32
1.16400	-35
1.16767	-37
1.17133	-35
1.17500	-32
1.17867	-30
1.18233	-28
1.18600	-28
1.18967	-30
1.19333	-30
1.19700	-29
1.20067	-30
1.20433	-33
1.20800	-37
1.21167	-40
1.21533	-41
1.21900	-45
1.22267	-49
1.22633	-49
1.23000	-45
1.23367	-37
1.23733	-32
1.24100	-31
1.24467	-34
1.24833	-36
1.25200	-37
1.25567	-40
1.25933	-43
1.26300	-46
1.26667	-50
1.27033	-50
1.27400	-48
1.27767	-46
1.28133	-45
1.28500	-45
1.28867	-45
1.29233	-42
1.29600	-36
1.29967	-30
1.30333	-27
1.30700	-28
1.31067	-32
1.31433	-36
1.31800	-39
1.32167	-41
1.32533	-39
1.32900	-36
1.33267	-35
1.33633	-34
1.34000	-34
1.34367	-37
1.34733	-38
1.35100	-37
1.35467	-39
1.35833	-42
1.36200	-45
1.36567	-45
1.36933	-40
1.37300	-34
1.37667	-29
1.38033	-27
1.38400	-27
1.38767	-33
1.39133	-42
1.39500	-47
1.39867	-46
1.40233	-42
1.40600	-36
1.40967	-31
1.41333	-31
1.41700	-32
1.42067	-34
1.42433	-35
1.42800	-37
1.43167	-37
1.43533	-32
1.43900	-22
1.44267	-45
1.44633	-131
1.45000	-251
1.45367	-369
1.45733	-468
1.46100	-536
1.46467	-561
1.46833	-536
1.47200	-468
1.47567	-377
1.47933	-282
1.48300	-200
1.48667	-140
1.49033	-98
1.49400	-71
1.49767	-55
1.50133	-48
1.50500	-49
1.50867	-53
1.51233	-56
1.51600	-55
1.51967	-52
1.52333	-49
1.52700	-40
1.53067	1
1.53433	199
1.53800	837
1.54167	2167
1.54533	4088
1.54900	6188
1.55267	8065
1.55633	9495
1.56000	10347
1.56367	10474
1.56733	9787
1.57100	8416
1.57467	6703
1.57833	5010
1.58200	3566
1.58567	2447
1.58933	1634
1.59300	1070
1.59667	691
1.60033	441
1.60400	279
1.60767	172
1.61133	98
1.61500	47
1.61867	14
1.62233	-7
1.62600	-19
1.62967	-28
1.63333	-34
1.63700	-40
1.64067	-47
1.64433	-53
1.64800	-56
1.65167	-55
1.65533	-52
1.65900	-51
1.66267	-55
1.66633	-62
1.67000	-70
1.67367	-72
1.67733	-69
1.68100	-63
1.68467	-56
1.68833	-49
1.69200	-46
1.69567	-47
1.69933	-48
1.70300	-49
1.70667	-51
1.71033	-52
1.71400	-54
1.71767	-56
1.72133	-58
1.72500	-58
1.72867	-60
1.73233	-63
1.73600	-63
1.73967	-61
1.74333	-57
1.74700	-52
1.75067	-52
1.75433	-53
1.75800	-53
1.76167	-53
1.76533	-55
1.76900	-57
1.77267	-56
1.77633	-53
1.78000	-50
1.78367	-45
1.78733	-42
1.79100	-40
1.79467	-41
1.79833	-45
1.80200	-49
1.80567	-52
1.80933	-53
1.81300	-54
1.81667	-54
1.82033	-54
1.82400	-55
1.82767	-57
1.83133	-59
1.83500	-62
1.83867	-67
1.84233	-69
1.84600	-69
1.84967	-66
1.85333	-59
1.85700	-54
1.86067	-53
1.86433	-55
1.86800	-56
1.87167	-55
1.87533	-53
1.87900	-50
1.88267	-46
1.88633	-43
1.89000	-43
1.89367	-44
1.89733	-45
1.90100	-44
1.90467	-43
1.90833	-39
1.91200	-37
1.91567	-38
1.91933	-41
1.92300	-46
1.92667	-50
1.93033	-53
1.93400	-55
1.93767	-54
1.94133	-50
1.94500	-31
1.94867	110
1.95233	981
1.95600	5132
1.95967	19954
1.96333	60303
1.96700	144964
1.97067	282953
1.97433	461512
1.97800	649864
1.98167	813675
1.98533	926407
1.98900	972563
1.99267	947990
1.99633	861602
2.00000	733290
2.00367	588092
2.00733	448449
2.01100	328704
2.01467	234258
2.01833	164132
2.02200	114225
2.02567	79703
2.02933	56241
2.03300	40440
2.03667	29814
2.04033	22630
2.04400	17719
2.04767	14306
2.05133	11883
2.05500	10122
2.05867	8804
2.06233	7790
2.06600	6992
2.06967	6352
2.07333	5830
2.07700	5394
2.08067	5016
2.08433	4678
2.08800	4379
2.09167	4117
2.09533	3888
2.09900	3683
2.10267	3498
2.10633	3330
2.11000	3180
2.11367	3043
2.11733	2915
2.12100	2798
2.12467	2690
2.12833	2589
2.13200	2493
2.13567	2400
2.13933	2310
2.14300	2230
2.14667	2153
2.15033	2081
2.15400	2009
2.15767	1940
2.16133	1877
2.16500	1818
2.16867	1760
2.17233	1704
2.17600	1655
2.17967	1612
2.18333	1573
2.18700	1534
2.19067	1494
2.19433	1456
2.19800	1419
2.20167	1382
2.20533	1345
2.20900	1312
2.21267	1281
2.21633	1251
2.22000	1221
2.22367	1192
2.22733	1167
2.23100	1144
2.23467	1118
2.23833	1091
2.24200	1064
2.24567	1041
2.24933	1021
2.25300	1003
2.25667	983
2.26033	961
2.26400	939
2.26767	918
2.27133	901
2.27500	887
2.27867	878
2.28233	871
2.28600	865
2.28967	858
2.29333	846
2.29700	830
2.30067	810
2.30433	792
2.30800	776
2.31167	763
2.31533	751
2.31900	740
2.32267	728
2.32633	718
2.33000	706
2.33367	694
2.33733	685
2.34100	675
2.34467	662
2.34833	649
2.35200	635
2.35567	623
2.35933	616
2.36300	607
2.36667	600
2.37033	592
2.37400	585
2.37767	579
2.38133	571
2.38500	563
2.38867	556
2.39233	549
2.39600	543
2.39967	536
2.40333	530
2.40700	524
2.41067	518
2.41433	512
2.41800	506
2.42167	504
2.42533	500
2.42900	497
2.43267	492
2.43633	484
2.44000	473
2.44367	462
2.44733	455
2.45100	451
2.45467	449
2.45833	449
2.46200	448
2.46567	446
2.46933	445
2.47300	442
2.47667	438
2.48033	432
2.48400	424
2.48767	417
2.49133	411
2.49500	403
2.49867	396
2.50233	391
2.50600	389
2.50967	388
2.51333	385
2.51700	382
2.52067	380
2.52433	379
2.52800	375
2.53167	369
2.53533	363
2.53900	361
2.54267	357
2.54633	349
2.55000	345
2.55367	343
2.55733	341
2.56100	340
2.56467	339
2.56833	337
2.57200	335
2.57567	332
2.57933	328
2.58300	323
2.58667	318
2.59033	313
2.59400	313
2.59767	313
2.60133	312
2.60500	310
2.60867	308
2.61233	306
2.61600	304
2.61967	300
2.62333	297
2.62700	293
2.63067	287
2.63433	281
2.63800	278
2.64167	279
2.64533	282
2.64900	287
2.65267	292
2.65633	295
2.66000	292
2.66367	287
2.66733	282
2.67100	278
2.67467	276
2.67833	276
2.68200	274
2.68567	272
2.68933	267
2.69300	262
2.69667	255
2.70033	252
2.70400	251
2.70767	253
2.71133	255
2.71500	256
2.71867	256
2.72233	256
2.72600	255
2.72967	255
2.73333	258
2.73700	261
2.74067	263
2.74433	263
2.74800	261
2.75167	260
2.75533	256
2.75900	250
2.76267	245
2.76633	242
2.77000	241
2.77367	241
2.77733	241
2.78100	241
2.78467	238
2.78833	236
2.79200	233
2.79567	232
2.79933	231
2.80300	231
2.80667	234
2.81033	236
2.81400	237
2.81767	238
2.82133	241
2.82500	242
2.82867	244
2.83233	246
2.83600	246
2.83967	245
2.84333	244
2.84700	242
2.85067	240
2.85433	237
2.85800	232
2.86167	228
2.86533	225
2.86900	222
2.87267	220
2.87633	220
2.88000	221
2.88367	221
2.88733	216
2.89100	213
2.89467	214
2.89833	215
2.90200	218
2.90567	220
2.90933	220
2.91300	217
2.91667	216
2.92033	216
2.92400	212
2.92767	205
2.93133	202
2.93500	203
2.93867	205
2.94233	204
2.94600	201
2.94967	196
2.95333	192
2.95700	192
2.96067	195
2.96433	198
2.96800	203
2.97167	211
2.97533	218
2.97900	218
2.98267	213
2.98633	210
2.99000	212
2.99367	219
2.99733	227
3.00100	232
3.00467	233
3.00833	231
3.01200	228
3.01567	224
3.01933	215
3.02300	204
3.02667	198
3.03033	195
3.03400	191
3.03767	184
3.04133	179
3.04500	179
3.04867	180
3.05233	183
3.05600	186
3.05967	189
3.06333	190
3.06700	190
3.07067	186
3.07433	182
3.07800	181
3.08167	178
3.08533	173
3.08900	165
3.09267	159
3.09633	156
3.10000	159
3.10367	164
3.10733	170
3.11100	177
3.11467	184
3.11833	190
3.12200	195
3.12567	199
3.12933	198
3.13300	194
3.13667	190
3.14033	185
3.14400	180
3.14767	174
3.15133	172
3.15500	178
3.15867	185
3.16233	189
3.16600	191
3.16967	191
3.17333	188
3.17700	180
3.18067	174
3.18433	171
3.18800	172
3.19167	173
3.19533	176
3.19900	178
3.20267	180
3.20633	183
3.21000	185
3.21367	186
3.21733	181
3.22100	174
3.22467	168
3.22833	165
3.23200	165
3.23567	164
3.23933	163
3.24300	161
3.24667	162
3.25033	163
3.25400	163
3.25767	160
3.26133	156
3.26500	154
3.26867	153
3.27233	155
3.27600	157
3.27967	158
3.28333	157
3.28700	157
3.29067	160
3.29433	163
3.29800	164
3.30167	164
3.30533	166
3.30900	168
3.31267	170
3.31633	170
3.32000	167
3.32367	162
3.32733	158
3.33100	155
3.33467	151
3.33833	148
3.34200	145
3.34567	141
3.34933	136
3.35300	133
3.35667	132
3.36033	131
3.36400	132
3.36767	134
3.37133	137
3.37500	140
3.37867	141
3.38233	141
3.38600	144
3.38967	148
3.39333	150
3.39700	146
3.40067	140
3.40433	132
3.40800	125
3.41167	122
3.41533	125
3.41900	131
3.42267	137
3.42633	140
3.43000	138
3.43367	135
3.43733	134
3.44100	135
3.44467	138
3.44833	140
3.45200	139
3.45567	138
3.45933	139
3.46300	142
3.46667	143
3.47033	142
3.47400	141
3.47767	142
3.48133	142
3.48500	143
3.48867	142
3.49233	140
3.49600	135
3.49967	130
3.50333	126
3.50700	122
3.51067	118
3.51433	115
3.51800	114
3.52167	117
3.52533	122
3.52900	123
3.53267	123
3.53633	123
3.54000	124
3.54367	125
3.54733	124
3.55100	123
3.55467	123
3.55833	124
3.56200	127
3.56567	130
3.56933	132
3.57300	134
3.57667	136
3.58033	141
3.58400	143
3.58767	140
3.59133	135
3.59500	129
3.59867	121
3.60233	115
3.60600	110
3.60967	108
3.61333	106
3.61700	106
3.62067	105
3.62433	106
3.62800	108
3.63167	110
3.63533	112
3.63900	115
3.64267	116
3.64633	115
3.65000	116
3.65367	117
3.65733	118
3.66100	119
3.66467	118
3.66833	116
3.67200	114
3.67567	114
3.67933	115
3.68300	117
3.68667	118
3.69033	118
3.69400	119
3.69767	117
3.70133	114
3.70500	110
3.70867	103
3.71233	97
3.71600	91
3.71967	89
3.72333	87
3.72700	88
3.73067	91
3.73433	97
3.73800	104
3.74167	108
3.74533	109
3.74900	108
3.75267	108
3.75633	108
3.76000	104
3.76367	100
3.76733	99
3.77100	103
3.77467	109
3.77833	111
3.78200	111
3.78567	110
3.78933	106
3.79300	100
3.79667	96
3.80033	92
3.80400	91
3.80767	93
3.81133	98
3.81500	101
3.81867	104
3.82233	109
3.82600	113
3.82967	112
3.83333	108
3.83700	103
3.84067	96
3.84433	90
3.84800	84
3.85167	77
3.85533	73
3.85900	73
3.86267	77
3.86633	78
3.87000	79
3.87367	78
3.87733	75
3.88100	75
3.88467	76
3.88833	76
3.89200	79
3.89567	84
3.89933	85
3.90300	82
3.90667	81
3.91033	82
3.91400	82
3.91767	84
3.92133	86
3.92500	87
3.92867	89
3.93233	91
3.93600	94
3.93967	98
3.94333	98
3.94700	95
3.95067	91
3.95433	88
3.95800	84
3.96167	80
3.96533	77
3.96900	75
3.97267	74
3.97633	73
3.98000	74
3.98367	74
3.98733	72
3.99100	72
3.99467	69
3.99833	66

[Chromatogram (Ch2)]
Interval(msec)	220
# of Points	1091
Start Time(min)	0.002
End Time(min)	3.998
R.Time (min)	Intensity
0.00167	-1
0.00533	-0
0.00900	-0
0.01267	-0
0.01633	-0
0.02000	-1
0.02367	-1
0.02733	-1
0.03100	-1
0.03467	-1
0.03833	-1
0.04200	-1
0.04567	-1
0.04933	-1
0.05300	-1
0.05667	-1
0.06033	-1
0.06400	-1
0.06767	-1
0.07133	-1
0.07500	-1
0.07867	-1
0.08233	-1
0.08600	-1
0.08967	-1
0.09333	-1
0.09700	-2
0.10067	-2
0.10433	-2
0.10800	-1
0.11167	-1
0.11533	-1
0.11900	-1
0.12267	-1
0.12633	-0
0.13000	-0
0.13367	-0
0.13733	-0
0.14100	-0
0.14467	-0
0.14833	-0
0.15200	-0
0.15567	-0
0.15933	-0
0.16300	-0
0.16667	-1
0.17033	-1
0.17400	-1
0.17767	-1
0.18133	-0
0.18500	-0
0.18867	-0
0.19233	-0
0.19600	-0
0.19967	-0
0.20333	-0
0.20700	-1
0.21067	-1
0.21433	-1
0.21800	-1
0.22167	-2
0.22533	-2
0.22900	-2
0.23267	-2
0.23633	-2
0.24000	-2
0.24367	-2
0.24733	-2
0.25100	-3
0.25467	-3
0.25833	-2
0.26200	-2
0.26567	-2
0.26933	-2
0.27300	-2
0.27667	-2
0.28033	-2
0.28400	-2
0.28767	-2
0.29133	-2
0.29500	-2
0.29867	-1
0.30233	-1
0.30600	-1
0.30967	-1
0.31333	-1
0.31700	-1
0.32067	-1
0.32433	-1
0.32800	-2
0.33167	-2
0.33533	-2
0.33900	-2
0.34267	-1
0.34633	-1
0.35000	-1
0.35367	-1
0.35733	-2
0.36100	-2
0.36467	-2
0.36833	-2
0.37200	-2
0.37567	-3
0.37933	-3
0.38300	-3
0.38667	-2
0.39033	-2
0.39400	-2
0.39767	-2
0.40133	-2
0.40500	-2
0.40867	-2
0.41233	-2
0.41600	-2
0.41967	-2
0.42333	-2
0.42700	-2
0.43067	-2
0.43433	-2
0.43800	-2
0.44167	-2
0.44533	-1
0.44900	-2
0.45267	-2
0.45633	-2
0.46000	-2
0.46367	-2
0.46733	-2
0.47100	-1
0.47467	-1
0.47833	-1
0.48200	-1
0.48567	-1
0.48933	-1
0.49300	-1
0.49667	-1
0.50033	-1
0.50400	-1
0.50767	-1
0.51133	-1
0.51500	-0
0.51867	-0
0.52233	-1
0.52600	-1
0.52967	-1
0.53333	-1
0.53700	-1
0.54067	-1
0.54433	-1
0.54800	-1
0.55167	-1
0.55533	-1
0.55900	-1
0.56267	-1
0.56633	-1
0.57000	-1
0.57367	-2
0.57733	-2
0.58100	-2
0.58467	-2
0.58833	-3
0.59200	-3
0.59567	-3
0.59933	-3
0.60300	-3
0.60667	-3
0.61033	-3
0.61400	-3
0.61767	-2
0.62133	-2
0.62500	-2
0.62867	-2
0.63233	-2
0.63600	-3
0.63967	-3
0.64333	-3
0.64700	-3
0.65067	-3
0.65433	-3
0.65800	-3
0.66167	-3
0.66533	-3
0.66900	-3
0.67267	-4
0.67633	-4
0.68000	-4
0.68367	-4
0.68733	-4
0.69100	-4
0.69467	-4
0.69833	-3
0.70200	-3
0.70567	-3
0.70933	-3
0.71300	-3
0.71667	-3
0.72033	-3
0.72400	-3
0.72767	-3
0.73133	-3
0.73500	-2
0.73867	-2
0.74233	-2
0.74600	-2
0.74967	-2
0.75333	-3
0.75700	-3
0.76067	-3
0.76433	-3
0.76800	-3
0.77167	-3
0.77533	-3
0.77900	-3
0.78267	-3
0.78633	-3
0.79000	-3
0.79367	-3
0.79733	-3
0.80100	-3
0.80467	-3
0.80833	-3
0.81200	-3
0.81567	-3
0.81933	-3
0.82300	-2
0.82667	-3
0.83033	-3
0.83400	-3
0.83767	-3
0.84133	-3
0.84500	-3
0.84867	-3
0.85233	-2
0.85600	-2
0.85967	-2
0.86333	-2
0.86700	-2
0.87067	-2
0.87433	-2
0.87800	-2
0.88167	-2
0.88533	-2
0.88900	-2
0.89267	-2
0.89633	-2
0.90000	-2
0.90367	-2
0.90733	-3
0.91100	-3
0.91467	-3
0.91833	-3
0.92200	-3
0.92567	-3
0.92933	-3
0.93300	-3
0.93667	-3
0.94033	-3
0.94400	-3
0.94767	-3
0.95133	-3
0.95500	-3
0.95867	-3
0.96233	-3
0.96600	-3
0.96967	-3
0.97333	-3
0.97700	-4
0.98067	-4
0.98433	-3
0.98800	-4
0.99167	-4
0.99533	-4
0.99900	-4
1.00267	-4
1.00633	-4
1.01000	-4
1.01367	-4
1.01733	-4
1.02100	-4
1.02467	-4
1.02833	-4
1.03200	-4
1.03567	-4
1.03933	-4
1.04300	-4
1.04667	-4
1.05033	-4
1.05400	-4
1.05767	-4
1.06133	-4
1.06500	-4
1.06867	-4
1.07233	-4
1.07600	-4
1.07967	-4
1.08333	-3
1.08700	-3
1.09067	-3
1.09433	-3
1.09800	-3
1.10167	-3
1.10533	-3
1.10900	-3
1.11267	-3
1.11633	-4
1.12000	-4
1.12367	-3
1.12733	-3
1.13100	-3
1.13467	-3
1.13833	-3
1.14200	-3
1.14567	-4
1.14933	-4
1.15300	-4
1.15667	-4
1.16033	-5
1.16400	-5
1.16767	-5
1.17133	-5
1.17500	-5
1.17867	-5
1.18233	-5
1.18600	-5
1.18967	-5
1.19333	-5
1.19700	-4
1.20067	-4
1.20433	-4
1.20800	-4
1.21167	-4
1.21533	-4
1.21900	-3
1.22267	-3
1.22633	-3
1.23000	-3
1.23367	-3
1.23733	-3
1.24100	-3
1.24467	-3
1.24833	-3
1.25200	-3
1.25567	-3
1.25933	-3
1.26300	-3
1.26667	-3
1.27033	-3
1.27400	-3
1.27767	-2
1.28133	-3
1.28500	-3
1.28867	-3
1.29233	-3
1.29600	-3
1.29967	-3
1.30333	-3
1.30700	-3
1.31067	-3
1.31433	-3
1.31800	-3
1.32167	-4
1.32533	-4
1.32900	-4
1.33267	-4
1.33633	-4
1.34000	-4
1.34367	-3
1.34733	-3
1.35100	-3
1.35467	-3
1.35833	-3
1.36200	-3
1.36567	-3
1.36933	-3
1.37300	-3
1.37667	-3
1.38033	-3
1.38400	-3
1.38767	-3
1.39133	-3
1.39500	-3
1.39867	-3
1.40233	-3
1.40600	-3
1.40967	-3
1.41333	-3
1.41700	-3
1.42067	-3
1.42433	-3
1.42800	-3
1.43167	-3
1.43533	-3
1.43900	-3
1.44267	-3
1.44633	-3
1.45000	-3
1.45367	-3
1.45733	-3
1.46100	-3
1.46467	-3
1.46833	-3
1.47200	-3
1.47567	-4
1.47933	-4
1.48300	-4
1.48667	-4
1.49033	-4
1.49400	-4
1.49767	-4
1.50133	-4
1.50500	-4
1.50867	-4
1.51233	-4
1.51600	-3
1.51967	-3
1.52333	-3
1.52700	-3
1.53067	-3
1.53433	-3
1.53800	-3
1.54167	-3
1.54533	-3
1.54900	-3
1.55267	-3
1.55633	-4
1.56000	-4
1.56367	-4
1.56733	-5
1.57100	-5
1.57467	-5
1.57833	-6
1.58200	-6
1.58567	-6
1.58933	-6
1.59300	-6
1.59667	-6
1.60033	-7
1.60400	-8
1.60767	-9
1.61133	-10
1.61500	-12
1.61867	-14
1.62233	-16
1.62600	-19
1.62967	-22
1.63333	-24
1.63700	-27
1.64067	-31
1.64433	-34
1.64800	-37
1.65167	-41
1.65533	-44
1.65900	-47
1.66267	-51
1.66633	-55
1.67000	-59
1.67367	-63
1.67733	-68
1.68100	-72
1.68467	-76
1.68833	-80
1.69200	-83
1.69567	-86
1.69933	-88
1.70300	-90
1.70667	-91
1.71033	-92
1.71400	-93
1.71767	-94
1.72133	-94
1.72500	-94
1.72867	-95
1.73233	-95
1.73600	-95
1.73967	-96
1.74333	-96
1.74700	-97
1.75067	-97
1.75433	-98
1.75800	-98
1.76167	-99
1.76533	-99
1.76900	-99
1.77267	-99
1.77633	-100
1.78000	-100
1.78367	-100
1.78733	-101
1.79100	-101
1.79467	-101
1.79833	-101
1.80200	-102
1.80567	-102
1.80933	-102
1.81300	-103
1.81667	-103
1.82033	-103
1.82400	-102
1.82767	-102
1.83133	-101
1.83500	-101
1.83867	-101
1.84233	-101
1.84600	-102
1.84967	-102
1.85333	-103
1.85700	-103
1.86067	-102
1.86433	-102
1.86800	-101
1.87167	-100
1.87533	-99
1.87900	-98
1.88267	-98
1.88633	-98
1.89000	-99
1.89367	-99
1.89733	-99
1.90100	-99
1.90467	-98
1.90833	-98
1.91200	-97
1.91567	-97
1.91933	-96
1.92300	-96
1.92667	-96
1.93033	-96
1.93400	-97
1.93767	-97
1.94133	-98
1.94500	-98
1.94867	-98
1.95233	-98
1.95600	-98
1.95967	-97
1.96333	-96
1.96700	-95
1.97067	-95
1.97433	-94
1.97800	-94
1.98167	-93
1.98533	-93
1.98900	-93
1.99267	-93
1.99633	-93
2.00000	-93
2.00367	-93
2.00733	-93
2.01100	-93
2.01467	-93
2.01833	-92
2.02200	-92
2.02567	-92
2.02933	-92
2.03300	-92
2.03667	-91
2.04033	-91
2.04400	-91
2.04767	-90
2.05133	-90
2.05500	-89
2.05867	-89
2.06233	-88
2.06600	-88
2.06967	-88
2.07333	-88
2.07700	-88
2.08067	-89
2.08433	-88
2.08800	-88
2.09167	-88
2.09533	-88
2.09900	-87
2.10267	-87
2.10633	-86
2.11000	-85
2.11367	-84
2.11733	-84
2.12100	-83
2.12467	-83
2.12833	-82
2.13200	-82
2.13567	-82
2.13933	-82
2.14300	-82
2.14667	-82
2.15033	-82
2.15400	-82
2.15767	-82
2.16133	-82
2.16500	-82
2.16867	-82
2.17233	-82
2.17600	-82
2.17967	-82
2.18333	-82
2.18700	-82
2.19067	-81
2.19433	-81
2.19800	-80
2.20167	-79
2.20533	-78
2.20900	-78
2.21267	-77
2.21633	-77
2.22000	-78
2.22367	-78
2.22733	-79
2.23100	-80
2.23467	-80
2.23833	-79
2.24200	-78
2.24567	-77
2.24933	-76
2.25300	-75
2.25667	-74
2.26033	-74
2.26400	-74
2.26767	-74
2.27133	-75
2.27500	-75
2.27867	-76
2.28233	-76
2.28600	-76
2.28967	-75
2.29333	-74
2.29700	-73
2.30067	-72
2.30433	-71
2.30800	-71
2.31167	-70
2.31533	-70
2.31900	-70
2.32267	-69
2.32633	-69
2.33000	-69
2.33367	-69
2.33733	-70
2.34100	-70
2.34467	-69
2.34833	-68
2.35200	-67
2.35567	-66
2.35933	-64
2.36300	-63
2.36667	-61
2.37033	-59
2.37400	-57
2.37767	-54
2.38133	-52
2.38500	-48
2.38867	-45
2.39233	-41
2.39600	-36
2.39967	-32
2.40333	-28
2.40700	-24
2.41067	-20
2.41433	-17
2.41800	-14
2.42167	-11
2.42533	-9
2.42900	-7
2.43267	-5
2.43633	-3
2.44000	-2
2.44367	-0
2.44733	1
2.45100	3
2.45467	4
2.45833	4
2.46200	5
2.46567	5
2.46933	6
2.47300	6
2.47667	7
2.48033	9
2.48400	10
2.48767	11
2.49133	12
2.49500	14
2.49867	15
2.50233	15
2.50600	15
2.50967	15
2.51333	16
2.51700	16
2.52067	16
2.52433	16
2.52800	16
2.53167	16
2.53533	17
2.53900	17
2.54267	16
2.54633	15
2.55000	14
2.55367	13
2.55733	12
2.56100	12
2.56467	11
2.56833	11
2.57200	11
2.57567	11
2.57933	11
2.58300	11
2.58667	11
2.59033	12
2.59400	13
2.59767	14
2.60133	15
2.60500	16
2.60867	17
2.61233	17
2.61600	18
2.61967	18
2.62333	19
2.62700	20
2.63067	20
2.63433	21
2.63800	21
2.64167	22
2.64533	22
2.64900	22
2.65267	22
2.65633	22
2.66000	22
2.66367	22
2.66733	22
2.67100	22
2.67467	22
2.67833	22
2.68200	22
2.68567	22
2.68933	22
2.69300	22
2.69667	22
2.70033	23
2.70400	23
2.70767	23
2.71133	23
2.71500	23
2.71867	24
2.72233	24
2.72600	24
2.72967	24
2.73333	25
2.73700	25
2.74067	25
2.74433	26
2.74800	26
2.75167	26
2.75533	26
2.75900	26
2.76267	26
2.76633	25
2.77000	25
2.77367	25
2.77733	26
2.78100	26
2.78467	26
2.78833	26
2.79200	26
2.79567	26
2.79933	26
2.80300	26
2.80667	26
2.81033	26
2.81400	26
2.81767	26
2.82133	26
2.82500	26
2.82867	27
2.83233	27
2.83600	27
2.83967	27
2.84333	27
2.84700	27
2.85067	27
2.85433	27
2.85800	25
2.86167	22
2.86533	18
2.86900	10
2.87267	-2
2.87633	-19
2.88000	-41
2.88367	-69
2.88733	-103
2.89100	-144
2.89467	-192
2.89833	-247
2.90200	-308
2.90567	-376
2.90933	-449
2.91300	-528
2.91667	-611
2.92033	-699
2.92400	-791
2.92767	-887
2.93133	-986
2.93500	-1087
2.93867	-1192
2.94233	-1298
2.94600	-1406
2.94967	-1504
2.95333	-1580
2.95700	-1621
2.96067	-1623
2.96433	-1586
2.96800	-1518
2.97167	-1425
2.97533	-1317
2.97900	-1201
2.98267	-1083
2.98633	-967
2.99000	-857
2.99367	-754
2.99733	-660
3.00100	-575
3.00467	-498
3.00833	-431
3.01200	-371
3.01567	-319
3.01933	-273
3.02300	-233
3.02667	-199
3.03033	-169
3.03400	-143
3.03767	-122
3.04133	-103
3.04500	-87
3.04867	-73
3.05233	-61
3.05600	-50
3.05967	-42
3.06333	-34
3.06700	-27
3.07067	-22
3.07433	-17
3.07800	-13
3.08167	-9
3.08533	-6
3.08900	-4
3.09267	-2
3.09633	0
3.10000	2
3.10367	4
3.10733	5
3.11100	6
3.11467	8
3.11833	9
3.12200	10
3.12567	10
3.12933	11
3.13300	11
3.13667	12
3.14033	12
3.14400	13
3.14767	13
3.15133	14
3.15500	14
3.15867	14
3.16233	14
3.16600	15
3.16967	15
3.17333	16
3.17700	16
3.18067	17
3.18433	17
3.18800	17
3.19167	18
3.19533	18
3.19900	18
3.20267	18
3.20633	18
3.21000	18
3.21367	19
3.21733	19
3.22100	19
3.22467	19
3.22833	19
3.23200	19
3.23567	19
3.23933	20
3.24300	20
3.24667	20
3.25033	20
3.25400	21
3.25767	21
3.26133	21
3.26500	22
3.26867	22
3.27233	22
3.27600	22
3.27967	22
3.28333	23
3.28700	23
3.29067	23
3.29433	23
3.29800	23
3.30167	23
3.30533	23
3.30900	24
3.31267	24
3.31633	24
3.32000	25
3.32367	25
3.32733	26
3.33100	26
3.33467	26
3.33833	26
3.34200	27
3.34567	27
3.34933	27
3.35300	28
3.35667	28
3.36033	28
3.36400	28
3.36767	29
3.37133	29
3.37500	29
3.37867	29
3.38233	29
3.38600	29
3.38967	29
3.39333	29
3.39700	29
3.40067	29
3.40433	29
3.40800	29
3.41167	30
3.41533	30
3.41900	30
3.42267	30
3.42633	30
3.43000	30
3.43367	30
3.43733	30
3.44100	30
3.44467	29
3.44833	29
3.45200	29
3.45567	29
3.45933	29
3.46300	29
3.46667	29
3.47033	29
3.47400	28
3.47767	28
3.48133	29
3.48500	29
3.48867	29
3.49233	29
3.49600	28
3.49967	28
3.50333	28
3.50700	28
3.51067	28
3.51433	28
3.51800	28
3.52167	28
3.52533	28
3.52900	28
3.53267	28
3.53633	28
3.54000	28
3.54367	28
3.54733	28
3.55100	28
3.55467	28
3.55833	28
3.56200	28
3.56567	28
3.56933	28
3.57300	28
3.57667	28
3.58033	28
3.58400	28
3.58767	28
3.59133	28
3.59500	28
3.59867	28
3.60233	29
3.60600	28
3.60967	28
3.61333	28
3.61700	28
3.62067	28
3.62433	28
3.62800	28
3.63167	28
3.63533	28
3.63900	28
3.64267	28
3.64633	28
3.65000	28
3.65367	28
3.65733	28
3.66100	27
3.66467	27
3.66833	27
3.67200	27
3.67567	27
3.67933	27
3.68300	27
3.68667	27
3.69033	27
3.69400	27
3.69767	27
3.70133	28
3.70500	28
3.70867	28
3.71233	28
3.71600	28
3.71967	28
3.72333	27
3.72700	27
3.73067	27
3.73433	27
3.73800	27
3.74167	27
3.74533	27
3.74900	27
3.75267	27
3.75633	27
3.76000	27
3.76367	27
3.76733	27
3.77100	27
3.77467	27
3.77833	27
3.78200	27
3.78567	26
3.78933	26
3.79300	26
3.79667	26
3.80033	26
3.80400	26
3.80767	26
3.81133	26
3.81500	26
3.81867	26
3.82233	26
3.82600	26
3.82967	26
3.83333	25
3.83700	25
3.84067	25
3.84433	25
3.84800	25
3.85167	25
3.85533	25
3.85900	26
3.86267	26
3.86633	26
3.87000	26
3.87367	26
3.87733	26
3.88100	26
3.88467	26
3.88833	26
3.89200	26
3.89567	26
3.89933	26
3.90300	26
3.90667	26
3.91033	26
3.91400	26
3.91767	27
3.92133	27
3.92500	27
3.92867	27
3.93233	27
3.93600	27
3.93967	27
3.94333	27
3.94700	27
3.95067	27
3.95433	27
3.95800	27
3.96167	27
3.96533	27
3.96900	27
3.97267	27
3.97633	27
3.98000	27
3.98367	27
3.98733	27
3.99100	27
3.99467	27
3.99833	27

[Chromatogram (Ch3)]
Interval(msec)	220
# of Points	1091
Start Time(min)	0.002
End Time(min)	3.998
R.Time (min)	Intensity
0.00167	1
0.00533	3
0.00900	3
0.01267	3
0.01633	2
0.02000	1
0.02367	-2
0.02733	-3
0.03100	-1
0.03467	1
0.03833	4
0.04200	4
0.04567	1
0.04933	-0
0.05300	1
0.05667	-1
0.06033	-3
0.06400	-4
0.06767	-6
0.07133	-8
0.07500	-8
0.07867	-8
0.08233	-8
0.08600	-6
0.08967	-3
0.09333	-1
0.09700	-1
0.10067	-2
0.10433	-1
0.10800	-1
0.11167	-2
0.11533	-3
0.11900	-2
0.12267	-5
0.12633	-5
0.13000	-5
0.13367	-5
0.13733	-8
0.14100	-6
0.14467	-5
0.14833	-3
0.15200	-3
0.15567	-1
0.15933	-0
0.16300	-1
0.16667	-2
0.17033	-3
0.17400	-3
0.17767	-3
0.18133	-3
0.18500	-4
0.18867	-5
0.19233	-7
0.19600	-6
0.19967	-4
0.20333	-3
0.20700	-4
0.21067	-4
0.21433	-3
0.21800	-3
0.22167	-4
0.22533	-5
0.22900	-5
0.23267	-5
0.23633	-4
0.24000	-5
0.24367	-5
0.24733	-4
0.25100	-4
0.25467	-2
0.25833	-1
0.26200	-1
0.26567	-2
0.26933	-1
0.27300	1
0.27667	2
0.28033	1
0.28400	1
0.28767	-2
0.29133	-2
0.29500	1
0.29867	3
0.30233	4
0.30600	3
0.30967	3
0.31333	3
0.31700	2
0.32067	2
0.32433	1
0.32800	-0
0.33167	-1
0.33533	-2
0.33900	-2
0.34267	-2
0.34633	-3
0.35000	-3
0.35367	-3
0.35733	-3
0.36100	-6
0.36467	-8
0.36833	-8
0.37200	-8
0.37567	-5
0.37933	-2
0.38300	-0
0.38667	1
0.39033	-1
0.39400	-2
0.39767	-3
0.40133	-4
0.40500	-5
0.40867	-6
0.41233	-7
0.41600	-7
0.41967	-5
0.42333	-2
0.42700	1
0.43067	1
0.43433	1
0.43800	-1
0.44167	-1
0.44533	2
0.44900	3
0.45267	3
0.45633	3
0.46000	1
0.46367	-1
0.46733	-2
0.47100	-3
0.47467	-3
0.47833	-2
0.48200	-2
0.48567	-2
0.48933	-2
0.49300	-3
0.49667	-2
0.50033	-0
0.50400	0
0.50767	-0
0.51133	-1
0.51500	-2
0.51867	-1
0.52233	1
0.52600	1
0.52967	-0
0.53333	-3
0.53700	-6
0.54067	-7
0.54433	-7
0.54800	-6
0.55167	-5
0.55533	-3
0.55900	-1
0.56267	-2
0.56633	-3
0.57000	-1
0.57367	0
0.57733	-1
0.58100	-1
0.58467	-2
0.58833	-3
0.59200	-3
0.59567	-2
0.59933	-1
0.60300	2
0.60667	3
0.61033	2
0.61400	3
0.61767	5
0.62133	8
0.62500	10
0.62867	8
0.63233	4
0.63600	-1
0.63967	-1
0.64333	-1
0.64700	0
0.65067	3
0.65433	3
0.65800	2
0.66167	1
0.66533	2
0.66900	6
0.67267	6
0.67633	3
0.68000	3
0.68367	5
0.68733	4
0.69100	1
0.69467	1
0.69833	2
0.70200	3
0.70567	5
0.70933	6
0.71300	5
0.71667	6
0.72033	5
0.72400	2
0.72767	-0
0.73133	-2
0.73500	-4
0.73867	-6
0.74233	-5
0.74600	-4
0.74967	0
0.75333	1
0.75700	1
0.76067	2
0.76433	3
0.76800	1
0.77167	2
0.77533	4
0.77900	5
0.78267	6
0.78633	7
0.79000	8
0.79367	11
0.79733	12
0.80100	11
0.80467	9
0.80833	5
0.81200	3
0.81567	3
0.81933	2
0.82300	2
0.82667	2
0.83033	1
0.83400	-1
0.83767	0
0.84133	3
0.84500	4
0.84867	7
0.85233	10
0.85600	10
0.85967	8
0.86333	5
0.86700	4
0.87067	6
0.87433	6
0.87800	5
0.88167	3
0.88533	5
0.88900	7
0.89267	3
0.89633	0
0.90000	-1
0.90367	-1
0.90733	1
0.91100	3
0.91467	3
0.91833	4
0.92200	5
0.92567	5
0.92933	5
0.93300	5
0.93667	5
0.94033	5
0.94400	8
0.94767	9
0.95133	10
0.95500	9
0.95867	8
0.96233	5
0.96600	1
0.96967	-0
0.97333	1
0.97700	1
0.98067	1
0.98433	2
0.98800	3
0.99167	4
0.99533	5
0.99900	4
1.00267	4
1.00633	2
1.01000	2
1.01367	3
1.01733	3
1.02100	3
1.02467	5
1.02833	5
1.03200	6
1.03567	8
1.03933	9
1.04300	9
1.04667	8
1.05033	7
1.05400	7
1.05767	8
1.06133	10
1.06500	11
1.06867	13
1.07233	11
1.07600	11
1.07967	11
1.08333	6
1.08700	4
1.09067	2
1.09433	1
1.09800	0
1.10167	2
1.10533	5
1.10900	8
1.11267	9
1.11633	9
1.12000	8
1.12367	6
1.12733	6
1.13100	6
1.13467	5
1.13833	6
1.14200	4
1.14567	3
1.14933	3
1.15300	5
1.15667	7
1.16033	8
1.16400	8
1.16767	7
1.17133	6
1.17500	7
1.17867	7
1.18233	5
1.18600	3
1.18967	4
1.19333	5
1.19700	6
1.20067	8
1.20433	11
1.20800	12
1.21167	11
1.21533	11
1.21900	9
1.22267	7
1.22633	5
1.23000	7
1.23367	9
1.23733	8
1.24100	8
1.24467	9
1.24833	10
1.25200	12
1.25567	13
1.25933	11
1.26300	10
1.26667	9
1.27033	11
1.27400	11
1.27767	12
1.28133	12
1.28500	13
1.28867	12
1.29233	11
1.29600	10
1.29967	9
1.30333	7
1.30700	7
1.31067	9
1.31433	11
1.31800	10
1.32167	8
1.32533	10
1.32900	12
1.33267	14
1.33633	16
1.34000	14
1.34367	11
1.34733	10
1.35100	11
1.35467	10
1.35833	10
1.36200	11
1.36567	12
1.36933	13
1.37300	12
1.37667	12
1.38033	11
1.38400	10
1.38767	11
1.39133	12
1.39500	13
1.39867	14
1.40233	13
1.40600	10
1.40967	7
1.41333	7
1.41700	7
1.42067	9
1.42433	10
1.42800	11
1.43167	12
1.43533	14
1.43900	12
1.44267	13
1.44633	15
1.45000	14
1.45367	13
1.45733	10
1.46100	8
1.46467	8
1.46833	8
1.47200	8
1.47567	9
1.47933	11
1.48300	10
1.48667	8
1.49033	8
1.49400	8
1.49767	8
1.50133	7
1.50500	6
1.50867	7
1.51233	7
1.51600	8
1.51967	11
1.52333	15
1.52700	18
1.53067	19
1.53433	20
1.53800	19
1.54167	18
1.54533	17
1.54900	17
1.55267	15
1.55633	11
1.56000	8
1.56367	9
1.56733	9
1.57100	8
1.57467	7
1.57833	6
1.58200	3
1.58567	5
1.58933	8
1.59300	11
1.59667	15
1.60033	18
1.60400	17
1.60767	13
1.61133	12
1.61500	10
1.61867	9
1.62233	10
1.62600	10
1.62967	10
1.63333	9
1.63700	10
1.64067	10
1.64433	10
1.64800	11
1.65167	11
1.65533	10
1.65900	10
1.66267	12
1.66633	14
1.67000	16
1.67367	19
1.67733	20
1.68100	20
1.68467	19
1.68833	18
1.69200	17
1.69567	18
1.69933	19
1.70300	18
1.70667	18
1.71033	18
1.71400	18
1.71767	19
1.72133	18
1.72500	19
1.72867	19
1.73233	21
1.73600	24
1.73967	25
1.74333	25
1.74700	21
1.75067	19
1.75433	20
1.75800	19
1.76167	19
1.76533	21
1.76900	21
1.77267	20
1.77633	21
1.78000	21
1.78367	20
1.78733	21
1.79100	20
1.79467	20
1.79833	21
1.80200	24
1.80567	25
1.80933	24
1.81300	23
1.81667	25
1.82033	27
1.82400	28
1.82767	28
1.83133	28
1.83500	27
1.83867	25
1.84233	24
1.84600	23
1.84967	22
1.85333	23
1.85700	25
1.86067	29
1.86433	33
1.86800	34
1.87167	34
1.87533	33
1.87900	33
1.88267	32
1.88633	34
1.89000	34
1.89367	35
1.89733	36
1.90100	36
1.90467	38
1.90833	39
1.91200	42
1.91567	44
1.91933	44
1.92300	44
1.92667	43
1.93033	40
1.93400	38
1.93767	36
1.94133	33
1.94500	31
1.94867	32
1.95233	34
1.95600	36
1.95967	37
1.96333	40
1.96700	42
1.97067	43
1.97433	46
1.97800	48
1.98167	49
1.98533	50
1.98900	51
1.99267	54
1.99633	54
2.00000	53
2.00367	50
2.00733	49
2.01100	48
2.01467	48
2.01833	49
2.02200	50
2.02567	51
2.02933	53
2.03300	53
2.03667	48
2.04033	45
2.04400	44
2.04767	47
2.05133	50
2.05500	52
2.05867	53
2.06233	52
2.06600	51
2.06967	52
2.07333	54
2.07700	56
2.08067	58
2.08433	59
2.08800	59
2.09167	59
2.09533	59
2.09900	61
2.10267	63
2.10633	63
2.11000	62
2.11367	61
2.11733	61
2.12100	64
2.12467	64
2.12833	62
2.13200	64
2.13567	66
2.13933	66
2.14300	67
2.14667	67
2.15033	68
2.15400	68
2.15767	66
2.16133	64
2.16500	63
2.16867	63
2.17233	65
2.17600	67
2.17967	69
2.18333	71
2.18700	72
2.19067	74
2.19433	76
2.19800	79
2.20167	80
2.20533	81
2.20900	83
2.21267	84
2.21633	83
2.22000	82
2.22367	81
2.22733	78
2.23100	77
2.23467	77
2.23833	79
2.24200	80
2.24567	80
2.24933	81
2.25300	80
2.25667	81
2.26033	84
2.26400	84
2.26767	83
2.27133	83
2.27500	83
2.27867	85
2.28233	88
2.28600	89
2.28967	90
2.29333	91
2.29700	91
2.30067	92
2.30433	93
2.30800	93
2.31167	94
2.31533	94
2.31900	93
2.32267	95
2.32633	97
2.33000	98
2.33367	98
2.33733	98
2.34100	97
2.34467	98
2.34833	98
2.35200	100
2.35567	101
2.35933	98
2.36300	97
2.36667	97
2.37033	98
2.37400	98
2.37767	98
2.38133	97
2.38500	95
2.38867	90
2.39233	88
2.39600	91
2.39967	98
2.40333	107
2.40700	116
2.41067	121
2.41433	121
2.41800	122
2.42167	123
2.42533	125
2.42900	124
2.43267	121
2.43633	120
2.44000	126
2.44367	170
2.44733	250
2.45100	322
2.45467	371
2.45833	392
2.46200	389
2.46567	374
2.46933	362
2.47300	356
2.47667	347
2.48033	328
2.48400	305
2.48767	282
2.49133	263
2.49500	249
2.49867	241
2.50233	237
2.50600	239
2.50967	242
2.51333	247
2.51700	250
2.52067	253
2.52433	252
2.52800	245
2.53167	235
2.53533	222
2.53900	211
2.54267	201
2.54633	192
2.55000	184
2.55367	181
2.55733	179
2.56100	176
2.56467	176
2.56833	176
2.57200	176
2.57567	175
2.57933	175
2.58300	177
2.58667	180
2.59033	186
2.59400	192
2.59767	198
2.60133	206
2.60500	214
2.60867	219
2.61233	223
2.61600	227
2.61967	227
2.62333	226
2.62700	223
2.63067	216
2.63433	208
2.63800	200
2.64167	192
2.64533	185
2.64900	178
2.65267	171
2.65633	162
2.66000	156
2.66367	150
2.66733	144
2.67100	138
2.67467	129
2.67833	122
2.68200	119
2.68567	117
2.68933	116
2.69300	115
2.69667	114
2.70033	114
2.70400	112
2.70767	111
2.71133	113
2.71500	115
2.71867	116
2.72233	116
2.72600	117
2.72967	118
2.73333	121
2.73700	124
2.74067	125
2.74433	124
2.74800	125
2.75167	128
2.75533	129
2.75900	129
2.76267	132
2.76633	134
2.77000	137
2.77367	140
2.77733	142
2.78100	144
2.78467	147
2.78833	151
2.79200	155
2.79567	157
2.79933	158
2.80300	163
2.80667	168
2.81033	173
2.81400	176
2.81767	176
2.82133	177
2.82500	180
2.82867	185
2.83233	194
2.83600	223
2.83967	289
2.84333	431
2.84700	699
2.85067	1149
2.85433	1835
2.85800	2777
2.86167	3918
2.86533	5227
2.86900	6727
2.87267	8336
2.87633	9900
2.88000	11275
2.88367	12348
2.88733	13055
2.89100	13385
2.89467	13357
2.89833	13025
2.90200	12457
2.90567	11730
2.90933	10911
2.91300	10053
2.91667	9195
2.92033	8361
2.92400	7571
2.92767	6835
2.93133	6158
2.93500	5544
2.93867	4990
2.94233	4496
2.94600	4058
2.94967	3670
2.95333	3330
2.95700	3029
2.96067	2765
2.96433	2532
2.96800	2326
2.97167	2148
2.97533	1991
2.97900	1856
2.98267	1738
2.98633	1636
2.99000	1545
2.99367	1466
2.99733	1398
3.00100	1339
3.00467	1287
3.00833	1240
3.01200	1199
3.01567	1162
3.01933	1132
3.02300	1106
3.02667	1081
3.03033	1060
3.03400	1045
3.03767	1028
3.04133	1011
3.04500	996
3.04867	986
3.05233	976
3.05600	966
3.05967	954
3.06333	943
3.06700	935
3.07067	929
3.07433	925
3.07800	922
3.08167	919
3.08533	918
3.08900	917
3.09267	917
3.09633	917
3.10000	914
3.10367	910
3.10733	907
3.11100	907
3.11467	905
3.11833	903
3.12200	902
3.12567	900
3.12933	896
3.13300	891
3.13667	888
3.14033	886
3.14400	884
3.14767	882
3.15133	881
3.15500	880
3.15867	878
3.16233	876
3.16600	872
3.16967	870
3.17333	869
3.17700	866
3.18067	860
3.18433	855
3.18800	853
3.19167	849
3.19533	844
3.19900	839
3.20267	837
3.20633	835
3.21000	833
3.21367	832
3.21733	830
3.22100	826
3.22467	824
3.22833	822
3.23200	818
3.23567	815
3.23933	811
3.24300	807
3.24667	805
3.25033	805
3.25400	806
3.25767	805
3.26133	804
3.26500	802
3.26867	801
3.27233	803
3.27600	806
3.27967	809
3.28333	811
3.28700	815
3.29067	820
3.29433	828
3.29800	836
3.30167	842
3.30533	846
3.30900	851
3.31267	856
3.31633	861
3.32000	866
3.32367	870
3.32733	874
3.33100	877
3.33467	883
3.33833	890
3.34200	895
3.34567	900
3.34933	903
3.35300	906
3.35667	906
3.36033	905
3.36400	903
3.36767	902
3.37133	901
3.37500	898
3.37867	895
3.38233	892
3.38600	887
3.38967	881
3.39333	877
3.39700	870
3.40067	865
3.40433	858
3.40800	851
3.41167	844
3.41533	833
3.41900	824
3.42267	819
3.42633	814
3.43000	807
3.43367	798
3.43733	792
3.44100	783
3.44467	773
3.44833	762
3.45200	752
3.45567	746
3.45933	740
3.46300	734
3.46667	727
3.47033	720
3.47400	717
3.47767	714
3.48133	710
3.48500	706
3.48867	701
3.49233	696
3.49600	691
3.49967	685
3.50333	681
3.50700	679
3.51067	678
3.51433	678
3.51800	678
3.52167	678
3.52533	677
3.52900	675
3.53267	673
3.53633	670
3.54000	666
3.54367	661
3.54733	657
3.55100	655
3.55467	654
3.55833	652
3.56200	652
3.56567	651
3.56933	648
3.57300	646
3.57667	645
3.58033	643
3.58400	642
3.58767	642
3.59133	642
3.59500	641
3.59867	639
3.60233	636
3.60600	631
3.60967	626
3.61333	623
3.61700	623
3.62067	624
3.62433	622
3.62800	619
3.63167	612
3.63533	608
3.63900	606
3.64267	605
3.64633	606
3.65000	605
3.65367	603
3.65733	599
3.66100	594
3.66467	591
3.66833	590
3.67200	588
3.67567	586
3.67933	585
3.68300	584
3.68667	584
3.69033	582
3.69400	581
3.69767	579
3.70133	579
3.70500	579
3.70867	579
3.71233	580
3.71600	577
3.71967	575
3.72333	575
3.72700	575
3.73067	574
3.73433	574
3.73800	574
3.74167	573
3.74533	574
3.74900	575
3.75267	573
3.75633	571
3.76000	569
3.76367	571
3.76733	571
3.77100	570
3.77467	567
3.77833	563
3.78200	561
3.78567	561
3.78933	562
3.79300	562
3.79667	561
3.80033	560
3.80400	559
3.80767	558
3.81133	557
3.81500	556
3.81867	552
3.82233	552
3.82600	550
3.82967	547
3.83333	545
3.83700	540
3.84067	540
3.84433	538
3.84800	539
3.85167	540
3.85533	542
3.85900	542
3.86267	542
3.86633	541
3.87000	539
3.87367	536
3.87733	533
3.88100	529
3.88467	526
3.88833	526
3.89200	526
3.89567	525
3.89933	525
3.90300	524
3.90667	525
3.91033	525
3.91400	523
3.91767	523
3.92133	522
3.92500	519
3.92867	520
3.93233	520
3.93600	518
3.93967	515
3.94333	515
3.94700	515
3.95067	516
3.95433	516
3.95800	514
3.96167	514
3.96533	513
3.96900	510
3.97267	507
3.97633	505
3.98000	501
3.98367	499
3.98733	497
3.99100	496
3.99467	494
3.99833	488

[Status Trace (Column Oven Temperature)]
Interval(msec)	1000
# of Points	240
Start Time(min)	0.015
End Time(min)	3.998
Intensity Units	
Intensity Multiplier	1
R.Time (min)	Intensity
0.01517	35.03
0.03183	35.03
0.04850	35.03
0.06517	35.02
0.08183	35.03
0.09850	35.03
0.11517	35.03
0.13183	35.03
0.14850	35.03
0.16517	35.03
0.18183	35.03
0.19850	35.03
0.21517	35.03
0.23183	35.03
0.24850	35.03
0.26517	35.02
0.28183	35.02
0.29850	35.02
0.31517	35.02
0.33183	35.02
0.34850	35.02
0.36517	35.02
0.38183	35.02
0.39850	35.02
0.41517	35.02
0.43183	35.02
0.44850	35.02
0.46517	35.01
0.48183	35.01
0.49850	35.00
0.51517	35.00
0.53183	35.01
0.54850	35.00
0.56517	35.00
0.58183	34.99
0.59850	34.99
0.61517	34.99
0.63183	35.00
0.64850	35.01
0.66517	35.00
0.68183	35.01
0.69850	35.01
0.71517	35.00
0.73183	35.00
0.74850	35.00
0.76517	35.00
0.78183	35.00
0.79850	34.99
0.81517	35.00
0.83183	35.00
0.84850	34.99
0.86517	34.98
0.88183	34.99
0.89850	34.98
0.91517	34.99
0.93183	34.99
0.94850	34.99
0.96517	34.98
0.98183	34.98
0.99850	34.99
1.01517	34.99
1.03183	35.00
1.04850	35.00
1.06517	35.01
1.08183	35.01
1.09850	35.01
1.11517	35.00
1.13183	35.00
1.14850	35.00
1.16517	35.00
1.18183	35.01
1.19850	35.01
1.21517	35.01
1.23183	35.00
1.24850	35.00
1.26517	35.00
1.28183	34.99
1.29850	34.99
1.31517	35.00
1.33183	35.00
1.34850	35.00
1.36517	34.99
1.38183	34.99
1.39850	34.99
1.41517	34.99
1.43183	34.99
1.44850	34.99
1.46517	35.00
1.48183	35.00
1.49850	35.00
1.51517	35.00
1.53183	35.00
1.54850	35.00
1.56517	34.99
1.58183	34.99
1.59850	35.03
1.61517	35.11
1.63183	35.25
1.64850	35.46
1.66517	35.74
1.68183	36.11
1.69850	36.47
1.71517	36.80
1.73183	37.14
1.74850	37.48
1.76517	37.81
1.78183	38.14
1.79850	38.47
1.81517	38.82
1.83183	39.15
1.84850	39.50
1.86517	39.81
1.88183	40.14
1.89850	40.46
1.91517	40.77
1.93183	41.11
1.94850	41.45
1.96517	41.75
1.98183	42.08
1.99850	42.41
2.01517	42.73
2.03183	43.06
2.04850	43.38
2.06517	43.71
2.08183	44.04
2.09850	44.37
2.11517	44.67
2.13183	44.99
2.14850	45.31
2.16517	45.65
2.18183	45.98
2.19850	46.30
2.21517	46.63
2.23183	47.00
2.24850	47.29
2.26517	47.66
2.28183	48.01
2.29850	48.32
2.31517	48.64
2.33183	48.98
2.34850	49.28
2.36517	49.53
2.38183	49.67
2.39850	49.69
2.41517	49.68
2.43183	49.69
2.44850	49.69
2.46517	49.72
2.48183	49.73
2.49850	49.72
2.51517	49.75
2.53183	49.75
2.54850	49.78
2.56517	49.78
2.58183	49.82
2.59850	49.81
2.61517	49.82
2.63183	49.82
2.64850	49.83
2.66517	49.83
2.68183	49.85
2.69850	49.85
2.71517	49.85
2.73183	49.85
2.74850	49.85
2.76517	49.88
2.78183	49.88
2.79850	49.89
2.81517	49.89
2.83183	49.89
2.84850	49.88
2.86517	49.88
2.88183	49.89
2.89850	49.90
2.91517	49.93
2.93183	49.94
2.94850	49.94
2.96517	49.95
2.98183	49.96
2.99850	49.97
3.01517	49.99
3.03183	50.00
3.04850	50.01
3.06517	50.01
3.08183	50.01
3.09850	50.01
3.11517	50.02
3.13183	50.03
3.14850	50.04
3.16517	50.05
3.18183	50.06
3.19850	50.07
3.21517	50.08
3.23183	50.09
3.24850	50.10
3.26517	50.10
3.28183	50.11
3.29850	50.12
3.31517	50.12
3.33183	50.10
3.34850	50.08
3.36517	50.07
3.38183	50.06
3.39850	50.04
3.41517	50.03
3.43183	50.02
3.44850	50.01
3.46517	50.01
3.48183	50.00
3.49850	50.01
3.51517	50.01
3.53183	50.01
3.54850	50.01
3.56517	50.01
3.58183	50.01
3.59850	50.02
3.61517	50.02
3.63183	50.02
3.64850	50.02
3.66517	50.02
3.68183	50.03
3.69850	50.04
3.71517	50.04
3.73183	50.04
3.74850	50.03
3.76517	50.03
3.78183	50.04
3.79850	50.04
3.81517	50.05
3.83183	50.04
3.84850	50.05
3.86517	50.06
3.88183	50.06
3.89850	50.06
3.91517	50.06
3.93183	50.06
3.94850	50.06
3.96517	50.06
3.98183	50.05
3.99850	50.05

[Status Trace (Injection Unit Temperature)]
Interval(msec)	1000
# of Points	240
Start Time(min)	0.015
End Time(min)	3.998
Intensity Units	
Intensity Multiplier	1
R.Time (min)	Intensity
0.01517	99.97
0.03183	99.97
0.04850	99.98
0.06517	99.98
0.08183	99.98
0.09850	99.98
0.11517	99.98
0.13183	99.98
0.14850	99.98
0.16517	99.98
0.18183	99.98
0.19850	99.98
0.21517	99.98
0.23183	99.98
0.24850	99.98
0.26517	99.98
0.28183	99.98
0.29850	99.98
0.31517	99.98
0.33183	99.98
0.34850	99.98
0.36517	99.99
0.38183	99.98
0.39850	99.99
0.41517	99.98
0.43183	99.99
0.44850	99.98
0.46517	99.99
0.48183	99.99
0.49850	99.98
0.51517	99.99
0.53183	99.99
0.54850	99.98
0.56517	99.98
0.58183	99.99
0.59850	99.98
0.61517	99.98
0.63183	99.98
0.64850	99.98
0.66517	99.98
0.68183	99.99
0.69850	99.98
0.71517	99.98
0.73183	99.98
0.74850	99.98
0.76517	99.98
0.78183	99.98
0.79850	99.98
0.81517	99.98
0.83183	99.98
0.84850	99.99
0.86517	99.99
0.88183	99.98
0.89850	99.99
0.91517	99.98
0.93183	99.98
0.94850	99.98
0.96517	99.98
0.98183	99.98
0.99850	99.98
1.01517	99.98
1.03183	99.98
1.04850	99.98
1.06517	99.98
1.08183	99.98
1.09850	99.98
1.11517	99.98
1.13183	99.98
1.14850	99.98
1.16517	99.98
1.18183	99.98
1.19850	99.98
1.21517	99.98
1.23183	99.98
1.24850	99.98
1.26517	99.98
1.28183	99.98
1.29850	99.98
1.31517	99.98
1.33183	99.98
1.34850	99.98
1.36517	99.98
1.38183	99.98
1.39850	99.98
1.41517	99.98
1.43183	99.98
1.44850	99.98
1.46517	99.98
1.48183	99.99
1.49850	99.99
1.51517	99.98
1.53183	99.98
1.54850	99.98
1.56517	99.99
1.58183	99.98
1.59850	99.99
1.61517	99.99
1.63183	99.98
1.64850	99.98
1.66517	99.99
1.68183	99.98
1.69850	99.98
1.71517	99.98
1.73183	99.98
1.74850	99.98
1.76517	99.99
1.78183	99.98
1.79850	99.98
1.81517	99.98
1.83183	99.98
1.84850	99.98
1.86517	99.98
1.88183	99.98
1.89850	99.98
1.91517	99.98
1.93183	99.98
1.94850	99.98
1.96517	99.97
1.98183	99.98
1.99850	99.98
2.01517	99.97
2.03183	99.98
2.04850	99.97
2.06517	99.97
2.08183	99.97
2.09850	99.97
2.11517	99.97
2.13183	99.97
2.14850	99.97
2.16517	99.97
2.18183	99.97
2.19850	99.97
2.21517	99.97
2.23183	99.97
2.24850	99.96
2.26517	99.96
2.28183	99.97
2.29850	99.97
2.31517	99.96
2.33183	99.96
2.34850	99.96
2.36517	99.96
2.38183	99.96
2.39850	99.96
2.41517	99.96
2.43183	99.96
2.44850	99.96
2.46517	99.96
2.48183	99.96
2.49850	99.97
2.51517	99.96
2.53183	99.96
2.54850	99.96
2.56517	99.96
2.58183	99.97
2.59850	99.97
2.61517	99.97
2.63183	99.97
2.64850	99.97
2.66517	99.97
2.68183	99.97
2.69850	99.97
2.71517	99.98
2.73183	99.98
2.74850	99.98
2.76517	99.98
2.78183	99.98
2.79850	99.98
2.81517	99.98
2.83183	99.98
2.84850	99.99
2.86517	99.98
2.88183	99.99
2.89850	99.99
2.91517	99.99
2.93183	100.00
2.94850	99.99
2.96517	100.00
2.98183	100.00
2.99850	100.00
3.01517	100.00
3.03183	100.00
3.04850	100.00
3.06517	100.01
3.08183	100.01
3.09850	100.01
3.11517	100.01
3.13183	100.01
3.14850	100.01
3.16517	100.01
3.18183	100.02
3.19850	100.02
3.21517	100.02
3.23183	100.02
3.24850	100.02
3.26517	100.02
3.28183	100.02
3.29850	100.02
3.31517	100.02
3.33183	100.02
3.34850	100.02
3.36517	100.02
3.38183	100.03
3.39850	100.03
3.41517	100.03
3.43183	100.03
3.44850	100.03
3.46517	100.03
3.48183	100.03
3.49850	100.03
3.51517	100.03
3.53183	100.03
3.54850	100.03
3.56517	100.03
3.58183	100.03
3.59850	100.03
3.61517	100.04
3.63183	100.04
3.64850	100.04
3.66517	100.04
3.68183	100.04
3.69850	100.04
3.71517	100.04
3.73183	100.04
3.74850	100.04
3.76517	100.04
3.78183	100.04
3.79850	100.04
3.81517	100.04
3.83183	100.04
3.84850	100.04
3.86517	100.04
3.88183	100.04
3.89850	100.04
3.91517	100.04
3.93183	100.04
3.94850	100.04
3.96517	100.04
3.98183	100.04
3.99850	100.04

[Status Trace (Carrier Gas Pressure)]
Interval(msec)	1000
# of Points	240
Start Time(min)	0.015
End Time(min)	3.998
Intensity Units	
Intensity Multiplier	1
R.Time (min)	Intensity
0.01517	57.29
0.03183	55.63
0.04850	58.07
0.06517	59.86
0.08183	58.64
0.09850	57.98
0.11517	58.00
0.13183	58.01
0.14850	58.01
0.16517	58.00
0.18183	58.00
0.19850	58.00
0.21517	58.00
0.23183	58.00
0.24850	58.00
0.26517	58.00
0.28183	58.00
0.29850	58.00
0.31517	58.00
0.33183	58.00
0.34850	58.00
0.36517	58.00
0.38183	58.00
0.39850	58.00
0.41517	58.00
0.43183	58.00
0.44850	58.00
0.46517	58.00
0.48183	58.00
0.49850	58.00
0.51517	58.00
0.53183	58.00
0.54850	58.00
0.56517	58.00
0.58183	58.00
0.59850	58.00
0.61517	58.00
0.63183	58.00
0.64850	58.00
0.66517	58.00
0.68183	58.00
0.69850	58.00
0.71517	58.00
0.73183	58.00
0.74850	58.00
0.76517	58.00
0.78183	58.00
0.79850	58.00
0.81517	58.00
0.83183	58.00
0.84850	58.00
0.86517	58.00
0.88183	58.00
0.89850	58.00
0.91517	58.00
0.93183	58.00
0.94850	58.00
0.96517	58.00
0.98183	58.00
0.99850	58.00
1.01517	58.00
1.03183	58.00
1.04850	58.00
1.06517	58.00
1.08183	58.00
1.09850	58.00
1.11517	58.00
1.13183	58.00
1.14850	58.00
1.16517	58.00
1.18183	58.00
1.19850	58.00
1.21517	58.00
1.23183	58.00
1.24850	58.00
1.26517	58.00
1.28183	58.00
1.29850	58.00
1.31517	58.00
1.33183	58.00
1.34850	58.00
1.36517	58.00
1.38183	58.00
1.39850	58.00
1.41517	58.00
1.43183	58.00
1.44850	58.00
1.46517	58.00
1.48183	58.00
1.49850	58.00
1.51517	58.00
1.53183	58.00
1.54850	58.00
1.56517	58.00
1.58183	58.00
1.59850	58.00
1.61517	58.00
1.63183	58.00
1.64850	58.00
1.66517	58.00
1.68183	58.01
1.69850	58.00
1.71517	58.00
1.73183	58.00
1.74850	58.00
1.76517	58.00
1.78183	58.00
1.79850	58.00
1.81517	58.00
1.83183	58.00
1.84850	58.00
1.86517	58.00
1.88183	58.00
1.89850	58.00
1.91517	58.00
1.93183	58.00
1.94850	58.00
1.96517	58.00
1.98183	58.00
1.99850	58.00
2.01517	58.00
2.03183	58.00
2.04850	58.00
2.06517	58.00
2.08183	58.00
2.09850	58.00
2.11517	58.00
2.13183	58.00
2.14850	58.00
2.16517	58.00
2.18183	58.00
2.19850	58.00
2.21517	58.00
2.23183	58.00
2.24850	58.00
2.26517	58.00
2.28183	58.00
2.29850	58.00
2.31517	58.00
2.33183	58.00
2.34850	58.00
2.36517	58.00
2.38183	58.00
2.39850	57.99
2.41517	58.00
2.43183	58.00
2.44850	58.00
2.46517	58.00
2.48183	58.00
2.49850	58.00
2.51517	57.99
2.53183	57.99
2.54850	58.00
2.56517	58.00
2.58183	58.00
2.59850	58.00
2.61517	58.00
2.63183	58.00
2.64850	58.00
2.66517	58.00
2.68183	58.00
2.69850	58.00
2.71517	58.00
2.73183	58.00
2.74850	58.00
2.76517	58.00
2.78183	58.00
2.79850	58.00
2.81517	58.00
2.83183	58.00
2.84850	58.00
2.86517	58.00
2.88183	58.00
2.89850	58.00
2.91517	58.00
2.93183	58.00
2.94850	58.00
2.96517	58.00
2.98183	58.00
2.99850	58.00
3.01517	58.00
3.03183	58.00
3.04850	58.00
3.06517	58.00
3.08183	58.00
3.09850	58.00
3.11517	58.00
3.13183	58.00
3.14850	58.00
3.16517	58.00
3.18183	58.00
3.19850	58.00
3.21517	58.00
3.23183	58.00
3.24850	58.00
3.26517	58.00
3.28183	58.00
3.29850	58.00
3.31517	58.00
3.33183	58.00
3.34850	58.00
3.36517	58.00
3.38183	58.00
3.39850	58.00
3.41517	58.00
3.43183	58.00
3.44850	58.00
3.46517	58.00
3.48183	58.00
3.49850	58.00
3.51517	58.00
3.53183	58.00
3.54850	58.00
3.56517	58.00
3.58183	58.00
3.59850	58.00
3.61517	58.00
3.63183	58.00
3.64850	58.00
3.66517	58.00
3.68183	58.00
3.69850	58.00
3.71517	58.00
3.73183	58.00
3.74850	58.00
3.76517	58.00
3.78183	58.00
3.79850	58.00
3.81517	58.00
3.83183	58.00
3.84850	58.00
3.86517	58.00
3.88183	58.00
3.89850	58.00
3.91517	58.00
3.93183	58.00
3.94850	58.00
3.96517	58.00
3.98183	58.00
3.99850	58.00

[Status Trace (Carrier Gas Flow)]
Interval(msec)	1000
# of Points	240
Start Time(min)	0.015
End Time(min)	3.998
Intensity Units	
Intensity Multiplier	1
R.Time (min)	Intensity
0.01517	33.95
0.03183	34.54
0.04850	34.55
0.06517	34.51
0.08183	34.51
0.09850	34.52
0.11517	34.52
0.13183	34.52
0.14850	34.52
0.16517	34.52
0.18183	34.52
0.19850	34.51
0.21517	34.52
0.23183	34.51
0.24850	34.52
0.26517	34.51
0.28183	34.52
0.29850	34.52
0.31517	34.52
0.33183	34.51
0.34850	34.52
0.36517	34.51
0.38183	34.52
0.39850	34.52
0.41517	34.52
0.43183	34.52
0.44850	34.52
0.46517	34.51
0.48183	34.52
0.49850	34.52
0.51517	34.52
0.53183	34.52
0.54850	34.52
0.56517	34.52
0.58183	34.52
0.59850	34.52
0.61517	34.52
0.63183	34.52
0.64850	34.52
0.66517	34.53
0.68183	34.52
0.69850	34.52
0.71517	34.52
0.73183	34.52
0.74850	34.52
0.76517	34.52
0.78183	34.52
0.79850	34.51
0.81517	34.52
0.83183	34.52
0.84850	34.52
0.86517	34.52
0.88183	34.53
0.89850	34.52
0.91517	34.51
0.93183	34.52
0.94850	34.52
0.96517	34.52
0.98183	34.51
0.99850	34.52
1.01517	34.52
1.03183	34.51
1.04850	34.52
1.06517	34.52
1.08183	34.52
1.09850	34.52
1.11517	34.52
1.13183	34.52
1.14850	34.52
1.16517	34.52
1.18183	34.52
1.19850	34.52
1.21517	34.52
1.23183	34.52
1.24850	34.52
1.26517	34.52
1.28183	34.52
1.29850	34.52
1.31517	34.51
1.33183	34.53
1.34850	34.51
1.36517	34.52
1.38183	34.52
1.39850	34.53
1.41517	34.52
1.43183	34.51
1.44850	34.52
1.46517	34.53
1.48183	34.52
1.49850	34.52
1.51517	34.53
1.53183	34.52
1.54850	34.51
1.56517	34.52
1.58183	34.51
1.59850	34.52
1.61517	34.53
1.63183	34.52
1.64850	34.51
1.66517	34.52
1.68183	34.52
1.69850	34.52
1.71517	34.52
1.73183	34.52
1.74850	34.51
1.76517	34.51
1.78183	34.52
1.79850	34.52
1.81517	34.52
1.83183	34.52
1.84850	34.53
1.86517	34.52
1.88183	34.52
1.89850	34.52
1.91517	34.51
1.93183	34.52
1.94850	34.52
1.96517	34.52
1.98183	34.52
1.99850	34.52
2.01517	34.52
2.03183	34.52
2.04850	34.52
2.06517	34.52
2.08183	34.52
2.09850	34.52
2.11517	34.52
2.13183	34.52
2.14850	34.52
2.16517	34.52
2.18183	34.52
2.19850	34.52
2.21517	34.51
2.23183	34.52
2.24850	34.52
2.26517	34.52
2.28183	34.52
2.29850	34.52
2.31517	34.52
2.33183	34.52
2.34850	34.52
2.36517	34.52
2.38183	34.52
2.39850	34.52
2.41517	34.53
2.43183	34.52
2.44850	34.52
2.46517	34.52
2.48183	34.53
2.49850	34.52
2.51517	34.52
2.53183	34.51
2.54850	34.52
2.56517	34.52
2.58183	34.52
2.59850	34.52
2.61517	34.52
2.63183	34.52
2.64850	34.52
2.66517	34.52
2.68183	34.51
2.69850	34.52
2.71517	34.52
2.73183	34.51
2.74850	34.51
2.76517	34.52
2.78183	34.52
2.79850	34.52
2.81517	34.52
2.83183	34.52
2.84850	34.52
2.86517	34.52
2.88183	34.52
2.89850	34.52
2.91517	34.52
2.93183	34.52
2.94850	34.52
2.96517	34.52
2.98183	34.52
2.99850	34.52
3.01517	34.52
3.03183	34.51
3.04850	34.52
3.06517	34.52
3.08183	34.51
3.09850	34.52
3.11517	34.53
3.13183	34.51
3.14850	34.52
3.16517	34.53
3.18183	34.52
3.19850	34.52
3.21517	34.52
3.23183	34.52
3.24850	34.52
3.26517	34.52
3.28183	34.52
3.29850	34.52
3.31517	34.53
3.33183	34.52
3.34850	34.52
3.36517	34.52
3.38183	34.51
3.39850	34.52
3.41517	34.52
3.43183	34.52
3.44850	34.51
3.46517	34.52
3.48183	34.51
3.49850	34.52
3.51517	34.52
3.53183	34.51
3.54850	34.52
3.56517	34.52
3.58183	34.52
3.59850	34.51
3.61517	34.51
3.63183	34.52
3.64850	34.52
3.66517	34.52
3.68183	34.52
3.69850	34.51
3.71517	34.52
3.73183	34.52
3.74850	34.52
3.76517	34.52
3.78183	34.52
3.79850	34.52
3.81517	34.51
3.83183	34.52
3.84850	34.52
3.86517	34.52
3.88183	34.52
3.89850	34.51
3.91517	34.52
3.93183	34.51
3.94850	34.52
3.96517	34.52
3.98183	34.52
3.99850	34.51

[Status Trace (Column Flow)]
Interval(msec)	1000
# of Points	240
Start Time(min)	0.015
End Time(min)	3.998
Intensity Units	
Intensity Multiplier	1
R.Time (min)	Intensity
0.01517	5.41
0.03183	5.22
0.04850	5.50
0.06517	5.71
0.08183	5.57
0.09850	5.49
0.11517	5.49
0.13183	5.49
0.14850	5.49
0.16517	5.49
0.18183	5.49
0.19850	5.49
0.21517	5.49
0.23183	5.49
0.24850	5.49
0.26517	5.49
0.28183	5.49
0.29850	5.49
0.31517	5.49
0.33183	5.49
0.34850	5.49
0.36517	5.49
0.38183	5.49
0.39850	5.49
0.41517	5.49
0.43183	5.49
0.44850	5.49
0.46517	5.49
0.48183	5.49
0.49850	5.49
0.51517	5.49
0.53183	5.49
0.54850	5.49
0.56517	5.49
0.58183	5.49
0.59850	5.49
0.61517	5.49
0.63183	5.49
0.64850	5.49
0.66517	5.49
0.68183	5.49
0.69850	5.49
0.71517	5.49
0.73183	5.49
0.74850	5.49
0.76517	5.49
0.78183	5.49
0.79850	5.49
0.81517	5.49
0.83183	5.49
0.84850	5.49
0.86517	5.49
0.88183	5.49
0.89850	5.49
0.91517	5.49
0.93183	5.49
0.94850	5.49
0.96517	5.49
0.98183	5.49
0.99850	5.49
1.01517	5.49
1.03183	5.49
1.04850	5.49
1.06517	5.49
1.08183	5.49
1.09850	5.49
1.11517	5.49
1.13183	5.49
1.14850	5.49
1.16517	5.49
1.18183	5.49
1.19850	5.49
1.21517	5.49
1.23183	5.49
1.24850	5.49
1.26517	5.49
1.28183	5.49
1.29850	5.49
1.31517	5.49
1.33183	5.49
1.34850	5.49
1.36517	5.49
1.38183	5.49
1.39850	5.49
1.41517	5.49
1.43183	5.49
1.44850	5.49
1.46517	5.49
1.48183	5.49
1.49850	5.49
1.51517	5.49
1.53183	5.49
1.54850	5.49
1.56517	5.49
1.58183	5.49
1.59850	5.49
1.61517	5.49
1.63183	5.49
1.64850	5.48
1.66517	5.47
1.68183	5.46
1.69850	5.45
1.71517	5.44
1.73183	5.43
1.74850	5.42
1.76517	5.41
1.78183	5.40
1.79850	5.39
1.81517	5.38
1.83183	5.37
1.84850	5.36
1.86517	5.35
1.88183	5.34
1.89850	5.33
1.91517	5.32
1.93183	5.31
1.94850	5.30
1.96517	5.29
1.98183	5.28
1.99850	5.27
2.01517	5.26
2.03183	5.25
2.04850	5.24
2.06517	5.23
2.08183	5.22
2.09850	5.21
2.11517	5.20
2.13183	5.19
2.14850	5.18
2.16517	5.18
2.18183	5.17
2.19850	5.16
2.21517	5.15
2.23183	5.14
2.24850	5.13
2.26517	5.12
2.28183	5.11
2.29850	5.10
2.31517	5.09
2.33183	5.08
2.34850	5.07
2.36517	5.07
2.38183	5.06
2.39850	5.06
2.41517	5.06
2.43183	5.06
2.44850	5.06
2.46517	5.06
2.48183	5.06
2.49850	5.06
2.51517	5.06
2.53183	5.06
2.54850	5.06
2.56517	5.06
2.58183	5.06
2.59850	5.06
2.61517	5.06
2.63183	5.06
2.64850	5.06
2.66517	5.06
2.68183	5.06
2.69850	5.06
2.71517	5.06
2.73183	5.06
2.74850	5.06
2.76517	5.06
2.78183	5.06
2.79850	5.06
2.81517	5.06
2.83183	5.06
2.84850	5.06
2.86517	5.06
2.88183	5.06
2.89850	5.06
2.91517	5.05
2.93183	5.05
2.94850	5.05
2.96517	5.05
2.98183	5.05
2.99850	5.05
3.01517	5.05
3.03183	5.05
3.04850	5.05
3.06517	5.05
3.08183	5.05
3.09850	5.05
3.11517	5.05
3.13183	5.05
3.14850	5.05
3.16517	5.05
3.18183	5.05
3.19850	5.05
3.21517	5.05
3.23183	5.05
3.24850	5.05
3.26517	5.05
3.28183	5.05
3.29850	5.05
3.31517	5.05
3.33183	5.05
3.34850	5.05
3.36517	5.05
3.38183	5.05
3.39850	5.05
3.41517	5.05
3.43183	5.05
3.44850	5.05
3.46517	5.05
3.48183	5.05
3.49850	5.05
3.51517	5.05
3.53183	5.05
3.54850	5.05
3.56517	5.05
3.58183	5.05
3.59850	5.05
3.61517	5.05
3.63183	5.05
3.64850	5.05
3.66517	5.05
3.68183	5.05
3.69850	5.05
3.71517	5.05
3.73183	5.05
3.74850	5.05
3.76517	5.05
3.78183	5.05
3.79850	5.05
3.81517	5.05
3.83183	5.05
3.84850	5.05
3.86517	5.05
3.88183	5.05
3.89850	5.05
3.91517	5.05
3.93183	5.05
3.94850	5.05
3.96517	5.05
3.98183	5.05
3.99850	5.05

[Status Trace (Linear Velocity)]
Interval(msec)	1000
# of Points	240
Start Time(min)	0.015
End Time(min)	3.998
Intensity Units	
Intensity Multiplier	1
R.Time (min)	Intensity
0.01517	38.54
0.03183	37.45
0.04850	39.05
0.06517	40.22
0.08183	39.43
0.09850	38.99
0.11517	39.00
0.13183	39.01
0.14850	39.01
0.16517	39.01
0.18183	39.01
0.19850	39.01
0.21517	39.01
0.23183	39.01
0.24850	39.01
0.26517	39.01
0.28183	39.01
0.29850	39.01
0.31517	39.01
0.33183	39.01
0.34850	39.01
0.36517	39.01
0.38183	39.01
0.39850	39.01
0.41517	39.01
0.43183	39.01
0.44850	39.01
0.46517	39.01
0.48183	39.01
0.49850	39.01
0.51517	39.01
0.53183	39.01
0.54850	39.01
0.56517	39.01
0.58183	39.01
0.59850	39.01
0.61517	39.01
0.63183	39.01
0.64850	39.01
0.66517	39.01
0.68183	39.01
0.69850	39.01
0.71517	39.01
0.73183	39.01
0.74850	39.01
0.76517	39.01
0.78183	39.01
0.79850	39.01
0.81517	39.01
0.83183	39.01
0.84850	39.01
0.86517	39.01
0.88183	39.01
0.89850	39.01
0.91517	39.01
0.93183	39.01
0.94850	39.01
0.96517	39.01
0.98183	39.01
0.99850	39.01
1.01517	39.01
1.03183	39.01
1.04850	39.01
1.06517	39.01
1.08183	39.01
1.09850	39.01
1.11517	39.01
1.13183	39.01
1.14850	39.01
1.16517	39.01
1.18183	39.01
1.19850	39.01
1.21517	39.01
1.23183	39.01
1.24850	39.01
1.26517	39.01
1.28183	39.01
1.29850	39.01
1.31517	39.01
1.33183	39.01
1.34850	39.01
1.36517	39.01
1.38183	39.01
1.39850	39.01
1.41517	39.01
1.43183	39.01
1.44850	39.01
1.46517	39.01
1.48183	39.01
1.49850	39.01
1.51517	39.01
1.53183	39.01
1.54850	39.01
1.56517	39.01
1.58183	39.01
1.59850	39.01
1.61517	39.00
1.63183	38.99
1.64850	38.97
1.66517	38.95
1.68183	38.91
1.69850	38.87
1.71517	38.84
1.73183	38.81
1.74850	38.77
1.76517	38.75
1.78183	38.71
1.79850	38.68
1.81517	38.65
1.83183	38.62
1.84850	38.58
1.86517	38.56
1.88183	38.52
1.89850	38.49
1.91517	38.47
1.93183	38.43
1.94850	38.40
1.96517	38.37
1.98183	38.34
1.99850	38.31
2.01517	38.28
2.03183	38.25
2.04850	38.22
2.06517	38.20
2.08183	38.16
2.09850	38.13
2.11517	38.11
2.13183	38.08
2.14850	38.05
2.16517	38.02
2.18183	37.99
2.19850	37.96
2.21517	37.93
2.23183	37.90
2.24850	37.87
2.26517	37.84
2.28183	37.80
2.29850	37.77
2.31517	37.75
2.33183	37.72
2.34850	37.69
2.36517	37.67
2.38183	37.65
2.39850	37.65
2.41517	37.65
2.43183	37.65
2.44850	37.65
2.46517	37.65
2.48183	37.65
2.49850	37.65
2.51517	37.64
2.53183	37.64
2.54850	37.65
2.56517	37.65
2.58183	37.64
2.59850	37.64
2.61517	37.64
2.63183	37.64
2.64850	37.64
2.66517	37.64
2.68183	37.64
2.69850	37.64
2.71517	37.64
2.73183	37.64
2.74850	37.64
2.76517	37.64
2.78183	37.64
2.79850	37.64
2.81517	37.64
2.83183	37.64
2.84850	37.64
2.86517	37.64
2.88183	37.64
2.89850	37.64
2.91517	37.63
2.93183	37.63
2.94850	37.63
2.96517	37.63
2.98183	37.63
2.99850	37.63
3.01517	37.63
3.03183	37.63
3.04850	37.63
3.06517	37.63
3.08183	37.63
3.09850	37.62
3.11517	37.62
3.13183	37.62
3.14850	37.62
3.16517	37.62
3.18183	37.62
3.19850	37.62
3.21517	37.62
3.23183	37.62
3.24850	37.62
3.26517	37.62
3.28183	37.62
3.29850	37.62
3.31517	37.62
3.33183	37.62
3.34850	37.62
3.36517	37.62
3.38183	37.62
3.39850	37.62
3.41517	37.62
3.43183	37.62
3.44850	37.63
3.46517	37.63
3.48183	37.63
3.49850	37.63
3.51517	37.63
3.53183	37.63
3.54850	37.62
3.56517	37.62
3.58183	37.62
3.59850	37.62
3.61517	37.62
3.63183	37.62
3.64850	37.62
3.66517	37.62
3.68183	37.62
3.69850	37.62
3.71517	37.62
3.73183	37.62
3.74850	37.62
3.76517	37.62
3.78183	37.62
3.79850	37.62
3.81517	37.62
3.83183	37.62
3.84850	37.62
3.86517	37.62
3.88183	37.62
3.89850	37.62
3.91517	37.62
3.93183	37.62
3.94850	37.62
3.96517	37.62
3.98183	37.62
3.99850	37.62

