[Header]
Application Name	LabSolutions
Version	5.110
Data File Name	C:\Users\User\Desktop\Junior\UIC Prairie Sampling\2023\8.2.23\080223_031.gcd
Output Date	8/31/2023
Output Time	12:43:07 PM

[File Information]
Type	Data File
Generated	8/29/2023 7:17:53 PM
Generated by	System Administrator
Modified	8/29/2023 7:24:33 PM
Modified by	System Administrator

[Sample Information]
Operator Name	System Administrator
Acquired	8/29/2023 7:20:33 PM
Sample Type	0:Unknown
Level	0
Sample Name	031
Sample ID	031
ISTD Amount1	1
ISTD Amount2	1
ISTD Amount3	1
ISTD Amount4	1
ISTD Amount5	1
ISTD Amount6	1
ISTD Amount7	1
ISTD Amount8	1
ISTD Amount9	1
ISTD Amount10	1
ISTD Amount11	1
ISTD Amount12	1
ISTD Amount13	1
ISTD Amount14	1
ISTD Amount15	1
ISTD Amount16	1
ISTD Amount17	1
ISTD Amount18	1
ISTD Amount19	1
ISTD Amount20	1
ISTD Amount21	1
ISTD Amount22	1
ISTD Amount23	1
ISTD Amount24	1
ISTD Amount25	1
ISTD Amount26	1
ISTD Amount27	1
ISTD Amount28	1
ISTD Amount29	1
ISTD Amount30	1
ISTD Amount31	1
ISTD Amount32	1
Sample Amount	1
Dilution Factor	1
Vial#	30
Injection Volume	1
Injection Count	1
Bar Code	

[Original Files]
Data File	C:\Users\User\Desktop\Junior\UIC Prairie Sampling\8.2.23\080223_031.gcd
Method File	C:\LabSolutions\Data\GHG_4min_2022\ghg3_togas_w_acet_4 min_new_int.gcm
Batch File	C:\LabSolutions\Data\BATCH FILES\080223.gcb
Report Format File	c:\LabSolutions\System\DEFAULT.lsr

[File Description]


[Configuration]
Instrument Name	C0B7VH3-Instrument1
Instrument #	1
Line #	1
# of Detectors	3
Detector ID	DET#1	DET#2	DET#3
Detector Name	FID	PTCD	ECD
# of Channels	1	1	1

[Peak Table(Ch1)]
# of Peaks	4
Peak#	R.Time	I.Time	F.Time	Area	Height	A/H	Conc.	Mark	ID#	Name	k'	Plate #	Plate Ht.	Tailing	Resolution	Sep.Factor	Area Ratio	Height Ratio	Conc. %	Norm Conc.
1	0.258	0.170	0.372	1199	199	6.024	0.000	   			0.000	38	3908.431	1.146	0.000	0.000	0	0	0.000	0.000
2	1.472	1.435	1.527	6350	3194	1.988	0.000	   	1	CO	4.698	10073	14.892	1.284	10.766	0.000	0	0	0.000	0.000
3	1.564	1.527	1.619	4290	2206	1.945	20.914	 V 	2	CH4	5.053	11723	12.795	1.121	1.575	1.076	0	0	6.372	6.372
4	1.989	1.941	2.440	1594575	770924	2.068	307.304	   	3	CO2	6.699	17622	8.512	1.288	7.227	1.326	0	0	93.628	93.628

[Peak Table(Ch2)]
# of Peaks	0

[Peak Table(Ch3)]
# of Peaks	5
Peak#	R.Time	I.Time	F.Time	Area	Height	A/H	Conc.	Mark	ID#	Name	k'	Plate #	Plate Ht.	Tailing	Resolution	Sep.Factor	Area Ratio	Height Ratio	Conc. %	Norm Conc.
1	2.458	2.440	2.506	771	279	2.761	0.000	   			0.000	12819	11.701	0.000	0.000	0.000	0	0	0.000	0.000
2	2.521	2.506	2.572	420	154	2.719	0.000	 V 			0.025	3600	41.669	0.000	0.489	0.000	0	0	0.000	0.000
3	2.612	2.572	2.711	462	117	3.956	0.000	 V 			0.063	6703	22.379	0.000	0.620	2.471	0	0	0.000	0.000
4	2.891	2.733	3.283	28472	3916	7.271	0.421	   	1	N2O	0.176	13834	10.842	0.000	2.467	2.810	0	0	100.000	100.000
5	3.375	3.283	3.947	10545	585	18.040	0.000	 V 			0.373	150	1001.566	0.000	0.806	2.119	0	0	0.000	0.000

[Compound Results(Ch1)]
# of IDs	6
ID#	Name	R.Time	Area	Height	Conc.	Curve	3rd	2nd	1st	Constant	Area Ratio	Height Ratio	Conc. %	Norm Conc.
1	CO	1.472	6350	3194	0.000	Linear	0.000000e+00	0.000000e+00	0.000000e+00	0.000000e+00	0	0	0.000	0.000
2	CH4	1.564	4290	2206	20.914	Linear	0.000000e+00	0.000000e+00	2.051179e+002	0.000000e+00	0	0	6.372	6.372
3	CO2	1.989	1594575	770924	307.304	Linear	0.000000e+00	0.000000e+00	5.188919e+003	0.000000e+00	0	0	93.628	93.628
4	Ethylene	0.000	0	0	0.000	Linear	0.000000e+00	0.000000e+00	0.000000e+00	0.000000e+00	0	0	0.000	0.000
5	Acetylene	0.000	0	0	0.000	Linear	0.000000e+00	0.000000e+00	0.000000e+00	0.000000e+00	0	0	0.000	0.000
6	Ethane	0.000	0	0	0.000	Linear	0.000000e+00	0.000000e+00	0.000000e+00	0.000000e+00	0	0	0.000	0.000

[Compound Results(Ch2)]
# of IDs	5
ID#	Name	R.Time	Area	Height	Conc.	Curve	3rd	2nd	1st	Constant	Area Ratio	Height Ratio	Conc. %	Norm Conc.
1	Hydrogen	0.000	0	0	0.000	Linear	0.000000e+00	0.000000e+00	0.000000e+00	0.000000e+00	0	0	0.000	0.000
2	Oxygen	0.000	0	0	0.000	Linear	0.000000e+00	0.000000e+00	0.000000e+00	0.000000e+00	0	0	0.000	0.000
3	Nitrogen	0.000	0	0	0.000	Linear	0.000000e+00	0.000000e+00	0.000000e+00	0.000000e+00	0	0	0.000	0.000
4	Methane	0.000	0	0	0.000	Linear	0.000000e+00	0.000000e+00	0.000000e+00	0.000000e+00	0	0	0.000	0.000
5	Carbon Monoxide	0.000	0	0	0.000	Linear	0.000000e+00	0.000000e+00	0.000000e+00	0.000000e+00	0	0	0.000	0.000

[Compound Results(Ch3)]
# of IDs	2
ID#	Name	R.Time	Area	Height	Conc.	Curve	3rd	2nd	1st	Constant	Area Ratio	Height Ratio	Conc. %	Norm Conc.
1	N2O	2.891	28472	3916	0.421	Linear	0.000000e+00	0.000000e+00	6.759880e+004	0.000000e+00	0	0	100.000	100.000
2	SF6	0.000	0	0	0.000	Linear	0.000000e+00	0.000000e+00	0.000000e+00	0.000000e+00	0	0	0.000	0.000

[Group Results(Ch1)]
# of Groups	0

[Group Results(Ch2)]
# of Groups	0

[Group Results(Ch3)]
# of Groups	0

[Chromatogram (Ch1)]
Interval(msec)	220
# of Points	1091
Start Time(min)	0.002
End Time(min)	3.998
R.Time (min)	Intensity
0.00167	22
0.00533	25
0.00900	25
0.01267	23
0.01633	22
0.02000	21
0.02367	23
0.02733	26
0.03100	28
0.03467	27
0.03833	24
0.04200	21
0.04567	15
0.04933	7
0.05300	1
0.05667	-3
0.06033	-6
0.06400	-4
0.06767	0
0.07133	3
0.07500	6
0.07867	9
0.08233	10
0.08600	9
0.08967	9
0.09333	9
0.09700	8
0.10067	7
0.10433	7
0.10800	7
0.11167	6
0.11533	7
0.11900	12
0.12267	20
0.12633	29
0.13000	35
0.13367	34
0.13733	30
0.14100	27
0.14467	26
0.14833	27
0.15200	31
0.15567	34
0.15933	33
0.16300	30
0.16667	32
0.17033	37
0.17400	46
0.17767	56
0.18133	65
0.18500	71
0.18867	76
0.19233	83
0.19600	90
0.19967	97
0.20333	106
0.20700	118
0.21067	132
0.21433	144
0.21800	152
0.22167	158
0.22533	165
0.22900	176
0.23267	188
0.23633	197
0.24000	202
0.24367	212
0.24733	223
0.25100	231
0.25467	236
0.25833	239
0.26200	238
0.26567	231
0.26933	223
0.27300	214
0.27667	206
0.28033	201
0.28400	198
0.28767	198
0.29133	197
0.29500	199
0.29867	201
0.30233	198
0.30600	188
0.30967	175
0.31333	155
0.31700	133
0.32067	115
0.32433	102
0.32800	90
0.33167	80
0.33533	78
0.33900	74
0.34267	70
0.34633	65
0.35000	63
0.35367	64
0.35733	62
0.36100	60
0.36467	57
0.36833	52
0.37200	44
0.37567	39
0.37933	38
0.38300	40
0.38667	40
0.39033	38
0.39400	33
0.39767	26
0.40133	18
0.40500	14
0.40867	15
0.41233	20
0.41600	23
0.41967	25
0.42333	26
0.42700	28
0.43067	25
0.43433	18
0.43800	13
0.44167	10
0.44533	9
0.44900	6
0.45267	1
0.45633	-3
0.46000	-4
0.46367	1
0.46733	4
0.47100	6
0.47467	7
0.47833	9
0.48200	9
0.48567	8
0.48933	8
0.49300	8
0.49667	5
0.50033	-1
0.50400	-4
0.50767	-4
0.51133	-2
0.51500	1
0.51867	4
0.52233	5
0.52600	6
0.52967	5
0.53333	4
0.53700	4
0.54067	7
0.54433	15
0.54800	24
0.55167	31
0.55533	34
0.55900	35
0.56267	33
0.56633	30
0.57000	25
0.57367	19
0.57733	14
0.58100	9
0.58467	5
0.58833	3
0.59200	4
0.59567	9
0.59933	18
0.60300	24
0.60667	27
0.61033	31
0.61400	33
0.61767	30
0.62133	26
0.62500	20
0.62867	12
0.63233	4
0.63600	-2
0.63967	-4
0.64333	-4
0.64700	-1
0.65067	3
0.65433	5
0.65800	5
0.66167	0
0.66533	-4
0.66900	-6
0.67267	-7
0.67633	-9
0.68000	-10
0.68367	-7
0.68733	-2
0.69100	2
0.69467	5
0.69833	4
0.70200	4
0.70567	4
0.70933	1
0.71300	-3
0.71667	-5
0.72033	-6
0.72400	-8
0.72767	-7
0.73133	-4
0.73500	-0
0.73867	5
0.74233	11
0.74600	16
0.74967	19
0.75333	21
0.75700	21
0.76067	17
0.76433	13
0.76800	10
0.77167	7
0.77533	6
0.77900	1
0.78267	-7
0.78633	-15
0.79000	-20
0.79367	-21
0.79733	-17
0.80100	-8
0.80467	2
0.80833	11
0.81200	17
0.81567	20
0.81933	20
0.82300	19
0.82667	16
0.83033	12
0.83400	6
0.83767	0
0.84133	-2
0.84500	2
0.84867	7
0.85233	9
0.85600	8
0.85967	6
0.86333	5
0.86700	3
0.87067	1
0.87433	-4
0.87800	-8
0.88167	-10
0.88533	-9
0.88900	-7
0.89267	-0
0.89633	9
0.90000	18
0.90367	23
0.90733	21
0.91100	12
0.91467	-3
0.91833	-17
0.92200	-24
0.92567	-24
0.92933	-19
0.93300	-14
0.93667	-11
0.94033	-11
0.94400	-13
0.94767	-16
0.95133	-15
0.95500	-8
0.95867	-1
0.96233	3
0.96600	3
0.96967	1
0.97333	0
0.97700	2
0.98067	1
0.98433	-3
0.98800	-10
0.99167	-17
0.99533	-21
0.99900	-22
1.00267	-20
1.00633	-21
1.01000	-23
1.01367	-23
1.01733	-22
1.02100	-19
1.02467	-11
1.02833	-4
1.03200	-0
1.03567	3
1.03933	5
1.04300	6
1.04667	7
1.05033	8
1.05400	9
1.05767	7
1.06133	6
1.06500	3
1.06867	-1
1.07233	-4
1.07600	-5
1.07967	-1
1.08333	5
1.08700	3
1.09067	-2
1.09433	-4
1.09800	-7
1.10167	-11
1.10533	-14
1.10900	-14
1.11267	-12
1.11633	-11
1.12000	-7
1.12367	-3
1.12733	-3
1.13100	-5
1.13467	-4
1.13833	-2
1.14200	-5
1.14567	-14
1.14933	-20
1.15300	-24
1.15667	-25
1.16033	-26
1.16400	-25
1.16767	-23
1.17133	-19
1.17500	-18
1.17867	-20
1.18233	-23
1.18600	-23
1.18967	-19
1.19333	-12
1.19700	-7
1.20067	-6
1.20433	-7
1.20800	-10
1.21167	-13
1.21533	-16
1.21900	-17
1.22267	-18
1.22633	-16
1.23000	-13
1.23367	-11
1.23733	-12
1.24100	-10
1.24467	-6
1.24833	-4
1.25200	-6
1.25567	-8
1.25933	-11
1.26300	-15
1.26667	-17
1.27033	-18
1.27400	-20
1.27767	-21
1.28133	-20
1.28500	-17
1.28867	-13
1.29233	-12
1.29600	-14
1.29967	-17
1.30333	-17
1.30700	-14
1.31067	-11
1.31433	-10
1.31800	-12
1.32167	-13
1.32533	-13
1.32900	-16
1.33267	-21
1.33633	-30
1.34000	-37
1.34367	-42
1.34733	-48
1.35100	-52
1.35467	-52
1.35833	-48
1.36200	-40
1.36567	-28
1.36933	-17
1.37300	-6
1.37667	-1
1.38033	2
1.38400	5
1.38767	4
1.39133	-2
1.39500	-10
1.39867	-17
1.40233	-21
1.40600	-24
1.40967	-24
1.41333	-23
1.41700	-22
1.42067	-18
1.42433	-17
1.42800	-19
1.43167	-17
1.43533	-7
1.43900	14
1.44267	41
1.44633	153
1.45000	489
1.45367	1058
1.45733	1711
1.46100	2308
1.46467	2780
1.46833	3086
1.47200	3185
1.47567	3047
1.47933	2695
1.48300	2214
1.48667	1712
1.49033	1264
1.49400	904
1.49767	634
1.50133	441
1.50500	306
1.50867	212
1.51233	146
1.51600	101
1.51967	67
1.52333	42
1.52700	27
1.53067	28
1.53433	63
1.53800	183
1.54167	448
1.54533	843
1.54900	1282
1.55267	1678
1.55633	1979
1.56000	2162
1.56367	2190
1.56733	2046
1.57100	1755
1.57467	1395
1.57833	1041
1.58200	739
1.58567	503
1.58933	331
1.59300	211
1.59667	127
1.60033	69
1.60400	32
1.60767	9
1.61133	-5
1.61500	-14
1.61867	-19
1.62233	-24
1.62600	-30
1.62967	-36
1.63333	-38
1.63700	-37
1.64067	-37
1.64433	-38
1.64800	-38
1.65167	-37
1.65533	-34
1.65900	-33
1.66267	-31
1.66633	-28
1.67000	-26
1.67367	-28
1.67733	-33
1.68100	-38
1.68467	-39
1.68833	-42
1.69200	-48
1.69567	-48
1.69933	-46
1.70300	-45
1.70667	-45
1.71033	-44
1.71400	-44
1.71767	-43
1.72133	-43
1.72500	-44
1.72867	-45
1.73233	-47
1.73600	-50
1.73967	-51
1.74333	-53
1.74700	-55
1.75067	-55
1.75433	-54
1.75800	-49
1.76167	-44
1.76533	-41
1.76900	-39
1.77267	-36
1.77633	-33
1.78000	-32
1.78367	-31
1.78733	-30
1.79100	-29
1.79467	-32
1.79833	-37
1.80200	-44
1.80567	-48
1.80933	-51
1.81300	-50
1.81667	-51
1.82033	-54
1.82400	-58
1.82767	-60
1.83133	-59
1.83500	-56
1.83867	-51
1.84233	-43
1.84600	-37
1.84967	-35
1.85333	-37
1.85700	-41
1.86067	-43
1.86433	-45
1.86800	-50
1.87167	-54
1.87533	-56
1.87900	-59
1.88267	-62
1.88633	-62
1.89000	-59
1.89367	-55
1.89733	-49
1.90100	-44
1.90467	-42
1.90833	-40
1.91200	-42
1.91567	-46
1.91933	-48
1.92300	-49
1.92667	-50
1.93033	-55
1.93400	-60
1.93767	-61
1.94133	-56
1.94500	-35
1.94867	85
1.95233	770
1.95600	4011
1.95967	15574
1.96333	46897
1.96700	112453
1.97067	219763
1.97433	359817
1.97800	509143
1.98167	640597
1.98533	732372
1.98900	770912
1.99267	752078
1.99633	683005
2.00000	580157
2.00367	464099
2.00733	353005
2.01100	258208
2.01467	183758
2.01833	128663
2.02200	89548
2.02567	62536
2.02933	44194
2.03300	31841
2.03667	23531
2.04033	17911
2.04400	14069
2.04767	11395
2.05133	9490
2.05500	8100
2.05867	7056
2.06233	6250
2.06600	5616
2.06967	5104
2.07333	4680
2.07700	4324
2.08067	4020
2.08433	3757
2.08800	3527
2.09167	3326
2.09533	3146
2.09900	2986
2.10267	2842
2.10633	2708
2.11000	2583
2.11367	2467
2.11733	2358
2.12100	2256
2.12467	2161
2.12833	2072
2.13200	1994
2.13567	1923
2.13933	1856
2.14300	1793
2.14667	1731
2.15033	1673
2.15400	1616
2.15767	1559
2.16133	1504
2.16500	1455
2.16867	1414
2.17233	1379
2.17600	1346
2.17967	1311
2.18333	1277
2.18700	1246
2.19067	1214
2.19433	1179
2.19800	1145
2.20167	1113
2.20533	1086
2.20900	1063
2.21267	1042
2.21633	1022
2.22000	1002
2.22367	979
2.22733	954
2.23100	930
2.23467	907
2.23833	887
2.24200	866
2.24567	842
2.24933	820
2.25300	804
2.25667	792
2.26033	779
2.26400	762
2.26767	747
2.27133	731
2.27500	716
2.27867	701
2.28233	688
2.28600	678
2.28967	667
2.29333	657
2.29700	650
2.30067	643
2.30433	632
2.30800	617
2.31167	604
2.31533	593
2.31900	584
2.32267	576
2.32633	569
2.33000	562
2.33367	556
2.33733	548
2.34100	540
2.34467	534
2.34833	529
2.35200	523
2.35567	517
2.35933	511
2.36300	504
2.36667	495
2.37033	487
2.37400	478
2.37767	469
2.38133	460
2.38500	452
2.38867	445
2.39233	439
2.39600	435
2.39967	433
2.40333	429
2.40700	426
2.41067	425
2.41433	422
2.41800	415
2.42167	409
2.42533	407
2.42900	408
2.43267	408
2.43633	408
2.44000	404
2.44367	397
2.44733	391
2.45100	387
2.45467	385
2.45833	384
2.46200	382
2.46567	378
2.46933	371
2.47300	359
2.47667	348
2.48033	343
2.48400	337
2.48767	329
2.49133	320
2.49500	314
2.49867	311
2.50233	309
2.50600	309
2.50967	313
2.51333	316
2.51700	318
2.52067	320
2.52433	322
2.52800	327
2.53167	332
2.53533	333
2.53900	327
2.54267	319
2.54633	312
2.55000	306
2.55367	297
2.55733	290
2.56100	287
2.56467	282
2.56833	277
2.57200	273
2.57567	272
2.57933	275
2.58300	279
2.58667	283
2.59033	285
2.59400	285
2.59767	284
2.60133	282
2.60500	276
2.60867	269
2.61233	262
2.61600	260
2.61967	259
2.62333	258
2.62700	257
2.63067	256
2.63433	252
2.63800	244
2.64167	238
2.64533	234
2.64900	235
2.65267	239
2.65633	242
2.66000	243
2.66367	242
2.66733	241
2.67100	239
2.67467	236
2.67833	234
2.68200	233
2.68567	235
2.68933	239
2.69300	242
2.69667	245
2.70033	249
2.70400	253
2.70767	258
2.71133	261
2.71500	259
2.71867	252
2.72233	245
2.72600	238
2.72967	234
2.73333	232
2.73700	230
2.74067	229
2.74433	230
2.74800	229
2.75167	225
2.75533	221
2.75900	221
2.76267	227
2.76633	233
2.77000	234
2.77367	229
2.77733	221
2.78100	212
2.78467	207
2.78833	205
2.79200	202
2.79567	202
2.79933	207
2.80300	212
2.80667	217
2.81033	220
2.81400	222
2.81767	226
2.82133	227
2.82500	226
2.82867	222
2.83233	220
2.83600	221
2.83967	224
2.84333	224
2.84700	224
2.85067	225
2.85433	226
2.85800	224
2.86167	219
2.86533	212
2.86900	205
2.87267	203
2.87633	206
2.88000	207
2.88367	207
2.88733	210
2.89100	211
2.89467	206
2.89833	199
2.90200	195
2.90567	194
2.90933	193
2.91300	193
2.91667	194
2.92033	195
2.92400	195
2.92767	195
2.93133	196
2.93500	200
2.93867	204
2.94233	205
2.94600	204
2.94967	202
2.95333	198
2.95700	192
2.96067	185
2.96433	181
2.96800	179
2.97167	177
2.97533	176
2.97900	178
2.98267	187
2.98633	201
2.99000	217
2.99367	230
2.99733	242
3.00100	248
3.00467	244
3.00833	233
3.01200	221
3.01567	209
3.01933	197
3.02300	188
3.02667	182
3.03033	182
3.03400	186
3.03767	192
3.04133	198
3.04500	199
3.04867	197
3.05233	194
3.05600	192
3.05967	187
3.06333	184
3.06700	184
3.07067	184
3.07433	183
3.07800	184
3.08167	188
3.08533	194
3.08900	199
3.09267	199
3.09633	196
3.10000	194
3.10367	193
3.10733	193
3.11100	193
3.11467	191
3.11833	184
3.12200	179
3.12567	177
3.12933	176
3.13300	178
3.13667	182
3.14033	188
3.14400	194
3.14767	195
3.15133	189
3.15500	183
3.15867	177
3.16233	173
3.16600	171
3.16967	173
3.17333	177
3.17700	181
3.18067	185
3.18433	187
3.18800	187
3.19167	187
3.19533	185
3.19900	178
3.20267	171
3.20633	167
3.21000	162
3.21367	159
3.21733	160
3.22100	161
3.22467	161
3.22833	160
3.23200	161
3.23567	164
3.23933	164
3.24300	165
3.24667	168
3.25033	172
3.25400	178
3.25767	183
3.26133	191
3.26500	199
3.26867	204
3.27233	199
3.27600	187
3.27967	173
3.28333	162
3.28700	159
3.29067	161
3.29433	164
3.29800	165
3.30167	166
3.30533	165
3.30900	162
3.31267	158
3.31633	158
3.32000	158
3.32367	157
3.32733	152
3.33100	147
3.33467	144
3.33833	144
3.34200	146
3.34567	150
3.34933	153
3.35300	155
3.35667	156
3.36033	156
3.36400	154
3.36767	151
3.37133	150
3.37500	149
3.37867	147
3.38233	143
3.38600	142
3.38967	145
3.39333	149
3.39700	154
3.40067	157
3.40433	158
3.40800	157
3.41167	154
3.41533	149
3.41900	144
3.42267	140
3.42633	137
3.43000	135
3.43367	138
3.43733	144
3.44100	149
3.44467	151
3.44833	151
3.45200	149
3.45567	146
3.45933	144
3.46300	145
3.46667	150
3.47033	158
3.47400	166
3.47767	174
3.48133	177
3.48500	175
3.48867	168
3.49233	158
3.49600	147
3.49967	138
3.50333	134
3.50700	136
3.51067	140
3.51433	141
3.51800	142
3.52167	141
3.52533	141
3.52900	142
3.53267	141
3.53633	140
3.54000	138
3.54367	136
3.54733	133
3.55100	129
3.55467	123
3.55833	120
3.56200	118
3.56567	120
3.56933	121
3.57300	124
3.57667	128
3.58033	132
3.58400	134
3.58767	135
3.59133	135
3.59500	133
3.59867	131
3.60233	132
3.60600	136
3.60967	140
3.61333	141
3.61700	140
3.62067	141
3.62433	136
3.62800	131
3.63167	129
3.63533	130
3.63900	130
3.64267	126
3.64633	121
3.65000	121
3.65367	125
3.65733	128
3.66100	128
3.66467	127
3.66833	127
3.67200	128
3.67567	131
3.67933	133
3.68300	134
3.68667	133
3.69033	132
3.69400	133
3.69767	132
3.70133	130
3.70500	130
3.70867	130
3.71233	129
3.71600	128
3.71967	126
3.72333	125
3.72700	128
3.73067	132
3.73433	136
3.73800	136
3.74167	138
3.74533	139
3.74900	139
3.75267	138
3.75633	133
3.76000	126
3.76367	120
3.76733	117
3.77100	115
3.77467	113
3.77833	113
3.78200	115
3.78567	118
3.78933	120
3.79300	120
3.79667	122
3.80033	122
3.80400	122
3.80767	122
3.81133	122
3.81500	123
3.81867	123
3.82233	123
3.82600	122
3.82967	118
3.83333	114
3.83700	110
3.84067	110
3.84433	113
3.84800	117
3.85167	123
3.85533	128
3.85900	132
3.86267	131
3.86633	126
3.87000	118
3.87367	112
3.87733	108
3.88100	104
3.88467	100
3.88833	101
3.89200	106
3.89567	111
3.89933	114
3.90300	116
3.90667	117
3.91033	118
3.91400	119
3.91767	117
3.92133	117
3.92500	119
3.92867	121
3.93233	125
3.93600	129
3.93967	129
3.94333	125
3.94700	119
3.95067	113
3.95433	107
3.95800	100
3.96167	94
3.96533	91
3.96900	92
3.97267	94
3.97633	99
3.98000	103
3.98367	104
3.98733	103
3.99100	103
3.99467	102
3.99833	102

[Chromatogram (Ch2)]
Interval(msec)	220
# of Points	1091
Start Time(min)	0.002
End Time(min)	3.998
R.Time (min)	Intensity
0.00167	-0
0.00533	-0
0.00900	-0
0.01267	-1
0.01633	-1
0.02000	-1
0.02367	-1
0.02733	-0
0.03100	-0
0.03467	-0
0.03833	-0
0.04200	-0
0.04567	-0
0.04933	-1
0.05300	-1
0.05667	-1
0.06033	-1
0.06400	-0
0.06767	-0
0.07133	0
0.07500	0
0.07867	0
0.08233	0
0.08600	0
0.08967	0
0.09333	0
0.09700	0
0.10067	0
0.10433	0
0.10800	0
0.11167	0
0.11533	0
0.11900	0
0.12267	0
0.12633	0
0.13000	0
0.13367	-0
0.13733	-0
0.14100	-0
0.14467	-0
0.14833	-0
0.15200	-0
0.15567	0
0.15933	-0
0.16300	-0
0.16667	-0
0.17033	-0
0.17400	-0
0.17767	-1
0.18133	-1
0.18500	-1
0.18867	-1
0.19233	-1
0.19600	-1
0.19967	-1
0.20333	-0
0.20700	-0
0.21067	-0
0.21433	-0
0.21800	-0
0.22167	-0
0.22533	-1
0.22900	-1
0.23267	-1
0.23633	-1
0.24000	-1
0.24367	-1
0.24733	-2
0.25100	-2
0.25467	-1
0.25833	-1
0.26200	-1
0.26567	-1
0.26933	-0
0.27300	-0
0.27667	-0
0.28033	-0
0.28400	-0
0.28767	-1
0.29133	-1
0.29500	-1
0.29867	-1
0.30233	-1
0.30600	-1
0.30967	-1
0.31333	-2
0.31700	-2
0.32067	-2
0.32433	-2
0.32800	-2
0.33167	-2
0.33533	-2
0.33900	-3
0.34267	-3
0.34633	-3
0.35000	-3
0.35367	-3
0.35733	-3
0.36100	-3
0.36467	-2
0.36833	-2
0.37200	-2
0.37567	-1
0.37933	-1
0.38300	-1
0.38667	-1
0.39033	-1
0.39400	-1
0.39767	-1
0.40133	-1
0.40500	-1
0.40867	-1
0.41233	-1
0.41600	-1
0.41967	-1
0.42333	-1
0.42700	-0
0.43067	-0
0.43433	-0
0.43800	-1
0.44167	-1
0.44533	-1
0.44900	-1
0.45267	-1
0.45633	-1
0.46000	-1
0.46367	-1
0.46733	-1
0.47100	-1
0.47467	-1
0.47833	-0
0.48200	-0
0.48567	-0
0.48933	-0
0.49300	-0
0.49667	-0
0.50033	-1
0.50400	-1
0.50767	-1
0.51133	-1
0.51500	-1
0.51867	-0
0.52233	-0
0.52600	-0
0.52967	-0
0.53333	-0
0.53700	-0
0.54067	-0
0.54433	0
0.54800	-0
0.55167	-0
0.55533	-0
0.55900	-1
0.56267	-1
0.56633	-1
0.57000	-1
0.57367	-1
0.57733	-1
0.58100	-1
0.58467	-1
0.58833	-1
0.59200	-1
0.59567	-1
0.59933	-1
0.60300	-1
0.60667	-1
0.61033	-1
0.61400	-1
0.61767	-1
0.62133	-1
0.62500	-1
0.62867	-2
0.63233	-2
0.63600	-2
0.63967	-2
0.64333	-1
0.64700	-1
0.65067	-1
0.65433	-1
0.65800	-1
0.66167	-2
0.66533	-2
0.66900	-2
0.67267	-2
0.67633	-2
0.68000	-2
0.68367	-2
0.68733	-2
0.69100	-2
0.69467	-2
0.69833	-1
0.70200	-1
0.70567	-1
0.70933	-1
0.71300	-1
0.71667	-1
0.72033	-2
0.72400	-2
0.72767	-2
0.73133	-2
0.73500	-3
0.73867	-3
0.74233	-4
0.74600	-4
0.74967	-4
0.75333	-4
0.75700	-3
0.76067	-3
0.76433	-3
0.76800	-3
0.77167	-3
0.77533	-3
0.77900	-3
0.78267	-3
0.78633	-2
0.79000	-2
0.79367	-2
0.79733	-2
0.80100	-2
0.80467	-1
0.80833	-1
0.81200	-1
0.81567	-1
0.81933	-1
0.82300	-0
0.82667	-0
0.83033	-0
0.83400	-1
0.83767	-1
0.84133	-1
0.84500	-1
0.84867	-1
0.85233	-1
0.85600	-1
0.85967	-1
0.86333	-2
0.86700	-2
0.87067	-2
0.87433	-1
0.87800	-1
0.88167	-1
0.88533	-1
0.88900	-1
0.89267	-1
0.89633	-1
0.90000	-2
0.90367	-2
0.90733	-2
0.91100	-2
0.91467	-2
0.91833	-2
0.92200	-2
0.92567	-2
0.92933	-2
0.93300	-2
0.93667	-3
0.94033	-3
0.94400	-3
0.94767	-3
0.95133	-3
0.95500	-3
0.95867	-3
0.96233	-3
0.96600	-3
0.96967	-3
0.97333	-3
0.97700	-3
0.98067	-3
0.98433	-3
0.98800	-3
0.99167	-3
0.99533	-3
0.99900	-3
1.00267	-3
1.00633	-2
1.01000	-2
1.01367	-2
1.01733	-2
1.02100	-2
1.02467	-2
1.02833	-2
1.03200	-2
1.03567	-2
1.03933	-2
1.04300	-2
1.04667	-3
1.05033	-3
1.05400	-3
1.05767	-4
1.06133	-4
1.06500	-4
1.06867	-4
1.07233	-4
1.07600	-4
1.07967	-4
1.08333	-4
1.08700	-4
1.09067	-4
1.09433	-4
1.09800	-4
1.10167	-4
1.10533	-4
1.10900	-4
1.11267	-4
1.11633	-4
1.12000	-4
1.12367	-4
1.12733	-4
1.13100	-4
1.13467	-4
1.13833	-4
1.14200	-4
1.14567	-4
1.14933	-4
1.15300	-4
1.15667	-4
1.16033	-3
1.16400	-3
1.16767	-3
1.17133	-3
1.17500	-3
1.17867	-3
1.18233	-3
1.18600	-3
1.18967	-3
1.19333	-3
1.19700	-3
1.20067	-3
1.20433	-3
1.20800	-3
1.21167	-3
1.21533	-3
1.21900	-4
1.22267	-4
1.22633	-4
1.23000	-4
1.23367	-4
1.23733	-4
1.24100	-4
1.24467	-4
1.24833	-4
1.25200	-4
1.25567	-3
1.25933	-3
1.26300	-3
1.26667	-3
1.27033	-3
1.27400	-3
1.27767	-3
1.28133	-3
1.28500	-3
1.28867	-3
1.29233	-3
1.29600	-4
1.29967	-4
1.30333	-4
1.30700	-4
1.31067	-4
1.31433	-4
1.31800	-4
1.32167	-4
1.32533	-4
1.32900	-4
1.33267	-4
1.33633	-4
1.34000	-4
1.34367	-4
1.34733	-4
1.35100	-4
1.35467	-4
1.35833	-4
1.36200	-4
1.36567	-5
1.36933	-5
1.37300	-5
1.37667	-5
1.38033	-5
1.38400	-5
1.38767	-5
1.39133	-5
1.39500	-5
1.39867	-5
1.40233	-5
1.40600	-5
1.40967	-5
1.41333	-4
1.41700	-4
1.42067	-4
1.42433	-4
1.42800	-4
1.43167	-4
1.43533	-3
1.43900	-3
1.44267	-3
1.44633	-3
1.45000	-3
1.45367	-3
1.45733	-3
1.46100	-3
1.46467	-3
1.46833	-3
1.47200	-3
1.47567	-3
1.47933	-3
1.48300	-2
1.48667	-2
1.49033	-2
1.49400	-2
1.49767	-2
1.50133	-2
1.50500	-2
1.50867	-2
1.51233	-2
1.51600	-2
1.51967	-2
1.52333	-3
1.52700	-3
1.53067	-3
1.53433	-4
1.53800	-4
1.54167	-4
1.54533	-4
1.54900	-4
1.55267	-4
1.55633	-4
1.56000	-4
1.56367	-4
1.56733	-4
1.57100	-5
1.57467	-5
1.57833	-5
1.58200	-5
1.58567	-5
1.58933	-5
1.59300	-6
1.59667	-7
1.60033	-8
1.60400	-9
1.60767	-10
1.61133	-11
1.61500	-13
1.61867	-15
1.62233	-17
1.62600	-20
1.62967	-22
1.63333	-25
1.63700	-28
1.64067	-31
1.64433	-35
1.64800	-38
1.65167	-41
1.65533	-45
1.65900	-48
1.66267	-52
1.66633	-56
1.67000	-60
1.67367	-64
1.67733	-68
1.68100	-72
1.68467	-77
1.68833	-80
1.69200	-84
1.69567	-87
1.69933	-89
1.70300	-92
1.70667	-93
1.71033	-95
1.71400	-96
1.71767	-96
1.72133	-97
1.72500	-97
1.72867	-97
1.73233	-97
1.73600	-97
1.73967	-97
1.74333	-97
1.74700	-97
1.75067	-96
1.75433	-96
1.75800	-96
1.76167	-96
1.76533	-96
1.76900	-96
1.77267	-97
1.77633	-97
1.78000	-97
1.78367	-98
1.78733	-98
1.79100	-99
1.79467	-100
1.79833	-100
1.80200	-100
1.80567	-101
1.80933	-101
1.81300	-101
1.81667	-100
1.82033	-100
1.82400	-100
1.82767	-100
1.83133	-100
1.83500	-100
1.83867	-100
1.84233	-100
1.84600	-101
1.84967	-101
1.85333	-101
1.85700	-101
1.86067	-101
1.86433	-101
1.86800	-100
1.87167	-100
1.87533	-100
1.87900	-100
1.88267	-100
1.88633	-100
1.89000	-99
1.89367	-99
1.89733	-99
1.90100	-99
1.90467	-98
1.90833	-98
1.91200	-98
1.91567	-98
1.91933	-97
1.92300	-97
1.92667	-97
1.93033	-97
1.93400	-98
1.93767	-97
1.94133	-97
1.94500	-96
1.94867	-95
1.95233	-95
1.95600	-95
1.95967	-95
1.96333	-95
1.96700	-95
1.97067	-95
1.97433	-94
1.97800	-94
1.98167	-94
1.98533	-93
1.98900	-93
1.99267	-93
1.99633	-92
2.00000	-92
2.00367	-92
2.00733	-92
2.01100	-92
2.01467	-91
2.01833	-91
2.02200	-91
2.02567	-90
2.02933	-90
2.03300	-90
2.03667	-90
2.04033	-90
2.04400	-89
2.04767	-89
2.05133	-89
2.05500	-89
2.05867	-89
2.06233	-89
2.06600	-89
2.06967	-88
2.07333	-88
2.07700	-88
2.08067	-88
2.08433	-87
2.08800	-87
2.09167	-88
2.09533	-87
2.09900	-87
2.10267	-86
2.10633	-85
2.11000	-84
2.11367	-84
2.11733	-83
2.12100	-83
2.12467	-83
2.12833	-82
2.13200	-82
2.13567	-82
2.13933	-82
2.14300	-82
2.14667	-82
2.15033	-82
2.15400	-82
2.15767	-82
2.16133	-82
2.16500	-81
2.16867	-80
2.17233	-80
2.17600	-79
2.17967	-79
2.18333	-79
2.18700	-79
2.19067	-78
2.19433	-78
2.19800	-77
2.20167	-77
2.20533	-77
2.20900	-77
2.21267	-77
2.21633	-77
2.22000	-76
2.22367	-76
2.22733	-76
2.23100	-76
2.23467	-76
2.23833	-76
2.24200	-76
2.24567	-76
2.24933	-76
2.25300	-76
2.25667	-76
2.26033	-75
2.26400	-75
2.26767	-74
2.27133	-74
2.27500	-74
2.27867	-74
2.28233	-74
2.28600	-74
2.28967	-74
2.29333	-73
2.29700	-73
2.30067	-73
2.30433	-73
2.30800	-73
2.31167	-72
2.31533	-72
2.31900	-71
2.32267	-70
2.32633	-69
2.33000	-69
2.33367	-68
2.33733	-67
2.34100	-66
2.34467	-65
2.34833	-64
2.35200	-63
2.35567	-62
2.35933	-61
2.36300	-60
2.36667	-60
2.37033	-58
2.37400	-57
2.37767	-55
2.38133	-52
2.38500	-49
2.38867	-46
2.39233	-42
2.39600	-38
2.39967	-34
2.40333	-30
2.40700	-26
2.41067	-21
2.41433	-17
2.41800	-14
2.42167	-10
2.42533	-8
2.42900	-5
2.43267	-3
2.43633	-1
2.44000	1
2.44367	2
2.44733	4
2.45100	5
2.45467	6
2.45833	7
2.46200	8
2.46567	9
2.46933	10
2.47300	10
2.47667	10
2.48033	11
2.48400	11
2.48767	12
2.49133	12
2.49500	13
2.49867	14
2.50233	15
2.50600	16
2.50967	17
2.51333	17
2.51700	18
2.52067	18
2.52433	18
2.52800	18
2.53167	18
2.53533	18
2.53900	18
2.54267	18
2.54633	18
2.55000	17
2.55367	16
2.55733	16
2.56100	15
2.56467	14
2.56833	13
2.57200	13
2.57567	13
2.57933	13
2.58300	13
2.58667	13
2.59033	13
2.59400	13
2.59767	14
2.60133	14
2.60500	15
2.60867	15
2.61233	16
2.61600	16
2.61967	16
2.62333	17
2.62700	17
2.63067	17
2.63433	17
2.63800	18
2.64167	18
2.64533	19
2.64900	19
2.65267	20
2.65633	20
2.66000	20
2.66367	21
2.66733	21
2.67100	21
2.67467	22
2.67833	22
2.68200	22
2.68567	23
2.68933	23
2.69300	23
2.69667	23
2.70033	24
2.70400	24
2.70767	24
2.71133	24
2.71500	25
2.71867	25
2.72233	25
2.72600	26
2.72967	26
2.73333	26
2.73700	26
2.74067	26
2.74433	26
2.74800	26
2.75167	26
2.75533	26
2.75900	26
2.76267	26
2.76633	27
2.77000	27
2.77367	27
2.77733	27
2.78100	28
2.78467	28
2.78833	28
2.79200	28
2.79567	28
2.79933	28
2.80300	28
2.80667	28
2.81033	28
2.81400	27
2.81767	26
2.82133	26
2.82500	25
2.82867	25
2.83233	25
2.83600	24
2.83967	24
2.84333	25
2.84700	25
2.85067	25
2.85433	25
2.85800	24
2.86167	21
2.86533	17
2.86900	10
2.87267	-1
2.87633	-16
2.88000	-36
2.88367	-61
2.88733	-92
2.89100	-128
2.89467	-169
2.89833	-215
2.90200	-265
2.90567	-320
2.90933	-377
2.91300	-438
2.91667	-501
2.92033	-564
2.92400	-628
2.92767	-692
2.93133	-754
2.93500	-813
2.93867	-869
2.94233	-923
2.94600	-977
2.94967	-1031
2.95333	-1077
2.95700	-1107
2.96067	-1114
2.96433	-1095
2.96800	-1054
2.97167	-995
2.97533	-924
2.97900	-845
2.98267	-764
2.98633	-683
2.99000	-606
2.99367	-533
2.99733	-466
3.00100	-405
3.00467	-350
3.00833	-301
3.01200	-258
3.01567	-221
3.01933	-188
3.02300	-159
3.02667	-134
3.03033	-113
3.03400	-94
3.03767	-79
3.04133	-65
3.04500	-54
3.04867	-44
3.05233	-35
3.05600	-28
3.05967	-22
3.06333	-16
3.06700	-12
3.07067	-8
3.07433	-5
3.07800	-2
3.08167	1
3.08533	3
3.08900	5
3.09267	7
3.09633	8
3.10000	10
3.10367	11
3.10733	12
3.11100	12
3.11467	13
3.11833	14
3.12200	14
3.12567	15
3.12933	15
3.13300	16
3.13667	16
3.14033	16
3.14400	17
3.14767	17
3.15133	18
3.15500	18
3.15867	19
3.16233	19
3.16600	20
3.16967	20
3.17333	21
3.17700	21
3.18067	21
3.18433	21
3.18800	22
3.19167	22
3.19533	22
3.19900	23
3.20267	23
3.20633	23
3.21000	23
3.21367	23
3.21733	23
3.22100	23
3.22467	23
3.22833	23
3.23200	23
3.23567	23
3.23933	23
3.24300	23
3.24667	23
3.25033	23
3.25400	23
3.25767	23
3.26133	23
3.26500	23
3.26867	23
3.27233	23
3.27600	23
3.27967	24
3.28333	24
3.28700	24
3.29067	24
3.29433	25
3.29800	25
3.30167	25
3.30533	25
3.30900	25
3.31267	26
3.31633	26
3.32000	26
3.32367	26
3.32733	26
3.33100	27
3.33467	27
3.33833	27
3.34200	28
3.34567	28
3.34933	28
3.35300	28
3.35667	28
3.36033	29
3.36400	29
3.36767	29
3.37133	29
3.37500	29
3.37867	29
3.38233	29
3.38600	29
3.38967	29
3.39333	29
3.39700	29
3.40067	29
3.40433	30
3.40800	30
3.41167	30
3.41533	29
3.41900	29
3.42267	29
3.42633	29
3.43000	29
3.43367	29
3.43733	29
3.44100	29
3.44467	29
3.44833	29
3.45200	29
3.45567	29
3.45933	29
3.46300	29
3.46667	29
3.47033	29
3.47400	29
3.47767	29
3.48133	29
3.48500	29
3.48867	29
3.49233	29
3.49600	29
3.49967	29
3.50333	29
3.50700	28
3.51067	28
3.51433	28
3.51800	28
3.52167	28
3.52533	29
3.52900	29
3.53267	29
3.53633	29
3.54000	29
3.54367	29
3.54733	29
3.55100	29
3.55467	29
3.55833	29
3.56200	29
3.56567	29
3.56933	29
3.57300	29
3.57667	29
3.58033	28
3.58400	28
3.58767	28
3.59133	28
3.59500	29
3.59867	28
3.60233	28
3.60600	28
3.60967	28
3.61333	27
3.61700	27
3.62067	27
3.62433	27
3.62800	27
3.63167	27
3.63533	27
3.63900	27
3.64267	28
3.64633	28
3.65000	28
3.65367	28
3.65733	28
3.66100	28
3.66467	29
3.66833	29
3.67200	29
3.67567	29
3.67933	29
3.68300	29
3.68667	29
3.69033	29
3.69400	29
3.69767	30
3.70133	30
3.70500	30
3.70867	30
3.71233	30
3.71600	29
3.71967	29
3.72333	29
3.72700	29
3.73067	29
3.73433	29
3.73800	29
3.74167	29
3.74533	29
3.74900	29
3.75267	29
3.75633	29
3.76000	29
3.76367	29
3.76733	29
3.77100	29
3.77467	29
3.77833	29
3.78200	29
3.78567	29
3.78933	29
3.79300	29
3.79667	29
3.80033	29
3.80400	29
3.80767	29
3.81133	29
3.81500	29
3.81867	29
3.82233	29
3.82600	29
3.82967	29
3.83333	29
3.83700	29
3.84067	29
3.84433	29
3.84800	29
3.85167	29
3.85533	29
3.85900	28
3.86267	28
3.86633	28
3.87000	29
3.87367	29
3.87733	29
3.88100	29
3.88467	29
3.88833	29
3.89200	29
3.89567	29
3.89933	29
3.90300	29
3.90667	29
3.91033	29
3.91400	29
3.91767	29
3.92133	29
3.92500	29
3.92867	29
3.93233	29
3.93600	29
3.93967	29
3.94333	29
3.94700	29
3.95067	29
3.95433	29
3.95800	29
3.96167	29
3.96533	29
3.96900	29
3.97267	29
3.97633	29
3.98000	29
3.98367	29
3.98733	29
3.99100	29
3.99467	29
3.99833	29

[Chromatogram (Ch3)]
Interval(msec)	220
# of Points	1091
Start Time(min)	0.002
End Time(min)	3.998
R.Time (min)	Intensity
0.00167	-1
0.00533	-2
0.00900	-2
0.01267	-2
0.01633	0
0.02000	1
0.02367	1
0.02733	1
0.03100	-1
0.03467	-3
0.03833	-3
0.04200	-3
0.04567	-3
0.04933	-1
0.05300	1
0.05667	1
0.06033	2
0.06400	2
0.06767	3
0.07133	4
0.07500	5
0.07867	6
0.08233	5
0.08600	2
0.08967	-1
0.09333	-4
0.09700	-4
0.10067	-3
0.10433	-3
0.10800	-4
0.11167	-2
0.11533	-1
0.11900	-1
0.12267	-1
0.12633	-2
0.13000	-3
0.13367	-4
0.13733	-3
0.14100	-2
0.14467	-3
0.14833	-4
0.15200	-4
0.15567	-0
0.15933	2
0.16300	3
0.16667	1
0.17033	-2
0.17400	-4
0.17767	-5
0.18133	-2
0.18500	-1
0.18867	-2
0.19233	-3
0.19600	-3
0.19967	-2
0.20333	-5
0.20700	-7
0.21067	-6
0.21433	-5
0.21800	-3
0.22167	-1
0.22533	2
0.22900	2
0.23267	3
0.23633	4
0.24000	4
0.24367	3
0.24733	2
0.25100	3
0.25467	4
0.25833	2
0.26200	2
0.26567	1
0.26933	2
0.27300	2
0.27667	1
0.28033	1
0.28400	0
0.28767	0
0.29133	-2
0.29500	-2
0.29867	-1
0.30233	0
0.30600	3
0.30967	5
0.31333	3
0.31700	0
0.32067	-0
0.32433	-0
0.32800	-0
0.33167	-2
0.33533	-3
0.33900	-1
0.34267	2
0.34633	1
0.35000	0
0.35367	1
0.35733	2
0.36100	4
0.36467	5
0.36833	3
0.37200	2
0.37567	3
0.37933	4
0.38300	3
0.38667	1
0.39033	1
0.39400	3
0.39767	4
0.40133	3
0.40500	2
0.40867	-1
0.41233	-1
0.41600	1
0.41967	4
0.42333	4
0.42700	4
0.43067	3
0.43433	2
0.43800	3
0.44167	2
0.44533	1
0.44900	-1
0.45267	-0
0.45633	-1
0.46000	-4
0.46367	-5
0.46733	-4
0.47100	-5
0.47467	-4
0.47833	-3
0.48200	-2
0.48567	1
0.48933	4
0.49300	5
0.49667	4
0.50033	4
0.50400	1
0.50767	-0
0.51133	-2
0.51500	-3
0.51867	-3
0.52233	-0
0.52600	-1
0.52967	-1
0.53333	-2
0.53700	-2
0.54067	-3
0.54433	-2
0.54800	1
0.55167	3
0.55533	1
0.55900	1
0.56267	1
0.56633	3
0.57000	5
0.57367	3
0.57733	1
0.58100	-0
0.58467	-1
0.58833	0
0.59200	2
0.59567	1
0.59933	-1
0.60300	-2
0.60667	-3
0.61033	-3
0.61400	-1
0.61767	2
0.62133	6
0.62500	7
0.62867	7
0.63233	9
0.63600	10
0.63967	10
0.64333	10
0.64700	11
0.65067	10
0.65433	9
0.65800	6
0.66167	2
0.66533	-1
0.66900	-0
0.67267	1
0.67633	2
0.68000	2
0.68367	2
0.68733	2
0.69100	5
0.69467	6
0.69833	7
0.70200	6
0.70567	3
0.70933	2
0.71300	0
0.71667	0
0.72033	2
0.72400	4
0.72767	4
0.73133	4
0.73500	7
0.73867	8
0.74233	6
0.74600	3
0.74967	2
0.75333	1
0.75700	2
0.76067	3
0.76433	6
0.76800	7
0.77167	5
0.77533	6
0.77900	5
0.78267	4
0.78633	5
0.79000	8
0.79367	11
0.79733	12
0.80100	11
0.80467	10
0.80833	10
0.81200	9
0.81567	8
0.81933	6
0.82300	3
0.82667	5
0.83033	5
0.83400	7
0.83767	10
0.84133	8
0.84500	6
0.84867	4
0.85233	7
0.85600	8
0.85967	8
0.86333	8
0.86700	9
0.87067	11
0.87433	11
0.87800	8
0.88167	6
0.88533	6
0.88900	4
0.89267	4
0.89633	4
0.90000	5
0.90367	6
0.90733	6
0.91100	8
0.91467	7
0.91833	6
0.92200	5
0.92567	3
0.92933	3
0.93300	3
0.93667	6
0.94033	6
0.94400	6
0.94767	4
0.95133	2
0.95500	4
0.95867	5
0.96233	8
0.96600	9
0.96967	10
0.97333	11
0.97700	9
0.98067	6
0.98433	5
0.98800	6
0.99167	10
0.99533	13
0.99900	13
1.00267	10
1.00633	7
1.01000	8
1.01367	8
1.01733	9
1.02100	9
1.02467	10
1.02833	13
1.03200	13
1.03567	13
1.03933	13
1.04300	12
1.04667	11
1.05033	11
1.05400	11
1.05767	11
1.06133	7
1.06500	4
1.06867	4
1.07233	5
1.07600	6
1.07967	6
1.08333	7
1.08700	9
1.09067	12
1.09433	15
1.09800	15
1.10167	15
1.10533	14
1.10900	14
1.11267	14
1.11633	14
1.12000	15
1.12367	16
1.12733	15
1.13100	12
1.13467	7
1.13833	6
1.14200	4
1.14567	5
1.14933	7
1.15300	10
1.15667	11
1.16033	10
1.16400	9
1.16767	7
1.17133	3
1.17500	3
1.17867	5
1.18233	6
1.18600	6
1.18967	6
1.19333	6
1.19700	6
1.20067	6
1.20433	3
1.20800	3
1.21167	2
1.21533	1
1.21900	3
1.22267	3
1.22633	1
1.23000	3
1.23367	5
1.23733	4
1.24100	2
1.24467	4
1.24833	8
1.25200	11
1.25567	14
1.25933	15
1.26300	13
1.26667	10
1.27033	7
1.27400	6
1.27767	8
1.28133	9
1.28500	9
1.28867	9
1.29233	8
1.29600	7
1.29967	6
1.30333	7
1.30700	8
1.31067	9
1.31433	11
1.31800	12
1.32167	13
1.32533	12
1.32900	11
1.33267	9
1.33633	7
1.34000	5
1.34367	2
1.34733	1
1.35100	4
1.35467	7
1.35833	8
1.36200	9
1.36567	11
1.36933	11
1.37300	14
1.37667	16
1.38033	13
1.38400	12
1.38767	13
1.39133	12
1.39500	11
1.39867	9
1.40233	6
1.40600	6
1.40967	7
1.41333	8
1.41700	9
1.42067	8
1.42433	5
1.42800	4
1.43167	6
1.43533	8
1.43900	7
1.44267	6
1.44633	4
1.45000	5
1.45367	8
1.45733	9
1.46100	8
1.46467	6
1.46833	5
1.47200	5
1.47567	5
1.47933	6
1.48300	6
1.48667	6
1.49033	7
1.49400	9
1.49767	12
1.50133	14
1.50500	12
1.50867	9
1.51233	12
1.51600	13
1.51967	10
1.52333	10
1.52700	10
1.53067	10
1.53433	10
1.53800	13
1.54167	15
1.54533	16
1.54900	13
1.55267	10
1.55633	10
1.56000	10
1.56367	9
1.56733	5
1.57100	3
1.57467	3
1.57833	4
1.58200	7
1.58567	7
1.58933	7
1.59300	5
1.59667	4
1.60033	5
1.60400	8
1.60767	10
1.61133	12
1.61500	14
1.61867	16
1.62233	15
1.62600	14
1.62967	15
1.63333	18
1.63700	19
1.64067	20
1.64433	18
1.64800	17
1.65167	15
1.65533	14
1.65900	11
1.66267	11
1.66633	16
1.67000	21
1.67367	21
1.67733	20
1.68100	22
1.68467	22
1.68833	20
1.69200	18
1.69567	19
1.69933	20
1.70300	22
1.70667	23
1.71033	21
1.71400	20
1.71767	19
1.72133	17
1.72500	17
1.72867	16
1.73233	15
1.73600	13
1.73967	15
1.74333	20
1.74700	23
1.75067	23
1.75433	25
1.75800	26
1.76167	24
1.76533	22
1.76900	23
1.77267	25
1.77633	28
1.78000	29
1.78367	28
1.78733	25
1.79100	24
1.79467	22
1.79833	21
1.80200	21
1.80567	19
1.80933	21
1.81300	24
1.81667	26
1.82033	28
1.82400	26
1.82767	25
1.83133	25
1.83500	28
1.83867	30
1.84233	31
1.84600	30
1.84967	31
1.85333	30
1.85700	27
1.86067	26
1.86433	29
1.86800	33
1.87167	34
1.87533	33
1.87900	31
1.88267	29
1.88633	29
1.89000	29
1.89367	28
1.89733	27
1.90100	28
1.90467	28
1.90833	25
1.91200	22
1.91567	22
1.91933	24
1.92300	27
1.92667	29
1.93033	31
1.93400	32
1.93767	33
1.94133	32
1.94500	32
1.94867	34
1.95233	34
1.95600	34
1.95967	37
1.96333	39
1.96700	42
1.97067	43
1.97433	43
1.97800	42
1.98167	43
1.98533	44
1.98900	44
1.99267	43
1.99633	44
2.00000	46
2.00367	46
2.00733	48
2.01100	52
2.01467	54
2.01833	56
2.02200	56
2.02567	54
2.02933	52
2.03300	52
2.03667	52
2.04033	54
2.04400	54
2.04767	53
2.05133	52
2.05500	52
2.05867	51
2.06233	50
2.06600	51
2.06967	51
2.07333	53
2.07700	56
2.08067	58
2.08433	61
2.08800	61
2.09167	59
2.09533	58
2.09900	58
2.10267	59
2.10633	63
2.11000	66
2.11367	68
2.11733	69
2.12100	70
2.12467	71
2.12833	72
2.13200	72
2.13567	74
2.13933	75
2.14300	76
2.14667	77
2.15033	76
2.15400	74
2.15767	73
2.16133	72
2.16500	72
2.16867	73
2.17233	74
2.17600	74
2.17967	73
2.18333	72
2.18700	74
2.19067	77
2.19433	78
2.19800	77
2.20167	77
2.20533	79
2.20900	81
2.21267	82
2.21633	84
2.22000	86
2.22367	86
2.22733	86
2.23100	86
2.23467	87
2.23833	87
2.24200	89
2.24567	90
2.24933	92
2.25300	94
2.25667	96
2.26033	98
2.26400	98
2.26767	99
2.27133	100
2.27500	100
2.27867	99
2.28233	97
2.28600	94
2.28967	93
2.29333	93
2.29700	93
2.30067	93
2.30433	96
2.30800	98
2.31167	100
2.31533	101
2.31900	101
2.32267	101
2.32633	101
2.33000	101
2.33367	101
2.33733	100
2.34100	98
2.34467	99
2.34833	99
2.35200	101
2.35567	103
2.35933	105
2.36300	104
2.36667	105
2.37033	106
2.37400	105
2.37767	103
2.38133	101
2.38500	99
2.38867	94
2.39233	93
2.39600	96
2.39967	103
2.40333	108
2.40700	112
2.41067	116
2.41433	120
2.41800	121
2.42167	122
2.42533	122
2.42900	120
2.43267	119
2.43633	119
2.44000	123
2.44367	169
2.44733	251
2.45100	325
2.45467	380
2.45833	403
2.46200	400
2.46567	391
2.46933	388
2.47300	384
2.47667	373
2.48033	355
2.48400	333
2.48767	310
2.49133	287
2.49500	272
2.49867	265
2.50233	262
2.50600	263
2.50967	267
2.51333	273
2.51700	279
2.52067	280
2.52433	278
2.52800	270
2.53167	259
2.53533	246
2.53900	233
2.54267	223
2.54633	214
2.55000	204
2.55367	196
2.55733	190
2.56100	187
2.56467	185
2.56833	184
2.57200	183
2.57567	183
2.57933	186
2.58300	191
2.58667	196
2.59033	203
2.59400	211
2.59767	219
2.60133	226
2.60500	233
2.60867	242
2.61233	247
2.61600	246
2.61967	243
2.62333	239
2.62700	232
2.63067	225
2.63433	219
2.63800	211
2.64167	203
2.64533	196
2.64900	190
2.65267	183
2.65633	175
2.66000	165
2.66367	157
2.66733	154
2.67100	150
2.67467	146
2.67833	144
2.68200	143
2.68567	142
2.68933	140
2.69300	138
2.69667	135
2.70033	135
2.70400	135
2.70767	135
2.71133	134
2.71500	132
2.71867	131
2.72233	130
2.72600	131
2.72967	135
2.73333	138
2.73700	141
2.74067	144
2.74433	146
2.74800	144
2.75167	145
2.75533	149
2.75900	153
2.76267	154
2.76633	155
2.77000	157
2.77367	157
2.77733	159
2.78100	164
2.78467	168
2.78833	172
2.79200	176
2.79567	180
2.79933	183
2.80300	185
2.80667	188
2.81033	191
2.81400	193
2.81767	195
2.82133	198
2.82500	199
2.82867	201
2.83233	203
2.83600	208
2.83967	225
2.84333	260
2.84700	332
2.85067	459
2.85433	659
2.85800	945
2.86167	1316
2.86533	1758
2.86900	2249
2.87267	2750
2.87633	3217
2.88000	3611
2.88367	3899
2.88733	4063
2.89100	4105
2.89467	4037
2.89833	3870
2.90200	3570
2.90567	3208
2.90933	2897
2.91300	2660
2.91667	2477
2.92033	2330
2.92400	2203
2.92767	2091
2.93133	1995
2.93500	1908
2.93867	1828
2.94233	1754
2.94600	1684
2.94967	1620
2.95333	1561
2.95700	1507
2.96067	1457
2.96433	1412
2.96800	1370
2.97167	1331
2.97533	1295
2.97900	1262
2.98267	1234
2.98633	1208
2.99000	1184
2.99367	1161
2.99733	1141
3.00100	1125
3.00467	1109
3.00833	1095
3.01200	1083
3.01567	1071
3.01933	1057
3.02300	1046
3.02667	1039
3.03033	1031
3.03400	1023
3.03767	1016
3.04133	1010
3.04500	1000
3.04867	990
3.05233	983
3.05600	977
3.05967	972
3.06333	967
3.06700	961
3.07067	955
3.07433	950
3.07800	947
3.08167	942
3.08533	937
3.08900	933
3.09267	930
3.09633	925
3.10000	924
3.10367	923
3.10733	921
3.11100	920
3.11467	919
3.11833	916
3.12200	913
3.12567	913
3.12933	915
3.13300	918
3.13667	921
3.14033	924
3.14400	922
3.14767	921
3.15133	919
3.15500	915
3.15867	913
3.16233	911
3.16600	907
3.16967	903
3.17333	900
3.17700	896
3.18067	893
3.18433	892
3.18800	889
3.19167	886
3.19533	883
3.19900	879
3.20267	875
3.20633	871
3.21000	867
3.21367	863
3.21733	858
3.22100	853
3.22467	850
3.22833	846
3.23200	844
3.23567	842
3.23933	841
3.24300	838
3.24667	834
3.25033	831
3.25400	829
3.25767	828
3.26133	828
3.26500	828
3.26867	827
3.27233	824
3.27600	822
3.27967	821
3.28333	824
3.28700	826
3.29067	828
3.29433	833
3.29800	837
3.30167	841
3.30533	845
3.30900	848
3.31267	851
3.31633	854
3.32000	858
3.32367	864
3.32733	871
3.33100	877
3.33467	882
3.33833	889
3.34200	898
3.34567	901
3.34933	904
3.35300	909
3.35667	911
3.36033	914
3.36400	919
3.36767	924
3.37133	929
3.37500	930
3.37867	931
3.38233	931
3.38600	930
3.38967	929
3.39333	927
3.39700	924
3.40067	918
3.40433	912
3.40800	904
3.41167	897
3.41533	891
3.41900	884
3.42267	877
3.42633	870
3.43000	863
3.43367	856
3.43733	850
3.44100	841
3.44467	830
3.44833	819
3.45200	810
3.45567	802
3.45933	794
3.46300	787
3.46667	779
3.47033	770
3.47400	761
3.47767	754
3.48133	746
3.48500	740
3.48867	735
3.49233	729
3.49600	723
3.49967	719
3.50333	715
3.50700	713
3.51067	710
3.51433	708
3.51800	708
3.52167	705
3.52533	702
3.52900	698
3.53267	696
3.53633	696
3.54000	693
3.54367	690
3.54733	688
3.55100	684
3.55467	680
3.55833	677
3.56200	675
3.56567	674
3.56933	673
3.57300	671
3.57667	669
3.58033	667
3.58400	666
3.58767	667
3.59133	667
3.59500	664
3.59867	662
3.60233	657
3.60600	653
3.60967	652
3.61333	650
3.61700	648
3.62067	646
3.62433	644
3.62800	640
3.63167	637
3.63533	634
3.63900	631
3.64267	631
3.64633	630
3.65000	626
3.65367	621
3.65733	618
3.66100	615
3.66467	612
3.66833	608
3.67200	608
3.67567	609
3.67933	608
3.68300	605
3.68667	603
3.69033	600
3.69400	598
3.69767	597
3.70133	597
3.70500	598
3.70867	599
3.71233	601
3.71600	601
3.71967	600
3.72333	599
3.72700	598
3.73067	597
3.73433	598
3.73800	595
3.74167	592
3.74533	590
3.74900	589
3.75267	588
3.75633	588
3.76000	586
3.76367	586
3.76733	584
3.77100	581
3.77467	579
3.77833	579
3.78200	580
3.78567	579
3.78933	579
3.79300	579
3.79667	577
3.80033	576
3.80400	574
3.80767	572
3.81133	571
3.81500	571
3.81867	572
3.82233	570
3.82600	568
3.82967	564
3.83333	561
3.83700	559
3.84067	561
3.84433	561
3.84800	560
3.85167	559
3.85533	560
3.85900	560
3.86267	559
3.86633	559
3.87000	560
3.87367	559
3.87733	556
3.88100	553
3.88467	551
3.88833	548
3.89200	549
3.89567	546
3.89933	544
3.90300	540
3.90667	538
3.91033	537
3.91400	538
3.91767	538
3.92133	536
3.92500	534
3.92867	534
3.93233	534
3.93600	534
3.93967	535
3.94333	534
3.94700	530
3.95067	529
3.95433	529
3.95800	529
3.96167	528
3.96533	528
3.96900	529
3.97267	529
3.97633	528
3.98000	526
3.98367	523
3.98733	520
3.99100	517
3.99467	512
3.99833	509

[Status Trace (Column Oven Temperature)]
Interval(msec)	1000
# of Points	240
Start Time(min)	0.005
End Time(min)	3.989
Intensity Units	
Intensity Multiplier	1
R.Time (min)	Intensity
0.00533	35.06
0.02200	35.06
0.03867	35.05
0.05533	35.05
0.07200	35.06
0.08867	35.06
0.10533	35.06
0.12200	35.05
0.13867	35.05
0.15533	35.05
0.17200	35.04
0.18867	35.04
0.20533	35.04
0.22200	35.04
0.23867	35.05
0.25533	35.04
0.27200	35.03
0.28867	35.03
0.30533	35.03
0.32200	35.03
0.33867	35.04
0.35533	35.03
0.37200	35.03
0.38867	35.03
0.40533	35.04
0.42200	35.03
0.43867	35.03
0.45533	35.02
0.47200	35.02
0.48867	35.02
0.50533	35.02
0.52200	35.01
0.53867	35.01
0.55533	35.01
0.57200	35.00
0.58867	35.00
0.60533	35.00
0.62200	35.02
0.63867	35.01
0.65533	35.01
0.67200	35.01
0.68867	35.01
0.70533	35.01
0.72200	35.01
0.73867	35.01
0.75533	35.02
0.77200	35.02
0.78867	35.02
0.80533	35.02
0.82200	35.01
0.83867	35.00
0.85533	34.99
0.87200	35.00
0.88867	34.99
0.90533	34.99
0.92200	34.99
0.93867	34.99
0.95533	34.98
0.97200	34.99
0.98867	34.98
1.00533	34.98
1.02200	34.97
1.03867	34.98
1.05533	34.98
1.07200	34.99
1.08867	34.99
1.10533	35.00
1.12200	34.99
1.13867	34.99
1.15533	35.00
1.17200	34.99
1.18867	35.00
1.20533	34.99
1.22200	34.98
1.23867	34.98
1.25533	34.99
1.27200	34.99
1.28867	34.99
1.30533	34.99
1.32200	34.99
1.33867	34.99
1.35533	35.00
1.37200	35.00
1.38867	35.01
1.40533	35.01
1.42200	35.00
1.43867	35.01
1.45533	35.01
1.47200	35.00
1.48867	35.00
1.50533	34.99
1.52200	34.98
1.53867	34.98
1.55533	34.99
1.57200	34.99
1.58867	35.01
1.60533	35.06
1.62200	35.17
1.63867	35.34
1.65533	35.58
1.67200	35.90
1.68867	36.26
1.70533	36.62
1.72200	36.97
1.73867	37.30
1.75533	37.63
1.77200	37.96
1.78867	38.29
1.80533	38.63
1.82200	38.95
1.83867	39.29
1.85533	39.62
1.87200	39.94
1.88867	40.27
1.90533	40.59
1.92200	40.92
1.93867	41.25
1.95533	41.57
1.97200	41.89
1.98867	42.20
2.00533	42.54
2.02200	42.85
2.03867	43.17
2.05533	43.50
2.07200	43.83
2.08867	44.17
2.10533	44.48
2.12200	44.81
2.13867	45.14
2.15533	45.48
2.17200	45.80
2.18867	46.14
2.20533	46.47
2.22200	46.80
2.23867	47.13
2.25533	47.46
2.27200	47.79
2.28867	48.11
2.30533	48.46
2.32200	48.81
2.33867	49.11
2.35533	49.39
2.37200	49.61
2.38867	49.71
2.40533	49.71
2.42200	49.70
2.43867	49.71
2.45533	49.71
2.47200	49.73
2.48867	49.74
2.50533	49.74
2.52200	49.75
2.53867	49.75
2.55533	49.77
2.57200	49.78
2.58867	49.80
2.60533	49.81
2.62200	49.82
2.63867	49.82
2.65533	49.83
2.67200	49.84
2.68867	49.85
2.70533	49.86
2.72200	49.85
2.73867	49.85
2.75533	49.86
2.77200	49.86
2.78867	49.85
2.80533	49.86
2.82200	49.89
2.83867	49.93
2.85533	49.94
2.87200	49.94
2.88867	49.94
2.90533	49.94
2.92200	49.93
2.93867	49.93
2.95533	49.94
2.97200	49.95
2.98867	49.96
3.00533	49.98
3.02200	49.98
3.03867	49.99
3.05533	50.01
3.07200	50.02
3.08867	50.02
3.10533	50.03
3.12200	50.04
3.13867	50.05
3.15533	50.06
3.17200	50.06
3.18867	50.06
3.20533	50.06
3.22200	50.06
3.23867	50.08
3.25533	50.09
3.27200	50.09
3.28867	50.10
3.30533	50.10
3.32200	50.10
3.33867	50.09
3.35533	50.09
3.37200	50.09
3.38867	50.08
3.40533	50.07
3.42200	50.06
3.43867	50.05
3.45533	50.05
3.47200	50.05
3.48867	50.05
3.50533	50.05
3.52200	50.06
3.53867	50.06
3.55533	50.05
3.57200	50.05
3.58867	50.05
3.60533	50.06
3.62200	50.07
3.63867	50.07
3.65533	50.07
3.67200	50.08
3.68867	50.07
3.70533	50.07
3.72200	50.07
3.73867	50.08
3.75533	50.08
3.77200	50.08
3.78867	50.07
3.80533	50.08
3.82200	50.07
3.83867	50.07
3.85533	50.07
3.87200	50.07
3.88867	50.07
3.90533	50.07
3.92200	50.07
3.93867	50.07
3.95533	50.07
3.97200	50.08
3.98867	50.07

[Status Trace (Injection Unit Temperature)]
Interval(msec)	1000
# of Points	240
Start Time(min)	0.005
End Time(min)	3.989
Intensity Units	
Intensity Multiplier	1
R.Time (min)	Intensity
0.00533	99.98
0.02200	99.98
0.03867	99.98
0.05533	99.98
0.07200	99.98
0.08867	99.98
0.10533	99.98
0.12200	99.98
0.13867	99.98
0.15533	99.98
0.17200	99.98
0.18867	99.98
0.20533	99.98
0.22200	99.98
0.23867	99.98
0.25533	99.98
0.27200	99.98
0.28867	99.98
0.30533	99.98
0.32200	99.98
0.33867	99.98
0.35533	99.98
0.37200	99.98
0.38867	99.98
0.40533	99.98
0.42200	99.98
0.43867	99.98
0.45533	99.98
0.47200	99.98
0.48867	99.98
0.50533	99.98
0.52200	99.98
0.53867	99.98
0.55533	99.98
0.57200	99.98
0.58867	99.98
0.60533	99.98
0.62200	99.98
0.63867	99.98
0.65533	99.98
0.67200	99.98
0.68867	99.98
0.70533	99.98
0.72200	99.98
0.73867	99.98
0.75533	99.98
0.77200	99.98
0.78867	99.98
0.80533	99.98
0.82200	99.98
0.83867	99.98
0.85533	99.98
0.87200	99.98
0.88867	99.98
0.90533	99.98
0.92200	99.98
0.93867	99.98
0.95533	99.98
0.97200	99.98
0.98867	99.98
1.00533	99.98
1.02200	99.98
1.03867	99.98
1.05533	99.98
1.07200	99.98
1.08867	99.98
1.10533	99.98
1.12200	99.98
1.13867	99.98
1.15533	99.98
1.17200	99.98
1.18867	99.98
1.20533	99.98
1.22200	99.98
1.23867	99.98
1.25533	99.98
1.27200	99.98
1.28867	99.98
1.30533	99.98
1.32200	99.98
1.33867	99.98
1.35533	99.98
1.37200	99.98
1.38867	99.98
1.40533	99.98
1.42200	99.98
1.43867	99.98
1.45533	99.98
1.47200	99.99
1.48867	99.98
1.50533	99.98
1.52200	99.98
1.53867	99.99
1.55533	99.98
1.57200	99.99
1.58867	99.98
1.60533	99.98
1.62200	99.98
1.63867	99.98
1.65533	99.98
1.67200	99.99
1.68867	99.99
1.70533	99.98
1.72200	99.98
1.73867	99.99
1.75533	99.99
1.77200	99.98
1.78867	99.99
1.80533	99.98
1.82200	99.98
1.83867	99.98
1.85533	99.98
1.87200	99.98
1.88867	99.98
1.90533	99.98
1.92200	99.98
1.93867	99.98
1.95533	99.98
1.97200	99.97
1.98867	99.97
2.00533	99.97
2.02200	99.97
2.03867	99.97
2.05533	99.97
2.07200	99.97
2.08867	99.97
2.10533	99.97
2.12200	99.97
2.13867	99.97
2.15533	99.96
2.17200	99.97
2.18867	99.96
2.20533	99.96
2.22200	99.96
2.23867	99.96
2.25533	99.96
2.27200	99.96
2.28867	99.96
2.30533	99.96
2.32200	99.96
2.33867	99.96
2.35533	99.96
2.37200	99.96
2.38867	99.96
2.40533	99.96
2.42200	99.95
2.43867	99.96
2.45533	99.96
2.47200	99.96
2.48867	99.96
2.50533	99.96
2.52200	99.96
2.53867	99.96
2.55533	99.96
2.57200	99.96
2.58867	99.96
2.60533	99.96
2.62200	99.96
2.63867	99.97
2.65533	99.97
2.67200	99.97
2.68867	99.97
2.70533	99.98
2.72200	99.98
2.73867	99.98
2.75533	99.98
2.77200	99.98
2.78867	99.98
2.80533	99.98
2.82200	99.98
2.83867	99.99
2.85533	99.99
2.87200	99.99
2.88867	99.99
2.90533	100.00
2.92200	100.00
2.93867	100.00
2.95533	100.00
2.97200	100.00
2.98867	100.00
3.00533	100.00
3.02200	100.01
3.03867	100.01
3.05533	100.01
3.07200	100.01
3.08867	100.01
3.10533	100.01
3.12200	100.01
3.13867	100.01
3.15533	100.01
3.17200	100.01
3.18867	100.02
3.20533	100.02
3.22200	100.02
3.23867	100.02
3.25533	100.02
3.27200	100.02
3.28867	100.02
3.30533	100.02
3.32200	100.02
3.33867	100.02
3.35533	100.02
3.37200	100.02
3.38867	100.03
3.40533	100.02
3.42200	100.03
3.43867	100.03
3.45533	100.03
3.47200	100.03
3.48867	100.03
3.50533	100.03
3.52200	100.03
3.53867	100.03
3.55533	100.03
3.57200	100.03
3.58867	100.03
3.60533	100.03
3.62200	100.03
3.63867	100.04
3.65533	100.03
3.67200	100.04
3.68867	100.04
3.70533	100.04
3.72200	100.04
3.73867	100.04
3.75533	100.04
3.77200	100.04
3.78867	100.04
3.80533	100.04
3.82200	100.04
3.83867	100.04
3.85533	100.04
3.87200	100.04
3.88867	100.04
3.90533	100.04
3.92200	100.04
3.93867	100.04
3.95533	100.04
3.97200	100.04
3.98867	100.04

[Status Trace (Carrier Gas Pressure)]
Interval(msec)	1000
# of Points	240
Start Time(min)	0.005
End Time(min)	3.989
Intensity Units	
Intensity Multiplier	1
R.Time (min)	Intensity
0.00533	58.00
0.02200	55.82
0.03867	56.69
0.05533	58.92
0.07200	59.77
0.08867	58.18
0.10533	57.97
0.12200	58.00
0.13867	58.01
0.15533	58.01
0.17200	58.00
0.18867	58.00
0.20533	58.00
0.22200	58.00
0.23867	58.00
0.25533	58.00
0.27200	58.00
0.28867	58.00
0.30533	58.00
0.32200	58.00
0.33867	58.00
0.35533	58.00
0.37200	58.00
0.38867	58.00
0.40533	58.00
0.42200	58.00
0.43867	58.00
0.45533	58.00
0.47200	58.00
0.48867	58.00
0.50533	58.00
0.52200	58.00
0.53867	58.00
0.55533	58.00
0.57200	58.00
0.58867	58.00
0.60533	58.00
0.62200	58.00
0.63867	58.00
0.65533	58.00
0.67200	58.00
0.68867	58.00
0.70533	58.00
0.72200	58.00
0.73867	58.00
0.75533	58.00
0.77200	58.00
0.78867	58.00
0.80533	58.00
0.82200	58.00
0.83867	58.00
0.85533	58.00
0.87200	58.00
0.88867	58.00
0.90533	58.00
0.92200	58.00
0.93867	58.00
0.95533	58.00
0.97200	58.00
0.98867	58.00
1.00533	58.00
1.02200	58.00
1.03867	58.00
1.05533	58.00
1.07200	58.00
1.08867	58.00
1.10533	58.00
1.12200	58.00
1.13867	58.00
1.15533	58.00
1.17200	58.00
1.18867	58.00
1.20533	58.00
1.22200	58.00
1.23867	58.00
1.25533	58.00
1.27200	58.00
1.28867	58.00
1.30533	58.00
1.32200	58.00
1.33867	58.00
1.35533	58.00
1.37200	58.00
1.38867	58.00
1.40533	58.00
1.42200	58.00
1.43867	58.00
1.45533	58.00
1.47200	58.00
1.48867	58.00
1.50533	58.00
1.52200	58.00
1.53867	58.00
1.55533	58.00
1.57200	58.00
1.58867	58.00
1.60533	58.00
1.62200	58.00
1.63867	58.00
1.65533	58.00
1.67200	58.01
1.68867	58.00
1.70533	58.00
1.72200	58.00
1.73867	58.00
1.75533	58.00
1.77200	58.00
1.78867	58.00
1.80533	58.00
1.82200	58.00
1.83867	58.00
1.85533	58.00
1.87200	58.00
1.88867	58.00
1.90533	58.00
1.92200	58.00
1.93867	58.00
1.95533	58.00
1.97200	58.00
1.98867	58.00
2.00533	58.00
2.02200	58.00
2.03867	58.00
2.05533	58.00
2.07200	58.00
2.08867	58.00
2.10533	58.00
2.12200	58.00
2.13867	58.00
2.15533	58.00
2.17200	58.00
2.18867	58.00
2.20533	58.00
2.22200	58.00
2.23867	58.00
2.25533	58.00
2.27200	58.00
2.28867	58.00
2.30533	58.00
2.32200	58.00
2.33867	58.00
2.35533	58.00
2.37200	58.00
2.38867	57.99
2.40533	57.99
2.42200	58.00
2.43867	58.00
2.45533	58.00
2.47200	58.00
2.48867	58.00
2.50533	57.99
2.52200	57.99
2.53867	58.00
2.55533	58.00
2.57200	58.00
2.58867	58.00
2.60533	58.00
2.62200	58.00
2.63867	58.00
2.65533	58.00
2.67200	58.00
2.68867	58.00
2.70533	58.00
2.72200	58.00
2.73867	58.00
2.75533	58.00
2.77200	58.00
2.78867	58.00
2.80533	58.00
2.82200	58.00
2.83867	58.00
2.85533	58.00
2.87200	58.00
2.88867	58.00
2.90533	58.00
2.92200	58.00
2.93867	58.00
2.95533	58.00
2.97200	58.00
2.98867	58.00
3.00533	58.00
3.02200	58.00
3.03867	58.00
3.05533	58.00
3.07200	58.00
3.08867	58.00
3.10533	58.00
3.12200	58.00
3.13867	58.00
3.15533	58.00
3.17200	58.00
3.18867	58.00
3.20533	58.00
3.22200	58.00
3.23867	58.00
3.25533	58.00
3.27200	58.00
3.28867	58.00
3.30533	58.00
3.32200	58.00
3.33867	58.00
3.35533	58.00
3.37200	58.00
3.38867	58.00
3.40533	58.00
3.42200	58.00
3.43867	58.00
3.45533	58.00
3.47200	58.00
3.48867	58.00
3.50533	58.00
3.52200	58.00
3.53867	58.00
3.55533	58.00
3.57200	58.00
3.58867	58.00
3.60533	58.00
3.62200	58.00
3.63867	58.00
3.65533	58.00
3.67200	58.00
3.68867	58.00
3.70533	58.00
3.72200	58.00
3.73867	58.00
3.75533	58.00
3.77200	58.00
3.78867	58.00
3.80533	58.00
3.82200	58.00
3.83867	58.00
3.85533	58.00
3.87200	58.00
3.88867	58.00
3.90533	58.00
3.92200	58.00
3.93867	58.00
3.95533	58.00
3.97200	58.00
3.98867	58.00

[Status Trace (Carrier Gas Flow)]
Interval(msec)	1000
# of Points	240
Start Time(min)	0.005
End Time(min)	3.989
Intensity Units	
Intensity Multiplier	1
R.Time (min)	Intensity
0.00533	34.51
0.02200	34.55
0.03867	34.55
0.05533	34.55
0.07200	34.49
0.08867	34.52
0.10533	34.51
0.12200	34.52
0.13867	34.52
0.15533	34.52
0.17200	34.53
0.18867	34.52
0.20533	34.52
0.22200	34.52
0.23867	34.52
0.25533	34.52
0.27200	34.51
0.28867	34.52
0.30533	34.52
0.32200	34.52
0.33867	34.52
0.35533	34.52
0.37200	34.52
0.38867	34.52
0.40533	34.52
0.42200	34.52
0.43867	34.52
0.45533	34.52
0.47200	34.52
0.48867	34.52
0.50533	34.52
0.52200	34.52
0.53867	34.53
0.55533	34.51
0.57200	34.52
0.58867	34.51
0.60533	34.53
0.62200	34.52
0.63867	34.51
0.65533	34.52
0.67200	34.52
0.68867	34.52
0.70533	34.51
0.72200	34.52
0.73867	34.51
0.75533	34.52
0.77200	34.52
0.78867	34.52
0.80533	34.52
0.82200	34.52
0.83867	34.52
0.85533	34.52
0.87200	34.52
0.88867	34.52
0.90533	34.52
0.92200	34.51
0.93867	34.52
0.95533	34.53
0.97200	34.51
0.98867	34.52
1.00533	34.51
1.02200	34.52
1.03867	34.52
1.05533	34.52
1.07200	34.52
1.08867	34.52
1.10533	34.51
1.12200	34.52
1.13867	34.52
1.15533	34.51
1.17200	34.53
1.18867	34.52
1.20533	34.52
1.22200	34.51
1.23867	34.52
1.25533	34.52
1.27200	34.52
1.28867	34.52
1.30533	34.52
1.32200	34.52
1.33867	34.52
1.35533	34.52
1.37200	34.52
1.38867	34.52
1.40533	34.52
1.42200	34.52
1.43867	34.52
1.45533	34.52
1.47200	34.52
1.48867	34.52
1.50533	34.52
1.52200	34.52
1.53867	34.52
1.55533	34.52
1.57200	34.52
1.58867	34.52
1.60533	34.52
1.62200	34.52
1.63867	34.52
1.65533	34.52
1.67200	34.52
1.68867	34.52
1.70533	34.52
1.72200	34.51
1.73867	34.52
1.75533	34.52
1.77200	34.52
1.78867	34.52
1.80533	34.52
1.82200	34.52
1.83867	34.52
1.85533	34.52
1.87200	34.52
1.88867	34.52
1.90533	34.51
1.92200	34.52
1.93867	34.52
1.95533	34.52
1.97200	34.52
1.98867	34.52
2.00533	34.52
2.02200	34.51
2.03867	34.51
2.05533	34.52
2.07200	34.52
2.08867	34.52
2.10533	34.52
2.12200	34.52
2.13867	34.52
2.15533	34.52
2.17200	34.51
2.18867	34.52
2.20533	34.52
2.22200	34.51
2.23867	34.52
2.25533	34.52
2.27200	34.52
2.28867	34.51
2.30533	34.51
2.32200	34.52
2.33867	34.52
2.35533	34.52
2.37200	34.52
2.38867	34.52
2.40533	34.52
2.42200	34.52
2.43867	34.52
2.45533	34.52
2.47200	34.52
2.48867	34.52
2.50533	34.52
2.52200	34.52
2.53867	34.52
2.55533	34.53
2.57200	34.52
2.58867	34.52
2.60533	34.52
2.62200	34.52
2.63867	34.52
2.65533	34.52
2.67200	34.52
2.68867	34.52
2.70533	34.52
2.72200	34.52
2.73867	34.52
2.75533	34.51
2.77200	34.52
2.78867	34.52
2.80533	34.52
2.82200	34.52
2.83867	34.52
2.85533	34.52
2.87200	34.52
2.88867	34.52
2.90533	34.52
2.92200	34.51
2.93867	34.52
2.95533	34.52
2.97200	34.52
2.98867	34.52
3.00533	34.52
3.02200	34.52
3.03867	34.52
3.05533	34.52
3.07200	34.52
3.08867	34.52
3.10533	34.52
3.12200	34.52
3.13867	34.52
3.15533	34.51
3.17200	34.52
3.18867	34.52
3.20533	34.52
3.22200	34.52
3.23867	34.52
3.25533	34.52
3.27200	34.52
3.28867	34.52
3.30533	34.52
3.32200	34.52
3.33867	34.52
3.35533	34.52
3.37200	34.52
3.38867	34.51
3.40533	34.52
3.42200	34.52
3.43867	34.52
3.45533	34.52
3.47200	34.52
3.48867	34.51
3.50533	34.52
3.52200	34.52
3.53867	34.52
3.55533	34.51
3.57200	34.52
3.58867	34.51
3.60533	34.52
3.62200	34.52
3.63867	34.52
3.65533	34.52
3.67200	34.52
3.68867	34.51
3.70533	34.53
3.72200	34.52
3.73867	34.52
3.75533	34.53
3.77200	34.51
3.78867	34.51
3.80533	34.52
3.82200	34.51
3.83867	34.52
3.85533	34.53
3.87200	34.52
3.88867	34.52
3.90533	34.52
3.92200	34.52
3.93867	34.52
3.95533	34.52
3.97200	34.52
3.98867	34.52

[Status Trace (Column Flow)]
Interval(msec)	1000
# of Points	240
Start Time(min)	0.005
End Time(min)	3.989
Intensity Units	
Intensity Multiplier	1
R.Time (min)	Intensity
0.00533	5.49
0.02200	5.24
0.03867	5.34
0.05533	5.60
0.07200	5.70
0.08867	5.51
0.10533	5.49
0.12200	5.49
0.13867	5.49
0.15533	5.49
0.17200	5.49
0.18867	5.49
0.20533	5.49
0.22200	5.49
0.23867	5.49
0.25533	5.49
0.27200	5.49
0.28867	5.49
0.30533	5.49
0.32200	5.49
0.33867	5.49
0.35533	5.49
0.37200	5.49
0.38867	5.49
0.40533	5.49
0.42200	5.49
0.43867	5.49
0.45533	5.49
0.47200	5.49
0.48867	5.49
0.50533	5.49
0.52200	5.49
0.53867	5.49
0.55533	5.49
0.57200	5.49
0.58867	5.49
0.60533	5.49
0.62200	5.49
0.63867	5.49
0.65533	5.49
0.67200	5.49
0.68867	5.49
0.70533	5.49
0.72200	5.49
0.73867	5.49
0.75533	5.49
0.77200	5.49
0.78867	5.49
0.80533	5.49
0.82200	5.49
0.83867	5.49
0.85533	5.49
0.87200	5.49
0.88867	5.49
0.90533	5.49
0.92200	5.49
0.93867	5.49
0.95533	5.49
0.97200	5.49
0.98867	5.49
1.00533	5.49
1.02200	5.49
1.03867	5.49
1.05533	5.49
1.07200	5.49
1.08867	5.49
1.10533	5.49
1.12200	5.49
1.13867	5.49
1.15533	5.49
1.17200	5.49
1.18867	5.49
1.20533	5.49
1.22200	5.49
1.23867	5.49
1.25533	5.49
1.27200	5.49
1.28867	5.49
1.30533	5.49
1.32200	5.49
1.33867	5.49
1.35533	5.49
1.37200	5.49
1.38867	5.49
1.40533	5.49
1.42200	5.49
1.43867	5.49
1.45533	5.49
1.47200	5.49
1.48867	5.49
1.50533	5.49
1.52200	5.49
1.53867	5.49
1.55533	5.49
1.57200	5.49
1.58867	5.49
1.60533	5.49
1.62200	5.49
1.63867	5.48
1.65533	5.48
1.67200	5.47
1.68867	5.45
1.70533	5.44
1.72200	5.43
1.73867	5.42
1.75533	5.41
1.77200	5.40
1.78867	5.39
1.80533	5.38
1.82200	5.37
1.83867	5.36
1.85533	5.35
1.87200	5.34
1.88867	5.33
1.90533	5.32
1.92200	5.31
1.93867	5.30
1.95533	5.29
1.97200	5.28
1.98867	5.27
2.00533	5.26
2.02200	5.26
2.03867	5.25
2.05533	5.24
2.07200	5.23
2.08867	5.22
2.10533	5.21
2.12200	5.20
2.13867	5.19
2.15533	5.18
2.17200	5.17
2.18867	5.16
2.20533	5.15
2.22200	5.14
2.23867	5.13
2.25533	5.12
2.27200	5.11
2.28867	5.11
2.30533	5.10
2.32200	5.09
2.33867	5.08
2.35533	5.07
2.37200	5.06
2.38867	5.06
2.40533	5.06
2.42200	5.06
2.43867	5.06
2.45533	5.06
2.47200	5.06
2.48867	5.06
2.50533	5.06
2.52200	5.06
2.53867	5.06
2.55533	5.06
2.57200	5.06
2.58867	5.06
2.60533	5.06
2.62200	5.06
2.63867	5.06
2.65533	5.06
2.67200	5.06
2.68867	5.06
2.70533	5.06
2.72200	5.06
2.73867	5.06
2.75533	5.06
2.77200	5.06
2.78867	5.06
2.80533	5.06
2.82200	5.06
2.83867	5.05
2.85533	5.05
2.87200	5.05
2.88867	5.05
2.90533	5.05
2.92200	5.05
2.93867	5.05
2.95533	5.05
2.97200	5.05
2.98867	5.05
3.00533	5.05
3.02200	5.05
3.03867	5.05
3.05533	5.05
3.07200	5.05
3.08867	5.05
3.10533	5.05
3.12200	5.05
3.13867	5.05
3.15533	5.05
3.17200	5.05
3.18867	5.05
3.20533	5.05
3.22200	5.05
3.23867	5.05
3.25533	5.05
3.27200	5.05
3.28867	5.05
3.30533	5.05
3.32200	5.05
3.33867	5.05
3.35533	5.05
3.37200	5.05
3.38867	5.05
3.40533	5.05
3.42200	5.05
3.43867	5.05
3.45533	5.05
3.47200	5.05
3.48867	5.05
3.50533	5.05
3.52200	5.05
3.53867	5.05
3.55533	5.05
3.57200	5.05
3.58867	5.05
3.60533	5.05
3.62200	5.05
3.63867	5.05
3.65533	5.05
3.67200	5.05
3.68867	5.05
3.70533	5.05
3.72200	5.05
3.73867	5.05
3.75533	5.05
3.77200	5.05
3.78867	5.05
3.80533	5.05
3.82200	5.05
3.83867	5.05
3.85533	5.05
3.87200	5.05
3.88867	5.05
3.90533	5.05
3.92200	5.05
3.93867	5.05
3.95533	5.05
3.97200	5.05
3.98867	5.05

[Status Trace (Linear Velocity)]
Interval(msec)	1000
# of Points	240
Start Time(min)	0.005
End Time(min)	3.989
Intensity Units	
Intensity Multiplier	1
R.Time (min)	Intensity
0.00533	39.00
0.02200	37.58
0.03867	38.15
0.05533	39.61
0.07200	40.16
0.08867	39.12
0.10533	38.99
0.12200	39.01
0.13867	39.01
0.15533	39.01
0.17200	39.01
0.18867	39.01
0.20533	39.01
0.22200	39.01
0.23867	39.01
0.25533	39.01
0.27200	39.01
0.28867	39.01
0.30533	39.01
0.32200	39.01
0.33867	39.01
0.35533	39.01
0.37200	39.01
0.38867	39.01
0.40533	39.01
0.42200	39.01
0.43867	39.01
0.45533	39.01
0.47200	39.01
0.48867	39.01
0.50533	39.01
0.52200	39.01
0.53867	39.01
0.55533	39.01
0.57200	39.01
0.58867	39.01
0.60533	39.01
0.62200	39.01
0.63867	39.01
0.65533	39.01
0.67200	39.01
0.68867	39.01
0.70533	39.01
0.72200	39.01
0.73867	39.01
0.75533	39.01
0.77200	39.01
0.78867	39.01
0.80533	39.01
0.82200	39.01
0.83867	39.01
0.85533	39.01
0.87200	39.01
0.88867	39.01
0.90533	39.01
0.92200	39.01
0.93867	39.01
0.95533	39.01
0.97200	39.01
0.98867	39.01
1.00533	39.01
1.02200	39.01
1.03867	39.01
1.05533	39.01
1.07200	39.01
1.08867	39.01
1.10533	39.01
1.12200	39.01
1.13867	39.01
1.15533	39.01
1.17200	39.01
1.18867	39.01
1.20533	39.01
1.22200	39.01
1.23867	39.01
1.25533	39.01
1.27200	39.01
1.28867	39.01
1.30533	39.01
1.32200	39.01
1.33867	39.01
1.35533	39.01
1.37200	39.01
1.38867	39.01
1.40533	39.01
1.42200	39.01
1.43867	39.01
1.45533	39.01
1.47200	39.01
1.48867	39.01
1.50533	39.01
1.52200	39.01
1.53867	39.01
1.55533	39.01
1.57200	39.01
1.58867	39.01
1.60533	39.01
1.62200	39.00
1.63867	38.98
1.65533	38.96
1.67200	38.93
1.68867	38.89
1.70533	38.86
1.72200	38.82
1.73867	38.79
1.75533	38.76
1.77200	38.73
1.78867	38.70
1.80533	38.66
1.82200	38.64
1.83867	38.60
1.85533	38.57
1.87200	38.54
1.88867	38.51
1.90533	38.48
1.92200	38.45
1.93867	38.42
1.95533	38.39
1.97200	38.36
1.98867	38.33
2.00533	38.30
2.02200	38.27
2.03867	38.24
2.05533	38.21
2.07200	38.18
2.08867	38.15
2.10533	38.12
2.12200	38.09
2.13867	38.06
2.15533	38.03
2.17200	38.00
2.18867	37.97
2.20533	37.94
2.22200	37.91
2.23867	37.88
2.25533	37.85
2.27200	37.83
2.28867	37.79
2.30533	37.76
2.32200	37.73
2.33867	37.70
2.35533	37.68
2.37200	37.66
2.38867	37.65
2.40533	37.65
2.42200	37.65
2.43867	37.65
2.45533	37.65
2.47200	37.65
2.48867	37.65
2.50533	37.64
2.52200	37.64
2.53867	37.65
2.55533	37.65
2.57200	37.65
2.58867	37.64
2.60533	37.64
2.62200	37.64
2.63867	37.64
2.65533	37.64
2.67200	37.64
2.68867	37.64
2.70533	37.64
2.72200	37.64
2.73867	37.64
2.75533	37.64
2.77200	37.64
2.78867	37.64
2.80533	37.64
2.82200	37.64
2.83867	37.63
2.85533	37.63
2.87200	37.63
2.88867	37.63
2.90533	37.63
2.92200	37.63
2.93867	37.63
2.95533	37.63
2.97200	37.63
2.98867	37.63
3.00533	37.63
3.02200	37.63
3.03867	37.63
3.05533	37.63
3.07200	37.62
3.08867	37.62
3.10533	37.62
3.12200	37.62
3.13867	37.62
3.15533	37.62
3.17200	37.62
3.18867	37.62
3.20533	37.62
3.22200	37.62
3.23867	37.62
3.25533	37.62
3.27200	37.62
3.28867	37.62
3.30533	37.62
3.32200	37.62
3.33867	37.62
3.35533	37.62
3.37200	37.62
3.38867	37.62
3.40533	37.62
3.42200	37.62
3.43867	37.62
3.45533	37.62
3.47200	37.62
3.48867	37.62
3.50533	37.62
3.52200	37.62
3.53867	37.62
3.55533	37.62
3.57200	37.62
3.58867	37.62
3.60533	37.62
3.62200	37.62
3.63867	37.62
3.65533	37.62
3.67200	37.62
3.68867	37.62
3.70533	37.62
3.72200	37.62
3.73867	37.62
3.75533	37.62
3.77200	37.62
3.78867	37.62
3.80533	37.62
3.82200	37.62
3.83867	37.62
3.85533	37.62
3.87200	37.62
3.88867	37.62
3.90533	37.62
3.92200	37.62
3.93867	37.62
3.95533	37.62
3.97200	37.62
3.98867	37.62

