[Header]
Application Name	LabSolutions
Version	5.110
Data File Name	C:\Users\User\Desktop\Junior\UIC Prairie Sampling\2023\8.2.23\080223_054.gcd
Output Date	8/31/2023
Output Time	12:43:09 PM

[File Information]
Type	Data File
Generated	8/29/2023 9:52:56 PM
Generated by	System Administrator
Modified	8/29/2023 9:59:34 PM
Modified by	System Administrator

[Sample Information]
Operator Name	System Administrator
Acquired	8/29/2023 9:55:33 PM
Sample Type	0:Unknown
Level	0
Sample Name	054
Sample ID	054
ISTD Amount1	1
ISTD Amount2	1
ISTD Amount3	1
ISTD Amount4	1
ISTD Amount5	1
ISTD Amount6	1
ISTD Amount7	1
ISTD Amount8	1
ISTD Amount9	1
ISTD Amount10	1
ISTD Amount11	1
ISTD Amount12	1
ISTD Amount13	1
ISTD Amount14	1
ISTD Amount15	1
ISTD Amount16	1
ISTD Amount17	1
ISTD Amount18	1
ISTD Amount19	1
ISTD Amount20	1
ISTD Amount21	1
ISTD Amount22	1
ISTD Amount23	1
ISTD Amount24	1
ISTD Amount25	1
ISTD Amount26	1
ISTD Amount27	1
ISTD Amount28	1
ISTD Amount29	1
ISTD Amount30	1
ISTD Amount31	1
ISTD Amount32	1
Sample Amount	1
Dilution Factor	1
Vial#	53
Injection Volume	1
Injection Count	1
Bar Code	

[Original Files]
Data File	C:\Users\User\Desktop\Junior\UIC Prairie Sampling\8.2.23\080223_054.gcd
Method File	C:\LabSolutions\Data\GHG_4min_2022\ghg3_togas_w_acet_4 min_new_int.gcm
Batch File	C:\LabSolutions\Data\BATCH FILES\080223.gcb
Report Format File	c:\LabSolutions\System\DEFAULT.lsr

[File Description]


[Configuration]
Instrument Name	C0B7VH3-Instrument1
Instrument #	1
Line #	1
# of Detectors	3
Detector ID	DET#1	DET#2	DET#3
Detector Name	FID	PTCD	ECD
# of Channels	1	1	1

[Peak Table(Ch1)]
# of Peaks	4
Peak#	R.Time	I.Time	F.Time	Area	Height	A/H	Conc.	Mark	ID#	Name	k'	Plate #	Plate Ht.	Tailing	Resolution	Sep.Factor	Area Ratio	Height Ratio	Conc. %	Norm Conc.
1	0.299	0.181	0.420	1192	160	7.457	0.000	   			0.000	39	3850.185	1.096	0.000	0.000	0	0	0.000	0.000
2	1.472	1.432	1.531	8889	4424	2.009	0.000	   	1	CO	3.929	10016	14.976	1.295	9.378	0.000	0	0	0.000	0.000
3	1.564	1.531	1.619	4170	2158	1.932	20.330	 V 	2	CH4	4.235	11887	12.618	1.110	1.578	1.078	0	0	5.838	5.838
4	1.989	1.934	2.587	1701386	819500	2.076	327.888	   	3	CO2	5.660	17622	8.512	1.295	7.252	1.336	0	0	94.162	94.162

[Peak Table(Ch2)]
# of Peaks	0

[Peak Table(Ch3)]
# of Peaks	5
Peak#	R.Time	I.Time	F.Time	Area	Height	A/H	Conc.	Mark	ID#	Name	k'	Plate #	Plate Ht.	Tailing	Resolution	Sep.Factor	Area Ratio	Height Ratio	Conc. %	Norm Conc.
1	2.458	2.440	2.510	695	264	2.629	0.000	   			0.000	15109	9.928	0.000	0.000	0.000	0	0	0.000	0.000
2	2.521	2.510	2.568	261	116	2.250	0.000	 V 			0.025	4829	31.065	0.000	0.554	0.000	0	0	0.000	0.000
3	2.627	2.568	2.689	390	99	3.956	0.000	 V 			0.069	8551	17.541	0.000	0.822	2.706	0	0	0.000	0.000
4	2.891	2.759	3.316	29808	3877	7.688	0.441	   	1	N2O	0.176	12199	12.296	0.000	2.418	2.565	0	0	100.000	100.000
5	3.393	3.316	3.870	8467	534	15.848	0.000	 V 			0.380	389	385.385	0.000	1.267	2.161	0	0	0.000	0.000

[Compound Results(Ch1)]
# of IDs	6
ID#	Name	R.Time	Area	Height	Conc.	Curve	3rd	2nd	1st	Constant	Area Ratio	Height Ratio	Conc. %	Norm Conc.
1	CO	1.472	8889	4424	0.000	Linear	0.000000e+00	0.000000e+00	0.000000e+00	0.000000e+00	0	0	0.000	0.000
2	CH4	1.564	4170	2158	20.330	Linear	0.000000e+00	0.000000e+00	2.051179e+002	0.000000e+00	0	0	5.838	5.838
3	CO2	1.989	1701386	819500	327.888	Linear	0.000000e+00	0.000000e+00	5.188919e+003	0.000000e+00	0	0	94.162	94.162
4	Ethylene	0.000	0	0	0.000	Linear	0.000000e+00	0.000000e+00	0.000000e+00	0.000000e+00	0	0	0.000	0.000
5	Acetylene	0.000	0	0	0.000	Linear	0.000000e+00	0.000000e+00	0.000000e+00	0.000000e+00	0	0	0.000	0.000
6	Ethane	0.000	0	0	0.000	Linear	0.000000e+00	0.000000e+00	0.000000e+00	0.000000e+00	0	0	0.000	0.000

[Compound Results(Ch2)]
# of IDs	5
ID#	Name	R.Time	Area	Height	Conc.	Curve	3rd	2nd	1st	Constant	Area Ratio	Height Ratio	Conc. %	Norm Conc.
1	Hydrogen	0.000	0	0	0.000	Linear	0.000000e+00	0.000000e+00	0.000000e+00	0.000000e+00	0	0	0.000	0.000
2	Oxygen	0.000	0	0	0.000	Linear	0.000000e+00	0.000000e+00	0.000000e+00	0.000000e+00	0	0	0.000	0.000
3	Nitrogen	0.000	0	0	0.000	Linear	0.000000e+00	0.000000e+00	0.000000e+00	0.000000e+00	0	0	0.000	0.000
4	Methane	0.000	0	0	0.000	Linear	0.000000e+00	0.000000e+00	0.000000e+00	0.000000e+00	0	0	0.000	0.000
5	Carbon Monoxide	0.000	0	0	0.000	Linear	0.000000e+00	0.000000e+00	0.000000e+00	0.000000e+00	0	0	0.000	0.000

[Compound Results(Ch3)]
# of IDs	2
ID#	Name	R.Time	Area	Height	Conc.	Curve	3rd	2nd	1st	Constant	Area Ratio	Height Ratio	Conc. %	Norm Conc.
1	N2O	2.891	29808	3877	0.441	Linear	0.000000e+00	0.000000e+00	6.759880e+004	0.000000e+00	0	0	100.000	100.000
2	SF6	0.000	0	0	0.000	Linear	0.000000e+00	0.000000e+00	0.000000e+00	0.000000e+00	0	0	0.000	0.000

[Group Results(Ch1)]
# of Groups	0

[Group Results(Ch2)]
# of Groups	0

[Group Results(Ch3)]
# of Groups	0

[Chromatogram (Ch1)]
Interval(msec)	220
# of Points	1091
Start Time(min)	0.002
End Time(min)	3.998
R.Time (min)	Intensity
0.00167	-6
0.00533	-9
0.00900	-10
0.01267	-9
0.01633	-8
0.02000	-11
0.02367	-16
0.02733	-21
0.03100	-23
0.03467	-21
0.03833	-20
0.04200	-22
0.04567	-26
0.04933	-28
0.05300	-28
0.05667	-25
0.06033	-21
0.06400	-17
0.06767	-14
0.07133	-13
0.07500	-13
0.07867	-10
0.08233	-8
0.08600	-5
0.08967	-2
0.09333	-0
0.09700	1
0.10067	1
0.10433	-2
0.10800	-4
0.11167	-6
0.11533	-9
0.11900	-10
0.12267	-10
0.12633	-7
0.13000	0
0.13367	8
0.13733	11
0.14100	12
0.14467	10
0.14833	6
0.15200	0
0.15567	-5
0.15933	-6
0.16300	-4
0.16667	-2
0.17033	-2
0.17400	-1
0.17767	-1
0.18133	1
0.18500	5
0.18867	7
0.19233	9
0.19600	9
0.19967	8
0.20333	9
0.20700	13
0.21067	17
0.21433	21
0.21800	26
0.22167	36
0.22533	50
0.22900	65
0.23267	79
0.23633	93
0.24000	99
0.24367	102
0.24733	105
0.25100	105
0.25467	105
0.25833	109
0.26200	117
0.26567	125
0.26933	131
0.27300	136
0.27667	143
0.28033	149
0.28400	153
0.28767	157
0.29133	161
0.29500	163
0.29867	164
0.30233	162
0.30600	159
0.30967	159
0.31333	159
0.31700	159
0.32067	159
0.32433	155
0.32800	149
0.33167	141
0.33533	135
0.33900	130
0.34267	125
0.34633	121
0.35000	114
0.35367	105
0.35733	95
0.36100	89
0.36467	84
0.36833	76
0.37200	68
0.37567	62
0.37933	59
0.38300	57
0.38667	54
0.39033	49
0.39400	45
0.39767	41
0.40133	35
0.40500	28
0.40867	19
0.41233	14
0.41600	10
0.41967	7
0.42333	3
0.42700	-1
0.43067	-3
0.43433	-5
0.43800	-6
0.44167	-6
0.44533	-6
0.44900	-6
0.45267	-4
0.45633	2
0.46000	8
0.46367	11
0.46733	9
0.47100	5
0.47467	-1
0.47833	-5
0.48200	-8
0.48567	-13
0.48933	-17
0.49300	-20
0.49667	-20
0.50033	-18
0.50400	-17
0.50767	-17
0.51133	-15
0.51500	-13
0.51867	-10
0.52233	-8
0.52600	-8
0.52967	-9
0.53333	-12
0.53700	-10
0.54067	-7
0.54433	-3
0.54800	2
0.55167	7
0.55533	10
0.55900	11
0.56267	10
0.56633	8
0.57000	2
0.57367	-3
0.57733	-6
0.58100	-6
0.58467	-5
0.58833	-3
0.59200	-1
0.59567	4
0.59933	7
0.60300	7
0.60667	4
0.61033	2
0.61400	-0
0.61767	-2
0.62133	-3
0.62500	-6
0.62867	-10
0.63233	-14
0.63600	-17
0.63967	-17
0.64333	-12
0.64700	-6
0.65067	-2
0.65433	1
0.65800	3
0.66167	2
0.66533	0
0.66900	-4
0.67267	-8
0.67633	-9
0.68000	-10
0.68367	-12
0.68733	-14
0.69100	-13
0.69467	-13
0.69833	-10
0.70200	-7
0.70567	-4
0.70933	-2
0.71300	0
0.71667	2
0.72033	2
0.72400	-3
0.72767	-10
0.73133	-14
0.73500	-11
0.73867	-8
0.74233	-7
0.74600	-6
0.74967	-6
0.75333	-2
0.75700	1
0.76067	3
0.76433	4
0.76800	5
0.77167	4
0.77533	3
0.77900	2
0.78267	-1
0.78633	-2
0.79000	-3
0.79367	-5
0.79733	-6
0.80100	-6
0.80467	-5
0.80833	-4
0.81200	-6
0.81567	-12
0.81933	-18
0.82300	-21
0.82667	-20
0.83033	-17
0.83400	-13
0.83767	-10
0.84133	-11
0.84500	-13
0.84867	-11
0.85233	-6
0.85600	-2
0.85967	1
0.86333	2
0.86700	-1
0.87067	-8
0.87433	-18
0.87800	-25
0.88167	-26
0.88533	-24
0.88900	-23
0.89267	-25
0.89633	-26
0.90000	-25
0.90367	-22
0.90733	-19
0.91100	-16
0.91467	-10
0.91833	-5
0.92200	-3
0.92567	-3
0.92933	-2
0.93300	-0
0.93667	-0
0.94033	-0
0.94400	-0
0.94767	-3
0.95133	-9
0.95500	-16
0.95867	-21
0.96233	-22
0.96600	-22
0.96967	-22
0.97333	-21
0.97700	-19
0.98067	-16
0.98433	-10
0.98800	-6
0.99167	-4
0.99533	-2
0.99900	-1
1.00267	-2
1.00633	-5
1.01000	-6
1.01367	-5
1.01733	-6
1.02100	-8
1.02467	-10
1.02833	-10
1.03200	-9
1.03567	-8
1.03933	-8
1.04300	-7
1.04667	-7
1.05033	-10
1.05400	-15
1.05767	-19
1.06133	-22
1.06500	-20
1.06867	-16
1.07233	-13
1.07600	-14
1.07967	-16
1.08333	-18
1.08700	-16
1.09067	-10
1.09433	-6
1.09800	-5
1.10167	-5
1.10533	-8
1.10900	-15
1.11267	-21
1.11633	-25
1.12000	-26
1.12367	-26
1.12733	-24
1.13100	-22
1.13467	-23
1.13833	-30
1.14200	-40
1.14567	-44
1.14933	-43
1.15300	-38
1.15667	-36
1.16033	-36
1.16400	-33
1.16767	-28
1.17133	-25
1.17500	-26
1.17867	-27
1.18233	-25
1.18600	-20
1.18967	-15
1.19333	-11
1.19700	-10
1.20067	-9
1.20433	-10
1.20800	-13
1.21167	-13
1.21533	-11
1.21900	-13
1.22267	-15
1.22633	-17
1.23000	-19
1.23367	-23
1.23733	-26
1.24100	-27
1.24467	-26
1.24833	-22
1.25200	-18
1.25567	-18
1.25933	-21
1.26300	-28
1.26667	-32
1.27033	-32
1.27400	-34
1.27767	-36
1.28133	-34
1.28500	-29
1.28867	-25
1.29233	-21
1.29600	-17
1.29967	-11
1.30333	-6
1.30700	-5
1.31067	-5
1.31433	-6
1.31800	-7
1.32167	-10
1.32533	-13
1.32900	-17
1.33267	-20
1.33633	-21
1.34000	-21
1.34367	-20
1.34733	-19
1.35100	-19
1.35467	-22
1.35833	-26
1.36200	-30
1.36567	-33
1.36933	-34
1.37300	-32
1.37667	-27
1.38033	-23
1.38400	-18
1.38767	-13
1.39133	-12
1.39500	-14
1.39867	-15
1.40233	-15
1.40600	-18
1.40967	-20
1.41333	-19
1.41700	-21
1.42067	-26
1.42433	-29
1.42800	-28
1.43167	-23
1.43533	-10
1.43900	11
1.44267	51
1.44633	231
1.45000	729
1.45367	1528
1.45733	2427
1.46100	3244
1.46467	3885
1.46833	4294
1.47200	4408
1.47567	4192
1.47933	3689
1.48300	3021
1.48667	2330
1.49033	1721
1.49400	1238
1.49767	878
1.50133	619
1.50500	438
1.50867	315
1.51233	233
1.51600	176
1.51967	136
1.52333	105
1.52700	79
1.53067	62
1.53433	80
1.53800	192
1.54167	448
1.54533	833
1.54900	1260
1.55267	1648
1.55633	1947
1.56000	2127
1.56367	2155
1.56733	2012
1.57100	1725
1.57467	1366
1.57833	1010
1.58200	710
1.58567	480
1.58933	315
1.59300	204
1.59667	133
1.60033	89
1.60400	60
1.60767	39
1.61133	24
1.61500	12
1.61867	4
1.62233	2
1.62600	3
1.62967	1
1.63333	-4
1.63700	-8
1.64067	-10
1.64433	-8
1.64800	-5
1.65167	-6
1.65533	-10
1.65900	-19
1.66267	-30
1.66633	-37
1.67000	-43
1.67367	-49
1.67733	-53
1.68100	-53
1.68467	-51
1.68833	-46
1.69200	-40
1.69567	-33
1.69933	-27
1.70300	-25
1.70667	-24
1.71033	-22
1.71400	-24
1.71767	-27
1.72133	-26
1.72500	-24
1.72867	-23
1.73233	-24
1.73600	-26
1.73967	-28
1.74333	-33
1.74700	-37
1.75067	-38
1.75433	-37
1.75800	-36
1.76167	-34
1.76533	-37
1.76900	-42
1.77267	-44
1.77633	-43
1.78000	-41
1.78367	-40
1.78733	-39
1.79100	-36
1.79467	-30
1.79833	-26
1.80200	-26
1.80567	-26
1.80933	-25
1.81300	-24
1.81667	-22
1.82033	-22
1.82400	-26
1.82767	-29
1.83133	-31
1.83500	-34
1.83867	-35
1.84233	-33
1.84600	-31
1.84967	-27
1.85333	-25
1.85700	-26
1.86067	-28
1.86433	-28
1.86800	-27
1.87167	-25
1.87533	-26
1.87900	-27
1.88267	-25
1.88633	-20
1.89000	-15
1.89367	-15
1.89733	-19
1.90100	-25
1.90467	-31
1.90833	-33
1.91200	-32
1.91567	-33
1.91933	-34
1.92300	-35
1.92667	-33
1.93033	-30
1.93400	-26
1.93767	-21
1.94133	-14
1.94500	8
1.94867	125
1.95233	819
1.95600	4145
1.95967	16088
1.96333	48754
1.96700	117573
1.97067	230702
1.97433	378977
1.97800	537951
1.98167	678587
1.98533	777306
1.98900	819503
1.99267	800852
1.99633	728492
2.00000	619678
2.00367	496428
2.00733	378156
2.01100	276999
2.01467	197386
2.01833	138365
2.02200	96410
2.02567	67409
2.02933	47702
2.03300	34419
2.03667	25475
2.04033	19421
2.04400	15272
2.04767	12381
2.05133	10322
2.05500	8821
2.05867	7694
2.06233	6824
2.06600	6135
2.06967	5577
2.07333	5115
2.07700	4728
2.08067	4399
2.08433	4113
2.08800	3865
2.09167	3651
2.09533	3461
2.09900	3290
2.10267	3135
2.10633	2991
2.11000	2856
2.11367	2731
2.11733	2616
2.12100	2511
2.12467	2414
2.12833	2319
2.13200	2222
2.13567	2132
2.13933	2051
2.14300	1980
2.14667	1916
2.15033	1857
2.15400	1802
2.15767	1752
2.16133	1708
2.16500	1666
2.16867	1618
2.17233	1568
2.17600	1520
2.17967	1475
2.18333	1436
2.18700	1397
2.19067	1355
2.19433	1314
2.19800	1277
2.20167	1244
2.20533	1214
2.20900	1183
2.21267	1153
2.21633	1126
2.22000	1102
2.22367	1078
2.22733	1055
2.23100	1034
2.23467	1016
2.23833	1001
2.24200	986
2.24567	970
2.24933	950
2.25300	927
2.25667	907
2.26033	888
2.26400	868
2.26767	850
2.27133	835
2.27500	822
2.27867	811
2.28233	799
2.28600	785
2.28967	769
2.29333	751
2.29700	735
2.30067	725
2.30433	715
2.30800	704
2.31167	693
2.31533	684
2.31900	675
2.32267	660
2.32633	643
2.33000	627
2.33367	614
2.33733	602
2.34100	591
2.34467	583
2.34833	578
2.35200	576
2.35567	575
2.35933	575
2.36300	573
2.36667	567
2.37033	557
2.37400	549
2.37767	542
2.38133	536
2.38500	527
2.38867	517
2.39233	511
2.39600	502
2.39967	492
2.40333	484
2.40700	479
2.41067	475
2.41433	473
2.41800	473
2.42167	470
2.42533	464
2.42900	456
2.43267	452
2.43633	448
2.44000	441
2.44367	432
2.44733	420
2.45100	413
2.45467	409
2.45833	405
2.46200	403
2.46567	402
2.46933	398
2.47300	392
2.47667	385
2.48033	380
2.48400	381
2.48767	382
2.49133	380
2.49500	375
2.49867	368
2.50233	362
2.50600	358
2.50967	357
2.51333	357
2.51700	354
2.52067	351
2.52433	350
2.52800	348
2.53167	344
2.53533	343
2.53900	344
2.54267	341
2.54633	335
2.55000	329
2.55367	326
2.55733	325
2.56100	323
2.56467	320
2.56833	318
2.57200	317
2.57567	315
2.57933	313
2.58300	311
2.58667	309
2.59033	309
2.59400	309
2.59767	309
2.60133	307
2.60500	303
2.60867	297
2.61233	289
2.61600	283
2.61967	276
2.62333	271
2.62700	271
2.63067	272
2.63433	274
2.63800	277
2.64167	277
2.64533	275
2.64900	273
2.65267	272
2.65633	270
2.66000	266
2.66367	261
2.66733	258
2.67100	258
2.67467	260
2.67833	262
2.68200	262
2.68567	260
2.68933	254
2.69300	248
2.69667	242
2.70033	240
2.70400	238
2.70767	239
2.71133	238
2.71500	240
2.71867	241
2.72233	240
2.72600	237
2.72967	233
2.73333	230
2.73700	229
2.74067	231
2.74433	234
2.74800	236
2.75167	235
2.75533	234
2.75900	232
2.76267	230
2.76633	229
2.77000	227
2.77367	224
2.77733	222
2.78100	219
2.78467	216
2.78833	213
2.79200	213
2.79567	213
2.79933	211
2.80300	209
2.80667	208
2.81033	210
2.81400	212
2.81767	215
2.82133	220
2.82500	227
2.82867	233
2.83233	234
2.83600	230
2.83967	228
2.84333	226
2.84700	225
2.85067	225
2.85433	223
2.85800	220
2.86167	219
2.86533	218
2.86900	221
2.87267	224
2.87633	229
2.88000	232
2.88367	231
2.88733	225
2.89100	215
2.89467	205
2.89833	196
2.90200	191
2.90567	186
2.90933	181
2.91300	180
2.91667	182
2.92033	187
2.92400	190
2.92767	191
2.93133	193
2.93500	192
2.93867	189
2.94233	185
2.94600	180
2.94967	178
2.95333	180
2.95700	185
2.96067	189
2.96433	191
2.96800	190
2.97167	188
2.97533	187
2.97900	187
2.98267	188
2.98633	188
2.99000	188
2.99367	189
2.99733	187
3.00100	184
3.00467	181
3.00833	176
3.01200	173
3.01567	173
3.01933	173
3.02300	170
3.02667	167
3.03033	163
3.03400	159
3.03767	160
3.04133	162
3.04500	160
3.04867	157
3.05233	159
3.05600	160
3.05967	158
3.06333	157
3.06700	159
3.07067	163
3.07433	167
3.07800	171
3.08167	173
3.08533	174
3.08900	171
3.09267	169
3.09633	168
3.10000	169
3.10367	169
3.10733	164
3.11100	158
3.11467	152
3.11833	149
3.12200	152
3.12567	157
3.12933	159
3.13300	159
3.13667	157
3.14033	152
3.14400	149
3.14767	150
3.15133	151
3.15500	150
3.15867	147
3.16233	142
3.16600	139
3.16967	136
3.17333	135
3.17700	133
3.18067	132
3.18433	133
3.18800	137
3.19167	142
3.19533	144
3.19900	147
3.20267	148
3.20633	150
3.21000	150
3.21367	147
3.21733	144
3.22100	142
3.22467	140
3.22833	136
3.23200	131
3.23567	127
3.23933	126
3.24300	129
3.24667	133
3.25033	134
3.25400	133
3.25767	131
3.26133	128
3.26500	127
3.26867	126
3.27233	124
3.27600	119
3.27967	116
3.28333	116
3.28700	117
3.29067	118
3.29433	120
3.29800	122
3.30167	128
3.30533	134
3.30900	139
3.31267	143
3.31633	143
3.32000	142
3.32367	142
3.32733	137
3.33100	131
3.33467	126
3.33833	124
3.34200	122
3.34567	120
3.34933	117
3.35300	116
3.35667	113
3.36033	109
3.36400	106
3.36767	104
3.37133	104
3.37500	105
3.37867	106
3.38233	109
3.38600	110
3.38967	106
3.39333	103
3.39700	101
3.40067	101
3.40433	104
3.40800	108
3.41167	113
3.41533	116
3.41900	116
3.42267	113
3.42633	109
3.43000	107
3.43367	110
3.43733	114
3.44100	116
3.44467	117
3.44833	113
3.45200	107
3.45567	101
3.45933	97
3.46300	99
3.46667	103
3.47033	107
3.47400	108
3.47767	109
3.48133	107
3.48500	105
3.48867	104
3.49233	103
3.49600	101
3.49967	101
3.50333	103
3.50700	103
3.51067	97
3.51433	88
3.51800	81
3.52167	80
3.52533	83
3.52900	87
3.53267	89
3.53633	92
3.54000	95
3.54367	94
3.54733	90
3.55100	87
3.55467	87
3.55833	87
3.56200	87
3.56567	91
3.56933	94
3.57300	97
3.57667	100
3.58033	101
3.58400	99
3.58767	98
3.59133	96
3.59500	94
3.59867	95
3.60233	97
3.60600	96
3.60967	92
3.61333	88
3.61700	84
3.62067	80
3.62433	77
3.62800	74
3.63167	71
3.63533	69
3.63900	71
3.64267	76
3.64633	78
3.65000	79
3.65367	81
3.65733	85
3.66100	88
3.66467	89
3.66833	89
3.67200	88
3.67567	87
3.67933	86
3.68300	85
3.68667	83
3.69033	81
3.69400	79
3.69767	77
3.70133	75
3.70500	77
3.70867	82
3.71233	85
3.71600	87
3.71967	87
3.72333	83
3.72700	82
3.73067	86
3.73433	89
3.73800	90
3.74167	91
3.74533	91
3.74900	89
3.75267	85
3.75633	81
3.76000	76
3.76367	73
3.76733	72
3.77100	73
3.77467	73
3.77833	73
3.78200	72
3.78567	70
3.78933	70
3.79300	73
3.79667	78
3.80033	81
3.80400	80
3.80767	76
3.81133	69
3.81500	64
3.81867	61
3.82233	58
3.82600	57
3.82967	60
3.83333	63
3.83700	65
3.84067	64
3.84433	59
3.84800	48
3.85167	39
3.85533	35
3.85900	40
3.86267	49
3.86633	58
3.87000	66
3.87367	71
3.87733	74
3.88100	75
3.88467	74
3.88833	71
3.89200	67
3.89567	64
3.89933	59
3.90300	54
3.90667	51
3.91033	52
3.91400	53
3.91767	56
3.92133	60
3.92500	63
3.92867	64
3.93233	63
3.93600	60
3.93967	57
3.94333	55
3.94700	55
3.95067	56
3.95433	56
3.95800	58
3.96167	58
3.96533	58
3.96900	57
3.97267	55
3.97633	54
3.98000	52
3.98367	48
3.98733	44
3.99100	41
3.99467	38
3.99833	36

[Chromatogram (Ch2)]
Interval(msec)	220
# of Points	1091
Start Time(min)	0.002
End Time(min)	3.998
R.Time (min)	Intensity
0.00167	-0
0.00533	-0
0.00900	-0
0.01267	-0
0.01633	0
0.02000	0
0.02367	1
0.02733	1
0.03100	1
0.03467	1
0.03833	1
0.04200	1
0.04567	1
0.04933	1
0.05300	1
0.05667	1
0.06033	1
0.06400	1
0.06767	1
0.07133	1
0.07500	1
0.07867	1
0.08233	2
0.08600	2
0.08967	2
0.09333	2
0.09700	3
0.10067	3
0.10433	3
0.10800	3
0.11167	3
0.11533	3
0.11900	3
0.12267	3
0.12633	3
0.13000	2
0.13367	3
0.13733	3
0.14100	3
0.14467	3
0.14833	3
0.15200	3
0.15567	3
0.15933	2
0.16300	2
0.16667	2
0.17033	2
0.17400	2
0.17767	2
0.18133	2
0.18500	2
0.18867	2
0.19233	2
0.19600	2
0.19967	2
0.20333	1
0.20700	1
0.21067	1
0.21433	1
0.21800	1
0.22167	1
0.22533	1
0.22900	1
0.23267	1
0.23633	1
0.24000	1
0.24367	1
0.24733	1
0.25100	0
0.25467	0
0.25833	0
0.26200	1
0.26567	1
0.26933	1
0.27300	1
0.27667	1
0.28033	1
0.28400	1
0.28767	2
0.29133	2
0.29500	2
0.29867	2
0.30233	2
0.30600	2
0.30967	2
0.31333	2
0.31700	2
0.32067	2
0.32433	2
0.32800	3
0.33167	3
0.33533	3
0.33900	3
0.34267	2
0.34633	2
0.35000	2
0.35367	2
0.35733	2
0.36100	2
0.36467	2
0.36833	2
0.37200	2
0.37567	2
0.37933	2
0.38300	3
0.38667	3
0.39033	3
0.39400	3
0.39767	2
0.40133	2
0.40500	2
0.40867	2
0.41233	2
0.41600	2
0.41967	2
0.42333	2
0.42700	2
0.43067	2
0.43433	2
0.43800	1
0.44167	1
0.44533	1
0.44900	1
0.45267	0
0.45633	0
0.46000	0
0.46367	0
0.46733	0
0.47100	0
0.47467	-0
0.47833	-0
0.48200	-0
0.48567	-0
0.48933	-1
0.49300	-1
0.49667	-1
0.50033	-1
0.50400	-1
0.50767	-0
0.51133	-0
0.51500	-0
0.51867	-0
0.52233	0
0.52600	0
0.52967	0
0.53333	0
0.53700	1
0.54067	1
0.54433	1
0.54800	1
0.55167	1
0.55533	1
0.55900	1
0.56267	2
0.56633	2
0.57000	2
0.57367	2
0.57733	2
0.58100	2
0.58467	2
0.58833	2
0.59200	1
0.59567	1
0.59933	1
0.60300	1
0.60667	1
0.61033	0
0.61400	0
0.61767	0
0.62133	-0
0.62500	0
0.62867	0
0.63233	1
0.63600	1
0.63967	1
0.64333	1
0.64700	1
0.65067	1
0.65433	1
0.65800	1
0.66167	1
0.66533	1
0.66900	1
0.67267	1
0.67633	1
0.68000	1
0.68367	1
0.68733	1
0.69100	1
0.69467	1
0.69833	1
0.70200	2
0.70567	2
0.70933	2
0.71300	2
0.71667	2
0.72033	2
0.72400	2
0.72767	2
0.73133	2
0.73500	2
0.73867	2
0.74233	2
0.74600	1
0.74967	1
0.75333	1
0.75700	1
0.76067	1
0.76433	1
0.76800	1
0.77167	0
0.77533	0
0.77900	0
0.78267	0
0.78633	1
0.79000	1
0.79367	1
0.79733	1
0.80100	1
0.80467	1
0.80833	1
0.81200	1
0.81567	1
0.81933	0
0.82300	0
0.82667	0
0.83033	0
0.83400	0
0.83767	0
0.84133	0
0.84500	0
0.84867	0
0.85233	0
0.85600	0
0.85967	0
0.86333	0
0.86700	0
0.87067	0
0.87433	0
0.87800	0
0.88167	0
0.88533	0
0.88900	0
0.89267	0
0.89633	0
0.90000	0
0.90367	0
0.90733	0
0.91100	0
0.91467	0
0.91833	0
0.92200	-0
0.92567	-0
0.92933	-0
0.93300	-0
0.93667	0
0.94033	0
0.94400	0
0.94767	-0
0.95133	-0
0.95500	-0
0.95867	-0
0.96233	-0
0.96600	-1
0.96967	-1
0.97333	-1
0.97700	-1
0.98067	-1
0.98433	-1
0.98800	-1
0.99167	-1
0.99533	-1
0.99900	-1
1.00267	-1
1.00633	-1
1.01000	-1
1.01367	-1
1.01733	-1
1.02100	-1
1.02467	-1
1.02833	-1
1.03200	-1
1.03567	-1
1.03933	-1
1.04300	-1
1.04667	-1
1.05033	-1
1.05400	-1
1.05767	-1
1.06133	-1
1.06500	-1
1.06867	-1
1.07233	-1
1.07600	-1
1.07967	-1
1.08333	-0
1.08700	-0
1.09067	-0
1.09433	-0
1.09800	-1
1.10167	-1
1.10533	-1
1.10900	-2
1.11267	-2
1.11633	-2
1.12000	-2
1.12367	-2
1.12733	-2
1.13100	-2
1.13467	-2
1.13833	-2
1.14200	-1
1.14567	-1
1.14933	-1
1.15300	-1
1.15667	-1
1.16033	-1
1.16400	-1
1.16767	-1
1.17133	-1
1.17500	-1
1.17867	-1
1.18233	-1
1.18600	-1
1.18967	-1
1.19333	-1
1.19700	-1
1.20067	-1
1.20433	-1
1.20800	-1
1.21167	-1
1.21533	-1
1.21900	-1
1.22267	-1
1.22633	-1
1.23000	-1
1.23367	-1
1.23733	-1
1.24100	-1
1.24467	-1
1.24833	-1
1.25200	-1
1.25567	-0
1.25933	-0
1.26300	-1
1.26667	-1
1.27033	-1
1.27400	-1
1.27767	-1
1.28133	-1
1.28500	-1
1.28867	-1
1.29233	-1
1.29600	-1
1.29967	-1
1.30333	-1
1.30700	-1
1.31067	-1
1.31433	-1
1.31800	-1
1.32167	-2
1.32533	-2
1.32900	-2
1.33267	-2
1.33633	-2
1.34000	-1
1.34367	-1
1.34733	-1
1.35100	-1
1.35467	-1
1.35833	-1
1.36200	-2
1.36567	-2
1.36933	-3
1.37300	-3
1.37667	-3
1.38033	-3
1.38400	-2
1.38767	-2
1.39133	-2
1.39500	-1
1.39867	-1
1.40233	-1
1.40600	-1
1.40967	-1
1.41333	-1
1.41700	-1
1.42067	-0
1.42433	-0
1.42800	0
1.43167	0
1.43533	0
1.43900	1
1.44267	1
1.44633	1
1.45000	1
1.45367	1
1.45733	1
1.46100	1
1.46467	1
1.46833	1
1.47200	1
1.47567	1
1.47933	1
1.48300	1
1.48667	1
1.49033	1
1.49400	1
1.49767	1
1.50133	1
1.50500	1
1.50867	1
1.51233	1
1.51600	1
1.51967	1
1.52333	1
1.52700	1
1.53067	1
1.53433	1
1.53800	0
1.54167	0
1.54533	0
1.54900	-0
1.55267	-0
1.55633	-1
1.56000	-1
1.56367	-1
1.56733	-1
1.57100	-1
1.57467	-1
1.57833	-1
1.58200	-1
1.58567	-1
1.58933	-2
1.59300	-2
1.59667	-3
1.60033	-4
1.60400	-5
1.60767	-6
1.61133	-8
1.61500	-10
1.61867	-12
1.62233	-15
1.62600	-18
1.62967	-21
1.63333	-24
1.63700	-27
1.64067	-30
1.64433	-32
1.64800	-35
1.65167	-38
1.65533	-41
1.65900	-45
1.66267	-48
1.66633	-52
1.67000	-56
1.67367	-60
1.67733	-64
1.68100	-68
1.68467	-72
1.68833	-75
1.69200	-78
1.69567	-81
1.69933	-84
1.70300	-86
1.70667	-87
1.71033	-89
1.71400	-90
1.71767	-91
1.72133	-91
1.72500	-92
1.72867	-92
1.73233	-93
1.73600	-93
1.73967	-94
1.74333	-94
1.74700	-95
1.75067	-95
1.75433	-96
1.75800	-96
1.76167	-96
1.76533	-96
1.76900	-96
1.77267	-97
1.77633	-97
1.78000	-97
1.78367	-97
1.78733	-97
1.79100	-97
1.79467	-98
1.79833	-99
1.80200	-100
1.80567	-100
1.80933	-101
1.81300	-101
1.81667	-100
1.82033	-100
1.82400	-99
1.82767	-98
1.83133	-98
1.83500	-97
1.83867	-97
1.84233	-97
1.84600	-98
1.84967	-98
1.85333	-99
1.85700	-99
1.86067	-99
1.86433	-99
1.86800	-99
1.87167	-98
1.87533	-98
1.87900	-98
1.88267	-97
1.88633	-97
1.89000	-97
1.89367	-96
1.89733	-96
1.90100	-96
1.90467	-96
1.90833	-95
1.91200	-96
1.91567	-96
1.91933	-96
1.92300	-95
1.92667	-95
1.93033	-95
1.93400	-95
1.93767	-94
1.94133	-94
1.94500	-94
1.94867	-93
1.95233	-93
1.95600	-93
1.95967	-93
1.96333	-93
1.96700	-93
1.97067	-94
1.97433	-94
1.97800	-94
1.98167	-94
1.98533	-93
1.98900	-93
1.99267	-92
1.99633	-92
2.00000	-91
2.00367	-91
2.00733	-91
2.01100	-91
2.01467	-90
2.01833	-90
2.02200	-89
2.02567	-89
2.02933	-88
2.03300	-88
2.03667	-87
2.04033	-87
2.04400	-87
2.04767	-87
2.05133	-87
2.05500	-88
2.05867	-87
2.06233	-87
2.06600	-87
2.06967	-87
2.07333	-86
2.07700	-86
2.08067	-85
2.08433	-84
2.08800	-84
2.09167	-83
2.09533	-83
2.09900	-82
2.10267	-81
2.10633	-81
2.11000	-80
2.11367	-80
2.11733	-80
2.12100	-80
2.12467	-81
2.12833	-81
2.13200	-81
2.13567	-81
2.13933	-80
2.14300	-80
2.14667	-80
2.15033	-79
2.15400	-78
2.15767	-77
2.16133	-76
2.16500	-76
2.16867	-76
2.17233	-76
2.17600	-76
2.17967	-77
2.18333	-77
2.18700	-77
2.19067	-77
2.19433	-77
2.19800	-77
2.20167	-77
2.20533	-76
2.20900	-76
2.21267	-76
2.21633	-75
2.22000	-74
2.22367	-74
2.22733	-74
2.23100	-74
2.23467	-73
2.23833	-73
2.24200	-73
2.24567	-72
2.24933	-73
2.25300	-73
2.25667	-74
2.26033	-75
2.26400	-75
2.26767	-75
2.27133	-74
2.27500	-73
2.27867	-72
2.28233	-72
2.28600	-71
2.28967	-70
2.29333	-70
2.29700	-70
2.30067	-69
2.30433	-69
2.30800	-69
2.31167	-69
2.31533	-69
2.31900	-68
2.32267	-67
2.32633	-67
2.33000	-66
2.33367	-66
2.33733	-66
2.34100	-66
2.34467	-66
2.34833	-66
2.35200	-66
2.35567	-65
2.35933	-65
2.36300	-65
2.36667	-63
2.37033	-62
2.37400	-59
2.37767	-56
2.38133	-53
2.38500	-49
2.38867	-45
2.39233	-41
2.39600	-37
2.39967	-32
2.40333	-28
2.40700	-23
2.41067	-19
2.41433	-15
2.41800	-12
2.42167	-8
2.42533	-6
2.42900	-4
2.43267	-2
2.43633	-0
2.44000	1
2.44367	3
2.44733	4
2.45100	6
2.45467	7
2.45833	9
2.46200	10
2.46567	10
2.46933	11
2.47300	11
2.47667	12
2.48033	13
2.48400	13
2.48767	14
2.49133	16
2.49500	17
2.49867	18
2.50233	18
2.50600	19
2.50967	19
2.51333	19
2.51700	19
2.52067	19
2.52433	19
2.52800	19
2.53167	19
2.53533	19
2.53900	19
2.54267	19
2.54633	19
2.55000	19
2.55367	18
2.55733	18
2.56100	17
2.56467	16
2.56833	15
2.57200	14
2.57567	14
2.57933	15
2.58300	15
2.58667	16
2.59033	17
2.59400	17
2.59767	18
2.60133	18
2.60500	19
2.60867	19
2.61233	19
2.61600	19
2.61967	20
2.62333	20
2.62700	20
2.63067	20
2.63433	20
2.63800	20
2.64167	20
2.64533	20
2.64900	20
2.65267	20
2.65633	20
2.66000	21
2.66367	21
2.66733	21
2.67100	22
2.67467	22
2.67833	22
2.68200	23
2.68567	24
2.68933	24
2.69300	25
2.69667	25
2.70033	26
2.70400	26
2.70767	27
2.71133	27
2.71500	27
2.71867	28
2.72233	28
2.72600	28
2.72967	28
2.73333	28
2.73700	28
2.74067	28
2.74433	28
2.74800	28
2.75167	29
2.75533	29
2.75900	29
2.76267	29
2.76633	30
2.77000	30
2.77367	30
2.77733	30
2.78100	30
2.78467	29
2.78833	28
2.79200	28
2.79567	27
2.79933	27
2.80300	26
2.80667	26
2.81033	26
2.81400	26
2.81767	27
2.82133	27
2.82500	27
2.82867	27
2.83233	28
2.83600	28
2.83967	28
2.84333	28
2.84700	29
2.85067	29
2.85433	29
2.85800	27
2.86167	25
2.86533	21
2.86900	14
2.87267	3
2.87633	-12
2.88000	-31
2.88367	-56
2.88733	-87
2.89100	-123
2.89467	-164
2.89833	-210
2.90200	-261
2.90567	-316
2.90933	-374
2.91300	-435
2.91667	-498
2.92033	-563
2.92400	-627
2.92767	-692
2.93133	-754
2.93500	-814
2.93867	-870
2.94233	-924
2.94600	-979
2.94967	-1033
2.95333	-1080
2.95700	-1109
2.96067	-1115
2.96433	-1096
2.96800	-1054
2.97167	-995
2.97533	-923
2.97900	-844
2.98267	-763
2.98633	-682
2.99000	-604
2.99367	-531
2.99733	-464
3.00100	-403
3.00467	-348
3.00833	-300
3.01200	-256
3.01567	-219
3.01933	-186
3.02300	-157
3.02667	-132
3.03033	-111
3.03400	-92
3.03767	-76
3.04133	-62
3.04500	-50
3.04867	-41
3.05233	-32
3.05600	-25
3.05967	-19
3.06333	-13
3.06700	-9
3.07067	-6
3.07433	-2
3.07800	0
3.08167	3
3.08533	5
3.08900	7
3.09267	9
3.09633	10
3.10000	12
3.10367	13
3.10733	14
3.11100	14
3.11467	15
3.11833	16
3.12200	16
3.12567	17
3.12933	18
3.13300	18
3.13667	18
3.14033	19
3.14400	19
3.14767	20
3.15133	20
3.15500	20
3.15867	21
3.16233	21
3.16600	21
3.16967	21
3.17333	21
3.17700	22
3.18067	22
3.18433	22
3.18800	22
3.19167	22
3.19533	23
3.19900	23
3.20267	23
3.20633	23
3.21000	23
3.21367	23
3.21733	24
3.22100	24
3.22467	24
3.22833	24
3.23200	24
3.23567	24
3.23933	24
3.24300	24
3.24667	25
3.25033	25
3.25400	25
3.25767	25
3.26133	25
3.26500	25
3.26867	25
3.27233	25
3.27600	26
3.27967	26
3.28333	26
3.28700	26
3.29067	27
3.29433	27
3.29800	27
3.30167	27
3.30533	27
3.30900	27
3.31267	27
3.31633	28
3.32000	28
3.32367	28
3.32733	28
3.33100	28
3.33467	28
3.33833	28
3.34200	28
3.34567	28
3.34933	28
3.35300	28
3.35667	28
3.36033	28
3.36400	28
3.36767	28
3.37133	28
3.37500	28
3.37867	29
3.38233	29
3.38600	29
3.38967	29
3.39333	29
3.39700	30
3.40067	30
3.40433	30
3.40800	30
3.41167	30
3.41533	30
3.41900	30
3.42267	30
3.42633	30
3.43000	31
3.43367	31
3.43733	31
3.44100	31
3.44467	31
3.44833	31
3.45200	31
3.45567	31
3.45933	31
3.46300	31
3.46667	31
3.47033	31
3.47400	31
3.47767	31
3.48133	31
3.48500	32
3.48867	32
3.49233	32
3.49600	32
3.49967	32
3.50333	32
3.50700	32
3.51067	31
3.51433	31
3.51800	31
3.52167	31
3.52533	31
3.52900	31
3.53267	31
3.53633	31
3.54000	31
3.54367	32
3.54733	32
3.55100	31
3.55467	31
3.55833	31
3.56200	31
3.56567	31
3.56933	31
3.57300	31
3.57667	30
3.58033	30
3.58400	30
3.58767	30
3.59133	31
3.59500	30
3.59867	30
3.60233	30
3.60600	30
3.60967	30
3.61333	30
3.61700	30
3.62067	31
3.62433	31
3.62800	31
3.63167	31
3.63533	31
3.63900	31
3.64267	31
3.64633	32
3.65000	31
3.65367	31
3.65733	31
3.66100	31
3.66467	31
3.66833	31
3.67200	32
3.67567	32
3.67933	31
3.68300	31
3.68667	31
3.69033	31
3.69400	31
3.69767	31
3.70133	31
3.70500	31
3.70867	31
3.71233	31
3.71600	31
3.71967	30
3.72333	30
3.72700	30
3.73067	30
3.73433	30
3.73800	31
3.74167	30
3.74533	30
3.74900	30
3.75267	30
3.75633	30
3.76000	30
3.76367	30
3.76733	30
3.77100	30
3.77467	30
3.77833	30
3.78200	30
3.78567	30
3.78933	30
3.79300	30
3.79667	31
3.80033	31
3.80400	31
3.80767	31
3.81133	31
3.81500	31
3.81867	31
3.82233	31
3.82600	31
3.82967	31
3.83333	31
3.83700	30
3.84067	30
3.84433	31
3.84800	31
3.85167	31
3.85533	31
3.85900	31
3.86267	31
3.86633	32
3.87000	32
3.87367	32
3.87733	32
3.88100	32
3.88467	32
3.88833	32
3.89200	32
3.89567	32
3.89933	32
3.90300	32
3.90667	32
3.91033	32
3.91400	32
3.91767	32
3.92133	32
3.92500	31
3.92867	31
3.93233	31
3.93600	31
3.93967	31
3.94333	31
3.94700	31
3.95067	31
3.95433	31
3.95800	31
3.96167	31
3.96533	31
3.96900	31
3.97267	31
3.97633	31
3.98000	31
3.98367	31
3.98733	31
3.99100	31
3.99467	31
3.99833	32

[Chromatogram (Ch3)]
Interval(msec)	220
# of Points	1091
Start Time(min)	0.002
End Time(min)	3.998
R.Time (min)	Intensity
0.00167	-1
0.00533	-2
0.00900	-2
0.01267	-3
0.01633	-3
0.02000	-6
0.02367	-9
0.02733	-10
0.03100	-8
0.03467	-7
0.03833	-5
0.04200	-3
0.04567	-3
0.04933	-3
0.05300	-2
0.05667	-2
0.06033	-2
0.06400	-0
0.06767	0
0.07133	-1
0.07500	-2
0.07867	1
0.08233	4
0.08600	1
0.08967	-1
0.09333	-2
0.09700	-2
0.10067	-3
0.10433	-3
0.10800	-3
0.11167	-5
0.11533	-7
0.11900	-5
0.12267	-1
0.12633	1
0.13000	1
0.13367	2
0.13733	1
0.14100	2
0.14467	3
0.14833	2
0.15200	-1
0.15567	-5
0.15933	-7
0.16300	-8
0.16667	-7
0.17033	-5
0.17400	-1
0.17767	1
0.18133	-0
0.18500	-4
0.18867	-3
0.19233	-1
0.19600	1
0.19967	2
0.20333	1
0.20700	3
0.21067	3
0.21433	4
0.21800	4
0.22167	3
0.22533	3
0.22900	2
0.23267	0
0.23633	-0
0.24000	-1
0.24367	1
0.24733	1
0.25100	-2
0.25467	-2
0.25833	-2
0.26200	-2
0.26567	-1
0.26933	-2
0.27300	-3
0.27667	-3
0.28033	-3
0.28400	-4
0.28767	-4
0.29133	-3
0.29500	-3
0.29867	-3
0.30233	-3
0.30600	-2
0.30967	-1
0.31333	-0
0.31700	-2
0.32067	-1
0.32433	-1
0.32800	-2
0.33167	-4
0.33533	-7
0.33900	-8
0.34267	-7
0.34633	-7
0.35000	-8
0.35367	-7
0.35733	-6
0.36100	-4
0.36467	-4
0.36833	-4
0.37200	-6
0.37567	-5
0.37933	-3
0.38300	-3
0.38667	-4
0.39033	-4
0.39400	-3
0.39767	-2
0.40133	-1
0.40500	-0
0.40867	-0
0.41233	-1
0.41600	-2
0.41967	-1
0.42333	-0
0.42700	-1
0.43067	-1
0.43433	-1
0.43800	-1
0.44167	-1
0.44533	1
0.44900	2
0.45267	2
0.45633	2
0.46000	1
0.46367	-1
0.46733	-2
0.47100	-2
0.47467	-1
0.47833	1
0.48200	2
0.48567	0
0.48933	-3
0.49300	-2
0.49667	-1
0.50033	-2
0.50400	-3
0.50767	-3
0.51133	-2
0.51500	-3
0.51867	-4
0.52233	-2
0.52600	-1
0.52967	2
0.53333	4
0.53700	3
0.54067	2
0.54433	1
0.54800	2
0.55167	4
0.55533	6
0.55900	4
0.56267	3
0.56633	0
0.57000	-1
0.57367	-2
0.57733	-2
0.58100	-2
0.58467	-2
0.58833	-1
0.59200	-0
0.59567	1
0.59933	4
0.60300	6
0.60667	4
0.61033	3
0.61400	3
0.61767	2
0.62133	0
0.62500	-1
0.62867	-2
0.63233	-0
0.63600	1
0.63967	1
0.64333	-0
0.64700	-1
0.65067	-1
0.65433	0
0.65800	2
0.66167	3
0.66533	3
0.66900	4
0.67267	5
0.67633	6
0.68000	6
0.68367	6
0.68733	4
0.69100	5
0.69467	5
0.69833	5
0.70200	7
0.70567	8
0.70933	7
0.71300	5
0.71667	4
0.72033	3
0.72400	3
0.72767	1
0.73133	-1
0.73500	-2
0.73867	-3
0.74233	-3
0.74600	-1
0.74967	-1
0.75333	-1
0.75700	1
0.76067	3
0.76433	4
0.76800	5
0.77167	3
0.77533	2
0.77900	1
0.78267	1
0.78633	1
0.79000	-1
0.79367	-1
0.79733	1
0.80100	4
0.80467	7
0.80833	6
0.81200	4
0.81567	2
0.81933	-0
0.82300	1
0.82667	4
0.83033	4
0.83400	4
0.83767	2
0.84133	-0
0.84500	-1
0.84867	-0
0.85233	1
0.85600	2
0.85967	1
0.86333	-2
0.86700	-3
0.87067	-1
0.87433	2
0.87800	5
0.88167	6
0.88533	7
0.88900	7
0.89267	7
0.89633	7
0.90000	7
0.90367	7
0.90733	8
0.91100	9
0.91467	8
0.91833	6
0.92200	5
0.92567	4
0.92933	3
0.93300	6
0.93667	7
0.94033	8
0.94400	9
0.94767	8
0.95133	7
0.95500	7
0.95867	8
0.96233	11
0.96600	12
0.96967	12
0.97333	10
0.97700	7
0.98067	5
0.98433	5
0.98800	4
0.99167	3
0.99533	1
0.99900	-0
1.00267	-1
1.00633	2
1.01000	4
1.01367	5
1.01733	9
1.02100	12
1.02467	12
1.02833	11
1.03200	9
1.03567	8
1.03933	9
1.04300	10
1.04667	11
1.05033	11
1.05400	12
1.05767	10
1.06133	5
1.06500	3
1.06867	3
1.07233	4
1.07600	4
1.07967	5
1.08333	8
1.08700	10
1.09067	10
1.09433	13
1.09800	14
1.10167	15
1.10533	14
1.10900	12
1.11267	12
1.11633	10
1.12000	10
1.12367	9
1.12733	9
1.13100	13
1.13467	16
1.13833	17
1.14200	16
1.14567	13
1.14933	10
1.15300	9
1.15667	8
1.16033	8
1.16400	8
1.16767	8
1.17133	8
1.17500	8
1.17867	8
1.18233	8
1.18600	9
1.18967	9
1.19333	9
1.19700	7
1.20067	9
1.20433	13
1.20800	16
1.21167	16
1.21533	13
1.21900	10
1.22267	9
1.22633	7
1.23000	4
1.23367	3
1.23733	1
1.24100	1
1.24467	2
1.24833	3
1.25200	4
1.25567	8
1.25933	9
1.26300	10
1.26667	11
1.27033	10
1.27400	10
1.27767	11
1.28133	13
1.28500	14
1.28867	14
1.29233	13
1.29600	12
1.29967	9
1.30333	8
1.30700	9
1.31067	9
1.31433	9
1.31800	11
1.32167	14
1.32533	15
1.32900	16
1.33267	16
1.33633	15
1.34000	12
1.34367	11
1.34733	9
1.35100	9
1.35467	9
1.35833	11
1.36200	13
1.36567	13
1.36933	13
1.37300	12
1.37667	13
1.38033	15
1.38400	15
1.38767	14
1.39133	13
1.39500	11
1.39867	12
1.40233	14
1.40600	17
1.40967	16
1.41333	14
1.41700	12
1.42067	10
1.42433	8
1.42800	7
1.43167	8
1.43533	9
1.43900	10
1.44267	10
1.44633	10
1.45000	11
1.45367	16
1.45733	19
1.46100	20
1.46467	18
1.46833	18
1.47200	17
1.47567	17
1.47933	15
1.48300	14
1.48667	14
1.49033	15
1.49400	14
1.49767	14
1.50133	12
1.50500	9
1.50867	9
1.51233	11
1.51600	13
1.51967	13
1.52333	14
1.52700	13
1.53067	14
1.53433	14
1.53800	16
1.54167	17
1.54533	17
1.54900	17
1.55267	19
1.55633	19
1.56000	16
1.56367	15
1.56733	15
1.57100	17
1.57467	17
1.57833	18
1.58200	18
1.58567	17
1.58933	15
1.59300	13
1.59667	14
1.60033	16
1.60400	16
1.60767	15
1.61133	16
1.61500	16
1.61867	13
1.62233	15
1.62600	18
1.62967	18
1.63333	18
1.63700	18
1.64067	17
1.64433	16
1.64800	14
1.65167	15
1.65533	15
1.65900	14
1.66267	15
1.66633	15
1.67000	14
1.67367	14
1.67733	15
1.68100	17
1.68467	17
1.68833	16
1.69200	14
1.69567	15
1.69933	18
1.70300	20
1.70667	23
1.71033	26
1.71400	26
1.71767	25
1.72133	25
1.72500	25
1.72867	24
1.73233	22
1.73600	21
1.73967	21
1.74333	20
1.74700	21
1.75067	19
1.75433	18
1.75800	17
1.76167	17
1.76533	19
1.76900	21
1.77267	23
1.77633	25
1.78000	27
1.78367	26
1.78733	25
1.79100	27
1.79467	30
1.79833	32
1.80200	32
1.80567	29
1.80933	28
1.81300	28
1.81667	30
1.82033	32
1.82400	31
1.82767	32
1.83133	32
1.83500	33
1.83867	32
1.84233	31
1.84600	29
1.84967	26
1.85333	26
1.85700	28
1.86067	29
1.86433	30
1.86800	31
1.87167	30
1.87533	30
1.87900	33
1.88267	35
1.88633	35
1.89000	35
1.89367	34
1.89733	34
1.90100	35
1.90467	34
1.90833	33
1.91200	34
1.91567	37
1.91933	38
1.92300	38
1.92667	37
1.93033	37
1.93400	35
1.93767	35
1.94133	38
1.94500	40
1.94867	40
1.95233	38
1.95600	37
1.95967	37
1.96333	38
1.96700	38
1.97067	39
1.97433	40
1.97800	41
1.98167	42
1.98533	43
1.98900	44
1.99267	46
1.99633	46
2.00000	45
2.00367	45
2.00733	47
2.01100	50
2.01467	51
2.01833	51
2.02200	54
2.02567	57
2.02933	55
2.03300	54
2.03667	55
2.04033	56
2.04400	56
2.04767	54
2.05133	53
2.05500	54
2.05867	55
2.06233	56
2.06600	58
2.06967	58
2.07333	57
2.07700	56
2.08067	59
2.08433	58
2.08800	58
2.09167	58
2.09533	58
2.09900	60
2.10267	61
2.10633	61
2.11000	59
2.11367	59
2.11733	63
2.12100	67
2.12467	71
2.12833	74
2.13200	74
2.13567	75
2.13933	74
2.14300	73
2.14667	71
2.15033	71
2.15400	72
2.15767	73
2.16133	76
2.16500	77
2.16867	76
2.17233	78
2.17600	80
2.17967	80
2.18333	82
2.18700	83
2.19067	82
2.19433	83
2.19800	85
2.20167	84
2.20533	82
2.20900	81
2.21267	81
2.21633	82
2.22000	85
2.22367	87
2.22733	89
2.23100	92
2.23467	93
2.23833	93
2.24200	93
2.24567	93
2.24933	95
2.25300	96
2.25667	96
2.26033	93
2.26400	92
2.26767	93
2.27133	95
2.27500	99
2.27867	100
2.28233	98
2.28600	98
2.28967	99
2.29333	101
2.29700	103
2.30067	104
2.30433	105
2.30800	104
2.31167	101
2.31533	99
2.31900	98
2.32267	99
2.32633	100
2.33000	100
2.33367	100
2.33733	102
2.34100	103
2.34467	103
2.34833	104
2.35200	102
2.35567	102
2.35933	103
2.36300	106
2.36667	107
2.37033	106
2.37400	106
2.37767	106
2.38133	105
2.38500	103
2.38867	99
2.39233	97
2.39600	101
2.39967	106
2.40333	114
2.40700	122
2.41067	127
2.41433	131
2.41800	133
2.42167	134
2.42533	134
2.42900	133
2.43267	132
2.43633	129
2.44000	135
2.44367	183
2.44733	265
2.45100	334
2.45467	381
2.45833	398
2.46200	392
2.46567	375
2.46933	362
2.47300	352
2.47667	341
2.48033	325
2.48400	304
2.48767	282
2.49133	261
2.49500	244
2.49867	235
2.50233	231
2.50600	229
2.50967	232
2.51333	235
2.51700	240
2.52067	245
2.52433	244
2.52800	240
2.53167	232
2.53533	221
2.53900	209
2.54267	197
2.54633	183
2.55000	170
2.55367	160
2.55733	155
2.56100	152
2.56467	150
2.56833	150
2.57200	152
2.57567	156
2.57933	160
2.58300	163
2.58667	166
2.59033	173
2.59400	180
2.59767	186
2.60133	192
2.60500	197
2.60867	201
2.61233	208
2.61600	214
2.61967	218
2.62333	220
2.62700	219
2.63067	218
2.63433	215
2.63800	210
2.64167	201
2.64533	189
2.64900	177
2.65267	166
2.65633	157
2.66000	150
2.66367	146
2.66733	143
2.67100	139
2.67467	133
2.67833	129
2.68200	124
2.68567	120
2.68933	116
2.69300	112
2.69667	111
2.70033	111
2.70400	113
2.70767	113
2.71133	111
2.71500	111
2.71867	112
2.72233	112
2.72600	113
2.72967	114
2.73333	116
2.73700	117
2.74067	116
2.74433	117
2.74800	118
2.75167	119
2.75533	120
2.75900	123
2.76267	126
2.76633	129
2.77000	131
2.77367	134
2.77733	136
2.78100	140
2.78467	144
2.78833	147
2.79200	148
2.79567	150
2.79933	153
2.80300	155
2.80667	159
2.81033	163
2.81400	165
2.81767	164
2.82133	165
2.82500	167
2.82867	171
2.83233	177
2.83600	185
2.83967	203
2.84333	242
2.84700	317
2.85067	447
2.85433	649
2.85800	938
2.86167	1311
2.86533	1754
2.86900	2239
2.87267	2731
2.87633	3188
2.88000	3569
2.88367	3847
2.88733	4008
2.89100	4049
2.89467	3982
2.89833	3827
2.90200	3592
2.90567	3318
2.90933	3054
2.91300	2815
2.91667	2603
2.92033	2421
2.92400	2265
2.92767	2134
2.93133	2023
2.93500	1926
2.93867	1839
2.94233	1763
2.94600	1694
2.94967	1631
2.95333	1572
2.95700	1519
2.96067	1468
2.96433	1421
2.96800	1383
2.97167	1349
2.97533	1314
2.97900	1283
2.98267	1255
2.98633	1229
2.99000	1205
2.99367	1184
2.99733	1163
3.00100	1143
3.00467	1125
3.00833	1111
3.01200	1100
3.01567	1087
3.01933	1072
3.02300	1056
3.02667	1040
3.03033	1027
3.03400	1019
3.03767	1015
3.04133	1010
3.04500	1002
3.04867	995
3.05233	989
3.05600	985
3.05967	980
3.06333	972
3.06700	965
3.07067	959
3.07433	955
3.07800	950
3.08167	947
3.08533	945
3.08900	940
3.09267	934
3.09633	931
3.10000	929
3.10367	925
3.10733	923
3.11100	924
3.11467	924
3.11833	925
3.12200	924
3.12567	923
3.12933	918
3.13300	914
3.13667	915
3.14033	916
3.14400	917
3.14767	915
3.15133	911
3.15500	906
3.15867	904
3.16233	903
3.16600	903
3.16967	903
3.17333	905
3.17700	900
3.18067	893
3.18433	889
3.18800	886
3.19167	883
3.19533	877
3.19900	873
3.20267	870
3.20633	867
3.21000	864
3.21367	860
3.21733	858
3.22100	857
3.22467	857
3.22833	854
3.23200	850
3.23567	846
3.23933	842
3.24300	838
3.24667	835
3.25033	834
3.25400	830
3.25767	826
3.26133	824
3.26500	822
3.26867	819
3.27233	815
3.27600	812
3.27967	812
3.28333	808
3.28700	806
3.29067	808
3.29433	809
3.29800	809
3.30167	809
3.30533	808
3.30900	808
3.31267	809
3.31633	809
3.32000	810
3.32367	811
3.32733	814
3.33100	815
3.33467	819
3.33833	826
3.34200	832
3.34567	839
3.34933	845
3.35300	852
3.35667	857
3.36033	861
3.36400	865
3.36767	870
3.37133	873
3.37500	877
3.37867	880
3.38233	882
3.38600	886
3.38967	890
3.39333	892
3.39700	891
3.40067	890
3.40433	891
3.40800	890
3.41167	890
3.41533	888
3.41900	886
3.42267	883
3.42633	878
3.43000	873
3.43367	867
3.43733	860
3.44100	852
3.44467	842
3.44833	833
3.45200	826
3.45567	819
3.45933	813
3.46300	806
3.46667	797
3.47033	788
3.47400	778
3.47767	770
3.48133	762
3.48500	755
3.48867	749
3.49233	743
3.49600	737
3.49967	732
3.50333	727
3.50700	720
3.51067	715
3.51433	711
3.51800	707
3.52167	702
3.52533	698
3.52900	695
3.53267	691
3.53633	688
3.54000	688
3.54367	686
3.54733	680
3.55100	677
3.55467	674
3.55833	671
3.56200	673
3.56567	674
3.56933	673
3.57300	669
3.57667	665
3.58033	662
3.58400	660
3.58767	656
3.59133	654
3.59500	651
3.59867	646
3.60233	643
3.60600	642
3.60967	638
3.61333	636
3.61700	636
3.62067	633
3.62433	625
3.62800	620
3.63167	617
3.63533	617
3.63900	617
3.64267	617
3.64633	615
3.65000	612
3.65367	611
3.65733	609
3.66100	607
3.66467	608
3.66833	608
3.67200	605
3.67567	605
3.67933	605
3.68300	605
3.68667	602
3.69033	600
3.69400	597
3.69767	597
3.70133	594
3.70500	592
3.70867	590
3.71233	588
3.71600	586
3.71967	583
3.72333	583
3.72700	584
3.73067	585
3.73433	584
3.73800	582
3.74167	580
3.74533	579
3.74900	580
3.75267	580
3.75633	579
3.76000	578
3.76367	577
3.76733	575
3.77100	573
3.77467	574
3.77833	573
3.78200	572
3.78567	568
3.78933	565
3.79300	564
3.79667	564
3.80033	564
3.80400	564
3.80767	562
3.81133	559
3.81500	557
3.81867	556
3.82233	552
3.82600	549
3.82967	548
3.83333	548
3.83700	546
3.84067	544
3.84433	543
3.84800	542
3.85167	541
3.85533	539
3.85900	539
3.86267	538
3.86633	536
3.87000	534
3.87367	535
3.87733	534
3.88100	533
3.88467	532
3.88833	533
3.89200	534
3.89567	534
3.89933	531
3.90300	528
3.90667	526
3.91033	524
3.91400	521
3.91767	517
3.92133	514
3.92500	511
3.92867	511
3.93233	512
3.93600	514
3.93967	515
3.94333	515
3.94700	514
3.95067	513
3.95433	511
3.95800	507
3.96167	502
3.96533	500
3.96900	499
3.97267	496
3.97633	495
3.98000	496
3.98367	496
3.98733	498
3.99100	499
3.99467	499
3.99833	490

[Status Trace (Column Oven Temperature)]
Interval(msec)	1000
# of Points	240
Start Time(min)	0.012
End Time(min)	3.995
Intensity Units	
Intensity Multiplier	1
R.Time (min)	Intensity
0.01217	35.04
0.02883	35.05
0.04550	35.05
0.06217	35.05
0.07883	35.05
0.09550	35.04
0.11217	35.04
0.12883	35.04
0.14550	35.04
0.16217	35.03
0.17883	35.03
0.19550	35.03
0.21217	35.04
0.22883	35.04
0.24550	35.04
0.26217	35.04
0.27883	35.04
0.29550	35.03
0.31217	35.03
0.32883	35.02
0.34550	35.01
0.36217	35.01
0.37883	35.00
0.39550	35.00
0.41217	35.00
0.42883	35.01
0.44550	35.01
0.46217	35.01
0.47883	35.01
0.49550	35.01
0.51217	35.01
0.52883	35.00
0.54550	35.00
0.56217	35.00
0.57883	35.00
0.59550	35.00
0.61217	35.00
0.62883	35.00
0.64550	35.00
0.66217	35.00
0.67883	35.00
0.69550	35.00
0.71217	35.00
0.72883	34.99
0.74550	35.00
0.76217	34.99
0.77883	35.00
0.79550	35.00
0.81217	34.99
0.82883	34.99
0.84550	34.99
0.86217	34.99
0.87883	34.99
0.89550	35.00
0.91217	34.99
0.92883	35.00
0.94550	35.00
0.96217	34.99
0.97883	34.99
0.99550	35.00
1.01217	35.00
1.02883	34.99
1.04550	35.00
1.06217	35.00
1.07883	35.00
1.09550	35.00
1.11217	35.00
1.12883	34.99
1.14550	34.99
1.16217	34.99
1.17883	34.99
1.19550	34.99
1.21217	34.98
1.22883	34.98
1.24550	34.99
1.26217	34.98
1.27883	34.99
1.29550	35.00
1.31217	34.99
1.32883	35.00
1.34550	35.01
1.36217	35.02
1.37883	35.03
1.39550	35.03
1.41217	35.02
1.42883	35.02
1.44550	35.00
1.46217	35.00
1.47883	34.99
1.49550	34.99
1.51217	34.99
1.52883	34.99
1.54550	34.99
1.56217	34.99
1.57883	34.99
1.59550	35.02
1.61217	35.09
1.62883	35.23
1.64550	35.43
1.66217	35.69
1.67883	36.05
1.69550	36.40
1.71217	36.75
1.72883	37.10
1.74550	37.44
1.76217	37.76
1.77883	38.08
1.79550	38.43
1.81217	38.77
1.82883	39.08
1.84550	39.41
1.86217	39.75
1.87883	40.08
1.89550	40.41
1.91217	40.75
1.92883	41.07
1.94550	41.38
1.96217	41.71
1.97883	42.04
1.99550	42.38
2.01217	42.70
2.02883	43.02
2.04550	43.35
2.06217	43.68
2.07883	43.99
2.09550	44.33
2.11217	44.63
2.12883	44.98
2.14550	45.30
2.16217	45.60
2.17883	45.93
2.19550	46.25
2.21217	46.57
2.22883	46.91
2.24550	47.24
2.26217	47.60
2.27883	47.91
2.29550	48.25
2.31217	48.58
2.32883	48.90
2.34550	49.23
2.36217	49.53
2.37883	49.70
2.39550	49.75
2.41217	49.75
2.42883	49.76
2.44550	49.75
2.46217	49.77
2.47883	49.78
2.49550	49.78
2.51217	49.79
2.52883	49.81
2.54550	49.80
2.56217	49.82
2.57883	49.82
2.59550	49.83
2.61217	49.82
2.62883	49.83
2.64550	49.84
2.66217	49.85
2.67883	49.85
2.69550	49.85
2.71217	49.85
2.72883	49.86
2.74550	49.85
2.76217	49.85
2.77883	49.85
2.79550	49.89
2.81217	49.91
2.82883	49.91
2.84550	49.92
2.86217	49.92
2.87883	49.92
2.89550	49.93
2.91217	49.94
2.92883	49.94
2.94550	49.94
2.96217	49.94
2.97883	49.95
2.99550	49.96
3.01217	49.97
3.02883	49.98
3.04550	49.99
3.06217	50.00
3.07883	50.01
3.09550	50.02
3.11217	50.02
3.12883	50.03
3.14550	50.03
3.16217	50.03
3.17883	50.04
3.19550	50.05
3.21217	50.06
3.22883	50.07
3.24550	50.07
3.26217	50.08
3.27883	50.09
3.29550	50.08
3.31217	50.08
3.32883	50.09
3.34550	50.10
3.36217	50.11
3.37883	50.10
3.39550	50.10
3.41217	50.10
3.42883	50.09
3.44550	50.08
3.46217	50.07
3.47883	50.05
3.49550	50.05
3.51217	50.06
3.52883	50.05
3.54550	50.05
3.56217	50.06
3.57883	50.06
3.59550	50.06
3.61217	50.06
3.62883	50.06
3.64550	50.05
3.66217	50.05
3.67883	50.05
3.69550	50.06
3.71217	50.05
3.72883	50.05
3.74550	50.05
3.76217	50.06
3.77883	50.06
3.79550	50.06
3.81217	50.07
3.82883	50.07
3.84550	50.08
3.86217	50.08
3.87883	50.07
3.89550	50.06
3.91217	50.06
3.92883	50.07
3.94550	50.06
3.96217	50.06
3.97883	50.06
3.99550	50.05

[Status Trace (Injection Unit Temperature)]
Interval(msec)	1000
# of Points	240
Start Time(min)	0.012
End Time(min)	3.995
Intensity Units	
Intensity Multiplier	1
R.Time (min)	Intensity
0.01217	99.98
0.02883	99.98
0.04550	99.97
0.06217	99.98
0.07883	99.98
0.09550	99.98
0.11217	99.98
0.12883	99.98
0.14550	99.98
0.16217	99.98
0.17883	99.98
0.19550	99.98
0.21217	99.98
0.22883	99.98
0.24550	99.98
0.26217	99.98
0.27883	99.98
0.29550	99.98
0.31217	99.98
0.32883	99.98
0.34550	99.98
0.36217	99.98
0.37883	99.98
0.39550	99.98
0.41217	99.98
0.42883	99.98
0.44550	99.98
0.46217	99.98
0.47883	99.98
0.49550	99.98
0.51217	99.98
0.52883	99.98
0.54550	99.98
0.56217	99.98
0.57883	99.98
0.59550	99.98
0.61217	99.98
0.62883	99.98
0.64550	99.98
0.66217	99.98
0.67883	99.98
0.69550	99.98
0.71217	99.98
0.72883	99.98
0.74550	99.98
0.76217	99.98
0.77883	99.98
0.79550	99.98
0.81217	99.98
0.82883	99.98
0.84550	99.97
0.86217	99.98
0.87883	99.98
0.89550	99.98
0.91217	99.98
0.92883	99.98
0.94550	99.98
0.96217	99.98
0.97883	99.97
0.99550	99.98
1.01217	99.98
1.02883	99.98
1.04550	99.98
1.06217	99.98
1.07883	99.98
1.09550	99.98
1.11217	99.98
1.12883	99.98
1.14550	99.98
1.16217	99.98
1.17883	99.98
1.19550	99.98
1.21217	99.98
1.22883	99.99
1.24550	99.99
1.26217	99.99
1.27883	99.99
1.29550	99.99
1.31217	99.99
1.32883	99.99
1.34550	99.99
1.36217	99.99
1.37883	99.99
1.39550	99.98
1.41217	99.99
1.42883	99.99
1.44550	99.99
1.46217	99.99
1.47883	99.99
1.49550	99.99
1.51217	99.99
1.52883	99.99
1.54550	99.99
1.56217	99.99
1.57883	99.99
1.59550	99.99
1.61217	99.99
1.62883	99.99
1.64550	99.99
1.66217	99.99
1.67883	99.99
1.69550	99.99
1.71217	99.99
1.72883	99.99
1.74550	99.99
1.76217	99.99
1.77883	99.99
1.79550	99.99
1.81217	99.99
1.82883	99.98
1.84550	99.98
1.86217	99.98
1.87883	99.98
1.89550	99.98
1.91217	99.98
1.92883	99.98
1.94550	99.98
1.96217	99.98
1.97883	99.98
1.99550	99.98
2.01217	99.98
2.02883	99.98
2.04550	99.97
2.06217	99.98
2.07883	99.97
2.09550	99.97
2.11217	99.97
2.12883	99.97
2.14550	99.97
2.16217	99.97
2.17883	99.97
2.19550	99.97
2.21217	99.97
2.22883	99.97
2.24550	99.97
2.26217	99.97
2.27883	99.97
2.29550	99.97
2.31217	99.97
2.32883	99.97
2.34550	99.97
2.36217	99.96
2.37883	99.97
2.39550	99.97
2.41217	99.96
2.42883	99.96
2.44550	99.97
2.46217	99.97
2.47883	99.97
2.49550	99.97
2.51217	99.97
2.52883	99.97
2.54550	99.97
2.56217	99.97
2.57883	99.97
2.59550	99.97
2.61217	99.97
2.62883	99.97
2.64550	99.98
2.66217	99.97
2.67883	99.98
2.69550	99.98
2.71217	99.98
2.72883	99.98
2.74550	99.98
2.76217	99.98
2.77883	99.98
2.79550	99.98
2.81217	99.98
2.82883	99.99
2.84550	99.99
2.86217	99.99
2.87883	99.99
2.89550	99.99
2.91217	99.99
2.92883	100.00
2.94550	99.99
2.96217	100.00
2.97883	100.00
2.99550	100.00
3.01217	100.00
3.02883	100.00
3.04550	100.00
3.06217	100.00
3.07883	100.00
3.09550	100.01
3.11217	100.00
3.12883	100.01
3.14550	100.01
3.16217	100.01
3.17883	100.01
3.19550	100.01
3.21217	100.01
3.22883	100.01
3.24550	100.01
3.26217	100.02
3.27883	100.02
3.29550	100.01
3.31217	100.02
3.32883	100.02
3.34550	100.02
3.36217	100.02
3.37883	100.02
3.39550	100.02
3.41217	100.03
3.42883	100.02
3.44550	100.02
3.46217	100.02
3.47883	100.03
3.49550	100.03
3.51217	100.03
3.52883	100.03
3.54550	100.03
3.56217	100.03
3.57883	100.03
3.59550	100.03
3.61217	100.03
3.62883	100.03
3.64550	100.03
3.66217	100.04
3.67883	100.04
3.69550	100.03
3.71217	100.04
3.72883	100.04
3.74550	100.04
3.76217	100.04
3.77883	100.04
3.79550	100.04
3.81217	100.04
3.82883	100.04
3.84550	100.05
3.86217	100.04
3.87883	100.05
3.89550	100.05
3.91217	100.04
3.92883	100.04
3.94550	100.05
3.96217	100.05
3.97883	100.05
3.99550	100.05

[Status Trace (Carrier Gas Pressure)]
Interval(msec)	1000
# of Points	240
Start Time(min)	0.012
End Time(min)	3.995
Intensity Units	
Intensity Multiplier	1
R.Time (min)	Intensity
0.01217	58.00
0.02883	54.92
0.04550	57.67
0.06217	59.63
0.07883	59.01
0.09550	58.00
0.11217	57.99
0.12883	58.01
0.14550	58.01
0.16217	58.01
0.17883	58.00
0.19550	58.00
0.21217	58.00
0.22883	58.00
0.24550	58.00
0.26217	58.00
0.27883	58.00
0.29550	58.00
0.31217	58.00
0.32883	58.00
0.34550	58.00
0.36217	58.00
0.37883	58.00
0.39550	58.00
0.41217	58.00
0.42883	58.00
0.44550	58.00
0.46217	58.00
0.47883	58.00
0.49550	58.00
0.51217	58.00
0.52883	58.00
0.54550	58.00
0.56217	58.00
0.57883	58.00
0.59550	58.00
0.61217	58.00
0.62883	58.00
0.64550	58.00
0.66217	58.00
0.67883	58.00
0.69550	58.00
0.71217	58.00
0.72883	58.00
0.74550	58.00
0.76217	58.00
0.77883	58.00
0.79550	58.00
0.81217	58.00
0.82883	58.00
0.84550	58.00
0.86217	58.00
0.87883	58.00
0.89550	58.00
0.91217	58.00
0.92883	58.00
0.94550	58.00
0.96217	58.00
0.97883	58.00
0.99550	58.00
1.01217	58.00
1.02883	58.00
1.04550	58.00
1.06217	58.00
1.07883	58.00
1.09550	58.00
1.11217	58.00
1.12883	58.00
1.14550	58.00
1.16217	58.00
1.17883	58.00
1.19550	58.00
1.21217	58.00
1.22883	58.00
1.24550	58.00
1.26217	58.00
1.27883	58.00
1.29550	58.00
1.31217	58.00
1.32883	58.00
1.34550	58.00
1.36217	58.00
1.37883	58.00
1.39550	58.00
1.41217	58.00
1.42883	58.00
1.44550	58.00
1.46217	58.00
1.47883	58.00
1.49550	58.00
1.51217	58.00
1.52883	58.00
1.54550	58.00
1.56217	58.00
1.57883	58.00
1.59550	58.00
1.61217	58.00
1.62883	58.00
1.64550	58.00
1.66217	58.00
1.67883	58.01
1.69550	58.00
1.71217	58.00
1.72883	58.00
1.74550	58.00
1.76217	58.00
1.77883	58.00
1.79550	58.00
1.81217	58.00
1.82883	58.00
1.84550	58.00
1.86217	58.00
1.87883	58.00
1.89550	58.00
1.91217	58.00
1.92883	58.00
1.94550	58.00
1.96217	58.00
1.97883	58.00
1.99550	58.00
2.01217	58.00
2.02883	58.00
2.04550	58.00
2.06217	58.00
2.07883	58.00
2.09550	58.00
2.11217	58.00
2.12883	58.00
2.14550	58.00
2.16217	58.00
2.17883	58.00
2.19550	58.00
2.21217	58.00
2.22883	58.00
2.24550	58.00
2.26217	58.00
2.27883	58.00
2.29550	58.00
2.31217	58.00
2.32883	58.00
2.34550	58.00
2.36217	58.00
2.37883	57.99
2.39550	57.99
2.41217	58.00
2.42883	58.00
2.44550	58.00
2.46217	58.00
2.47883	58.00
2.49550	58.00
2.51217	57.99
2.52883	57.99
2.54550	58.00
2.56217	58.00
2.57883	58.00
2.59550	58.00
2.61217	58.00
2.62883	58.00
2.64550	58.00
2.66217	58.00
2.67883	58.00
2.69550	58.00
2.71217	58.00
2.72883	58.00
2.74550	58.00
2.76217	58.00
2.77883	58.00
2.79550	58.00
2.81217	58.00
2.82883	58.00
2.84550	58.00
2.86217	58.00
2.87883	58.00
2.89550	58.00
2.91217	58.00
2.92883	58.00
2.94550	58.00
2.96217	58.00
2.97883	58.00
2.99550	58.00
3.01217	58.00
3.02883	58.00
3.04550	58.00
3.06217	58.00
3.07883	58.00
3.09550	58.00
3.11217	58.00
3.12883	58.00
3.14550	58.00
3.16217	58.00
3.17883	58.00
3.19550	58.00
3.21217	58.00
3.22883	58.00
3.24550	58.00
3.26217	58.00
3.27883	58.00
3.29550	58.00
3.31217	58.00
3.32883	58.00
3.34550	58.00
3.36217	58.00
3.37883	58.00
3.39550	58.00
3.41217	58.00
3.42883	58.00
3.44550	58.00
3.46217	58.00
3.47883	58.00
3.49550	58.00
3.51217	58.00
3.52883	58.00
3.54550	58.00
3.56217	58.00
3.57883	58.00
3.59550	58.00
3.61217	58.00
3.62883	58.00
3.64550	58.00
3.66217	58.00
3.67883	58.00
3.69550	58.00
3.71217	58.00
3.72883	58.00
3.74550	58.00
3.76217	58.00
3.77883	58.00
3.79550	58.00
3.81217	58.00
3.82883	58.00
3.84550	58.00
3.86217	58.00
3.87883	58.00
3.89550	58.00
3.91217	58.00
3.92883	58.00
3.94550	58.00
3.96217	58.00
3.97883	58.00
3.99550	58.00

[Status Trace (Carrier Gas Flow)]
Interval(msec)	1000
# of Points	240
Start Time(min)	0.012
End Time(min)	3.995
Intensity Units	
Intensity Multiplier	1
R.Time (min)	Intensity
0.01217	34.52
0.02883	34.54
0.04550	34.54
0.06217	34.55
0.07883	34.51
0.09550	34.52
0.11217	34.52
0.12883	34.52
0.14550	34.52
0.16217	34.52
0.17883	34.52
0.19550	34.52
0.21217	34.51
0.22883	34.52
0.24550	34.52
0.26217	34.51
0.27883	34.52
0.29550	34.51
0.31217	34.52
0.32883	34.53
0.34550	34.52
0.36217	34.52
0.37883	34.52
0.39550	34.51
0.41217	34.53
0.42883	34.52
0.44550	34.51
0.46217	34.52
0.47883	34.52
0.49550	34.52
0.51217	34.52
0.52883	34.52
0.54550	34.52
0.56217	34.52
0.57883	34.52
0.59550	34.52
0.61217	34.52
0.62883	34.52
0.64550	34.52
0.66217	34.52
0.67883	34.52
0.69550	34.52
0.71217	34.52
0.72883	34.52
0.74550	34.52
0.76217	34.52
0.77883	34.52
0.79550	34.52
0.81217	34.52
0.82883	34.52
0.84550	34.51
0.86217	34.52
0.87883	34.52
0.89550	34.52
0.91217	34.52
0.92883	34.52
0.94550	34.52
0.96217	34.52
0.97883	34.52
0.99550	34.52
1.01217	34.52
1.02883	34.52
1.04550	34.52
1.06217	34.52
1.07883	34.52
1.09550	34.52
1.11217	34.52
1.12883	34.52
1.14550	34.52
1.16217	34.52
1.17883	34.52
1.19550	34.52
1.21217	34.52
1.22883	34.52
1.24550	34.52
1.26217	34.52
1.27883	34.52
1.29550	34.52
1.31217	34.52
1.32883	34.53
1.34550	34.52
1.36217	34.52
1.37883	34.52
1.39550	34.52
1.41217	34.52
1.42883	34.52
1.44550	34.52
1.46217	34.51
1.47883	34.52
1.49550	34.52
1.51217	34.52
1.52883	34.52
1.54550	34.51
1.56217	34.52
1.57883	34.52
1.59550	34.52
1.61217	34.52
1.62883	34.51
1.64550	34.52
1.66217	34.52
1.67883	34.52
1.69550	34.52
1.71217	34.52
1.72883	34.52
1.74550	34.51
1.76217	34.52
1.77883	34.52
1.79550	34.52
1.81217	34.52
1.82883	34.52
1.84550	34.52
1.86217	34.52
1.87883	34.52
1.89550	34.52
1.91217	34.52
1.92883	34.52
1.94550	34.52
1.96217	34.51
1.97883	34.52
1.99550	34.52
2.01217	34.52
2.02883	34.51
2.04550	34.52
2.06217	34.52
2.07883	34.51
2.09550	34.52
2.11217	34.52
2.12883	34.52
2.14550	34.52
2.16217	34.52
2.17883	34.52
2.19550	34.52
2.21217	34.52
2.22883	34.52
2.24550	34.52
2.26217	34.52
2.27883	34.52
2.29550	34.52
2.31217	34.52
2.32883	34.52
2.34550	34.52
2.36217	34.52
2.37883	34.52
2.39550	34.52
2.41217	34.52
2.42883	34.52
2.44550	34.52
2.46217	34.52
2.47883	34.52
2.49550	34.52
2.51217	34.52
2.52883	34.51
2.54550	34.52
2.56217	34.52
2.57883	34.52
2.59550	34.52
2.61217	34.52
2.62883	34.52
2.64550	34.52
2.66217	34.52
2.67883	34.52
2.69550	34.52
2.71217	34.52
2.72883	34.52
2.74550	34.52
2.76217	34.52
2.77883	34.52
2.79550	34.52
2.81217	34.51
2.82883	34.52
2.84550	34.52
2.86217	34.52
2.87883	34.51
2.89550	34.52
2.91217	34.52
2.92883	34.52
2.94550	34.52
2.96217	34.52
2.97883	34.51
2.99550	34.52
3.01217	34.52
3.02883	34.52
3.04550	34.52
3.06217	34.52
3.07883	34.52
3.09550	34.52
3.11217	34.52
3.12883	34.52
3.14550	34.52
3.16217	34.52
3.17883	34.52
3.19550	34.52
3.21217	34.52
3.22883	34.52
3.24550	34.52
3.26217	34.52
3.27883	34.51
3.29550	34.52
3.31217	34.51
3.32883	34.52
3.34550	34.52
3.36217	34.52
3.37883	34.51
3.39550	34.51
3.41217	34.52
3.42883	34.52
3.44550	34.52
3.46217	34.52
3.47883	34.52
3.49550	34.52
3.51217	34.52
3.52883	34.52
3.54550	34.52
3.56217	34.52
3.57883	34.52
3.59550	34.52
3.61217	34.52
3.62883	34.52
3.64550	34.52
3.66217	34.52
3.67883	34.52
3.69550	34.52
3.71217	34.52
3.72883	34.52
3.74550	34.52
3.76217	34.52
3.77883	34.52
3.79550	34.52
3.81217	34.52
3.82883	34.52
3.84550	34.52
3.86217	34.51
3.87883	34.52
3.89550	34.52
3.91217	34.52
3.92883	34.52
3.94550	34.52
3.96217	34.51
3.97883	34.52
3.99550	34.52

[Status Trace (Column Flow)]
Interval(msec)	1000
# of Points	240
Start Time(min)	0.012
End Time(min)	3.995
Intensity Units	
Intensity Multiplier	1
R.Time (min)	Intensity
0.01217	5.50
0.02883	5.14
0.04550	5.46
0.06217	5.69
0.07883	5.62
0.09550	5.50
0.11217	5.50
0.12883	5.50
0.14550	5.50
0.16217	5.50
0.17883	5.50
0.19550	5.50
0.21217	5.50
0.22883	5.50
0.24550	5.50
0.26217	5.50
0.27883	5.50
0.29550	5.50
0.31217	5.50
0.32883	5.50
0.34550	5.50
0.36217	5.50
0.37883	5.50
0.39550	5.50
0.41217	5.50
0.42883	5.50
0.44550	5.50
0.46217	5.50
0.47883	5.50
0.49550	5.50
0.51217	5.50
0.52883	5.50
0.54550	5.50
0.56217	5.50
0.57883	5.50
0.59550	5.50
0.61217	5.50
0.62883	5.50
0.64550	5.50
0.66217	5.50
0.67883	5.50
0.69550	5.50
0.71217	5.50
0.72883	5.50
0.74550	5.50
0.76217	5.50
0.77883	5.50
0.79550	5.50
0.81217	5.50
0.82883	5.50
0.84550	5.50
0.86217	5.50
0.87883	5.50
0.89550	5.50
0.91217	5.50
0.92883	5.50
0.94550	5.50
0.96217	5.50
0.97883	5.50
0.99550	5.50
1.01217	5.50
1.02883	5.50
1.04550	5.50
1.06217	5.50
1.07883	5.50
1.09550	5.50
1.11217	5.50
1.12883	5.50
1.14550	5.50
1.16217	5.50
1.17883	5.50
1.19550	5.50
1.21217	5.50
1.22883	5.50
1.24550	5.50
1.26217	5.50
1.27883	5.50
1.29550	5.50
1.31217	5.50
1.32883	5.50
1.34550	5.50
1.36217	5.50
1.37883	5.50
1.39550	5.50
1.41217	5.50
1.42883	5.50
1.44550	5.50
1.46217	5.50
1.47883	5.50
1.49550	5.50
1.51217	5.50
1.52883	5.50
1.54550	5.50
1.56217	5.50
1.57883	5.50
1.59550	5.50
1.61217	5.50
1.62883	5.49
1.64550	5.49
1.66217	5.48
1.67883	5.47
1.69550	5.46
1.71217	5.45
1.72883	5.44
1.74550	5.43
1.76217	5.42
1.77883	5.41
1.79550	5.40
1.81217	5.39
1.82883	5.38
1.84550	5.37
1.86217	5.36
1.87883	5.35
1.89550	5.34
1.91217	5.33
1.92883	5.32
1.94550	5.31
1.96217	5.30
1.97883	5.29
1.99550	5.28
2.01217	5.27
2.02883	5.26
2.04550	5.25
2.06217	5.24
2.07883	5.23
2.09550	5.22
2.11217	5.21
2.12883	5.20
2.14550	5.19
2.16217	5.18
2.17883	5.17
2.19550	5.16
2.21217	5.16
2.22883	5.15
2.24550	5.14
2.26217	5.13
2.27883	5.12
2.29550	5.11
2.31217	5.10
2.32883	5.09
2.34550	5.08
2.36217	5.07
2.37883	5.07
2.39550	5.07
2.41217	5.07
2.42883	5.07
2.44550	5.07
2.46217	5.07
2.47883	5.07
2.49550	5.07
2.51217	5.07
2.52883	5.06
2.54550	5.07
2.56217	5.07
2.57883	5.07
2.59550	5.06
2.61217	5.06
2.62883	5.06
2.64550	5.06
2.66217	5.06
2.67883	5.06
2.69550	5.06
2.71217	5.06
2.72883	5.06
2.74550	5.06
2.76217	5.06
2.77883	5.06
2.79550	5.06
2.81217	5.06
2.82883	5.06
2.84550	5.06
2.86217	5.06
2.87883	5.06
2.89550	5.06
2.91217	5.06
2.92883	5.06
2.94550	5.06
2.96217	5.06
2.97883	5.06
2.99550	5.06
3.01217	5.06
3.02883	5.06
3.04550	5.06
3.06217	5.06
3.07883	5.06
3.09550	5.06
3.11217	5.06
3.12883	5.06
3.14550	5.06
3.16217	5.06
3.17883	5.06
3.19550	5.06
3.21217	5.06
3.22883	5.06
3.24550	5.06
3.26217	5.06
3.27883	5.06
3.29550	5.06
3.31217	5.06
3.32883	5.06
3.34550	5.06
3.36217	5.06
3.37883	5.06
3.39550	5.06
3.41217	5.06
3.42883	5.06
3.44550	5.06
3.46217	5.06
3.47883	5.06
3.49550	5.06
3.51217	5.06
3.52883	5.06
3.54550	5.06
3.56217	5.06
3.57883	5.06
3.59550	5.06
3.61217	5.06
3.62883	5.06
3.64550	5.06
3.66217	5.06
3.67883	5.06
3.69550	5.06
3.71217	5.06
3.72883	5.06
3.74550	5.06
3.76217	5.06
3.77883	5.06
3.79550	5.06
3.81217	5.06
3.82883	5.06
3.84550	5.06
3.86217	5.06
3.87883	5.06
3.89550	5.06
3.91217	5.06
3.92883	5.06
3.94550	5.06
3.96217	5.06
3.97883	5.06
3.99550	5.06

[Status Trace (Linear Velocity)]
Interval(msec)	1000
# of Points	240
Start Time(min)	0.012
End Time(min)	3.995
Intensity Units	
Intensity Multiplier	1
R.Time (min)	Intensity
0.01217	39.01
0.02883	36.98
0.04550	38.79
0.06217	40.08
0.07883	39.67
0.09550	39.01
0.11217	39.00
0.12883	39.01
0.14550	39.01
0.16217	39.01
0.17883	39.01
0.19550	39.01
0.21217	39.01
0.22883	39.01
0.24550	39.01
0.26217	39.01
0.27883	39.01
0.29550	39.01
0.31217	39.01
0.32883	39.01
0.34550	39.01
0.36217	39.01
0.37883	39.01
0.39550	39.01
0.41217	39.01
0.42883	39.01
0.44550	39.01
0.46217	39.01
0.47883	39.01
0.49550	39.01
0.51217	39.01
0.52883	39.01
0.54550	39.01
0.56217	39.01
0.57883	39.01
0.59550	39.01
0.61217	39.01
0.62883	39.01
0.64550	39.01
0.66217	39.01
0.67883	39.01
0.69550	39.01
0.71217	39.01
0.72883	39.01
0.74550	39.01
0.76217	39.01
0.77883	39.01
0.79550	39.01
0.81217	39.01
0.82883	39.01
0.84550	39.01
0.86217	39.01
0.87883	39.01
0.89550	39.01
0.91217	39.01
0.92883	39.01
0.94550	39.01
0.96217	39.01
0.97883	39.01
0.99550	39.01
1.01217	39.01
1.02883	39.01
1.04550	39.01
1.06217	39.01
1.07883	39.01
1.09550	39.01
1.11217	39.01
1.12883	39.01
1.14550	39.01
1.16217	39.01
1.17883	39.01
1.19550	39.01
1.21217	39.01
1.22883	39.01
1.24550	39.01
1.26217	39.01
1.27883	39.01
1.29550	39.01
1.31217	39.01
1.32883	39.01
1.34550	39.01
1.36217	39.01
1.37883	39.01
1.39550	39.01
1.41217	39.01
1.42883	39.01
1.44550	39.01
1.46217	39.01
1.47883	39.01
1.49550	39.01
1.51217	39.01
1.52883	39.01
1.54550	39.01
1.56217	39.01
1.57883	39.01
1.59550	39.01
1.61217	39.01
1.62883	38.99
1.64550	38.97
1.66217	38.95
1.67883	38.92
1.69550	38.88
1.71217	38.85
1.72883	38.81
1.74550	38.78
1.76217	38.75
1.77883	38.72
1.79550	38.69
1.81217	38.66
1.82883	38.62
1.84550	38.59
1.86217	38.56
1.87883	38.53
1.89550	38.50
1.91217	38.47
1.92883	38.44
1.94550	38.41
1.96217	38.38
1.97883	38.35
1.99550	38.32
2.01217	38.29
2.02883	38.26
2.04550	38.23
2.06217	38.20
2.07883	38.17
2.09550	38.14
2.11217	38.11
2.12883	38.08
2.14550	38.05
2.16217	38.02
2.17883	37.99
2.19550	37.96
2.21217	37.94
2.22883	37.90
2.24550	37.87
2.26217	37.85
2.27883	37.81
2.29550	37.78
2.31217	37.76
2.32883	37.73
2.34550	37.70
2.36217	37.67
2.37883	37.65
2.39550	37.64
2.41217	37.65
2.42883	37.65
2.44550	37.65
2.46217	37.65
2.47883	37.65
2.49550	37.65
2.51217	37.64
2.52883	37.64
2.54550	37.65
2.56217	37.65
2.57883	37.64
2.59550	37.64
2.61217	37.64
2.62883	37.64
2.64550	37.64
2.66217	37.64
2.67883	37.64
2.69550	37.64
2.71217	37.64
2.72883	37.64
2.74550	37.64
2.76217	37.64
2.77883	37.64
2.79550	37.64
2.81217	37.64
2.82883	37.64
2.84550	37.63
2.86217	37.64
2.87883	37.64
2.89550	37.63
2.91217	37.63
2.92883	37.63
2.94550	37.63
2.96217	37.63
2.97883	37.63
2.99550	37.63
3.01217	37.63
3.02883	37.63
3.04550	37.63
3.06217	37.63
3.07883	37.63
3.09550	37.63
3.11217	37.63
3.12883	37.63
3.14550	37.62
3.16217	37.63
3.17883	37.62
3.19550	37.62
3.21217	37.62
3.22883	37.62
3.24550	37.62
3.26217	37.62
3.27883	37.62
3.29550	37.62
3.31217	37.62
3.32883	37.62
3.34550	37.62
3.36217	37.62
3.37883	37.62
3.39550	37.62
3.41217	37.62
3.42883	37.62
3.44550	37.62
3.46217	37.62
3.47883	37.62
3.49550	37.62
3.51217	37.62
3.52883	37.62
3.54550	37.62
3.56217	37.62
3.57883	37.62
3.59550	37.62
3.61217	37.62
3.62883	37.62
3.64550	37.62
3.66217	37.62
3.67883	37.62
3.69550	37.62
3.71217	37.62
3.72883	37.62
3.74550	37.62
3.76217	37.62
3.77883	37.62
3.79550	37.62
3.81217	37.62
3.82883	37.62
3.84550	37.62
3.86217	37.62
3.87883	37.62
3.89550	37.62
3.91217	37.62
3.92883	37.62
3.94550	37.62
3.96217	37.62
3.97883	37.62
3.99550	37.62

