[Header]
Application Name	LabSolutions
Version	5.110
Data File Name	C:\Users\User\Desktop\Junior\UIC Prairie Sampling\2023\8.2.23\080223_032.gcd
Output Date	8/31/2023
Output Time	12:43:07 PM

[File Information]
Type	Data File
Generated	8/29/2023 7:24:38 PM
Generated by	System Administrator
Modified	8/29/2023 7:31:20 PM
Modified by	System Administrator

[Sample Information]
Operator Name	System Administrator
Acquired	8/29/2023 7:27:18 PM
Sample Type	0:Unknown
Level	0
Sample Name	032
Sample ID	032
ISTD Amount1	1
ISTD Amount2	1
ISTD Amount3	1
ISTD Amount4	1
ISTD Amount5	1
ISTD Amount6	1
ISTD Amount7	1
ISTD Amount8	1
ISTD Amount9	1
ISTD Amount10	1
ISTD Amount11	1
ISTD Amount12	1
ISTD Amount13	1
ISTD Amount14	1
ISTD Amount15	1
ISTD Amount16	1
ISTD Amount17	1
ISTD Amount18	1
ISTD Amount19	1
ISTD Amount20	1
ISTD Amount21	1
ISTD Amount22	1
ISTD Amount23	1
ISTD Amount24	1
ISTD Amount25	1
ISTD Amount26	1
ISTD Amount27	1
ISTD Amount28	1
ISTD Amount29	1
ISTD Amount30	1
ISTD Amount31	1
ISTD Amount32	1
Sample Amount	1
Dilution Factor	1
Vial#	31
Injection Volume	1
Injection Count	1
Bar Code	

[Original Files]
Data File	C:\Users\User\Desktop\Junior\UIC Prairie Sampling\8.2.23\080223_032.gcd
Method File	C:\LabSolutions\Data\GHG_4min_2022\ghg3_togas_w_acet_4 min_new_int.gcm
Batch File	C:\LabSolutions\Data\BATCH FILES\080223.gcb
Report Format File	c:\LabSolutions\System\DEFAULT.lsr

[File Description]


[Configuration]
Instrument Name	C0B7VH3-Instrument1
Instrument #	1
Line #	1
# of Detectors	3
Detector ID	DET#1	DET#2	DET#3
Detector Name	FID	PTCD	ECD
# of Channels	1	1	1

[Peak Table(Ch1)]
# of Peaks	4
Peak#	R.Time	I.Time	F.Time	Area	Height	A/H	Conc.	Mark	ID#	Name	k'	Plate #	Plate Ht.	Tailing	Resolution	Sep.Factor	Area Ratio	Height Ratio	Conc. %	Norm Conc.
1	0.233	0.134	0.354	1080	152	7.113	0.000	   			0.000	24	6202.613	1.243	0.000	0.000	0	0	0.000	0.000
2	1.472	1.432	1.531	9275	4614	2.010	0.000	   	1	CO	5.327	9976	15.036	1.276	9.987	0.000	0	0	0.000	0.000
3	1.564	1.531	1.630	4379	2210	1.981	21.347	 V 	2	CH4	5.721	11530	13.010	1.143	1.564	1.074	0	0	7.890	7.890
4	1.989	1.938	2.583	1293164	623584	2.074	249.217	   	3	CO2	7.549	17750	8.451	1.304	7.211	1.320	0	0	92.110	92.110

[Peak Table(Ch2)]
# of Peaks	0

[Peak Table(Ch3)]
# of Peaks	5
Peak#	R.Time	I.Time	F.Time	Area	Height	A/H	Conc.	Mark	ID#	Name	k'	Plate #	Plate Ht.	Tailing	Resolution	Sep.Factor	Area Ratio	Height Ratio	Conc. %	Norm Conc.
1	2.458	2.440	2.502	730	287	2.539	0.000	   			0.000	13489	11.120	0.000	0.000	0.000	0	0	0.000	0.000
2	2.521	2.502	2.565	395	150	2.632	0.000	 V 			0.025	4735	31.682	0.000	0.539	0.000	0	0	0.000	0.000
3	2.620	2.565	2.704	477	114	4.193	0.000	 V 			0.066	7522	19.940	0.000	0.741	2.588	0	0	0.000	0.000
4	2.891	2.836	3.170	17924	3774	4.749	0.265	   	1	N2O	0.176	14135	10.612	2.984	2.488	2.682	0	0	100.000	100.000
5	3.386	3.265	3.511	937	127	7.365	0.000	   			0.377	4874	30.775	1.023	3.399	2.144	0	0	0.000	0.000

[Compound Results(Ch1)]
# of IDs	6
ID#	Name	R.Time	Area	Height	Conc.	Curve	3rd	2nd	1st	Constant	Area Ratio	Height Ratio	Conc. %	Norm Conc.
1	CO	1.472	9275	4614	0.000	Linear	0.000000e+00	0.000000e+00	0.000000e+00	0.000000e+00	0	0	0.000	0.000
2	CH4	1.564	4379	2210	21.347	Linear	0.000000e+00	0.000000e+00	2.051179e+002	0.000000e+00	0	0	7.890	7.890
3	CO2	1.989	1293164	623584	249.217	Linear	0.000000e+00	0.000000e+00	5.188919e+003	0.000000e+00	0	0	92.110	92.110
4	Ethylene	0.000	0	0	0.000	Linear	0.000000e+00	0.000000e+00	0.000000e+00	0.000000e+00	0	0	0.000	0.000
5	Acetylene	0.000	0	0	0.000	Linear	0.000000e+00	0.000000e+00	0.000000e+00	0.000000e+00	0	0	0.000	0.000
6	Ethane	0.000	0	0	0.000	Linear	0.000000e+00	0.000000e+00	0.000000e+00	0.000000e+00	0	0	0.000	0.000

[Compound Results(Ch2)]
# of IDs	5
ID#	Name	R.Time	Area	Height	Conc.	Curve	3rd	2nd	1st	Constant	Area Ratio	Height Ratio	Conc. %	Norm Conc.
1	Hydrogen	0.000	0	0	0.000	Linear	0.000000e+00	0.000000e+00	0.000000e+00	0.000000e+00	0	0	0.000	0.000
2	Oxygen	0.000	0	0	0.000	Linear	0.000000e+00	0.000000e+00	0.000000e+00	0.000000e+00	0	0	0.000	0.000
3	Nitrogen	0.000	0	0	0.000	Linear	0.000000e+00	0.000000e+00	0.000000e+00	0.000000e+00	0	0	0.000	0.000
4	Methane	0.000	0	0	0.000	Linear	0.000000e+00	0.000000e+00	0.000000e+00	0.000000e+00	0	0	0.000	0.000
5	Carbon Monoxide	0.000	0	0	0.000	Linear	0.000000e+00	0.000000e+00	0.000000e+00	0.000000e+00	0	0	0.000	0.000

[Compound Results(Ch3)]
# of IDs	2
ID#	Name	R.Time	Area	Height	Conc.	Curve	3rd	2nd	1st	Constant	Area Ratio	Height Ratio	Conc. %	Norm Conc.
1	N2O	2.891	17924	3774	0.265	Linear	0.000000e+00	0.000000e+00	6.759880e+004	0.000000e+00	0	0	100.000	100.000
2	SF6	0.000	0	0	0.000	Linear	0.000000e+00	0.000000e+00	0.000000e+00	0.000000e+00	0	0	0.000	0.000

[Group Results(Ch1)]
# of Groups	0

[Group Results(Ch2)]
# of Groups	0

[Group Results(Ch3)]
# of Groups	0

[Chromatogram (Ch1)]
Interval(msec)	220
# of Points	1091
Start Time(min)	0.002
End Time(min)	3.998
R.Time (min)	Intensity
0.00167	21
0.00533	22
0.00900	23
0.01267	23
0.01633	18
0.02000	11
0.02367	7
0.02733	8
0.03100	16
0.03467	25
0.03833	30
0.04200	30
0.04567	29
0.04933	31
0.05300	33
0.05667	33
0.06033	32
0.06400	30
0.06767	28
0.07133	25
0.07500	21
0.07867	17
0.08233	18
0.08600	23
0.08967	29
0.09333	32
0.09700	32
0.10067	29
0.10433	23
0.10800	18
0.11167	15
0.11533	15
0.11900	15
0.12267	15
0.12633	17
0.13000	20
0.13367	23
0.13733	26
0.14100	28
0.14467	26
0.14833	25
0.15200	28
0.15567	37
0.15933	46
0.16300	55
0.16667	60
0.17033	64
0.17400	66
0.17767	70
0.18133	74
0.18500	80
0.18867	89
0.19233	99
0.19600	107
0.19967	115
0.20333	121
0.20700	125
0.21067	129
0.21433	135
0.21800	144
0.22167	155
0.22533	167
0.22900	176
0.23267	180
0.23633	179
0.24000	177
0.24367	175
0.24733	170
0.25100	167
0.25467	168
0.25833	168
0.26200	168
0.26567	167
0.26933	166
0.27300	165
0.27667	165
0.28033	164
0.28400	160
0.28767	155
0.29133	149
0.29500	140
0.29867	130
0.30233	123
0.30600	118
0.30967	115
0.31333	112
0.31700	108
0.32067	104
0.32433	99
0.32800	91
0.33167	82
0.33533	74
0.33900	65
0.34267	55
0.34633	49
0.35000	42
0.35367	34
0.35733	26
0.36100	20
0.36467	17
0.36833	18
0.37200	24
0.37567	27
0.37933	28
0.38300	28
0.38667	28
0.39033	28
0.39400	29
0.39767	33
0.40133	36
0.40500	37
0.40867	36
0.41233	31
0.41600	23
0.41967	17
0.42333	14
0.42700	13
0.43067	13
0.43433	14
0.43800	13
0.44167	11
0.44533	11
0.44900	11
0.45267	13
0.45633	14
0.46000	14
0.46367	13
0.46733	9
0.47100	5
0.47467	3
0.47833	4
0.48200	7
0.48567	12
0.48933	14
0.49300	14
0.49667	14
0.50033	14
0.50400	13
0.50767	9
0.51133	6
0.51500	4
0.51867	4
0.52233	7
0.52600	9
0.52967	9
0.53333	9
0.53700	8
0.54067	8
0.54433	8
0.54800	7
0.55167	5
0.55533	3
0.55900	-0
0.56267	-2
0.56633	-1
0.57000	-1
0.57367	0
0.57733	2
0.58100	4
0.58467	5
0.58833	5
0.59200	6
0.59567	7
0.59933	8
0.60300	10
0.60667	9
0.61033	7
0.61400	3
0.61767	-5
0.62133	-14
0.62500	-22
0.62867	-21
0.63233	-14
0.63600	-5
0.63967	1
0.64333	4
0.64700	10
0.65067	15
0.65433	17
0.65800	14
0.66167	9
0.66533	5
0.66900	0
0.67267	-6
0.67633	-11
0.68000	-13
0.68367	-11
0.68733	-9
0.69100	-8
0.69467	-8
0.69833	-7
0.70200	-3
0.70567	1
0.70933	4
0.71300	3
0.71667	2
0.72033	3
0.72400	4
0.72767	4
0.73133	4
0.73500	4
0.73867	3
0.74233	2
0.74600	2
0.74967	2
0.75333	1
0.75700	2
0.76067	4
0.76433	5
0.76800	1
0.77167	-3
0.77533	-8
0.77900	-11
0.78267	-13
0.78633	-10
0.79000	-8
0.79367	-8
0.79733	-7
0.80100	-5
0.80467	-5
0.80833	-5
0.81200	-6
0.81567	-7
0.81933	-7
0.82300	-7
0.82667	-6
0.83033	-5
0.83400	-6
0.83767	-9
0.84133	-11
0.84500	-9
0.84867	-7
0.85233	-5
0.85600	-4
0.85967	-2
0.86333	-3
0.86700	-6
0.87067	-8
0.87433	-7
0.87800	-4
0.88167	1
0.88533	5
0.88900	6
0.89267	2
0.89633	-5
0.90000	-12
0.90367	-16
0.90733	-15
0.91100	-13
0.91467	-9
0.91833	-5
0.92200	1
0.92567	4
0.92933	4
0.93300	2
0.93667	-3
0.94033	-8
0.94400	-13
0.94767	-15
0.95133	-12
0.95500	-7
0.95867	-4
0.96233	-3
0.96600	-3
0.96967	-4
0.97333	-7
0.97700	-12
0.98067	-15
0.98433	-17
0.98800	-20
0.99167	-25
0.99533	-30
0.99900	-34
1.00267	-35
1.00633	-33
1.01000	-28
1.01367	-19
1.01733	-12
1.02100	-9
1.02467	-9
1.02833	-10
1.03200	-11
1.03567	-9
1.03933	-7
1.04300	-6
1.04667	-7
1.05033	-6
1.05400	-4
1.05767	-2
1.06133	-2
1.06500	-6
1.06867	-15
1.07233	-23
1.07600	-30
1.07967	-35
1.08333	-38
1.08700	-40
1.09067	-39
1.09433	-33
1.09800	-25
1.10167	-18
1.10533	-13
1.10900	-10
1.11267	-9
1.11633	-14
1.12000	-20
1.12367	-24
1.12733	-26
1.13100	-26
1.13467	-24
1.13833	-23
1.14200	-21
1.14567	-21
1.14933	-19
1.15300	-18
1.15667	-17
1.16033	-20
1.16400	-28
1.16767	-36
1.17133	-40
1.17500	-40
1.17867	-38
1.18233	-36
1.18600	-36
1.18967	-35
1.19333	-35
1.19700	-35
1.20067	-33
1.20433	-31
1.20800	-27
1.21167	-25
1.21533	-22
1.21900	-20
1.22267	-23
1.22633	-26
1.23000	-28
1.23367	-29
1.23733	-29
1.24100	-30
1.24467	-31
1.24833	-32
1.25200	-35
1.25567	-40
1.25933	-44
1.26300	-45
1.26667	-42
1.27033	-38
1.27400	-36
1.27767	-35
1.28133	-35
1.28500	-37
1.28867	-38
1.29233	-39
1.29600	-41
1.29967	-43
1.30333	-42
1.30700	-39
1.31067	-39
1.31433	-38
1.31800	-37
1.32167	-37
1.32533	-39
1.32900	-38
1.33267	-38
1.33633	-43
1.34000	-49
1.34367	-50
1.34733	-49
1.35100	-44
1.35467	-38
1.35833	-31
1.36200	-27
1.36567	-26
1.36933	-26
1.37300	-26
1.37667	-28
1.38033	-31
1.38400	-34
1.38767	-40
1.39133	-47
1.39500	-51
1.39867	-53
1.40233	-56
1.40600	-61
1.40967	-62
1.41333	-60
1.41700	-58
1.42067	-55
1.42433	-52
1.42800	-51
1.43167	-49
1.43533	-39
1.43900	-16
1.44267	32
1.44633	226
1.45000	746
1.45367	1574
1.45733	2506
1.46100	3356
1.46467	4023
1.46833	4447
1.47200	4563
1.47567	4334
1.47933	3809
1.48300	3115
1.48667	2401
1.49033	1766
1.49400	1257
1.49767	874
1.50133	597
1.50500	405
1.50867	275
1.51233	189
1.51600	133
1.51967	94
1.52333	62
1.52700	39
1.53067	29
1.53433	51
1.53800	164
1.54167	421
1.54533	807
1.54900	1242
1.55267	1639
1.55633	1944
1.56000	2125
1.56367	2153
1.56733	2011
1.57100	1727
1.57467	1368
1.57833	1012
1.58200	709
1.58567	476
1.58933	307
1.59300	191
1.59667	113
1.60033	60
1.60400	24
1.60767	-2
1.61133	-19
1.61500	-31
1.61867	-40
1.62233	-47
1.62600	-53
1.62967	-61
1.63333	-66
1.63700	-68
1.64067	-68
1.64433	-69
1.64800	-70
1.65167	-71
1.65533	-69
1.65900	-65
1.66267	-62
1.66633	-61
1.67000	-63
1.67367	-65
1.67733	-68
1.68100	-68
1.68467	-67
1.68833	-66
1.69200	-64
1.69567	-61
1.69933	-60
1.70300	-59
1.70667	-56
1.71033	-55
1.71400	-58
1.71767	-62
1.72133	-66
1.72500	-71
1.72867	-76
1.73233	-79
1.73600	-82
1.73967	-85
1.74333	-85
1.74700	-81
1.75067	-72
1.75433	-61
1.75800	-55
1.76167	-55
1.76533	-60
1.76900	-65
1.77267	-71
1.77633	-75
1.78000	-79
1.78367	-82
1.78733	-83
1.79100	-78
1.79467	-71
1.79833	-63
1.80200	-56
1.80567	-51
1.80933	-47
1.81300	-45
1.81667	-42
1.82033	-39
1.82400	-39
1.82767	-41
1.83133	-43
1.83500	-45
1.83867	-46
1.84233	-48
1.84600	-53
1.84967	-60
1.85333	-67
1.85700	-71
1.86067	-70
1.86433	-65
1.86800	-60
1.87167	-57
1.87533	-57
1.87900	-59
1.88267	-64
1.88633	-67
1.89000	-65
1.89367	-64
1.89733	-66
1.90100	-70
1.90467	-75
1.90833	-79
1.91200	-80
1.91567	-80
1.91933	-80
1.92300	-80
1.92667	-78
1.93033	-78
1.93400	-77
1.93767	-72
1.94133	-62
1.94500	-41
1.94867	48
1.95233	550
1.95600	2948
1.95967	11592
1.96333	35269
1.96700	85499
1.97067	169005
1.97433	279968
1.97800	400549
1.98167	509089
1.98533	587534
1.98900	623534
1.99267	612587
1.99633	559470
2.00000	477214
2.00367	382916
2.00733	291910
2.01100	213873
2.01467	152390
2.01833	106795
2.02200	74377
2.02567	51968
2.02933	36740
2.03300	26482
2.03667	19577
2.04033	14900
2.04400	11696
2.04767	9465
2.05133	7881
2.05500	6729
2.05867	5867
2.06233	5200
2.06600	4672
2.06967	4246
2.07333	3894
2.07700	3598
2.08067	3346
2.08433	3128
2.08800	2938
2.09167	2769
2.09533	2615
2.09900	2477
2.10267	2353
2.10633	2240
2.11000	2134
2.11367	2033
2.11733	1939
2.12100	1850
2.12467	1767
2.12833	1694
2.13200	1631
2.13567	1574
2.13933	1520
2.14300	1468
2.14667	1420
2.15033	1375
2.15400	1330
2.15767	1283
2.16133	1236
2.16500	1196
2.16867	1163
2.17233	1134
2.17600	1108
2.17967	1081
2.18333	1053
2.18700	1025
2.19067	999
2.19433	971
2.19800	943
2.20167	918
2.20533	894
2.20900	872
2.21267	852
2.21633	833
2.22000	810
2.22367	787
2.22733	766
2.23100	749
2.23467	733
2.23833	716
2.24200	699
2.24567	678
2.24933	658
2.25300	641
2.25667	628
2.26033	618
2.26400	609
2.26767	600
2.27133	592
2.27500	586
2.27867	582
2.28233	578
2.28600	567
2.28967	548
2.29333	529
2.29700	513
2.30067	501
2.30433	489
2.30800	477
2.31167	469
2.31533	464
2.31900	460
2.32267	454
2.32633	448
2.33000	442
2.33367	434
2.33733	424
2.34100	415
2.34467	410
2.34833	406
2.35200	401
2.35567	397
2.35933	390
2.36300	383
2.36667	379
2.37033	377
2.37400	374
2.37767	372
2.38133	370
2.38500	368
2.38867	366
2.39233	355
2.39600	342
2.39967	333
2.40333	327
2.40700	322
2.41067	317
2.41433	314
2.41800	312
2.42167	310
2.42533	309
2.42900	305
2.43267	301
2.43633	296
2.44000	291
2.44367	288
2.44733	287
2.45100	285
2.45467	281
2.45833	277
2.46200	277
2.46567	280
2.46933	279
2.47300	277
2.47667	275
2.48033	270
2.48400	263
2.48767	255
2.49133	250
2.49500	245
2.49867	240
2.50233	235
2.50600	232
2.50967	229
2.51333	224
2.51700	221
2.52067	221
2.52433	222
2.52800	223
2.53167	225
2.53533	226
2.53900	225
2.54267	224
2.54633	222
2.55000	220
2.55367	215
2.55733	211
2.56100	210
2.56467	213
2.56833	214
2.57200	213
2.57567	211
2.57933	208
2.58300	202
2.58667	197
2.59033	195
2.59400	194
2.59767	195
2.60133	198
2.60500	198
2.60867	197
2.61233	195
2.61600	192
2.61967	191
2.62333	193
2.62700	194
2.63067	194
2.63433	196
2.63800	194
2.64167	189
2.64533	185
2.64900	185
2.65267	189
2.65633	193
2.66000	194
2.66367	191
2.66733	189
2.67100	186
2.67467	181
2.67833	175
2.68200	168
2.68567	162
2.68933	162
2.69300	164
2.69667	164
2.70033	161
2.70400	161
2.70767	165
2.71133	170
2.71500	173
2.71867	172
2.72233	168
2.72600	166
2.72967	166
2.73333	166
2.73700	164
2.74067	163
2.74433	161
2.74800	160
2.75167	159
2.75533	160
2.75900	161
2.76267	158
2.76633	153
2.77000	150
2.77367	152
2.77733	154
2.78100	154
2.78467	151
2.78833	146
2.79200	139
2.79567	135
2.79933	134
2.80300	134
2.80667	134
2.81033	134
2.81400	134
2.81767	134
2.82133	136
2.82500	138
2.82867	142
2.83233	146
2.83600	146
2.83967	143
2.84333	141
2.84700	139
2.85067	136
2.85433	132
2.85800	125
2.86167	120
2.86533	120
2.86900	126
2.87267	136
2.87633	148
2.88000	151
2.88367	148
2.88733	143
2.89100	137
2.89467	131
2.89833	129
2.90200	128
2.90567	128
2.90933	129
2.91300	125
2.91667	118
2.92033	110
2.92400	103
2.92767	99
2.93133	100
2.93500	102
2.93867	103
2.94233	105
2.94600	109
2.94967	117
2.95333	128
2.95700	139
2.96067	145
2.96433	142
2.96800	136
2.97167	130
2.97533	126
2.97900	126
2.98267	126
2.98633	124
2.99000	124
2.99367	128
2.99733	134
3.00100	139
3.00467	142
3.00833	141
3.01200	140
3.01567	138
3.01933	136
3.02300	135
3.02667	133
3.03033	130
3.03400	126
3.03767	123
3.04133	120
3.04500	118
3.04867	118
3.05233	116
3.05600	112
3.05967	110
3.06333	110
3.06700	112
3.07067	112
3.07433	110
3.07800	110
3.08167	111
3.08533	110
3.08900	109
3.09267	106
3.09633	102
3.10000	99
3.10367	100
3.10733	103
3.11100	107
3.11467	112
3.11833	116
3.12200	118
3.12567	115
3.12933	112
3.13300	108
3.13667	105
3.14033	105
3.14400	107
3.14767	105
3.15133	100
3.15500	98
3.15867	101
3.16233	105
3.16600	108
3.16967	111
3.17333	114
3.17700	114
3.18067	112
3.18433	108
3.18800	104
3.19167	97
3.19533	90
3.19900	89
3.20267	88
3.20633	85
3.21000	83
3.21367	85
3.21733	91
3.22100	97
3.22467	100
3.22833	104
3.23200	108
3.23567	110
3.23933	112
3.24300	112
3.24667	109
3.25033	104
3.25400	99
3.25767	94
3.26133	89
3.26500	85
3.26867	81
3.27233	78
3.27600	76
3.27967	75
3.28333	78
3.28700	80
3.29067	79
3.29433	77
3.29800	76
3.30167	75
3.30533	75
3.30900	76
3.31267	78
3.31633	81
3.32000	87
3.32367	89
3.32733	87
3.33100	83
3.33467	77
3.33833	70
3.34200	64
3.34567	60
3.34933	61
3.35300	65
3.35667	71
3.36033	79
3.36400	88
3.36767	97
3.37133	104
3.37500	109
3.37867	109
3.38233	107
3.38600	106
3.38967	108
3.39333	109
3.39700	106
3.40067	100
3.40433	96
3.40800	93
3.41167	90
3.41533	86
3.41900	81
3.42267	75
3.42633	69
3.43000	67
3.43367	68
3.43733	71
3.44100	75
3.44467	78
3.44833	80
3.45200	80
3.45567	77
3.45933	74
3.46300	73
3.46667	72
3.47033	68
3.47400	62
3.47767	58
3.48133	57
3.48500	60
3.48867	66
3.49233	71
3.49600	73
3.49967	69
3.50333	61
3.50700	59
3.51067	65
3.51433	75
3.51800	81
3.52167	79
3.52533	74
3.52900	70
3.53267	66
3.53633	64
3.54000	65
3.54367	69
3.54733	72
3.55100	73
3.55467	73
3.55833	71
3.56200	70
3.56567	70
3.56933	69
3.57300	65
3.57667	58
3.58033	54
3.58400	55
3.58767	62
3.59133	65
3.59500	66
3.59867	67
3.60233	71
3.60600	76
3.60967	79
3.61333	79
3.61700	75
3.62067	73
3.62433	74
3.62800	74
3.63167	71
3.63533	65
3.63900	62
3.64267	62
3.64633	63
3.65000	64
3.65367	64
3.65733	63
3.66100	62
3.66467	62
3.66833	59
3.67200	53
3.67567	47
3.67933	43
3.68300	41
3.68667	41
3.69033	42
3.69400	42
3.69767	43
3.70133	44
3.70500	45
3.70867	45
3.71233	43
3.71600	42
3.71967	42
3.72333	45
3.72700	50
3.73067	54
3.73433	58
3.73800	61
3.74167	65
3.74533	69
3.74900	72
3.75267	71
3.75633	66
3.76000	57
3.76367	48
3.76733	39
3.77100	36
3.77467	34
3.77833	29
3.78200	26
3.78567	26
3.78933	29
3.79300	32
3.79667	36
3.80033	41
3.80400	44
3.80767	46
3.81133	46
3.81500	47
3.81867	50
3.82233	52
3.82600	52
3.82967	46
3.83333	39
3.83700	33
3.84067	32
3.84433	32
3.84800	34
3.85167	32
3.85533	27
3.85900	20
3.86267	18
3.86633	21
3.87000	26
3.87367	29
3.87733	30
3.88100	32
3.88467	38
3.88833	45
3.89200	46
3.89567	44
3.89933	42
3.90300	39
3.90667	36
3.91033	33
3.91400	28
3.91767	25
3.92133	27
3.92500	33
3.92867	38
3.93233	43
3.93600	47
3.93967	46
3.94333	40
3.94700	32
3.95067	23
3.95433	17
3.95800	18
3.96167	24
3.96533	29
3.96900	32
3.97267	36
3.97633	43
3.98000	47
3.98367	48
3.98733	48
3.99100	46
3.99467	43
3.99833	40

[Chromatogram (Ch2)]
Interval(msec)	220
# of Points	1091
Start Time(min)	0.002
End Time(min)	3.998
R.Time (min)	Intensity
0.00167	0
0.00533	0
0.00900	0
0.01267	0
0.01633	-0
0.02000	-0
0.02367	-0
0.02733	-0
0.03100	-0
0.03467	-0
0.03833	-1
0.04200	-0
0.04567	-0
0.04933	-0
0.05300	-0
0.05667	0
0.06033	0
0.06400	-0
0.06767	-0
0.07133	0
0.07500	0
0.07867	0
0.08233	0
0.08600	0
0.08967	0
0.09333	-0
0.09700	0
0.10067	0
0.10433	1
0.10800	1
0.11167	1
0.11533	1
0.11900	1
0.12267	1
0.12633	1
0.13000	1
0.13367	1
0.13733	1
0.14100	1
0.14467	1
0.14833	1
0.15200	1
0.15567	1
0.15933	1
0.16300	1
0.16667	1
0.17033	1
0.17400	1
0.17767	1
0.18133	1
0.18500	0
0.18867	0
0.19233	-0
0.19600	-1
0.19967	-1
0.20333	-1
0.20700	-1
0.21067	-1
0.21433	-1
0.21800	-1
0.22167	-1
0.22533	-1
0.22900	-1
0.23267	-1
0.23633	-1
0.24000	-1
0.24367	-1
0.24733	-1
0.25100	-1
0.25467	-1
0.25833	-1
0.26200	-1
0.26567	-2
0.26933	-2
0.27300	-2
0.27667	-2
0.28033	-2
0.28400	-2
0.28767	-2
0.29133	-2
0.29500	-2
0.29867	-2
0.30233	-2
0.30600	-1
0.30967	-1
0.31333	-1
0.31700	-1
0.32067	-1
0.32433	-1
0.32800	-1
0.33167	-1
0.33533	-1
0.33900	-1
0.34267	-0
0.34633	-0
0.35000	0
0.35367	0
0.35733	-0
0.36100	-0
0.36467	-0
0.36833	-1
0.37200	-1
0.37567	-1
0.37933	-1
0.38300	-2
0.38667	-2
0.39033	-2
0.39400	-2
0.39767	-2
0.40133	-2
0.40500	-2
0.40867	-2
0.41233	-2
0.41600	-2
0.41967	-1
0.42333	-1
0.42700	-1
0.43067	-1
0.43433	-0
0.43800	-0
0.44167	-0
0.44533	-0
0.44900	-0
0.45267	-0
0.45633	-0
0.46000	-0
0.46367	-0
0.46733	-1
0.47100	-1
0.47467	-1
0.47833	-1
0.48200	-1
0.48567	-1
0.48933	-1
0.49300	-1
0.49667	-1
0.50033	-0
0.50400	-0
0.50767	-0
0.51133	-0
0.51500	-0
0.51867	-0
0.52233	0
0.52600	0
0.52967	0
0.53333	0
0.53700	-0
0.54067	-0
0.54433	-0
0.54800	-0
0.55167	-0
0.55533	-0
0.55900	-0
0.56267	-0
0.56633	-1
0.57000	-0
0.57367	-0
0.57733	-0
0.58100	-0
0.58467	-0
0.58833	-0
0.59200	-0
0.59567	-0
0.59933	-0
0.60300	-0
0.60667	-1
0.61033	-1
0.61400	-1
0.61767	-1
0.62133	-1
0.62500	-1
0.62867	-1
0.63233	-1
0.63600	-1
0.63967	-1
0.64333	-1
0.64700	-1
0.65067	-0
0.65433	-0
0.65800	-0
0.66167	-0
0.66533	-0
0.66900	-1
0.67267	-1
0.67633	-1
0.68000	-1
0.68367	-1
0.68733	-1
0.69100	-1
0.69467	-1
0.69833	-1
0.70200	-1
0.70567	-1
0.70933	-2
0.71300	-2
0.71667	-2
0.72033	-2
0.72400	-1
0.72767	-1
0.73133	-1
0.73500	-1
0.73867	-1
0.74233	-2
0.74600	-2
0.74967	-2
0.75333	-2
0.75700	-2
0.76067	-2
0.76433	-1
0.76800	-1
0.77167	-1
0.77533	-1
0.77900	-1
0.78267	-2
0.78633	-2
0.79000	-2
0.79367	-2
0.79733	-2
0.80100	-2
0.80467	-2
0.80833	-2
0.81200	-2
0.81567	-2
0.81933	-2
0.82300	-1
0.82667	-1
0.83033	-1
0.83400	-1
0.83767	-1
0.84133	-1
0.84500	-1
0.84867	-1
0.85233	-1
0.85600	-1
0.85967	-1
0.86333	-2
0.86700	-2
0.87067	-2
0.87433	-2
0.87800	-2
0.88167	-2
0.88533	-2
0.88900	-2
0.89267	-2
0.89633	-2
0.90000	-2
0.90367	-2
0.90733	-2
0.91100	-2
0.91467	-2
0.91833	-2
0.92200	-2
0.92567	-2
0.92933	-2
0.93300	-2
0.93667	-1
0.94033	-1
0.94400	-1
0.94767	-2
0.95133	-2
0.95500	-2
0.95867	-2
0.96233	-2
0.96600	-2
0.96967	-2
0.97333	-2
0.97700	-3
0.98067	-3
0.98433	-3
0.98800	-3
0.99167	-3
0.99533	-3
0.99900	-3
1.00267	-3
1.00633	-3
1.01000	-3
1.01367	-3
1.01733	-2
1.02100	-3
1.02467	-2
1.02833	-2
1.03200	-2
1.03567	-2
1.03933	-2
1.04300	-2
1.04667	-2
1.05033	-2
1.05400	-2
1.05767	-2
1.06133	-2
1.06500	-2
1.06867	-2
1.07233	-2
1.07600	-2
1.07967	-2
1.08333	-2
1.08700	-2
1.09067	-2
1.09433	-2
1.09800	-2
1.10167	-2
1.10533	-2
1.10900	-2
1.11267	-2
1.11633	-2
1.12000	-2
1.12367	-2
1.12733	-2
1.13100	-2
1.13467	-2
1.13833	-2
1.14200	-2
1.14567	-2
1.14933	-2
1.15300	-2
1.15667	-2
1.16033	-2
1.16400	-2
1.16767	-2
1.17133	-2
1.17500	-2
1.17867	-2
1.18233	-2
1.18600	-2
1.18967	-1
1.19333	-1
1.19700	-1
1.20067	-1
1.20433	-1
1.20800	-2
1.21167	-2
1.21533	-2
1.21900	-2
1.22267	-2
1.22633	-2
1.23000	-2
1.23367	-2
1.23733	-2
1.24100	-2
1.24467	-2
1.24833	-2
1.25200	-2
1.25567	-2
1.25933	-2
1.26300	-3
1.26667	-3
1.27033	-3
1.27400	-3
1.27767	-3
1.28133	-3
1.28500	-3
1.28867	-3
1.29233	-3
1.29600	-3
1.29967	-3
1.30333	-3
1.30700	-3
1.31067	-3
1.31433	-3
1.31800	-3
1.32167	-3
1.32533	-3
1.32900	-3
1.33267	-3
1.33633	-3
1.34000	-3
1.34367	-3
1.34733	-3
1.35100	-3
1.35467	-2
1.35833	-2
1.36200	-2
1.36567	-2
1.36933	-2
1.37300	-2
1.37667	-1
1.38033	-1
1.38400	-1
1.38767	-1
1.39133	-1
1.39500	-1
1.39867	-2
1.40233	-2
1.40600	-2
1.40967	-2
1.41333	-2
1.41700	-2
1.42067	-2
1.42433	-2
1.42800	-2
1.43167	-2
1.43533	-2
1.43900	-2
1.44267	-2
1.44633	-2
1.45000	-2
1.45367	-2
1.45733	-2
1.46100	-2
1.46467	-2
1.46833	-2
1.47200	-2
1.47567	-2
1.47933	-2
1.48300	-3
1.48667	-3
1.49033	-3
1.49400	-3
1.49767	-3
1.50133	-3
1.50500	-3
1.50867	-3
1.51233	-3
1.51600	-3
1.51967	-3
1.52333	-3
1.52700	-3
1.53067	-3
1.53433	-3
1.53800	-3
1.54167	-3
1.54533	-4
1.54900	-4
1.55267	-4
1.55633	-4
1.56000	-4
1.56367	-3
1.56733	-3
1.57100	-3
1.57467	-3
1.57833	-3
1.58200	-3
1.58567	-3
1.58933	-3
1.59300	-3
1.59667	-4
1.60033	-5
1.60400	-6
1.60767	-7
1.61133	-9
1.61500	-10
1.61867	-12
1.62233	-15
1.62600	-18
1.62967	-20
1.63333	-23
1.63700	-27
1.64067	-30
1.64433	-33
1.64800	-36
1.65167	-40
1.65533	-43
1.65900	-47
1.66267	-51
1.66633	-55
1.67000	-59
1.67367	-64
1.67733	-68
1.68100	-72
1.68467	-76
1.68833	-80
1.69200	-83
1.69567	-85
1.69933	-87
1.70300	-89
1.70667	-91
1.71033	-92
1.71400	-93
1.71767	-94
1.72133	-94
1.72500	-94
1.72867	-95
1.73233	-95
1.73600	-95
1.73967	-96
1.74333	-96
1.74700	-96
1.75067	-97
1.75433	-97
1.75800	-98
1.76167	-98
1.76533	-99
1.76900	-99
1.77267	-99
1.77633	-99
1.78000	-98
1.78367	-98
1.78733	-98
1.79100	-99
1.79467	-99
1.79833	-99
1.80200	-99
1.80567	-99
1.80933	-98
1.81300	-97
1.81667	-97
1.82033	-97
1.82400	-97
1.82767	-97
1.83133	-97
1.83500	-97
1.83867	-98
1.84233	-98
1.84600	-98
1.84967	-97
1.85333	-97
1.85700	-98
1.86067	-98
1.86433	-98
1.86800	-99
1.87167	-99
1.87533	-99
1.87900	-99
1.88267	-98
1.88633	-98
1.89000	-97
1.89367	-97
1.89733	-96
1.90100	-96
1.90467	-96
1.90833	-96
1.91200	-97
1.91567	-97
1.91933	-97
1.92300	-97
1.92667	-96
1.93033	-95
1.93400	-95
1.93767	-95
1.94133	-94
1.94500	-94
1.94867	-94
1.95233	-94
1.95600	-94
1.95967	-95
1.96333	-95
1.96700	-95
1.97067	-96
1.97433	-96
1.97800	-96
1.98167	-96
1.98533	-96
1.98900	-96
1.99267	-95
1.99633	-95
2.00000	-94
2.00367	-93
2.00733	-92
2.01100	-92
2.01467	-92
2.01833	-91
2.02200	-91
2.02567	-91
2.02933	-90
2.03300	-90
2.03667	-89
2.04033	-89
2.04400	-89
2.04767	-89
2.05133	-89
2.05500	-89
2.05867	-88
2.06233	-88
2.06600	-87
2.06967	-86
2.07333	-86
2.07700	-85
2.08067	-85
2.08433	-85
2.08800	-85
2.09167	-85
2.09533	-85
2.09900	-85
2.10267	-85
2.10633	-85
2.11000	-85
2.11367	-84
2.11733	-83
2.12100	-82
2.12467	-81
2.12833	-81
2.13200	-80
2.13567	-80
2.13933	-80
2.14300	-80
2.14667	-80
2.15033	-80
2.15400	-80
2.15767	-80
2.16133	-79
2.16500	-79
2.16867	-78
2.17233	-78
2.17600	-77
2.17967	-77
2.18333	-77
2.18700	-77
2.19067	-77
2.19433	-77
2.19800	-77
2.20167	-77
2.20533	-77
2.20900	-76
2.21267	-76
2.21633	-75
2.22000	-75
2.22367	-75
2.22733	-74
2.23100	-74
2.23467	-73
2.23833	-72
2.24200	-72
2.24567	-72
2.24933	-72
2.25300	-72
2.25667	-72
2.26033	-72
2.26400	-72
2.26767	-71
2.27133	-71
2.27500	-70
2.27867	-70
2.28233	-70
2.28600	-70
2.28967	-70
2.29333	-70
2.29700	-70
2.30067	-70
2.30433	-70
2.30800	-70
2.31167	-69
2.31533	-69
2.31900	-69
2.32267	-68
2.32633	-68
2.33000	-67
2.33367	-66
2.33733	-65
2.34100	-65
2.34467	-64
2.34833	-63
2.35200	-63
2.35567	-61
2.35933	-61
2.36300	-60
2.36667	-58
2.37033	-57
2.37400	-55
2.37767	-53
2.38133	-50
2.38500	-47
2.38867	-43
2.39233	-39
2.39600	-35
2.39967	-31
2.40333	-27
2.40700	-23
2.41067	-19
2.41433	-15
2.41800	-12
2.42167	-9
2.42533	-6
2.42900	-3
2.43267	-1
2.43633	0
2.44000	2
2.44367	3
2.44733	4
2.45100	6
2.45467	7
2.45833	8
2.46200	10
2.46567	11
2.46933	12
2.47300	13
2.47667	13
2.48033	13
2.48400	13
2.48767	14
2.49133	14
2.49500	15
2.49867	15
2.50233	16
2.50600	17
2.50967	17
2.51333	18
2.51700	18
2.52067	18
2.52433	18
2.52800	19
2.53167	19
2.53533	19
2.53900	19
2.54267	19
2.54633	18
2.55000	17
2.55367	16
2.55733	15
2.56100	14
2.56467	14
2.56833	13
2.57200	12
2.57567	12
2.57933	12
2.58300	13
2.58667	14
2.59033	14
2.59400	15
2.59767	16
2.60133	17
2.60500	18
2.60867	19
2.61233	19
2.61600	19
2.61967	20
2.62333	20
2.62700	20
2.63067	20
2.63433	20
2.63800	20
2.64167	20
2.64533	21
2.64900	21
2.65267	21
2.65633	22
2.66000	22
2.66367	22
2.66733	22
2.67100	22
2.67467	22
2.67833	23
2.68200	23
2.68567	23
2.68933	24
2.69300	24
2.69667	24
2.70033	25
2.70400	25
2.70767	26
2.71133	26
2.71500	26
2.71867	27
2.72233	27
2.72600	27
2.72967	27
2.73333	28
2.73700	27
2.74067	27
2.74433	27
2.74800	26
2.75167	26
2.75533	26
2.75900	26
2.76267	26
2.76633	26
2.77000	26
2.77367	27
2.77733	27
2.78100	27
2.78467	28
2.78833	28
2.79200	29
2.79567	29
2.79933	29
2.80300	29
2.80667	29
2.81033	29
2.81400	29
2.81767	30
2.82133	30
2.82500	30
2.82867	30
2.83233	30
2.83600	29
2.83967	29
2.84333	29
2.84700	29
2.85067	28
2.85433	28
2.85800	27
2.86167	24
2.86533	20
2.86900	13
2.87267	2
2.87633	-12
2.88000	-32
2.88367	-57
2.88733	-87
2.89100	-123
2.89467	-163
2.89833	-209
2.90200	-260
2.90567	-315
2.90933	-373
2.91300	-434
2.91667	-498
2.92033	-562
2.92400	-628
2.92767	-692
2.93133	-755
2.93500	-816
2.93867	-872
2.94233	-927
2.94600	-982
2.94967	-1037
2.95333	-1084
2.95700	-1113
2.96067	-1119
2.96433	-1100
2.96800	-1058
2.97167	-999
2.97533	-926
2.97900	-847
2.98267	-765
2.98633	-684
2.99000	-606
2.99367	-533
2.99733	-466
3.00100	-405
3.00467	-350
3.00833	-301
3.01200	-258
3.01567	-220
3.01933	-187
3.02300	-158
3.02667	-134
3.03033	-112
3.03400	-94
3.03767	-78
3.04133	-64
3.04500	-52
3.04867	-42
3.05233	-34
3.05600	-26
3.05967	-20
3.06333	-15
3.06700	-11
3.07067	-7
3.07433	-3
3.07800	-0
3.08167	2
3.08533	4
3.08900	7
3.09267	8
3.09633	10
3.10000	11
3.10367	12
3.10733	13
3.11100	14
3.11467	15
3.11833	15
3.12200	15
3.12567	16
3.12933	16
3.13300	17
3.13667	18
3.14033	18
3.14400	19
3.14767	19
3.15133	19
3.15500	20
3.15867	20
3.16233	21
3.16600	21
3.16967	21
3.17333	21
3.17700	21
3.18067	21
3.18433	21
3.18800	22
3.19167	22
3.19533	22
3.19900	22
3.20267	22
3.20633	22
3.21000	23
3.21367	23
3.21733	23
3.22100	23
3.22467	24
3.22833	24
3.23200	24
3.23567	24
3.23933	24
3.24300	24
3.24667	25
3.25033	25
3.25400	25
3.25767	25
3.26133	25
3.26500	25
3.26867	26
3.27233	26
3.27600	26
3.27967	27
3.28333	27
3.28700	27
3.29067	28
3.29433	28
3.29800	28
3.30167	28
3.30533	28
3.30900	29
3.31267	29
3.31633	29
3.32000	29
3.32367	29
3.32733	29
3.33100	29
3.33467	29
3.33833	29
3.34200	29
3.34567	29
3.34933	29
3.35300	30
3.35667	30
3.36033	30
3.36400	30
3.36767	30
3.37133	30
3.37500	30
3.37867	30
3.38233	30
3.38600	30
3.38967	30
3.39333	30
3.39700	30
3.40067	30
3.40433	30
3.40800	30
3.41167	30
3.41533	30
3.41900	30
3.42267	30
3.42633	29
3.43000	29
3.43367	29
3.43733	29
3.44100	29
3.44467	29
3.44833	29
3.45200	29
3.45567	30
3.45933	30
3.46300	30
3.46667	30
3.47033	30
3.47400	30
3.47767	30
3.48133	30
3.48500	30
3.48867	29
3.49233	29
3.49600	29
3.49967	29
3.50333	29
3.50700	29
3.51067	29
3.51433	29
3.51800	29
3.52167	29
3.52533	29
3.52900	29
3.53267	28
3.53633	28
3.54000	28
3.54367	29
3.54733	29
3.55100	29
3.55467	29
3.55833	30
3.56200	30
3.56567	30
3.56933	30
3.57300	30
3.57667	29
3.58033	29
3.58400	29
3.58767	30
3.59133	30
3.59500	30
3.59867	30
3.60233	30
3.60600	30
3.60967	30
3.61333	30
3.61700	30
3.62067	29
3.62433	29
3.62800	29
3.63167	29
3.63533	29
3.63900	29
3.64267	29
3.64633	29
3.65000	29
3.65367	29
3.65733	29
3.66100	29
3.66467	29
3.66833	29
3.67200	29
3.67567	29
3.67933	29
3.68300	29
3.68667	29
3.69033	29
3.69400	29
3.69767	29
3.70133	29
3.70500	29
3.70867	30
3.71233	30
3.71600	30
3.71967	30
3.72333	30
3.72700	30
3.73067	30
3.73433	31
3.73800	31
3.74167	31
3.74533	31
3.74900	31
3.75267	31
3.75633	30
3.76000	30
3.76367	30
3.76733	30
3.77100	30
3.77467	30
3.77833	30
3.78200	30
3.78567	30
3.78933	30
3.79300	30
3.79667	30
3.80033	30
3.80400	30
3.80767	29
3.81133	30
3.81500	30
3.81867	30
3.82233	30
3.82600	30
3.82967	30
3.83333	30
3.83700	30
3.84067	30
3.84433	30
3.84800	30
3.85167	30
3.85533	29
3.85900	29
3.86267	29
3.86633	30
3.87000	30
3.87367	30
3.87733	30
3.88100	30
3.88467	30
3.88833	30
3.89200	30
3.89567	30
3.89933	30
3.90300	30
3.90667	30
3.91033	30
3.91400	30
3.91767	30
3.92133	30
3.92500	30
3.92867	31
3.93233	31
3.93600	31
3.93967	31
3.94333	31
3.94700	31
3.95067	31
3.95433	31
3.95800	31
3.96167	30
3.96533	30
3.96900	30
3.97267	30
3.97633	30
3.98000	30
3.98367	30
3.98733	30
3.99100	30
3.99467	30
3.99833	30

[Chromatogram (Ch3)]
Interval(msec)	220
# of Points	1091
Start Time(min)	0.002
End Time(min)	3.998
R.Time (min)	Intensity
0.00167	-0
0.00533	2
0.00900	5
0.01267	9
0.01633	9
0.02000	8
0.02367	7
0.02733	3
0.03100	-0
0.03467	-2
0.03833	-1
0.04200	2
0.04567	5
0.04933	8
0.05300	10
0.05667	12
0.06033	12
0.06400	9
0.06767	7
0.07133	5
0.07500	6
0.07867	7
0.08233	5
0.08600	3
0.08967	3
0.09333	4
0.09700	4
0.10067	2
0.10433	1
0.10800	0
0.11167	0
0.11533	1
0.11900	2
0.12267	3
0.12633	3
0.13000	3
0.13367	4
0.13733	6
0.14100	8
0.14467	8
0.14833	5
0.15200	4
0.15567	4
0.15933	4
0.16300	3
0.16667	1
0.17033	1
0.17400	2
0.17767	2
0.18133	3
0.18500	5
0.18867	9
0.19233	8
0.19600	5
0.19967	6
0.20333	7
0.20700	6
0.21067	5
0.21433	5
0.21800	3
0.22167	1
0.22533	0
0.22900	0
0.23267	3
0.23633	4
0.24000	3
0.24367	1
0.24733	-1
0.25100	-4
0.25467	-4
0.25833	-1
0.26200	2
0.26567	4
0.26933	6
0.27300	6
0.27667	5
0.28033	4
0.28400	3
0.28767	1
0.29133	2
0.29500	2
0.29867	1
0.30233	1
0.30600	-1
0.30967	-1
0.31333	2
0.31700	4
0.32067	6
0.32433	8
0.32800	11
0.33167	11
0.33533	10
0.33900	7
0.34267	5
0.34633	5
0.35000	6
0.35367	5
0.35733	4
0.36100	3
0.36467	1
0.36833	1
0.37200	1
0.37567	-0
0.37933	-2
0.38300	-3
0.38667	-3
0.39033	-3
0.39400	-3
0.39767	-3
0.40133	-3
0.40500	-2
0.40867	0
0.41233	3
0.41600	3
0.41967	3
0.42333	4
0.42700	4
0.43067	2
0.43433	2
0.43800	1
0.44167	0
0.44533	-1
0.44900	-2
0.45267	0
0.45633	2
0.46000	1
0.46367	0
0.46733	1
0.47100	1
0.47467	1
0.47833	3
0.48200	4
0.48567	4
0.48933	4
0.49300	3
0.49667	1
0.50033	2
0.50400	4
0.50767	6
0.51133	8
0.51500	9
0.51867	8
0.52233	7
0.52600	5
0.52967	5
0.53333	5
0.53700	2
0.54067	3
0.54433	5
0.54800	5
0.55167	4
0.55533	1
0.55900	0
0.56267	0
0.56633	-0
0.57000	-0
0.57367	-0
0.57733	-1
0.58100	-2
0.58467	0
0.58833	4
0.59200	5
0.59567	6
0.59933	5
0.60300	4
0.60667	2
0.61033	3
0.61400	4
0.61767	5
0.62133	5
0.62500	5
0.62867	5
0.63233	4
0.63600	3
0.63967	2
0.64333	3
0.64700	2
0.65067	-0
0.65433	-1
0.65800	-1
0.66167	0
0.66533	0
0.66900	1
0.67267	1
0.67633	1
0.68000	1
0.68367	4
0.68733	7
0.69100	8
0.69467	7
0.69833	7
0.70200	7
0.70567	4
0.70933	2
0.71300	0
0.71667	-1
0.72033	-1
0.72400	-1
0.72767	0
0.73133	1
0.73500	4
0.73867	6
0.74233	8
0.74600	10
0.74967	9
0.75333	5
0.75700	4
0.76067	3
0.76433	3
0.76800	5
0.77167	7
0.77533	7
0.77900	8
0.78267	8
0.78633	10
0.79000	10
0.79367	11
0.79733	12
0.80100	11
0.80467	7
0.80833	4
0.81200	2
0.81567	1
0.81933	2
0.82300	6
0.82667	9
0.83033	12
0.83400	11
0.83767	8
0.84133	4
0.84500	6
0.84867	5
0.85233	5
0.85600	6
0.85967	5
0.86333	6
0.86700	7
0.87067	9
0.87433	10
0.87800	11
0.88167	8
0.88533	8
0.88900	9
0.89267	11
0.89633	14
0.90000	13
0.90367	10
0.90733	8
0.91100	8
0.91467	8
0.91833	7
0.92200	7
0.92567	7
0.92933	10
0.93300	13
0.93667	15
0.94033	14
0.94400	13
0.94767	12
0.95133	12
0.95500	14
0.95867	15
0.96233	14
0.96600	11
0.96967	10
0.97333	11
0.97700	11
0.98067	9
0.98433	10
0.98800	9
0.99167	10
0.99533	10
0.99900	10
1.00267	7
1.00633	6
1.01000	6
1.01367	6
1.01733	8
1.02100	11
1.02467	10
1.02833	9
1.03200	9
1.03567	7
1.03933	11
1.04300	12
1.04667	12
1.05033	10
1.05400	8
1.05767	8
1.06133	9
1.06500	10
1.06867	9
1.07233	6
1.07600	8
1.07967	10
1.08333	10
1.08700	9
1.09067	8
1.09433	9
1.09800	9
1.10167	10
1.10533	11
1.10900	10
1.11267	8
1.11633	7
1.12000	7
1.12367	8
1.12733	7
1.13100	6
1.13467	8
1.13833	8
1.14200	7
1.14567	8
1.14933	9
1.15300	8
1.15667	5
1.16033	4
1.16400	5
1.16767	6
1.17133	6
1.17500	6
1.17867	8
1.18233	10
1.18600	9
1.18967	9
1.19333	7
1.19700	7
1.20067	7
1.20433	7
1.20800	8
1.21167	9
1.21533	7
1.21900	8
1.22267	10
1.22633	11
1.23000	11
1.23367	12
1.23733	12
1.24100	12
1.24467	11
1.24833	12
1.25200	12
1.25567	13
1.25933	11
1.26300	7
1.26667	6
1.27033	6
1.27400	6
1.27767	7
1.28133	8
1.28500	9
1.28867	10
1.29233	10
1.29600	8
1.29967	6
1.30333	5
1.30700	5
1.31067	6
1.31433	8
1.31800	9
1.32167	11
1.32533	11
1.32900	9
1.33267	7
1.33633	4
1.34000	3
1.34367	5
1.34733	9
1.35100	13
1.35467	14
1.35833	14
1.36200	11
1.36567	8
1.36933	10
1.37300	9
1.37667	9
1.38033	9
1.38400	11
1.38767	12
1.39133	13
1.39500	13
1.39867	14
1.40233	16
1.40600	18
1.40967	19
1.41333	18
1.41700	16
1.42067	15
1.42433	16
1.42800	17
1.43167	17
1.43533	15
1.43900	16
1.44267	17
1.44633	16
1.45000	14
1.45367	12
1.45733	11
1.46100	11
1.46467	11
1.46833	12
1.47200	13
1.47567	11
1.47933	8
1.48300	8
1.48667	10
1.49033	13
1.49400	14
1.49767	14
1.50133	13
1.50500	15
1.50867	17
1.51233	16
1.51600	14
1.51967	12
1.52333	11
1.52700	9
1.53067	10
1.53433	13
1.53800	14
1.54167	12
1.54533	9
1.54900	7
1.55267	10
1.55633	12
1.56000	13
1.56367	12
1.56733	13
1.57100	15
1.57467	15
1.57833	16
1.58200	19
1.58567	20
1.58933	19
1.59300	16
1.59667	13
1.60033	10
1.60400	9
1.60767	9
1.61133	12
1.61500	13
1.61867	14
1.62233	16
1.62600	16
1.62967	14
1.63333	15
1.63700	16
1.64067	17
1.64433	16
1.64800	14
1.65167	13
1.65533	13
1.65900	15
1.66267	15
1.66633	16
1.67000	19
1.67367	23
1.67733	26
1.68100	28
1.68467	28
1.68833	28
1.69200	26
1.69567	23
1.69933	21
1.70300	23
1.70667	23
1.71033	22
1.71400	20
1.71767	17
1.72133	18
1.72500	19
1.72867	18
1.73233	16
1.73600	18
1.73967	19
1.74333	18
1.74700	14
1.75067	13
1.75433	14
1.75800	16
1.76167	18
1.76533	18
1.76900	19
1.77267	19
1.77633	18
1.78000	19
1.78367	20
1.78733	23
1.79100	26
1.79467	27
1.79833	25
1.80200	23
1.80567	23
1.80933	25
1.81300	24
1.81667	23
1.82033	23
1.82400	24
1.82767	26
1.83133	24
1.83500	23
1.83867	25
1.84233	28
1.84600	30
1.84967	31
1.85333	32
1.85700	31
1.86067	30
1.86433	29
1.86800	30
1.87167	31
1.87533	35
1.87900	37
1.88267	36
1.88633	38
1.89000	39
1.89367	39
1.89733	37
1.90100	36
1.90467	36
1.90833	36
1.91200	37
1.91567	38
1.91933	38
1.92300	38
1.92667	39
1.93033	39
1.93400	41
1.93767	41
1.94133	39
1.94500	38
1.94867	36
1.95233	35
1.95600	36
1.95967	37
1.96333	40
1.96700	43
1.97067	44
1.97433	45
1.97800	47
1.98167	49
1.98533	50
1.98900	51
1.99267	49
1.99633	47
2.00000	47
2.00367	48
2.00733	47
2.01100	47
2.01467	47
2.01833	49
2.02200	52
2.02567	52
2.02933	51
2.03300	50
2.03667	51
2.04033	49
2.04400	49
2.04767	50
2.05133	53
2.05500	53
2.05867	52
2.06233	52
2.06600	52
2.06967	54
2.07333	55
2.07700	56
2.08067	56
2.08433	58
2.08800	62
2.09167	65
2.09533	65
2.09900	66
2.10267	66
2.10633	65
2.11000	64
2.11367	64
2.11733	65
2.12100	65
2.12467	67
2.12833	70
2.13200	71
2.13567	71
2.13933	69
2.14300	67
2.14667	68
2.15033	70
2.15400	73
2.15767	73
2.16133	76
2.16500	78
2.16867	77
2.17233	74
2.17600	74
2.17967	75
2.18333	78
2.18700	81
2.19067	83
2.19433	84
2.19800	85
2.20167	86
2.20533	85
2.20900	83
2.21267	83
2.21633	86
2.22000	86
2.22367	86
2.22733	83
2.23100	82
2.23467	82
2.23833	83
2.24200	85
2.24567	85
2.24933	87
2.25300	89
2.25667	92
2.26033	94
2.26400	93
2.26767	91
2.27133	91
2.27500	92
2.27867	92
2.28233	94
2.28600	96
2.28967	97
2.29333	99
2.29700	98
2.30067	95
2.30433	91
2.30800	88
2.31167	86
2.31533	88
2.31900	92
2.32267	93
2.32633	96
2.33000	97
2.33367	98
2.33733	99
2.34100	100
2.34467	100
2.34833	101
2.35200	101
2.35567	101
2.35933	101
2.36300	101
2.36667	101
2.37033	98
2.37400	94
2.37767	91
2.38133	91
2.38500	90
2.38867	89
2.39233	89
2.39600	94
2.39967	101
2.40333	108
2.40700	113
2.41067	116
2.41433	118
2.41800	120
2.42167	121
2.42533	118
2.42900	116
2.43267	114
2.43633	111
2.44000	117
2.44367	167
2.44733	251
2.45100	326
2.45467	381
2.45833	405
2.46200	399
2.46567	383
2.46933	374
2.47300	368
2.47667	356
2.48033	339
2.48400	317
2.48767	293
2.49133	272
2.49500	256
2.49867	248
2.50233	245
2.50600	248
2.50967	254
2.51333	262
2.51700	268
2.52067	269
2.52433	266
2.52800	256
2.53167	243
2.53533	230
2.53900	217
2.54267	206
2.54633	197
2.55000	189
2.55367	181
2.55733	173
2.56100	168
2.56467	167
2.56833	169
2.57200	172
2.57567	174
2.57933	177
2.58300	181
2.58667	186
2.59033	190
2.59400	195
2.59767	202
2.60133	211
2.60500	219
2.60867	226
2.61233	231
2.61600	236
2.61967	237
2.62333	233
2.62700	228
2.63067	223
2.63433	217
2.63800	208
2.64167	196
2.64533	185
2.64900	177
2.65267	171
2.65633	167
2.66000	163
2.66367	159
2.66733	154
2.67100	150
2.67467	146
2.67833	142
2.68200	137
2.68567	134
2.68933	131
2.69300	129
2.69667	128
2.70033	127
2.70400	126
2.70767	124
2.71133	124
2.71500	126
2.71867	126
2.72233	127
2.72600	127
2.72967	128
2.73333	128
2.73700	129
2.74067	131
2.74433	133
2.74800	135
2.75167	135
2.75533	137
2.75900	140
2.76267	142
2.76633	143
2.77000	146
2.77367	149
2.77733	153
2.78100	155
2.78467	160
2.78833	162
2.79200	164
2.79567	166
2.79933	168
2.80300	167
2.80667	169
2.81033	173
2.81400	175
2.81767	178
2.82133	180
2.82500	180
2.82867	181
2.83233	184
2.83600	192
2.83967	208
2.84333	245
2.84700	318
2.85067	441
2.85433	637
2.85800	918
2.86167	1288
2.86533	1732
2.86900	2220
2.87267	2720
2.87633	3184
2.88000	3575
2.88367	3865
2.88733	4034
2.89100	4079
2.89467	4018
2.89833	3868
2.90200	3652
2.90567	3388
2.90933	3100
2.91300	2818
2.91667	2563
2.92033	2344
2.92400	2159
2.92767	2003
2.93133	1874
2.93500	1771
2.93867	1687
2.94233	1619
2.94600	1560
2.94967	1508
2.95333	1461
2.95700	1421
2.96067	1385
2.96433	1350
2.96800	1317
2.97167	1288
2.97533	1259
2.97900	1233
2.98267	1209
2.98633	1187
2.99000	1166
2.99367	1148
2.99733	1130
3.00100	1112
3.00467	1094
3.00833	1083
3.01200	1071
3.01567	1059
3.01933	1047
3.02300	1038
3.02667	1029
3.03033	1021
3.03400	1011
3.03767	1001
3.04133	991
3.04500	982
3.04867	974
3.05233	967
3.05600	959
3.05967	952
3.06333	948
3.06700	945
3.07067	942
3.07433	940
3.07800	937
3.08167	933
3.08533	930
3.08900	927
3.09267	923
3.09633	917
3.10000	912
3.10367	908
3.10733	905
3.11100	901
3.11467	899
3.11833	897
3.12200	897
3.12567	899
3.12933	898
3.13300	895
3.13667	893
3.14033	892
3.14400	891
3.14767	893
3.15133	894
3.15500	892
3.15867	890
3.16233	888
3.16600	886
3.16967	880
3.17333	875
3.17700	872
3.18067	869
3.18433	866
3.18800	865
3.19167	863
3.19533	861
3.19900	859
3.20267	857
3.20633	853
3.21000	848
3.21367	844
3.21733	842
3.22100	840
3.22467	836
3.22833	833
3.23200	830
3.23567	826
3.23933	823
3.24300	818
3.24667	813
3.25033	810
3.25400	808
3.25767	806
3.26133	805
3.26500	807
3.26867	807
3.27233	806
3.27600	805
3.27967	806
3.28333	808
3.28700	809
3.29067	811
3.29433	814
3.29800	813
3.30167	813
3.30533	816
3.30900	819
3.31267	822
3.31633	829
3.32000	835
3.32367	838
3.32733	840
3.33100	847
3.33467	853
3.33833	855
3.34200	857
3.34567	860
3.34933	862
3.35300	861
3.35667	863
3.36033	864
3.36400	865
3.36767	865
3.37133	864
3.37500	865
3.37867	867
3.38233	866
3.38600	865
3.38967	861
3.39333	859
3.39700	856
3.40067	852
3.40433	844
3.40800	838
3.41167	834
3.41533	827
3.41900	821
3.42267	812
3.42633	803
3.43000	795
3.43367	788
3.43733	779
3.44100	772
3.44467	765
3.44833	759
3.45200	754
3.45567	748
3.45933	740
3.46300	734
3.46667	729
3.47033	723
3.47400	716
3.47767	707
3.48133	702
3.48500	697
3.48867	691
3.49233	687
3.49600	683
3.49967	677
3.50333	672
3.50700	669
3.51067	666
3.51433	662
3.51800	659
3.52167	658
3.52533	657
3.52900	654
3.53267	652
3.53633	651
3.54000	650
3.54367	648
3.54733	646
3.55100	645
3.55467	643
3.55833	640
3.56200	635
3.56567	632
3.56933	633
3.57300	633
3.57667	633
3.58033	633
3.58400	630
3.58767	624
3.59133	619
3.59500	617
3.59867	616
3.60233	615
3.60600	614
3.60967	611
3.61333	610
3.61700	607
3.62067	604
3.62433	599
3.62800	595
3.63167	593
3.63533	592
3.63900	591
3.64267	588
3.64633	587
3.65000	585
3.65367	581
3.65733	574
3.66100	570
3.66467	571
3.66833	572
3.67200	570
3.67567	569
3.67933	569
3.68300	567
3.68667	566
3.69033	564
3.69400	561
3.69767	559
3.70133	558
3.70500	559
3.70867	562
3.71233	564
3.71600	564
3.71967	560
3.72333	556
3.72700	554
3.73067	553
3.73433	553
3.73800	552
3.74167	552
3.74533	548
3.74900	545
3.75267	546
3.75633	546
3.76000	544
3.76367	544
3.76733	545
3.77100	544
3.77467	543
3.77833	541
3.78200	540
3.78567	538
3.78933	537
3.79300	537
3.79667	533
3.80033	531
3.80400	530
3.80767	530
3.81133	527
3.81500	525
3.81867	525
3.82233	525
3.82600	524
3.82967	523
3.83333	520
3.83700	520
3.84067	522
3.84433	523
3.84800	522
3.85167	519
3.85533	515
3.85900	514
3.86267	515
3.86633	515
3.87000	514
3.87367	515
3.87733	512
3.88100	510
3.88467	510
3.88833	509
3.89200	506
3.89567	502
3.89933	502
3.90300	500
3.90667	497
3.91033	495
3.91400	497
3.91767	499
3.92133	497
3.92500	496
3.92867	498
3.93233	499
3.93600	498
3.93967	493
3.94333	487
3.94700	484
3.95067	483
3.95433	485
3.95800	487
3.96167	489
3.96533	488
3.96900	485
3.97267	481
3.97633	481
3.98000	484
3.98367	485
3.98733	483
3.99100	481
3.99467	476
3.99833	469

[Status Trace (Column Oven Temperature)]
Interval(msec)	1000
# of Points	240
Start Time(min)	0.002
End Time(min)	3.985
Intensity Units	
Intensity Multiplier	1
R.Time (min)	Intensity
0.00158	35.04
0.01825	35.05
0.03492	35.04
0.05158	35.04
0.06825	35.04
0.08492	35.04
0.10158	35.04
0.11825	35.04
0.13492	35.03
0.15158	35.03
0.16825	35.03
0.18492	35.02
0.20158	35.02
0.21825	35.02
0.23492	35.01
0.25158	35.01
0.26825	35.01
0.28492	35.01
0.30158	35.01
0.31825	35.01
0.33492	35.01
0.35158	35.01
0.36825	35.01
0.38492	35.01
0.40158	35.01
0.41825	35.01
0.43492	35.00
0.45158	35.01
0.46825	35.02
0.48492	35.02
0.50158	35.02
0.51825	35.02
0.53492	35.02
0.55158	35.01
0.56825	35.00
0.58492	35.01
0.60158	35.00
0.61825	35.00
0.63492	34.99
0.65158	35.00
0.66825	35.00
0.68492	35.00
0.70158	35.00
0.71825	35.00
0.73492	35.00
0.75158	35.01
0.76825	35.00
0.78492	35.00
0.80158	35.00
0.81825	35.00
0.83492	34.99
0.85158	34.99
0.86825	34.99
0.88492	34.98
0.90158	34.98
0.91825	34.99
0.93492	34.99
0.95158	35.00
0.96825	34.99
0.98492	35.00
1.00158	35.01
1.01825	35.01
1.03492	35.01
1.05158	35.00
1.06825	35.01
1.08492	35.00
1.10158	35.00
1.11825	35.00
1.13492	35.00
1.15158	35.00
1.16825	35.01
1.18492	34.99
1.20158	34.99
1.21825	34.98
1.23492	34.98
1.25158	34.98
1.26825	34.99
1.28492	35.00
1.30158	35.00
1.31825	35.00
1.33492	35.00
1.35158	35.00
1.36825	35.00
1.38492	34.99
1.40158	35.00
1.41825	34.99
1.43492	34.99
1.45158	34.99
1.46825	34.99
1.48492	34.99
1.50158	34.99
1.51825	34.99
1.53492	34.99
1.55158	34.99
1.56825	34.99
1.58492	35.00
1.60158	35.03
1.61825	35.12
1.63492	35.27
1.65158	35.48
1.66825	35.79
1.68492	36.15
1.70158	36.50
1.71825	36.84
1.73492	37.18
1.75158	37.52
1.76825	37.86
1.78492	38.20
1.80158	38.53
1.81825	38.85
1.83492	39.18
1.85158	39.51
1.86825	39.85
1.88492	40.16
1.90158	40.48
1.91825	40.81
1.93492	41.12
1.95158	41.45
1.96825	41.78
1.98492	42.13
2.00158	42.44
2.01825	42.77
2.03492	43.09
2.05158	43.43
2.06825	43.74
2.08492	44.06
2.10158	44.41
2.11825	44.73
2.13492	45.05
2.15158	45.39
2.16825	45.70
2.18492	46.03
2.20158	46.36
2.21825	46.70
2.23492	47.01
2.25158	47.36
2.26825	47.68
2.28492	48.03
2.30158	48.36
2.31825	48.68
2.33492	49.01
2.35158	49.30
2.36825	49.57
2.38492	49.71
2.40158	49.72
2.41825	49.71
2.43492	49.71
2.45158	49.73
2.46825	49.72
2.48492	49.75
2.50158	49.76
2.51825	49.78
2.53492	49.78
2.55158	49.79
2.56825	49.81
2.58492	49.82
2.60158	49.82
2.61825	49.82
2.63492	49.84
2.65158	49.85
2.66825	49.85
2.68492	49.86
2.70158	49.85
2.71825	49.85
2.73492	49.85
2.75158	49.88
2.76825	49.89
2.78492	49.89
2.80158	49.88
2.81825	49.87
2.83492	49.87
2.85158	49.88
2.86825	49.89
2.88492	49.90
2.90158	49.92
2.91825	49.93
2.93492	49.94
2.95158	49.95
2.96825	49.97
2.98492	49.98
3.00158	49.99
3.01825	50.00
3.03492	50.01
3.05158	50.02
3.06825	50.02
3.08492	50.03
3.10158	50.05
3.11825	50.06
3.13492	50.06
3.15158	50.06
3.16825	50.07
3.18492	50.08
3.20158	50.08
3.21825	50.09
3.23492	50.10
3.25158	50.10
3.26825	50.11
3.28492	50.10
3.30158	50.10
3.31825	50.09
3.33492	50.08
3.35158	50.07
3.36825	50.07
3.38492	50.06
3.40158	50.06
3.41825	50.06
3.43492	50.06
3.45158	50.06
3.46825	50.05
3.48492	50.05
3.50158	50.05
3.51825	50.05
3.53492	50.05
3.55158	50.06
3.56825	50.07
3.58492	50.06
3.60158	50.07
3.61825	50.06
3.63492	50.07
3.65158	50.07
3.66825	50.07
3.68492	50.07
3.70158	50.07
3.71825	50.07
3.73492	50.07
3.75158	50.07
3.76825	50.07
3.78492	50.07
3.80158	50.07
3.81825	50.07
3.83492	50.07
3.85158	50.08
3.86825	50.07
3.88492	50.08
3.90158	50.07
3.91825	50.07
3.93492	50.06
3.95158	50.07
3.96825	50.07
3.98492	50.07

[Status Trace (Injection Unit Temperature)]
Interval(msec)	1000
# of Points	240
Start Time(min)	0.002
End Time(min)	3.985
Intensity Units	
Intensity Multiplier	1
R.Time (min)	Intensity
0.00158	99.98
0.01825	99.98
0.03492	99.98
0.05158	99.98
0.06825	99.98
0.08492	99.98
0.10158	99.98
0.11825	99.98
0.13492	99.98
0.15158	99.98
0.16825	99.98
0.18492	99.98
0.20158	99.98
0.21825	99.98
0.23492	99.98
0.25158	99.98
0.26825	99.98
0.28492	99.98
0.30158	99.98
0.31825	99.98
0.33492	99.98
0.35158	99.98
0.36825	99.98
0.38492	99.98
0.40158	99.98
0.41825	99.98
0.43492	99.98
0.45158	99.98
0.46825	99.98
0.48492	99.98
0.50158	99.98
0.51825	99.98
0.53492	99.98
0.55158	99.98
0.56825	99.98
0.58492	99.98
0.60158	99.98
0.61825	99.98
0.63492	99.98
0.65158	99.98
0.66825	99.98
0.68492	99.98
0.70158	99.98
0.71825	99.98
0.73492	99.98
0.75158	99.98
0.76825	99.98
0.78492	99.98
0.80158	99.97
0.81825	99.98
0.83492	99.97
0.85158	99.98
0.86825	99.98
0.88492	99.98
0.90158	99.98
0.91825	99.98
0.93492	99.98
0.95158	99.97
0.96825	99.98
0.98492	99.98
1.00158	99.98
1.01825	99.98
1.03492	99.98
1.05158	99.98
1.06825	99.98
1.08492	99.98
1.10158	99.98
1.11825	99.98
1.13492	99.98
1.15158	99.98
1.16825	99.98
1.18492	99.98
1.20158	99.98
1.21825	99.98
1.23492	99.98
1.25158	99.98
1.26825	99.98
1.28492	99.98
1.30158	99.98
1.31825	99.98
1.33492	99.98
1.35158	99.98
1.36825	99.98
1.38492	99.98
1.40158	99.98
1.41825	99.98
1.43492	99.98
1.45158	99.98
1.46825	99.98
1.48492	99.98
1.50158	99.98
1.51825	99.98
1.53492	99.98
1.55158	99.98
1.56825	99.98
1.58492	99.98
1.60158	99.98
1.61825	99.98
1.63492	99.98
1.65158	99.98
1.66825	99.98
1.68492	99.99
1.70158	99.98
1.71825	99.98
1.73492	99.98
1.75158	99.98
1.76825	99.98
1.78492	99.98
1.80158	99.98
1.81825	99.98
1.83492	99.98
1.85158	99.98
1.86825	99.98
1.88492	99.98
1.90158	99.98
1.91825	99.98
1.93492	99.98
1.95158	99.98
1.96825	99.98
1.98492	99.97
2.00158	99.97
2.01825	99.97
2.03492	99.97
2.05158	99.97
2.06825	99.97
2.08492	99.97
2.10158	99.96
2.11825	99.96
2.13492	99.97
2.15158	99.96
2.16825	99.96
2.18492	99.96
2.20158	99.96
2.21825	99.96
2.23492	99.96
2.25158	99.96
2.26825	99.96
2.28492	99.96
2.30158	99.96
2.31825	99.96
2.33492	99.95
2.35158	99.96
2.36825	99.96
2.38492	99.96
2.40158	99.96
2.41825	99.96
2.43492	99.96
2.45158	99.96
2.46825	99.96
2.48492	99.96
2.50158	99.96
2.51825	99.96
2.53492	99.96
2.55158	99.96
2.56825	99.96
2.58492	99.97
2.60158	99.96
2.61825	99.97
2.63492	99.97
2.65158	99.97
2.66825	99.97
2.68492	99.97
2.70158	99.97
2.71825	99.97
2.73492	99.98
2.75158	99.98
2.76825	99.98
2.78492	99.98
2.80158	99.98
2.81825	99.98
2.83492	99.99
2.85158	99.99
2.86825	99.99
2.88492	99.99
2.90158	99.99
2.91825	100.00
2.93492	100.00
2.95158	100.00
2.96825	100.00
2.98492	100.00
3.00158	100.00
3.01825	100.00
3.03492	100.01
3.05158	100.01
3.06825	100.01
3.08492	100.01
3.10158	100.02
3.11825	100.01
3.13492	100.01
3.15158	100.01
3.16825	100.02
3.18492	100.02
3.20158	100.02
3.21825	100.02
3.23492	100.02
3.25158	100.02
3.26825	100.02
3.28492	100.03
3.30158	100.03
3.31825	100.03
3.33492	100.03
3.35158	100.03
3.36825	100.03
3.38492	100.03
3.40158	100.03
3.41825	100.03
3.43492	100.03
3.45158	100.03
3.46825	100.03
3.48492	100.04
3.50158	100.04
3.51825	100.04
3.53492	100.04
3.55158	100.04
3.56825	100.04
3.58492	100.04
3.60158	100.04
3.61825	100.04
3.63492	100.04
3.65158	100.04
3.66825	100.04
3.68492	100.04
3.70158	100.04
3.71825	100.05
3.73492	100.05
3.75158	100.04
3.76825	100.05
3.78492	100.05
3.80158	100.05
3.81825	100.05
3.83492	100.05
3.85158	100.05
3.86825	100.05
3.88492	100.05
3.90158	100.05
3.91825	100.05
3.93492	100.05
3.95158	100.05
3.96825	100.05
3.98492	100.05

[Status Trace (Carrier Gas Pressure)]
Interval(msec)	1000
# of Points	240
Start Time(min)	0.002
End Time(min)	3.985
Intensity Units	
Intensity Multiplier	1
R.Time (min)	Intensity
0.00158	58.00
0.01825	56.73
0.03492	55.99
0.05158	58.22
0.06825	59.92
0.08492	58.46
0.10158	57.98
0.11825	58.00
0.13492	58.01
0.15158	58.01
0.16825	58.00
0.18492	58.00
0.20158	58.00
0.21825	58.00
0.23492	58.00
0.25158	58.00
0.26825	58.00
0.28492	58.00
0.30158	58.00
0.31825	58.00
0.33492	58.00
0.35158	58.00
0.36825	58.00
0.38492	58.00
0.40158	58.00
0.41825	58.00
0.43492	58.00
0.45158	58.00
0.46825	58.00
0.48492	58.00
0.50158	58.00
0.51825	58.00
0.53492	58.00
0.55158	58.00
0.56825	58.00
0.58492	58.00
0.60158	58.00
0.61825	58.00
0.63492	58.00
0.65158	58.00
0.66825	58.00
0.68492	58.00
0.70158	58.00
0.71825	58.00
0.73492	58.00
0.75158	58.00
0.76825	58.00
0.78492	58.00
0.80158	58.00
0.81825	58.00
0.83492	58.00
0.85158	58.00
0.86825	58.00
0.88492	58.00
0.90158	58.00
0.91825	58.00
0.93492	58.00
0.95158	58.00
0.96825	58.00
0.98492	58.00
1.00158	58.00
1.01825	58.00
1.03492	58.00
1.05158	58.00
1.06825	58.00
1.08492	58.00
1.10158	58.00
1.11825	58.00
1.13492	58.00
1.15158	58.00
1.16825	58.00
1.18492	58.00
1.20158	58.00
1.21825	58.00
1.23492	58.00
1.25158	58.00
1.26825	58.00
1.28492	58.00
1.30158	58.00
1.31825	58.00
1.33492	58.00
1.35158	58.00
1.36825	58.00
1.38492	58.00
1.40158	58.00
1.41825	58.00
1.43492	58.00
1.45158	58.00
1.46825	58.00
1.48492	58.00
1.50158	58.00
1.51825	58.00
1.53492	58.00
1.55158	58.00
1.56825	58.00
1.58492	58.00
1.60158	58.00
1.61825	58.00
1.63492	58.00
1.65158	58.01
1.66825	58.01
1.68492	58.01
1.70158	58.00
1.71825	58.00
1.73492	58.00
1.75158	58.00
1.76825	58.00
1.78492	58.00
1.80158	58.00
1.81825	58.00
1.83492	58.00
1.85158	58.00
1.86825	58.00
1.88492	58.00
1.90158	58.00
1.91825	58.00
1.93492	58.00
1.95158	58.00
1.96825	58.00
1.98492	58.00
2.00158	58.00
2.01825	58.00
2.03492	58.00
2.05158	58.00
2.06825	58.00
2.08492	58.00
2.10158	58.00
2.11825	58.00
2.13492	58.00
2.15158	58.00
2.16825	58.00
2.18492	58.00
2.20158	58.00
2.21825	58.00
2.23492	58.00
2.25158	58.00
2.26825	58.00
2.28492	58.00
2.30158	58.00
2.31825	58.00
2.33492	58.00
2.35158	58.00
2.36825	58.00
2.38492	57.99
2.40158	57.99
2.41825	58.00
2.43492	58.00
2.45158	58.00
2.46825	58.00
2.48492	58.00
2.50158	58.00
2.51825	57.99
2.53492	57.99
2.55158	58.00
2.56825	58.00
2.58492	58.00
2.60158	58.00
2.61825	58.00
2.63492	58.00
2.65158	58.00
2.66825	58.00
2.68492	58.00
2.70158	58.00
2.71825	58.00
2.73492	58.00
2.75158	58.00
2.76825	58.00
2.78492	58.00
2.80158	58.00
2.81825	58.00
2.83492	58.00
2.85158	58.00
2.86825	58.00
2.88492	58.00
2.90158	58.00
2.91825	58.00
2.93492	58.00
2.95158	58.00
2.96825	58.00
2.98492	58.00
3.00158	58.00
3.01825	58.00
3.03492	58.00
3.05158	58.00
3.06825	58.00
3.08492	58.00
3.10158	58.00
3.11825	58.00
3.13492	58.00
3.15158	58.00
3.16825	58.00
3.18492	58.00
3.20158	58.00
3.21825	58.00
3.23492	58.00
3.25158	58.00
3.26825	58.00
3.28492	58.00
3.30158	58.00
3.31825	58.00
3.33492	58.00
3.35158	58.00
3.36825	58.00
3.38492	58.00
3.40158	58.00
3.41825	58.00
3.43492	58.00
3.45158	58.00
3.46825	58.00
3.48492	58.00
3.50158	58.00
3.51825	58.00
3.53492	58.00
3.55158	58.00
3.56825	58.00
3.58492	58.00
3.60158	58.00
3.61825	58.00
3.63492	58.00
3.65158	58.00
3.66825	58.00
3.68492	58.00
3.70158	58.00
3.71825	58.00
3.73492	58.00
3.75158	58.00
3.76825	58.00
3.78492	58.00
3.80158	58.00
3.81825	58.00
3.83492	58.00
3.85158	58.00
3.86825	58.00
3.88492	58.00
3.90158	58.00
3.91825	58.00
3.93492	58.00
3.95158	58.00
3.96825	58.00
3.98492	58.00

[Status Trace (Carrier Gas Flow)]
Interval(msec)	1000
# of Points	240
Start Time(min)	0.002
End Time(min)	3.985
Intensity Units	
Intensity Multiplier	1
R.Time (min)	Intensity
0.00158	34.52
0.01825	33.76
0.03492	34.53
0.05158	34.55
0.06825	34.50
0.08492	34.51
0.10158	34.53
0.11825	34.52
0.13492	34.52
0.15158	34.52
0.16825	34.52
0.18492	34.52
0.20158	34.52
0.21825	34.52
0.23492	34.51
0.25158	34.52
0.26825	34.52
0.28492	34.52
0.30158	34.51
0.31825	34.52
0.33492	34.52
0.35158	34.52
0.36825	34.52
0.38492	34.52
0.40158	34.52
0.41825	34.52
0.43492	34.52
0.45158	34.52
0.46825	34.52
0.48492	34.52
0.50158	34.52
0.51825	34.53
0.53492	34.52
0.55158	34.52
0.56825	34.52
0.58492	34.51
0.60158	34.52
0.61825	34.52
0.63492	34.52
0.65158	34.53
0.66825	34.52
0.68492	34.51
0.70158	34.52
0.71825	34.52
0.73492	34.52
0.75158	34.51
0.76825	34.52
0.78492	34.52
0.80158	34.52
0.81825	34.52
0.83492	34.52
0.85158	34.52
0.86825	34.52
0.88492	34.53
0.90158	34.52
0.91825	34.51
0.93492	34.52
0.95158	34.52
0.96825	34.51
0.98492	34.51
1.00158	34.51
1.01825	34.52
1.03492	34.52
1.05158	34.52
1.06825	34.52
1.08492	34.52
1.10158	34.52
1.11825	34.51
1.13492	34.51
1.15158	34.52
1.16825	34.52
1.18492	34.51
1.20158	34.52
1.21825	34.52
1.23492	34.52
1.25158	34.52
1.26825	34.52
1.28492	34.52
1.30158	34.52
1.31825	34.52
1.33492	34.52
1.35158	34.52
1.36825	34.52
1.38492	34.52
1.40158	34.52
1.41825	34.52
1.43492	34.52
1.45158	34.51
1.46825	34.52
1.48492	34.52
1.50158	34.52
1.51825	34.51
1.53492	34.52
1.55158	34.52
1.56825	34.51
1.58492	34.51
1.60158	34.52
1.61825	34.51
1.63492	34.52
1.65158	34.52
1.66825	34.52
1.68492	34.51
1.70158	34.52
1.71825	34.52
1.73492	34.52
1.75158	34.52
1.76825	34.52
1.78492	34.52
1.80158	34.52
1.81825	34.53
1.83492	34.51
1.85158	34.51
1.86825	34.52
1.88492	34.52
1.90158	34.52
1.91825	34.52
1.93492	34.51
1.95158	34.52
1.96825	34.52
1.98492	34.52
2.00158	34.51
2.01825	34.51
2.03492	34.52
2.05158	34.53
2.06825	34.51
2.08492	34.52
2.10158	34.52
2.11825	34.52
2.13492	34.52
2.15158	34.52
2.16825	34.52
2.18492	34.52
2.20158	34.52
2.21825	34.53
2.23492	34.51
2.25158	34.52
2.26825	34.52
2.28492	34.52
2.30158	34.51
2.31825	34.51
2.33492	34.52
2.35158	34.52
2.36825	34.52
2.38492	34.52
2.40158	34.52
2.41825	34.52
2.43492	34.52
2.45158	34.52
2.46825	34.51
2.48492	34.52
2.50158	34.52
2.51825	34.52
2.53492	34.52
2.55158	34.53
2.56825	34.52
2.58492	34.52
2.60158	34.52
2.61825	34.52
2.63492	34.52
2.65158	34.52
2.66825	34.52
2.68492	34.52
2.70158	34.52
2.71825	34.52
2.73492	34.52
2.75158	34.52
2.76825	34.52
2.78492	34.52
2.80158	34.52
2.81825	34.52
2.83492	34.52
2.85158	34.52
2.86825	34.52
2.88492	34.52
2.90158	34.52
2.91825	34.52
2.93492	34.52
2.95158	34.52
2.96825	34.52
2.98492	34.52
3.00158	34.52
3.01825	34.51
3.03492	34.52
3.05158	34.52
3.06825	34.52
3.08492	34.51
3.10158	34.51
3.11825	34.52
3.13492	34.51
3.15158	34.52
3.16825	34.52
3.18492	34.51
3.20158	34.51
3.21825	34.52
3.23492	34.52
3.25158	34.52
3.26825	34.52
3.28492	34.52
3.30158	34.52
3.31825	34.53
3.33492	34.52
3.35158	34.52
3.36825	34.52
3.38492	34.52
3.40158	34.52
3.41825	34.52
3.43492	34.52
3.45158	34.51
3.46825	34.52
3.48492	34.52
3.50158	34.52
3.51825	34.51
3.53492	34.52
3.55158	34.51
3.56825	34.52
3.58492	34.52
3.60158	34.52
3.61825	34.52
3.63492	34.52
3.65158	34.51
3.66825	34.52
3.68492	34.52
3.70158	34.52
3.71825	34.53
3.73492	34.52
3.75158	34.52
3.76825	34.52
3.78492	34.51
3.80158	34.52
3.81825	34.52
3.83492	34.52
3.85158	34.52
3.86825	34.52
3.88492	34.52
3.90158	34.52
3.91825	34.51
3.93492	34.52
3.95158	34.52
3.96825	34.51
3.98492	34.52

[Status Trace (Column Flow)]
Interval(msec)	1000
# of Points	240
Start Time(min)	0.002
End Time(min)	3.985
Intensity Units	
Intensity Multiplier	1
R.Time (min)	Intensity
0.00158	5.49
0.01825	5.35
0.03492	5.26
0.05158	5.52
0.06825	5.72
0.08492	5.55
0.10158	5.49
0.11825	5.49
0.13492	5.49
0.15158	5.49
0.16825	5.49
0.18492	5.49
0.20158	5.49
0.21825	5.49
0.23492	5.49
0.25158	5.49
0.26825	5.49
0.28492	5.49
0.30158	5.49
0.31825	5.49
0.33492	5.49
0.35158	5.49
0.36825	5.49
0.38492	5.49
0.40158	5.49
0.41825	5.49
0.43492	5.49
0.45158	5.49
0.46825	5.49
0.48492	5.49
0.50158	5.49
0.51825	5.49
0.53492	5.49
0.55158	5.49
0.56825	5.49
0.58492	5.49
0.60158	5.49
0.61825	5.49
0.63492	5.49
0.65158	5.49
0.66825	5.49
0.68492	5.49
0.70158	5.49
0.71825	5.49
0.73492	5.49
0.75158	5.49
0.76825	5.49
0.78492	5.49
0.80158	5.49
0.81825	5.49
0.83492	5.49
0.85158	5.49
0.86825	5.49
0.88492	5.49
0.90158	5.49
0.91825	5.49
0.93492	5.49
0.95158	5.49
0.96825	5.49
0.98492	5.49
1.00158	5.49
1.01825	5.49
1.03492	5.49
1.05158	5.49
1.06825	5.49
1.08492	5.49
1.10158	5.49
1.11825	5.49
1.13492	5.49
1.15158	5.49
1.16825	5.49
1.18492	5.49
1.20158	5.49
1.21825	5.49
1.23492	5.49
1.25158	5.49
1.26825	5.49
1.28492	5.49
1.30158	5.49
1.31825	5.49
1.33492	5.49
1.35158	5.49
1.36825	5.49
1.38492	5.49
1.40158	5.49
1.41825	5.49
1.43492	5.49
1.45158	5.49
1.46825	5.49
1.48492	5.49
1.50158	5.49
1.51825	5.49
1.53492	5.49
1.55158	5.49
1.56825	5.49
1.58492	5.49
1.60158	5.49
1.61825	5.49
1.63492	5.49
1.65158	5.48
1.66825	5.47
1.68492	5.46
1.70158	5.45
1.71825	5.44
1.73492	5.43
1.75158	5.42
1.76825	5.40
1.78492	5.39
1.80158	5.39
1.81825	5.37
1.83492	5.36
1.85158	5.36
1.86825	5.34
1.88492	5.33
1.90158	5.33
1.91825	5.32
1.93492	5.31
1.95158	5.30
1.96825	5.29
1.98492	5.28
2.00158	5.27
2.01825	5.26
2.03492	5.25
2.05158	5.24
2.06825	5.23
2.08492	5.22
2.10158	5.21
2.11825	5.20
2.13492	5.19
2.15158	5.18
2.16825	5.17
2.18492	5.16
2.20158	5.16
2.21825	5.14
2.23492	5.14
2.25158	5.13
2.26825	5.12
2.28492	5.11
2.30158	5.10
2.31825	5.09
2.33492	5.08
2.35158	5.07
2.36825	5.06
2.38492	5.06
2.40158	5.06
2.41825	5.06
2.43492	5.06
2.45158	5.06
2.46825	5.06
2.48492	5.06
2.50158	5.06
2.51825	5.06
2.53492	5.06
2.55158	5.06
2.56825	5.06
2.58492	5.06
2.60158	5.06
2.61825	5.06
2.63492	5.06
2.65158	5.06
2.66825	5.06
2.68492	5.06
2.70158	5.06
2.71825	5.06
2.73492	5.06
2.75158	5.06
2.76825	5.06
2.78492	5.06
2.80158	5.06
2.81825	5.06
2.83492	5.06
2.85158	5.06
2.86825	5.06
2.88492	5.06
2.90158	5.05
2.91825	5.05
2.93492	5.05
2.95158	5.05
2.96825	5.05
2.98492	5.05
3.00158	5.05
3.01825	5.05
3.03492	5.05
3.05158	5.05
3.06825	5.05
3.08492	5.05
3.10158	5.05
3.11825	5.05
3.13492	5.05
3.15158	5.05
3.16825	5.05
3.18492	5.05
3.20158	5.05
3.21825	5.05
3.23492	5.05
3.25158	5.05
3.26825	5.05
3.28492	5.05
3.30158	5.05
3.31825	5.05
3.33492	5.05
3.35158	5.05
3.36825	5.05
3.38492	5.05
3.40158	5.05
3.41825	5.05
3.43492	5.05
3.45158	5.05
3.46825	5.05
3.48492	5.05
3.50158	5.05
3.51825	5.05
3.53492	5.05
3.55158	5.05
3.56825	5.05
3.58492	5.05
3.60158	5.05
3.61825	5.05
3.63492	5.05
3.65158	5.05
3.66825	5.05
3.68492	5.05
3.70158	5.05
3.71825	5.05
3.73492	5.05
3.75158	5.05
3.76825	5.05
3.78492	5.05
3.80158	5.05
3.81825	5.05
3.83492	5.05
3.85158	5.05
3.86825	5.05
3.88492	5.05
3.90158	5.05
3.91825	5.05
3.93492	5.05
3.95158	5.05
3.96825	5.05
3.98492	5.05

[Status Trace (Linear Velocity)]
Interval(msec)	1000
# of Points	240
Start Time(min)	0.002
End Time(min)	3.985
Intensity Units	
Intensity Multiplier	1
R.Time (min)	Intensity
0.00158	39.01
0.01825	38.17
0.03492	37.69
0.05158	39.15
0.06825	40.26
0.08492	39.31
0.10158	38.99
0.11825	39.00
0.13492	39.01
0.15158	39.01
0.16825	39.01
0.18492	39.01
0.20158	39.01
0.21825	39.01
0.23492	39.01
0.25158	39.01
0.26825	39.01
0.28492	39.01
0.30158	39.01
0.31825	39.01
0.33492	39.01
0.35158	39.01
0.36825	39.01
0.38492	39.01
0.40158	39.01
0.41825	39.01
0.43492	39.01
0.45158	39.01
0.46825	39.01
0.48492	39.01
0.50158	39.01
0.51825	39.01
0.53492	39.01
0.55158	39.01
0.56825	39.01
0.58492	39.01
0.60158	39.01
0.61825	39.01
0.63492	39.01
0.65158	39.01
0.66825	39.01
0.68492	39.01
0.70158	39.01
0.71825	39.01
0.73492	39.01
0.75158	39.01
0.76825	39.01
0.78492	39.01
0.80158	39.01
0.81825	39.01
0.83492	39.01
0.85158	39.01
0.86825	39.01
0.88492	39.01
0.90158	39.01
0.91825	39.01
0.93492	39.01
0.95158	39.01
0.96825	39.01
0.98492	39.01
1.00158	39.01
1.01825	39.01
1.03492	39.01
1.05158	39.01
1.06825	39.01
1.08492	39.01
1.10158	39.01
1.11825	39.01
1.13492	39.01
1.15158	39.01
1.16825	39.01
1.18492	39.01
1.20158	39.01
1.21825	39.01
1.23492	39.01
1.25158	39.01
1.26825	39.01
1.28492	39.01
1.30158	39.01
1.31825	39.01
1.33492	39.01
1.35158	39.01
1.36825	39.01
1.38492	39.01
1.40158	39.01
1.41825	39.01
1.43492	39.01
1.45158	39.01
1.46825	39.01
1.48492	39.01
1.50158	39.01
1.51825	39.01
1.53492	39.01
1.55158	39.01
1.56825	39.01
1.58492	39.01
1.60158	39.01
1.61825	39.00
1.63492	38.99
1.65158	38.97
1.66825	38.94
1.68492	38.90
1.70158	38.87
1.71825	38.83
1.73492	38.80
1.75158	38.77
1.76825	38.74
1.78492	38.70
1.80158	38.68
1.81825	38.64
1.83492	38.61
1.85158	38.58
1.86825	38.55
1.88492	38.52
1.90158	38.49
1.91825	38.46
1.93492	38.43
1.95158	38.40
1.96825	38.37
1.98492	38.34
2.00158	38.31
2.01825	38.28
2.03492	38.25
2.05158	38.22
2.06825	38.19
2.08492	38.16
2.10158	38.13
2.11825	38.10
2.13492	38.07
2.15158	38.04
2.16825	38.01
2.18492	37.98
2.20158	37.95
2.21825	37.92
2.23492	37.89
2.25158	37.86
2.26825	37.83
2.28492	37.80
2.30158	37.77
2.31825	37.74
2.33492	37.71
2.35158	37.69
2.36825	37.66
2.38492	37.65
2.40158	37.65
2.41825	37.65
2.43492	37.65
2.45158	37.65
2.46825	37.65
2.48492	37.65
2.50158	37.65
2.51825	37.64
2.53492	37.64
2.55158	37.65
2.56825	37.64
2.58492	37.64
2.60158	37.64
2.61825	37.64
2.63492	37.64
2.65158	37.64
2.66825	37.64
2.68492	37.64
2.70158	37.64
2.71825	37.64
2.73492	37.64
2.75158	37.64
2.76825	37.64
2.78492	37.64
2.80158	37.64
2.81825	37.64
2.83492	37.64
2.85158	37.64
2.86825	37.64
2.88492	37.63
2.90158	37.63
2.91825	37.63
2.93492	37.63
2.95158	37.63
2.96825	37.63
2.98492	37.63
3.00158	37.63
3.01825	37.63
3.03492	37.62
3.05158	37.62
3.06825	37.62
3.08492	37.62
3.10158	37.62
3.11825	37.62
3.13492	37.62
3.15158	37.62
3.16825	37.62
3.18492	37.62
3.20158	37.62
3.21825	37.62
3.23492	37.62
3.25158	37.62
3.26825	37.62
3.28492	37.62
3.30158	37.62
3.31825	37.62
3.33492	37.62
3.35158	37.62
3.36825	37.62
3.38492	37.62
3.40158	37.62
3.41825	37.62
3.43492	37.62
3.45158	37.62
3.46825	37.62
3.48492	37.62
3.50158	37.62
3.51825	37.62
3.53492	37.62
3.55158	37.62
3.56825	37.62
3.58492	37.62
3.60158	37.62
3.61825	37.62
3.63492	37.62
3.65158	37.62
3.66825	37.62
3.68492	37.62
3.70158	37.62
3.71825	37.62
3.73492	37.62
3.75158	37.62
3.76825	37.62
3.78492	37.62
3.80158	37.62
3.81825	37.62
3.83492	37.62
3.85158	37.62
3.86825	37.62
3.88492	37.62
3.90158	37.62
3.91825	37.62
3.93492	37.62
3.95158	37.62
3.96825	37.62
3.98492	37.62

