[Header]
Application Name	LabSolutions
Version	5.110
Data File Name	C:\Users\User\Desktop\Junior\UIC Prairie Sampling\6.2.23\06022023_040.gcd
Output Date	6/12/2023
Output Time	11:47:11 AM

[File Information]
Type	Data File
Generated	6/6/2023 1:39:57 PM
Generated by	System Administrator
Modified	6/6/2023 1:47:27 PM
Modified by	System Administrator

[Sample Information]
Operator Name	System Administrator
Acquired	6/6/2023 1:43:26 PM
Sample Type	0:Unknown
Level	0
Sample Name	040
Sample ID	040
ISTD Amount1	1
ISTD Amount2	1
ISTD Amount3	1
ISTD Amount4	1
ISTD Amount5	1
ISTD Amount6	1
ISTD Amount7	1
ISTD Amount8	1
ISTD Amount9	1
ISTD Amount10	1
ISTD Amount11	1
ISTD Amount12	1
ISTD Amount13	1
ISTD Amount14	1
ISTD Amount15	1
ISTD Amount16	1
ISTD Amount17	1
ISTD Amount18	1
ISTD Amount19	1
ISTD Amount20	1
ISTD Amount21	1
ISTD Amount22	1
ISTD Amount23	1
ISTD Amount24	1
ISTD Amount25	1
ISTD Amount26	1
ISTD Amount27	1
ISTD Amount28	1
ISTD Amount29	1
ISTD Amount30	1
ISTD Amount31	1
ISTD Amount32	1
Sample Amount	1
Dilution Factor	1
Vial#	39
Injection Volume	1
Injection Count	1
Bar Code	

[Original Files]
Data File	C:\Users\User\Desktop\Junior\UIC Prairie Sampling\6.2.23\06022023_040.gcd
Method File	C:\LabSolutions\Data\GHG_4min_2022\ghg3_togas_w_acet_4 min_new_int.gcm
Batch File	C:\LabSolutions\Data\AutoSamplerTesting\06022023.gcb
Report Format File	c:\LabSolutions\System\DEFAULT.lsr

[File Description]


[Configuration]
Instrument Name	C0B7VH3-Instrument1
Instrument #	1
Line #	1
# of Detectors	3
Detector ID	DET#1	DET#2	DET#3
Detector Name	FID	PTCD	ECD
# of Channels	1	1	1

[Peak Table(Ch1)]
# of Peaks	3
Peak#	R.Time	I.Time	F.Time	Area	Height	A/H	Conc.	Mark	ID#	Name	k'	Plate #	Plate Ht.	Tailing	Resolution	Sep.Factor	Area Ratio	Height Ratio	Conc. %	Norm Conc.
1	1.472	1.432	1.527	2662	1296	2.054	0.000	   	1	CO	0.000	9043	16.587	1.159	0.000	0.000	0	0	0.000	0.000
2	1.564	1.527	1.630	4271	2198	1.943	20.821	   	2	CH4	0.062	12013	12.487	1.121	1.541	0.000	0	0	8.203	8.203
3	1.989	1.941	2.330	1209074	588238	2.055	233.011	   	3	CO2	0.351	17161	8.741	1.237	7.221	5.640	0	0	91.797	91.797

[Peak Table(Ch2)]
# of Peaks	0

[Peak Table(Ch3)]
# of Peaks	4
Peak#	R.Time	I.Time	F.Time	Area	Height	A/H	Conc.	Mark	ID#	Name	k'	Plate #	Plate Ht.	Tailing	Resolution	Sep.Factor	Area Ratio	Height Ratio	Conc. %	Norm Conc.
1	2.495	2.440	2.532	2929	671	4.365	0.000	   			0.000	1003	149.609	0.000	0.000	0.000	0	0	0.000	0.000
2	2.561	2.532	2.664	4137	633	6.535	0.000	 V 			0.026	122	1231.635	0.000	0.106	0.000	0	0	0.000	0.000
3	2.697	2.664	2.825	3572	442	8.082	0.000	 V 			0.081	63	2399.470	0.000	0.118	3.056	0	0	0.000	0.000
4	2.891	2.825	3.254	21300	4821	4.418	0.315	 V 	1	N2O	0.159	12708	11.804	0.000	0.265	1.964	0	0	100.000	100.000

[Compound Results(Ch1)]
# of IDs	6
ID#	Name	R.Time	Area	Height	Conc.	Curve	3rd	2nd	1st	Constant	Area Ratio	Height Ratio	Conc. %	Norm Conc.
1	CO	1.472	2662	1296	0.000	Linear	0.000000e+00	0.000000e+00	0.000000e+00	0.000000e+00	0	0	0.000	0.000
2	CH4	1.564	4271	2198	20.821	Linear	0.000000e+00	0.000000e+00	2.051179e+002	0.000000e+00	0	0	8.203	8.203
3	CO2	1.989	1209074	588238	233.011	Linear	0.000000e+00	0.000000e+00	5.188919e+003	0.000000e+00	0	0	91.797	91.797
4	Ethylene	0.000	0	0	0.000	Linear	0.000000e+00	0.000000e+00	0.000000e+00	0.000000e+00	0	0	0.000	0.000
5	Acetylene	0.000	0	0	0.000	Linear	0.000000e+00	0.000000e+00	0.000000e+00	0.000000e+00	0	0	0.000	0.000
6	Ethane	0.000	0	0	0.000	Linear	0.000000e+00	0.000000e+00	0.000000e+00	0.000000e+00	0	0	0.000	0.000

[Compound Results(Ch2)]
# of IDs	5
ID#	Name	R.Time	Area	Height	Conc.	Curve	3rd	2nd	1st	Constant	Area Ratio	Height Ratio	Conc. %	Norm Conc.
1	Hydrogen	0.000	0	0	0.000	Linear	0.000000e+00	0.000000e+00	0.000000e+00	0.000000e+00	0	0	0.000	0.000
2	Oxygen	0.000	0	0	0.000	Linear	0.000000e+00	0.000000e+00	0.000000e+00	0.000000e+00	0	0	0.000	0.000
3	Nitrogen	0.000	0	0	0.000	Linear	0.000000e+00	0.000000e+00	0.000000e+00	0.000000e+00	0	0	0.000	0.000
4	Methane	0.000	0	0	0.000	Linear	0.000000e+00	0.000000e+00	0.000000e+00	0.000000e+00	0	0	0.000	0.000
5	Carbon Monoxide	0.000	0	0	0.000	Linear	0.000000e+00	0.000000e+00	0.000000e+00	0.000000e+00	0	0	0.000	0.000

[Compound Results(Ch3)]
# of IDs	2
ID#	Name	R.Time	Area	Height	Conc.	Curve	3rd	2nd	1st	Constant	Area Ratio	Height Ratio	Conc. %	Norm Conc.
1	N2O	2.891	21300	4821	0.315	Linear	0.000000e+00	0.000000e+00	6.759880e+004	0.000000e+00	0	0	100.000	100.000
2	SF6	0.000	0	0	0.000	Linear	0.000000e+00	0.000000e+00	0.000000e+00	0.000000e+00	0	0	0.000	0.000

[Group Results(Ch1)]
# of Groups	0

[Group Results(Ch2)]
# of Groups	0

[Group Results(Ch3)]
# of Groups	0

[Chromatogram (Ch1)]
Interval(msec)	220
# of Points	1091
Start Time(min)	0.002
End Time(min)	3.998
R.Time (min)	Intensity
0.00167	-1
0.00533	-1
0.00900	-0
0.01267	0
0.01633	-1
0.02000	-5
0.02367	-7
0.02733	-7
0.03100	-11
0.03467	-13
0.03833	-12
0.04200	-5
0.04567	-1
0.04933	2
0.05300	3
0.05667	4
0.06033	1
0.06400	-4
0.06767	-10
0.07133	-9
0.07500	-5
0.07867	-3
0.08233	0
0.08600	1
0.08967	-4
0.09333	-14
0.09700	-25
0.10067	-33
0.10433	-35
0.10800	-28
0.11167	-19
0.11533	-10
0.11900	-4
0.12267	-2
0.12633	-8
0.13000	-16
0.13367	-19
0.13733	-18
0.14100	-16
0.14467	-14
0.14833	-11
0.15200	-10
0.15567	-9
0.15933	-8
0.16300	-4
0.16667	-3
0.17033	-2
0.17400	-3
0.17767	-4
0.18133	-6
0.18500	-6
0.18867	-7
0.19233	-9
0.19600	-9
0.19967	-7
0.20333	-0
0.20700	5
0.21067	6
0.21433	5
0.21800	11
0.22167	19
0.22533	23
0.22900	21
0.23267	15
0.23633	7
0.24000	-0
0.24367	-6
0.24733	-10
0.25100	-11
0.25467	-7
0.25833	4
0.26200	15
0.26567	24
0.26933	31
0.27300	33
0.27667	28
0.28033	19
0.28400	9
0.28767	-2
0.29133	-12
0.29500	-21
0.29867	-27
0.30233	-27
0.30600	-23
0.30967	-14
0.31333	-1
0.31700	11
0.32067	19
0.32433	21
0.32800	18
0.33167	8
0.33533	-2
0.33900	-10
0.34267	-18
0.34633	-23
0.35000	-25
0.35367	-21
0.35733	-15
0.36100	-8
0.36467	3
0.36833	17
0.37200	28
0.37567	32
0.37933	32
0.38300	27
0.38667	17
0.39033	2
0.39400	-13
0.39767	-23
0.40133	-28
0.40500	-29
0.40867	-30
0.41233	-33
0.41600	-36
0.41967	-38
0.42333	-37
0.42700	-32
0.43067	-26
0.43433	-22
0.43800	-22
0.44167	-19
0.44533	-14
0.44900	-11
0.45267	-9
0.45633	-5
0.46000	-0
0.46367	3
0.46733	4
0.47100	4
0.47467	2
0.47833	0
0.48200	1
0.48567	2
0.48933	1
0.49300	-4
0.49667	-10
0.50033	-17
0.50400	-22
0.50767	-23
0.51133	-20
0.51500	-13
0.51867	-5
0.52233	0
0.52600	1
0.52967	-2
0.53333	-7
0.53700	-13
0.54067	-16
0.54433	-15
0.54800	-12
0.55167	-10
0.55533	-6
0.55900	-2
0.56267	1
0.56633	7
0.57000	11
0.57367	15
0.57733	17
0.58100	15
0.58467	8
0.58833	1
0.59200	-6
0.59567	-15
0.59933	-25
0.60300	-31
0.60667	-30
0.61033	-28
0.61400	-26
0.61767	-24
0.62133	-24
0.62500	-24
0.62867	-23
0.63233	-22
0.63600	-25
0.63967	-29
0.64333	-30
0.64700	-26
0.65067	-22
0.65433	-15
0.65800	-8
0.66167	-1
0.66533	4
0.66900	3
0.67267	1
0.67633	-4
0.68000	-15
0.68367	-23
0.68733	-24
0.69100	-22
0.69467	-20
0.69833	-21
0.70200	-23
0.70567	-22
0.70933	-18
0.71300	-15
0.71667	-11
0.72033	-12
0.72400	-16
0.72767	-19
0.73133	-20
0.73500	-20
0.73867	-18
0.74233	-12
0.74600	-2
0.74967	8
0.75333	12
0.75700	9
0.76067	2
0.76433	-11
0.76800	-24
0.77167	-32
0.77533	-36
0.77900	-37
0.78267	-37
0.78633	-35
0.79000	-36
0.79367	-40
0.79733	-40
0.80100	-41
0.80467	-42
0.80833	-42
0.81200	-39
0.81567	-31
0.81933	-23
0.82300	-13
0.82667	-4
0.83033	-3
0.83400	-10
0.83767	-19
0.84133	-25
0.84500	-29
0.84867	-30
0.85233	-32
0.85600	-35
0.85967	-40
0.86333	-45
0.86700	-47
0.87067	-44
0.87433	-43
0.87800	-46
0.88167	-53
0.88533	-59
0.88900	-59
0.89267	-55
0.89633	-48
0.90000	-46
0.90367	-50
0.90733	-55
0.91100	-59
0.91467	-59
0.91833	-55
0.92200	-50
0.92567	-46
0.92933	-39
0.93300	-32
0.93667	-24
0.94033	-19
0.94400	-20
0.94767	-23
0.95133	-29
0.95500	-36
0.95867	-41
0.96233	-44
0.96600	-46
0.96967	-47
0.97333	-46
0.97700	-42
0.98067	-34
0.98433	-26
0.98800	-22
0.99167	-21
0.99533	-24
0.99900	-31
1.00267	-38
1.00633	-41
1.01000	-37
1.01367	-32
1.01733	-30
1.02100	-34
1.02467	-39
1.02833	-40
1.03200	-36
1.03567	-34
1.03933	-38
1.04300	-45
1.04667	-48
1.05033	-47
1.05400	-45
1.05767	-41
1.06133	-35
1.06500	-27
1.06867	-19
1.07233	-17
1.07600	-22
1.07967	-37
1.08333	-52
1.08700	-61
1.09067	-66
1.09433	-66
1.09800	-61
1.10167	-56
1.10533	-51
1.10900	-49
1.11267	-50
1.11633	-48
1.12000	-40
1.12367	-35
1.12733	-35
1.13100	-39
1.13467	-43
1.13833	-48
1.14200	-50
1.14567	-50
1.14933	-46
1.15300	-41
1.15667	-38
1.16033	-35
1.16400	-33
1.16767	-33
1.17133	-31
1.17500	-29
1.17867	-29
1.18233	-31
1.18600	-37
1.18967	-44
1.19333	-48
1.19700	-51
1.20067	-52
1.20433	-55
1.20800	-62
1.21167	-70
1.21533	-75
1.21900	-76
1.22267	-75
1.22633	-71
1.23000	-67
1.23367	-66
1.23733	-64
1.24100	-64
1.24467	-61
1.24833	-55
1.25200	-50
1.25567	-47
1.25933	-47
1.26300	-46
1.26667	-45
1.27033	-46
1.27400	-52
1.27767	-63
1.28133	-76
1.28500	-89
1.28867	-96
1.29233	-99
1.29600	-95
1.29967	-90
1.30333	-85
1.30700	-82
1.31067	-81
1.31433	-79
1.31800	-76
1.32167	-74
1.32533	-73
1.32900	-72
1.33267	-68
1.33633	-63
1.34000	-61
1.34367	-59
1.34733	-54
1.35100	-48
1.35467	-43
1.35833	-42
1.36200	-48
1.36567	-62
1.36933	-75
1.37300	-85
1.37667	-92
1.38033	-96
1.38400	-95
1.38767	-90
1.39133	-82
1.39500	-75
1.39867	-70
1.40233	-67
1.40600	-65
1.40967	-64
1.41333	-66
1.41700	-67
1.42067	-69
1.42433	-70
1.42800	-70
1.43167	-65
1.43533	-47
1.43900	-18
1.44267	7
1.44633	52
1.45000	178
1.45367	387
1.45733	623
1.46100	840
1.46467	1025
1.46833	1163
1.47200	1226
1.47567	1190
1.47933	1060
1.48300	870
1.48667	668
1.49033	484
1.49400	333
1.49767	219
1.50133	135
1.50500	72
1.50867	24
1.51233	-11
1.51600	-38
1.51967	-59
1.52333	-72
1.52700	-78
1.53067	-71
1.53433	-20
1.53800	131
1.54167	427
1.54533	836
1.54900	1271
1.55267	1656
1.55633	1946
1.56000	2109
1.56367	2114
1.56733	1945
1.57100	1633
1.57467	1257
1.57833	896
1.58200	597
1.58567	372
1.58933	215
1.59300	109
1.59667	42
1.60033	3
1.60400	-21
1.60767	-37
1.61133	-46
1.61500	-51
1.61867	-57
1.62233	-66
1.62600	-79
1.62967	-92
1.63333	-102
1.63700	-105
1.64067	-104
1.64433	-104
1.64800	-105
1.65167	-106
1.65533	-107
1.65900	-112
1.66267	-120
1.66633	-129
1.67000	-138
1.67367	-143
1.67733	-145
1.68100	-138
1.68467	-128
1.68833	-119
1.69200	-111
1.69567	-108
1.69933	-109
1.70300	-113
1.70667	-117
1.71033	-122
1.71400	-129
1.71767	-135
1.72133	-138
1.72500	-136
1.72867	-128
1.73233	-118
1.73600	-107
1.73967	-99
1.74333	-96
1.74700	-97
1.75067	-99
1.75433	-104
1.75800	-107
1.76167	-111
1.76533	-115
1.76900	-115
1.77267	-112
1.77633	-113
1.78000	-116
1.78367	-122
1.78733	-129
1.79100	-130
1.79467	-128
1.79833	-124
1.80200	-121
1.80567	-117
1.80933	-114
1.81300	-116
1.81667	-121
1.82033	-123
1.82400	-122
1.82767	-122
1.83133	-124
1.83500	-126
1.83867	-127
1.84233	-128
1.84600	-126
1.84967	-124
1.85333	-122
1.85700	-121
1.86067	-118
1.86433	-119
1.86800	-120
1.87167	-119
1.87533	-118
1.87900	-116
1.88267	-114
1.88633	-111
1.89000	-108
1.89367	-107
1.89733	-107
1.90100	-108
1.90467	-109
1.90833	-108
1.91200	-108
1.91567	-108
1.91933	-108
1.92300	-108
1.92667	-107
1.93033	-106
1.93400	-106
1.93767	-104
1.94133	-97
1.94500	-67
1.94867	91
1.95233	924
1.95600	4515
1.95967	16260
1.96333	45644
1.96700	102754
1.97067	190490
1.97433	299226
1.97800	410457
1.98167	504894
1.98533	567230
1.98900	588179
1.99267	565931
1.99633	506947
2.00000	424807
2.00367	335548
2.00733	252429
2.01100	182988
2.01467	129321
2.01833	90072
2.02200	62433
2.02567	43448
2.02933	30601
2.03300	21961
2.03667	16147
2.04033	12206
2.04400	9497
2.04767	7602
2.05133	6250
2.05500	5265
2.05867	4528
2.06233	3960
2.06600	3509
2.06967	3143
2.07333	2837
2.07700	2580
2.08067	2363
2.08433	2179
2.08800	2019
2.09167	1878
2.09533	1753
2.09900	1642
2.10267	1545
2.10633	1460
2.11000	1387
2.11367	1318
2.11733	1250
2.12100	1182
2.12467	1116
2.12833	1055
2.13200	1000
2.13567	949
2.13933	904
2.14300	864
2.14667	825
2.15033	790
2.15400	758
2.15767	731
2.16133	711
2.16500	696
2.16867	683
2.17233	665
2.17600	641
2.17967	616
2.18333	587
2.18700	557
2.19067	532
2.19433	514
2.19800	504
2.20167	498
2.20533	488
2.20900	477
2.21267	466
2.21633	455
2.22000	444
2.22367	432
2.22733	425
2.23100	418
2.23467	407
2.23833	390
2.24200	370
2.24567	350
2.24933	334
2.25300	328
2.25667	327
2.26033	326
2.26400	323
2.26767	321
2.27133	318
2.27500	313
2.27867	305
2.28233	295
2.28600	284
2.28967	274
2.29333	268
2.29700	263
2.30067	260
2.30433	257
2.30800	252
2.31167	247
2.31533	243
2.31900	238
2.32267	230
2.32633	224
2.33000	218
2.33367	214
2.33733	211
2.34100	210
2.34467	211
2.34833	213
2.35200	217
2.35567	221
2.35933	224
2.36300	222
2.36667	218
2.37033	215
2.37400	214
2.37767	210
2.38133	203
2.38500	196
2.38867	193
2.39233	194
2.39600	197
2.39967	200
2.40333	203
2.40700	203
2.41067	202
2.41433	200
2.41800	197
2.42167	192
2.42533	186
2.42900	182
2.43267	181
2.43633	184
2.44000	187
2.44367	189
2.44733	185
2.45100	179
2.45467	181
2.45833	182
2.46200	182
2.46567	181
2.46933	180
2.47300	181
2.47667	179
2.48033	177
2.48400	179
2.48767	184
2.49133	189
2.49500	189
2.49867	185
2.50233	182
2.50600	180
2.50967	176
2.51333	169
2.51700	162
2.52067	160
2.52433	163
2.52800	168
2.53167	170
2.53533	169
2.53900	168
2.54267	170
2.54633	173
2.55000	178
2.55367	182
2.55733	186
2.56100	189
2.56467	191
2.56833	194
2.57200	199
2.57567	200
2.57933	195
2.58300	191
2.58667	193
2.59033	201
2.59400	212
2.59767	218
2.60133	215
2.60500	206
2.60867	194
2.61233	186
2.61600	179
2.61967	174
2.62333	174
2.62700	179
2.63067	184
2.63433	182
2.63800	177
2.64167	176
2.64533	179
2.64900	182
2.65267	187
2.65633	191
2.66000	190
2.66367	185
2.66733	184
2.67100	189
2.67467	200
2.67833	214
2.68200	225
2.68567	231
2.68933	231
2.69300	229
2.69667	226
2.70033	221
2.70400	214
2.70767	207
2.71133	201
2.71500	198
2.71867	199
2.72233	202
2.72600	207
2.72967	214
2.73333	219
2.73700	223
2.74067	229
2.74433	235
2.74800	237
2.75167	235
2.75533	232
2.75900	231
2.76267	232
2.76633	233
2.77000	235
2.77367	239
2.77733	241
2.78100	242
2.78467	241
2.78833	239
2.79200	240
2.79567	246
2.79933	254
2.80300	265
2.80667	279
2.81033	290
2.81400	296
2.81767	296
2.82133	291
2.82500	286
2.82867	283
2.83233	280
2.83600	274
2.83967	263
2.84333	252
2.84700	243
2.85067	237
2.85433	235
2.85800	236
2.86167	237
2.86533	238
2.86900	239
2.87267	242
2.87633	249
2.88000	254
2.88367	256
2.88733	254
2.89100	248
2.89467	245
2.89833	246
2.90200	251
2.90567	260
2.90933	268
2.91300	274
2.91667	279
2.92033	281
2.92400	281
2.92767	280
2.93133	277
2.93500	277
2.93867	279
2.94233	279
2.94600	279
2.94967	280
2.95333	283
2.95700	284
2.96067	280
2.96433	274
2.96800	274
2.97167	279
2.97533	293
2.97900	307
2.98267	314
2.98633	314
2.99000	313
2.99367	310
2.99733	306
3.00100	300
3.00467	295
3.00833	295
3.01200	295
3.01567	296
3.01933	297
3.02300	297
3.02667	297
3.03033	298
3.03400	301
3.03767	303
3.04133	303
3.04500	304
3.04867	306
3.05233	312
3.05600	318
3.05967	320
3.06333	318
3.06700	313
3.07067	306
3.07433	300
3.07800	295
3.08167	289
3.08533	286
3.08900	285
3.09267	281
3.09633	277
3.10000	273
3.10367	273
3.10733	276
3.11100	280
3.11467	285
3.11833	292
3.12200	295
3.12567	295
3.12933	294
3.13300	294
3.13667	297
3.14033	303
3.14400	309
3.14767	315
3.15133	322
3.15500	329
3.15867	332
3.16233	329
3.16600	323
3.16967	314
3.17333	306
3.17700	299
3.18067	294
3.18433	290
3.18800	289
3.19167	292
3.19533	297
3.19900	299
3.20267	299
3.20633	301
3.21000	306
3.21367	308
3.21733	306
3.22100	306
3.22467	309
3.22833	312
3.23200	313
3.23567	310
3.23933	303
3.24300	294
3.24667	286
3.25033	281
3.25400	279
3.25767	278
3.26133	276
3.26500	278
3.26867	284
3.27233	290
3.27600	294
3.27967	299
3.28333	306
3.28700	311
3.29067	312
3.29433	307
3.29800	298
3.30167	287
3.30533	276
3.30900	266
3.31267	261
3.31633	261
3.32000	262
3.32367	264
3.32733	265
3.33100	264
3.33467	264
3.33833	267
3.34200	272
3.34567	275
3.34933	278
3.35300	281
3.35667	282
3.36033	280
3.36400	277
3.36767	274
3.37133	271
3.37500	269
3.37867	271
3.38233	278
3.38600	287
3.38967	292
3.39333	292
3.39700	290
3.40067	290
3.40433	295
3.40800	299
3.41167	298
3.41533	295
3.41900	292
3.42267	291
3.42633	290
3.43000	286
3.43367	278
3.43733	270
3.44100	269
3.44467	272
3.44833	279
3.45200	286
3.45567	290
3.45933	291
3.46300	288
3.46667	283
3.47033	275
3.47400	267
3.47767	263
3.48133	262
3.48500	261
3.48867	261
3.49233	263
3.49600	264
3.49967	265
3.50333	269
3.50700	278
3.51067	290
3.51433	299
3.51800	297
3.52167	290
3.52533	283
3.52900	280
3.53267	277
3.53633	274
3.54000	271
3.54367	268
3.54733	266
3.55100	266
3.55467	272
3.55833	279
3.56200	283
3.56567	280
3.56933	273
3.57300	267
3.57667	261
3.58033	255
3.58400	252
3.58767	252
3.59133	257
3.59500	267
3.59867	277
3.60233	285
3.60600	286
3.60967	280
3.61333	267
3.61700	255
3.62067	248
3.62433	247
3.62800	248
3.63167	249
3.63533	248
3.63900	249
3.64267	250
3.64633	251
3.65000	253
3.65367	255
3.65733	258
3.66100	261
3.66467	263
3.66833	264
3.67200	266
3.67567	269
3.67933	273
3.68300	274
3.68667	275
3.69033	277
3.69400	282
3.69767	283
3.70133	278
3.70500	268
3.70867	256
3.71233	243
3.71600	235
3.71967	233
3.72333	233
3.72700	236
3.73067	239
3.73433	241
3.73800	240
3.74167	241
3.74533	246
3.74900	251
3.75267	251
3.75633	244
3.76000	237
3.76367	230
3.76733	226
3.77100	226
3.77467	230
3.77833	238
3.78200	245
3.78567	247
3.78933	243
3.79300	238
3.79667	233
3.80033	232
3.80400	232
3.80767	232
3.81133	233
3.81500	233
3.81867	232
3.82233	232
3.82600	240
3.82967	250
3.83333	254
3.83700	252
3.84067	243
3.84433	236
3.84800	234
3.85167	231
3.85533	230
3.85900	230
3.86267	232
3.86633	238
3.87000	243
3.87367	245
3.87733	243
3.88100	240
3.88467	239
3.88833	238
3.89200	235
3.89567	232
3.89933	230
3.90300	229
3.90667	230
3.91033	231
3.91400	229
3.91767	228
3.92133	229
3.92500	232
3.92867	236
3.93233	241
3.93600	246
3.93967	250
3.94333	250
3.94700	251
3.95067	251
3.95433	249
3.95800	244
3.96167	235
3.96533	225
3.96900	217
3.97267	212
3.97633	209
3.98000	205
3.98367	199
3.98733	196
3.99100	196
3.99467	197
3.99833	201

[Chromatogram (Ch2)]
Interval(msec)	220
# of Points	1091
Start Time(min)	0.002
End Time(min)	3.998
R.Time (min)	Intensity
0.00167	-1
0.00533	-1
0.00900	-2
0.01267	-2
0.01633	-2
0.02000	-2
0.02367	-2
0.02733	-2
0.03100	-1
0.03467	-1
0.03833	-1
0.04200	-1
0.04567	-1
0.04933	-0
0.05300	-0
0.05667	-0
0.06033	-0
0.06400	-0
0.06767	-1
0.07133	-1
0.07500	-1
0.07867	-1
0.08233	-1
0.08600	-1
0.08967	-1
0.09333	-1
0.09700	-1
0.10067	-1
0.10433	-1
0.10800	-1
0.11167	-1
0.11533	-1
0.11900	-1
0.12267	-1
0.12633	-1
0.13000	-1
0.13367	-2
0.13733	-2
0.14100	-2
0.14467	-2
0.14833	-2
0.15200	-2
0.15567	-2
0.15933	-2
0.16300	-2
0.16667	-2
0.17033	-2
0.17400	-2
0.17767	-2
0.18133	-2
0.18500	-2
0.18867	-2
0.19233	-2
0.19600	-2
0.19967	-2
0.20333	-2
0.20700	-2
0.21067	-2
0.21433	-2
0.21800	-2
0.22167	-2
0.22533	-2
0.22900	-2
0.23267	-2
0.23633	-2
0.24000	-2
0.24367	-3
0.24733	-2
0.25100	-2
0.25467	-2
0.25833	-2
0.26200	-2
0.26567	-2
0.26933	-2
0.27300	-2
0.27667	-2
0.28033	-2
0.28400	-1
0.28767	-1
0.29133	-1
0.29500	-1
0.29867	-0
0.30233	-0
0.30600	-0
0.30967	-0
0.31333	-0
0.31700	-0
0.32067	-1
0.32433	-1
0.32800	-1
0.33167	-1
0.33533	-1
0.33900	-1
0.34267	-1
0.34633	-1
0.35000	-1
0.35367	-1
0.35733	-1
0.36100	-1
0.36467	-1
0.36833	-1
0.37200	-1
0.37567	-1
0.37933	-1
0.38300	-0
0.38667	0
0.39033	0
0.39400	1
0.39767	1
0.40133	1
0.40500	1
0.40867	1
0.41233	1
0.41600	1
0.41967	0
0.42333	0
0.42700	-0
0.43067	-0
0.43433	-1
0.43800	-1
0.44167	-1
0.44533	-1
0.44900	-1
0.45267	-1
0.45633	-1
0.46000	-1
0.46367	-1
0.46733	-1
0.47100	-1
0.47467	-2
0.47833	-2
0.48200	-2
0.48567	-2
0.48933	-3
0.49300	-3
0.49667	-3
0.50033	-3
0.50400	-3
0.50767	-3
0.51133	-3
0.51500	-3
0.51867	-3
0.52233	-3
0.52600	-3
0.52967	-3
0.53333	-3
0.53700	-3
0.54067	-3
0.54433	-4
0.54800	-4
0.55167	-4
0.55533	-4
0.55900	-4
0.56267	-4
0.56633	-3
0.57000	-3
0.57367	-3
0.57733	-3
0.58100	-2
0.58467	-2
0.58833	-2
0.59200	-2
0.59567	-2
0.59933	-1
0.60300	-1
0.60667	-1
0.61033	-1
0.61400	-0
0.61767	-0
0.62133	0
0.62500	1
0.62867	1
0.63233	1
0.63600	1
0.63967	0
0.64333	-0
0.64700	-0
0.65067	-0
0.65433	-0
0.65800	-0
0.66167	-1
0.66533	-1
0.66900	-1
0.67267	-1
0.67633	-2
0.68000	-2
0.68367	-3
0.68733	-3
0.69100	-4
0.69467	-4
0.69833	-4
0.70200	-5
0.70567	-5
0.70933	-5
0.71300	-5
0.71667	-5
0.72033	-5
0.72400	-5
0.72767	-4
0.73133	-4
0.73500	-4
0.73867	-4
0.74233	-4
0.74600	-4
0.74967	-4
0.75333	-4
0.75700	-4
0.76067	-4
0.76433	-4
0.76800	-3
0.77167	-3
0.77533	-3
0.77900	-3
0.78267	-3
0.78633	-3
0.79000	-3
0.79367	-3
0.79733	-3
0.80100	-3
0.80467	-3
0.80833	-3
0.81200	-3
0.81567	-3
0.81933	-3
0.82300	-3
0.82667	-3
0.83033	-3
0.83400	-2
0.83767	-2
0.84133	-2
0.84500	-3
0.84867	-3
0.85233	-3
0.85600	-3
0.85967	-3
0.86333	-3
0.86700	-3
0.87067	-3
0.87433	-3
0.87800	-3
0.88167	-3
0.88533	-3
0.88900	-3
0.89267	-3
0.89633	-3
0.90000	-2
0.90367	-2
0.90733	-2
0.91100	-2
0.91467	-2
0.91833	-2
0.92200	-1
0.92567	-1
0.92933	-1
0.93300	-1
0.93667	-1
0.94033	-1
0.94400	-1
0.94767	-2
0.95133	-2
0.95500	-2
0.95867	-3
0.96233	-3
0.96600	-3
0.96967	-3
0.97333	-3
0.97700	-3
0.98067	-3
0.98433	-3
0.98800	-3
0.99167	-3
0.99533	-3
0.99900	-3
1.00267	-3
1.00633	-3
1.01000	-2
1.01367	-2
1.01733	-2
1.02100	-2
1.02467	-2
1.02833	-2
1.03200	-2
1.03567	-2
1.03933	-2
1.04300	-2
1.04667	-2
1.05033	-1
1.05400	-1
1.05767	-1
1.06133	-1
1.06500	-1
1.06867	-1
1.07233	-1
1.07600	-1
1.07967	-1
1.08333	-2
1.08700	-2
1.09067	-2
1.09433	-2
1.09800	-3
1.10167	-3
1.10533	-3
1.10900	-4
1.11267	-4
1.11633	-4
1.12000	-4
1.12367	-4
1.12733	-4
1.13100	-4
1.13467	-4
1.13833	-3
1.14200	-3
1.14567	-4
1.14933	-4
1.15300	-4
1.15667	-4
1.16033	-4
1.16400	-4
1.16767	-4
1.17133	-4
1.17500	-4
1.17867	-5
1.18233	-5
1.18600	-5
1.18967	-5
1.19333	-5
1.19700	-5
1.20067	-5
1.20433	-5
1.20800	-5
1.21167	-5
1.21533	-5
1.21900	-5
1.22267	-6
1.22633	-6
1.23000	-6
1.23367	-6
1.23733	-6
1.24100	-6
1.24467	-6
1.24833	-6
1.25200	-6
1.25567	-7
1.25933	-7
1.26300	-7
1.26667	-7
1.27033	-7
1.27400	-7
1.27767	-7
1.28133	-6
1.28500	-6
1.28867	-5
1.29233	-5
1.29600	-5
1.29967	-4
1.30333	-4
1.30700	-4
1.31067	-3
1.31433	-3
1.31800	-3
1.32167	-3
1.32533	-3
1.32900	-3
1.33267	-3
1.33633	-3
1.34000	-3
1.34367	-3
1.34733	-4
1.35100	-4
1.35467	-4
1.35833	-3
1.36200	-3
1.36567	-3
1.36933	-3
1.37300	-3
1.37667	-3
1.38033	-3
1.38400	-3
1.38767	-3
1.39133	-3
1.39500	-3
1.39867	-3
1.40233	-3
1.40600	-3
1.40967	-3
1.41333	-3
1.41700	-3
1.42067	-3
1.42433	-3
1.42800	-3
1.43167	-3
1.43533	-3
1.43900	-3
1.44267	-3
1.44633	-4
1.45000	-4
1.45367	-4
1.45733	-4
1.46100	-4
1.46467	-5
1.46833	-5
1.47200	-5
1.47567	-5
1.47933	-5
1.48300	-5
1.48667	-5
1.49033	-4
1.49400	-4
1.49767	-4
1.50133	-4
1.50500	-4
1.50867	-4
1.51233	-4
1.51600	-4
1.51967	-4
1.52333	-3
1.52700	-3
1.53067	-3
1.53433	-3
1.53800	-4
1.54167	-4
1.54533	-4
1.54900	-4
1.55267	-5
1.55633	-5
1.56000	-5
1.56367	-6
1.56733	-6
1.57100	-7
1.57467	-7
1.57833	-7
1.58200	-7
1.58567	-7
1.58933	-8
1.59300	-8
1.59667	-8
1.60033	-8
1.60400	-9
1.60767	-10
1.61133	-12
1.61500	-14
1.61867	-16
1.62233	-18
1.62600	-21
1.62967	-23
1.63333	-26
1.63700	-29
1.64067	-33
1.64433	-36
1.64800	-39
1.65167	-42
1.65533	-45
1.65900	-49
1.66267	-52
1.66633	-56
1.67000	-60
1.67367	-64
1.67733	-69
1.68100	-74
1.68467	-78
1.68833	-82
1.69200	-85
1.69567	-89
1.69933	-91
1.70300	-94
1.70667	-95
1.71033	-96
1.71400	-97
1.71767	-97
1.72133	-98
1.72500	-98
1.72867	-99
1.73233	-100
1.73600	-101
1.73967	-102
1.74333	-103
1.74700	-104
1.75067	-104
1.75433	-105
1.75800	-105
1.76167	-105
1.76533	-104
1.76900	-104
1.77267	-104
1.77633	-104
1.78000	-104
1.78367	-104
1.78733	-105
1.79100	-106
1.79467	-107
1.79833	-107
1.80200	-108
1.80567	-108
1.80933	-108
1.81300	-108
1.81667	-108
1.82033	-108
1.82400	-108
1.82767	-108
1.83133	-108
1.83500	-108
1.83867	-108
1.84233	-107
1.84600	-107
1.84967	-107
1.85333	-107
1.85700	-107
1.86067	-107
1.86433	-107
1.86800	-108
1.87167	-108
1.87533	-108
1.87900	-108
1.88267	-108
1.88633	-108
1.89000	-107
1.89367	-107
1.89733	-106
1.90100	-106
1.90467	-106
1.90833	-106
1.91200	-105
1.91567	-105
1.91933	-104
1.92300	-104
1.92667	-104
1.93033	-105
1.93400	-105
1.93767	-105
1.94133	-104
1.94500	-104
1.94867	-103
1.95233	-103
1.95600	-102
1.95967	-102
1.96333	-101
1.96700	-100
1.97067	-100
1.97433	-100
1.97800	-100
1.98167	-100
1.98533	-100
1.98900	-100
1.99267	-100
1.99633	-100
2.00000	-99
2.00367	-99
2.00733	-99
2.01100	-99
2.01467	-99
2.01833	-99
2.02200	-98
2.02567	-98
2.02933	-98
2.03300	-97
2.03667	-96
2.04033	-96
2.04400	-95
2.04767	-95
2.05133	-95
2.05500	-94
2.05867	-94
2.06233	-93
2.06600	-93
2.06967	-93
2.07333	-93
2.07700	-93
2.08067	-92
2.08433	-92
2.08800	-92
2.09167	-92
2.09533	-92
2.09900	-92
2.10267	-92
2.10633	-91
2.11000	-91
2.11367	-91
2.11733	-90
2.12100	-90
2.12467	-90
2.12833	-90
2.13200	-90
2.13567	-90
2.13933	-89
2.14300	-89
2.14667	-88
2.15033	-88
2.15400	-87
2.15767	-87
2.16133	-87
2.16500	-87
2.16867	-86
2.17233	-85
2.17600	-85
2.17967	-85
2.18333	-85
2.18700	-86
2.19067	-86
2.19433	-87
2.19800	-86
2.20167	-86
2.20533	-85
2.20900	-84
2.21267	-83
2.21633	-82
2.22000	-82
2.22367	-82
2.22733	-83
2.23100	-84
2.23467	-85
2.23833	-85
2.24200	-85
2.24567	-85
2.24933	-84
2.25300	-83
2.25667	-82
2.26033	-81
2.26400	-81
2.26767	-81
2.27133	-81
2.27500	-80
2.27867	-80
2.28233	-80
2.28600	-79
2.28967	-79
2.29333	-78
2.29700	-77
2.30067	-77
2.30433	-77
2.30800	-76
2.31167	-76
2.31533	-76
2.31900	-75
2.32267	-75
2.32633	-74
2.33000	-73
2.33367	-72
2.33733	-72
2.34100	-72
2.34467	-72
2.34833	-73
2.35200	-73
2.35567	-72
2.35933	-71
2.36300	-69
2.36667	-67
2.37033	-64
2.37400	-61
2.37767	-57
2.38133	-53
2.38500	-49
2.38867	-45
2.39233	-41
2.39600	-36
2.39967	-32
2.40333	-27
2.40700	-23
2.41067	-19
2.41433	-16
2.41800	-13
2.42167	-10
2.42533	-8
2.42900	-7
2.43267	-5
2.43633	-3
2.44000	-2
2.44367	-0
2.44733	1
2.45100	3
2.45467	4
2.45833	5
2.46200	6
2.46567	7
2.46933	8
2.47300	8
2.47667	9
2.48033	10
2.48400	10
2.48767	11
2.49133	11
2.49500	11
2.49867	11
2.50233	11
2.50600	11
2.50967	11
2.51333	11
2.51700	11
2.52067	10
2.52433	10
2.52800	9
2.53167	9
2.53533	8
2.53900	8
2.54267	7
2.54633	8
2.55000	8
2.55367	8
2.55733	9
2.56100	9
2.56467	10
2.56833	11
2.57200	11
2.57567	12
2.57933	12
2.58300	13
2.58667	14
2.59033	14
2.59400	15
2.59767	15
2.60133	15
2.60500	15
2.60867	16
2.61233	16
2.61600	16
2.61967	17
2.62333	17
2.62700	17
2.63067	18
2.63433	18
2.63800	18
2.64167	18
2.64533	19
2.64900	19
2.65267	20
2.65633	20
2.66000	20
2.66367	21
2.66733	21
2.67100	21
2.67467	21
2.67833	21
2.68200	21
2.68567	22
2.68933	22
2.69300	22
2.69667	22
2.70033	22
2.70400	23
2.70767	23
2.71133	23
2.71500	24
2.71867	24
2.72233	25
2.72600	25
2.72967	25
2.73333	25
2.73700	25
2.74067	24
2.74433	24
2.74800	24
2.75167	24
2.75533	24
2.75900	24
2.76267	24
2.76633	25
2.77000	25
2.77367	26
2.77733	26
2.78100	27
2.78467	28
2.78833	29
2.79200	29
2.79567	29
2.79933	29
2.80300	30
2.80667	30
2.81033	30
2.81400	30
2.81767	30
2.82133	30
2.82500	30
2.82867	29
2.83233	29
2.83600	29
2.83967	29
2.84333	29
2.84700	29
2.85067	29
2.85433	28
2.85800	28
2.86167	27
2.86533	24
2.86900	20
2.87267	13
2.87633	2
2.88000	-12
2.88367	-30
2.88733	-54
2.89100	-84
2.89467	-118
2.89833	-157
2.90200	-201
2.90567	-250
2.90933	-302
2.91300	-358
2.91667	-417
2.92033	-477
2.92400	-539
2.92767	-602
2.93133	-664
2.93500	-725
2.93867	-783
2.94233	-838
2.94600	-891
2.94967	-944
2.95333	-999
2.95700	-1052
2.96067	-1091
2.96433	-1109
2.96800	-1101
2.97167	-1069
2.97533	-1017
2.97900	-951
2.98267	-874
2.98633	-794
2.99000	-713
2.99367	-634
2.99733	-560
3.00100	-491
3.00467	-428
3.00833	-370
3.01200	-320
3.01567	-274
3.01933	-235
3.02300	-200
3.02667	-170
3.03033	-143
3.03400	-120
3.03767	-101
3.04133	-84
3.04500	-70
3.04867	-57
3.05233	-47
3.05600	-38
3.05967	-30
3.06333	-24
3.06700	-18
3.07067	-13
3.07433	-8
3.07800	-5
3.08167	-2
3.08533	1
3.08900	3
3.09267	5
3.09633	7
3.10000	8
3.10367	10
3.10733	11
3.11100	12
3.11467	13
3.11833	14
3.12200	14
3.12567	15
3.12933	16
3.13300	16
3.13667	17
3.14033	17
3.14400	17
3.14767	18
3.15133	18
3.15500	19
3.15867	19
3.16233	19
3.16600	19
3.16967	20
3.17333	20
3.17700	20
3.18067	20
3.18433	20
3.18800	20
3.19167	20
3.19533	21
3.19900	21
3.20267	21
3.20633	21
3.21000	21
3.21367	22
3.21733	22
3.22100	22
3.22467	22
3.22833	23
3.23200	23
3.23567	23
3.23933	23
3.24300	23
3.24667	24
3.25033	24
3.25400	24
3.25767	24
3.26133	25
3.26500	25
3.26867	25
3.27233	25
3.27600	24
3.27967	24
3.28333	24
3.28700	24
3.29067	23
3.29433	23
3.29800	23
3.30167	23
3.30533	24
3.30900	24
3.31267	24
3.31633	25
3.32000	25
3.32367	26
3.32733	26
3.33100	27
3.33467	27
3.33833	27
3.34200	28
3.34567	28
3.34933	28
3.35300	29
3.35667	29
3.36033	29
3.36400	29
3.36767	29
3.37133	29
3.37500	29
3.37867	29
3.38233	29
3.38600	29
3.38967	29
3.39333	29
3.39700	29
3.40067	29
3.40433	29
3.40800	29
3.41167	29
3.41533	29
3.41900	29
3.42267	29
3.42633	29
3.43000	29
3.43367	29
3.43733	29
3.44100	29
3.44467	29
3.44833	29
3.45200	29
3.45567	28
3.45933	28
3.46300	28
3.46667	28
3.47033	28
3.47400	27
3.47767	27
3.48133	27
3.48500	27
3.48867	28
3.49233	28
3.49600	28
3.49967	28
3.50333	28
3.50700	28
3.51067	28
3.51433	28
3.51800	28
3.52167	28
3.52533	27
3.52900	27
3.53267	27
3.53633	28
3.54000	28
3.54367	28
3.54733	28
3.55100	27
3.55467	27
3.55833	27
3.56200	27
3.56567	27
3.56933	27
3.57300	27
3.57667	27
3.58033	27
3.58400	28
3.58767	28
3.59133	28
3.59500	28
3.59867	29
3.60233	29
3.60600	29
3.60967	29
3.61333	29
3.61700	29
3.62067	29
3.62433	29
3.62800	28
3.63167	28
3.63533	28
3.63900	28
3.64267	28
3.64633	27
3.65000	27
3.65367	27
3.65733	27
3.66100	27
3.66467	27
3.66833	27
3.67200	27
3.67567	27
3.67933	27
3.68300	27
3.68667	27
3.69033	27
3.69400	28
3.69767	28
3.70133	28
3.70500	28
3.70867	28
3.71233	28
3.71600	28
3.71967	29
3.72333	29
3.72700	29
3.73067	29
3.73433	29
3.73800	29
3.74167	29
3.74533	28
3.74900	28
3.75267	28
3.75633	28
3.76000	28
3.76367	28
3.76733	28
3.77100	28
3.77467	27
3.77833	27
3.78200	27
3.78567	28
3.78933	28
3.79300	28
3.79667	29
3.80033	29
3.80400	29
3.80767	29
3.81133	29
3.81500	30
3.81867	30
3.82233	30
3.82600	29
3.82967	29
3.83333	29
3.83700	29
3.84067	29
3.84433	28
3.84800	28
3.85167	28
3.85533	28
3.85900	27
3.86267	27
3.86633	27
3.87000	27
3.87367	27
3.87733	27
3.88100	27
3.88467	27
3.88833	27
3.89200	27
3.89567	27
3.89933	27
3.90300	27
3.90667	27
3.91033	27
3.91400	28
3.91767	28
3.92133	28
3.92500	28
3.92867	28
3.93233	28
3.93600	28
3.93967	28
3.94333	28
3.94700	29
3.95067	29
3.95433	29
3.95800	29
3.96167	29
3.96533	28
3.96900	29
3.97267	28
3.97633	28
3.98000	28
3.98367	28
3.98733	29
3.99100	29
3.99467	29
3.99833	29

[Chromatogram (Ch3)]
Interval(msec)	220
# of Points	1091
Start Time(min)	0.002
End Time(min)	3.998
R.Time (min)	Intensity
0.00167	0
0.00533	1
0.00900	2
0.01267	2
0.01633	3
0.02000	2
0.02367	-0
0.02733	-2
0.03100	-2
0.03467	-1
0.03833	0
0.04200	-1
0.04567	-2
0.04933	-1
0.05300	0
0.05667	-0
0.06033	-0
0.06400	-1
0.06767	-0
0.07133	0
0.07500	-1
0.07867	-2
0.08233	-3
0.08600	-1
0.08967	-0
0.09333	0
0.09700	-0
0.10067	-1
0.10433	1
0.10800	3
0.11167	2
0.11533	-0
0.11900	1
0.12267	1
0.12633	4
0.13000	5
0.13367	6
0.13733	8
0.14100	8
0.14467	7
0.14833	8
0.15200	10
0.15567	9
0.15933	7
0.16300	5
0.16667	5
0.17033	3
0.17400	0
0.17767	1
0.18133	2
0.18500	5
0.18867	6
0.19233	5
0.19600	5
0.19967	5
0.20333	5
0.20700	4
0.21067	7
0.21433	9
0.21800	9
0.22167	8
0.22533	10
0.22900	11
0.23267	9
0.23633	6
0.24000	7
0.24367	10
0.24733	11
0.25100	11
0.25467	11
0.25833	12
0.26200	12
0.26567	13
0.26933	12
0.27300	11
0.27667	9
0.28033	7
0.28400	8
0.28767	9
0.29133	10
0.29500	10
0.29867	11
0.30233	14
0.30600	14
0.30967	13
0.31333	10
0.31700	9
0.32067	7
0.32433	6
0.32800	7
0.33167	7
0.33533	8
0.33900	8
0.34267	9
0.34633	11
0.35000	13
0.35367	13
0.35733	12
0.36100	12
0.36467	14
0.36833	15
0.37200	14
0.37567	12
0.37933	13
0.38300	15
0.38667	16
0.39033	16
0.39400	15
0.39767	14
0.40133	16
0.40500	17
0.40867	14
0.41233	14
0.41600	15
0.41967	15
0.42333	16
0.42700	15
0.43067	13
0.43433	13
0.43800	14
0.44167	15
0.44533	16
0.44900	16
0.45267	16
0.45633	16
0.46000	17
0.46367	16
0.46733	14
0.47100	13
0.47467	13
0.47833	14
0.48200	17
0.48567	18
0.48933	18
0.49300	15
0.49667	12
0.50033	10
0.50400	10
0.50767	11
0.51133	13
0.51500	12
0.51867	12
0.52233	14
0.52600	15
0.52967	14
0.53333	13
0.53700	13
0.54067	14
0.54433	14
0.54800	15
0.55167	15
0.55533	15
0.55900	15
0.56267	17
0.56633	17
0.57000	16
0.57367	14
0.57733	13
0.58100	15
0.58467	16
0.58833	17
0.59200	17
0.59567	16
0.59933	13
0.60300	14
0.60667	14
0.61033	16
0.61400	17
0.61767	18
0.62133	18
0.62500	17
0.62867	15
0.63233	16
0.63600	16
0.63967	17
0.64333	18
0.64700	16
0.65067	15
0.65433	14
0.65800	14
0.66167	15
0.66533	14
0.66900	11
0.67267	11
0.67633	13
0.68000	15
0.68367	15
0.68733	16
0.69100	15
0.69467	14
0.69833	15
0.70200	16
0.70567	16
0.70933	17
0.71300	17
0.71667	16
0.72033	17
0.72400	21
0.72767	24
0.73133	25
0.73500	26
0.73867	24
0.74233	23
0.74600	22
0.74967	21
0.75333	21
0.75700	22
0.76067	24
0.76433	24
0.76800	23
0.77167	23
0.77533	22
0.77900	21
0.78267	22
0.78633	23
0.79000	22
0.79367	23
0.79733	23
0.80100	21
0.80467	20
0.80833	20
0.81200	20
0.81567	19
0.81933	21
0.82300	20
0.82667	20
0.83033	22
0.83400	22
0.83767	20
0.84133	20
0.84500	20
0.84867	21
0.85233	20
0.85600	20
0.85967	21
0.86333	21
0.86700	20
0.87067	21
0.87433	22
0.87800	21
0.88167	21
0.88533	21
0.88900	21
0.89267	22
0.89633	23
0.90000	24
0.90367	24
0.90733	23
0.91100	23
0.91467	24
0.91833	25
0.92200	27
0.92567	29
0.92933	30
0.93300	30
0.93667	30
0.94033	29
0.94400	31
0.94767	31
0.95133	29
0.95500	28
0.95867	27
0.96233	26
0.96600	28
0.96967	29
0.97333	28
0.97700	29
0.98067	31
0.98433	30
0.98800	28
0.99167	26
0.99533	23
0.99900	22
1.00267	22
1.00633	23
1.01000	24
1.01367	24
1.01733	25
1.02100	26
1.02467	27
1.02833	27
1.03200	27
1.03567	25
1.03933	25
1.04300	26
1.04667	26
1.05033	26
1.05400	26
1.05767	26
1.06133	25
1.06500	24
1.06867	25
1.07233	27
1.07600	27
1.07967	28
1.08333	26
1.08700	25
1.09067	24
1.09433	23
1.09800	23
1.10167	25
1.10533	26
1.10900	25
1.11267	22
1.11633	21
1.12000	22
1.12367	22
1.12733	21
1.13100	20
1.13467	22
1.13833	23
1.14200	22
1.14567	23
1.14933	24
1.15300	26
1.15667	30
1.16033	29
1.16400	26
1.16767	25
1.17133	23
1.17500	25
1.17867	25
1.18233	26
1.18600	26
1.18967	27
1.19333	27
1.19700	24
1.20067	22
1.20433	23
1.20800	24
1.21167	22
1.21533	21
1.21900	22
1.22267	23
1.22633	25
1.23000	25
1.23367	27
1.23733	28
1.24100	28
1.24467	31
1.24833	32
1.25200	33
1.25567	32
1.25933	31
1.26300	28
1.26667	25
1.27033	23
1.27400	22
1.27767	24
1.28133	26
1.28500	27
1.28867	29
1.29233	31
1.29600	30
1.29967	29
1.30333	28
1.30700	27
1.31067	28
1.31433	30
1.31800	31
1.32167	30
1.32533	30
1.32900	32
1.33267	33
1.33633	31
1.34000	30
1.34367	29
1.34733	29
1.35100	28
1.35467	29
1.35833	29
1.36200	29
1.36567	28
1.36933	29
1.37300	29
1.37667	28
1.38033	28
1.38400	30
1.38767	31
1.39133	32
1.39500	32
1.39867	33
1.40233	33
1.40600	32
1.40967	30
1.41333	28
1.41700	29
1.42067	30
1.42433	31
1.42800	31
1.43167	31
1.43533	30
1.43900	27
1.44267	23
1.44633	21
1.45000	21
1.45367	23
1.45733	25
1.46100	26
1.46467	26
1.46833	25
1.47200	28
1.47567	29
1.47933	31
1.48300	31
1.48667	30
1.49033	29
1.49400	29
1.49767	28
1.50133	27
1.50500	28
1.50867	29
1.51233	29
1.51600	27
1.51967	27
1.52333	26
1.52700	25
1.53067	24
1.53433	23
1.53800	23
1.54167	24
1.54533	23
1.54900	22
1.55267	23
1.55633	23
1.56000	25
1.56367	27
1.56733	27
1.57100	25
1.57467	25
1.57833	25
1.58200	24
1.58567	23
1.58933	24
1.59300	25
1.59667	26
1.60033	27
1.60400	28
1.60767	27
1.61133	27
1.61500	29
1.61867	28
1.62233	27
1.62600	26
1.62967	28
1.63333	28
1.63700	27
1.64067	26
1.64433	26
1.64800	29
1.65167	33
1.65533	34
1.65900	33
1.66267	32
1.66633	32
1.67000	31
1.67367	30
1.67733	30
1.68100	32
1.68467	33
1.68833	33
1.69200	35
1.69567	38
1.69933	38
1.70300	37
1.70667	39
1.71033	40
1.71400	41
1.71767	41
1.72133	40
1.72500	40
1.72867	39
1.73233	37
1.73600	36
1.73967	37
1.74333	39
1.74700	40
1.75067	41
1.75433	41
1.75800	40
1.76167	41
1.76533	42
1.76900	43
1.77267	44
1.77633	43
1.78000	43
1.78367	44
1.78733	45
1.79100	46
1.79467	47
1.79833	50
1.80200	50
1.80567	47
1.80933	45
1.81300	45
1.81667	47
1.82033	48
1.82400	49
1.82767	49
1.83133	51
1.83500	52
1.83867	52
1.84233	52
1.84600	50
1.84967	51
1.85333	50
1.85700	51
1.86067	53
1.86433	55
1.86800	56
1.87167	57
1.87533	59
1.87900	61
1.88267	62
1.88633	64
1.89000	66
1.89367	66
1.89733	66
1.90100	65
1.90467	64
1.90833	64
1.91200	63
1.91567	64
1.91933	65
1.92300	65
1.92667	65
1.93033	64
1.93400	63
1.93767	62
1.94133	63
1.94500	64
1.94867	64
1.95233	67
1.95600	68
1.95967	71
1.96333	73
1.96700	74
1.97067	77
1.97433	77
1.97800	74
1.98167	73
1.98533	74
1.98900	76
1.99267	78
1.99633	78
2.00000	78
2.00367	78
2.00733	78
2.01100	77
2.01467	74
2.01833	72
2.02200	72
2.02567	73
2.02933	75
2.03300	78
2.03667	82
2.04033	86
2.04400	89
2.04767	91
2.05133	92
2.05500	91
2.05867	90
2.06233	89
2.06600	88
2.06967	88
2.07333	89
2.07700	89
2.08067	89
2.08433	89
2.08800	89
2.09167	90
2.09533	92
2.09900	94
2.10267	96
2.10633	99
2.11000	98
2.11367	98
2.11733	99
2.12100	101
2.12467	103
2.12833	102
2.13200	102
2.13567	101
2.13933	101
2.14300	102
2.14667	102
2.15033	103
2.15400	104
2.15767	103
2.16133	103
2.16500	104
2.16867	105
2.17233	107
2.17600	108
2.17967	109
2.18333	110
2.18700	111
2.19067	109
2.19433	107
2.19800	108
2.20167	108
2.20533	107
2.20900	108
2.21267	111
2.21633	113
2.22000	113
2.22367	115
2.22733	117
2.23100	120
2.23467	122
2.23833	121
2.24200	120
2.24567	122
2.24933	124
2.25300	124
2.25667	121
2.26033	119
2.26400	117
2.26767	118
2.27133	119
2.27500	122
2.27867	124
2.28233	123
2.28600	120
2.28967	121
2.29333	121
2.29700	121
2.30067	122
2.30433	124
2.30800	125
2.31167	128
2.31533	130
2.31900	130
2.32267	130
2.32633	131
2.33000	129
2.33367	127
2.33733	128
2.34100	129
2.34467	129
2.34833	129
2.35200	126
2.35567	125
2.35933	126
2.36300	126
2.36667	125
2.37033	126
2.37400	127
2.37767	129
2.38133	132
2.38500	132
2.38867	131
2.39233	130
2.39600	131
2.39967	132
2.40333	135
2.40700	136
2.41067	137
2.41433	138
2.41800	137
2.42167	138
2.42533	139
2.42900	139
2.43267	138
2.43633	139
2.44000	146
2.44367	196
2.44733	302
2.45100	421
2.45467	521
2.45833	601
2.46200	664
2.46567	706
2.46933	731
2.47300	749
2.47667	767
2.48033	785
2.48400	801
2.48767	817
2.49133	834
2.49500	844
2.49867	845
2.50233	840
2.50600	832
2.50967	819
2.51333	807
2.51700	800
2.52067	795
2.52433	792
2.52800	790
2.53167	792
2.53533	795
2.53900	800
2.54267	806
2.54633	815
2.55000	823
2.55367	830
2.55733	835
2.56100	838
2.56467	837
2.56833	830
2.57200	819
2.57567	804
2.57933	788
2.58300	773
2.58667	758
2.59033	747
2.59400	735
2.59767	726
2.60133	716
2.60500	710
2.60867	705
2.61233	702
2.61600	699
2.61967	697
2.62333	694
2.62700	694
2.63067	693
2.63433	688
2.63800	682
2.64167	679
2.64533	677
2.64900	676
2.65267	675
2.65633	675
2.66000	675
2.66367	676
2.66733	678
2.67100	681
2.67467	686
2.67833	692
2.68200	698
2.68567	701
2.68933	705
2.69300	709
2.69667	713
2.70033	713
2.70400	712
2.70767	712
2.71133	710
2.71500	707
2.71867	703
2.72233	697
2.72600	691
2.72967	686
2.73333	678
2.73700	671
2.74067	665
2.74433	659
2.74800	652
2.75167	646
2.75533	642
2.75900	637
2.76267	632
2.76633	629
2.77000	627
2.77367	624
2.77733	621
2.78100	621
2.78467	622
2.78833	625
2.79200	628
2.79567	629
2.79933	631
2.80300	633
2.80667	632
2.81033	632
2.81400	631
2.81767	631
2.82133	632
2.82500	633
2.82867	635
2.83233	640
2.83600	652
2.83967	680
2.84333	734
2.84700	834
2.85067	1006
2.85433	1267
2.85800	1632
2.86167	2096
2.86533	2636
2.86900	3217
2.87267	3789
2.87633	4309
2.88000	4735
2.88367	5028
2.88733	5177
2.89100	5186
2.89467	5075
2.89833	4869
2.90200	4594
2.90567	4277
2.90933	3943
2.91300	3609
2.91667	3283
2.92033	2976
2.92400	2693
2.92767	2435
2.93133	2204
2.93500	1997
2.93867	1816
2.94233	1654
2.94600	1514
2.94967	1394
2.95333	1291
2.95700	1201
2.96067	1123
2.96433	1057
2.96800	1000
2.97167	950
2.97533	907
2.97900	872
2.98267	842
2.98633	816
2.99000	792
2.99367	770
2.99733	753
3.00100	738
3.00467	724
3.00833	711
3.01200	700
3.01567	692
3.01933	688
3.02300	685
3.02667	682
3.03033	678
3.03400	676
3.03767	673
3.04133	667
3.04500	665
3.04867	664
3.05233	661
3.05600	658
3.05967	654
3.06333	648
3.06700	644
3.07067	644
3.07433	642
3.07800	639
3.08167	637
3.08533	635
3.08900	632
3.09267	630
3.09633	627
3.10000	625
3.10367	622
3.10733	620
3.11100	620
3.11467	619
3.11833	616
3.12200	613
3.12567	609
3.12933	604
3.13300	600
3.13667	601
3.14033	601
3.14400	598
3.14767	594
3.15133	593
3.15500	591
3.15867	589
3.16233	589
3.16600	586
3.16967	582
3.17333	581
3.17700	579
3.18067	578
3.18433	577
3.18800	574
3.19167	572
3.19533	572
3.19900	571
3.20267	568
3.20633	566
3.21000	564
3.21367	559
3.21733	556
3.22100	556
3.22467	557
3.22833	555
3.23200	555
3.23567	554
3.23933	553
3.24300	549
3.24667	547
3.25033	545
3.25400	542
3.25767	541
3.26133	542
3.26500	540
3.26867	539
3.27233	537
3.27600	534
3.27967	531
3.28333	529
3.28700	525
3.29067	520
3.29433	518
3.29800	515
3.30167	512
3.30533	511
3.30900	509
3.31267	507
3.31633	504
3.32000	501
3.32367	500
3.32733	496
3.33100	494
3.33467	494
3.33833	492
3.34200	489
3.34567	488
3.34933	485
3.35300	483
3.35667	480
3.36033	478
3.36400	476
3.36767	471
3.37133	467
3.37500	464
3.37867	462
3.38233	462
3.38600	461
3.38967	462
3.39333	461
3.39700	458
3.40067	455
3.40433	451
3.40800	447
3.41167	443
3.41533	439
3.41900	434
3.42267	431
3.42633	427
3.43000	425
3.43367	423
3.43733	422
3.44100	420
3.44467	417
3.44833	416
3.45200	417
3.45567	415
3.45933	412
3.46300	408
3.46667	404
3.47033	402
3.47400	403
3.47767	403
3.48133	403
3.48500	401
3.48867	398
3.49233	397
3.49600	395
3.49967	390
3.50333	386
3.50700	385
3.51067	384
3.51433	381
3.51800	379
3.52167	379
3.52533	378
3.52900	376
3.53267	375
3.53633	375
3.54000	376
3.54367	375
3.54733	373
3.55100	370
3.55467	367
3.55833	365
3.56200	362
3.56567	359
3.56933	356
3.57300	356
3.57667	356
3.58033	355
3.58400	353
3.58767	351
3.59133	350
3.59500	348
3.59867	345
3.60233	341
3.60600	338
3.60967	337
3.61333	337
3.61700	336
3.62067	336
3.62433	334
3.62800	332
3.63167	330
3.63533	327
3.63900	324
3.64267	323
3.64633	322
3.65000	319
3.65367	319
3.65733	319
3.66100	320
3.66467	319
3.66833	319
3.67200	317
3.67567	312
3.67933	308
3.68300	306
3.68667	304
3.69033	305
3.69400	306
3.69767	306
3.70133	305
3.70500	302
3.70867	299
3.71233	296
3.71600	294
3.71967	293
3.72333	293
3.72700	291
3.73067	289
3.73433	287
3.73800	286
3.74167	286
3.74533	285
3.74900	284
3.75267	282
3.75633	281
3.76000	281
3.76367	280
3.76733	278
3.77100	278
3.77467	278
3.77833	278
3.78200	277
3.78567	275
3.78933	273
3.79300	270
3.79667	268
3.80033	266
3.80400	264
3.80767	263
3.81133	261
3.81500	261
3.81867	262
3.82233	262
3.82600	261
3.82967	260
3.83333	259
3.83700	257
3.84067	256
3.84433	254
3.84800	253
3.85167	254
3.85533	253
3.85900	251
3.86267	248
3.86633	247
3.87000	248
3.87367	247
3.87733	246
3.88100	247
3.88467	248
3.88833	248
3.89200	247
3.89567	248
3.89933	247
3.90300	246
3.90667	245
3.91033	244
3.91400	243
3.91767	244
3.92133	243
3.92500	240
3.92867	238
3.93233	236
3.93600	235
3.93967	232
3.94333	232
3.94700	232
3.95067	231
3.95433	231
3.95800	229
3.96167	230
3.96533	231
3.96900	232
3.97267	234
3.97633	235
3.98000	233
3.98367	231
3.98733	230
3.99100	230
3.99467	230
3.99833	229

[Status Trace (Column Oven Temperature)]
Interval(msec)	1000
# of Points	240
Start Time(min)	0.010
End Time(min)	3.994
Intensity Units	
Intensity Multiplier	1
R.Time (min)	Intensity
0.01035	35.07
0.02702	35.06
0.04368	35.06
0.06035	35.05
0.07702	35.05
0.09368	35.05
0.11035	35.05
0.12702	35.05
0.14368	35.05
0.16035	35.06
0.17702	35.05
0.19368	35.05
0.21035	35.05
0.22702	35.06
0.24368	35.05
0.26035	35.05
0.27702	35.04
0.29368	35.03
0.31035	35.03
0.32702	35.02
0.34368	35.02
0.36035	35.01
0.37702	35.00
0.39368	35.00
0.41035	34.99
0.42702	34.99
0.44368	34.99
0.46035	34.99
0.47702	34.99
0.49368	35.01
0.51035	35.01
0.52702	35.02
0.54368	35.03
0.56035	35.04
0.57702	35.03
0.59368	35.01
0.61035	35.01
0.62702	35.00
0.64368	34.99
0.66035	34.98
0.67702	34.99
0.69368	35.00
0.71035	35.00
0.72702	35.02
0.74368	35.02
0.76035	35.03
0.77702	35.03
0.79368	35.04
0.81035	35.05
0.82702	35.04
0.84368	35.04
0.86035	35.04
0.87702	35.02
0.89368	35.02
0.91035	35.00
0.92702	35.00
0.94368	35.01
0.96035	35.01
0.97702	35.01
0.99368	35.02
1.01035	35.02
1.02702	35.02
1.04368	35.01
1.06035	35.00
1.07702	34.99
1.09368	35.00
1.11035	35.00
1.12702	35.00
1.14368	35.00
1.16035	35.01
1.17702	35.01
1.19368	35.01
1.21035	35.02
1.22702	35.01
1.24368	35.02
1.26035	35.03
1.27702	35.03
1.29368	35.04
1.31035	35.04
1.32702	35.03
1.34368	35.02
1.36035	35.01
1.37702	35.02
1.39368	35.01
1.41035	34.99
1.42702	34.99
1.44368	34.99
1.46035	34.99
1.47702	34.99
1.49368	34.98
1.51035	34.98
1.52702	34.98
1.54368	34.98
1.56035	35.00
1.57702	35.01
1.59368	35.03
1.61035	35.10
1.62702	35.23
1.64368	35.42
1.66035	35.65
1.67702	35.99
1.69368	36.35
1.71035	36.68
1.72702	37.02
1.74368	37.38
1.76035	37.70
1.77702	38.03
1.79368	38.37
1.81035	38.71
1.82702	39.03
1.84368	39.36
1.86035	39.68
1.87702	40.02
1.89368	40.34
1.91035	40.66
1.92702	40.99
1.94368	41.32
1.96035	41.63
1.97702	41.95
1.99368	42.28
2.01035	42.60
2.02702	42.92
2.04368	43.25
2.06035	43.57
2.07702	43.89
2.09368	44.22
2.11035	44.54
2.12702	44.87
2.14368	45.19
2.16035	45.52
2.17702	45.85
2.19368	46.20
2.21035	46.51
2.22702	46.86
2.24368	47.20
2.26035	47.52
2.27702	47.87
2.29368	48.19
2.31035	48.52
2.32702	48.83
2.34368	49.18
2.36035	49.48
2.37702	49.62
2.39368	49.65
2.41035	49.63
2.42702	49.65
2.44368	49.66
2.46035	49.67
2.47702	49.68
2.49368	49.71
2.51035	49.72
2.52702	49.74
2.54368	49.76
2.56035	49.76
2.57702	49.79
2.59368	49.79
2.61035	49.80
2.62702	49.82
2.64368	49.82
2.66035	49.82
2.67702	49.83
2.69368	49.85
2.71035	49.85
2.72702	49.85
2.74368	49.88
2.76035	49.88
2.77702	49.88
2.79368	49.86
2.81035	49.86
2.82702	49.87
2.84368	49.87
2.86035	49.87
2.87702	49.87
2.89368	49.88
2.91035	49.90
2.92702	49.92
2.94368	49.94
2.96035	49.95
2.97702	49.96
2.99368	49.97
3.01035	49.98
3.02702	49.98
3.04368	49.99
3.06035	50.01
3.07702	50.01
3.09368	50.03
3.11035	50.04
3.12702	50.05
3.14368	50.05
3.16035	50.05
3.17702	50.06
3.19368	50.07
3.21035	50.08
3.22702	50.07
3.24368	50.07
3.26035	50.08
3.27702	50.10
3.29368	50.11
3.31035	50.11
3.32702	50.09
3.34368	50.08
3.36035	50.07
3.37702	50.06
3.39368	50.06
3.41035	50.05
3.42702	50.05
3.44368	50.04
3.46035	50.04
3.47702	50.05
3.49368	50.06
3.51035	50.06
3.52702	50.06
3.54368	50.07
3.56035	50.07
3.57702	50.07
3.59368	50.06
3.61035	50.07
3.62702	50.06
3.64368	50.07
3.66035	50.08
3.67702	50.08
3.69368	50.08
3.71035	50.08
3.72702	50.07
3.74368	50.08
3.76035	50.08
3.77702	50.09
3.79368	50.08
3.81035	50.06
3.82702	50.05
3.84368	50.06
3.86035	50.07
3.87702	50.07
3.89368	50.07
3.91035	50.07
3.92702	50.07
3.94368	50.07
3.96035	50.06
3.97702	50.06
3.99368	50.05

[Status Trace (Injection Unit Temperature)]
Interval(msec)	1000
# of Points	240
Start Time(min)	0.010
End Time(min)	3.994
Intensity Units	
Intensity Multiplier	1
R.Time (min)	Intensity
0.01035	99.98
0.02702	99.98
0.04368	99.98
0.06035	99.98
0.07702	99.98
0.09368	99.98
0.11035	99.98
0.12702	99.98
0.14368	99.98
0.16035	99.99
0.17702	99.99
0.19368	99.99
0.21035	99.99
0.22702	99.99
0.24368	99.98
0.26035	99.98
0.27702	99.98
0.29368	99.99
0.31035	99.99
0.32702	99.99
0.34368	99.99
0.36035	99.99
0.37702	99.99
0.39368	99.98
0.41035	99.99
0.42702	99.99
0.44368	99.99
0.46035	99.99
0.47702	99.99
0.49368	99.99
0.51035	99.99
0.52702	99.99
0.54368	99.99
0.56035	99.99
0.57702	99.99
0.59368	99.99
0.61035	99.99
0.62702	99.99
0.64368	99.99
0.66035	99.99
0.67702	99.99
0.69368	99.99
0.71035	99.99
0.72702	99.99
0.74368	99.99
0.76035	99.99
0.77702	99.98
0.79368	99.99
0.81035	99.99
0.82702	99.99
0.84368	99.98
0.86035	99.98
0.87702	99.98
0.89368	99.99
0.91035	99.98
0.92702	99.99
0.94368	99.98
0.96035	99.98
0.97702	99.98
0.99368	99.98
1.01035	99.99
1.02702	99.98
1.04368	99.98
1.06035	99.98
1.07702	99.98
1.09368	99.98
1.11035	99.98
1.12702	99.99
1.14368	99.98
1.16035	99.98
1.17702	99.99
1.19368	99.98
1.21035	99.98
1.22702	99.98
1.24368	99.98
1.26035	99.98
1.27702	99.98
1.29368	99.98
1.31035	99.98
1.32702	99.98
1.34368	99.98
1.36035	99.98
1.37702	99.98
1.39368	99.98
1.41035	99.98
1.42702	99.98
1.44368	99.97
1.46035	99.98
1.47702	99.99
1.49368	99.98
1.51035	99.98
1.52702	99.98
1.54368	99.98
1.56035	99.98
1.57702	99.98
1.59368	99.98
1.61035	99.98
1.62702	99.98
1.64368	99.99
1.66035	99.99
1.67702	99.99
1.69368	99.99
1.71035	99.99
1.72702	99.98
1.74368	99.99
1.76035	99.99
1.77702	99.99
1.79368	99.99
1.81035	99.99
1.82702	99.99
1.84368	99.98
1.86035	99.98
1.87702	99.98
1.89368	99.98
1.91035	99.98
1.92702	99.98
1.94368	99.98
1.96035	99.98
1.97702	99.98
1.99368	99.98
2.01035	99.98
2.02702	99.98
2.04368	99.98
2.06035	99.98
2.07702	99.97
2.09368	99.98
2.11035	99.97
2.12702	99.98
2.14368	99.98
2.16035	99.97
2.17702	99.97
2.19368	99.97
2.21035	99.97
2.22702	99.97
2.24368	99.96
2.26035	99.97
2.27702	99.96
2.29368	99.96
2.31035	99.97
2.32702	99.96
2.34368	99.96
2.36035	99.96
2.37702	99.96
2.39368	99.96
2.41035	99.96
2.42702	99.96
2.44368	99.96
2.46035	99.96
2.47702	99.96
2.49368	99.96
2.51035	99.96
2.52702	99.97
2.54368	99.97
2.56035	99.97
2.57702	99.97
2.59368	99.97
2.61035	99.97
2.62702	99.97
2.64368	99.98
2.66035	99.98
2.67702	99.98
2.69368	99.98
2.71035	99.98
2.72702	99.98
2.74368	99.99
2.76035	99.99
2.77702	99.99
2.79368	99.99
2.81035	99.99
2.82702	100.00
2.84368	99.99
2.86035	100.00
2.87702	100.00
2.89368	100.00
2.91035	100.01
2.92702	100.01
2.94368	100.01
2.96035	100.01
2.97702	100.01
2.99368	100.01
3.01035	100.02
3.02702	100.02
3.04368	100.02
3.06035	100.02
3.07702	100.02
3.09368	100.03
3.11035	100.03
3.12702	100.02
3.14368	100.02
3.16035	100.03
3.17702	100.03
3.19368	100.03
3.21035	100.03
3.22702	100.03
3.24368	100.03
3.26035	100.03
3.27702	100.03
3.29368	100.03
3.31035	100.04
3.32702	100.03
3.34368	100.03
3.36035	100.04
3.37702	100.03
3.39368	100.04
3.41035	100.04
3.42702	100.04
3.44368	100.04
3.46035	100.04
3.47702	100.04
3.49368	100.04
3.51035	100.04
3.52702	100.04
3.54368	100.05
3.56035	100.05
3.57702	100.05
3.59368	100.05
3.61035	100.05
3.62702	100.05
3.64368	100.05
3.66035	100.05
3.67702	100.05
3.69368	100.05
3.71035	100.05
3.72702	100.05
3.74368	100.05
3.76035	100.05
3.77702	100.05
3.79368	100.05
3.81035	100.05
3.82702	100.05
3.84368	100.05
3.86035	100.05
3.87702	100.05
3.89368	100.05
3.91035	100.06
3.92702	100.05
3.94368	100.05
3.96035	100.05
3.97702	100.05
3.99368	100.05

[Status Trace (Carrier Gas Pressure)]
Interval(msec)	1000
# of Points	240
Start Time(min)	0.010
End Time(min)	3.994
Intensity Units	
Intensity Multiplier	1
R.Time (min)	Intensity
0.01035	58.00
0.02702	55.06
0.04368	57.46
0.06035	59.62
0.07702	58.95
0.09368	58.01
0.11035	57.99
0.12702	58.01
0.14368	58.01
0.16035	58.00
0.17702	58.00
0.19368	58.00
0.21035	58.00
0.22702	58.00
0.24368	58.00
0.26035	58.00
0.27702	58.00
0.29368	58.00
0.31035	58.00
0.32702	58.00
0.34368	58.00
0.36035	58.00
0.37702	58.00
0.39368	58.00
0.41035	58.00
0.42702	58.00
0.44368	58.00
0.46035	58.00
0.47702	58.00
0.49368	58.00
0.51035	58.00
0.52702	58.00
0.54368	58.00
0.56035	58.00
0.57702	58.00
0.59368	58.00
0.61035	58.00
0.62702	58.00
0.64368	58.00
0.66035	58.00
0.67702	58.00
0.69368	58.00
0.71035	58.00
0.72702	58.00
0.74368	58.00
0.76035	58.00
0.77702	58.00
0.79368	58.00
0.81035	58.00
0.82702	58.00
0.84368	58.00
0.86035	58.00
0.87702	58.00
0.89368	58.00
0.91035	58.00
0.92702	58.00
0.94368	58.00
0.96035	58.00
0.97702	58.00
0.99368	58.00
1.01035	58.00
1.02702	58.00
1.04368	58.00
1.06035	58.00
1.07702	58.00
1.09368	58.00
1.11035	58.00
1.12702	58.00
1.14368	58.00
1.16035	58.00
1.17702	58.00
1.19368	58.00
1.21035	58.00
1.22702	58.00
1.24368	58.00
1.26035	58.00
1.27702	58.00
1.29368	58.00
1.31035	58.00
1.32702	58.00
1.34368	58.00
1.36035	58.00
1.37702	58.00
1.39368	58.00
1.41035	58.00
1.42702	58.00
1.44368	58.00
1.46035	58.00
1.47702	58.00
1.49368	58.00
1.51035	58.00
1.52702	58.00
1.54368	58.00
1.56035	58.00
1.57702	58.00
1.59368	58.00
1.61035	58.00
1.62702	58.00
1.64368	58.00
1.66035	58.00
1.67702	58.01
1.69368	58.00
1.71035	58.00
1.72702	58.00
1.74368	58.00
1.76035	58.00
1.77702	58.00
1.79368	58.00
1.81035	58.00
1.82702	58.00
1.84368	58.00
1.86035	58.00
1.87702	58.00
1.89368	58.00
1.91035	58.00
1.92702	58.00
1.94368	58.00
1.96035	58.00
1.97702	58.00
1.99368	58.00
2.01035	58.00
2.02702	58.00
2.04368	58.00
2.06035	58.00
2.07702	58.00
2.09368	58.00
2.11035	58.00
2.12702	58.00
2.14368	58.00
2.16035	58.00
2.17702	58.00
2.19368	58.00
2.21035	58.00
2.22702	58.00
2.24368	58.00
2.26035	58.00
2.27702	58.00
2.29368	58.00
2.31035	58.00
2.32702	58.00
2.34368	58.00
2.36035	58.00
2.37702	57.99
2.39368	57.99
2.41035	58.00
2.42702	58.00
2.44368	58.00
2.46035	58.00
2.47702	58.00
2.49368	58.00
2.51035	57.99
2.52702	57.99
2.54368	58.00
2.56035	58.00
2.57702	58.00
2.59368	58.00
2.61035	58.00
2.62702	58.00
2.64368	58.00
2.66035	58.00
2.67702	58.00
2.69368	58.00
2.71035	58.00
2.72702	58.00
2.74368	58.00
2.76035	58.00
2.77702	58.00
2.79368	58.00
2.81035	58.00
2.82702	58.00
2.84368	58.00
2.86035	58.00
2.87702	58.00
2.89368	58.00
2.91035	58.00
2.92702	58.00
2.94368	58.00
2.96035	58.00
2.97702	58.00
2.99368	58.00
3.01035	58.00
3.02702	58.00
3.04368	58.00
3.06035	58.00
3.07702	58.00
3.09368	58.00
3.11035	58.00
3.12702	58.00
3.14368	58.00
3.16035	58.00
3.17702	58.00
3.19368	58.00
3.21035	58.00
3.22702	58.00
3.24368	58.00
3.26035	58.00
3.27702	58.00
3.29368	58.00
3.31035	58.00
3.32702	58.00
3.34368	58.00
3.36035	58.00
3.37702	58.00
3.39368	58.00
3.41035	58.00
3.42702	58.00
3.44368	58.00
3.46035	58.00
3.47702	58.00
3.49368	58.00
3.51035	58.00
3.52702	58.00
3.54368	58.00
3.56035	58.00
3.57702	58.00
3.59368	58.00
3.61035	58.00
3.62702	58.00
3.64368	58.00
3.66035	58.00
3.67702	58.00
3.69368	58.00
3.71035	58.00
3.72702	58.00
3.74368	58.00
3.76035	58.00
3.77702	58.00
3.79368	58.00
3.81035	58.00
3.82702	58.00
3.84368	58.00
3.86035	58.00
3.87702	58.00
3.89368	58.00
3.91035	58.00
3.92702	58.00
3.94368	58.00
3.96035	58.00
3.97702	58.00
3.99368	58.00

[Status Trace (Carrier Gas Flow)]
Interval(msec)	1000
# of Points	240
Start Time(min)	0.010
End Time(min)	3.994
Intensity Units	
Intensity Multiplier	1
R.Time (min)	Intensity
0.01035	34.52
0.02702	34.55
0.04368	34.54
0.06035	34.54
0.07702	34.50
0.09368	34.52
0.11035	34.51
0.12702	34.52
0.14368	34.52
0.16035	34.52
0.17702	34.51
0.19368	34.52
0.21035	34.52
0.22702	34.52
0.24368	34.52
0.26035	34.53
0.27702	34.52
0.29368	34.52
0.31035	34.52
0.32702	34.52
0.34368	34.52
0.36035	34.52
0.37702	34.52
0.39368	34.52
0.41035	34.52
0.42702	34.52
0.44368	34.52
0.46035	34.52
0.47702	34.52
0.49368	34.52
0.51035	34.51
0.52702	34.51
0.54368	34.52
0.56035	34.52
0.57702	34.52
0.59368	34.52
0.61035	34.52
0.62702	34.52
0.64368	34.51
0.66035	34.51
0.67702	34.52
0.69368	34.52
0.71035	34.51
0.72702	34.52
0.74368	34.52
0.76035	34.52
0.77702	34.52
0.79368	34.52
0.81035	34.52
0.82702	34.52
0.84368	34.52
0.86035	34.52
0.87702	34.51
0.89368	34.51
0.91035	34.52
0.92702	34.52
0.94368	34.51
0.96035	34.52
0.97702	34.52
0.99368	34.52
1.01035	34.52
1.02702	34.52
1.04368	34.52
1.06035	34.51
1.07702	34.52
1.09368	34.52
1.11035	34.51
1.12702	34.51
1.14368	34.51
1.16035	34.52
1.17702	34.51
1.19368	34.52
1.21035	34.52
1.22702	34.51
1.24368	34.52
1.26035	34.52
1.27702	34.52
1.29368	34.52
1.31035	34.52
1.32702	34.52
1.34368	34.52
1.36035	34.52
1.37702	34.52
1.39368	34.52
1.41035	34.52
1.42702	34.52
1.44368	34.52
1.46035	34.52
1.47702	34.52
1.49368	34.52
1.51035	34.52
1.52702	34.52
1.54368	34.52
1.56035	34.52
1.57702	34.52
1.59368	34.52
1.61035	34.52
1.62702	34.52
1.64368	34.52
1.66035	34.51
1.67702	34.52
1.69368	34.52
1.71035	34.52
1.72702	34.51
1.74368	34.53
1.76035	34.52
1.77702	34.52
1.79368	34.52
1.81035	34.53
1.82702	34.52
1.84368	34.52
1.86035	34.52
1.87702	34.53
1.89368	34.52
1.91035	34.52
1.92702	34.52
1.94368	34.52
1.96035	34.51
1.97702	34.53
1.99368	34.52
2.01035	34.51
2.02702	34.52
2.04368	34.52
2.06035	34.53
2.07702	34.52
2.09368	34.51
2.11035	34.52
2.12702	34.52
2.14368	34.52
2.16035	34.51
2.17702	34.52
2.19368	34.52
2.21035	34.51
2.22702	34.51
2.24368	34.52
2.26035	34.52
2.27702	34.52
2.29368	34.53
2.31035	34.52
2.32702	34.51
2.34368	34.51
2.36035	34.53
2.37702	34.52
2.39368	34.52
2.41035	34.52
2.42702	34.53
2.44368	34.51
2.46035	34.52
2.47702	34.52
2.49368	34.52
2.51035	34.51
2.52702	34.52
2.54368	34.52
2.56035	34.52
2.57702	34.52
2.59368	34.52
2.61035	34.52
2.62702	34.52
2.64368	34.52
2.66035	34.52
2.67702	34.52
2.69368	34.52
2.71035	34.52
2.72702	34.52
2.74368	34.52
2.76035	34.52
2.77702	34.52
2.79368	34.51
2.81035	34.52
2.82702	34.53
2.84368	34.52
2.86035	34.52
2.87702	34.52
2.89368	34.52
2.91035	34.52
2.92702	34.52
2.94368	34.52
2.96035	34.52
2.97702	34.52
2.99368	34.52
3.01035	34.52
3.02702	34.52
3.04368	34.52
3.06035	34.52
3.07702	34.52
3.09368	34.51
3.11035	34.52
3.12702	34.52
3.14368	34.52
3.16035	34.52
3.17702	34.52
3.19368	34.52
3.21035	34.52
3.22702	34.52
3.24368	34.52
3.26035	34.52
3.27702	34.52
3.29368	34.52
3.31035	34.52
3.32702	34.52
3.34368	34.52
3.36035	34.52
3.37702	34.52
3.39368	34.52
3.41035	34.52
3.42702	34.52
3.44368	34.52
3.46035	34.52
3.47702	34.52
3.49368	34.52
3.51035	34.52
3.52702	34.52
3.54368	34.52
3.56035	34.51
3.57702	34.51
3.59368	34.52
3.61035	34.52
3.62702	34.52
3.64368	34.52
3.66035	34.52
3.67702	34.52
3.69368	34.51
3.71035	34.52
3.72702	34.52
3.74368	34.51
3.76035	34.52
3.77702	34.52
3.79368	34.52
3.81035	34.52
3.82702	34.52
3.84368	34.52
3.86035	34.52
3.87702	34.51
3.89368	34.52
3.91035	34.52
3.92702	34.52
3.94368	34.52
3.96035	34.52
3.97702	34.51
3.99368	34.52

[Status Trace (Column Flow)]
Interval(msec)	1000
# of Points	240
Start Time(min)	0.010
End Time(min)	3.994
Intensity Units	
Intensity Multiplier	1
R.Time (min)	Intensity
0.01035	5.50
0.02702	5.16
0.04368	5.43
0.06035	5.69
0.07702	5.61
0.09368	5.50
0.11035	5.50
0.12702	5.50
0.14368	5.50
0.16035	5.50
0.17702	5.50
0.19368	5.50
0.21035	5.50
0.22702	5.50
0.24368	5.50
0.26035	5.50
0.27702	5.50
0.29368	5.50
0.31035	5.50
0.32702	5.50
0.34368	5.50
0.36035	5.50
0.37702	5.50
0.39368	5.50
0.41035	5.50
0.42702	5.50
0.44368	5.50
0.46035	5.50
0.47702	5.50
0.49368	5.50
0.51035	5.50
0.52702	5.50
0.54368	5.50
0.56035	5.50
0.57702	5.50
0.59368	5.50
0.61035	5.50
0.62702	5.50
0.64368	5.50
0.66035	5.50
0.67702	5.50
0.69368	5.50
0.71035	5.50
0.72702	5.50
0.74368	5.50
0.76035	5.50
0.77702	5.50
0.79368	5.50
0.81035	5.50
0.82702	5.50
0.84368	5.50
0.86035	5.50
0.87702	5.50
0.89368	5.50
0.91035	5.50
0.92702	5.50
0.94368	5.50
0.96035	5.50
0.97702	5.50
0.99368	5.50
1.01035	5.50
1.02702	5.50
1.04368	5.50
1.06035	5.50
1.07702	5.50
1.09368	5.50
1.11035	5.50
1.12702	5.50
1.14368	5.50
1.16035	5.50
1.17702	5.50
1.19368	5.50
1.21035	5.50
1.22702	5.50
1.24368	5.50
1.26035	5.50
1.27702	5.50
1.29368	5.50
1.31035	5.50
1.32702	5.50
1.34368	5.50
1.36035	5.50
1.37702	5.50
1.39368	5.50
1.41035	5.50
1.42702	5.50
1.44368	5.50
1.46035	5.50
1.47702	5.50
1.49368	5.50
1.51035	5.50
1.52702	5.50
1.54368	5.50
1.56035	5.50
1.57702	5.50
1.59368	5.50
1.61035	5.49
1.62702	5.49
1.64368	5.48
1.66035	5.48
1.67702	5.47
1.69368	5.46
1.71035	5.45
1.72702	5.43
1.74368	5.42
1.76035	5.41
1.77702	5.40
1.79368	5.39
1.81035	5.38
1.82702	5.37
1.84368	5.36
1.86035	5.35
1.87702	5.34
1.89368	5.33
1.91035	5.32
1.92702	5.31
1.94368	5.30
1.96035	5.30
1.97702	5.29
1.99368	5.28
2.01035	5.27
2.02702	5.26
2.04368	5.25
2.06035	5.24
2.07702	5.23
2.09368	5.22
2.11035	5.21
2.12702	5.20
2.14368	5.19
2.16035	5.18
2.17702	5.17
2.19368	5.16
2.21035	5.15
2.22702	5.14
2.24368	5.13
2.26035	5.13
2.27702	5.12
2.29368	5.11
2.31035	5.10
2.32702	5.09
2.34368	5.08
2.36035	5.07
2.37702	5.07
2.39368	5.07
2.41035	5.07
2.42702	5.07
2.44368	5.07
2.46035	5.07
2.47702	5.06
2.49368	5.06
2.51035	5.06
2.52702	5.06
2.54368	5.06
2.56035	5.06
2.57702	5.06
2.59368	5.06
2.61035	5.06
2.62702	5.06
2.64368	5.06
2.66035	5.06
2.67702	5.06
2.69368	5.06
2.71035	5.06
2.72702	5.06
2.74368	5.06
2.76035	5.06
2.77702	5.06
2.79368	5.06
2.81035	5.06
2.82702	5.06
2.84368	5.06
2.86035	5.06
2.87702	5.06
2.89368	5.06
2.91035	5.06
2.92702	5.06
2.94368	5.06
2.96035	5.06
2.97702	5.06
2.99368	5.06
3.01035	5.06
3.02702	5.06
3.04368	5.06
3.06035	5.06
3.07702	5.06
3.09368	5.06
3.11035	5.05
3.12702	5.05
3.14368	5.05
3.16035	5.05
3.17702	5.05
3.19368	5.05
3.21035	5.05
3.22702	5.05
3.24368	5.05
3.26035	5.05
3.27702	5.05
3.29368	5.05
3.31035	5.05
3.32702	5.05
3.34368	5.05
3.36035	5.05
3.37702	5.05
3.39368	5.05
3.41035	5.05
3.42702	5.05
3.44368	5.06
3.46035	5.05
3.47702	5.05
3.49368	5.05
3.51035	5.05
3.52702	5.05
3.54368	5.05
3.56035	5.05
3.57702	5.05
3.59368	5.05
3.61035	5.05
3.62702	5.05
3.64368	5.05
3.66035	5.05
3.67702	5.05
3.69368	5.05
3.71035	5.05
3.72702	5.05
3.74368	5.05
3.76035	5.05
3.77702	5.05
3.79368	5.05
3.81035	5.05
3.82702	5.05
3.84368	5.05
3.86035	5.05
3.87702	5.05
3.89368	5.05
3.91035	5.05
3.92702	5.05
3.94368	5.05
3.96035	5.05
3.97702	5.05
3.99368	5.05

[Status Trace (Linear Velocity)]
Interval(msec)	1000
# of Points	240
Start Time(min)	0.010
End Time(min)	3.994
Intensity Units	
Intensity Multiplier	1
R.Time (min)	Intensity
0.01035	39.00
0.02702	37.08
0.04368	38.65
0.06035	40.06
0.07702	39.63
0.09368	39.01
0.11035	39.00
0.12702	39.01
0.14368	39.01
0.16035	39.01
0.17702	39.01
0.19368	39.01
0.21035	39.01
0.22702	39.01
0.24368	39.01
0.26035	39.01
0.27702	39.01
0.29368	39.01
0.31035	39.01
0.32702	39.01
0.34368	39.01
0.36035	39.01
0.37702	39.01
0.39368	39.01
0.41035	39.01
0.42702	39.01
0.44368	39.01
0.46035	39.01
0.47702	39.01
0.49368	39.01
0.51035	39.01
0.52702	39.01
0.54368	39.01
0.56035	39.01
0.57702	39.01
0.59368	39.01
0.61035	39.01
0.62702	39.01
0.64368	39.01
0.66035	39.01
0.67702	39.01
0.69368	39.01
0.71035	39.01
0.72702	39.01
0.74368	39.01
0.76035	39.01
0.77702	39.01
0.79368	39.01
0.81035	39.01
0.82702	39.01
0.84368	39.01
0.86035	39.01
0.87702	39.01
0.89368	39.01
0.91035	39.01
0.92702	39.01
0.94368	39.01
0.96035	39.01
0.97702	39.01
0.99368	39.01
1.01035	39.01
1.02702	39.01
1.04368	39.01
1.06035	39.01
1.07702	39.01
1.09368	39.01
1.11035	39.01
1.12702	39.01
1.14368	39.01
1.16035	39.01
1.17702	39.01
1.19368	39.01
1.21035	39.01
1.22702	39.01
1.24368	39.01
1.26035	39.01
1.27702	39.01
1.29368	39.01
1.31035	39.01
1.32702	39.01
1.34368	39.01
1.36035	39.01
1.37702	39.01
1.39368	39.01
1.41035	39.01
1.42702	39.01
1.44368	39.01
1.46035	39.01
1.47702	39.01
1.49368	39.01
1.51035	39.01
1.52702	39.01
1.54368	39.01
1.56035	39.01
1.57702	39.01
1.59368	39.01
1.61035	39.00
1.62702	38.99
1.64368	38.97
1.66035	38.95
1.67702	38.92
1.69368	38.88
1.71035	38.85
1.72702	38.82
1.74368	38.79
1.76035	38.75
1.77702	38.72
1.79368	38.69
1.81035	38.66
1.82702	38.63
1.84368	38.60
1.86035	38.57
1.87702	38.53
1.89368	38.50
1.91035	38.47
1.92702	38.44
1.94368	38.41
1.96035	38.38
1.97702	38.36
1.99368	38.32
2.01035	38.29
2.02702	38.26
2.04368	38.23
2.06035	38.21
2.07702	38.18
2.09368	38.15
2.11035	38.12
2.12702	38.09
2.14368	38.06
2.16035	38.03
2.17702	38.00
2.19368	37.97
2.21035	37.94
2.22702	37.91
2.24368	37.88
2.26035	37.85
2.27702	37.82
2.29368	37.79
2.31035	37.76
2.32702	37.73
2.34368	37.70
2.36035	37.67
2.37702	37.66
2.39368	37.65
2.41035	37.66
2.42702	37.66
2.44368	37.66
2.46035	37.66
2.47702	37.65
2.49368	37.65
2.51035	37.65
2.52702	37.64
2.54368	37.65
2.56035	37.65
2.57702	37.65
2.59368	37.64
2.61035	37.64
2.62702	37.64
2.64368	37.64
2.66035	37.64
2.67702	37.64
2.69368	37.64
2.71035	37.64
2.72702	37.64
2.74368	37.64
2.76035	37.64
2.77702	37.64
2.79368	37.64
2.81035	37.64
2.82702	37.64
2.84368	37.64
2.86035	37.64
2.87702	37.64
2.89368	37.64
2.91035	37.64
2.92702	37.63
2.94368	37.63
2.96035	37.63
2.97702	37.63
2.99368	37.63
3.01035	37.63
3.02702	37.63
3.04368	37.63
3.06035	37.63
3.07702	37.63
3.09368	37.62
3.11035	37.62
3.12702	37.62
3.14368	37.62
3.16035	37.62
3.17702	37.62
3.19368	37.62
3.21035	37.62
3.22702	37.62
3.24368	37.62
3.26035	37.62
3.27702	37.62
3.29368	37.62
3.31035	37.62
3.32702	37.62
3.34368	37.62
3.36035	37.62
3.37702	37.62
3.39368	37.62
3.41035	37.62
3.42702	37.62
3.44368	37.62
3.46035	37.62
3.47702	37.62
3.49368	37.62
3.51035	37.62
3.52702	37.62
3.54368	37.62
3.56035	37.62
3.57702	37.62
3.59368	37.62
3.61035	37.62
3.62702	37.62
3.64368	37.62
3.66035	37.62
3.67702	37.62
3.69368	37.62
3.71035	37.62
3.72702	37.62
3.74368	37.62
3.76035	37.62
3.77702	37.62
3.79368	37.62
3.81035	37.62
3.82702	37.62
3.84368	37.62
3.86035	37.62
3.87702	37.62
3.89368	37.62
3.91035	37.62
3.92702	37.62
3.94368	37.62
3.96035	37.62
3.97702	37.62
3.99368	37.62

