[Header]
Application Name	LabSolutions
Version	5.110
Data File Name	C:\Users\User\Desktop\Junior\UIC Prairie Sampling\6.2.23\06022023_005.gcd
Output Date	6/12/2023
Output Time	11:47:08 AM

[File Information]
Type	Data File
Generated	6/5/2023 2:20:46 PM
Generated by	System Administrator
Modified	6/5/2023 2:28:05 PM
Modified by	System Administrator

[Sample Information]
Operator Name	System Administrator
Acquired	6/5/2023 2:24:05 PM
Sample Type	0:Unknown
Level	0
Sample Name	005
Sample ID	005
ISTD Amount1	1
ISTD Amount2	1
ISTD Amount3	1
ISTD Amount4	1
ISTD Amount5	1
ISTD Amount6	1
ISTD Amount7	1
ISTD Amount8	1
ISTD Amount9	1
ISTD Amount10	1
ISTD Amount11	1
ISTD Amount12	1
ISTD Amount13	1
ISTD Amount14	1
ISTD Amount15	1
ISTD Amount16	1
ISTD Amount17	1
ISTD Amount18	1
ISTD Amount19	1
ISTD Amount20	1
ISTD Amount21	1
ISTD Amount22	1
ISTD Amount23	1
ISTD Amount24	1
ISTD Amount25	1
ISTD Amount26	1
ISTD Amount27	1
ISTD Amount28	1
ISTD Amount29	1
ISTD Amount30	1
ISTD Amount31	1
ISTD Amount32	1
Sample Amount	1
Dilution Factor	1
Vial#	4
Injection Volume	1
Injection Count	1
Bar Code	

[Original Files]
Data File	C:\Users\User\Desktop\Junior\UIC Prairie Sampling\6.2.23\06022023_005.gcd
Method File	C:\LabSolutions\Data\GHG_4min_2022\ghg3_togas_w_acet_4 min_new_int.gcm
Batch File	C:\LabSolutions\Data\AutoSamplerTesting\06022023.gcb
Report Format File	c:\LabSolutions\System\DEFAULT.lsr

[File Description]


[Configuration]
Instrument Name	C0B7VH3-Instrument1
Instrument #	1
Line #	1
# of Detectors	3
Detector ID	DET#1	DET#2	DET#3
Detector Name	FID	PTCD	ECD
# of Channels	1	1	1

[Peak Table(Ch1)]
# of Peaks	2
Peak#	R.Time	I.Time	F.Time	Area	Height	A/H	Conc.	Mark	ID#	Name	k'	Plate #	Plate Ht.	Tailing	Resolution	Sep.Factor	Area Ratio	Height Ratio	Conc. %	Norm Conc.
1	1.564	1.527	1.633	19626	9880	1.986	95.681	   	2	CH4	0.000	11477	13.070	1.143	0.000	0.000	0	0	19.763	19.763
2	1.989	1.941	2.539	2015652	967497	2.083	388.453	   	3	CO2	0.272	17293	8.674	1.236	7.155	0.000	0	0	80.237	80.237

[Peak Table(Ch2)]
# of Peaks	0

[Peak Table(Ch3)]
# of Peaks	4
Peak#	R.Time	I.Time	F.Time	Area	Height	A/H	Conc.	Mark	ID#	Name	k'	Plate #	Plate Ht.	Tailing	Resolution	Sep.Factor	Area Ratio	Height Ratio	Conc. %	Norm Conc.
1	2.462	2.359	2.550	1066	300	3.557	0.000	   			0.000	15812	9.486	0.000	0.000	0.000	0	0	0.000	0.000
2	2.590	2.550	2.653	398	123	3.249	0.000	 V 			0.052	11625	12.903	0.000	1.472	0.000	0	0	0.000	0.000
3	2.763	2.697	2.810	280	62	4.521	0.004	   	1	N2O	0.122	5984	25.065	0.000	1.442	2.343	0	0	0.427	0.427
4	2.891	2.810	3.646	65293	13894	4.699	0.966	 V 	1	N2O	0.174	12411	12.086	1.884	1.041	1.427	0	0	99.573	99.573

[Compound Results(Ch1)]
# of IDs	6
ID#	Name	R.Time	Area	Height	Conc.	Curve	3rd	2nd	1st	Constant	Area Ratio	Height Ratio	Conc. %	Norm Conc.
1	CO	0.000	0	0	0.000	Linear	0.000000e+00	0.000000e+00	0.000000e+00	0.000000e+00	0	0	0.000	0.000
2	CH4	1.564	19626	9880	95.681	Linear	0.000000e+00	0.000000e+00	2.051179e+002	0.000000e+00	0	0	19.763	19.763
3	CO2	1.989	2015652	967497	388.453	Linear	0.000000e+00	0.000000e+00	5.188919e+003	0.000000e+00	0	0	80.237	80.237
4	Ethylene	0.000	0	0	0.000	Linear	0.000000e+00	0.000000e+00	0.000000e+00	0.000000e+00	0	0	0.000	0.000
5	Acetylene	0.000	0	0	0.000	Linear	0.000000e+00	0.000000e+00	0.000000e+00	0.000000e+00	0	0	0.000	0.000
6	Ethane	0.000	0	0	0.000	Linear	0.000000e+00	0.000000e+00	0.000000e+00	0.000000e+00	0	0	0.000	0.000

[Compound Results(Ch2)]
# of IDs	5
ID#	Name	R.Time	Area	Height	Conc.	Curve	3rd	2nd	1st	Constant	Area Ratio	Height Ratio	Conc. %	Norm Conc.
1	Hydrogen	0.000	0	0	0.000	Linear	0.000000e+00	0.000000e+00	0.000000e+00	0.000000e+00	0	0	0.000	0.000
2	Oxygen	0.000	0	0	0.000	Linear	0.000000e+00	0.000000e+00	0.000000e+00	0.000000e+00	0	0	0.000	0.000
3	Nitrogen	0.000	0	0	0.000	Linear	0.000000e+00	0.000000e+00	0.000000e+00	0.000000e+00	0	0	0.000	0.000
4	Methane	0.000	0	0	0.000	Linear	0.000000e+00	0.000000e+00	0.000000e+00	0.000000e+00	0	0	0.000	0.000
5	Carbon Monoxide	0.000	0	0	0.000	Linear	0.000000e+00	0.000000e+00	0.000000e+00	0.000000e+00	0	0	0.000	0.000

[Compound Results(Ch3)]
# of IDs	2
ID#	Name	R.Time	Area	Height	Conc.	Curve	3rd	2nd	1st	Constant	Area Ratio	Height Ratio	Conc. %	Norm Conc.
1	N2O	2.891	65573	13956	0.970	Linear	0.000000e+00	0.000000e+00	6.759880e+004	0.000000e+00	0	0	100.000	100.000
2	SF6	0.000	0	0	0.000	Linear	0.000000e+00	0.000000e+00	0.000000e+00	0.000000e+00	0	0	0.000	0.000

[Group Results(Ch1)]
# of Groups	0

[Group Results(Ch2)]
# of Groups	0

[Group Results(Ch3)]
# of Groups	0

[Chromatogram (Ch1)]
Interval(msec)	220
# of Points	1091
Start Time(min)	0.002
End Time(min)	3.998
R.Time (min)	Intensity
0.00167	25
0.00533	32
0.00900	38
0.01267	44
0.01633	50
0.02000	50
0.02367	47
0.02733	45
0.03100	44
0.03467	40
0.03833	34
0.04200	27
0.04567	21
0.04933	18
0.05300	18
0.05667	18
0.06033	19
0.06400	20
0.06767	21
0.07133	21
0.07500	18
0.07867	14
0.08233	16
0.08600	21
0.08967	28
0.09333	38
0.09700	48
0.10067	56
0.10433	58
0.10800	58
0.11167	55
0.11533	47
0.11900	41
0.12267	36
0.12633	26
0.13000	15
0.13367	7
0.13733	4
0.14100	2
0.14467	5
0.14833	13
0.15200	21
0.15567	29
0.15933	32
0.16300	32
0.16667	29
0.17033	27
0.17400	34
0.17767	46
0.18133	54
0.18500	56
0.18867	51
0.19233	45
0.19600	37
0.19967	28
0.20333	19
0.20700	11
0.21067	5
0.21433	0
0.21800	-2
0.22167	2
0.22533	9
0.22900	18
0.23267	23
0.23633	25
0.24000	25
0.24367	25
0.24733	26
0.25100	28
0.25467	28
0.25833	27
0.26200	26
0.26567	24
0.26933	21
0.27300	18
0.27667	16
0.28033	16
0.28400	21
0.28767	29
0.29133	38
0.29500	46
0.29867	51
0.30233	52
0.30600	50
0.30967	50
0.31333	49
0.31700	42
0.32067	32
0.32433	24
0.32800	17
0.33167	16
0.33533	18
0.33900	21
0.34267	21
0.34633	21
0.35000	24
0.35367	30
0.35733	33
0.36100	31
0.36467	24
0.36833	14
0.37200	4
0.37567	-3
0.37933	-5
0.38300	-2
0.38667	2
0.39033	6
0.39400	10
0.39767	13
0.40133	15
0.40500	16
0.40867	20
0.41233	25
0.41600	34
0.41967	41
0.42333	47
0.42700	50
0.43067	49
0.43433	47
0.43800	46
0.44167	51
0.44533	56
0.44900	55
0.45267	50
0.45633	41
0.46000	28
0.46367	11
0.46733	-3
0.47100	-10
0.47467	-10
0.47833	-6
0.48200	-0
0.48567	5
0.48933	10
0.49300	14
0.49667	18
0.50033	24
0.50400	31
0.50767	32
0.51133	27
0.51500	18
0.51867	7
0.52233	-0
0.52600	-1
0.52967	4
0.53333	10
0.53700	17
0.54067	24
0.54433	32
0.54800	39
0.55167	42
0.55533	41
0.55900	37
0.56267	31
0.56633	25
0.57000	21
0.57367	21
0.57733	23
0.58100	25
0.58467	25
0.58833	21
0.59200	17
0.59567	17
0.59933	18
0.60300	17
0.60667	16
0.61033	14
0.61400	10
0.61767	8
0.62133	7
0.62500	7
0.62867	5
0.63233	4
0.63600	5
0.63967	10
0.64333	16
0.64700	18
0.65067	19
0.65433	15
0.65800	11
0.66167	9
0.66533	8
0.66900	3
0.67267	-6
0.67633	-13
0.68000	-16
0.68367	-12
0.68733	-5
0.69100	0
0.69467	2
0.69833	3
0.70200	6
0.70567	10
0.70933	14
0.71300	14
0.71667	9
0.72033	4
0.72400	2
0.72767	4
0.73133	8
0.73500	13
0.73867	16
0.74233	16
0.74600	16
0.74967	16
0.75333	16
0.75700	19
0.76067	23
0.76433	21
0.76800	11
0.77167	-0
0.77533	-11
0.77900	-19
0.78267	-24
0.78633	-29
0.79000	-34
0.79367	-34
0.79733	-30
0.80100	-25
0.80467	-19
0.80833	-14
0.81200	-8
0.81567	-2
0.81933	1
0.82300	4
0.82667	7
0.83033	8
0.83400	7
0.83767	8
0.84133	11
0.84500	13
0.84867	14
0.85233	14
0.85600	14
0.85967	17
0.86333	16
0.86700	10
0.87067	1
0.87433	-9
0.87800	-17
0.88167	-21
0.88533	-19
0.88900	-17
0.89267	-15
0.89633	-11
0.90000	-8
0.90367	-8
0.90733	-9
0.91100	-8
0.91467	-7
0.91833	-8
0.92200	-8
0.92567	-5
0.92933	-3
0.93300	-3
0.93667	-4
0.94033	-4
0.94400	-4
0.94767	-4
0.95133	-4
0.95500	-5
0.95867	-7
0.96233	-9
0.96600	-9
0.96967	-6
0.97333	-3
0.97700	-1
0.98067	-3
0.98433	-7
0.98800	-10
0.99167	-13
0.99533	-15
0.99900	-12
1.00267	-6
1.00633	-6
1.01000	-13
1.01367	-20
1.01733	-25
1.02100	-28
1.02467	-28
1.02833	-28
1.03200	-27
1.03567	-24
1.03933	-20
1.04300	-18
1.04667	-21
1.05033	-22
1.05400	-22
1.05767	-23
1.06133	-24
1.06500	-25
1.06867	-26
1.07233	-24
1.07600	-19
1.07967	-13
1.08333	-9
1.08700	-9
1.09067	-12
1.09433	-15
1.09800	-15
1.10167	-11
1.10533	-6
1.10900	0
1.11267	2
1.11633	-4
1.12000	-11
1.12367	-19
1.12733	-31
1.13100	-40
1.13467	-44
1.13833	-45
1.14200	-45
1.14567	-44
1.14933	-42
1.15300	-40
1.15667	-38
1.16033	-35
1.16400	-32
1.16767	-27
1.17133	-20
1.17500	-14
1.17867	-10
1.18233	-11
1.18600	-16
1.18967	-25
1.19333	-32
1.19700	-38
1.20067	-39
1.20433	-36
1.20800	-29
1.21167	-22
1.21533	-20
1.21900	-20
1.22267	-22
1.22633	-26
1.23000	-32
1.23367	-34
1.23733	-35
1.24100	-34
1.24467	-29
1.24833	-22
1.25200	-19
1.25567	-23
1.25933	-31
1.26300	-38
1.26667	-43
1.27033	-44
1.27400	-44
1.27767	-43
1.28133	-42
1.28500	-39
1.28867	-36
1.29233	-36
1.29600	-41
1.29967	-45
1.30333	-43
1.30700	-40
1.31067	-40
1.31433	-46
1.31800	-58
1.32167	-67
1.32533	-67
1.32900	-64
1.33267	-57
1.33633	-47
1.34000	-40
1.34367	-34
1.34733	-30
1.35100	-24
1.35467	-20
1.35833	-25
1.36200	-35
1.36567	-45
1.36933	-54
1.37300	-58
1.37667	-55
1.38033	-49
1.38400	-47
1.38767	-53
1.39133	-60
1.39500	-62
1.39867	-60
1.40233	-55
1.40600	-51
1.40967	-51
1.41333	-55
1.41700	-58
1.42067	-60
1.42433	-61
1.42800	-63
1.43167	-58
1.43533	-36
1.43900	13
1.44267	51
1.44633	42
1.45000	-3
1.45367	-56
1.45733	-99
1.46100	-133
1.46467	-151
1.46833	-147
1.47200	-122
1.47567	-87
1.47933	-58
1.48300	-40
1.48667	-33
1.49033	-32
1.49400	-37
1.49767	-45
1.50133	-56
1.50500	-67
1.50867	-75
1.51233	-80
1.51600	-83
1.51967	-84
1.52333	-86
1.52700	-85
1.53067	-35
1.53433	215
1.53800	947
1.54167	2342
1.54533	4218
1.54900	6163
1.55267	7840
1.55633	9079
1.56000	9774
1.56367	9796
1.56733	9065
1.57100	7722
1.57467	6096
1.57833	4519
1.58200	3193
1.58567	2182
1.58933	1458
1.59300	959
1.59667	622
1.60033	398
1.60400	248
1.60767	147
1.61133	76
1.61500	23
1.61867	-17
1.62233	-45
1.62600	-65
1.62967	-78
1.63333	-84
1.63700	-85
1.64067	-83
1.64433	-80
1.64800	-83
1.65167	-87
1.65533	-88
1.65900	-84
1.66267	-79
1.66633	-79
1.67000	-82
1.67367	-86
1.67733	-90
1.68100	-95
1.68467	-97
1.68833	-98
1.69200	-98
1.69567	-99
1.69933	-94
1.70300	-88
1.70667	-84
1.71033	-87
1.71400	-95
1.71767	-105
1.72133	-112
1.72500	-114
1.72867	-110
1.73233	-105
1.73600	-101
1.73967	-97
1.74333	-96
1.74700	-96
1.75067	-98
1.75433	-100
1.75800	-102
1.76167	-104
1.76533	-106
1.76900	-108
1.77267	-108
1.77633	-107
1.78000	-105
1.78367	-101
1.78733	-94
1.79100	-90
1.79467	-90
1.79833	-91
1.80200	-92
1.80567	-93
1.80933	-94
1.81300	-94
1.81667	-93
1.82033	-90
1.82400	-87
1.82767	-87
1.83133	-89
1.83500	-93
1.83867	-97
1.84233	-100
1.84600	-102
1.84967	-100
1.85333	-96
1.85700	-92
1.86067	-93
1.86433	-98
1.86800	-101
1.87167	-96
1.87533	-85
1.87900	-75
1.88267	-76
1.88633	-83
1.89000	-86
1.89367	-86
1.89733	-90
1.90100	-96
1.90467	-100
1.90833	-102
1.91200	-103
1.91567	-104
1.91933	-108
1.92300	-110
1.92667	-107
1.93033	-104
1.93400	-101
1.93767	-99
1.94133	-92
1.94500	-51
1.94867	203
1.95233	1623
1.95600	7804
1.95967	28140
1.96333	79263
1.96700	178258
1.97067	328200
1.97433	510300
1.97800	691965
1.98167	842011
1.98533	937898
1.98900	967427
1.99267	929111
1.99633	833261
2.00000	700618
2.00367	555809
2.00733	419919
2.01100	305490
2.01467	216452
2.01833	150980
2.02200	104698
2.02567	72825
2.02933	51215
2.03300	36670
2.03667	26880
2.04033	20248
2.04400	15697
2.04767	12520
2.05133	10254
2.05500	8596
2.05867	7349
2.06233	6391
2.06600	5639
2.06967	5039
2.07333	4549
2.07700	4140
2.08067	3794
2.08433	3498
2.08800	3242
2.09167	3017
2.09533	2815
2.09900	2636
2.10267	2478
2.10633	2335
2.11000	2205
2.11367	2090
2.11733	1987
2.12100	1889
2.12467	1797
2.12833	1712
2.13200	1638
2.13567	1573
2.13933	1514
2.14300	1458
2.14667	1403
2.15033	1346
2.15400	1288
2.15767	1234
2.16133	1186
2.16500	1141
2.16867	1099
2.17233	1058
2.17600	1019
2.17967	985
2.18333	953
2.18700	923
2.19067	896
2.19433	873
2.19800	852
2.20167	831
2.20533	811
2.20900	792
2.21267	772
2.21633	750
2.22000	726
2.22367	701
2.22733	677
2.23100	658
2.23467	639
2.23833	621
2.24200	606
2.24567	595
2.24933	585
2.25300	578
2.25667	573
2.26033	566
2.26400	555
2.26767	540
2.27133	526
2.27500	515
2.27867	503
2.28233	487
2.28600	470
2.28967	454
2.29333	440
2.29700	428
2.30067	417
2.30433	411
2.30800	408
2.31167	409
2.31533	410
2.31900	410
2.32267	403
2.32633	389
2.33000	374
2.33367	363
2.33733	357
2.34100	349
2.34467	341
2.34833	335
2.35200	333
2.35567	330
2.35933	324
2.36300	318
2.36667	313
2.37033	310
2.37400	307
2.37767	305
2.38133	302
2.38500	296
2.38867	290
2.39233	284
2.39600	278
2.39967	271
2.40333	265
2.40700	259
2.41067	258
2.41433	261
2.41800	264
2.42167	266
2.42533	266
2.42900	263
2.43267	258
2.43633	248
2.44000	237
2.44367	227
2.44733	219
2.45100	217
2.45467	218
2.45833	223
2.46200	227
2.46567	227
2.46933	225
2.47300	224
2.47667	226
2.48033	228
2.48400	224
2.48767	216
2.49133	209
2.49500	203
2.49867	197
2.50233	195
2.50600	197
2.50967	198
2.51333	196
2.51700	194
2.52067	196
2.52433	197
2.52800	195
2.53167	191
2.53533	188
2.53900	186
2.54267	184
2.54633	181
2.55000	177
2.55367	171
2.55733	167
2.56100	163
2.56467	165
2.56833	173
2.57200	181
2.57567	182
2.57933	178
2.58300	175
2.58667	172
2.59033	164
2.59400	157
2.59767	152
2.60133	149
2.60500	146
2.60867	145
2.61233	146
2.61600	151
2.61967	157
2.62333	164
2.62700	166
2.63067	162
2.63433	158
2.63800	156
2.64167	153
2.64533	149
2.64900	144
2.65267	140
2.65633	139
2.66000	144
2.66367	151
2.66733	154
2.67100	151
2.67467	145
2.67833	138
2.68200	132
2.68567	128
2.68933	126
2.69300	128
2.69667	133
2.70033	137
2.70400	141
2.70767	141
2.71133	142
2.71500	142
2.71867	142
2.72233	146
2.72600	149
2.72967	150
2.73333	151
2.73700	150
2.74067	148
2.74433	145
2.74800	141
2.75167	137
2.75533	133
2.75900	131
2.76267	132
2.76633	135
2.77000	139
2.77367	140
2.77733	136
2.78100	129
2.78467	124
2.78833	124
2.79200	125
2.79567	126
2.79933	125
2.80300	125
2.80667	125
2.81033	126
2.81400	128
2.81767	132
2.82133	133
2.82500	129
2.82867	126
2.83233	127
2.83600	128
2.83967	124
2.84333	117
2.84700	108
2.85067	101
2.85433	99
2.85800	103
2.86167	111
2.86533	119
2.86900	122
2.87267	121
2.87633	118
2.88000	113
2.88367	106
2.88733	102
2.89100	103
2.89467	108
2.89833	116
2.90200	123
2.90567	127
2.90933	127
2.91300	127
2.91667	125
2.92033	126
2.92400	127
2.92767	128
2.93133	129
2.93500	130
2.93867	129
2.94233	127
2.94600	127
2.94967	129
2.95333	133
2.95700	136
2.96067	135
2.96433	127
2.96800	116
2.97167	107
2.97533	101
2.97900	99
2.98267	99
2.98633	101
2.99000	102
2.99367	104
2.99733	107
3.00100	112
3.00467	115
3.00833	120
3.01200	125
3.01567	128
3.01933	125
3.02300	119
3.02667	112
3.03033	111
3.03400	112
3.03767	115
3.04133	115
3.04500	110
3.04867	105
3.05233	104
3.05600	104
3.05967	107
3.06333	111
3.06700	115
3.07067	115
3.07433	112
3.07800	108
3.08167	105
3.08533	101
3.08900	97
3.09267	94
3.09633	94
3.10000	94
3.10367	96
3.10733	100
3.11100	103
3.11467	102
3.11833	97
3.12200	93
3.12567	90
3.12933	89
3.13300	91
3.13667	96
3.14033	101
3.14400	102
3.14767	103
3.15133	104
3.15500	106
3.15867	109
3.16233	114
3.16600	117
3.16967	115
3.17333	109
3.17700	101
3.18067	96
3.18433	97
3.18800	96
3.19167	93
3.19533	90
3.19900	90
3.20267	95
3.20633	101
3.21000	105
3.21367	108
3.21733	111
3.22100	113
3.22467	115
3.22833	115
3.23200	113
3.23567	107
3.23933	97
3.24300	92
3.24667	91
3.25033	93
3.25400	91
3.25767	86
3.26133	83
3.26500	80
3.26867	77
3.27233	76
3.27600	79
3.27967	86
3.28333	94
3.28700	101
3.29067	110
3.29433	113
3.29800	109
3.30167	100
3.30533	93
3.30900	93
3.31267	96
3.31633	98
3.32000	96
3.32367	90
3.32733	82
3.33100	76
3.33467	71
3.33833	71
3.34200	77
3.34567	88
3.34933	97
3.35300	100
3.35667	97
3.36033	90
3.36400	83
3.36767	76
3.37133	69
3.37500	63
3.37867	56
3.38233	48
3.38600	45
3.38967	46
3.39333	47
3.39700	47
3.40067	47
3.40433	46
3.40800	48
3.41167	52
3.41533	63
3.41900	74
3.42267	80
3.42633	82
3.43000	83
3.43367	84
3.43733	82
3.44100	78
3.44467	76
3.44833	72
3.45200	67
3.45567	65
3.45933	68
3.46300	72
3.46667	74
3.47033	73
3.47400	71
3.47767	67
3.48133	65
3.48500	65
3.48867	66
3.49233	68
3.49600	70
3.49967	74
3.50333	83
3.50700	96
3.51067	107
3.51433	111
3.51800	105
3.52167	94
3.52533	80
3.52900	68
3.53267	58
3.53633	55
3.54000	53
3.54367	51
3.54733	49
3.55100	47
3.55467	45
3.55833	44
3.56200	47
3.56567	56
3.56933	66
3.57300	76
3.57667	80
3.58033	83
3.58400	87
3.58767	90
3.59133	91
3.59500	89
3.59867	84
3.60233	76
3.60600	68
3.60967	61
3.61333	54
3.61700	50
3.62067	47
3.62433	44
3.62800	41
3.63167	41
3.63533	40
3.63900	41
3.64267	46
3.64633	50
3.65000	51
3.65367	49
3.65733	47
3.66100	47
3.66467	45
3.66833	45
3.67200	45
3.67567	47
3.67933	50
3.68300	57
3.68667	62
3.69033	64
3.69400	65
3.69767	64
3.70133	63
3.70500	60
3.70867	55
3.71233	51
3.71600	50
3.71967	52
3.72333	56
3.72700	60
3.73067	64
3.73433	68
3.73800	70
3.74167	73
3.74533	77
3.74900	80
3.75267	78
3.75633	71
3.76000	63
3.76367	55
3.76733	49
3.77100	43
3.77467	38
3.77833	33
3.78200	30
3.78567	28
3.78933	26
3.79300	24
3.79667	27
3.80033	33
3.80400	40
3.80767	46
3.81133	48
3.81500	46
3.81867	44
3.82233	41
3.82600	33
3.82967	25
3.83333	21
3.83700	22
3.84067	23
3.84433	25
3.84800	28
3.85167	30
3.85533	30
3.85900	28
3.86267	27
3.86633	26
3.87000	27
3.87367	30
3.87733	33
3.88100	36
3.88467	37
3.88833	36
3.89200	36
3.89567	39
3.89933	45
3.90300	51
3.90667	52
3.91033	52
3.91400	50
3.91767	49
3.92133	47
3.92500	42
3.92867	36
3.93233	29
3.93600	26
3.93967	26
3.94333	28
3.94700	32
3.95067	36
3.95433	39
3.95800	41
3.96167	42
3.96533	39
3.96900	31
3.97267	23
3.97633	18
3.98000	14
3.98367	10
3.98733	8
3.99100	9
3.99467	13
3.99833	18

[Chromatogram (Ch2)]
Interval(msec)	220
# of Points	1091
Start Time(min)	0.002
End Time(min)	3.998
R.Time (min)	Intensity
0.00167	-0
0.00533	-0
0.00900	-1
0.01267	-1
0.01633	-1
0.02000	-1
0.02367	-1
0.02733	-2
0.03100	-2
0.03467	-2
0.03833	-2
0.04200	-3
0.04567	-3
0.04933	-3
0.05300	-3
0.05667	-2
0.06033	-2
0.06400	-2
0.06767	-2
0.07133	-2
0.07500	-1
0.07867	-1
0.08233	-1
0.08600	-1
0.08967	-1
0.09333	-1
0.09700	-1
0.10067	-1
0.10433	-0
0.10800	-0
0.11167	0
0.11533	1
0.11900	1
0.12267	1
0.12633	1
0.13000	1
0.13367	1
0.13733	1
0.14100	0
0.14467	-0
0.14833	-0
0.15200	-0
0.15567	-1
0.15933	-1
0.16300	-1
0.16667	-1
0.17033	-1
0.17400	-1
0.17767	-1
0.18133	-1
0.18500	-1
0.18867	-1
0.19233	-1
0.19600	-1
0.19967	-1
0.20333	-1
0.20700	-1
0.21067	-1
0.21433	-1
0.21800	-1
0.22167	-1
0.22533	-1
0.22900	-1
0.23267	-1
0.23633	-1
0.24000	-1
0.24367	-1
0.24733	-1
0.25100	-1
0.25467	-1
0.25833	-0
0.26200	-0
0.26567	-1
0.26933	-1
0.27300	-1
0.27667	-1
0.28033	-2
0.28400	-2
0.28767	-3
0.29133	-3
0.29500	-3
0.29867	-3
0.30233	-3
0.30600	-3
0.30967	-3
0.31333	-3
0.31700	-3
0.32067	-2
0.32433	-2
0.32800	-2
0.33167	-2
0.33533	-1
0.33900	-1
0.34267	-1
0.34633	-1
0.35000	-1
0.35367	-1
0.35733	-0
0.36100	-0
0.36467	-0
0.36833	0
0.37200	0
0.37567	1
0.37933	1
0.38300	1
0.38667	1
0.39033	0
0.39400	0
0.39767	0
0.40133	-0
0.40500	-0
0.40867	-0
0.41233	-1
0.41600	-1
0.41967	-1
0.42333	-1
0.42700	-2
0.43067	-2
0.43433	-2
0.43800	-3
0.44167	-3
0.44533	-3
0.44900	-4
0.45267	-4
0.45633	-3
0.46000	-3
0.46367	-3
0.46733	-3
0.47100	-3
0.47467	-3
0.47833	-2
0.48200	-2
0.48567	-2
0.48933	-2
0.49300	-2
0.49667	-2
0.50033	-2
0.50400	-2
0.50767	-2
0.51133	-2
0.51500	-2
0.51867	-2
0.52233	-2
0.52600	-2
0.52967	-2
0.53333	-2
0.53700	-2
0.54067	-2
0.54433	-1
0.54800	-1
0.55167	-1
0.55533	-1
0.55900	-1
0.56267	-1
0.56633	-1
0.57000	-1
0.57367	-1
0.57733	-1
0.58100	-1
0.58467	-2
0.58833	-2
0.59200	-2
0.59567	-2
0.59933	-2
0.60300	-2
0.60667	-2
0.61033	-2
0.61400	-2
0.61767	-2
0.62133	-2
0.62500	-2
0.62867	-2
0.63233	-2
0.63600	-1
0.63967	-1
0.64333	-1
0.64700	-0
0.65067	0
0.65433	1
0.65800	1
0.66167	2
0.66533	2
0.66900	2
0.67267	2
0.67633	2
0.68000	1
0.68367	1
0.68733	1
0.69100	0
0.69467	-0
0.69833	-0
0.70200	-1
0.70567	-1
0.70933	-2
0.71300	-2
0.71667	-2
0.72033	-2
0.72400	-3
0.72767	-3
0.73133	-4
0.73500	-4
0.73867	-4
0.74233	-4
0.74600	-4
0.74967	-4
0.75333	-4
0.75700	-4
0.76067	-3
0.76433	-3
0.76800	-3
0.77167	-3
0.77533	-3
0.77900	-3
0.78267	-3
0.78633	-3
0.79000	-3
0.79367	-3
0.79733	-2
0.80100	-2
0.80467	-2
0.80833	-2
0.81200	-2
0.81567	-2
0.81933	-2
0.82300	-2
0.82667	-2
0.83033	-2
0.83400	-2
0.83767	-2
0.84133	-1
0.84500	-1
0.84867	-1
0.85233	-1
0.85600	-1
0.85967	-1
0.86333	-1
0.86700	-2
0.87067	-2
0.87433	-3
0.87800	-3
0.88167	-3
0.88533	-3
0.88900	-4
0.89267	-4
0.89633	-4
0.90000	-4
0.90367	-3
0.90733	-3
0.91100	-3
0.91467	-4
0.91833	-4
0.92200	-4
0.92567	-4
0.92933	-4
0.93300	-4
0.93667	-4
0.94033	-4
0.94400	-3
0.94767	-3
0.95133	-3
0.95500	-3
0.95867	-3
0.96233	-3
0.96600	-2
0.96967	-2
0.97333	-2
0.97700	-2
0.98067	-2
0.98433	-3
0.98800	-3
0.99167	-3
0.99533	-3
0.99900	-3
1.00267	-3
1.00633	-3
1.01000	-2
1.01367	-2
1.01733	-2
1.02100	-2
1.02467	-2
1.02833	-2
1.03200	-2
1.03567	-1
1.03933	-1
1.04300	-1
1.04667	-1
1.05033	-1
1.05400	-1
1.05767	-1
1.06133	-2
1.06500	-2
1.06867	-2
1.07233	-2
1.07600	-2
1.07967	-2
1.08333	-2
1.08700	-2
1.09067	-2
1.09433	-2
1.09800	-2
1.10167	-2
1.10533	-2
1.10900	-2
1.11267	-2
1.11633	-2
1.12000	-2
1.12367	-2
1.12733	-3
1.13100	-3
1.13467	-3
1.13833	-3
1.14200	-3
1.14567	-3
1.14933	-3
1.15300	-3
1.15667	-3
1.16033	-4
1.16400	-4
1.16767	-4
1.17133	-4
1.17500	-4
1.17867	-4
1.18233	-4
1.18600	-4
1.18967	-4
1.19333	-4
1.19700	-4
1.20067	-4
1.20433	-4
1.20800	-4
1.21167	-4
1.21533	-4
1.21900	-4
1.22267	-4
1.22633	-4
1.23000	-4
1.23367	-4
1.23733	-4
1.24100	-4
1.24467	-4
1.24833	-3
1.25200	-3
1.25567	-4
1.25933	-4
1.26300	-4
1.26667	-4
1.27033	-4
1.27400	-4
1.27767	-4
1.28133	-4
1.28500	-4
1.28867	-4
1.29233	-4
1.29600	-5
1.29967	-5
1.30333	-5
1.30700	-5
1.31067	-5
1.31433	-5
1.31800	-5
1.32167	-5
1.32533	-5
1.32900	-4
1.33267	-4
1.33633	-4
1.34000	-4
1.34367	-4
1.34733	-5
1.35100	-5
1.35467	-5
1.35833	-5
1.36200	-5
1.36567	-5
1.36933	-5
1.37300	-5
1.37667	-5
1.38033	-5
1.38400	-5
1.38767	-5
1.39133	-5
1.39500	-5
1.39867	-5
1.40233	-5
1.40600	-5
1.40967	-5
1.41333	-4
1.41700	-4
1.42067	-4
1.42433	-4
1.42800	-4
1.43167	-4
1.43533	-4
1.43900	-4
1.44267	-4
1.44633	-4
1.45000	-3
1.45367	-3
1.45733	-3
1.46100	-3
1.46467	-3
1.46833	-3
1.47200	-3
1.47567	-3
1.47933	-3
1.48300	-4
1.48667	-4
1.49033	-3
1.49400	-3
1.49767	-3
1.50133	-3
1.50500	-4
1.50867	-4
1.51233	-4
1.51600	-4
1.51967	-5
1.52333	-5
1.52700	-5
1.53067	-5
1.53433	-5
1.53800	-4
1.54167	-4
1.54533	-4
1.54900	-4
1.55267	-4
1.55633	-4
1.56000	-4
1.56367	-4
1.56733	-3
1.57100	-3
1.57467	-3
1.57833	-3
1.58200	-3
1.58567	-3
1.58933	-4
1.59300	-4
1.59667	-5
1.60033	-6
1.60400	-7
1.60767	-8
1.61133	-9
1.61500	-11
1.61867	-13
1.62233	-16
1.62600	-19
1.62967	-22
1.63333	-25
1.63700	-28
1.64067	-32
1.64433	-35
1.64800	-39
1.65167	-42
1.65533	-45
1.65900	-49
1.66267	-52
1.66633	-56
1.67000	-60
1.67367	-64
1.67733	-68
1.68100	-73
1.68467	-77
1.68833	-81
1.69200	-85
1.69567	-88
1.69933	-91
1.70300	-93
1.70667	-95
1.71033	-97
1.71400	-98
1.71767	-99
1.72133	-100
1.72500	-100
1.72867	-101
1.73233	-101
1.73600	-102
1.73967	-102
1.74333	-103
1.74700	-103
1.75067	-103
1.75433	-103
1.75800	-103
1.76167	-104
1.76533	-104
1.76900	-104
1.77267	-105
1.77633	-105
1.78000	-105
1.78367	-105
1.78733	-106
1.79100	-106
1.79467	-107
1.79833	-107
1.80200	-107
1.80567	-107
1.80933	-107
1.81300	-106
1.81667	-106
1.82033	-106
1.82400	-107
1.82767	-107
1.83133	-107
1.83500	-107
1.83867	-107
1.84233	-107
1.84600	-107
1.84967	-107
1.85333	-107
1.85700	-106
1.86067	-106
1.86433	-106
1.86800	-106
1.87167	-105
1.87533	-105
1.87900	-105
1.88267	-105
1.88633	-105
1.89000	-105
1.89367	-105
1.89733	-105
1.90100	-105
1.90467	-105
1.90833	-105
1.91200	-105
1.91567	-105
1.91933	-105
1.92300	-105
1.92667	-105
1.93033	-105
1.93400	-104
1.93767	-104
1.94133	-103
1.94500	-102
1.94867	-101
1.95233	-101
1.95600	-101
1.95967	-100
1.96333	-100
1.96700	-99
1.97067	-99
1.97433	-98
1.97800	-98
1.98167	-98
1.98533	-98
1.98900	-98
1.99267	-98
1.99633	-99
2.00000	-99
2.00367	-99
2.00733	-99
2.01100	-99
2.01467	-99
2.01833	-99
2.02200	-98
2.02567	-98
2.02933	-97
2.03300	-97
2.03667	-96
2.04033	-96
2.04400	-96
2.04767	-95
2.05133	-95
2.05500	-95
2.05867	-94
2.06233	-94
2.06600	-94
2.06967	-94
2.07333	-94
2.07700	-94
2.08067	-94
2.08433	-94
2.08800	-93
2.09167	-93
2.09533	-93
2.09900	-92
2.10267	-91
2.10633	-91
2.11000	-91
2.11367	-90
2.11733	-90
2.12100	-90
2.12467	-90
2.12833	-89
2.13200	-89
2.13567	-89
2.13933	-89
2.14300	-89
2.14667	-89
2.15033	-89
2.15400	-89
2.15767	-89
2.16133	-88
2.16500	-88
2.16867	-87
2.17233	-87
2.17600	-86
2.17967	-85
2.18333	-85
2.18700	-85
2.19067	-85
2.19433	-85
2.19800	-85
2.20167	-84
2.20533	-84
2.20900	-83
2.21267	-83
2.21633	-82
2.22000	-82
2.22367	-81
2.22733	-81
2.23100	-81
2.23467	-81
2.23833	-81
2.24200	-81
2.24567	-81
2.24933	-82
2.25300	-82
2.25667	-83
2.26033	-83
2.26400	-83
2.26767	-83
2.27133	-82
2.27500	-82
2.27867	-82
2.28233	-81
2.28600	-80
2.28967	-80
2.29333	-79
2.29700	-78
2.30067	-78
2.30433	-78
2.30800	-78
2.31167	-78
2.31533	-78
2.31900	-79
2.32267	-79
2.32633	-79
2.33000	-78
2.33367	-77
2.33733	-76
2.34100	-76
2.34467	-75
2.34833	-74
2.35200	-73
2.35567	-71
2.35933	-70
2.36300	-69
2.36667	-67
2.37033	-65
2.37400	-63
2.37767	-60
2.38133	-57
2.38500	-54
2.38867	-50
2.39233	-46
2.39600	-41
2.39967	-37
2.40333	-32
2.40700	-28
2.41067	-24
2.41433	-21
2.41800	-18
2.42167	-16
2.42533	-13
2.42900	-11
2.43267	-9
2.43633	-7
2.44000	-5
2.44367	-3
2.44733	-2
2.45100	-1
2.45467	-0
2.45833	1
2.46200	1
2.46567	3
2.46933	4
2.47300	5
2.47667	6
2.48033	7
2.48400	8
2.48767	9
2.49133	9
2.49500	9
2.49867	10
2.50233	10
2.50600	10
2.50967	10
2.51333	10
2.51700	10
2.52067	9
2.52433	8
2.52800	8
2.53167	8
2.53533	7
2.53900	8
2.54267	8
2.54633	9
2.55000	9
2.55367	9
2.55733	10
2.56100	10
2.56467	11
2.56833	11
2.57200	12
2.57567	12
2.57933	13
2.58300	14
2.58667	14
2.59033	15
2.59400	15
2.59767	16
2.60133	16
2.60500	17
2.60867	17
2.61233	17
2.61600	17
2.61967	17
2.62333	17
2.62700	16
2.63067	16
2.63433	17
2.63800	17
2.64167	17
2.64533	17
2.64900	17
2.65267	18
2.65633	18
2.66000	18
2.66367	19
2.66733	19
2.67100	19
2.67467	20
2.67833	20
2.68200	19
2.68567	19
2.68933	20
2.69300	20
2.69667	20
2.70033	20
2.70400	21
2.70767	21
2.71133	21
2.71500	22
2.71867	22
2.72233	22
2.72600	23
2.72967	23
2.73333	23
2.73700	23
2.74067	23
2.74433	23
2.74800	23
2.75167	23
2.75533	24
2.75900	24
2.76267	25
2.76633	25
2.77000	26
2.77367	26
2.77733	26
2.78100	26
2.78467	26
2.78833	26
2.79200	26
2.79567	25
2.79933	25
2.80300	25
2.80667	24
2.81033	24
2.81400	24
2.81767	24
2.82133	24
2.82500	24
2.82867	25
2.83233	25
2.83600	25
2.83967	26
2.84333	26
2.84700	26
2.85067	26
2.85433	26
2.85800	25
2.86167	24
2.86533	20
2.86900	14
2.87267	4
2.87633	-10
2.88000	-28
2.88367	-53
2.88733	-83
2.89100	-120
2.89467	-163
2.89833	-213
2.90200	-268
2.90567	-330
2.90933	-397
2.91300	-469
2.91667	-546
2.92033	-627
2.92400	-711
2.92767	-799
2.93133	-890
2.93500	-984
2.93867	-1079
2.94233	-1176
2.94600	-1276
2.94967	-1375
2.95333	-1465
2.95700	-1533
2.96067	-1567
2.96433	-1563
2.96800	-1523
2.97167	-1453
2.97533	-1362
2.97900	-1256
2.98267	-1144
2.98633	-1030
2.99000	-920
2.99367	-814
2.99733	-716
3.00100	-626
3.00467	-545
3.00833	-472
3.01200	-408
3.01567	-351
3.01933	-302
3.02300	-259
3.02667	-221
3.03033	-189
3.03400	-160
3.03767	-136
3.04133	-115
3.04500	-97
3.04867	-82
3.05233	-69
3.05600	-58
3.05967	-48
3.06333	-40
3.06700	-33
3.07067	-27
3.07433	-22
3.07800	-18
3.08167	-15
3.08533	-11
3.08900	-9
3.09267	-6
3.09633	-3
3.10000	-1
3.10367	0
3.10733	2
3.11100	3
3.11467	5
3.11833	6
3.12200	7
3.12567	8
3.12933	9
3.13300	10
3.13667	10
3.14033	11
3.14400	11
3.14767	12
3.15133	13
3.15500	13
3.15867	13
3.16233	14
3.16600	14
3.16967	14
3.17333	14
3.17700	14
3.18067	14
3.18433	15
3.18800	15
3.19167	15
3.19533	15
3.19900	16
3.20267	16
3.20633	17
3.21000	17
3.21367	17
3.21733	17
3.22100	17
3.22467	17
3.22833	17
3.23200	17
3.23567	17
3.23933	17
3.24300	17
3.24667	18
3.25033	18
3.25400	18
3.25767	18
3.26133	18
3.26500	19
3.26867	19
3.27233	19
3.27600	20
3.27967	20
3.28333	20
3.28700	20
3.29067	20
3.29433	20
3.29800	20
3.30167	21
3.30533	21
3.30900	21
3.31267	21
3.31633	21
3.32000	21
3.32367	21
3.32733	21
3.33100	21
3.33467	21
3.33833	21
3.34200	22
3.34567	22
3.34933	23
3.35300	23
3.35667	24
3.36033	24
3.36400	24
3.36767	24
3.37133	24
3.37500	24
3.37867	24
3.38233	24
3.38600	24
3.38967	24
3.39333	25
3.39700	25
3.40067	25
3.40433	25
3.40800	26
3.41167	26
3.41533	26
3.41900	26
3.42267	26
3.42633	26
3.43000	26
3.43367	26
3.43733	26
3.44100	26
3.44467	26
3.44833	26
3.45200	27
3.45567	27
3.45933	27
3.46300	27
3.46667	27
3.47033	27
3.47400	27
3.47767	27
3.48133	27
3.48500	27
3.48867	27
3.49233	27
3.49600	26
3.49967	26
3.50333	26
3.50700	26
3.51067	26
3.51433	25
3.51800	25
3.52167	25
3.52533	25
3.52900	25
3.53267	25
3.53633	25
3.54000	26
3.54367	26
3.54733	26
3.55100	26
3.55467	26
3.55833	26
3.56200	26
3.56567	26
3.56933	26
3.57300	26
3.57667	27
3.58033	27
3.58400	27
3.58767	27
3.59133	27
3.59500	27
3.59867	27
3.60233	27
3.60600	26
3.60967	26
3.61333	26
3.61700	25
3.62067	25
3.62433	25
3.62800	25
3.63167	25
3.63533	25
3.63900	25
3.64267	25
3.64633	25
3.65000	25
3.65367	25
3.65733	25
3.66100	25
3.66467	25
3.66833	25
3.67200	26
3.67567	26
3.67933	26
3.68300	26
3.68667	26
3.69033	26
3.69400	26
3.69767	26
3.70133	26
3.70500	26
3.70867	26
3.71233	27
3.71600	26
3.71967	26
3.72333	26
3.72700	26
3.73067	26
3.73433	26
3.73800	26
3.74167	26
3.74533	25
3.74900	25
3.75267	26
3.75633	26
3.76000	26
3.76367	26
3.76733	26
3.77100	26
3.77467	26
3.77833	26
3.78200	26
3.78567	26
3.78933	26
3.79300	26
3.79667	25
3.80033	25
3.80400	25
3.80767	25
3.81133	25
3.81500	25
3.81867	25
3.82233	25
3.82600	25
3.82967	25
3.83333	25
3.83700	25
3.84067	24
3.84433	24
3.84800	24
3.85167	24
3.85533	24
3.85900	24
3.86267	24
3.86633	25
3.87000	25
3.87367	25
3.87733	26
3.88100	26
3.88467	26
3.88833	26
3.89200	26
3.89567	26
3.89933	26
3.90300	26
3.90667	26
3.91033	26
3.91400	26
3.91767	26
3.92133	26
3.92500	26
3.92867	26
3.93233	26
3.93600	26
3.93967	27
3.94333	27
3.94700	27
3.95067	27
3.95433	27
3.95800	27
3.96167	27
3.96533	27
3.96900	27
3.97267	27
3.97633	27
3.98000	27
3.98367	26
3.98733	26
3.99100	26
3.99467	26
3.99833	26

[Chromatogram (Ch3)]
Interval(msec)	220
# of Points	1091
Start Time(min)	0.002
End Time(min)	3.998
R.Time (min)	Intensity
0.00167	0
0.00533	1
0.00900	-0
0.01267	-2
0.01633	-2
0.02000	-2
0.02367	-3
0.02733	-3
0.03100	-1
0.03467	1
0.03833	2
0.04200	3
0.04567	6
0.04933	8
0.05300	8
0.05667	7
0.06033	7
0.06400	5
0.06767	3
0.07133	3
0.07500	3
0.07867	3
0.08233	4
0.08600	5
0.08967	5
0.09333	3
0.09700	0
0.10067	-0
0.10433	1
0.10800	2
0.11167	0
0.11533	0
0.11900	2
0.12267	2
0.12633	1
0.13000	2
0.13367	4
0.13733	4
0.14100	4
0.14467	4
0.14833	2
0.15200	1
0.15567	2
0.15933	4
0.16300	5
0.16667	5
0.17033	4
0.17400	2
0.17767	2
0.18133	1
0.18500	2
0.18867	3
0.19233	5
0.19600	5
0.19967	5
0.20333	4
0.20700	2
0.21067	1
0.21433	1
0.21800	2
0.22167	3
0.22533	3
0.22900	2
0.23267	2
0.23633	4
0.24000	4
0.24367	5
0.24733	5
0.25100	5
0.25467	5
0.25833	6
0.26200	6
0.26567	6
0.26933	8
0.27300	9
0.27667	8
0.28033	6
0.28400	5
0.28767	4
0.29133	5
0.29500	5
0.29867	3
0.30233	2
0.30600	2
0.30967	3
0.31333	3
0.31700	3
0.32067	3
0.32433	4
0.32800	4
0.33167	3
0.33533	2
0.33900	0
0.34267	-2
0.34633	-0
0.35000	2
0.35367	1
0.35733	1
0.36100	1
0.36467	2
0.36833	1
0.37200	4
0.37567	7
0.37933	10
0.38300	10
0.38667	8
0.39033	5
0.39400	2
0.39767	1
0.40133	-2
0.40500	-0
0.40867	1
0.41233	2
0.41600	3
0.41967	4
0.42333	6
0.42700	8
0.43067	7
0.43433	5
0.43800	4
0.44167	5
0.44533	6
0.44900	8
0.45267	9
0.45633	8
0.46000	7
0.46367	6
0.46733	6
0.47100	7
0.47467	7
0.47833	6
0.48200	5
0.48567	5
0.48933	4
0.49300	3
0.49667	4
0.50033	5
0.50400	5
0.50767	6
0.51133	7
0.51500	8
0.51867	9
0.52233	10
0.52600	9
0.52967	8
0.53333	6
0.53700	6
0.54067	8
0.54433	9
0.54800	8
0.55167	6
0.55533	5
0.55900	5
0.56267	7
0.56633	7
0.57000	6
0.57367	5
0.57733	5
0.58100	6
0.58467	7
0.58833	7
0.59200	6
0.59567	5
0.59933	6
0.60300	6
0.60667	5
0.61033	7
0.61400	10
0.61767	12
0.62133	12
0.62500	13
0.62867	10
0.63233	8
0.63600	8
0.63967	9
0.64333	10
0.64700	13
0.65067	15
0.65433	16
0.65800	15
0.66167	14
0.66533	14
0.66900	12
0.67267	9
0.67633	8
0.68000	8
0.68367	8
0.68733	9
0.69100	12
0.69467	14
0.69833	14
0.70200	11
0.70567	11
0.70933	10
0.71300	9
0.71667	8
0.72033	7
0.72400	7
0.72767	8
0.73133	8
0.73500	9
0.73867	10
0.74233	10
0.74600	11
0.74967	9
0.75333	9
0.75700	10
0.76067	10
0.76433	11
0.76800	12
0.77167	11
0.77533	10
0.77900	9
0.78267	10
0.78633	10
0.79000	10
0.79367	10
0.79733	11
0.80100	10
0.80467	10
0.80833	11
0.81200	10
0.81567	9
0.81933	10
0.82300	11
0.82667	11
0.83033	12
0.83400	10
0.83767	9
0.84133	8
0.84500	8
0.84867	9
0.85233	10
0.85600	13
0.85967	14
0.86333	14
0.86700	13
0.87067	14
0.87433	15
0.87800	14
0.88167	15
0.88533	19
0.88900	21
0.89267	21
0.89633	20
0.90000	18
0.90367	17
0.90733	18
0.91100	18
0.91467	17
0.91833	15
0.92200	13
0.92567	11
0.92933	12
0.93300	13
0.93667	14
0.94033	14
0.94400	14
0.94767	14
0.95133	13
0.95500	11
0.95867	10
0.96233	11
0.96600	11
0.96967	11
0.97333	12
0.97700	13
0.98067	12
0.98433	12
0.98800	13
0.99167	14
0.99533	15
0.99900	17
1.00267	19
1.00633	18
1.01000	18
1.01367	19
1.01733	19
1.02100	20
1.02467	21
1.02833	20
1.03200	19
1.03567	20
1.03933	20
1.04300	20
1.04667	17
1.05033	17
1.05400	18
1.05767	18
1.06133	17
1.06500	17
1.06867	17
1.07233	17
1.07600	18
1.07967	17
1.08333	17
1.08700	18
1.09067	19
1.09433	20
1.09800	20
1.10167	21
1.10533	23
1.10900	24
1.11267	21
1.11633	19
1.12000	18
1.12367	19
1.12733	18
1.13100	16
1.13467	16
1.13833	16
1.14200	15
1.14567	15
1.14933	16
1.15300	16
1.15667	17
1.16033	17
1.16400	19
1.16767	21
1.17133	22
1.17500	21
1.17867	20
1.18233	18
1.18600	15
1.18967	14
1.19333	14
1.19700	14
1.20067	14
1.20433	16
1.20800	17
1.21167	18
1.21533	18
1.21900	18
1.22267	18
1.22633	19
1.23000	20
1.23367	18
1.23733	16
1.24100	16
1.24467	15
1.24833	15
1.25200	15
1.25567	17
1.25933	19
1.26300	21
1.26667	22
1.27033	23
1.27400	22
1.27767	21
1.28133	21
1.28500	21
1.28867	22
1.29233	22
1.29600	22
1.29967	22
1.30333	21
1.30700	20
1.31067	22
1.31433	24
1.31800	26
1.32167	26
1.32533	24
1.32900	23
1.33267	21
1.33633	20
1.34000	20
1.34367	20
1.34733	19
1.35100	19
1.35467	22
1.35833	26
1.36200	28
1.36567	30
1.36933	28
1.37300	27
1.37667	26
1.38033	23
1.38400	19
1.38767	18
1.39133	19
1.39500	19
1.39867	18
1.40233	16
1.40600	15
1.40967	17
1.41333	19
1.41700	22
1.42067	25
1.42433	25
1.42800	23
1.43167	20
1.43533	17
1.43900	15
1.44267	15
1.44633	16
1.45000	17
1.45367	19
1.45733	21
1.46100	21
1.46467	20
1.46833	19
1.47200	19
1.47567	21
1.47933	22
1.48300	21
1.48667	18
1.49033	17
1.49400	16
1.49767	18
1.50133	18
1.50500	18
1.50867	19
1.51233	20
1.51600	19
1.51967	18
1.52333	19
1.52700	19
1.53067	19
1.53433	20
1.53800	21
1.54167	23
1.54533	25
1.54900	27
1.55267	29
1.55633	30
1.56000	30
1.56367	27
1.56733	24
1.57100	23
1.57467	23
1.57833	24
1.58200	24
1.58567	23
1.58933	23
1.59300	23
1.59667	23
1.60033	22
1.60400	20
1.60767	21
1.61133	22
1.61500	22
1.61867	22
1.62233	23
1.62600	24
1.62967	24
1.63333	24
1.63700	25
1.64067	27
1.64433	30
1.64800	29
1.65167	27
1.65533	27
1.65900	30
1.66267	30
1.66633	30
1.67000	30
1.67367	32
1.67733	33
1.68100	34
1.68467	34
1.68833	34
1.69200	34
1.69567	34
1.69933	36
1.70300	37
1.70667	39
1.71033	39
1.71400	41
1.71767	42
1.72133	43
1.72500	43
1.72867	41
1.73233	39
1.73600	37
1.73967	38
1.74333	38
1.74700	39
1.75067	39
1.75433	42
1.75800	44
1.76167	44
1.76533	45
1.76900	45
1.77267	45
1.77633	46
1.78000	47
1.78367	49
1.78733	51
1.79100	52
1.79467	53
1.79833	55
1.80200	55
1.80567	53
1.80933	53
1.81300	54
1.81667	54
1.82033	55
1.82400	57
1.82767	59
1.83133	61
1.83500	61
1.83867	61
1.84233	61
1.84600	63
1.84967	65
1.85333	64
1.85700	62
1.86067	63
1.86433	63
1.86800	62
1.87167	65
1.87533	67
1.87900	69
1.88267	68
1.88633	68
1.89000	69
1.89367	72
1.89733	74
1.90100	74
1.90467	74
1.90833	74
1.91200	74
1.91567	76
1.91933	78
1.92300	79
1.92667	80
1.93033	79
1.93400	80
1.93767	81
1.94133	82
1.94500	85
1.94867	85
1.95233	83
1.95600	82
1.95967	82
1.96333	82
1.96700	83
1.97067	87
1.97433	90
1.97800	91
1.98167	93
1.98533	94
1.98900	97
1.99267	99
1.99633	100
2.00000	100
2.00367	98
2.00733	97
2.01100	96
2.01467	96
2.01833	100
2.02200	103
2.02567	105
2.02933	107
2.03300	107
2.03667	108
2.04033	110
2.04400	108
2.04767	107
2.05133	108
2.05500	111
2.05867	111
2.06233	113
2.06600	113
2.06967	113
2.07333	116
2.07700	117
2.08067	118
2.08433	121
2.08800	122
2.09167	120
2.09533	118
2.09900	119
2.10267	123
2.10633	126
2.11000	125
2.11367	124
2.11733	125
2.12100	127
2.12467	129
2.12833	130
2.13200	132
2.13567	135
2.13933	135
2.14300	134
2.14667	135
2.15033	137
2.15400	138
2.15767	137
2.16133	137
2.16500	136
2.16867	135
2.17233	134
2.17600	133
2.17967	132
2.18333	134
2.18700	139
2.19067	143
2.19433	145
2.19800	145
2.20167	147
2.20533	149
2.20900	151
2.21267	151
2.21633	152
2.22000	156
2.22367	158
2.22733	159
2.23100	159
2.23467	157
2.23833	157
2.24200	156
2.24567	155
2.24933	156
2.25300	158
2.25667	159
2.26033	161
2.26400	162
2.26767	164
2.27133	166
2.27500	167
2.27867	168
2.28233	167
2.28600	167
2.28967	167
2.29333	168
2.29700	171
2.30067	172
2.30433	173
2.30800	175
2.31167	175
2.31533	174
2.31900	174
2.32267	174
2.32633	173
2.33000	173
2.33367	172
2.33733	173
2.34100	174
2.34467	174
2.34833	175
2.35200	175
2.35567	178
2.35933	181
2.36300	184
2.36667	183
2.37033	182
2.37400	182
2.37767	181
2.38133	181
2.38500	180
2.38867	179
2.39233	180
2.39600	179
2.39967	181
2.40333	184
2.40700	185
2.41067	186
2.41433	188
2.41800	190
2.42167	191
2.42533	193
2.42900	196
2.43267	194
2.43633	193
2.44000	197
2.44367	234
2.44733	311
2.45100	390
2.45467	438
2.45833	452
2.46200	451
2.46567	446
2.46933	432
2.47300	405
2.47667	373
2.48033	338
2.48400	311
2.48767	293
2.49133	283
2.49500	279
2.49867	282
2.50233	285
2.50600	285
2.50967	279
2.51333	267
2.51700	247
2.52067	228
2.52433	211
2.52800	197
2.53167	185
2.53533	175
2.53900	166
2.54267	161
2.54633	160
2.55000	158
2.55367	157
2.55733	158
2.56100	162
2.56467	170
2.56833	180
2.57200	192
2.57567	204
2.57933	218
2.58300	228
2.58667	234
2.59033	236
2.59400	235
2.59767	229
2.60133	221
2.60500	210
2.60867	199
2.61233	190
2.61600	181
2.61967	170
2.62333	159
2.62700	149
2.63067	138
2.63433	125
2.63800	115
2.64167	109
2.64533	105
2.64900	99
2.65267	95
2.65633	93
2.66000	91
2.66367	88
2.66733	88
2.67100	91
2.67467	93
2.67833	96
2.68200	98
2.68567	98
2.68933	98
2.69300	99
2.69667	103
2.70033	106
2.70400	112
2.70767	117
2.71133	121
2.71500	125
2.71867	130
2.72233	136
2.72600	144
2.72967	151
2.73333	156
2.73700	160
2.74067	163
2.74433	167
2.74800	175
2.75167	181
2.75533	185
2.75900	187
2.76267	189
2.76633	190
2.77000	189
2.77367	189
2.77733	190
2.78100	193
2.78467	191
2.78833	189
2.79200	188
2.79567	187
2.79933	186
2.80300	184
2.80667	180
2.81033	179
2.81400	185
2.81767	195
2.82133	212
2.82500	236
2.82867	265
2.83233	305
2.83600	376
2.83967	505
2.84333	735
2.84700	1127
2.85067	1744
2.85433	2631
2.85800	3804
2.86167	5229
2.86533	6840
2.86900	8530
2.87267	10173
2.87633	11643
2.88000	12824
2.88367	13633
2.88733	14042
2.89100	14068
2.89467	13758
2.89833	13184
2.90200	12421
2.90567	11538
2.90933	10596
2.91300	9645
2.91667	8725
2.92033	7858
2.92400	7049
2.92767	6306
2.93133	5635
2.93500	5029
2.93867	4489
2.94233	4011
2.94600	3591
2.94967	3223
2.95333	2899
2.95700	2616
2.96067	2369
2.96433	2154
2.96800	1966
2.97167	1802
2.97533	1660
2.97900	1536
2.98267	1430
2.98633	1340
2.99000	1263
2.99367	1197
2.99733	1140
3.00100	1091
3.00467	1049
3.00833	1010
3.01200	976
3.01567	946
3.01933	920
3.02300	897
3.02667	878
3.03033	860
3.03400	847
3.03767	836
3.04133	826
3.04500	817
3.04867	809
3.05233	802
3.05600	795
3.05967	788
3.06333	780
3.06700	774
3.07067	771
3.07433	768
3.07800	762
3.08167	757
3.08533	752
3.08900	746
3.09267	740
3.09633	734
3.10000	728
3.10367	722
3.10733	718
3.11100	717
3.11467	714
3.11833	711
3.12200	707
3.12567	703
3.12933	697
3.13300	691
3.13667	684
3.14033	682
3.14400	680
3.14767	677
3.15133	672
3.15500	668
3.15867	666
3.16233	665
3.16600	664
3.16967	661
3.17333	657
3.17700	652
3.18067	649
3.18433	647
3.18800	645
3.19167	644
3.19533	641
3.19900	636
3.20267	633
3.20633	631
3.21000	627
3.21367	622
3.21733	618
3.22100	614
3.22467	612
3.22833	609
3.23200	607
3.23567	605
3.23933	600
3.24300	596
3.24667	593
3.25033	593
3.25400	591
3.25767	589
3.26133	588
3.26500	587
3.26867	585
3.27233	583
3.27600	582
3.27967	582
3.28333	580
3.28700	578
3.29067	577
3.29433	575
3.29800	573
3.30167	572
3.30533	569
3.30900	566
3.31267	564
3.31633	562
3.32000	559
3.32367	558
3.32733	556
3.33100	556
3.33467	556
3.33833	552
3.34200	551
3.34567	550
3.34933	550
3.35300	550
3.35667	549
3.36033	545
3.36400	542
3.36767	540
3.37133	538
3.37500	539
3.37867	537
3.38233	532
3.38600	528
3.38967	525
3.39333	523
3.39700	519
3.40067	514
3.40433	512
3.40800	510
3.41167	508
3.41533	508
3.41900	508
3.42267	508
3.42633	507
3.43000	507
3.43367	507
3.43733	507
3.44100	504
3.44467	501
3.44833	499
3.45200	498
3.45567	496
3.45933	493
3.46300	490
3.46667	490
3.47033	489
3.47400	489
3.47767	490
3.48133	489
3.48500	486
3.48867	485
3.49233	485
3.49600	485
3.49967	483
3.50333	483
3.50700	484
3.51067	482
3.51433	479
3.51800	477
3.52167	472
3.52533	470
3.52900	471
3.53267	470
3.53633	469
3.54000	470
3.54367	471
3.54733	473
3.55100	473
3.55467	471
3.55833	468
3.56200	467
3.56567	466
3.56933	466
3.57300	465
3.57667	464
3.58033	464
3.58400	464
3.58767	462
3.59133	462
3.59500	461
3.59867	460
3.60233	458
3.60600	457
3.60967	455
3.61333	454
3.61700	455
3.62067	455
3.62433	452
3.62800	450
3.63167	450
3.63533	451
3.63900	452
3.64267	452
3.64633	452
3.65000	450
3.65367	450
3.65733	450
3.66100	448
3.66467	444
3.66833	443
3.67200	444
3.67567	447
3.67933	450
3.68300	450
3.68667	450
3.69033	450
3.69400	449
3.69767	445
3.70133	440
3.70500	438
3.70867	438
3.71233	440
3.71600	442
3.71967	441
3.72333	439
3.72700	437
3.73067	435
3.73433	433
3.73800	432
3.74167	431
3.74533	430
3.74900	429
3.75267	428
3.75633	427
3.76000	427
3.76367	427
3.76733	425
3.77100	421
3.77467	418
3.77833	418
3.78200	417
3.78567	417
3.78933	416
3.79300	416
3.79667	419
3.80033	419
3.80400	418
3.80767	418
3.81133	417
3.81500	417
3.81867	416
3.82233	415
3.82600	411
3.82967	407
3.83333	404
3.83700	402
3.84067	401
3.84433	402
3.84800	401
3.85167	400
3.85533	401
3.85900	400
3.86267	397
3.86633	394
3.87000	390
3.87367	389
3.87733	388
3.88100	387
3.88467	388
3.88833	387
3.89200	387
3.89567	387
3.89933	388
3.90300	389
3.90667	387
3.91033	386
3.91400	385
3.91767	381
3.92133	379
3.92500	377
3.92867	377
3.93233	380
3.93600	382
3.93967	380
3.94333	378
3.94700	374
3.95067	373
3.95433	372
3.95800	372
3.96167	372
3.96533	370
3.96900	368
3.97267	365
3.97633	363
3.98000	361
3.98367	360
3.98733	359
3.99100	358
3.99467	359
3.99833	358

[Status Trace (Column Oven Temperature)]
Interval(msec)	1000
# of Points	240
Start Time(min)	0.008
End Time(min)	3.991
Intensity Units	
Intensity Multiplier	1
R.Time (min)	Intensity
0.00767	35.05
0.02433	35.05
0.04100	35.06
0.05767	35.06
0.07433	35.06
0.09100	35.06
0.10767	35.05
0.12433	35.05
0.14100	35.05
0.15767	35.05
0.17433	35.05
0.19100	35.06
0.20767	35.05
0.22433	35.05
0.24100	35.05
0.25767	35.04
0.27433	35.05
0.29100	35.06
0.30767	35.06
0.32433	35.05
0.34100	35.05
0.35767	35.04
0.37433	35.03
0.39100	35.03
0.40767	35.02
0.42433	35.02
0.44100	35.03
0.45767	35.02
0.47433	35.02
0.49100	35.03
0.50767	35.03
0.52433	35.03
0.54100	35.02
0.55767	35.03
0.57433	35.03
0.59100	35.02
0.60767	35.02
0.62433	35.02
0.64100	35.01
0.65767	35.00
0.67433	34.99
0.69100	34.98
0.70767	34.99
0.72433	34.99
0.74100	35.00
0.75767	35.01
0.77433	35.01
0.79100	35.02
0.80767	35.01
0.82433	35.00
0.84100	35.00
0.85767	34.99
0.87433	34.99
0.89100	35.01
0.90767	35.02
0.92433	35.01
0.94100	35.01
0.95767	35.01
0.97433	35.00
0.99100	35.00
1.00767	35.00
1.02433	35.00
1.04100	34.99
1.05767	34.98
1.07433	34.98
1.09100	34.98
1.10767	34.99
1.12433	34.99
1.14100	34.99
1.15767	34.99
1.17433	34.99
1.19100	34.99
1.20767	34.99
1.22433	34.99
1.24100	34.99
1.25767	35.00
1.27433	35.00
1.29100	34.99
1.30767	35.00
1.32433	35.00
1.34100	35.00
1.35767	35.01
1.37433	35.01
1.39100	35.01
1.40767	35.00
1.42433	35.01
1.44100	35.01
1.45767	35.02
1.47433	35.01
1.49100	35.01
1.50767	35.00
1.52433	35.01
1.54100	35.00
1.55767	35.01
1.57433	35.01
1.59100	35.02
1.60767	35.07
1.62433	35.18
1.64100	35.37
1.65767	35.60
1.67433	35.92
1.69100	36.28
1.70767	36.64
1.72433	36.98
1.74100	37.31
1.75767	37.66
1.77433	37.98
1.79100	38.32
1.80767	38.63
1.82433	38.97
1.84100	39.30
1.85767	39.63
1.87433	39.95
1.89100	40.28
1.90767	40.62
1.92433	40.96
1.94100	41.27
1.95767	41.60
1.97433	41.92
1.99100	42.24
2.00767	42.57
2.02433	42.89
2.04100	43.21
2.05767	43.52
2.07433	43.86
2.09100	44.18
2.10767	44.50
2.12433	44.84
2.14100	45.16
2.15767	45.49
2.17433	45.81
2.19100	46.15
2.20767	46.47
2.22433	46.80
2.24100	47.13
2.25767	47.47
2.27433	47.80
2.29100	48.11
2.30767	48.47
2.32433	48.83
2.34100	49.13
2.35767	49.42
2.37433	49.60
2.39100	49.67
2.40767	49.66
2.42433	49.67
2.44100	49.68
2.45767	49.69
2.47433	49.69
2.49100	49.71
2.50767	49.71
2.52433	49.73
2.54100	49.73
2.55767	49.75
2.57433	49.76
2.59100	49.77
2.60767	49.77
2.62433	49.80
2.64100	49.81
2.65767	49.81
2.67433	49.83
2.69100	49.82
2.70767	49.84
2.72433	49.84
2.74100	49.85
2.75767	49.85
2.77433	49.85
2.79100	49.87
2.80767	49.88
2.82433	49.88
2.84100	49.87
2.85767	49.88
2.87433	49.88
2.89100	49.88
2.90767	49.90
2.92433	49.91
2.94100	49.91
2.95767	49.92
2.97433	49.94
2.99100	49.94
3.00767	49.95
3.02433	49.97
3.04100	49.98
3.05767	49.99
3.07433	50.00
3.09100	50.00
3.10767	50.00
3.12433	50.01
3.14100	50.01
3.15767	50.01
3.17433	50.02
3.19100	50.03
3.20767	50.04
3.22433	50.05
3.24100	50.05
3.25767	50.07
3.27433	50.08
3.29100	50.08
3.30767	50.09
3.32433	50.10
3.34100	50.10
3.35767	50.10
3.37433	50.10
3.39100	50.10
3.40767	50.08
3.42433	50.08
3.44100	50.08
3.45767	50.07
3.47433	50.07
3.49100	50.07
3.50767	50.08
3.52433	50.07
3.54100	50.06
3.55767	50.05
3.57433	50.04
3.59100	50.04
3.60767	50.04
3.62433	50.05
3.64100	50.06
3.65767	50.06
3.67433	50.07
3.69100	50.06
3.70767	50.06
3.72433	50.05
3.74100	50.06
3.75767	50.06
3.77433	50.07
3.79100	50.08
3.80767	50.08
3.82433	50.08
3.84100	50.07
3.85767	50.07
3.87433	50.07
3.89100	50.07
3.90767	50.07
3.92433	50.07
3.94100	50.06
3.95767	50.06
3.97433	50.06
3.99100	50.06

[Status Trace (Injection Unit Temperature)]
Interval(msec)	1000
# of Points	240
Start Time(min)	0.008
End Time(min)	3.991
Intensity Units	
Intensity Multiplier	1
R.Time (min)	Intensity
0.00767	99.98
0.02433	99.98
0.04100	99.98
0.05767	99.98
0.07433	99.98
0.09100	99.98
0.10767	99.98
0.12433	99.98
0.14100	99.98
0.15767	99.98
0.17433	99.98
0.19100	99.98
0.20767	99.99
0.22433	99.98
0.24100	99.98
0.25767	99.98
0.27433	99.99
0.29100	99.98
0.30767	99.98
0.32433	99.99
0.34100	99.99
0.35767	99.99
0.37433	99.98
0.39100	99.99
0.40767	99.99
0.42433	99.99
0.44100	99.99
0.45767	99.99
0.47433	99.99
0.49100	99.99
0.50767	99.99
0.52433	99.99
0.54100	99.99
0.55767	99.99
0.57433	99.99
0.59100	99.98
0.60767	99.98
0.62433	99.99
0.64100	99.99
0.65767	99.99
0.67433	99.99
0.69100	99.98
0.70767	99.99
0.72433	99.99
0.74100	99.99
0.75767	99.98
0.77433	99.99
0.79100	99.98
0.80767	99.98
0.82433	99.98
0.84100	99.98
0.85767	99.98
0.87433	99.99
0.89100	99.98
0.90767	99.98
0.92433	99.98
0.94100	99.99
0.95767	99.98
0.97433	99.98
0.99100	99.98
1.00767	99.99
1.02433	99.99
1.04100	99.99
1.05767	99.98
1.07433	99.98
1.09100	99.98
1.10767	99.98
1.12433	99.98
1.14100	99.98
1.15767	99.99
1.17433	99.99
1.19100	99.98
1.20767	99.98
1.22433	99.98
1.24100	99.98
1.25767	99.99
1.27433	99.99
1.29100	99.98
1.30767	99.99
1.32433	99.99
1.34100	99.99
1.35767	99.99
1.37433	99.99
1.39100	99.99
1.40767	99.99
1.42433	99.99
1.44100	99.99
1.45767	99.99
1.47433	99.98
1.49100	99.99
1.50767	99.99
1.52433	99.99
1.54100	99.99
1.55767	99.99
1.57433	99.99
1.59100	99.99
1.60767	99.99
1.62433	99.99
1.64100	99.99
1.65767	99.99
1.67433	99.99
1.69100	99.99
1.70767	99.99
1.72433	99.99
1.74100	99.99
1.75767	99.99
1.77433	99.99
1.79100	99.99
1.80767	99.99
1.82433	99.99
1.84100	99.99
1.85767	99.99
1.87433	99.99
1.89100	99.99
1.90767	99.99
1.92433	99.99
1.94100	99.98
1.95767	99.98
1.97433	99.98
1.99100	99.98
2.00767	99.98
2.02433	99.98
2.04100	99.98
2.05767	99.98
2.07433	99.97
2.09100	99.98
2.10767	99.98
2.12433	99.98
2.14100	99.97
2.15767	99.97
2.17433	99.97
2.19100	99.97
2.20767	99.97
2.22433	99.97
2.24100	99.96
2.25767	99.97
2.27433	99.97
2.29100	99.97
2.30767	99.96
2.32433	99.97
2.34100	99.97
2.35767	99.96
2.37433	99.97
2.39100	99.97
2.40767	99.97
2.42433	99.96
2.44100	99.97
2.45767	99.96
2.47433	99.96
2.49100	99.97
2.50767	99.97
2.52433	99.96
2.54100	99.97
2.55767	99.97
2.57433	99.97
2.59100	99.97
2.60767	99.97
2.62433	99.97
2.64100	99.98
2.65767	99.98
2.67433	99.98
2.69100	99.98
2.70767	99.98
2.72433	99.98
2.74100	99.98
2.75767	99.98
2.77433	99.99
2.79100	99.99
2.80767	99.99
2.82433	99.99
2.84100	99.99
2.85767	99.99
2.87433	99.99
2.89100	100.00
2.90767	100.00
2.92433	100.00
2.94100	100.00
2.95767	100.01
2.97433	100.01
2.99100	100.00
3.00767	100.01
3.02433	100.01
3.04100	100.01
3.05767	100.02
3.07433	100.02
3.09100	100.02
3.10767	100.02
3.12433	100.02
3.14100	100.02
3.15767	100.02
3.17433	100.02
3.19100	100.02
3.20767	100.03
3.22433	100.02
3.24100	100.03
3.25767	100.02
3.27433	100.03
3.29100	100.03
3.30767	100.03
3.32433	100.03
3.34100	100.03
3.35767	100.03
3.37433	100.03
3.39100	100.03
3.40767	100.04
3.42433	100.03
3.44100	100.04
3.45767	100.04
3.47433	100.04
3.49100	100.04
3.50767	100.04
3.52433	100.04
3.54100	100.04
3.55767	100.05
3.57433	100.05
3.59100	100.05
3.60767	100.05
3.62433	100.05
3.64100	100.05
3.65767	100.05
3.67433	100.05
3.69100	100.05
3.70767	100.05
3.72433	100.05
3.74100	100.05
3.75767	100.05
3.77433	100.05
3.79100	100.05
3.80767	100.05
3.82433	100.05
3.84100	100.05
3.85767	100.06
3.87433	100.05
3.89100	100.05
3.90767	100.05
3.92433	100.05
3.94100	100.05
3.95767	100.06
3.97433	100.06
3.99100	100.06

[Status Trace (Carrier Gas Pressure)]
Interval(msec)	1000
# of Points	240
Start Time(min)	0.008
End Time(min)	3.991
Intensity Units	
Intensity Multiplier	1
R.Time (min)	Intensity
0.00767	58.00
0.02433	55.42
0.04100	57.18
0.05767	59.29
0.07433	59.29
0.09100	58.04
0.10767	57.99
0.12433	58.01
0.14100	58.01
0.15767	58.00
0.17433	58.00
0.19100	58.00
0.20767	58.00
0.22433	58.00
0.24100	58.00
0.25767	58.00
0.27433	58.00
0.29100	58.00
0.30767	58.00
0.32433	58.00
0.34100	58.00
0.35767	58.00
0.37433	58.00
0.39100	58.00
0.40767	58.00
0.42433	58.00
0.44100	58.00
0.45767	58.00
0.47433	58.00
0.49100	58.00
0.50767	58.00
0.52433	58.00
0.54100	58.00
0.55767	58.00
0.57433	58.00
0.59100	58.00
0.60767	58.00
0.62433	58.00
0.64100	58.00
0.65767	58.00
0.67433	58.00
0.69100	58.00
0.70767	58.00
0.72433	58.00
0.74100	58.00
0.75767	58.00
0.77433	58.00
0.79100	58.00
0.80767	58.00
0.82433	58.00
0.84100	58.00
0.85767	58.00
0.87433	58.00
0.89100	58.00
0.90767	58.00
0.92433	58.00
0.94100	58.00
0.95767	58.00
0.97433	58.00
0.99100	58.00
1.00767	58.00
1.02433	58.00
1.04100	58.00
1.05767	58.00
1.07433	58.00
1.09100	58.00
1.10767	58.00
1.12433	58.00
1.14100	58.00
1.15767	58.00
1.17433	58.00
1.19100	58.00
1.20767	58.00
1.22433	58.00
1.24100	58.00
1.25767	58.00
1.27433	58.00
1.29100	58.00
1.30767	58.00
1.32433	58.00
1.34100	58.00
1.35767	58.00
1.37433	58.00
1.39100	58.00
1.40767	58.00
1.42433	58.00
1.44100	58.00
1.45767	58.00
1.47433	58.00
1.49100	58.00
1.50767	58.00
1.52433	58.00
1.54100	58.00
1.55767	58.00
1.57433	58.00
1.59100	58.00
1.60767	58.00
1.62433	58.00
1.64100	58.00
1.65767	58.00
1.67433	58.01
1.69100	58.00
1.70767	58.00
1.72433	58.00
1.74100	58.00
1.75767	58.00
1.77433	58.00
1.79100	58.00
1.80767	58.00
1.82433	58.00
1.84100	58.00
1.85767	58.00
1.87433	58.00
1.89100	58.00
1.90767	58.00
1.92433	58.00
1.94100	58.00
1.95767	58.00
1.97433	58.00
1.99100	58.00
2.00767	58.00
2.02433	58.00
2.04100	58.00
2.05767	58.00
2.07433	58.00
2.09100	58.00
2.10767	58.00
2.12433	58.00
2.14100	58.00
2.15767	58.00
2.17433	58.00
2.19100	58.00
2.20767	58.00
2.22433	58.00
2.24100	58.00
2.25767	58.00
2.27433	58.00
2.29100	58.00
2.30767	58.00
2.32433	58.00
2.34100	58.00
2.35767	58.00
2.37433	58.00
2.39100	57.99
2.40767	57.99
2.42433	58.00
2.44100	58.00
2.45767	58.00
2.47433	58.00
2.49100	58.00
2.50767	57.99
2.52433	57.98
2.54100	58.00
2.55767	58.00
2.57433	58.00
2.59100	58.00
2.60767	58.00
2.62433	58.00
2.64100	58.00
2.65767	58.00
2.67433	58.00
2.69100	58.00
2.70767	58.00
2.72433	58.00
2.74100	58.00
2.75767	58.00
2.77433	58.00
2.79100	58.00
2.80767	58.00
2.82433	58.00
2.84100	58.00
2.85767	58.00
2.87433	58.00
2.89100	58.00
2.90767	58.00
2.92433	58.00
2.94100	58.00
2.95767	58.00
2.97433	58.00
2.99100	58.00
3.00767	58.00
3.02433	58.00
3.04100	58.00
3.05767	58.00
3.07433	58.00
3.09100	58.00
3.10767	58.00
3.12433	58.00
3.14100	58.00
3.15767	58.00
3.17433	58.00
3.19100	58.00
3.20767	58.00
3.22433	58.00
3.24100	58.00
3.25767	58.00
3.27433	58.00
3.29100	58.00
3.30767	58.00
3.32433	58.00
3.34100	58.00
3.35767	58.00
3.37433	58.00
3.39100	58.00
3.40767	58.00
3.42433	58.00
3.44100	58.00
3.45767	58.00
3.47433	58.00
3.49100	58.00
3.50767	58.00
3.52433	58.00
3.54100	58.00
3.55767	58.00
3.57433	58.00
3.59100	58.00
3.60767	58.00
3.62433	58.00
3.64100	58.00
3.65767	58.00
3.67433	58.00
3.69100	58.00
3.70767	58.00
3.72433	58.00
3.74100	58.00
3.75767	58.00
3.77433	58.00
3.79100	58.00
3.80767	58.00
3.82433	58.00
3.84100	58.00
3.85767	58.00
3.87433	58.00
3.89100	58.00
3.90767	58.00
3.92433	58.00
3.94100	58.00
3.95767	58.00
3.97433	58.00
3.99100	58.00

[Status Trace (Carrier Gas Flow)]
Interval(msec)	1000
# of Points	240
Start Time(min)	0.008
End Time(min)	3.991
Intensity Units	
Intensity Multiplier	1
R.Time (min)	Intensity
0.00767	34.52
0.02433	34.53
0.04100	34.55
0.05767	34.55
0.07433	34.50
0.09100	34.52
0.10767	34.52
0.12433	34.52
0.14100	34.52
0.15767	34.52
0.17433	34.52
0.19100	34.52
0.20767	34.52
0.22433	34.52
0.24100	34.52
0.25767	34.52
0.27433	34.52
0.29100	34.52
0.30767	34.52
0.32433	34.52
0.34100	34.52
0.35767	34.52
0.37433	34.52
0.39100	34.52
0.40767	34.52
0.42433	34.52
0.44100	34.52
0.45767	34.52
0.47433	34.52
0.49100	34.52
0.50767	34.52
0.52433	34.52
0.54100	34.52
0.55767	34.51
0.57433	34.52
0.59100	34.52
0.60767	34.51
0.62433	34.51
0.64100	34.52
0.65767	34.52
0.67433	34.52
0.69100	34.52
0.70767	34.52
0.72433	34.52
0.74100	34.51
0.75767	34.52
0.77433	34.52
0.79100	34.52
0.80767	34.52
0.82433	34.52
0.84100	34.52
0.85767	34.51
0.87433	34.52
0.89100	34.53
0.90767	34.53
0.92433	34.52
0.94100	34.52
0.95767	34.52
0.97433	34.52
0.99100	34.52
1.00767	34.52
1.02433	34.52
1.04100	34.52
1.05767	34.52
1.07433	34.52
1.09100	34.51
1.10767	34.52
1.12433	34.52
1.14100	34.52
1.15767	34.52
1.17433	34.52
1.19100	34.52
1.20767	34.52
1.22433	34.52
1.24100	34.52
1.25767	34.52
1.27433	34.52
1.29100	34.51
1.30767	34.52
1.32433	34.52
1.34100	34.52
1.35767	34.52
1.37433	34.52
1.39100	34.52
1.40767	34.52
1.42433	34.53
1.44100	34.52
1.45767	34.52
1.47433	34.52
1.49100	34.52
1.50767	34.52
1.52433	34.52
1.54100	34.52
1.55767	34.52
1.57433	34.52
1.59100	34.51
1.60767	34.52
1.62433	34.52
1.64100	34.52
1.65767	34.52
1.67433	34.52
1.69100	34.52
1.70767	34.52
1.72433	34.52
1.74100	34.52
1.75767	34.52
1.77433	34.52
1.79100	34.52
1.80767	34.52
1.82433	34.52
1.84100	34.52
1.85767	34.52
1.87433	34.52
1.89100	34.52
1.90767	34.52
1.92433	34.52
1.94100	34.52
1.95767	34.52
1.97433	34.52
1.99100	34.52
2.00767	34.51
2.02433	34.52
2.04100	34.52
2.05767	34.52
2.07433	34.52
2.09100	34.52
2.10767	34.52
2.12433	34.52
2.14100	34.52
2.15767	34.52
2.17433	34.52
2.19100	34.52
2.20767	34.52
2.22433	34.52
2.24100	34.52
2.25767	34.52
2.27433	34.52
2.29100	34.52
2.30767	34.52
2.32433	34.52
2.34100	34.52
2.35767	34.52
2.37433	34.52
2.39100	34.52
2.40767	34.52
2.42433	34.52
2.44100	34.52
2.45767	34.52
2.47433	34.52
2.49100	34.52
2.50767	34.33
2.52433	34.52
2.54100	34.52
2.55767	34.52
2.57433	34.51
2.59100	34.52
2.60767	34.52
2.62433	34.52
2.64100	34.52
2.65767	34.51
2.67433	34.52
2.69100	34.52
2.70767	34.52
2.72433	34.52
2.74100	34.52
2.75767	34.52
2.77433	34.51
2.79100	34.52
2.80767	34.52
2.82433	34.52
2.84100	34.52
2.85767	34.51
2.87433	34.52
2.89100	34.52
2.90767	34.52
2.92433	34.51
2.94100	34.51
2.95767	34.52
2.97433	34.52
2.99100	34.51
3.00767	34.52
3.02433	34.52
3.04100	34.52
3.05767	34.52
3.07433	34.52
3.09100	34.52
3.10767	34.51
3.12433	34.51
3.14100	34.52
3.15767	34.52
3.17433	34.52
3.19100	34.52
3.20767	34.52
3.22433	34.52
3.24100	34.52
3.25767	34.52
3.27433	34.51
3.29100	34.52
3.30767	34.52
3.32433	34.52
3.34100	34.51
3.35767	34.52
3.37433	34.52
3.39100	34.52
3.40767	34.52
3.42433	34.52
3.44100	34.52
3.45767	34.52
3.47433	34.52
3.49100	34.52
3.50767	34.52
3.52433	34.52
3.54100	34.52
3.55767	34.52
3.57433	34.52
3.59100	34.52
3.60767	34.52
3.62433	34.52
3.64100	34.52
3.65767	34.51
3.67433	34.52
3.69100	34.52
3.70767	34.51
3.72433	34.52
3.74100	34.52
3.75767	34.52
3.77433	34.52
3.79100	34.52
3.80767	34.52
3.82433	34.51
3.84100	34.52
3.85767	34.52
3.87433	34.52
3.89100	34.52
3.90767	34.52
3.92433	34.52
3.94100	34.52
3.95767	34.51
3.97433	34.52
3.99100	34.53

[Status Trace (Column Flow)]
Interval(msec)	1000
# of Points	240
Start Time(min)	0.008
End Time(min)	3.991
Intensity Units	
Intensity Multiplier	1
R.Time (min)	Intensity
0.00767	5.51
0.02433	5.21
0.04100	5.42
0.05767	5.66
0.07433	5.66
0.09100	5.52
0.10767	5.51
0.12433	5.51
0.14100	5.51
0.15767	5.51
0.17433	5.51
0.19100	5.51
0.20767	5.51
0.22433	5.51
0.24100	5.51
0.25767	5.51
0.27433	5.51
0.29100	5.51
0.30767	5.51
0.32433	5.51
0.34100	5.51
0.35767	5.51
0.37433	5.51
0.39100	5.51
0.40767	5.51
0.42433	5.51
0.44100	5.51
0.45767	5.51
0.47433	5.51
0.49100	5.51
0.50767	5.51
0.52433	5.51
0.54100	5.51
0.55767	5.51
0.57433	5.51
0.59100	5.51
0.60767	5.51
0.62433	5.51
0.64100	5.51
0.65767	5.51
0.67433	5.51
0.69100	5.51
0.70767	5.51
0.72433	5.51
0.74100	5.51
0.75767	5.51
0.77433	5.51
0.79100	5.51
0.80767	5.51
0.82433	5.51
0.84100	5.51
0.85767	5.51
0.87433	5.51
0.89100	5.51
0.90767	5.51
0.92433	5.51
0.94100	5.51
0.95767	5.51
0.97433	5.51
0.99100	5.51
1.00767	5.51
1.02433	5.51
1.04100	5.51
1.05767	5.51
1.07433	5.51
1.09100	5.51
1.10767	5.51
1.12433	5.51
1.14100	5.51
1.15767	5.51
1.17433	5.51
1.19100	5.51
1.20767	5.51
1.22433	5.51
1.24100	5.51
1.25767	5.51
1.27433	5.51
1.29100	5.51
1.30767	5.51
1.32433	5.51
1.34100	5.51
1.35767	5.51
1.37433	5.51
1.39100	5.51
1.40767	5.51
1.42433	5.51
1.44100	5.51
1.45767	5.51
1.47433	5.51
1.49100	5.51
1.50767	5.51
1.52433	5.51
1.54100	5.51
1.55767	5.51
1.57433	5.51
1.59100	5.51
1.60767	5.51
1.62433	5.51
1.64100	5.50
1.65767	5.49
1.67433	5.48
1.69100	5.47
1.70767	5.46
1.72433	5.45
1.74100	5.44
1.75767	5.43
1.77433	5.42
1.79100	5.41
1.80767	5.40
1.82433	5.39
1.84100	5.38
1.85767	5.37
1.87433	5.36
1.89100	5.35
1.90767	5.34
1.92433	5.33
1.94100	5.32
1.95767	5.31
1.97433	5.30
1.99100	5.29
2.00767	5.28
2.02433	5.27
2.04100	5.26
2.05767	5.25
2.07433	5.24
2.09100	5.23
2.10767	5.23
2.12433	5.22
2.14100	5.21
2.15767	5.20
2.17433	5.19
2.19100	5.18
2.20767	5.17
2.22433	5.16
2.24100	5.15
2.25767	5.14
2.27433	5.13
2.29100	5.12
2.30767	5.11
2.32433	5.10
2.34100	5.09
2.35767	5.09
2.37433	5.08
2.39100	5.08
2.40767	5.08
2.42433	5.08
2.44100	5.08
2.45767	5.08
2.47433	5.08
2.49100	5.08
2.50767	5.08
2.52433	5.08
2.54100	5.08
2.55767	5.08
2.57433	5.08
2.59100	5.08
2.60767	5.08
2.62433	5.08
2.64100	5.08
2.65767	5.08
2.67433	5.08
2.69100	5.08
2.70767	5.07
2.72433	5.07
2.74100	5.07
2.75767	5.07
2.77433	5.07
2.79100	5.07
2.80767	5.07
2.82433	5.07
2.84100	5.07
2.85767	5.07
2.87433	5.07
2.89100	5.07
2.90767	5.07
2.92433	5.07
2.94100	5.07
2.95767	5.07
2.97433	5.07
2.99100	5.07
3.00767	5.07
3.02433	5.07
3.04100	5.07
3.05767	5.07
3.07433	5.07
3.09100	5.07
3.10767	5.07
3.12433	5.07
3.14100	5.07
3.15767	5.07
3.17433	5.07
3.19100	5.07
3.20767	5.07
3.22433	5.07
3.24100	5.07
3.25767	5.07
3.27433	5.07
3.29100	5.07
3.30767	5.07
3.32433	5.07
3.34100	5.07
3.35767	5.07
3.37433	5.07
3.39100	5.07
3.40767	5.07
3.42433	5.07
3.44100	5.07
3.45767	5.07
3.47433	5.07
3.49100	5.07
3.50767	5.07
3.52433	5.07
3.54100	5.07
3.55767	5.07
3.57433	5.07
3.59100	5.07
3.60767	5.07
3.62433	5.07
3.64100	5.07
3.65767	5.07
3.67433	5.07
3.69100	5.07
3.70767	5.07
3.72433	5.07
3.74100	5.07
3.75767	5.07
3.77433	5.07
3.79100	5.07
3.80767	5.07
3.82433	5.07
3.84100	5.07
3.85767	5.07
3.87433	5.07
3.89100	5.07
3.90767	5.07
3.92433	5.07
3.94100	5.07
3.95767	5.07
3.97433	5.07
3.99100	5.07

[Status Trace (Linear Velocity)]
Interval(msec)	1000
# of Points	240
Start Time(min)	0.008
End Time(min)	3.991
Intensity Units	
Intensity Multiplier	1
R.Time (min)	Intensity
0.00767	39.01
0.02433	37.32
0.04100	38.47
0.05767	39.85
0.07433	39.86
0.09100	39.04
0.10767	39.00
0.12433	39.02
0.14100	39.02
0.15767	39.01
0.17433	39.01
0.19100	39.01
0.20767	39.01
0.22433	39.01
0.24100	39.01
0.25767	39.01
0.27433	39.01
0.29100	39.01
0.30767	39.01
0.32433	39.01
0.34100	39.01
0.35767	39.01
0.37433	39.01
0.39100	39.01
0.40767	39.01
0.42433	39.01
0.44100	39.01
0.45767	39.01
0.47433	39.01
0.49100	39.01
0.50767	39.01
0.52433	39.01
0.54100	39.01
0.55767	39.01
0.57433	39.01
0.59100	39.01
0.60767	39.01
0.62433	39.01
0.64100	39.01
0.65767	39.01
0.67433	39.02
0.69100	39.02
0.70767	39.02
0.72433	39.02
0.74100	39.01
0.75767	39.01
0.77433	39.01
0.79100	39.01
0.80767	39.01
0.82433	39.02
0.84100	39.01
0.85767	39.02
0.87433	39.02
0.89100	39.01
0.90767	39.01
0.92433	39.01
0.94100	39.01
0.95767	39.01
0.97433	39.01
0.99100	39.01
1.00767	39.01
1.02433	39.02
1.04100	39.02
1.05767	39.02
1.07433	39.02
1.09100	39.02
1.10767	39.02
1.12433	39.02
1.14100	39.02
1.15767	39.02
1.17433	39.02
1.19100	39.02
1.20767	39.02
1.22433	39.02
1.24100	39.01
1.25767	39.02
1.27433	39.02
1.29100	39.02
1.30767	39.01
1.32433	39.01
1.34100	39.02
1.35767	39.01
1.37433	39.01
1.39100	39.01
1.40767	39.01
1.42433	39.01
1.44100	39.01
1.45767	39.01
1.47433	39.01
1.49100	39.01
1.50767	39.01
1.52433	39.01
1.54100	39.01
1.55767	39.01
1.57433	39.01
1.59100	39.01
1.60767	39.01
1.62433	39.00
1.64100	38.98
1.65767	38.96
1.67433	38.93
1.69100	38.89
1.70767	38.86
1.72433	38.83
1.74100	38.79
1.75767	38.76
1.77433	38.73
1.79100	38.70
1.80767	38.67
1.82433	38.64
1.84100	38.61
1.85767	38.57
1.87433	38.54
1.89100	38.51
1.90767	38.48
1.92433	38.45
1.94100	38.42
1.95767	38.39
1.97433	38.36
1.99100	38.33
2.00767	38.30
2.02433	38.27
2.04100	38.24
2.05767	38.21
2.07433	38.18
2.09100	38.15
2.10767	38.12
2.12433	38.09
2.14100	38.06
2.15767	38.03
2.17433	38.01
2.19100	37.98
2.20767	37.94
2.22433	37.92
2.24100	37.89
2.25767	37.86
2.27433	37.83
2.29100	37.80
2.30767	37.77
2.32433	37.73
2.34100	37.71
2.35767	37.68
2.37433	37.66
2.39100	37.66
2.40767	37.66
2.42433	37.66
2.44100	37.66
2.45767	37.66
2.47433	37.66
2.49100	37.66
2.50767	37.65
2.52433	37.64
2.54100	37.65
2.55767	37.65
2.57433	37.65
2.59100	37.65
2.60767	37.65
2.62433	37.65
2.64100	37.65
2.65767	37.65
2.67433	37.65
2.69100	37.65
2.70767	37.65
2.72433	37.64
2.74100	37.64
2.75767	37.64
2.77433	37.64
2.79100	37.64
2.80767	37.64
2.82433	37.64
2.84100	37.64
2.85767	37.64
2.87433	37.64
2.89100	37.64
2.90767	37.64
2.92433	37.64
2.94100	37.64
2.95767	37.64
2.97433	37.64
2.99100	37.64
3.00767	37.64
3.02433	37.63
3.04100	37.63
3.05767	37.63
3.07433	37.63
3.09100	37.63
3.10767	37.63
3.12433	37.63
3.14100	37.63
3.15767	37.63
3.17433	37.63
3.19100	37.63
3.20767	37.63
3.22433	37.63
3.24100	37.63
3.25767	37.62
3.27433	37.62
3.29100	37.62
3.30767	37.62
3.32433	37.62
3.34100	37.62
3.35767	37.62
3.37433	37.62
3.39100	37.62
3.40767	37.62
3.42433	37.62
3.44100	37.62
3.45767	37.62
3.47433	37.62
3.49100	37.62
3.50767	37.62
3.52433	37.62
3.54100	37.62
3.55767	37.63
3.57433	37.63
3.59100	37.63
3.60767	37.63
3.62433	37.63
3.64100	37.63
3.65767	37.63
3.67433	37.62
3.69100	37.62
3.70767	37.63
3.72433	37.63
3.74100	37.63
3.75767	37.62
3.77433	37.62
3.79100	37.62
3.80767	37.62
3.82433	37.62
3.84100	37.62
3.85767	37.62
3.87433	37.62
3.89100	37.62
3.90767	37.62
3.92433	37.62
3.94100	37.63
3.95767	37.63
3.97433	37.63
3.99100	37.63

