[Header]
Application Name	LabSolutions
Version	5.110
Data File Name	C:\Users\User\Desktop\Junior\UIC Prairie Sampling\6.2.23\06022023_007.gcd
Output Date	6/12/2023
Output Time	11:47:08 AM

[File Information]
Type	Data File
Generated	6/5/2023 2:35:38 PM
Generated by	System Administrator
Modified	6/5/2023 2:43:06 PM
Modified by	System Administrator

[Sample Information]
Operator Name	System Administrator
Acquired	6/5/2023 2:39:06 PM
Sample Type	0:Unknown
Level	0
Sample Name	007
Sample ID	007
ISTD Amount1	1
ISTD Amount2	1
ISTD Amount3	1
ISTD Amount4	1
ISTD Amount5	1
ISTD Amount6	1
ISTD Amount7	1
ISTD Amount8	1
ISTD Amount9	1
ISTD Amount10	1
ISTD Amount11	1
ISTD Amount12	1
ISTD Amount13	1
ISTD Amount14	1
ISTD Amount15	1
ISTD Amount16	1
ISTD Amount17	1
ISTD Amount18	1
ISTD Amount19	1
ISTD Amount20	1
ISTD Amount21	1
ISTD Amount22	1
ISTD Amount23	1
ISTD Amount24	1
ISTD Amount25	1
ISTD Amount26	1
ISTD Amount27	1
ISTD Amount28	1
ISTD Amount29	1
ISTD Amount30	1
ISTD Amount31	1
ISTD Amount32	1
Sample Amount	1
Dilution Factor	1
Vial#	6
Injection Volume	1
Injection Count	1
Bar Code	

[Original Files]
Data File	C:\Users\User\Desktop\Junior\UIC Prairie Sampling\6.2.23\06022023_007.gcd
Method File	C:\LabSolutions\Data\GHG_4min_2022\ghg3_togas_w_acet_4 min_new_int.gcm
Batch File	C:\LabSolutions\Data\AutoSamplerTesting\06022023.gcb
Report Format File	c:\LabSolutions\System\DEFAULT.lsr

[File Description]


[Configuration]
Instrument Name	C0B7VH3-Instrument1
Instrument #	1
Line #	1
# of Detectors	3
Detector ID	DET#1	DET#2	DET#3
Detector Name	FID	PTCD	ECD
# of Channels	1	1	1

[Peak Table(Ch1)]
# of Peaks	3
Peak#	R.Time	I.Time	F.Time	Area	Height	A/H	Conc.	Mark	ID#	Name	k'	Plate #	Plate Ht.	Tailing	Resolution	Sep.Factor	Area Ratio	Height Ratio	Conc. %	Norm Conc.
1	1.472	1.424	1.523	6057	2949	2.054	0.000	   	1	CO	0.000	9409	15.942	1.085	0.000	0.000	0	0	0.000	0.000
2	1.564	1.531	1.615	4494	2320	1.937	21.910	   	2	CH4	0.062	11778	12.736	1.099	1.549	0.000	0	0	9.586	9.586
3	1.989	1.941	2.304	1072274	519782	2.063	206.647	   	3	CO2	0.351	17379	8.631	1.253	7.210	5.640	0	0	90.414	90.414

[Peak Table(Ch2)]
# of Peaks	0

[Peak Table(Ch3)]
# of Peaks	5
Peak#	R.Time	I.Time	F.Time	Area	Height	A/H	Conc.	Mark	ID#	Name	k'	Plate #	Plate Ht.	Tailing	Resolution	Sep.Factor	Area Ratio	Height Ratio	Conc. %	Norm Conc.
1	2.458	2.400	2.495	634	272	2.326	0.000	   			0.000	20369	7.364	0.000	0.000	0.000	0	0	0.000	0.000
2	2.506	2.495	2.543	216	119	1.812	0.000	 V 			0.019	8355	17.954	0.000	0.534	0.000	0	0	0.000	0.000
3	2.598	2.568	2.634	156	66	2.369	0.000	   			0.057	26019	5.765	1.118	1.053	2.923	0	0	0.000	0.000
4	2.774	2.726	2.825	178	45	3.980	0.003	   	1	N2O	0.128	10161	14.763	0.000	2.017	2.263	0	0	0.652	0.652
5	2.891	2.825	3.632	27129	4687	5.789	0.401	 V 	1	N2O	0.176	12520	11.981	4.975	1.100	1.372	0	0	99.348	99.348

[Compound Results(Ch1)]
# of IDs	6
ID#	Name	R.Time	Area	Height	Conc.	Curve	3rd	2nd	1st	Constant	Area Ratio	Height Ratio	Conc. %	Norm Conc.
1	CO	1.472	6057	2949	0.000	Linear	0.000000e+00	0.000000e+00	0.000000e+00	0.000000e+00	0	0	0.000	0.000
2	CH4	1.564	4494	2320	21.910	Linear	0.000000e+00	0.000000e+00	2.051179e+002	0.000000e+00	0	0	9.586	9.586
3	CO2	1.989	1072274	519782	206.647	Linear	0.000000e+00	0.000000e+00	5.188919e+003	0.000000e+00	0	0	90.414	90.414
4	Ethylene	0.000	0	0	0.000	Linear	0.000000e+00	0.000000e+00	0.000000e+00	0.000000e+00	0	0	0.000	0.000
5	Acetylene	0.000	0	0	0.000	Linear	0.000000e+00	0.000000e+00	0.000000e+00	0.000000e+00	0	0	0.000	0.000
6	Ethane	0.000	0	0	0.000	Linear	0.000000e+00	0.000000e+00	0.000000e+00	0.000000e+00	0	0	0.000	0.000

[Compound Results(Ch2)]
# of IDs	5
ID#	Name	R.Time	Area	Height	Conc.	Curve	3rd	2nd	1st	Constant	Area Ratio	Height Ratio	Conc. %	Norm Conc.
1	Hydrogen	0.000	0	0	0.000	Linear	0.000000e+00	0.000000e+00	0.000000e+00	0.000000e+00	0	0	0.000	0.000
2	Oxygen	0.000	0	0	0.000	Linear	0.000000e+00	0.000000e+00	0.000000e+00	0.000000e+00	0	0	0.000	0.000
3	Nitrogen	0.000	0	0	0.000	Linear	0.000000e+00	0.000000e+00	0.000000e+00	0.000000e+00	0	0	0.000	0.000
4	Methane	0.000	0	0	0.000	Linear	0.000000e+00	0.000000e+00	0.000000e+00	0.000000e+00	0	0	0.000	0.000
5	Carbon Monoxide	0.000	0	0	0.000	Linear	0.000000e+00	0.000000e+00	0.000000e+00	0.000000e+00	0	0	0.000	0.000

[Compound Results(Ch3)]
# of IDs	2
ID#	Name	R.Time	Area	Height	Conc.	Curve	3rd	2nd	1st	Constant	Area Ratio	Height Ratio	Conc. %	Norm Conc.
1	N2O	2.891	27307	4731	0.404	Linear	0.000000e+00	0.000000e+00	6.759880e+004	0.000000e+00	0	0	100.000	100.000
2	SF6	0.000	0	0	0.000	Linear	0.000000e+00	0.000000e+00	0.000000e+00	0.000000e+00	0	0	0.000	0.000

[Group Results(Ch1)]
# of Groups	0

[Group Results(Ch2)]
# of Groups	0

[Group Results(Ch3)]
# of Groups	0

[Chromatogram (Ch1)]
Interval(msec)	220
# of Points	1091
Start Time(min)	0.002
End Time(min)	3.998
R.Time (min)	Intensity
0.00167	24
0.00533	26
0.00900	23
0.01267	18
0.01633	10
0.02000	-0
0.02367	-7
0.02733	-6
0.03100	2
0.03467	11
0.03833	18
0.04200	20
0.04567	21
0.04933	21
0.05300	20
0.05667	22
0.06033	28
0.06400	35
0.06767	35
0.07133	26
0.07500	13
0.07867	-0
0.08233	-10
0.08600	-16
0.08967	-18
0.09333	-17
0.09700	-13
0.10067	-7
0.10433	-5
0.10800	-6
0.11167	-5
0.11533	-4
0.11900	-2
0.12267	-2
0.12633	-6
0.13000	-9
0.13367	-8
0.13733	-4
0.14100	-0
0.14467	1
0.14833	2
0.15200	2
0.15567	2
0.15933	3
0.16300	7
0.16667	15
0.17033	20
0.17400	19
0.17767	14
0.18133	9
0.18500	4
0.18867	-2
0.19233	-4
0.19600	-5
0.19967	-6
0.20333	-4
0.20700	-1
0.21067	2
0.21433	2
0.21800	2
0.22167	2
0.22533	-0
0.22900	-6
0.23267	-12
0.23633	-14
0.24000	-15
0.24367	-14
0.24733	-15
0.25100	-14
0.25467	-13
0.25833	-9
0.26200	-7
0.26567	-9
0.26933	-9
0.27300	-6
0.27667	0
0.28033	6
0.28400	10
0.28767	11
0.29133	11
0.29500	10
0.29867	8
0.30233	5
0.30600	3
0.30967	0
0.31333	-3
0.31700	-7
0.32067	-15
0.32433	-24
0.32800	-31
0.33167	-32
0.33533	-28
0.33900	-24
0.34267	-20
0.34633	-17
0.35000	-16
0.35367	-12
0.35733	-5
0.36100	-1
0.36467	-1
0.36833	-4
0.37200	-7
0.37567	-8
0.37933	-7
0.38300	-7
0.38667	-10
0.39033	-10
0.39400	-12
0.39767	-17
0.40133	-23
0.40500	-28
0.40867	-25
0.41233	-15
0.41600	-7
0.41967	-3
0.42333	2
0.42700	9
0.43067	15
0.43433	12
0.43800	3
0.44167	-11
0.44533	-26
0.44900	-35
0.45267	-38
0.45633	-35
0.46000	-29
0.46367	-21
0.46733	-15
0.47100	-13
0.47467	-12
0.47833	-13
0.48200	-15
0.48567	-20
0.48933	-26
0.49300	-30
0.49667	-31
0.50033	-28
0.50400	-20
0.50767	-10
0.51133	-2
0.51500	1
0.51867	-0
0.52233	-2
0.52600	-3
0.52967	-4
0.53333	-4
0.53700	-3
0.54067	-5
0.54433	-8
0.54800	-11
0.55167	-13
0.55533	-20
0.55900	-28
0.56267	-33
0.56633	-35
0.57000	-38
0.57367	-41
0.57733	-41
0.58100	-38
0.58467	-30
0.58833	-22
0.59200	-17
0.59567	-18
0.59933	-21
0.60300	-24
0.60667	-25
0.61033	-26
0.61400	-26
0.61767	-28
0.62133	-29
0.62500	-28
0.62867	-24
0.63233	-21
0.63600	-18
0.63967	-13
0.64333	-7
0.64700	1
0.65067	6
0.65433	7
0.65800	2
0.66167	-6
0.66533	-15
0.66900	-24
0.67267	-31
0.67633	-36
0.68000	-40
0.68367	-44
0.68733	-46
0.69100	-45
0.69467	-40
0.69833	-36
0.70200	-38
0.70567	-41
0.70933	-44
0.71300	-41
0.71667	-35
0.72033	-30
0.72400	-28
0.72767	-30
0.73133	-34
0.73500	-35
0.73867	-35
0.74233	-33
0.74600	-31
0.74967	-30
0.75333	-29
0.75700	-24
0.76067	-19
0.76433	-18
0.76800	-23
0.77167	-33
0.77533	-43
0.77900	-50
0.78267	-54
0.78633	-55
0.79000	-54
0.79367	-53
0.79733	-49
0.80100	-43
0.80467	-34
0.80833	-23
0.81200	-17
0.81567	-16
0.81933	-20
0.82300	-22
0.82667	-19
0.83033	-16
0.83400	-15
0.83767	-18
0.84133	-26
0.84500	-37
0.84867	-45
0.85233	-50
0.85600	-51
0.85967	-48
0.86333	-39
0.86700	-29
0.87067	-23
0.87433	-22
0.87800	-27
0.88167	-38
0.88533	-52
0.88900	-62
0.89267	-66
0.89633	-67
0.90000	-64
0.90367	-58
0.90733	-56
0.91100	-57
0.91467	-58
0.91833	-55
0.92200	-54
0.92567	-53
0.92933	-51
0.93300	-47
0.93667	-43
0.94033	-44
0.94400	-47
0.94767	-51
0.95133	-56
0.95500	-60
0.95867	-59
0.96233	-57
0.96600	-56
0.96967	-52
0.97333	-45
0.97700	-36
0.98067	-31
0.98433	-33
0.98800	-40
0.99167	-46
0.99533	-47
0.99900	-45
1.00267	-42
1.00633	-44
1.01000	-50
1.01367	-57
1.01733	-63
1.02100	-63
1.02467	-56
1.02833	-50
1.03200	-46
1.03567	-43
1.03933	-43
1.04300	-45
1.04667	-51
1.05033	-58
1.05400	-62
1.05767	-62
1.06133	-60
1.06500	-60
1.06867	-62
1.07233	-62
1.07600	-57
1.07967	-52
1.08333	-50
1.08700	-53
1.09067	-57
1.09433	-60
1.09800	-63
1.10167	-65
1.10533	-64
1.10900	-61
1.11267	-58
1.11633	-54
1.12000	-53
1.12367	-52
1.12733	-50
1.13100	-50
1.13467	-53
1.13833	-53
1.14200	-50
1.14567	-47
1.14933	-46
1.15300	-46
1.15667	-47
1.16033	-50
1.16400	-54
1.16767	-55
1.17133	-54
1.17500	-51
1.17867	-51
1.18233	-55
1.18600	-60
1.18967	-66
1.19333	-70
1.19700	-70
1.20067	-67
1.20433	-62
1.20800	-56
1.21167	-52
1.21533	-52
1.21900	-57
1.22267	-66
1.22633	-75
1.23000	-80
1.23367	-81
1.23733	-78
1.24100	-73
1.24467	-69
1.24833	-67
1.25200	-71
1.25567	-74
1.25933	-76
1.26300	-78
1.26667	-74
1.27033	-69
1.27400	-65
1.27767	-63
1.28133	-65
1.28500	-70
1.28867	-74
1.29233	-75
1.29600	-75
1.29967	-78
1.30333	-81
1.30700	-83
1.31067	-81
1.31433	-78
1.31800	-76
1.32167	-77
1.32533	-79
1.32900	-76
1.33267	-72
1.33633	-67
1.34000	-62
1.34367	-56
1.34733	-52
1.35100	-50
1.35467	-51
1.35833	-54
1.36200	-61
1.36567	-65
1.36933	-65
1.37300	-63
1.37667	-67
1.38033	-75
1.38400	-79
1.38767	-77
1.39133	-69
1.39500	-62
1.39867	-63
1.40233	-69
1.40600	-78
1.40967	-88
1.41333	-95
1.41700	-97
1.42067	-96
1.42433	-92
1.42800	-89
1.43167	-82
1.43533	-58
1.43900	-3
1.44267	96
1.44633	309
1.45000	716
1.45367	1261
1.45733	1815
1.46100	2285
1.46467	2637
1.46833	2841
1.47200	2858
1.47567	2669
1.47933	2304
1.48300	1849
1.48667	1391
1.49033	990
1.49400	668
1.49767	428
1.50133	255
1.50500	131
1.50867	43
1.51233	-16
1.51600	-52
1.51967	-74
1.52333	-90
1.52700	-100
1.53067	-93
1.53433	-35
1.53800	136
1.54167	460
1.54533	900
1.54900	1362
1.55267	1763
1.55633	2061
1.56000	2229
1.56367	2233
1.56733	2058
1.57100	1738
1.57467	1351
1.57833	978
1.58200	664
1.58567	422
1.58933	246
1.59300	125
1.59667	45
1.60033	-8
1.60400	-41
1.60767	-60
1.61133	-71
1.61500	-77
1.61867	-80
1.62233	-81
1.62600	-81
1.62967	-78
1.63333	-79
1.63700	-84
1.64067	-89
1.64433	-95
1.64800	-100
1.65167	-106
1.65533	-113
1.65900	-119
1.66267	-118
1.66633	-112
1.67000	-108
1.67367	-108
1.67733	-113
1.68100	-119
1.68467	-127
1.68833	-131
1.69200	-127
1.69567	-119
1.69933	-115
1.70300	-113
1.70667	-114
1.71033	-120
1.71400	-126
1.71767	-125
1.72133	-115
1.72500	-104
1.72867	-98
1.73233	-98
1.73600	-103
1.73967	-113
1.74333	-125
1.74700	-136
1.75067	-143
1.75433	-146
1.75800	-146
1.76167	-139
1.76533	-131
1.76900	-128
1.77267	-129
1.77633	-132
1.78000	-136
1.78367	-136
1.78733	-133
1.79100	-130
1.79467	-131
1.79833	-132
1.80200	-129
1.80567	-120
1.80933	-111
1.81300	-105
1.81667	-103
1.82033	-104
1.82400	-108
1.82767	-113
1.83133	-118
1.83500	-120
1.83867	-120
1.84233	-115
1.84600	-108
1.84967	-105
1.85333	-104
1.85700	-103
1.86067	-102
1.86433	-105
1.86800	-110
1.87167	-113
1.87533	-113
1.87900	-111
1.88267	-107
1.88633	-108
1.89000	-110
1.89367	-110
1.89733	-104
1.90100	-98
1.90467	-93
1.90833	-89
1.91200	-88
1.91567	-91
1.91933	-95
1.92300	-95
1.92667	-95
1.93033	-96
1.93400	-96
1.93767	-95
1.94133	-92
1.94500	-74
1.94867	44
1.95233	711
1.95600	3649
1.95967	13399
1.96333	38122
1.96700	86772
1.97067	162304
1.97433	257095
1.97800	355382
1.98167	440184
1.98533	497754
1.98900	519726
1.99267	503745
1.99633	454550
2.00000	383407
2.00367	304559
2.00733	230184
2.01100	167480
2.01467	118705
2.01833	82864
2.02200	57537
2.02567	40096
2.02933	28265
2.03300	20297
2.03667	14930
2.04033	11288
2.04400	8785
2.04767	7033
2.05133	5775
2.05500	4848
2.05867	4153
2.06233	3621
2.06600	3201
2.06967	2860
2.07333	2575
2.07700	2333
2.08067	2127
2.08433	1949
2.08800	1797
2.09167	1667
2.09533	1557
2.09900	1464
2.10267	1377
2.10633	1296
2.11000	1221
2.11367	1152
2.11733	1089
2.12100	1033
2.12467	980
2.12833	931
2.13200	885
2.13567	843
2.13933	806
2.14300	772
2.14667	741
2.15033	712
2.15400	685
2.15767	659
2.16133	634
2.16500	610
2.16867	590
2.17233	573
2.17600	556
2.17967	540
2.18333	524
2.18700	512
2.19067	503
2.19433	493
2.19800	481
2.20167	467
2.20533	449
2.20900	427
2.21267	405
2.21633	385
2.22000	367
2.22367	351
2.22733	340
2.23100	331
2.23467	319
2.23833	305
2.24200	290
2.24567	280
2.24933	276
2.25300	274
2.25667	272
2.26033	269
2.26400	267
2.26767	266
2.27133	264
2.27500	261
2.27867	253
2.28233	242
2.28600	226
2.28967	213
2.29333	202
2.29700	192
2.30067	184
2.30433	180
2.30800	180
2.31167	182
2.31533	187
2.31900	189
2.32267	191
2.32633	189
2.33000	186
2.33367	184
2.33733	182
2.34100	178
2.34467	174
2.34833	169
2.35200	163
2.35567	155
2.35933	147
2.36300	142
2.36667	138
2.37033	138
2.37400	140
2.37767	144
2.38133	148
2.38500	148
2.38867	147
2.39233	145
2.39600	140
2.39967	134
2.40333	126
2.40700	119
2.41067	113
2.41433	113
2.41800	121
2.42167	133
2.42533	143
2.42900	146
2.43267	139
2.43633	125
2.44000	111
2.44367	102
2.44733	100
2.45100	102
2.45467	105
2.45833	107
2.46200	105
2.46567	101
2.46933	99
2.47300	99
2.47667	99
2.48033	95
2.48400	92
2.48767	92
2.49133	96
2.49500	102
2.49867	109
2.50233	115
2.50600	113
2.50967	104
2.51333	96
2.51700	92
2.52067	93
2.52433	98
2.52800	101
2.53167	99
2.53533	97
2.53900	93
2.54267	86
2.54633	81
2.55000	81
2.55367	85
2.55733	89
2.56100	94
2.56467	95
2.56833	88
2.57200	75
2.57567	63
2.57933	56
2.58300	54
2.58667	57
2.59033	61
2.59400	62
2.59767	61
2.60133	60
2.60500	62
2.60867	70
2.61233	84
2.61600	96
2.61967	102
2.62333	104
2.62700	103
2.63067	96
2.63433	86
2.63800	77
2.64167	68
2.64533	59
2.64900	51
2.65267	45
2.65633	42
2.66000	41
2.66367	42
2.66733	44
2.67100	49
2.67467	55
2.67833	60
2.68200	63
2.68567	69
2.68933	77
2.69300	83
2.69667	85
2.70033	84
2.70400	82
2.70767	81
2.71133	80
2.71500	81
2.71867	84
2.72233	89
2.72600	90
2.72967	85
2.73333	79
2.73700	71
2.74067	65
2.74433	64
2.74800	64
2.75167	62
2.75533	58
2.75900	53
2.76267	50
2.76633	49
2.77000	51
2.77367	55
2.77733	59
2.78100	62
2.78467	65
2.78833	70
2.79200	79
2.79567	89
2.79933	96
2.80300	96
2.80667	89
2.81033	82
2.81400	76
2.81767	73
2.82133	71
2.82500	69
2.82867	65
2.83233	62
2.83600	58
2.83967	52
2.84333	44
2.84700	38
2.85067	35
2.85433	33
2.85800	31
2.86167	30
2.86533	35
2.86900	44
2.87267	50
2.87633	52
2.88000	48
2.88367	43
2.88733	42
2.89100	44
2.89467	49
2.89833	54
2.90200	56
2.90567	56
2.90933	60
2.91300	65
2.91667	66
2.92033	64
2.92400	60
2.92767	55
2.93133	55
2.93500	59
2.93867	66
2.94233	72
2.94600	74
2.94967	72
2.95333	68
2.95700	65
2.96067	67
2.96433	68
2.96800	65
2.97167	62
2.97533	62
2.97900	64
2.98267	67
2.98633	73
2.99000	80
2.99367	86
2.99733	92
3.00100	98
3.00467	100
3.00833	96
3.01200	90
3.01567	83
3.01933	76
3.02300	71
3.02667	68
3.03033	66
3.03400	66
3.03767	67
3.04133	66
3.04500	64
3.04867	63
3.05233	63
3.05600	66
3.05967	70
3.06333	71
3.06700	71
3.07067	70
3.07433	70
3.07800	69
3.08167	65
3.08533	59
3.08900	51
3.09267	47
3.09633	47
3.10000	49
3.10367	53
3.10733	58
3.11100	64
3.11467	70
3.11833	73
3.12200	71
3.12567	67
3.12933	63
3.13300	62
3.13667	62
3.14033	62
3.14400	61
3.14767	66
3.15133	71
3.15500	72
3.15867	68
3.16233	60
3.16600	54
3.16967	51
3.17333	51
3.17700	50
3.18067	49
3.18433	49
3.18800	53
3.19167	59
3.19533	61
3.19900	60
3.20267	56
3.20633	54
3.21000	53
3.21367	53
3.21733	54
3.22100	56
3.22467	56
3.22833	52
3.23200	49
3.23567	51
3.23933	56
3.24300	62
3.24667	65
3.25033	65
3.25400	64
3.25767	62
3.26133	61
3.26500	62
3.26867	64
3.27233	64
3.27600	61
3.27967	55
3.28333	48
3.28700	42
3.29067	39
3.29433	39
3.29800	38
3.30167	38
3.30533	41
3.30900	46
3.31267	50
3.31633	52
3.32000	55
3.32367	58
3.32733	60
3.33100	63
3.33467	64
3.33833	62
3.34200	61
3.34567	58
3.34933	53
3.35300	45
3.35667	38
3.36033	33
3.36400	32
3.36767	34
3.37133	35
3.37500	37
3.37867	38
3.38233	41
3.38600	44
3.38967	45
3.39333	46
3.39700	47
3.40067	50
3.40433	50
3.40800	46
3.41167	42
3.41533	42
3.41900	47
3.42267	52
3.42633	55
3.43000	52
3.43367	49
3.43733	47
3.44100	48
3.44467	50
3.44833	52
3.45200	49
3.45567	40
3.45933	26
3.46300	14
3.46667	7
3.47033	2
3.47400	-0
3.47767	0
3.48133	3
3.48500	5
3.48867	8
3.49233	11
3.49600	11
3.49967	9
3.50333	7
3.50700	7
3.51067	9
3.51433	16
3.51800	25
3.52167	35
3.52533	44
3.52900	48
3.53267	48
3.53633	48
3.54000	46
3.54367	44
3.54733	40
3.55100	34
3.55467	30
3.55833	23
3.56200	12
3.56567	2
3.56933	-4
3.57300	-4
3.57667	-1
3.58033	2
3.58400	4
3.58767	2
3.59133	1
3.59500	1
3.59867	7
3.60233	13
3.60600	17
3.60967	20
3.61333	25
3.61700	28
3.62067	26
3.62433	23
3.62800	18
3.63167	12
3.63533	9
3.63900	8
3.64267	9
3.64633	12
3.65000	17
3.65367	21
3.65733	26
3.66100	30
3.66467	30
3.66833	28
3.67200	25
3.67567	21
3.67933	16
3.68300	12
3.68667	9
3.69033	7
3.69400	10
3.69767	17
3.70133	24
3.70500	27
3.70867	27
3.71233	22
3.71600	12
3.71967	1
3.72333	-7
3.72700	-8
3.73067	-3
3.73433	1
3.73800	5
3.74167	9
3.74533	10
3.74900	9
3.75267	9
3.75633	9
3.76000	7
3.76367	1
3.76733	-3
3.77100	-5
3.77467	-4
3.77833	0
3.78200	5
3.78567	10
3.78933	11
3.79300	6
3.79667	-2
3.80033	-7
3.80400	-6
3.80767	-3
3.81133	-1
3.81500	-1
3.81867	-0
3.82233	0
3.82600	1
3.82967	-1
3.83333	-5
3.83700	-8
3.84067	-10
3.84433	-10
3.84800	-8
3.85167	-5
3.85533	-3
3.85900	-4
3.86267	-7
3.86633	-10
3.87000	-14
3.87367	-17
3.87733	-19
3.88100	-20
3.88467	-17
3.88833	-15
3.89200	-14
3.89567	-12
3.89933	-9
3.90300	-5
3.90667	-4
3.91033	-3
3.91400	-5
3.91767	-10
3.92133	-16
3.92500	-19
3.92867	-23
3.93233	-28
3.93600	-29
3.93967	-28
3.94333	-28
3.94700	-28
3.95067	-26
3.95433	-23
3.95800	-21
3.96167	-18
3.96533	-18
3.96900	-20
3.97267	-24
3.97633	-24
3.98000	-20
3.98367	-13
3.98733	-9
3.99100	-8
3.99467	-8
3.99833	-8

[Chromatogram (Ch2)]
Interval(msec)	220
# of Points	1091
Start Time(min)	0.002
End Time(min)	3.998
R.Time (min)	Intensity
0.00167	0
0.00533	0
0.00900	0
0.01267	0
0.01633	1
0.02000	1
0.02367	1
0.02733	1
0.03100	1
0.03467	1
0.03833	1
0.04200	1
0.04567	1
0.04933	1
0.05300	1
0.05667	1
0.06033	0
0.06400	0
0.06767	0
0.07133	0
0.07500	0
0.07867	0
0.08233	1
0.08600	1
0.08967	1
0.09333	1
0.09700	1
0.10067	1
0.10433	1
0.10800	2
0.11167	2
0.11533	2
0.11900	2
0.12267	2
0.12633	3
0.13000	3
0.13367	3
0.13733	3
0.14100	3
0.14467	3
0.14833	2
0.15200	2
0.15567	2
0.15933	2
0.16300	1
0.16667	1
0.17033	1
0.17400	1
0.17767	1
0.18133	1
0.18500	2
0.18867	2
0.19233	2
0.19600	3
0.19967	3
0.20333	3
0.20700	3
0.21067	3
0.21433	3
0.21800	3
0.22167	2
0.22533	2
0.22900	2
0.23267	2
0.23633	2
0.24000	2
0.24367	2
0.24733	2
0.25100	2
0.25467	1
0.25833	1
0.26200	1
0.26567	2
0.26933	2
0.27300	2
0.27667	2
0.28033	1
0.28400	1
0.28767	1
0.29133	1
0.29500	1
0.29867	1
0.30233	1
0.30600	1
0.30967	1
0.31333	1
0.31700	1
0.32067	1
0.32433	2
0.32800	1
0.33167	1
0.33533	1
0.33900	1
0.34267	2
0.34633	2
0.35000	2
0.35367	2
0.35733	2
0.36100	1
0.36467	1
0.36833	1
0.37200	1
0.37567	1
0.37933	1
0.38300	1
0.38667	1
0.39033	2
0.39400	2
0.39767	2
0.40133	2
0.40500	2
0.40867	2
0.41233	2
0.41600	2
0.41967	2
0.42333	2
0.42700	2
0.43067	2
0.43433	2
0.43800	3
0.44167	3
0.44533	3
0.44900	3
0.45267	3
0.45633	3
0.46000	3
0.46367	3
0.46733	3
0.47100	2
0.47467	2
0.47833	2
0.48200	2
0.48567	2
0.48933	2
0.49300	2
0.49667	3
0.50033	3
0.50400	3
0.50767	3
0.51133	3
0.51500	3
0.51867	3
0.52233	2
0.52600	2
0.52967	2
0.53333	2
0.53700	1
0.54067	1
0.54433	0
0.54800	0
0.55167	0
0.55533	0
0.55900	0
0.56267	1
0.56633	1
0.57000	1
0.57367	1
0.57733	2
0.58100	2
0.58467	2
0.58833	2
0.59200	1
0.59567	1
0.59933	1
0.60300	1
0.60667	1
0.61033	0
0.61400	-0
0.61767	-0
0.62133	-0
0.62500	-0
0.62867	-0
0.63233	-0
0.63600	-0
0.63967	0
0.64333	0
0.64700	1
0.65067	1
0.65433	1
0.65800	1
0.66167	1
0.66533	1
0.66900	1
0.67267	1
0.67633	2
0.68000	2
0.68367	2
0.68733	2
0.69100	2
0.69467	1
0.69833	1
0.70200	1
0.70567	1
0.70933	1
0.71300	1
0.71667	1
0.72033	1
0.72400	1
0.72767	1
0.73133	1
0.73500	1
0.73867	1
0.74233	1
0.74600	1
0.74967	1
0.75333	1
0.75700	1
0.76067	1
0.76433	2
0.76800	2
0.77167	2
0.77533	2
0.77900	2
0.78267	1
0.78633	1
0.79000	1
0.79367	1
0.79733	1
0.80100	1
0.80467	0
0.80833	0
0.81200	0
0.81567	0
0.81933	0
0.82300	0
0.82667	0
0.83033	0
0.83400	0
0.83767	1
0.84133	1
0.84500	1
0.84867	1
0.85233	1
0.85600	1
0.85967	0
0.86333	0
0.86700	-0
0.87067	-0
0.87433	-0
0.87800	0
0.88167	1
0.88533	1
0.88900	2
0.89267	2
0.89633	2
0.90000	2
0.90367	2
0.90733	2
0.91100	1
0.91467	1
0.91833	1
0.92200	1
0.92567	1
0.92933	1
0.93300	1
0.93667	1
0.94033	0
0.94400	0
0.94767	0
0.95133	-0
0.95500	-0
0.95867	-0
0.96233	-0
0.96600	-0
0.96967	-0
0.97333	-0
0.97700	0
0.98067	0
0.98433	-0
0.98800	-0
0.99167	-0
0.99533	-0
0.99900	0
1.00267	0
1.00633	0
1.01000	0
1.01367	0
1.01733	0
1.02100	0
1.02467	0
1.02833	0
1.03200	0
1.03567	0
1.03933	0
1.04300	-0
1.04667	-0
1.05033	-1
1.05400	-1
1.05767	-1
1.06133	-2
1.06500	-2
1.06867	-2
1.07233	-2
1.07600	-2
1.07967	-2
1.08333	-2
1.08700	-2
1.09067	-1
1.09433	-1
1.09800	-1
1.10167	-1
1.10533	-1
1.10900	-1
1.11267	-1
1.11633	-1
1.12000	-1
1.12367	-1
1.12733	-0
1.13100	-0
1.13467	0
1.13833	1
1.14200	1
1.14567	1
1.14933	1
1.15300	2
1.15667	2
1.16033	2
1.16400	1
1.16767	1
1.17133	1
1.17500	1
1.17867	0
1.18233	0
1.18600	0
1.18967	0
1.19333	-0
1.19700	-0
1.20067	-0
1.20433	-0
1.20800	-0
1.21167	-0
1.21533	-0
1.21900	-0
1.22267	-0
1.22633	-1
1.23000	-1
1.23367	-1
1.23733	-2
1.24100	-2
1.24467	-2
1.24833	-3
1.25200	-3
1.25567	-3
1.25933	-3
1.26300	-3
1.26667	-3
1.27033	-3
1.27400	-3
1.27767	-3
1.28133	-3
1.28500	-3
1.28867	-2
1.29233	-2
1.29600	-2
1.29967	-2
1.30333	-2
1.30700	-2
1.31067	-2
1.31433	-2
1.31800	-2
1.32167	-2
1.32533	-2
1.32900	-2
1.33267	-2
1.33633	-2
1.34000	-2
1.34367	-2
1.34733	-2
1.35100	-1
1.35467	-1
1.35833	-1
1.36200	-1
1.36567	-1
1.36933	-1
1.37300	-1
1.37667	-1
1.38033	-1
1.38400	-1
1.38767	-1
1.39133	-1
1.39500	-1
1.39867	-0
1.40233	-0
1.40600	-0
1.40967	-0
1.41333	0
1.41700	-0
1.42067	0
1.42433	0
1.42800	1
1.43167	1
1.43533	1
1.43900	1
1.44267	1
1.44633	1
1.45000	2
1.45367	2
1.45733	2
1.46100	2
1.46467	1
1.46833	1
1.47200	1
1.47567	0
1.47933	0
1.48300	0
1.48667	-0
1.49033	-0
1.49400	-0
1.49767	-0
1.50133	-0
1.50500	-1
1.50867	-1
1.51233	-1
1.51600	-1
1.51967	-1
1.52333	-1
1.52700	-2
1.53067	-2
1.53433	-2
1.53800	-2
1.54167	-2
1.54533	-2
1.54900	-2
1.55267	-2
1.55633	-2
1.56000	-1
1.56367	-1
1.56733	-1
1.57100	-0
1.57467	-0
1.57833	0
1.58200	0
1.58567	0
1.58933	0
1.59300	-0
1.59667	-1
1.60033	-1
1.60400	-2
1.60767	-3
1.61133	-5
1.61500	-7
1.61867	-9
1.62233	-12
1.62600	-14
1.62967	-17
1.63333	-20
1.63700	-23
1.64067	-27
1.64433	-30
1.64800	-33
1.65167	-37
1.65533	-40
1.65900	-44
1.66267	-48
1.66633	-52
1.67000	-56
1.67367	-61
1.67733	-66
1.68100	-71
1.68467	-75
1.68833	-79
1.69200	-83
1.69567	-87
1.69933	-89
1.70300	-92
1.70667	-93
1.71033	-94
1.71400	-95
1.71767	-96
1.72133	-96
1.72500	-96
1.72867	-97
1.73233	-97
1.73600	-97
1.73967	-98
1.74333	-98
1.74700	-98
1.75067	-98
1.75433	-98
1.75800	-98
1.76167	-98
1.76533	-98
1.76900	-98
1.77267	-99
1.77633	-99
1.78000	-100
1.78367	-100
1.78733	-101
1.79100	-101
1.79467	-102
1.79833	-103
1.80200	-103
1.80567	-104
1.80933	-104
1.81300	-104
1.81667	-104
1.82033	-103
1.82400	-103
1.82767	-102
1.83133	-101
1.83500	-100
1.83867	-100
1.84233	-100
1.84600	-100
1.84967	-100
1.85333	-100
1.85700	-100
1.86067	-100
1.86433	-100
1.86800	-100
1.87167	-100
1.87533	-100
1.87900	-100
1.88267	-100
1.88633	-100
1.89000	-101
1.89367	-101
1.89733	-101
1.90100	-101
1.90467	-102
1.90833	-102
1.91200	-102
1.91567	-101
1.91933	-101
1.92300	-100
1.92667	-100
1.93033	-99
1.93400	-99
1.93767	-98
1.94133	-98
1.94500	-98
1.94867	-97
1.95233	-97
1.95600	-97
1.95967	-96
1.96333	-96
1.96700	-95
1.97067	-95
1.97433	-95
1.97800	-95
1.98167	-95
1.98533	-95
1.98900	-95
1.99267	-94
1.99633	-94
2.00000	-93
2.00367	-93
2.00733	-93
2.01100	-94
2.01467	-94
2.01833	-95
2.02200	-95
2.02567	-96
2.02933	-96
2.03300	-96
2.03667	-96
2.04033	-96
2.04400	-95
2.04767	-94
2.05133	-93
2.05500	-92
2.05867	-91
2.06233	-91
2.06600	-91
2.06967	-91
2.07333	-91
2.07700	-91
2.08067	-91
2.08433	-90
2.08800	-90
2.09167	-89
2.09533	-89
2.09900	-89
2.10267	-88
2.10633	-88
2.11000	-87
2.11367	-87
2.11733	-86
2.12100	-85
2.12467	-85
2.12833	-85
2.13200	-86
2.13567	-87
2.13933	-88
2.14300	-89
2.14667	-90
2.15033	-90
2.15400	-89
2.15767	-88
2.16133	-87
2.16500	-86
2.16867	-85
2.17233	-84
2.17600	-83
2.17967	-83
2.18333	-83
2.18700	-82
2.19067	-82
2.19433	-81
2.19800	-81
2.20167	-80
2.20533	-79
2.20900	-79
2.21267	-79
2.21633	-80
2.22000	-80
2.22367	-81
2.22733	-80
2.23100	-80
2.23467	-79
2.23833	-78
2.24200	-77
2.24567	-76
2.24933	-76
2.25300	-76
2.25667	-76
2.26033	-76
2.26400	-77
2.26767	-77
2.27133	-78
2.27500	-78
2.27867	-78
2.28233	-77
2.28600	-76
2.28967	-75
2.29333	-74
2.29700	-74
2.30067	-73
2.30433	-73
2.30800	-73
2.31167	-73
2.31533	-73
2.31900	-73
2.32267	-73
2.32633	-73
2.33000	-72
2.33367	-72
2.33733	-71
2.34100	-70
2.34467	-69
2.34833	-68
2.35200	-66
2.35567	-65
2.35933	-64
2.36300	-62
2.36667	-60
2.37033	-58
2.37400	-55
2.37767	-52
2.38133	-49
2.38500	-45
2.38867	-42
2.39233	-38
2.39600	-34
2.39967	-30
2.40333	-26
2.40700	-23
2.41067	-19
2.41433	-16
2.41800	-13
2.42167	-10
2.42533	-7
2.42900	-4
2.43267	-1
2.43633	1
2.44000	3
2.44367	4
2.44733	5
2.45100	6
2.45467	6
2.45833	7
2.46200	8
2.46567	9
2.46933	11
2.47300	12
2.47667	13
2.48033	14
2.48400	15
2.48767	15
2.49133	16
2.49500	16
2.49867	15
2.50233	15
2.50600	15
2.50967	15
2.51333	15
2.51700	15
2.52067	15
2.52433	14
2.52800	14
2.53167	13
2.53533	13
2.53900	12
2.54267	12
2.54633	12
2.55000	13
2.55367	14
2.55733	14
2.56100	15
2.56467	15
2.56833	15
2.57200	16
2.57567	16
2.57933	17
2.58300	18
2.58667	18
2.59033	19
2.59400	19
2.59767	19
2.60133	19
2.60500	20
2.60867	20
2.61233	20
2.61600	20
2.61967	20
2.62333	20
2.62700	21
2.63067	21
2.63433	21
2.63800	21
2.64167	21
2.64533	21
2.64900	21
2.65267	21
2.65633	21
2.66000	21
2.66367	21
2.66733	21
2.67100	21
2.67467	21
2.67833	22
2.68200	22
2.68567	23
2.68933	23
2.69300	24
2.69667	24
2.70033	24
2.70400	24
2.70767	25
2.71133	25
2.71500	25
2.71867	26
2.72233	26
2.72600	27
2.72967	27
2.73333	27
2.73700	28
2.74067	28
2.74433	28
2.74800	28
2.75167	28
2.75533	28
2.75900	28
2.76267	28
2.76633	28
2.77000	29
2.77367	29
2.77733	29
2.78100	30
2.78467	30
2.78833	30
2.79200	31
2.79567	31
2.79933	32
2.80300	32
2.80667	32
2.81033	32
2.81400	32
2.81767	32
2.82133	31
2.82500	30
2.82867	29
2.83233	29
2.83600	28
2.83967	28
2.84333	27
2.84700	27
2.85067	27
2.85433	26
2.85800	25
2.86167	24
2.86533	21
2.86900	15
2.87267	6
2.87633	-6
2.88000	-23
2.88367	-45
2.88733	-72
2.89100	-105
2.89467	-142
2.89833	-185
2.90200	-232
2.90567	-283
2.90933	-337
2.91300	-394
2.91667	-453
2.92033	-514
2.92400	-576
2.92767	-637
2.93133	-697
2.93500	-756
2.93867	-811
2.94233	-864
2.94600	-915
2.94967	-969
2.95333	-1023
2.95700	-1070
2.96067	-1099
2.96433	-1103
2.96800	-1083
2.97167	-1040
2.97533	-980
2.97900	-908
2.98267	-829
2.98633	-748
2.99000	-668
2.99367	-592
2.99733	-520
3.00100	-454
3.00467	-394
3.00833	-341
3.01200	-293
3.01567	-251
3.01933	-214
3.02300	-182
3.02667	-154
3.03033	-129
3.03400	-109
3.03767	-90
3.04133	-75
3.04500	-61
3.04867	-50
3.05233	-40
3.05600	-32
3.05967	-25
3.06333	-19
3.06700	-14
3.07067	-10
3.07433	-6
3.07800	-3
3.08167	-0
3.08533	2
3.08900	4
3.09267	6
3.09633	8
3.10000	9
3.10367	10
3.10733	12
3.11100	12
3.11467	13
3.11833	14
3.12200	15
3.12567	15
3.12933	16
3.13300	16
3.13667	17
3.14033	17
3.14400	17
3.14767	18
3.15133	18
3.15500	18
3.15867	19
3.16233	19
3.16600	20
3.16967	20
3.17333	20
3.17700	20
3.18067	21
3.18433	21
3.18800	22
3.19167	22
3.19533	22
3.19900	22
3.20267	22
3.20633	23
3.21000	23
3.21367	23
3.21733	23
3.22100	23
3.22467	24
3.22833	24
3.23200	24
3.23567	24
3.23933	24
3.24300	24
3.24667	24
3.25033	24
3.25400	24
3.25767	24
3.26133	24
3.26500	24
3.26867	24
3.27233	24
3.27600	25
3.27967	25
3.28333	25
3.28700	25
3.29067	25
3.29433	25
3.29800	26
3.30167	26
3.30533	26
3.30900	26
3.31267	26
3.31633	26
3.32000	26
3.32367	26
3.32733	26
3.33100	26
3.33467	26
3.33833	26
3.34200	27
3.34567	27
3.34933	27
3.35300	27
3.35667	27
3.36033	27
3.36400	27
3.36767	27
3.37133	27
3.37500	27
3.37867	28
3.38233	28
3.38600	28
3.38967	28
3.39333	28
3.39700	28
3.40067	28
3.40433	28
3.40800	28
3.41167	28
3.41533	28
3.41900	28
3.42267	28
3.42633	28
3.43000	28
3.43367	28
3.43733	28
3.44100	28
3.44467	29
3.44833	29
3.45200	29
3.45567	29
3.45933	29
3.46300	29
3.46667	29
3.47033	29
3.47400	30
3.47767	30
3.48133	30
3.48500	31
3.48867	31
3.49233	30
3.49600	30
3.49967	30
3.50333	30
3.50700	29
3.51067	29
3.51433	29
3.51800	29
3.52167	29
3.52533	29
3.52900	29
3.53267	29
3.53633	29
3.54000	29
3.54367	29
3.54733	29
3.55100	29
3.55467	29
3.55833	29
3.56200	29
3.56567	29
3.56933	29
3.57300	29
3.57667	29
3.58033	29
3.58400	29
3.58767	29
3.59133	29
3.59500	29
3.59867	29
3.60233	30
3.60600	30
3.60967	30
3.61333	30
3.61700	30
3.62067	29
3.62433	29
3.62800	29
3.63167	29
3.63533	29
3.63900	29
3.64267	29
3.64633	29
3.65000	29
3.65367	29
3.65733	29
3.66100	29
3.66467	29
3.66833	29
3.67200	29
3.67567	29
3.67933	29
3.68300	29
3.68667	29
3.69033	29
3.69400	29
3.69767	29
3.70133	29
3.70500	28
3.70867	29
3.71233	29
3.71600	29
3.71967	29
3.72333	29
3.72700	29
3.73067	29
3.73433	29
3.73800	29
3.74167	30
3.74533	30
3.74900	30
3.75267	30
3.75633	30
3.76000	30
3.76367	30
3.76733	29
3.77100	29
3.77467	29
3.77833	29
3.78200	29
3.78567	29
3.78933	29
3.79300	28
3.79667	28
3.80033	28
3.80400	28
3.80767	27
3.81133	27
3.81500	27
3.81867	27
3.82233	27
3.82600	27
3.82967	27
3.83333	27
3.83700	27
3.84067	28
3.84433	28
3.84800	28
3.85167	28
3.85533	28
3.85900	28
3.86267	28
3.86633	28
3.87000	28
3.87367	28
3.87733	28
3.88100	28
3.88467	28
3.88833	28
3.89200	29
3.89567	29
3.89933	29
3.90300	28
3.90667	28
3.91033	28
3.91400	28
3.91767	28
3.92133	28
3.92500	29
3.92867	29
3.93233	29
3.93600	29
3.93967	29
3.94333	29
3.94700	29
3.95067	29
3.95433	29
3.95800	29
3.96167	29
3.96533	29
3.96900	29
3.97267	29
3.97633	29
3.98000	29
3.98367	29
3.98733	29
3.99100	29
3.99467	29
3.99833	29

[Chromatogram (Ch3)]
Interval(msec)	220
# of Points	1091
Start Time(min)	0.002
End Time(min)	3.998
R.Time (min)	Intensity
0.00167	0
0.00533	2
0.00900	3
0.01267	3
0.01633	3
0.02000	5
0.02367	5
0.02733	5
0.03100	3
0.03467	4
0.03833	5
0.04200	7
0.04567	8
0.04933	9
0.05300	9
0.05667	8
0.06033	6
0.06400	3
0.06767	2
0.07133	3
0.07500	4
0.07867	6
0.08233	7
0.08600	5
0.08967	4
0.09333	5
0.09700	2
0.10067	-0
0.10433	-3
0.10800	-5
0.11167	-4
0.11533	-2
0.11900	-1
0.12267	-1
0.12633	0
0.13000	1
0.13367	-2
0.13733	-3
0.14100	-2
0.14467	1
0.14833	1
0.15200	2
0.15567	3
0.15933	3
0.16300	4
0.16667	6
0.17033	6
0.17400	4
0.17767	4
0.18133	6
0.18500	7
0.18867	6
0.19233	6
0.19600	8
0.19967	7
0.20333	5
0.20700	4
0.21067	4
0.21433	6
0.21800	6
0.22167	4
0.22533	3
0.22900	1
0.23267	1
0.23633	1
0.24000	2
0.24367	2
0.24733	1
0.25100	2
0.25467	4
0.25833	7
0.26200	7
0.26567	7
0.26933	6
0.27300	4
0.27667	3
0.28033	1
0.28400	0
0.28767	2
0.29133	1
0.29500	2
0.29867	2
0.30233	-1
0.30600	-1
0.30967	0
0.31333	1
0.31700	1
0.32067	1
0.32433	2
0.32800	3
0.33167	3
0.33533	3
0.33900	2
0.34267	2
0.34633	4
0.35000	4
0.35367	3
0.35733	3
0.36100	2
0.36467	1
0.36833	-0
0.37200	-2
0.37567	-0
0.37933	1
0.38300	1
0.38667	1
0.39033	1
0.39400	1
0.39767	-1
0.40133	-2
0.40500	-2
0.40867	-1
0.41233	0
0.41600	2
0.41967	3
0.42333	3
0.42700	1
0.43067	1
0.43433	0
0.43800	0
0.44167	-0
0.44533	0
0.44900	1
0.45267	2
0.45633	2
0.46000	3
0.46367	3
0.46733	1
0.47100	0
0.47467	1
0.47833	2
0.48200	1
0.48567	1
0.48933	1
0.49300	1
0.49667	1
0.50033	3
0.50400	6
0.50767	5
0.51133	4
0.51500	4
0.51867	4
0.52233	4
0.52600	5
0.52967	5
0.53333	6
0.53700	6
0.54067	5
0.54433	6
0.54800	5
0.55167	4
0.55533	5
0.55900	7
0.56267	8
0.56633	7
0.57000	7
0.57367	8
0.57733	9
0.58100	9
0.58467	7
0.58833	5
0.59200	4
0.59567	5
0.59933	6
0.60300	6
0.60667	8
0.61033	9
0.61400	10
0.61767	10
0.62133	12
0.62500	13
0.62867	11
0.63233	9
0.63600	9
0.63967	8
0.64333	8
0.64700	8
0.65067	8
0.65433	6
0.65800	5
0.66167	7
0.66533	8
0.66900	8
0.67267	9
0.67633	11
0.68000	10
0.68367	9
0.68733	11
0.69100	13
0.69467	13
0.69833	12
0.70200	11
0.70567	11
0.70933	13
0.71300	14
0.71667	14
0.72033	12
0.72400	12
0.72767	12
0.73133	12
0.73500	14
0.73867	17
0.74233	18
0.74600	18
0.74967	16
0.75333	15
0.75700	14
0.76067	13
0.76433	10
0.76800	9
0.77167	9
0.77533	10
0.77900	11
0.78267	13
0.78633	15
0.79000	17
0.79367	15
0.79733	13
0.80100	12
0.80467	12
0.80833	11
0.81200	13
0.81567	15
0.81933	16
0.82300	16
0.82667	16
0.83033	15
0.83400	15
0.83767	18
0.84133	19
0.84500	19
0.84867	19
0.85233	19
0.85600	17
0.85967	18
0.86333	18
0.86700	18
0.87067	19
0.87433	18
0.87800	17
0.88167	18
0.88533	20
0.88900	20
0.89267	18
0.89633	17
0.90000	18
0.90367	20
0.90733	21
0.91100	22
0.91467	20
0.91833	18
0.92200	17
0.92567	17
0.92933	19
0.93300	21
0.93667	21
0.94033	20
0.94400	22
0.94767	24
0.95133	22
0.95500	22
0.95867	22
0.96233	23
0.96600	24
0.96967	25
0.97333	24
0.97700	24
0.98067	23
0.98433	22
0.98800	21
0.99167	22
0.99533	21
0.99900	21
1.00267	23
1.00633	24
1.01000	25
1.01367	26
1.01733	26
1.02100	24
1.02467	23
1.02833	23
1.03200	24
1.03567	21
1.03933	20
1.04300	20
1.04667	20
1.05033	20
1.05400	21
1.05767	23
1.06133	24
1.06500	25
1.06867	26
1.07233	27
1.07600	27
1.07967	27
1.08333	27
1.08700	26
1.09067	24
1.09433	22
1.09800	22
1.10167	22
1.10533	23
1.10900	25
1.11267	26
1.11633	27
1.12000	24
1.12367	21
1.12733	21
1.13100	21
1.13467	22
1.13833	22
1.14200	24
1.14567	25
1.14933	27
1.15300	27
1.15667	26
1.16033	25
1.16400	23
1.16767	24
1.17133	23
1.17500	23
1.17867	24
1.18233	24
1.18600	24
1.18967	25
1.19333	26
1.19700	26
1.20067	29
1.20433	32
1.20800	33
1.21167	32
1.21533	32
1.21900	33
1.22267	32
1.22633	29
1.23000	27
1.23367	26
1.23733	27
1.24100	27
1.24467	26
1.24833	25
1.25200	27
1.25567	28
1.25933	27
1.26300	27
1.26667	29
1.27033	30
1.27400	29
1.27767	29
1.28133	28
1.28500	29
1.28867	28
1.29233	26
1.29600	26
1.29967	27
1.30333	27
1.30700	27
1.31067	25
1.31433	22
1.31800	20
1.32167	19
1.32533	19
1.32900	19
1.33267	20
1.33633	21
1.34000	21
1.34367	23
1.34733	24
1.35100	26
1.35467	26
1.35833	26
1.36200	26
1.36567	26
1.36933	25
1.37300	26
1.37667	27
1.38033	29
1.38400	29
1.38767	30
1.39133	33
1.39500	35
1.39867	34
1.40233	32
1.40600	31
1.40967	31
1.41333	29
1.41700	27
1.42067	28
1.42433	31
1.42800	33
1.43167	32
1.43533	32
1.43900	31
1.44267	31
1.44633	30
1.45000	29
1.45367	29
1.45733	29
1.46100	29
1.46467	28
1.46833	28
1.47200	29
1.47567	30
1.47933	32
1.48300	32
1.48667	33
1.49033	34
1.49400	35
1.49767	34
1.50133	33
1.50500	35
1.50867	36
1.51233	35
1.51600	34
1.51967	32
1.52333	32
1.52700	31
1.53067	30
1.53433	30
1.53800	30
1.54167	30
1.54533	30
1.54900	31
1.55267	30
1.55633	31
1.56000	31
1.56367	32
1.56733	31
1.57100	31
1.57467	33
1.57833	34
1.58200	34
1.58567	33
1.58933	32
1.59300	30
1.59667	29
1.60033	29
1.60400	32
1.60767	33
1.61133	33
1.61500	33
1.61867	35
1.62233	35
1.62600	36
1.62967	39
1.63333	39
1.63700	36
1.64067	37
1.64433	40
1.64800	39
1.65167	39
1.65533	38
1.65900	37
1.66267	36
1.66633	36
1.67000	38
1.67367	39
1.67733	41
1.68100	42
1.68467	40
1.68833	42
1.69200	43
1.69567	44
1.69933	45
1.70300	43
1.70667	44
1.71033	44
1.71400	44
1.71767	45
1.72133	46
1.72500	47
1.72867	50
1.73233	51
1.73600	54
1.73967	57
1.74333	55
1.74700	54
1.75067	54
1.75433	56
1.75800	57
1.76167	57
1.76533	56
1.76900	54
1.77267	53
1.77633	52
1.78000	52
1.78367	55
1.78733	59
1.79100	60
1.79467	60
1.79833	61
1.80200	64
1.80567	66
1.80933	66
1.81300	68
1.81667	69
1.82033	69
1.82400	71
1.82767	75
1.83133	77
1.83500	76
1.83867	73
1.84233	72
1.84600	71
1.84967	71
1.85333	73
1.85700	76
1.86067	77
1.86433	78
1.86800	78
1.87167	79
1.87533	78
1.87900	77
1.88267	78
1.88633	80
1.89000	81
1.89367	81
1.89733	81
1.90100	82
1.90467	84
1.90833	85
1.91200	85
1.91567	85
1.91933	86
1.92300	86
1.92667	87
1.93033	87
1.93400	88
1.93767	90
1.94133	90
1.94500	90
1.94867	91
1.95233	94
1.95600	94
1.95967	95
1.96333	96
1.96700	98
1.97067	101
1.97433	101
1.97800	100
1.98167	102
1.98533	103
1.98900	102
1.99267	102
1.99633	103
2.00000	106
2.00367	108
2.00733	109
2.01100	109
2.01467	109
2.01833	111
2.02200	112
2.02567	112
2.02933	113
2.03300	113
2.03667	114
2.04033	116
2.04400	116
2.04767	115
2.05133	115
2.05500	116
2.05867	118
2.06233	119
2.06600	121
2.06967	123
2.07333	123
2.07700	123
2.08067	124
2.08433	125
2.08800	126
2.09167	126
2.09533	125
2.09900	124
2.10267	124
2.10633	125
2.11000	127
2.11367	131
2.11733	134
2.12100	138
2.12467	140
2.12833	140
2.13200	142
2.13567	142
2.13933	141
2.14300	141
2.14667	142
2.15033	146
2.15400	149
2.15767	150
2.16133	148
2.16500	147
2.16867	148
2.17233	150
2.17600	150
2.17967	147
2.18333	145
2.18700	147
2.19067	152
2.19433	156
2.19800	157
2.20167	157
2.20533	158
2.20900	160
2.21267	160
2.21633	160
2.22000	159
2.22367	159
2.22733	159
2.23100	160
2.23467	160
2.23833	161
2.24200	162
2.24567	161
2.24933	162
2.25300	163
2.25667	164
2.26033	165
2.26400	168
2.26767	172
2.27133	173
2.27500	173
2.27867	170
2.28233	169
2.28600	170
2.28967	174
2.29333	175
2.29700	177
2.30067	177
2.30433	178
2.30800	180
2.31167	180
2.31533	180
2.31900	179
2.32267	177
2.32633	177
2.33000	177
2.33367	174
2.33733	173
2.34100	173
2.34467	175
2.34833	178
2.35200	181
2.35567	184
2.35933	185
2.36300	184
2.36667	184
2.37033	184
2.37400	187
2.37767	185
2.38133	183
2.38500	180
2.38867	176
2.39233	173
2.39600	174
2.39967	178
2.40333	182
2.40700	186
2.41067	186
2.41433	187
2.41800	188
2.42167	191
2.42533	193
2.42900	193
2.43267	191
2.43633	190
2.44000	194
2.44367	233
2.44733	310
2.45100	385
2.45467	431
2.45833	442
2.46200	439
2.46567	433
2.46933	420
2.47300	395
2.47667	363
2.48033	329
2.48400	300
2.48767	278
2.49133	267
2.49500	265
2.49867	271
2.50233	278
2.50600	282
2.50967	281
2.51333	274
2.51700	261
2.52067	244
2.52433	225
2.52800	208
2.53167	192
2.53533	178
2.53900	166
2.54267	157
2.54633	152
2.55000	151
2.55367	152
2.55733	155
2.56100	157
2.56467	159
2.56833	163
2.57200	171
2.57567	182
2.57933	193
2.58300	203
2.58667	208
2.59033	214
2.59400	217
2.59767	217
2.60133	216
2.60500	211
2.60867	205
2.61233	197
2.61600	186
2.61967	176
2.62333	165
2.62700	154
2.63067	144
2.63433	137
2.63800	128
2.64167	120
2.64533	114
2.64900	109
2.65267	105
2.65633	101
2.66000	98
2.66367	97
2.66733	98
2.67100	97
2.67467	95
2.67833	94
2.68200	95
2.68567	99
2.68933	100
2.69300	101
2.69667	103
2.70033	106
2.70400	110
2.70767	113
2.71133	114
2.71500	115
2.71867	120
2.72233	124
2.72600	127
2.72967	134
2.73333	140
2.73700	145
2.74067	150
2.74433	156
2.74800	164
2.75167	170
2.75533	174
2.75900	178
2.76267	181
2.76633	184
2.77000	186
2.77367	187
2.77733	188
2.78100	189
2.78467	189
2.78833	190
2.79200	188
2.79567	185
2.79933	183
2.80300	183
2.80667	182
2.81033	180
2.81400	177
2.81767	174
2.82133	171
2.82500	171
2.82867	172
2.83233	175
2.83600	184
2.83967	210
2.84333	270
2.84700	385
2.85067	577
2.85433	864
2.85800	1251
2.86167	1734
2.86533	2289
2.86900	2875
2.87267	3451
2.87633	3968
2.88000	4388
2.88367	4685
2.88733	4843
2.89100	4867
2.89467	4771
2.89833	4582
2.90200	4327
2.90567	4030
2.90933	3715
2.91300	3401
2.91667	3096
2.92033	2808
2.92400	2543
2.92767	2305
2.93133	2091
2.93500	1900
2.93867	1728
2.94233	1576
2.94600	1444
2.94967	1330
2.95333	1231
2.95700	1146
2.96067	1073
2.96433	1009
2.96800	954
2.97167	906
2.97533	866
2.97900	832
2.98267	801
2.98633	776
2.99000	753
2.99367	733
2.99733	715
3.00100	701
3.00467	693
3.00833	685
3.01200	679
3.01567	671
3.01933	662
3.02300	655
3.02667	653
3.03033	652
3.03400	652
3.03767	651
3.04133	648
3.04500	645
3.04867	645
3.05233	645
3.05600	646
3.05967	648
3.06333	649
3.06700	649
3.07067	648
3.07433	646
3.07800	645
3.08167	645
3.08533	645
3.08900	646
3.09267	646
3.09633	646
3.10000	646
3.10367	644
3.10733	643
3.11100	643
3.11467	644
3.11833	643
3.12200	642
3.12567	640
3.12933	637
3.13300	636
3.13667	634
3.14033	634
3.14400	631
3.14767	628
3.15133	626
3.15500	623
3.15867	618
3.16233	614
3.16600	611
3.16967	609
3.17333	608
3.17700	608
3.18067	607
3.18433	605
3.18800	606
3.19167	603
3.19533	601
3.19900	598
3.20267	594
3.20633	588
3.21000	582
3.21367	580
3.21733	579
3.22100	578
3.22467	575
3.22833	572
3.23200	569
3.23567	567
3.23933	567
3.24300	565
3.24667	564
3.25033	562
3.25400	559
3.25767	557
3.26133	555
3.26500	550
3.26867	547
3.27233	544
3.27600	542
3.27967	540
3.28333	540
3.28700	538
3.29067	536
3.29433	535
3.29800	533
3.30167	531
3.30533	528
3.30900	525
3.31267	524
3.31633	524
3.32000	522
3.32367	519
3.32733	519
3.33100	516
3.33467	514
3.33833	512
3.34200	510
3.34567	510
3.34933	510
3.35300	507
3.35667	504
3.36033	503
3.36400	502
3.36767	497
3.37133	491
3.37500	489
3.37867	488
3.38233	488
3.38600	486
3.38967	487
3.39333	487
3.39700	486
3.40067	485
3.40433	483
3.40800	479
3.41167	475
3.41533	471
3.41900	470
3.42267	470
3.42633	470
3.43000	471
3.43367	470
3.43733	466
3.44100	462
3.44467	459
3.44833	458
3.45200	457
3.45567	455
3.45933	453
3.46300	451
3.46667	450
3.47033	448
3.47400	445
3.47767	445
3.48133	446
3.48500	446
3.48867	443
3.49233	441
3.49600	440
3.49967	439
3.50333	437
3.50700	436
3.51067	435
3.51433	435
3.51800	436
3.52167	435
3.52533	436
3.52900	436
3.53267	435
3.53633	432
3.54000	430
3.54367	430
3.54733	430
3.55100	431
3.55467	432
3.55833	432
3.56200	428
3.56567	426
3.56933	425
3.57300	424
3.57667	425
3.58033	426
3.58400	423
3.58767	423
3.59133	422
3.59500	424
3.59867	425
3.60233	425
3.60600	423
3.60967	422
3.61333	421
3.61700	421
3.62067	420
3.62433	420
3.62800	419
3.63167	417
3.63533	418
3.63900	417
3.64267	414
3.64633	412
3.65000	412
3.65367	411
3.65733	409
3.66100	409
3.66467	406
3.66833	404
3.67200	405
3.67567	406
3.67933	407
3.68300	407
3.68667	406
3.69033	407
3.69400	407
3.69767	407
3.70133	408
3.70500	409
3.70867	407
3.71233	404
3.71600	400
3.71967	398
3.72333	399
3.72700	400
3.73067	398
3.73433	397
3.73800	397
3.74167	397
3.74533	397
3.74900	397
3.75267	397
3.75633	395
3.76000	393
3.76367	390
3.76733	388
3.77100	387
3.77467	387
3.77833	385
3.78200	383
3.78567	381
3.78933	380
3.79300	382
3.79667	385
3.80033	385
3.80400	384
3.80767	382
3.81133	379
3.81500	378
3.81867	377
3.82233	376
3.82600	376
3.82967	375
3.83333	372
3.83700	371
3.84067	370
3.84433	368
3.84800	365
3.85167	363
3.85533	363
3.85900	364
3.86267	365
3.86633	365
3.87000	364
3.87367	365
3.87733	366
3.88100	365
3.88467	363
3.88833	363
3.89200	362
3.89567	361
3.89933	361
3.90300	359
3.90667	357
3.91033	356
3.91400	355
3.91767	353
3.92133	351
3.92500	350
3.92867	351
3.93233	351
3.93600	351
3.93967	351
3.94333	350
3.94700	348
3.95067	347
3.95433	346
3.95800	345
3.96167	344
3.96533	344
3.96900	343
3.97267	344
3.97633	345
3.98000	344
3.98367	344
3.98733	344
3.99100	343
3.99467	342
3.99833	339

[Status Trace (Column Oven Temperature)]
Interval(msec)	1000
# of Points	240
Start Time(min)	0.016
End Time(min)	4.000
Intensity Units	
Intensity Multiplier	1
R.Time (min)	Intensity
0.01633	35.08
0.03300	35.07
0.04967	35.08
0.06633	35.07
0.08300	35.07
0.09967	35.07
0.11633	35.05
0.13300	35.04
0.14967	35.04
0.16633	35.04
0.18300	35.04
0.19967	35.03
0.21633	35.03
0.23300	35.03
0.24967	35.03
0.26633	35.03
0.28300	35.04
0.29967	35.04
0.31633	35.03
0.33300	35.03
0.34967	35.03
0.36633	35.04
0.38300	35.04
0.39967	35.03
0.41633	35.02
0.43300	35.00
0.44967	35.00
0.46633	34.99
0.48300	35.00
0.49967	34.99
0.51633	35.00
0.53300	35.01
0.54967	35.01
0.56633	35.01
0.58300	35.01
0.59967	35.02
0.61633	35.03
0.63300	35.02
0.64967	35.02
0.66633	35.01
0.68300	35.01
0.69967	35.02
0.71633	35.01
0.73300	35.01
0.74967	35.01
0.76633	35.00
0.78300	35.00
0.79967	35.00
0.81633	35.01
0.83300	35.01
0.84967	35.01
0.86633	35.02
0.88300	35.00
0.89967	35.00
0.91633	34.99
0.93300	35.00
0.94967	34.99
0.96633	35.00
0.98300	34.99
0.99967	34.98
1.01633	34.98
1.03300	34.98
1.04967	35.00
1.06633	35.01
1.08300	35.02
1.09967	35.01
1.11633	35.02
1.13300	35.00
1.14967	34.99
1.16633	34.99
1.18300	34.99
1.19967	34.99
1.21633	34.99
1.23300	34.99
1.24967	35.00
1.26633	35.00
1.28300	35.01
1.29967	35.01
1.31633	35.02
1.33300	35.02
1.34967	35.01
1.36633	35.02
1.38300	35.02
1.39967	35.02
1.41633	35.00
1.43300	34.98
1.44967	34.97
1.46633	34.98
1.48300	34.99
1.49967	35.00
1.51633	35.00
1.53300	35.02
1.54967	35.02
1.56633	35.01
1.58300	35.01
1.59967	35.03
1.61633	35.11
1.63300	35.25
1.64967	35.46
1.66633	35.75
1.68300	36.12
1.69967	36.48
1.71633	36.82
1.73300	37.16
1.74967	37.48
1.76633	37.82
1.78300	38.15
1.79967	38.50
1.81633	38.83
1.83300	39.14
1.84967	39.47
1.86633	39.78
1.88300	40.11
1.89967	40.44
1.91633	40.77
1.93300	41.08
1.94967	41.41
1.96633	41.72
1.98300	42.05
1.99967	42.36
2.01633	42.70
2.03300	43.03
2.04967	43.33
2.06633	43.67
2.08300	43.98
2.09967	44.33
2.11633	44.62
2.13300	44.99
2.14967	45.34
2.16633	45.66
2.18300	46.00
2.19967	46.29
2.21633	46.67
2.23300	46.99
2.24967	47.30
2.26633	47.65
2.28300	47.98
2.29967	48.33
2.31633	48.66
2.33300	48.99
2.34967	49.29
2.36633	49.51
2.38300	49.63
2.39967	49.65
2.41633	49.65
2.43300	49.63
2.44967	49.66
2.46633	49.66
2.48300	49.67
2.49967	49.69
2.51633	49.69
2.53300	49.71
2.54967	49.72
2.56633	49.73
2.58300	49.75
2.59967	49.77
2.61633	49.78
2.63300	49.79
2.64967	49.80
2.66633	49.83
2.68300	49.84
2.69967	49.85
2.71633	49.85
2.73300	49.85
2.74967	49.87
2.76633	49.87
2.78300	49.87
2.79967	49.85
2.81633	49.85
2.83300	49.88
2.84967	49.91
2.86633	49.92
2.88300	49.93
2.89967	49.93
2.91633	49.92
2.93300	49.92
2.94967	49.93
2.96633	49.94
2.98300	49.95
2.99967	49.95
3.01633	49.96
3.03300	49.95
3.04967	49.96
3.06633	49.98
3.08300	49.99
3.09967	50.00
3.11633	50.02
3.13300	50.03
3.14967	50.03
3.16633	50.04
3.18300	50.04
3.19967	50.06
3.21633	50.06
3.23300	50.06
3.24967	50.07
3.26633	50.07
3.28300	50.08
3.29967	50.08
3.31633	50.09
3.33300	50.10
3.34967	50.09
3.36633	50.10
3.38300	50.11
3.39967	50.10
3.41633	50.10
3.43300	50.09
3.44967	50.09
3.46633	50.07
3.48300	50.06
3.49967	50.07
3.51633	50.07
3.53300	50.08
3.54967	50.07
3.56633	50.07
3.58300	50.06
3.59967	50.06
3.61633	50.06
3.63300	50.05
3.64967	50.05
3.66633	50.06
3.68300	50.06
3.69967	50.06
3.71633	50.07
3.73300	50.07
3.74967	50.06
3.76633	50.05
3.78300	50.06
3.79967	50.06
3.81633	50.07
3.83300	50.07
3.84967	50.07
3.86633	50.07
3.88300	50.07
3.89967	50.08
3.91633	50.08
3.93300	50.08
3.94967	50.07
3.96633	50.07
3.98300	50.06
3.99967	50.07

[Status Trace (Injection Unit Temperature)]
Interval(msec)	1000
# of Points	240
Start Time(min)	0.016
End Time(min)	4.000
Intensity Units	
Intensity Multiplier	1
R.Time (min)	Intensity
0.01633	99.97
0.03300	99.98
0.04967	99.98
0.06633	99.98
0.08300	99.98
0.09967	99.98
0.11633	99.98
0.13300	99.98
0.14967	99.98
0.16633	99.98
0.18300	99.98
0.19967	99.98
0.21633	99.99
0.23300	99.98
0.24967	99.99
0.26633	99.98
0.28300	99.99
0.29967	99.99
0.31633	99.99
0.33300	99.99
0.34967	99.99
0.36633	99.99
0.38300	99.99
0.39967	99.99
0.41633	99.98
0.43300	99.99
0.44967	99.99
0.46633	99.99
0.48300	99.99
0.49967	99.99
0.51633	99.99
0.53300	99.99
0.54967	99.99
0.56633	99.99
0.58300	99.99
0.59967	99.99
0.61633	99.99
0.63300	99.99
0.64967	99.99
0.66633	99.99
0.68300	99.99
0.69967	99.99
0.71633	99.99
0.73300	99.99
0.74967	99.99
0.76633	99.99
0.78300	99.99
0.79967	99.99
0.81633	99.99
0.83300	99.99
0.84967	99.98
0.86633	99.99
0.88300	99.98
0.89967	99.99
0.91633	99.99
0.93300	99.99
0.94967	99.98
0.96633	99.98
0.98300	99.99
0.99967	99.98
1.01633	99.99
1.03300	99.98
1.04967	99.98
1.06633	99.99
1.08300	99.99
1.09967	99.98
1.11633	99.98
1.13300	99.99
1.14967	99.98
1.16633	99.98
1.18300	99.99
1.19967	99.99
1.21633	99.99
1.23300	99.98
1.24967	99.98
1.26633	99.98
1.28300	99.98
1.29967	99.99
1.31633	99.98
1.33300	99.99
1.34967	99.99
1.36633	99.99
1.38300	99.99
1.39967	99.99
1.41633	99.99
1.43300	99.99
1.44967	99.99
1.46633	99.99
1.48300	99.99
1.49967	99.99
1.51633	99.98
1.53300	99.99
1.54967	99.99
1.56633	99.99
1.58300	99.99
1.59967	99.99
1.61633	99.99
1.63300	99.99
1.64967	99.99
1.66633	99.99
1.68300	99.99
1.69967	99.99
1.71633	99.99
1.73300	99.99
1.74967	99.99
1.76633	99.99
1.78300	99.99
1.79967	99.99
1.81633	99.98
1.83300	99.99
1.84967	99.99
1.86633	99.99
1.88300	99.99
1.89967	99.98
1.91633	99.98
1.93300	99.98
1.94967	99.98
1.96633	99.98
1.98300	99.98
1.99967	99.97
2.01633	99.98
2.03300	99.98
2.04967	99.98
2.06633	99.97
2.08300	99.98
2.09967	99.97
2.11633	99.97
2.13300	99.96
2.14967	99.97
2.16633	99.97
2.18300	99.97
2.19967	99.97
2.21633	99.97
2.23300	99.97
2.24967	99.97
2.26633	99.97
2.28300	99.97
2.29967	99.97
2.31633	99.97
2.33300	99.97
2.34967	99.97
2.36633	99.97
2.38300	99.97
2.39967	99.97
2.41633	99.97
2.43300	99.97
2.44967	99.97
2.46633	99.97
2.48300	99.97
2.49967	99.97
2.51633	99.97
2.53300	99.98
2.54967	99.98
2.56633	99.98
2.58300	99.97
2.59967	99.98
2.61633	99.98
2.63300	99.98
2.64967	99.98
2.66633	99.98
2.68300	99.98
2.69967	99.98
2.71633	99.98
2.73300	99.99
2.74967	99.99
2.76633	99.99
2.78300	99.99
2.79967	99.99
2.81633	99.99
2.83300	100.00
2.84967	99.99
2.86633	100.00
2.88300	100.00
2.89967	99.99
2.91633	100.00
2.93300	100.00
2.94967	100.01
2.96633	100.01
2.98300	100.01
2.99967	100.00
3.01633	100.01
3.03300	100.01
3.04967	100.01
3.06633	100.01
3.08300	100.01
3.09967	100.01
3.11633	100.02
3.13300	100.02
3.14967	100.02
3.16633	100.02
3.18300	100.02
3.19967	100.02
3.21633	100.02
3.23300	100.02
3.24967	100.03
3.26633	100.03
3.28300	100.03
3.29967	100.03
3.31633	100.03
3.33300	100.03
3.34967	100.03
3.36633	100.03
3.38300	100.03
3.39967	100.03
3.41633	100.03
3.43300	100.04
3.44967	100.04
3.46633	100.04
3.48300	100.04
3.49967	100.03
3.51633	100.04
3.53300	100.05
3.54967	100.04
3.56633	100.04
3.58300	100.04
3.59967	100.05
3.61633	100.05
3.63300	100.05
3.64967	100.05
3.66633	100.04
3.68300	100.05
3.69967	100.05
3.71633	100.05
3.73300	100.05
3.74967	100.05
3.76633	100.05
3.78300	100.05
3.79967	100.05
3.81633	100.05
3.83300	100.05
3.84967	100.05
3.86633	100.05
3.88300	100.05
3.89967	100.05
3.91633	100.05
3.93300	100.05
3.94967	100.05
3.96633	100.05
3.98300	100.05
3.99967	100.05

[Status Trace (Carrier Gas Pressure)]
Interval(msec)	1000
# of Points	240
Start Time(min)	0.016
End Time(min)	4.000
Intensity Units	
Intensity Multiplier	1
R.Time (min)	Intensity
0.01633	56.84
0.03300	55.98
0.04967	58.26
0.06633	59.88
0.08300	58.37
0.09967	57.98
0.11633	58.00
0.13300	58.01
0.14967	58.01
0.16633	58.00
0.18300	58.00
0.19967	58.00
0.21633	58.00
0.23300	58.00
0.24967	58.00
0.26633	58.00
0.28300	58.00
0.29967	58.00
0.31633	58.00
0.33300	58.00
0.34967	58.00
0.36633	58.00
0.38300	58.00
0.39967	58.00
0.41633	58.00
0.43300	58.00
0.44967	58.00
0.46633	58.00
0.48300	58.00
0.49967	58.00
0.51633	58.00
0.53300	58.00
0.54967	58.00
0.56633	58.00
0.58300	58.00
0.59967	58.00
0.61633	58.00
0.63300	58.00
0.64967	58.00
0.66633	58.00
0.68300	58.00
0.69967	58.00
0.71633	58.00
0.73300	58.00
0.74967	58.00
0.76633	58.00
0.78300	58.00
0.79967	58.00
0.81633	58.00
0.83300	58.00
0.84967	58.00
0.86633	58.00
0.88300	58.00
0.89967	58.00
0.91633	58.00
0.93300	58.00
0.94967	58.00
0.96633	58.00
0.98300	58.00
0.99967	58.00
1.01633	58.00
1.03300	58.00
1.04967	58.00
1.06633	58.00
1.08300	58.00
1.09967	58.00
1.11633	58.00
1.13300	58.00
1.14967	58.00
1.16633	58.00
1.18300	58.00
1.19967	58.00
1.21633	58.00
1.23300	58.00
1.24967	58.00
1.26633	58.00
1.28300	58.00
1.29967	58.00
1.31633	58.00
1.33300	58.00
1.34967	58.00
1.36633	58.00
1.38300	58.00
1.39967	58.00
1.41633	58.00
1.43300	58.00
1.44967	58.00
1.46633	58.00
1.48300	58.00
1.49967	58.00
1.51633	58.00
1.53300	58.00
1.54967	58.00
1.56633	58.00
1.58300	58.00
1.59967	58.00
1.61633	58.00
1.63300	58.00
1.64967	58.00
1.66633	58.01
1.68300	58.01
1.69967	58.00
1.71633	58.00
1.73300	58.00
1.74967	58.00
1.76633	58.00
1.78300	58.00
1.79967	58.00
1.81633	58.00
1.83300	58.00
1.84967	58.00
1.86633	58.00
1.88300	58.00
1.89967	58.00
1.91633	58.00
1.93300	58.00
1.94967	58.00
1.96633	58.00
1.98300	58.00
1.99967	58.00
2.01633	58.00
2.03300	58.00
2.04967	58.00
2.06633	58.00
2.08300	58.00
2.09967	58.00
2.11633	58.00
2.13300	58.00
2.14967	58.00
2.16633	58.00
2.18300	58.00
2.19967	58.00
2.21633	58.00
2.23300	58.00
2.24967	58.00
2.26633	58.00
2.28300	58.00
2.29967	58.00
2.31633	58.00
2.33300	58.00
2.34967	58.00
2.36633	58.00
2.38300	57.99
2.39967	57.99
2.41633	58.00
2.43300	58.00
2.44967	58.00
2.46633	58.00
2.48300	58.00
2.49967	58.00
2.51633	57.99
2.53300	57.99
2.54967	58.00
2.56633	58.00
2.58300	58.00
2.59967	58.00
2.61633	58.00
2.63300	58.00
2.64967	58.00
2.66633	58.00
2.68300	58.00
2.69967	58.00
2.71633	58.00
2.73300	58.00
2.74967	58.00
2.76633	58.00
2.78300	58.00
2.79967	58.00
2.81633	58.00
2.83300	58.00
2.84967	58.00
2.86633	58.00
2.88300	58.00
2.89967	58.00
2.91633	58.00
2.93300	58.00
2.94967	58.00
2.96633	58.00
2.98300	58.00
2.99967	58.00
3.01633	58.00
3.03300	58.00
3.04967	58.00
3.06633	58.00
3.08300	58.00
3.09967	58.00
3.11633	58.00
3.13300	58.00
3.14967	58.00
3.16633	58.00
3.18300	58.00
3.19967	58.00
3.21633	58.00
3.23300	58.00
3.24967	58.00
3.26633	58.00
3.28300	58.00
3.29967	58.00
3.31633	58.00
3.33300	58.00
3.34967	58.00
3.36633	58.00
3.38300	58.00
3.39967	58.00
3.41633	58.00
3.43300	58.00
3.44967	58.00
3.46633	58.00
3.48300	58.00
3.49967	58.00
3.51633	58.00
3.53300	58.00
3.54967	58.00
3.56633	58.00
3.58300	58.00
3.59967	58.00
3.61633	58.00
3.63300	58.00
3.64967	58.00
3.66633	58.00
3.68300	58.00
3.69967	58.00
3.71633	58.00
3.73300	58.00
3.74967	58.00
3.76633	58.00
3.78300	58.00
3.79967	58.00
3.81633	58.00
3.83300	58.00
3.84967	58.00
3.86633	58.00
3.88300	58.00
3.89967	58.00
3.91633	58.00
3.93300	58.00
3.94967	58.00
3.96633	58.00
3.98300	58.00
3.99967	58.00

[Status Trace (Carrier Gas Flow)]
Interval(msec)	1000
# of Points	240
Start Time(min)	0.016
End Time(min)	4.000
Intensity Units	
Intensity Multiplier	1
R.Time (min)	Intensity
0.01633	33.79
0.03300	34.55
0.04967	34.55
0.06633	34.50
0.08300	34.51
0.09967	34.52
0.11633	34.52
0.13300	34.52
0.14967	34.52
0.16633	34.52
0.18300	34.52
0.19967	34.52
0.21633	34.52
0.23300	34.52
0.24967	34.52
0.26633	34.52
0.28300	34.52
0.29967	34.52
0.31633	34.52
0.33300	34.52
0.34967	34.51
0.36633	34.52
0.38300	34.52
0.39967	34.52
0.41633	34.52
0.43300	34.52
0.44967	34.52
0.46633	34.52
0.48300	34.51
0.49967	34.52
0.51633	34.52
0.53300	34.52
0.54967	34.52
0.56633	34.53
0.58300	34.52
0.59967	34.51
0.61633	34.52
0.63300	34.52
0.64967	34.52
0.66633	34.51
0.68300	34.51
0.69967	34.52
0.71633	34.52
0.73300	34.51
0.74967	34.52
0.76633	34.52
0.78300	34.51
0.79967	34.52
0.81633	34.52
0.83300	34.52
0.84967	34.51
0.86633	34.52
0.88300	34.53
0.89967	34.52
0.91633	34.52
0.93300	34.52
0.94967	34.52
0.96633	34.52
0.98300	34.51
0.99967	34.53
1.01633	34.52
1.03300	34.52
1.04967	34.52
1.06633	34.52
1.08300	34.52
1.09967	34.52
1.11633	34.52
1.13300	34.52
1.14967	34.52
1.16633	34.52
1.18300	34.52
1.19967	34.52
1.21633	34.52
1.23300	34.52
1.24967	34.52
1.26633	34.52
1.28300	34.52
1.29967	34.52
1.31633	34.52
1.33300	34.52
1.34967	34.51
1.36633	34.52
1.38300	34.52
1.39967	34.52
1.41633	34.51
1.43300	34.52
1.44967	34.52
1.46633	34.52
1.48300	34.52
1.49967	34.52
1.51633	34.52
1.53300	34.52
1.54967	34.52
1.56633	34.52
1.58300	34.52
1.59967	34.52
1.61633	34.52
1.63300	34.52
1.64967	34.52
1.66633	34.52
1.68300	34.52
1.69967	34.52
1.71633	34.52
1.73300	34.52
1.74967	34.52
1.76633	34.52
1.78300	34.52
1.79967	34.52
1.81633	34.52
1.83300	34.52
1.84967	34.52
1.86633	34.52
1.88300	34.52
1.89967	34.52
1.91633	34.52
1.93300	34.52
1.94967	34.52
1.96633	34.52
1.98300	34.52
1.99967	34.52
2.01633	34.52
2.03300	34.52
2.04967	34.52
2.06633	34.52
2.08300	34.52
2.09967	34.52
2.11633	34.52
2.13300	34.52
2.14967	34.52
2.16633	34.51
2.18300	34.51
2.19967	34.52
2.21633	34.52
2.23300	34.52
2.24967	34.52
2.26633	34.52
2.28300	34.51
2.29967	34.52
2.31633	34.52
2.33300	34.52
2.34967	34.52
2.36633	34.52
2.38300	34.52
2.39967	34.51
2.41633	34.52
2.43300	34.52
2.44967	34.52
2.46633	34.52
2.48300	34.52
2.49967	34.52
2.51633	34.52
2.53300	34.51
2.54967	34.52
2.56633	34.52
2.58300	34.51
2.59967	34.52
2.61633	34.52
2.63300	34.52
2.64967	34.52
2.66633	34.52
2.68300	34.52
2.69967	34.52
2.71633	34.52
2.73300	34.51
2.74967	34.52
2.76633	34.52
2.78300	34.51
2.79967	34.53
2.81633	34.52
2.83300	34.52
2.84967	34.52
2.86633	34.52
2.88300	34.52
2.89967	34.51
2.91633	34.52
2.93300	34.52
2.94967	34.52
2.96633	34.52
2.98300	34.52
2.99967	34.52
3.01633	34.52
3.03300	34.52
3.04967	34.52
3.06633	34.52
3.08300	34.52
3.09967	34.52
3.11633	34.53
3.13300	34.52
3.14967	34.52
3.16633	34.52
3.18300	34.52
3.19967	34.52
3.21633	34.52
3.23300	34.52
3.24967	34.52
3.26633	34.52
3.28300	34.52
3.29967	34.52
3.31633	34.52
3.33300	34.52
3.34967	34.52
3.36633	34.52
3.38300	34.52
3.39967	34.52
3.41633	34.52
3.43300	34.52
3.44967	34.52
3.46633	34.52
3.48300	34.52
3.49967	34.52
3.51633	34.52
3.53300	34.52
3.54967	34.52
3.56633	34.52
3.58300	34.52
3.59967	34.52
3.61633	34.52
3.63300	34.52
3.64967	34.52
3.66633	34.52
3.68300	34.53
3.69967	34.52
3.71633	34.51
3.73300	34.52
3.74967	34.52
3.76633	34.52
3.78300	34.52
3.79967	34.52
3.81633	34.52
3.83300	34.52
3.84967	34.52
3.86633	34.52
3.88300	34.52
3.89967	34.52
3.91633	34.51
3.93300	34.52
3.94967	34.52
3.96633	34.52
3.98300	34.52
3.99967	34.52

[Status Trace (Column Flow)]
Interval(msec)	1000
# of Points	240
Start Time(min)	0.016
End Time(min)	4.000
Intensity Units	
Intensity Multiplier	1
R.Time (min)	Intensity
0.01633	5.38
0.03300	5.28
0.04967	5.54
0.06633	5.73
0.08300	5.55
0.09967	5.51
0.11633	5.51
0.13300	5.51
0.14967	5.51
0.16633	5.51
0.18300	5.51
0.19967	5.51
0.21633	5.51
0.23300	5.51
0.24967	5.51
0.26633	5.51
0.28300	5.51
0.29967	5.51
0.31633	5.51
0.33300	5.51
0.34967	5.51
0.36633	5.51
0.38300	5.51
0.39967	5.51
0.41633	5.51
0.43300	5.51
0.44967	5.51
0.46633	5.51
0.48300	5.51
0.49967	5.51
0.51633	5.51
0.53300	5.51
0.54967	5.51
0.56633	5.51
0.58300	5.51
0.59967	5.51
0.61633	5.51
0.63300	5.51
0.64967	5.51
0.66633	5.51
0.68300	5.51
0.69967	5.51
0.71633	5.51
0.73300	5.51
0.74967	5.51
0.76633	5.51
0.78300	5.51
0.79967	5.51
0.81633	5.51
0.83300	5.51
0.84967	5.51
0.86633	5.51
0.88300	5.51
0.89967	5.51
0.91633	5.51
0.93300	5.51
0.94967	5.51
0.96633	5.51
0.98300	5.51
0.99967	5.51
1.01633	5.51
1.03300	5.51
1.04967	5.51
1.06633	5.51
1.08300	5.51
1.09967	5.51
1.11633	5.51
1.13300	5.51
1.14967	5.51
1.16633	5.51
1.18300	5.51
1.19967	5.51
1.21633	5.51
1.23300	5.51
1.24967	5.51
1.26633	5.51
1.28300	5.51
1.29967	5.51
1.31633	5.51
1.33300	5.51
1.34967	5.51
1.36633	5.51
1.38300	5.51
1.39967	5.51
1.41633	5.51
1.43300	5.51
1.44967	5.51
1.46633	5.51
1.48300	5.51
1.49967	5.51
1.51633	5.51
1.53300	5.51
1.54967	5.51
1.56633	5.51
1.58300	5.51
1.59967	5.51
1.61633	5.51
1.63300	5.51
1.64967	5.50
1.66633	5.49
1.68300	5.48
1.69967	5.47
1.71633	5.46
1.73300	5.45
1.74967	5.44
1.76633	5.43
1.78300	5.41
1.79967	5.40
1.81633	5.39
1.83300	5.38
1.84967	5.37
1.86633	5.37
1.88300	5.36
1.89967	5.35
1.91633	5.34
1.93300	5.33
1.94967	5.32
1.96633	5.31
1.98300	5.30
1.99967	5.29
2.01633	5.28
2.03300	5.27
2.04967	5.26
2.06633	5.25
2.08300	5.24
2.09967	5.23
2.11633	5.22
2.13300	5.21
2.14967	5.20
2.16633	5.19
2.18300	5.18
2.19967	5.17
2.21633	5.16
2.23300	5.15
2.24967	5.15
2.26633	5.14
2.28300	5.13
2.29967	5.12
2.31633	5.11
2.33300	5.10
2.34967	5.09
2.36633	5.08
2.38300	5.08
2.39967	5.08
2.41633	5.08
2.43300	5.08
2.44967	5.08
2.46633	5.08
2.48300	5.08
2.49967	5.08
2.51633	5.08
2.53300	5.08
2.54967	5.08
2.56633	5.08
2.58300	5.08
2.59967	5.08
2.61633	5.08
2.63300	5.08
2.64967	5.08
2.66633	5.08
2.68300	5.07
2.69967	5.07
2.71633	5.07
2.73300	5.07
2.74967	5.07
2.76633	5.07
2.78300	5.07
2.79967	5.07
2.81633	5.07
2.83300	5.07
2.84967	5.07
2.86633	5.07
2.88300	5.07
2.89967	5.07
2.91633	5.07
2.93300	5.07
2.94967	5.07
2.96633	5.07
2.98300	5.07
2.99967	5.07
3.01633	5.07
3.03300	5.07
3.04967	5.07
3.06633	5.07
3.08300	5.07
3.09967	5.07
3.11633	5.07
3.13300	5.07
3.14967	5.07
3.16633	5.07
3.18300	5.07
3.19967	5.07
3.21633	5.07
3.23300	5.07
3.24967	5.07
3.26633	5.07
3.28300	5.07
3.29967	5.07
3.31633	5.07
3.33300	5.07
3.34967	5.07
3.36633	5.07
3.38300	5.07
3.39967	5.07
3.41633	5.07
3.43300	5.07
3.44967	5.07
3.46633	5.07
3.48300	5.07
3.49967	5.07
3.51633	5.07
3.53300	5.07
3.54967	5.07
3.56633	5.07
3.58300	5.07
3.59967	5.07
3.61633	5.07
3.63300	5.07
3.64967	5.07
3.66633	5.07
3.68300	5.07
3.69967	5.07
3.71633	5.07
3.73300	5.07
3.74967	5.07
3.76633	5.07
3.78300	5.07
3.79967	5.07
3.81633	5.07
3.83300	5.07
3.84967	5.07
3.86633	5.07
3.88300	5.07
3.89967	5.07
3.91633	5.07
3.93300	5.07
3.94967	5.07
3.96633	5.07
3.98300	5.07
3.99967	5.07

[Status Trace (Linear Velocity)]
Interval(msec)	1000
# of Points	240
Start Time(min)	0.016
End Time(min)	4.000
Intensity Units	
Intensity Multiplier	1
R.Time (min)	Intensity
0.01633	38.25
0.03300	37.68
0.04967	39.18
0.06633	40.24
0.08300	39.25
0.09967	38.99
0.11633	39.01
0.13300	39.02
0.14967	39.02
0.16633	39.01
0.18300	39.01
0.19967	39.01
0.21633	39.01
0.23300	39.01
0.24967	39.01
0.26633	39.01
0.28300	39.01
0.29967	39.01
0.31633	39.01
0.33300	39.01
0.34967	39.01
0.36633	39.01
0.38300	39.01
0.39967	39.01
0.41633	39.01
0.43300	39.02
0.44967	39.02
0.46633	39.02
0.48300	39.02
0.49967	39.02
0.51633	39.02
0.53300	39.01
0.54967	39.01
0.56633	39.01
0.58300	39.01
0.59967	39.01
0.61633	39.01
0.63300	39.01
0.64967	39.01
0.66633	39.01
0.68300	39.01
0.69967	39.01
0.71633	39.01
0.73300	39.01
0.74967	39.01
0.76633	39.01
0.78300	39.02
0.79967	39.01
0.81633	39.01
0.83300	39.01
0.84967	39.01
0.86633	39.01
0.88300	39.01
0.89967	39.02
0.91633	39.02
0.93300	39.01
0.94967	39.02
0.96633	39.01
0.98300	39.02
0.99967	39.02
1.01633	39.02
1.03300	39.02
1.04967	39.02
1.06633	39.01
1.08300	39.01
1.09967	39.01
1.11633	39.01
1.13300	39.01
1.14967	39.02
1.16633	39.02
1.18300	39.02
1.19967	39.01
1.21633	39.02
1.23300	39.02
1.24967	39.01
1.26633	39.01
1.28300	39.01
1.29967	39.01
1.31633	39.01
1.33300	39.01
1.34967	39.01
1.36633	39.01
1.38300	39.01
1.39967	39.01
1.41633	39.01
1.43300	39.02
1.44967	39.02
1.46633	39.02
1.48300	39.02
1.49967	39.01
1.51633	39.01
1.53300	39.01
1.54967	39.01
1.56633	39.01
1.58300	39.01
1.59967	39.01
1.61633	39.01
1.63300	38.99
1.64967	38.97
1.66633	38.95
1.68300	38.91
1.69967	38.87
1.71633	38.84
1.73300	38.81
1.74967	38.78
1.76633	38.75
1.78300	38.71
1.79967	38.68
1.81633	38.65
1.83300	38.62
1.84967	38.59
1.86633	38.56
1.88300	38.53
1.89967	38.50
1.91633	38.47
1.93300	38.44
1.94967	38.41
1.96633	38.38
1.98300	38.35
1.99967	38.32
2.01633	38.29
2.03300	38.26
2.04967	38.23
2.06633	38.20
2.08300	38.17
2.09967	38.14
2.11633	38.11
2.13300	38.08
2.14967	38.05
2.16633	38.02
2.18300	37.99
2.19967	37.96
2.21633	37.93
2.23300	37.90
2.24967	37.87
2.26633	37.84
2.28300	37.81
2.29967	37.78
2.31633	37.75
2.33300	37.72
2.34967	37.69
2.36633	37.67
2.38300	37.66
2.39967	37.66
2.41633	37.66
2.43300	37.66
2.44967	37.66
2.46633	37.66
2.48300	37.66
2.49967	37.66
2.51633	37.65
2.53300	37.65
2.54967	37.66
2.56633	37.65
2.58300	37.65
2.59967	37.65
2.61633	37.65
2.63300	37.65
2.64967	37.65
2.66633	37.65
2.68300	37.64
2.69967	37.64
2.71633	37.64
2.73300	37.64
2.74967	37.64
2.76633	37.64
2.78300	37.64
2.79967	37.64
2.81633	37.64
2.83300	37.64
2.84967	37.64
2.86633	37.64
2.88300	37.64
2.89967	37.64
2.91633	37.64
2.93300	37.64
2.94967	37.64
2.96633	37.64
2.98300	37.64
2.99967	37.63
3.01633	37.63
3.03300	37.63
3.04967	37.63
3.06633	37.63
3.08300	37.63
3.09967	37.63
3.11633	37.63
3.13300	37.63
3.14967	37.63
3.16633	37.63
3.18300	37.63
3.19967	37.63
3.21633	37.63
3.23300	37.62
3.24967	37.62
3.26633	37.62
3.28300	37.62
3.29967	37.62
3.31633	37.62
3.33300	37.62
3.34967	37.62
3.36633	37.62
3.38300	37.62
3.39967	37.62
3.41633	37.62
3.43300	37.62
3.44967	37.62
3.46633	37.62
3.48300	37.62
3.49967	37.63
3.51633	37.62
3.53300	37.62
3.54967	37.62
3.56633	37.62
3.58300	37.62
3.59967	37.63
3.61633	37.63
3.63300	37.63
3.64967	37.63
3.66633	37.63
3.68300	37.63
3.69967	37.62
3.71633	37.62
3.73300	37.62
3.74967	37.63
3.76633	37.63
3.78300	37.63
3.79967	37.63
3.81633	37.62
3.83300	37.62
3.84967	37.62
3.86633	37.62
3.88300	37.62
3.89967	37.62
3.91633	37.62
3.93300	37.62
3.94967	37.62
3.96633	37.63
3.98300	37.62
3.99967	37.63

