[Header]
Application Name	LabSolutions
Version	5.110
Data File Name	C:\Users\User\Desktop\Junior\UIC Prairie Sampling\6.2.23\06022023_044.gcd
Output Date	6/12/2023
Output Time	11:47:11 AM

[File Information]
Type	Data File
Generated	6/6/2023 2:10:22 PM
Generated by	System Administrator
Modified	6/6/2023 2:17:51 PM
Modified by	System Administrator

[Sample Information]
Operator Name	System Administrator
Acquired	6/6/2023 2:13:50 PM
Sample Type	0:Unknown
Level	0
Sample Name	044
Sample ID	044
ISTD Amount1	1
ISTD Amount2	1
ISTD Amount3	1
ISTD Amount4	1
ISTD Amount5	1
ISTD Amount6	1
ISTD Amount7	1
ISTD Amount8	1
ISTD Amount9	1
ISTD Amount10	1
ISTD Amount11	1
ISTD Amount12	1
ISTD Amount13	1
ISTD Amount14	1
ISTD Amount15	1
ISTD Amount16	1
ISTD Amount17	1
ISTD Amount18	1
ISTD Amount19	1
ISTD Amount20	1
ISTD Amount21	1
ISTD Amount22	1
ISTD Amount23	1
ISTD Amount24	1
ISTD Amount25	1
ISTD Amount26	1
ISTD Amount27	1
ISTD Amount28	1
ISTD Amount29	1
ISTD Amount30	1
ISTD Amount31	1
ISTD Amount32	1
Sample Amount	1
Dilution Factor	1
Vial#	43
Injection Volume	1
Injection Count	1
Bar Code	

[Original Files]
Data File	C:\Users\User\Desktop\Junior\UIC Prairie Sampling\6.2.23\06022023_044.gcd
Method File	C:\LabSolutions\Data\GHG_4min_2022\ghg3_togas_w_acet_4 min_new_int.gcm
Batch File	C:\LabSolutions\Data\AutoSamplerTesting\06022023.gcb
Report Format File	c:\LabSolutions\System\DEFAULT.lsr

[File Description]


[Configuration]
Instrument Name	C0B7VH3-Instrument1
Instrument #	1
Line #	1
# of Detectors	3
Detector ID	DET#1	DET#2	DET#3
Detector Name	FID	PTCD	ECD
# of Channels	1	1	1

[Peak Table(Ch1)]
# of Peaks	3
Peak#	R.Time	I.Time	F.Time	Area	Height	A/H	Conc.	Mark	ID#	Name	k'	Plate #	Plate Ht.	Tailing	Resolution	Sep.Factor	Area Ratio	Height Ratio	Conc. %	Norm Conc.
1	1.472	1.432	1.531	5815	2861	2.033	0.000	   	1	CO	0.000	9815	15.283	1.202	0.000	0.000	0	0	0.000	0.000
2	1.560	1.531	1.611	4385	2274	1.928	21.376	 V 	2	CH4	0.060	11750	12.766	1.240	1.504	0.000	0	0	5.569	5.569
3	1.989	1.941	2.392	1880896	912836	2.060	362.483	   	3	CO2	0.351	17691	8.479	1.221	7.309	5.875	0	0	94.431	94.431

[Peak Table(Ch2)]
# of Peaks	0

[Peak Table(Ch3)]
# of Peaks	4
Peak#	R.Time	I.Time	F.Time	Area	Height	A/H	Conc.	Mark	ID#	Name	k'	Plate #	Plate Ht.	Tailing	Resolution	Sep.Factor	Area Ratio	Height Ratio	Conc. %	Norm Conc.
1	2.499	2.392	2.532	3159	724	4.366	0.000	   			0.000	758	197.992	0.000	0.000	0.000	0	0	0.000	0.000
2	2.565	2.532	2.667	4916	697	7.056	0.000	 V 			0.026	22	6950.338	0.000	0.051	0.000	0	0	0.000	0.000
3	2.704	2.667	2.781	3575	556	6.432	0.000	 V 			0.082	0	0.000	0.000	0.000	3.111	0	0	0.000	0.000
4	2.887	2.781	3.870	37282	5418	6.881	0.552	 V 	1	N2O	0.156	11705	12.815	0.000	0.000	1.893	0	0	100.000	100.000

[Compound Results(Ch1)]
# of IDs	6
ID#	Name	R.Time	Area	Height	Conc.	Curve	3rd	2nd	1st	Constant	Area Ratio	Height Ratio	Conc. %	Norm Conc.
1	CO	1.472	5815	2861	0.000	Linear	0.000000e+00	0.000000e+00	0.000000e+00	0.000000e+00	0	0	0.000	0.000
2	CH4	1.560	4385	2274	21.376	Linear	0.000000e+00	0.000000e+00	2.051179e+002	0.000000e+00	0	0	5.569	5.569
3	CO2	1.989	1880896	912836	362.483	Linear	0.000000e+00	0.000000e+00	5.188919e+003	0.000000e+00	0	0	94.431	94.431
4	Ethylene	0.000	0	0	0.000	Linear	0.000000e+00	0.000000e+00	0.000000e+00	0.000000e+00	0	0	0.000	0.000
5	Acetylene	0.000	0	0	0.000	Linear	0.000000e+00	0.000000e+00	0.000000e+00	0.000000e+00	0	0	0.000	0.000
6	Ethane	0.000	0	0	0.000	Linear	0.000000e+00	0.000000e+00	0.000000e+00	0.000000e+00	0	0	0.000	0.000

[Compound Results(Ch2)]
# of IDs	5
ID#	Name	R.Time	Area	Height	Conc.	Curve	3rd	2nd	1st	Constant	Area Ratio	Height Ratio	Conc. %	Norm Conc.
1	Hydrogen	0.000	0	0	0.000	Linear	0.000000e+00	0.000000e+00	0.000000e+00	0.000000e+00	0	0	0.000	0.000
2	Oxygen	0.000	0	0	0.000	Linear	0.000000e+00	0.000000e+00	0.000000e+00	0.000000e+00	0	0	0.000	0.000
3	Nitrogen	0.000	0	0	0.000	Linear	0.000000e+00	0.000000e+00	0.000000e+00	0.000000e+00	0	0	0.000	0.000
4	Methane	0.000	0	0	0.000	Linear	0.000000e+00	0.000000e+00	0.000000e+00	0.000000e+00	0	0	0.000	0.000
5	Carbon Monoxide	0.000	0	0	0.000	Linear	0.000000e+00	0.000000e+00	0.000000e+00	0.000000e+00	0	0	0.000	0.000

[Compound Results(Ch3)]
# of IDs	2
ID#	Name	R.Time	Area	Height	Conc.	Curve	3rd	2nd	1st	Constant	Area Ratio	Height Ratio	Conc. %	Norm Conc.
1	N2O	2.887	37282	5418	0.552	Linear	0.000000e+00	0.000000e+00	6.759880e+004	0.000000e+00	0	0	100.000	100.000
2	SF6	0.000	0	0	0.000	Linear	0.000000e+00	0.000000e+00	0.000000e+00	0.000000e+00	0	0	0.000	0.000

[Group Results(Ch1)]
# of Groups	0

[Group Results(Ch2)]
# of Groups	0

[Group Results(Ch3)]
# of Groups	0

[Chromatogram (Ch1)]
Interval(msec)	220
# of Points	1091
Start Time(min)	0.002
End Time(min)	3.998
R.Time (min)	Intensity
0.00167	21
0.00533	14
0.00900	5
0.01267	-7
0.01633	-14
0.02000	-14
0.02367	-12
0.02733	-11
0.03100	-10
0.03467	-6
0.03833	-2
0.04200	0
0.04567	2
0.04933	5
0.05300	5
0.05667	3
0.06033	4
0.06400	6
0.06767	7
0.07133	6
0.07500	0
0.07867	-8
0.08233	-16
0.08600	-20
0.08967	-19
0.09333	-16
0.09700	-12
0.10067	-6
0.10433	-1
0.10800	2
0.11167	8
0.11533	17
0.11900	21
0.12267	22
0.12633	23
0.13000	23
0.13367	20
0.13733	15
0.14100	8
0.14467	2
0.14833	-4
0.15200	-6
0.15567	-8
0.15933	-8
0.16300	-7
0.16667	-3
0.17033	0
0.17400	4
0.17767	7
0.18133	10
0.18500	15
0.18867	23
0.19233	26
0.19600	23
0.19967	15
0.20333	7
0.20700	-1
0.21067	-5
0.21433	-3
0.21800	-0
0.22167	2
0.22533	5
0.22900	8
0.23267	11
0.23633	9
0.24000	5
0.24367	4
0.24733	4
0.25100	7
0.25467	10
0.25833	11
0.26200	8
0.26567	-1
0.26933	-10
0.27300	-15
0.27667	-14
0.28033	-6
0.28400	3
0.28767	14
0.29133	20
0.29500	17
0.29867	9
0.30233	6
0.30600	5
0.30967	3
0.31333	2
0.31700	-1
0.32067	-5
0.32433	-7
0.32800	-5
0.33167	1
0.33533	5
0.33900	6
0.34267	5
0.34633	5
0.35000	9
0.35367	14
0.35733	18
0.36100	21
0.36467	20
0.36833	19
0.37200	16
0.37567	8
0.37933	2
0.38300	-3
0.38667	-9
0.39033	-12
0.39400	-16
0.39767	-18
0.40133	-18
0.40500	-17
0.40867	-17
0.41233	-16
0.41600	-11
0.41967	-5
0.42333	0
0.42700	6
0.43067	13
0.43433	17
0.43800	18
0.44167	15
0.44533	7
0.44900	-1
0.45267	-7
0.45633	-8
0.46000	-9
0.46367	-10
0.46733	-8
0.47100	-3
0.47467	-3
0.47833	-5
0.48200	-8
0.48567	-9
0.48933	-9
0.49300	-9
0.49667	-8
0.50033	-9
0.50400	-10
0.50767	-11
0.51133	-8
0.51500	-3
0.51867	2
0.52233	6
0.52600	8
0.52967	9
0.53333	8
0.53700	8
0.54067	6
0.54433	3
0.54800	1
0.55167	-1
0.55533	-2
0.55900	1
0.56267	5
0.56633	11
0.57000	14
0.57367	15
0.57733	16
0.58100	16
0.58467	16
0.58833	15
0.59200	12
0.59567	7
0.59933	2
0.60300	-5
0.60667	-11
0.61033	-16
0.61400	-17
0.61767	-16
0.62133	-14
0.62500	-11
0.62867	-9
0.63233	-7
0.63600	-6
0.63967	-7
0.64333	-5
0.64700	-4
0.65067	-2
0.65433	-2
0.65800	-3
0.66167	-4
0.66533	-6
0.66900	-9
0.67267	-14
0.67633	-18
0.68000	-21
0.68367	-18
0.68733	-15
0.69100	-10
0.69467	-3
0.69833	2
0.70200	2
0.70567	-2
0.70933	-7
0.71300	-9
0.71667	-8
0.72033	-6
0.72400	-3
0.72767	-1
0.73133	-1
0.73500	-1
0.73867	-1
0.74233	-0
0.74600	-0
0.74967	-2
0.75333	-6
0.75700	-11
0.76067	-18
0.76433	-24
0.76800	-26
0.77167	-23
0.77533	-16
0.77900	-8
0.78267	-1
0.78633	3
0.79000	4
0.79367	7
0.79733	11
0.80100	17
0.80467	20
0.80833	16
0.81200	12
0.81567	9
0.81933	9
0.82300	8
0.82667	7
0.83033	3
0.83400	-0
0.83767	-2
0.84133	-4
0.84500	-5
0.84867	-7
0.85233	-8
0.85600	-10
0.85967	-12
0.86333	-15
0.86700	-18
0.87067	-20
0.87433	-16
0.87800	-11
0.88167	-8
0.88533	-7
0.88900	-8
0.89267	-10
0.89633	-11
0.90000	-11
0.90367	-12
0.90733	-14
0.91100	-16
0.91467	-21
0.91833	-25
0.92200	-30
0.92567	-34
0.92933	-35
0.93300	-34
0.93667	-27
0.94033	-19
0.94400	-11
0.94767	-7
0.95133	-6
0.95500	-7
0.95867	-10
0.96233	-15
0.96600	-20
0.96967	-21
0.97333	-19
0.97700	-17
0.98067	-19
0.98433	-23
0.98800	-25
0.99167	-24
0.99533	-20
0.99900	-15
1.00267	-9
1.00633	-6
1.01000	-5
1.01367	-3
1.01733	-0
1.02100	2
1.02467	0
1.02833	-5
1.03200	-12
1.03567	-17
1.03933	-19
1.04300	-19
1.04667	-18
1.05033	-15
1.05400	-11
1.05767	-1
1.06133	10
1.06500	16
1.06867	18
1.07233	14
1.07600	6
1.07967	-3
1.08333	-12
1.08700	-20
1.09067	-27
1.09433	-30
1.09800	-32
1.10167	-37
1.10533	-45
1.10900	-49
1.11267	-46
1.11633	-40
1.12000	-34
1.12367	-31
1.12733	-32
1.13100	-35
1.13467	-40
1.13833	-43
1.14200	-40
1.14567	-34
1.14933	-31
1.15300	-30
1.15667	-28
1.16033	-28
1.16400	-32
1.16767	-38
1.17133	-41
1.17500	-41
1.17867	-38
1.18233	-28
1.18600	-16
1.18967	-9
1.19333	-11
1.19700	-17
1.20067	-24
1.20433	-28
1.20800	-31
1.21167	-33
1.21533	-34
1.21900	-35
1.22267	-33
1.22633	-30
1.23000	-27
1.23367	-25
1.23733	-25
1.24100	-27
1.24467	-31
1.24833	-34
1.25200	-31
1.25567	-22
1.25933	-9
1.26300	3
1.26667	9
1.27033	7
1.27400	-3
1.27767	-16
1.28133	-26
1.28500	-32
1.28867	-38
1.29233	-44
1.29600	-46
1.29967	-48
1.30333	-49
1.30700	-49
1.31067	-48
1.31433	-48
1.31800	-47
1.32167	-46
1.32533	-47
1.32900	-47
1.33267	-44
1.33633	-40
1.34000	-38
1.34367	-37
1.34733	-38
1.35100	-37
1.35467	-33
1.35833	-26
1.36200	-17
1.36567	-12
1.36933	-17
1.37300	-28
1.37667	-39
1.38033	-47
1.38400	-50
1.38767	-48
1.39133	-42
1.39500	-32
1.39867	-22
1.40233	-19
1.40600	-23
1.40967	-29
1.41333	-37
1.41700	-45
1.42067	-52
1.42433	-53
1.42800	-50
1.43167	-42
1.43533	-23
1.43900	11
1.44267	64
1.44633	227
1.45000	598
1.45367	1133
1.45733	1695
1.46100	2185
1.46467	2559
1.46833	2782
1.47200	2818
1.47567	2645
1.47933	2293
1.48300	1844
1.48667	1395
1.49033	1009
1.49400	706
1.49767	483
1.50133	325
1.50500	217
1.50867	146
1.51233	95
1.51600	58
1.51967	30
1.52333	10
1.52700	-6
1.53067	-10
1.53433	31
1.53800	187
1.54167	505
1.54533	945
1.54900	1402
1.55267	1792
1.55633	2075
1.56000	2229
1.56367	2221
1.56733	2036
1.57100	1713
1.57467	1331
1.57833	967
1.58200	665
1.58567	432
1.58933	263
1.59300	147
1.59667	68
1.60033	15
1.60400	-18
1.60767	-37
1.61133	-46
1.61500	-51
1.61867	-51
1.62233	-47
1.62600	-42
1.62967	-41
1.63333	-45
1.63700	-50
1.64067	-58
1.64433	-66
1.64800	-73
1.65167	-78
1.65533	-79
1.65900	-76
1.66267	-69
1.66633	-60
1.67000	-54
1.67367	-54
1.67733	-61
1.68100	-69
1.68467	-74
1.68833	-76
1.69200	-76
1.69567	-74
1.69933	-74
1.70300	-71
1.70667	-67
1.71033	-65
1.71400	-64
1.71767	-65
1.72133	-67
1.72500	-69
1.72867	-68
1.73233	-69
1.73600	-72
1.73967	-72
1.74333	-68
1.74700	-62
1.75067	-57
1.75433	-51
1.75800	-48
1.76167	-50
1.76533	-53
1.76900	-56
1.77267	-61
1.77633	-66
1.78000	-72
1.78367	-79
1.78733	-86
1.79100	-90
1.79467	-93
1.79833	-96
1.80200	-96
1.80567	-94
1.80933	-89
1.81300	-83
1.81667	-77
1.82033	-75
1.82400	-77
1.82767	-82
1.83133	-86
1.83500	-86
1.83867	-81
1.84233	-75
1.84600	-68
1.84967	-61
1.85333	-52
1.85700	-45
1.86067	-39
1.86433	-37
1.86800	-37
1.87167	-36
1.87533	-31
1.87900	-31
1.88267	-40
1.88633	-52
1.89000	-62
1.89367	-72
1.89733	-80
1.90100	-87
1.90467	-89
1.90833	-89
1.91200	-87
1.91567	-82
1.91933	-78
1.92300	-78
1.92667	-74
1.93033	-69
1.93400	-64
1.93767	-60
1.94133	-51
1.94500	-5
1.94867	252
1.95233	1663
1.95600	7767
1.95967	27663
1.96333	77240
1.96700	172691
1.97067	316485
1.97433	490193
1.97800	662695
1.98167	803640
1.98533	890978
1.98900	912831
1.99267	868945
1.99633	771511
2.00000	642114
2.00367	504690
2.00733	378360
2.01100	273650
2.01467	193129
2.01833	134436
2.02200	93194
2.02567	64900
2.02933	45758
2.03300	32886
2.03667	24222
2.04033	18347
2.04400	14311
2.04767	11488
2.05133	9465
2.05500	7980
2.05867	6866
2.06233	6011
2.06600	5339
2.06967	4795
2.07333	4346
2.07700	3967
2.08067	3643
2.08433	3364
2.08800	3124
2.09167	2919
2.09533	2739
2.09900	2577
2.10267	2431
2.10633	2296
2.11000	2172
2.11367	2061
2.11733	1960
2.12100	1865
2.12467	1775
2.12833	1688
2.13200	1607
2.13567	1533
2.13933	1469
2.14300	1413
2.14667	1363
2.15033	1315
2.15400	1266
2.15767	1217
2.16133	1175
2.16500	1136
2.16867	1098
2.17233	1062
2.17600	1028
2.17967	995
2.18333	969
2.18700	949
2.19067	930
2.19433	909
2.19800	887
2.20167	865
2.20533	841
2.20900	818
2.21267	795
2.21633	775
2.22000	760
2.22367	748
2.22733	737
2.23100	720
2.23467	700
2.23833	680
2.24200	657
2.24567	631
2.24933	607
2.25300	587
2.25667	569
2.26033	553
2.26400	542
2.26767	537
2.27133	538
2.27500	540
2.27867	539
2.28233	535
2.28600	530
2.28967	529
2.29333	528
2.29700	523
2.30067	514
2.30433	503
2.30800	489
2.31167	474
2.31533	462
2.31900	452
2.32267	444
2.32633	437
2.33000	429
2.33367	421
2.33733	417
2.34100	419
2.34467	422
2.34833	424
2.35200	423
2.35567	419
2.35933	412
2.36300	407
2.36667	403
2.37033	399
2.37400	394
2.37767	388
2.38133	385
2.38500	385
2.38867	385
2.39233	383
2.39600	382
2.39967	380
2.40333	378
2.40700	376
2.41067	375
2.41433	372
2.41800	366
2.42167	360
2.42533	355
2.42900	350
2.43267	345
2.43633	335
2.44000	322
2.44367	309
2.44733	301
2.45100	301
2.45467	308
2.45833	316
2.46200	320
2.46567	322
2.46933	321
2.47300	319
2.47667	318
2.48033	320
2.48400	323
2.48767	323
2.49133	320
2.49500	315
2.49867	314
2.50233	319
2.50600	323
2.50967	325
2.51333	329
2.51700	332
2.52067	337
2.52433	343
2.52800	347
2.53167	346
2.53533	341
2.53900	338
2.54267	331
2.54633	322
2.55000	314
2.55367	309
2.55733	306
2.56100	306
2.56467	307
2.56833	310
2.57200	314
2.57567	320
2.57933	322
2.58300	319
2.58667	317
2.59033	317
2.59400	319
2.59767	321
2.60133	321
2.60500	320
2.60867	318
2.61233	315
2.61600	311
2.61967	309
2.62333	310
2.62700	313
2.63067	317
2.63433	316
2.63800	311
2.64167	306
2.64533	303
2.64900	303
2.65267	307
2.65633	316
2.66000	324
2.66367	329
2.66733	327
2.67100	321
2.67467	313
2.67833	306
2.68200	300
2.68567	295
2.68933	292
2.69300	289
2.69667	288
2.70033	290
2.70400	292
2.70767	293
2.71133	292
2.71500	289
2.71867	288
2.72233	294
2.72600	303
2.72967	310
2.73333	316
2.73700	320
2.74067	323
2.74433	327
2.74800	332
2.75167	334
2.75533	333
2.75900	332
2.76267	330
2.76633	328
2.77000	325
2.77367	323
2.77733	323
2.78100	325
2.78467	327
2.78833	331
2.79200	337
2.79567	340
2.79933	341
2.80300	338
2.80667	334
2.81033	335
2.81400	338
2.81767	340
2.82133	338
2.82500	335
2.82867	331
2.83233	328
2.83600	332
2.83967	340
2.84333	348
2.84700	353
2.85067	351
2.85433	347
2.85800	341
2.86167	338
2.86533	338
2.86900	339
2.87267	341
2.87633	348
2.88000	356
2.88367	360
2.88733	361
2.89100	360
2.89467	358
2.89833	355
2.90200	353
2.90567	354
2.90933	351
2.91300	345
2.91667	339
2.92033	340
2.92400	345
2.92767	352
2.93133	353
2.93500	354
2.93867	353
2.94233	351
2.94600	349
2.94967	351
2.95333	353
2.95700	351
2.96067	351
2.96433	353
2.96800	356
2.97167	361
2.97533	364
2.97900	369
2.98267	374
2.98633	375
2.99000	375
2.99367	375
2.99733	377
3.00100	379
3.00467	378
3.00833	374
3.01200	369
3.01567	364
3.01933	362
3.02300	359
3.02667	352
3.03033	346
3.03400	346
3.03767	349
3.04133	355
3.04500	359
3.04867	361
3.05233	361
3.05600	358
3.05967	357
3.06333	356
3.06700	356
3.07067	358
3.07433	359
3.07800	357
3.08167	354
3.08533	351
3.08900	347
3.09267	346
3.09633	345
3.10000	344
3.10367	343
3.10733	342
3.11100	344
3.11467	349
3.11833	354
3.12200	359
3.12567	361
3.12933	362
3.13300	361
3.13667	361
3.14033	361
3.14400	360
3.14767	361
3.15133	364
3.15500	367
3.15867	367
3.16233	367
3.16600	366
3.16967	365
3.17333	361
3.17700	358
3.18067	356
3.18433	353
3.18800	350
3.19167	351
3.19533	353
3.19900	356
3.20267	360
3.20633	362
3.21000	362
3.21367	359
3.21733	350
3.22100	338
3.22467	327
3.22833	321
3.23200	320
3.23567	323
3.23933	328
3.24300	335
3.24667	342
3.25033	347
3.25400	351
3.25767	352
3.26133	349
3.26500	346
3.26867	344
3.27233	344
3.27600	346
3.27967	347
3.28333	349
3.28700	351
3.29067	351
3.29433	349
3.29800	348
3.30167	347
3.30533	346
3.30900	341
3.31267	333
3.31633	327
3.32000	320
3.32367	318
3.32733	322
3.33100	326
3.33467	330
3.33833	335
3.34200	342
3.34567	349
3.34933	359
3.35300	368
3.35667	371
3.36033	367
3.36400	358
3.36767	349
3.37133	341
3.37500	336
3.37867	332
3.38233	329
3.38600	328
3.38967	328
3.39333	331
3.39700	338
3.40067	348
3.40433	355
3.40800	357
3.41167	355
3.41533	352
3.41900	348
3.42267	347
3.42633	346
3.43000	345
3.43367	343
3.43733	342
3.44100	340
3.44467	338
3.44833	335
3.45200	329
3.45567	322
3.45933	316
3.46300	310
3.46667	311
3.47033	317
3.47400	326
3.47767	335
3.48133	341
3.48500	344
3.48867	347
3.49233	347
3.49600	344
3.49967	337
3.50333	328
3.50700	319
3.51067	315
3.51433	314
3.51800	315
3.52167	314
3.52533	312
3.52900	309
3.53267	302
3.53633	296
3.54000	296
3.54367	299
3.54733	306
3.55100	317
3.55467	326
3.55833	329
3.56200	329
3.56567	328
3.56933	328
3.57300	329
3.57667	327
3.58033	324
3.58400	321
3.58767	319
3.59133	317
3.59500	320
3.59867	325
3.60233	329
3.60600	330
3.60967	329
3.61333	327
3.61700	322
3.62067	315
3.62433	311
3.62800	308
3.63167	307
3.63533	306
3.63900	311
3.64267	317
3.64633	321
3.65000	321
3.65367	319
3.65733	319
3.66100	322
3.66467	326
3.66833	330
3.67200	330
3.67567	326
3.67933	323
3.68300	321
3.68667	319
3.69033	319
3.69400	320
3.69767	321
3.70133	321
3.70500	316
3.70867	312
3.71233	309
3.71600	310
3.71967	310
3.72333	310
3.72700	311
3.73067	310
3.73433	308
3.73800	307
3.74167	309
3.74533	308
3.74900	302
3.75267	293
3.75633	287
3.76000	287
3.76367	290
3.76733	293
3.77100	294
3.77467	295
3.77833	294
3.78200	295
3.78567	298
3.78933	304
3.79300	308
3.79667	306
3.80033	298
3.80400	291
3.80767	289
3.81133	288
3.81500	290
3.81867	294
3.82233	301
3.82600	307
3.82967	310
3.83333	307
3.83700	299
3.84067	292
3.84433	286
3.84800	282
3.85167	281
3.85533	284
3.85900	286
3.86267	285
3.86633	282
3.87000	281
3.87367	282
3.87733	285
3.88100	288
3.88467	290
3.88833	291
3.89200	292
3.89567	293
3.89933	294
3.90300	297
3.90667	299
3.91033	297
3.91400	290
3.91767	280
3.92133	273
3.92500	270
3.92867	268
3.93233	267
3.93600	268
3.93967	267
3.94333	268
3.94700	271
3.95067	274
3.95433	275
3.95800	276
3.96167	275
3.96533	274
3.96900	275
3.97267	276
3.97633	277
3.98000	279
3.98367	281
3.98733	287
3.99100	290
3.99467	289
3.99833	288

[Chromatogram (Ch2)]
Interval(msec)	220
# of Points	1091
Start Time(min)	0.002
End Time(min)	3.998
R.Time (min)	Intensity
0.00167	1
0.00533	1
0.00900	1
0.01267	1
0.01633	1
0.02000	1
0.02367	2
0.02733	2
0.03100	2
0.03467	2
0.03833	2
0.04200	1
0.04567	1
0.04933	0
0.05300	-0
0.05667	-0
0.06033	-1
0.06400	-1
0.06767	-1
0.07133	-1
0.07500	-1
0.07867	-1
0.08233	-1
0.08600	-0
0.08967	-0
0.09333	-0
0.09700	0
0.10067	0
0.10433	0
0.10800	1
0.11167	1
0.11533	1
0.11900	2
0.12267	2
0.12633	2
0.13000	2
0.13367	2
0.13733	2
0.14100	2
0.14467	2
0.14833	2
0.15200	2
0.15567	2
0.15933	2
0.16300	2
0.16667	2
0.17033	2
0.17400	2
0.17767	2
0.18133	2
0.18500	2
0.18867	2
0.19233	1
0.19600	1
0.19967	-0
0.20333	-1
0.20700	-1
0.21067	-2
0.21433	-2
0.21800	-2
0.22167	-3
0.22533	-2
0.22900	-2
0.23267	-2
0.23633	-2
0.24000	-2
0.24367	-3
0.24733	-3
0.25100	-3
0.25467	-3
0.25833	-3
0.26200	-3
0.26567	-3
0.26933	-3
0.27300	-3
0.27667	-3
0.28033	-3
0.28400	-3
0.28767	-3
0.29133	-2
0.29500	-2
0.29867	-2
0.30233	-2
0.30600	-2
0.30967	-2
0.31333	-2
0.31700	-2
0.32067	-2
0.32433	-2
0.32800	-2
0.33167	-2
0.33533	-2
0.33900	-3
0.34267	-3
0.34633	-2
0.35000	-2
0.35367	-2
0.35733	-2
0.36100	-1
0.36467	-1
0.36833	-1
0.37200	-0
0.37567	-0
0.37933	-0
0.38300	-0
0.38667	-0
0.39033	-0
0.39400	-0
0.39767	0
0.40133	0
0.40500	0
0.40867	0
0.41233	-0
0.41600	-0
0.41967	-1
0.42333	-1
0.42700	-1
0.43067	-2
0.43433	-2
0.43800	-2
0.44167	-2
0.44533	-3
0.44900	-2
0.45267	-2
0.45633	-2
0.46000	-2
0.46367	-2
0.46733	-2
0.47100	-2
0.47467	-2
0.47833	-2
0.48200	-1
0.48567	-1
0.48933	-2
0.49300	-2
0.49667	-2
0.50033	-2
0.50400	-2
0.50767	-2
0.51133	-2
0.51500	-2
0.51867	-2
0.52233	-2
0.52600	-2
0.52967	-2
0.53333	-1
0.53700	-1
0.54067	-1
0.54433	-1
0.54800	-0
0.55167	-0
0.55533	-0
0.55900	-1
0.56267	-1
0.56633	-1
0.57000	-1
0.57367	-1
0.57733	-1
0.58100	-1
0.58467	-1
0.58833	-1
0.59200	-1
0.59567	-1
0.59933	-1
0.60300	-1
0.60667	-1
0.61033	-1
0.61400	-2
0.61767	-2
0.62133	-2
0.62500	-2
0.62867	-2
0.63233	-2
0.63600	-2
0.63967	-2
0.64333	-2
0.64700	-2
0.65067	-2
0.65433	-2
0.65800	-2
0.66167	-2
0.66533	-1
0.66900	-1
0.67267	-1
0.67633	-1
0.68000	-1
0.68367	-1
0.68733	-1
0.69100	-1
0.69467	-1
0.69833	-1
0.70200	-1
0.70567	-1
0.70933	-1
0.71300	-1
0.71667	-0
0.72033	-0
0.72400	-0
0.72767	-0
0.73133	-0
0.73500	-0
0.73867	-0
0.74233	-1
0.74600	-1
0.74967	-1
0.75333	-1
0.75700	-2
0.76067	-2
0.76433	-3
0.76800	-3
0.77167	-3
0.77533	-4
0.77900	-4
0.78267	-4
0.78633	-4
0.79000	-4
0.79367	-4
0.79733	-4
0.80100	-4
0.80467	-3
0.80833	-3
0.81200	-3
0.81567	-3
0.81933	-3
0.82300	-3
0.82667	-3
0.83033	-2
0.83400	-3
0.83767	-3
0.84133	-3
0.84500	-3
0.84867	-3
0.85233	-3
0.85600	-3
0.85967	-3
0.86333	-3
0.86700	-3
0.87067	-3
0.87433	-3
0.87800	-2
0.88167	-2
0.88533	-2
0.88900	-2
0.89267	-2
0.89633	-2
0.90000	-2
0.90367	-2
0.90733	-1
0.91100	-1
0.91467	-1
0.91833	-1
0.92200	-1
0.92567	-1
0.92933	-1
0.93300	-1
0.93667	-1
0.94033	-1
0.94400	-1
0.94767	-1
0.95133	-1
0.95500	-1
0.95867	-1
0.96233	-1
0.96600	-2
0.96967	-1
0.97333	-1
0.97700	-1
0.98067	-1
0.98433	-1
0.98800	-2
0.99167	-2
0.99533	-2
0.99900	-2
1.00267	-1
1.00633	-1
1.01000	-0
1.01367	-0
1.01733	-0
1.02100	-1
1.02467	-1
1.02833	-1
1.03200	-1
1.03567	-1
1.03933	-2
1.04300	-2
1.04667	-2
1.05033	-2
1.05400	-2
1.05767	-2
1.06133	-1
1.06500	-1
1.06867	-1
1.07233	-1
1.07600	-1
1.07967	-1
1.08333	-1
1.08700	-0
1.09067	-0
1.09433	0
1.09800	0
1.10167	-0
1.10533	-0
1.10900	-0
1.11267	-0
1.11633	-0
1.12000	0
1.12367	1
1.12733	1
1.13100	1
1.13467	1
1.13833	2
1.14200	2
1.14567	1
1.14933	1
1.15300	1
1.15667	2
1.16033	2
1.16400	2
1.16767	2
1.17133	2
1.17500	2
1.17867	2
1.18233	2
1.18600	2
1.18967	2
1.19333	1
1.19700	1
1.20067	1
1.20433	0
1.20800	-0
1.21167	-1
1.21533	-1
1.21900	-1
1.22267	-1
1.22633	-1
1.23000	-1
1.23367	-1
1.23733	-1
1.24100	-1
1.24467	-1
1.24833	-1
1.25200	-0
1.25567	-0
1.25933	-0
1.26300	0
1.26667	0
1.27033	0
1.27400	-0
1.27767	-0
1.28133	-1
1.28500	-1
1.28867	-2
1.29233	-2
1.29600	-2
1.29967	-2
1.30333	-2
1.30700	-2
1.31067	-1
1.31433	-1
1.31800	-1
1.32167	-1
1.32533	-1
1.32900	-1
1.33267	-1
1.33633	-1
1.34000	-1
1.34367	-1
1.34733	-2
1.35100	-2
1.35467	-2
1.35833	-2
1.36200	-2
1.36567	-2
1.36933	-2
1.37300	-2
1.37667	-2
1.38033	-3
1.38400	-2
1.38767	-2
1.39133	-2
1.39500	-2
1.39867	-2
1.40233	-2
1.40600	-2
1.40967	-2
1.41333	-2
1.41700	-2
1.42067	-2
1.42433	-2
1.42800	-3
1.43167	-3
1.43533	-3
1.43900	-3
1.44267	-3
1.44633	-3
1.45000	-3
1.45367	-3
1.45733	-3
1.46100	-3
1.46467	-3
1.46833	-3
1.47200	-3
1.47567	-3
1.47933	-3
1.48300	-4
1.48667	-4
1.49033	-4
1.49400	-4
1.49767	-4
1.50133	-4
1.50500	-4
1.50867	-4
1.51233	-4
1.51600	-4
1.51967	-4
1.52333	-4
1.52700	-4
1.53067	-3
1.53433	-3
1.53800	-3
1.54167	-2
1.54533	-2
1.54900	-2
1.55267	-2
1.55633	-2
1.56000	-1
1.56367	-1
1.56733	-1
1.57100	-1
1.57467	-1
1.57833	-1
1.58200	-0
1.58567	-0
1.58933	-0
1.59300	-1
1.59667	-2
1.60033	-2
1.60400	-3
1.60767	-5
1.61133	-6
1.61500	-8
1.61867	-11
1.62233	-14
1.62600	-16
1.62967	-19
1.63333	-23
1.63700	-26
1.64067	-30
1.64433	-33
1.64800	-37
1.65167	-40
1.65533	-44
1.65900	-48
1.66267	-51
1.66633	-56
1.67000	-60
1.67367	-65
1.67733	-69
1.68100	-73
1.68467	-77
1.68833	-80
1.69200	-83
1.69567	-86
1.69933	-89
1.70300	-91
1.70667	-93
1.71033	-94
1.71400	-95
1.71767	-96
1.72133	-97
1.72500	-97
1.72867	-98
1.73233	-99
1.73600	-100
1.73967	-100
1.74333	-101
1.74700	-101
1.75067	-101
1.75433	-101
1.75800	-101
1.76167	-101
1.76533	-100
1.76900	-100
1.77267	-100
1.77633	-100
1.78000	-101
1.78367	-101
1.78733	-102
1.79100	-103
1.79467	-104
1.79833	-105
1.80200	-105
1.80567	-105
1.80933	-105
1.81300	-104
1.81667	-104
1.82033	-104
1.82400	-104
1.82767	-103
1.83133	-103
1.83500	-103
1.83867	-102
1.84233	-102
1.84600	-102
1.84967	-103
1.85333	-103
1.85700	-104
1.86067	-104
1.86433	-104
1.86800	-104
1.87167	-104
1.87533	-103
1.87900	-102
1.88267	-101
1.88633	-101
1.89000	-100
1.89367	-100
1.89733	-100
1.90100	-100
1.90467	-100
1.90833	-100
1.91200	-100
1.91567	-101
1.91933	-101
1.92300	-101
1.92667	-101
1.93033	-101
1.93400	-101
1.93767	-101
1.94133	-101
1.94500	-101
1.94867	-100
1.95233	-100
1.95600	-99
1.95967	-99
1.96333	-98
1.96700	-97
1.97067	-97
1.97433	-97
1.97800	-97
1.98167	-97
1.98533	-97
1.98900	-97
1.99267	-97
1.99633	-97
2.00000	-97
2.00367	-97
2.00733	-97
2.01100	-97
2.01467	-96
2.01833	-96
2.02200	-95
2.02567	-95
2.02933	-94
2.03300	-94
2.03667	-93
2.04033	-93
2.04400	-93
2.04767	-93
2.05133	-92
2.05500	-92
2.05867	-92
2.06233	-92
2.06600	-91
2.06967	-91
2.07333	-91
2.07700	-91
2.08067	-90
2.08433	-90
2.08800	-91
2.09167	-91
2.09533	-91
2.09900	-91
2.10267	-91
2.10633	-91
2.11000	-90
2.11367	-90
2.11733	-89
2.12100	-89
2.12467	-88
2.12833	-88
2.13200	-87
2.13567	-86
2.13933	-86
2.14300	-85
2.14667	-84
2.15033	-84
2.15400	-83
2.15767	-83
2.16133	-82
2.16500	-82
2.16867	-82
2.17233	-82
2.17600	-82
2.17967	-82
2.18333	-82
2.18700	-83
2.19067	-83
2.19433	-83
2.19800	-83
2.20167	-83
2.20533	-83
2.20900	-83
2.21267	-82
2.21633	-82
2.22000	-82
2.22367	-82
2.22733	-82
2.23100	-82
2.23467	-81
2.23833	-81
2.24200	-80
2.24567	-79
2.24933	-78
2.25300	-77
2.25667	-76
2.26033	-76
2.26400	-75
2.26767	-76
2.27133	-76
2.27500	-76
2.27867	-76
2.28233	-76
2.28600	-76
2.28967	-76
2.29333	-76
2.29700	-75
2.30067	-75
2.30433	-75
2.30800	-75
2.31167	-75
2.31533	-75
2.31900	-75
2.32267	-74
2.32633	-73
2.33000	-72
2.33367	-71
2.33733	-70
2.34100	-69
2.34467	-68
2.34833	-67
2.35200	-66
2.35567	-65
2.35933	-64
2.36300	-63
2.36667	-62
2.37033	-61
2.37400	-59
2.37767	-57
2.38133	-54
2.38500	-50
2.38867	-47
2.39233	-43
2.39600	-39
2.39967	-35
2.40333	-31
2.40700	-27
2.41067	-23
2.41433	-19
2.41800	-16
2.42167	-13
2.42533	-11
2.42900	-8
2.43267	-6
2.43633	-5
2.44000	-3
2.44367	-2
2.44733	-0
2.45100	1
2.45467	3
2.45833	4
2.46200	6
2.46567	7
2.46933	8
2.47300	9
2.47667	10
2.48033	11
2.48400	11
2.48767	11
2.49133	12
2.49500	12
2.49867	12
2.50233	13
2.50600	13
2.50967	14
2.51333	14
2.51700	14
2.52067	14
2.52433	14
2.52800	14
2.53167	13
2.53533	12
2.53900	11
2.54267	10
2.54633	9
2.55000	9
2.55367	9
2.55733	10
2.56100	11
2.56467	12
2.56833	14
2.57200	15
2.57567	16
2.57933	16
2.58300	16
2.58667	16
2.59033	16
2.59400	16
2.59767	16
2.60133	17
2.60500	17
2.60867	18
2.61233	18
2.61600	19
2.61967	19
2.62333	19
2.62700	19
2.63067	19
2.63433	19
2.63800	20
2.64167	20
2.64533	20
2.64900	21
2.65267	21
2.65633	22
2.66000	22
2.66367	22
2.66733	23
2.67100	23
2.67467	24
2.67833	24
2.68200	25
2.68567	25
2.68933	25
2.69300	26
2.69667	26
2.70033	27
2.70400	27
2.70767	27
2.71133	28
2.71500	28
2.71867	28
2.72233	28
2.72600	28
2.72967	28
2.73333	28
2.73700	28
2.74067	28
2.74433	28
2.74800	28
2.75167	28
2.75533	29
2.75900	29
2.76267	30
2.76633	30
2.77000	30
2.77367	31
2.77733	31
2.78100	31
2.78467	32
2.78833	32
2.79200	32
2.79567	32
2.79933	31
2.80300	31
2.80667	31
2.81033	30
2.81400	30
2.81767	29
2.82133	29
2.82500	28
2.82867	27
2.83233	27
2.83600	26
2.83967	26
2.84333	26
2.84700	26
2.85067	26
2.85433	26
2.85800	25
2.86167	24
2.86533	22
2.86900	18
2.87267	11
2.87633	0
2.88000	-14
2.88367	-34
2.88733	-58
2.89100	-88
2.89467	-123
2.89833	-163
2.90200	-207
2.90567	-256
2.90933	-308
2.91300	-364
2.91667	-422
2.92033	-482
2.92400	-543
2.92767	-605
2.93133	-666
2.93500	-725
2.93867	-782
2.94233	-836
2.94600	-887
2.94967	-939
2.95333	-994
2.95700	-1045
2.96067	-1082
2.96433	-1098
2.96800	-1088
2.97167	-1055
2.97533	-1002
2.97900	-935
2.98267	-859
2.98633	-780
2.99000	-699
2.99367	-621
2.99733	-548
3.00100	-479
3.00467	-417
3.00833	-361
3.01200	-310
3.01567	-266
3.01933	-227
3.02300	-193
3.02667	-163
3.03033	-137
3.03400	-115
3.03767	-96
3.04133	-79
3.04500	-66
3.04867	-54
3.05233	-43
3.05600	-35
3.05967	-27
3.06333	-21
3.06700	-15
3.07067	-10
3.07433	-6
3.07800	-2
3.08167	1
3.08533	3
3.08900	5
3.09267	7
3.09633	8
3.10000	10
3.10367	11
3.10733	12
3.11100	13
3.11467	14
3.11833	14
3.12200	15
3.12567	15
3.12933	16
3.13300	17
3.13667	17
3.14033	18
3.14400	18
3.14767	19
3.15133	19
3.15500	19
3.15867	19
3.16233	19
3.16600	19
3.16967	19
3.17333	19
3.17700	18
3.18067	18
3.18433	18
3.18800	19
3.19167	19
3.19533	19
3.19900	20
3.20267	20
3.20633	20
3.21000	21
3.21367	21
3.21733	21
3.22100	22
3.22467	22
3.22833	23
3.23200	23
3.23567	23
3.23933	23
3.24300	24
3.24667	24
3.25033	24
3.25400	24
3.25767	25
3.26133	25
3.26500	25
3.26867	25
3.27233	26
3.27600	26
3.27967	26
3.28333	26
3.28700	27
3.29067	27
3.29433	27
3.29800	28
3.30167	28
3.30533	28
3.30900	28
3.31267	28
3.31633	28
3.32000	28
3.32367	28
3.32733	28
3.33100	28
3.33467	28
3.33833	28
3.34200	28
3.34567	28
3.34933	28
3.35300	29
3.35667	29
3.36033	28
3.36400	28
3.36767	28
3.37133	28
3.37500	29
3.37867	29
3.38233	29
3.38600	29
3.38967	29
3.39333	29
3.39700	29
3.40067	29
3.40433	29
3.40800	28
3.41167	28
3.41533	28
3.41900	28
3.42267	28
3.42633	28
3.43000	28
3.43367	28
3.43733	28
3.44100	28
3.44467	28
3.44833	29
3.45200	29
3.45567	29
3.45933	29
3.46300	29
3.46667	30
3.47033	30
3.47400	30
3.47767	30
3.48133	31
3.48500	31
3.48867	31
3.49233	30
3.49600	31
3.49967	31
3.50333	31
3.50700	31
3.51067	32
3.51433	32
3.51800	32
3.52167	32
3.52533	32
3.52900	32
3.53267	33
3.53633	33
3.54000	33
3.54367	33
3.54733	33
3.55100	33
3.55467	33
3.55833	33
3.56200	33
3.56567	33
3.56933	33
3.57300	33
3.57667	33
3.58033	33
3.58400	33
3.58767	33
3.59133	33
3.59500	32
3.59867	32
3.60233	32
3.60600	32
3.60967	32
3.61333	31
3.61700	31
3.62067	31
3.62433	31
3.62800	31
3.63167	31
3.63533	31
3.63900	31
3.64267	31
3.64633	31
3.65000	31
3.65367	31
3.65733	31
3.66100	31
3.66467	30
3.66833	30
3.67200	30
3.67567	30
3.67933	30
3.68300	30
3.68667	30
3.69033	30
3.69400	30
3.69767	30
3.70133	30
3.70500	30
3.70867	30
3.71233	30
3.71600	30
3.71967	30
3.72333	30
3.72700	30
3.73067	30
3.73433	30
3.73800	30
3.74167	31
3.74533	31
3.74900	31
3.75267	31
3.75633	31
3.76000	31
3.76367	31
3.76733	31
3.77100	31
3.77467	31
3.77833	31
3.78200	31
3.78567	31
3.78933	31
3.79300	31
3.79667	31
3.80033	30
3.80400	30
3.80767	30
3.81133	30
3.81500	30
3.81867	30
3.82233	30
3.82600	30
3.82967	30
3.83333	30
3.83700	30
3.84067	30
3.84433	30
3.84800	30
3.85167	30
3.85533	30
3.85900	30
3.86267	30
3.86633	30
3.87000	30
3.87367	30
3.87733	30
3.88100	30
3.88467	29
3.88833	29
3.89200	29
3.89567	29
3.89933	29
3.90300	29
3.90667	29
3.91033	29
3.91400	29
3.91767	29
3.92133	29
3.92500	29
3.92867	29
3.93233	29
3.93600	30
3.93967	30
3.94333	30
3.94700	30
3.95067	30
3.95433	30
3.95800	30
3.96167	30
3.96533	30
3.96900	31
3.97267	31
3.97633	31
3.98000	31
3.98367	31
3.98733	31
3.99100	31
3.99467	31
3.99833	30

[Chromatogram (Ch3)]
Interval(msec)	220
# of Points	1091
Start Time(min)	0.002
End Time(min)	3.998
R.Time (min)	Intensity
0.00167	1
0.00533	0
0.00900	-1
0.01267	-5
0.01633	-7
0.02000	-9
0.02367	-8
0.02733	-6
0.03100	-5
0.03467	-3
0.03833	-4
0.04200	-3
0.04567	-2
0.04933	-2
0.05300	-5
0.05667	-6
0.06033	-3
0.06400	-2
0.06767	-2
0.07133	-3
0.07500	-3
0.07867	-1
0.08233	2
0.08600	2
0.08967	1
0.09333	-0
0.09700	-1
0.10067	1
0.10433	3
0.10800	5
0.11167	7
0.11533	8
0.11900	8
0.12267	8
0.12633	6
0.13000	5
0.13367	3
0.13733	2
0.14100	2
0.14467	1
0.14833	-0
0.15200	-1
0.15567	-0
0.15933	1
0.16300	-0
0.16667	-2
0.17033	-1
0.17400	-0
0.17767	-0
0.18133	0
0.18500	1
0.18867	2
0.19233	3
0.19600	3
0.19967	3
0.20333	3
0.20700	4
0.21067	2
0.21433	1
0.21800	2
0.22167	1
0.22533	2
0.22900	1
0.23267	1
0.23633	1
0.24000	1
0.24367	1
0.24733	0
0.25100	0
0.25467	1
0.25833	2
0.26200	1
0.26567	2
0.26933	4
0.27300	4
0.27667	3
0.28033	3
0.28400	3
0.28767	4
0.29133	4
0.29500	5
0.29867	4
0.30233	5
0.30600	6
0.30967	7
0.31333	7
0.31700	5
0.32067	5
0.32433	3
0.32800	3
0.33167	3
0.33533	3
0.33900	2
0.34267	3
0.34633	5
0.35000	8
0.35367	10
0.35733	10
0.36100	8
0.36467	7
0.36833	7
0.37200	7
0.37567	7
0.37933	6
0.38300	5
0.38667	4
0.39033	3
0.39400	4
0.39767	4
0.40133	3
0.40500	3
0.40867	3
0.41233	4
0.41600	7
0.41967	9
0.42333	10
0.42700	11
0.43067	12
0.43433	12
0.43800	11
0.44167	11
0.44533	11
0.44900	12
0.45267	13
0.45633	13
0.46000	12
0.46367	9
0.46733	8
0.47100	7
0.47467	8
0.47833	7
0.48200	6
0.48567	6
0.48933	6
0.49300	6
0.49667	7
0.50033	10
0.50400	11
0.50767	8
0.51133	9
0.51500	10
0.51867	11
0.52233	11
0.52600	10
0.52967	9
0.53333	9
0.53700	9
0.54067	9
0.54433	9
0.54800	8
0.55167	9
0.55533	11
0.55900	12
0.56267	12
0.56633	11
0.57000	10
0.57367	8
0.57733	9
0.58100	10
0.58467	9
0.58833	9
0.59200	10
0.59567	13
0.59933	12
0.60300	13
0.60667	14
0.61033	12
0.61400	7
0.61767	5
0.62133	6
0.62500	8
0.62867	9
0.63233	10
0.63600	11
0.63967	11
0.64333	10
0.64700	10
0.65067	9
0.65433	7
0.65800	6
0.66167	5
0.66533	4
0.66900	5
0.67267	6
0.67633	8
0.68000	11
0.68367	11
0.68733	13
0.69100	13
0.69467	12
0.69833	12
0.70200	13
0.70567	14
0.70933	15
0.71300	14
0.71667	13
0.72033	12
0.72400	13
0.72767	13
0.73133	14
0.73500	15
0.73867	16
0.74233	15
0.74600	15
0.74967	13
0.75333	13
0.75700	13
0.76067	13
0.76433	14
0.76800	14
0.77167	14
0.77533	13
0.77900	12
0.78267	13
0.78633	15
0.79000	16
0.79367	16
0.79733	15
0.80100	16
0.80467	17
0.80833	17
0.81200	16
0.81567	14
0.81933	12
0.82300	11
0.82667	12
0.83033	13
0.83400	13
0.83767	17
0.84133	18
0.84500	18
0.84867	18
0.85233	18
0.85600	17
0.85967	15
0.86333	14
0.86700	15
0.87067	17
0.87433	16
0.87800	15
0.88167	13
0.88533	12
0.88900	10
0.89267	9
0.89633	11
0.90000	13
0.90367	15
0.90733	17
0.91100	18
0.91467	18
0.91833	17
0.92200	18
0.92567	18
0.92933	16
0.93300	15
0.93667	13
0.94033	10
0.94400	10
0.94767	11
0.95133	13
0.95500	15
0.95867	16
0.96233	16
0.96600	16
0.96967	15
0.97333	13
0.97700	12
0.98067	14
0.98433	14
0.98800	16
0.99167	18
0.99533	19
0.99900	20
1.00267	18
1.00633	17
1.01000	16
1.01367	15
1.01733	15
1.02100	14
1.02467	13
1.02833	12
1.03200	12
1.03567	13
1.03933	15
1.04300	16
1.04667	17
1.05033	16
1.05400	15
1.05767	13
1.06133	12
1.06500	12
1.06867	13
1.07233	13
1.07600	12
1.07967	10
1.08333	10
1.08700	13
1.09067	14
1.09433	14
1.09800	15
1.10167	17
1.10533	16
1.10900	14
1.11267	14
1.11633	14
1.12000	13
1.12367	14
1.12733	15
1.13100	15
1.13467	16
1.13833	15
1.14200	14
1.14567	13
1.14933	12
1.15300	13
1.15667	14
1.16033	15
1.16400	15
1.16767	15
1.17133	17
1.17500	17
1.17867	18
1.18233	18
1.18600	17
1.18967	17
1.19333	18
1.19700	19
1.20067	19
1.20433	19
1.20800	18
1.21167	18
1.21533	17
1.21900	18
1.22267	18
1.22633	16
1.23000	17
1.23367	20
1.23733	19
1.24100	18
1.24467	17
1.24833	17
1.25200	17
1.25567	14
1.25933	12
1.26300	12
1.26667	12
1.27033	13
1.27400	15
1.27767	18
1.28133	18
1.28500	17
1.28867	17
1.29233	16
1.29600	14
1.29967	13
1.30333	13
1.30700	13
1.31067	13
1.31433	13
1.31800	14
1.32167	13
1.32533	13
1.32900	14
1.33267	17
1.33633	20
1.34000	22
1.34367	22
1.34733	21
1.35100	18
1.35467	17
1.35833	16
1.36200	16
1.36567	16
1.36933	15
1.37300	14
1.37667	16
1.38033	17
1.38400	16
1.38767	15
1.39133	15
1.39500	17
1.39867	18
1.40233	18
1.40600	19
1.40967	21
1.41333	22
1.41700	22
1.42067	23
1.42433	20
1.42800	18
1.43167	17
1.43533	15
1.43900	14
1.44267	13
1.44633	13
1.45000	15
1.45367	19
1.45733	20
1.46100	19
1.46467	19
1.46833	19
1.47200	17
1.47567	17
1.47933	18
1.48300	20
1.48667	22
1.49033	23
1.49400	23
1.49767	21
1.50133	20
1.50500	18
1.50867	17
1.51233	17
1.51600	18
1.51967	20
1.52333	22
1.52700	21
1.53067	21
1.53433	23
1.53800	22
1.54167	22
1.54533	21
1.54900	22
1.55267	22
1.55633	22
1.56000	22
1.56367	21
1.56733	21
1.57100	22
1.57467	20
1.57833	18
1.58200	18
1.58567	19
1.58933	17
1.59300	19
1.59667	20
1.60033	20
1.60400	21
1.60767	21
1.61133	20
1.61500	19
1.61867	20
1.62233	20
1.62600	19
1.62967	19
1.63333	21
1.63700	21
1.64067	21
1.64433	22
1.64800	22
1.65167	22
1.65533	22
1.65900	24
1.66267	25
1.66633	24
1.67000	24
1.67367	24
1.67733	23
1.68100	24
1.68467	24
1.68833	26
1.69200	27
1.69567	29
1.69933	32
1.70300	33
1.70667	32
1.71033	31
1.71400	30
1.71767	29
1.72133	28
1.72500	27
1.72867	27
1.73233	27
1.73600	27
1.73967	29
1.74333	30
1.74700	34
1.75067	35
1.75433	35
1.75800	36
1.76167	35
1.76533	35
1.76900	35
1.77267	35
1.77633	34
1.78000	37
1.78367	38
1.78733	37
1.79100	37
1.79467	38
1.79833	39
1.80200	40
1.80567	40
1.80933	41
1.81300	42
1.81667	41
1.82033	40
1.82400	39
1.82767	39
1.83133	39
1.83500	38
1.83867	36
1.84233	35
1.84600	37
1.84967	39
1.85333	42
1.85700	44
1.86067	46
1.86433	47
1.86800	46
1.87167	46
1.87533	45
1.87900	43
1.88267	45
1.88633	48
1.89000	50
1.89367	50
1.89733	51
1.90100	53
1.90467	53
1.90833	52
1.91200	52
1.91567	53
1.91933	54
1.92300	56
1.92667	57
1.93033	59
1.93400	61
1.93767	60
1.94133	60
1.94500	62
1.94867	65
1.95233	67
1.95600	67
1.95967	68
1.96333	69
1.96700	69
1.97067	69
1.97433	68
1.97800	69
1.98167	70
1.98533	71
1.98900	71
1.99267	72
1.99633	72
2.00000	73
2.00367	74
2.00733	73
2.01100	74
2.01467	78
2.01833	80
2.02200	79
2.02567	81
2.02933	84
2.03300	84
2.03667	83
2.04033	83
2.04400	83
2.04767	83
2.05133	85
2.05500	87
2.05867	87
2.06233	85
2.06600	84
2.06967	83
2.07333	83
2.07700	84
2.08067	86
2.08433	86
2.08800	88
2.09167	90
2.09533	91
2.09900	92
2.10267	93
2.10633	92
2.11000	90
2.11367	91
2.11733	92
2.12100	91
2.12467	90
2.12833	90
2.13200	90
2.13567	93
2.13933	95
2.14300	96
2.14667	98
2.15033	98
2.15400	96
2.15767	94
2.16133	96
2.16500	98
2.16867	98
2.17233	99
2.17600	100
2.17967	101
2.18333	102
2.18700	101
2.19067	101
2.19433	101
2.19800	102
2.20167	102
2.20533	103
2.20900	105
2.21267	104
2.21633	103
2.22000	103
2.22367	105
2.22733	106
2.23100	106
2.23467	108
2.23833	110
2.24200	109
2.24567	108
2.24933	106
2.25300	106
2.25667	107
2.26033	107
2.26400	106
2.26767	107
2.27133	109
2.27500	114
2.27867	114
2.28233	114
2.28600	115
2.28967	114
2.29333	113
2.29700	113
2.30067	114
2.30433	115
2.30800	116
2.31167	116
2.31533	116
2.31900	116
2.32267	116
2.32633	116
2.33000	115
2.33367	116
2.33733	117
2.34100	117
2.34467	117
2.34833	118
2.35200	119
2.35567	122
2.35933	123
2.36300	124
2.36667	124
2.37033	124
2.37400	124
2.37767	122
2.38133	122
2.38500	121
2.38867	122
2.39233	124
2.39600	125
2.39967	126
2.40333	127
2.40700	129
2.41067	130
2.41433	131
2.41800	132
2.42167	133
2.42533	134
2.42900	134
2.43267	133
2.43633	132
2.44000	139
2.44367	188
2.44733	293
2.45100	413
2.45467	515
2.45833	596
2.46200	660
2.46567	703
2.46933	729
2.47300	746
2.47667	763
2.48033	780
2.48400	800
2.48767	821
2.49133	839
2.49500	851
2.49867	855
2.50233	851
2.50600	842
2.50967	830
2.51333	818
2.51700	809
2.52067	802
2.52433	797
2.52800	794
2.53167	793
2.53533	794
2.53900	796
2.54267	800
2.54633	807
2.55000	815
2.55367	823
2.55733	829
2.56100	833
2.56467	833
2.56833	828
2.57200	818
2.57567	805
2.57933	792
2.58300	777
2.58667	764
2.59033	751
2.59400	739
2.59767	728
2.60133	720
2.60500	713
2.60867	707
2.61233	704
2.61600	702
2.61967	700
2.62333	699
2.62700	696
2.63067	691
2.63433	686
2.63800	679
2.64167	675
2.64533	673
2.64900	673
2.65267	674
2.65633	673
2.66000	671
2.66367	670
2.66733	671
2.67100	670
2.67467	671
2.67833	674
2.68200	678
2.68567	681
2.68933	685
2.69300	689
2.69667	692
2.70033	696
2.70400	702
2.70767	702
2.71133	701
2.71500	699
2.71867	695
2.72233	691
2.72600	687
2.72967	682
2.73333	679
2.73700	674
2.74067	669
2.74433	665
2.74800	659
2.75167	652
2.75533	646
2.75900	644
2.76267	642
2.76633	639
2.77000	636
2.77367	634
2.77733	632
2.78100	632
2.78467	633
2.78833	633
2.79200	634
2.79567	636
2.79933	639
2.80300	645
2.80667	649
2.81033	652
2.81400	656
2.81767	659
2.82133	662
2.82500	668
2.82867	672
2.83233	681
2.83600	697
2.83967	728
2.84333	792
2.84700	915
2.85067	1117
2.85433	1418
2.85800	1827
2.86167	2337
2.86533	2927
2.86900	3553
2.87267	4164
2.87633	4708
2.88000	5142
2.88367	5436
2.88733	5577
2.89100	5569
2.89467	5432
2.89833	5197
2.90200	4894
2.90567	4550
2.90933	4188
2.91300	3826
2.91667	3477
2.92033	3147
2.92400	2844
2.92767	2570
2.93133	2325
2.93500	2107
2.93867	1915
2.94233	1745
2.94600	1597
2.94967	1466
2.95333	1354
2.95700	1255
2.96067	1170
2.96433	1095
2.96800	1030
2.97167	973
2.97533	925
2.97900	885
2.98267	850
2.98633	820
2.99000	796
2.99367	775
2.99733	758
3.00100	745
3.00467	732
3.00833	718
3.01200	705
3.01567	695
3.01933	688
3.02300	683
3.02667	680
3.03033	680
3.03400	678
3.03767	673
3.04133	668
3.04500	664
3.04867	658
3.05233	654
3.05600	652
3.05967	651
3.06333	651
3.06700	649
3.07067	646
3.07433	644
3.07800	643
3.08167	642
3.08533	640
3.08900	637
3.09267	634
3.09633	631
3.10000	628
3.10367	627
3.10733	625
3.11100	620
3.11467	618
3.11833	616
3.12200	613
3.12567	611
3.12933	611
3.13300	610
3.13667	608
3.14033	604
3.14400	601
3.14767	600
3.15133	601
3.15500	603
3.15867	602
3.16233	599
3.16600	597
3.16967	595
3.17333	593
3.17700	593
3.18067	591
3.18433	590
3.18800	589
3.19167	587
3.19533	585
3.19900	582
3.20267	580
3.20633	578
3.21000	577
3.21367	576
3.21733	575
3.22100	577
3.22467	577
3.22833	574
3.23200	573
3.23567	571
3.23933	570
3.24300	566
3.24667	563
3.25033	563
3.25400	560
3.25767	558
3.26133	555
3.26500	551
3.26867	548
3.27233	546
3.27600	544
3.27967	545
3.28333	547
3.28700	544
3.29067	542
3.29433	538
3.29800	532
3.30167	526
3.30533	524
3.30900	521
3.31267	519
3.31633	518
3.32000	517
3.32367	516
3.32733	512
3.33100	508
3.33467	506
3.33833	503
3.34200	501
3.34567	500
3.34933	497
3.35300	495
3.35667	491
3.36033	488
3.36400	487
3.36767	487
3.37133	486
3.37500	485
3.37867	483
3.38233	481
3.38600	477
3.38967	472
3.39333	469
3.39700	465
3.40067	460
3.40433	457
3.40800	454
3.41167	451
3.41533	447
3.41900	443
3.42267	442
3.42633	442
3.43000	440
3.43367	438
3.43733	434
3.44100	433
3.44467	429
3.44833	427
3.45200	425
3.45567	424
3.45933	422
3.46300	421
3.46667	417
3.47033	415
3.47400	414
3.47767	412
3.48133	409
3.48500	408
3.48867	408
3.49233	405
3.49600	402
3.49967	400
3.50333	396
3.50700	392
3.51067	388
3.51433	384
3.51800	382
3.52167	379
3.52533	377
3.52900	374
3.53267	370
3.53633	368
3.54000	367
3.54367	367
3.54733	367
3.55100	367
3.55467	364
3.55833	360
3.56200	359
3.56567	359
3.56933	357
3.57300	355
3.57667	352
3.58033	348
3.58400	344
3.58767	342
3.59133	341
3.59500	339
3.59867	339
3.60233	337
3.60600	334
3.60967	333
3.61333	331
3.61700	326
3.62067	323
3.62433	319
3.62800	316
3.63167	316
3.63533	315
3.63900	314
3.64267	312
3.64633	311
3.65000	312
3.65367	310
3.65733	307
3.66100	303
3.66467	300
3.66833	298
3.67200	296
3.67567	295
3.67933	292
3.68300	291
3.68667	290
3.69033	286
3.69400	284
3.69767	284
3.70133	284
3.70500	284
3.70867	284
3.71233	285
3.71600	282
3.71967	278
3.72333	275
3.72700	273
3.73067	272
3.73433	273
3.73800	272
3.74167	269
3.74533	268
3.74900	267
3.75267	266
3.75633	263
3.76000	261
3.76367	259
3.76733	258
3.77100	255
3.77467	253
3.77833	251
3.78200	248
3.78567	245
3.78933	244
3.79300	244
3.79667	245
3.80033	246
3.80400	245
3.80767	244
3.81133	244
3.81500	243
3.81867	241
3.82233	239
3.82600	236
3.82967	234
3.83333	234
3.83700	235
3.84067	235
3.84433	234
3.84800	234
3.85167	232
3.85533	230
3.85900	230
3.86267	231
3.86633	230
3.87000	228
3.87367	228
3.87733	230
3.88100	230
3.88467	229
3.88833	229
3.89200	231
3.89567	229
3.89933	227
3.90300	225
3.90667	226
3.91033	227
3.91400	231
3.91767	232
3.92133	233
3.92500	232
3.92867	230
3.93233	229
3.93600	228
3.93967	227
3.94333	227
3.94700	227
3.95067	226
3.95433	224
3.95800	223
3.96167	221
3.96533	221
3.96900	221
3.97267	222
3.97633	220
3.98000	220
3.98367	220
3.98733	218
3.99100	219
3.99467	220
3.99833	220

[Status Trace (Column Oven Temperature)]
Interval(msec)	1000
# of Points	240
Start Time(min)	0.013
End Time(min)	3.997
Intensity Units	
Intensity Multiplier	1
R.Time (min)	Intensity
0.01318	35.07
0.02985	35.07
0.04652	35.07
0.06318	35.08
0.07985	35.08
0.09652	35.08
0.11318	35.07
0.12985	35.05
0.14652	35.03
0.16318	35.02
0.17985	35.01
0.19652	35.02
0.21318	35.04
0.22985	35.04
0.24652	35.05
0.26318	35.05
0.27985	35.05
0.29652	35.05
0.31318	35.05
0.32985	35.05
0.34652	35.04
0.36318	35.04
0.37985	35.04
0.39652	35.02
0.41318	35.02
0.42985	35.03
0.44652	35.03
0.46318	35.02
0.47985	35.02
0.49652	35.03
0.51318	35.03
0.52985	35.02
0.54652	35.02
0.56318	35.02
0.57985	35.01
0.59652	35.02
0.61318	35.02
0.62985	35.01
0.64652	35.01
0.66318	35.00
0.67985	35.00
0.69652	34.99
0.71318	34.99
0.72985	34.99
0.74652	34.99
0.76318	35.01
0.77985	35.01
0.79652	35.02
0.81318	35.01
0.82985	35.02
0.84652	35.02
0.86318	35.02
0.87985	35.03
0.89652	35.02
0.91318	35.02
0.92985	35.01
0.94652	35.01
0.96318	35.01
0.97985	35.02
0.99652	35.01
1.01318	35.01
1.02985	35.01
1.04652	35.02
1.06318	35.01
1.07985	35.01
1.09652	35.01
1.11318	35.00
1.12985	34.99
1.14652	34.99
1.16318	34.98
1.17985	34.99
1.19652	34.98
1.21318	35.00
1.22985	35.01
1.24652	34.99
1.26318	34.99
1.27985	34.98
1.29652	34.98
1.31318	34.98
1.32985	34.98
1.34652	34.98
1.36318	34.99
1.37985	35.00
1.39652	35.00
1.41318	35.00
1.42985	35.02
1.44652	35.02
1.46318	35.01
1.47985	35.02
1.49652	35.02
1.51318	35.02
1.52985	35.02
1.54652	35.01
1.56318	35.00
1.57985	35.00
1.59652	35.01
1.61318	35.08
1.62985	35.22
1.64652	35.43
1.66318	35.71
1.67985	36.06
1.69652	36.42
1.71318	36.76
1.72985	37.10
1.74652	37.45
1.76318	37.76
1.77985	38.09
1.79652	38.43
1.81318	38.77
1.82985	39.09
1.84652	39.41
1.86318	39.76
1.87985	40.08
1.89652	40.40
1.91318	40.72
1.92985	41.05
1.94652	41.38
1.96318	41.69
1.97985	42.02
1.99652	42.34
2.01318	42.67
2.02985	42.99
2.04652	43.32
2.06318	43.63
2.07985	43.94
2.09652	44.28
2.11318	44.60
2.12985	44.94
2.14652	45.25
2.16318	45.58
2.17985	45.91
2.19652	46.24
2.21318	46.59
2.22985	46.92
2.24652	47.25
2.26318	47.58
2.27985	47.91
2.29652	48.26
2.31318	48.59
2.32985	48.91
2.34652	49.23
2.36318	49.50
2.37985	49.67
2.39652	49.71
2.41318	49.70
2.42985	49.71
2.44652	49.73
2.46318	49.73
2.47985	49.74
2.49652	49.76
2.51318	49.77
2.52985	49.77
2.54652	49.80
2.56318	49.79
2.57985	49.82
2.59652	49.83
2.61318	49.83
2.62985	49.84
2.64652	49.84
2.66318	49.85
2.67985	49.85
2.69652	49.84
2.71318	49.85
2.72985	49.87
2.74652	49.87
2.76318	49.86
2.77985	49.86
2.79652	49.85
2.81318	49.86
2.82985	49.89
2.84652	49.92
2.86318	49.93
2.87985	49.94
2.89652	49.94
2.91318	49.93
2.92985	49.94
2.94652	49.94
2.96318	49.94
2.97985	49.95
2.99652	49.95
3.01318	49.94
3.02985	49.95
3.04652	49.96
3.06318	49.96
3.07985	49.97
3.09652	49.98
3.11318	49.99
3.12985	50.00
3.14652	50.00
3.16318	50.01
3.17985	50.03
3.19652	50.05
3.21318	50.06
3.22985	50.07
3.24652	50.08
3.26318	50.08
3.27985	50.07
3.29652	50.07
3.31318	50.08
3.32985	50.08
3.34652	50.08
3.36318	50.08
3.37985	50.08
3.39652	50.10
3.41318	50.11
3.42985	50.11
3.44652	50.11
3.46318	50.11
3.47985	50.10
3.49652	50.09
3.51318	50.07
3.52985	50.07
3.54652	50.05
3.56318	50.04
3.57985	50.03
3.59652	50.03
3.61318	50.02
3.62985	50.02
3.64652	50.02
3.66318	50.02
3.67985	50.03
3.69652	50.03
3.71318	50.03
3.72985	50.02
3.74652	50.02
3.76318	50.02
3.77985	50.02
3.79652	50.02
3.81318	50.02
3.82985	50.02
3.84652	50.01
3.86318	50.01
3.87985	50.02
3.89652	50.02
3.91318	50.03
3.92985	50.03
3.94652	50.02
3.96318	50.01
3.97985	50.01
3.99652	50.01

[Status Trace (Injection Unit Temperature)]
Interval(msec)	1000
# of Points	240
Start Time(min)	0.013
End Time(min)	3.997
Intensity Units	
Intensity Multiplier	1
R.Time (min)	Intensity
0.01318	99.98
0.02985	99.98
0.04652	99.98
0.06318	99.98
0.07985	99.98
0.09652	99.98
0.11318	99.98
0.12985	99.99
0.14652	99.99
0.16318	99.98
0.17985	99.98
0.19652	99.99
0.21318	99.98
0.22985	99.99
0.24652	99.99
0.26318	99.99
0.27985	99.99
0.29652	99.99
0.31318	99.99
0.32985	99.99
0.34652	99.98
0.36318	99.99
0.37985	99.98
0.39652	99.99
0.41318	99.99
0.42985	99.99
0.44652	99.99
0.46318	99.99
0.47985	99.98
0.49652	99.98
0.51318	99.99
0.52985	99.98
0.54652	99.98
0.56318	99.98
0.57985	99.99
0.59652	99.98
0.61318	99.99
0.62985	99.99
0.64652	99.99
0.66318	99.98
0.67985	99.98
0.69652	99.99
0.71318	99.99
0.72985	99.99
0.74652	99.99
0.76318	99.99
0.77985	99.99
0.79652	99.99
0.81318	99.99
0.82985	99.99
0.84652	99.99
0.86318	99.98
0.87985	99.99
0.89652	99.98
0.91318	99.99
0.92985	99.99
0.94652	99.99
0.96318	99.99
0.97985	99.99
0.99652	99.99
1.01318	99.99
1.02985	99.99
1.04652	99.99
1.06318	99.99
1.07985	99.99
1.09652	99.99
1.11318	99.99
1.12985	99.99
1.14652	99.99
1.16318	99.99
1.17985	99.99
1.19652	99.99
1.21318	99.99
1.22985	99.99
1.24652	99.99
1.26318	99.99
1.27985	99.99
1.29652	99.99
1.31318	99.99
1.32985	99.99
1.34652	99.99
1.36318	99.99
1.37985	99.99
1.39652	99.99
1.41318	99.98
1.42985	99.99
1.44652	99.99
1.46318	99.99
1.47985	99.99
1.49652	99.99
1.51318	99.99
1.52985	99.99
1.54652	99.99
1.56318	99.99
1.57985	99.99
1.59652	99.99
1.61318	99.99
1.62985	99.99
1.64652	99.99
1.66318	99.99
1.67985	99.99
1.69652	99.99
1.71318	99.99
1.72985	99.99
1.74652	99.99
1.76318	99.99
1.77985	99.99
1.79652	99.98
1.81318	99.99
1.82985	99.99
1.84652	99.99
1.86318	99.98
1.87985	99.99
1.89652	99.98
1.91318	99.98
1.92985	99.99
1.94652	99.98
1.96318	99.98
1.97985	99.98
1.99652	99.98
2.01318	99.98
2.02985	99.97
2.04652	99.98
2.06318	99.98
2.07985	99.98
2.09652	99.97
2.11318	99.98
2.12985	99.97
2.14652	99.97
2.16318	99.98
2.17985	99.97
2.19652	99.97
2.21318	99.97
2.22985	99.97
2.24652	99.97
2.26318	99.97
2.27985	99.97
2.29652	99.97
2.31318	99.97
2.32985	99.97
2.34652	99.97
2.36318	99.97
2.37985	99.96
2.39652	99.97
2.41318	99.97
2.42985	99.97
2.44652	99.96
2.46318	99.96
2.47985	99.96
2.49652	99.97
2.51318	99.97
2.52985	99.97
2.54652	99.96
2.56318	99.97
2.57985	99.96
2.59652	99.97
2.61318	99.97
2.62985	99.97
2.64652	99.97
2.66318	99.97
2.67985	99.98
2.69652	99.98
2.71318	99.98
2.72985	99.98
2.74652	99.98
2.76318	99.99
2.77985	99.99
2.79652	99.99
2.81318	99.99
2.82985	99.99
2.84652	100.00
2.86318	100.00
2.87985	100.00
2.89652	100.01
2.91318	100.01
2.92985	100.01
2.94652	100.00
2.96318	100.01
2.97985	100.01
2.99652	100.02
3.01318	100.02
3.02985	100.02
3.04652	100.02
3.06318	100.02
3.07985	100.03
3.09652	100.03
3.11318	100.03
3.12985	100.03
3.14652	100.03
3.16318	100.03
3.17985	100.04
3.19652	100.03
3.21318	100.03
3.22985	100.04
3.24652	100.04
3.26318	100.03
3.27985	100.04
3.29652	100.04
3.31318	100.04
3.32985	100.04
3.34652	100.05
3.36318	100.04
3.37985	100.04
3.39652	100.04
3.41318	100.05
3.42985	100.05
3.44652	100.04
3.46318	100.04
3.47985	100.04
3.49652	100.05
3.51318	100.05
3.52985	100.05
3.54652	100.05
3.56318	100.05
3.57985	100.05
3.59652	100.05
3.61318	100.05
3.62985	100.05
3.64652	100.05
3.66318	100.05
3.67985	100.05
3.69652	100.05
3.71318	100.05
3.72985	100.05
3.74652	100.05
3.76318	100.05
3.77985	100.05
3.79652	100.05
3.81318	100.05
3.82985	100.05
3.84652	100.05
3.86318	100.04
3.87985	100.05
3.89652	100.05
3.91318	100.04
3.92985	100.05
3.94652	100.05
3.96318	100.05
3.97985	100.05
3.99652	100.05

[Status Trace (Carrier Gas Pressure)]
Interval(msec)	1000
# of Points	240
Start Time(min)	0.013
End Time(min)	3.997
Intensity Units	
Intensity Multiplier	1
R.Time (min)	Intensity
0.01318	57.91
0.02985	55.33
0.04652	57.84
0.06318	59.82
0.07985	58.65
0.09652	57.99
0.11318	58.00
0.12985	58.01
0.14652	58.01
0.16318	58.01
0.17985	58.00
0.19652	58.00
0.21318	58.00
0.22985	58.00
0.24652	58.00
0.26318	58.00
0.27985	58.00
0.29652	58.00
0.31318	58.00
0.32985	58.00
0.34652	58.00
0.36318	58.00
0.37985	58.00
0.39652	58.00
0.41318	58.00
0.42985	58.00
0.44652	58.00
0.46318	58.00
0.47985	58.00
0.49652	58.00
0.51318	58.00
0.52985	58.00
0.54652	58.00
0.56318	58.00
0.57985	58.00
0.59652	58.00
0.61318	58.00
0.62985	58.00
0.64652	58.00
0.66318	58.00
0.67985	58.00
0.69652	58.00
0.71318	58.00
0.72985	58.00
0.74652	58.00
0.76318	58.00
0.77985	58.00
0.79652	58.00
0.81318	58.00
0.82985	58.00
0.84652	58.00
0.86318	58.00
0.87985	58.00
0.89652	58.00
0.91318	58.00
0.92985	58.00
0.94652	58.00
0.96318	58.00
0.97985	58.00
0.99652	58.00
1.01318	58.00
1.02985	58.00
1.04652	58.00
1.06318	58.00
1.07985	58.00
1.09652	58.00
1.11318	58.00
1.12985	58.00
1.14652	58.00
1.16318	58.00
1.17985	58.00
1.19652	58.00
1.21318	58.00
1.22985	58.00
1.24652	58.00
1.26318	58.00
1.27985	58.00
1.29652	58.00
1.31318	58.00
1.32985	58.00
1.34652	58.00
1.36318	58.00
1.37985	58.00
1.39652	58.00
1.41318	58.00
1.42985	58.00
1.44652	58.00
1.46318	58.00
1.47985	58.00
1.49652	58.00
1.51318	58.00
1.52985	58.00
1.54652	58.00
1.56318	58.00
1.57985	58.00
1.59652	58.00
1.61318	58.00
1.62985	58.01
1.64652	58.00
1.66318	58.00
1.67985	58.01
1.69652	58.00
1.71318	58.00
1.72985	58.00
1.74652	58.00
1.76318	58.00
1.77985	58.00
1.79652	58.00
1.81318	58.00
1.82985	58.00
1.84652	58.00
1.86318	58.00
1.87985	58.00
1.89652	58.00
1.91318	58.00
1.92985	58.00
1.94652	58.00
1.96318	58.00
1.97985	58.00
1.99652	58.00
2.01318	58.00
2.02985	58.00
2.04652	58.00
2.06318	58.00
2.07985	58.00
2.09652	58.00
2.11318	58.00
2.12985	58.00
2.14652	58.00
2.16318	58.00
2.17985	58.00
2.19652	58.00
2.21318	58.00
2.22985	58.00
2.24652	58.00
2.26318	58.00
2.27985	58.00
2.29652	58.00
2.31318	58.00
2.32985	58.00
2.34652	58.00
2.36318	58.00
2.37985	57.99
2.39652	57.99
2.41318	58.00
2.42985	58.00
2.44652	58.00
2.46318	58.00
2.47985	58.00
2.49652	58.00
2.51318	57.99
2.52985	57.99
2.54652	58.00
2.56318	58.00
2.57985	58.00
2.59652	58.00
2.61318	58.00
2.62985	58.00
2.64652	58.00
2.66318	58.00
2.67985	58.00
2.69652	58.00
2.71318	58.00
2.72985	58.00
2.74652	58.00
2.76318	58.00
2.77985	58.00
2.79652	58.00
2.81318	58.00
2.82985	58.00
2.84652	58.00
2.86318	58.00
2.87985	58.00
2.89652	58.00
2.91318	58.00
2.92985	58.00
2.94652	58.00
2.96318	58.00
2.97985	58.00
2.99652	58.00
3.01318	58.00
3.02985	58.00
3.04652	58.00
3.06318	58.00
3.07985	58.00
3.09652	58.00
3.11318	58.00
3.12985	58.00
3.14652	58.00
3.16318	58.00
3.17985	58.00
3.19652	58.00
3.21318	58.00
3.22985	58.00
3.24652	58.00
3.26318	58.00
3.27985	58.00
3.29652	58.00
3.31318	58.00
3.32985	58.00
3.34652	58.00
3.36318	58.00
3.37985	58.00
3.39652	58.00
3.41318	58.00
3.42985	58.00
3.44652	58.00
3.46318	58.00
3.47985	58.00
3.49652	58.00
3.51318	58.00
3.52985	58.00
3.54652	58.00
3.56318	58.00
3.57985	58.00
3.59652	58.00
3.61318	58.00
3.62985	58.00
3.64652	58.00
3.66318	58.00
3.67985	58.00
3.69652	58.00
3.71318	58.00
3.72985	58.00
3.74652	58.00
3.76318	58.00
3.77985	58.00
3.79652	58.00
3.81318	58.00
3.82985	58.00
3.84652	58.00
3.86318	58.00
3.87985	58.00
3.89652	58.00
3.91318	58.00
3.92985	58.00
3.94652	58.00
3.96318	58.00
3.97985	58.00
3.99652	58.00

[Status Trace (Carrier Gas Flow)]
Interval(msec)	1000
# of Points	240
Start Time(min)	0.013
End Time(min)	3.997
Intensity Units	
Intensity Multiplier	1
R.Time (min)	Intensity
0.01318	34.68
0.02985	34.54
0.04652	34.54
0.06318	34.52
0.07985	34.51
0.09652	34.52
0.11318	34.52
0.12985	34.52
0.14652	34.52
0.16318	34.51
0.17985	34.52
0.19652	34.52
0.21318	34.52
0.22985	34.52
0.24652	34.52
0.26318	34.52
0.27985	34.52
0.29652	34.52
0.31318	34.53
0.32985	34.52
0.34652	34.52
0.36318	34.52
0.37985	34.52
0.39652	34.52
0.41318	34.52
0.42985	34.52
0.44652	34.52
0.46318	34.52
0.47985	34.52
0.49652	34.52
0.51318	34.52
0.52985	34.51
0.54652	34.52
0.56318	34.52
0.57985	34.52
0.59652	34.52
0.61318	34.52
0.62985	34.52
0.64652	34.52
0.66318	34.52
0.67985	34.52
0.69652	34.51
0.71318	34.52
0.72985	34.52
0.74652	34.52
0.76318	34.52
0.77985	34.51
0.79652	34.52
0.81318	34.52
0.82985	34.51
0.84652	34.52
0.86318	34.52
0.87985	34.52
0.89652	34.52
0.91318	34.52
0.92985	34.53
0.94652	34.52
0.96318	34.52
0.97985	34.53
0.99652	34.52
1.01318	34.51
1.02985	34.52
1.04652	34.52
1.06318	34.52
1.07985	34.52
1.09652	34.52
1.11318	34.52
1.12985	34.52
1.14652	34.52
1.16318	34.52
1.17985	34.52
1.19652	34.52
1.21318	34.52
1.22985	34.52
1.24652	34.51
1.26318	34.52
1.27985	34.52
1.29652	34.52
1.31318	34.51
1.32985	34.52
1.34652	34.52
1.36318	34.52
1.37985	34.52
1.39652	34.52
1.41318	34.52
1.42985	34.52
1.44652	34.52
1.46318	34.52
1.47985	34.52
1.49652	34.52
1.51318	34.52
1.52985	34.52
1.54652	34.52
1.56318	34.52
1.57985	34.52
1.59652	34.52
1.61318	34.52
1.62985	34.52
1.64652	34.52
1.66318	34.52
1.67985	34.52
1.69652	34.51
1.71318	34.52
1.72985	34.52
1.74652	34.52
1.76318	34.51
1.77985	34.52
1.79652	34.52
1.81318	34.52
1.82985	34.52
1.84652	34.52
1.86318	34.52
1.87985	34.52
1.89652	34.52
1.91318	34.52
1.92985	34.52
1.94652	34.52
1.96318	34.52
1.97985	34.52
1.99652	34.52
2.01318	34.52
2.02985	34.52
2.04652	34.52
2.06318	34.52
2.07985	34.52
2.09652	34.52
2.11318	34.52
2.12985	34.52
2.14652	34.52
2.16318	34.52
2.17985	34.51
2.19652	34.51
2.21318	34.53
2.22985	34.52
2.24652	34.52
2.26318	34.51
2.27985	34.51
2.29652	34.52
2.31318	34.52
2.32985	34.52
2.34652	34.52
2.36318	34.52
2.37985	34.52
2.39652	34.52
2.41318	34.52
2.42985	34.52
2.44652	34.52
2.46318	34.51
2.47985	34.52
2.49652	34.51
2.51318	34.52
2.52985	34.52
2.54652	34.52
2.56318	34.52
2.57985	34.51
2.59652	34.52
2.61318	34.52
2.62985	34.52
2.64652	34.52
2.66318	34.52
2.67985	34.52
2.69652	34.52
2.71318	34.52
2.72985	34.52
2.74652	34.52
2.76318	34.51
2.77985	34.52
2.79652	34.52
2.81318	34.52
2.82985	34.52
2.84652	34.52
2.86318	34.52
2.87985	34.52
2.89652	34.52
2.91318	34.52
2.92985	34.52
2.94652	34.52
2.96318	34.52
2.97985	34.52
2.99652	34.51
3.01318	34.52
3.02985	34.52
3.04652	34.52
3.06318	34.52
3.07985	34.52
3.09652	34.52
3.11318	34.52
3.12985	34.52
3.14652	34.52
3.16318	34.52
3.17985	34.52
3.19652	34.52
3.21318	34.53
3.22985	34.52
3.24652	34.52
3.26318	34.52
3.27985	34.52
3.29652	34.51
3.31318	34.52
3.32985	34.52
3.34652	34.52
3.36318	34.52
3.37985	34.52
3.39652	34.52
3.41318	34.51
3.42985	34.52
3.44652	34.52
3.46318	34.52
3.47985	34.51
3.49652	34.52
3.51318	34.52
3.52985	34.52
3.54652	34.52
3.56318	34.52
3.57985	34.52
3.59652	34.52
3.61318	34.52
3.62985	34.52
3.64652	34.52
3.66318	34.52
3.67985	34.52
3.69652	34.52
3.71318	34.51
3.72985	34.52
3.74652	34.52
3.76318	34.52
3.77985	34.52
3.79652	34.52
3.81318	34.52
3.82985	34.52
3.84652	34.52
3.86318	34.52
3.87985	34.52
3.89652	34.52
3.91318	34.52
3.92985	34.52
3.94652	34.52
3.96318	34.51
3.97985	34.52
3.99652	34.53

[Status Trace (Column Flow)]
Interval(msec)	1000
# of Points	240
Start Time(min)	0.013
End Time(min)	3.997
Intensity Units	
Intensity Multiplier	1
R.Time (min)	Intensity
0.01318	5.49
0.02985	5.19
0.04652	5.48
0.06318	5.71
0.07985	5.57
0.09652	5.49
0.11318	5.50
0.12985	5.50
0.14652	5.50
0.16318	5.50
0.17985	5.50
0.19652	5.50
0.21318	5.50
0.22985	5.50
0.24652	5.50
0.26318	5.50
0.27985	5.50
0.29652	5.50
0.31318	5.50
0.32985	5.50
0.34652	5.50
0.36318	5.50
0.37985	5.50
0.39652	5.50
0.41318	5.50
0.42985	5.50
0.44652	5.50
0.46318	5.50
0.47985	5.50
0.49652	5.50
0.51318	5.50
0.52985	5.50
0.54652	5.50
0.56318	5.50
0.57985	5.50
0.59652	5.50
0.61318	5.50
0.62985	5.50
0.64652	5.50
0.66318	5.50
0.67985	5.50
0.69652	5.50
0.71318	5.50
0.72985	5.50
0.74652	5.50
0.76318	5.50
0.77985	5.50
0.79652	5.50
0.81318	5.50
0.82985	5.50
0.84652	5.50
0.86318	5.50
0.87985	5.50
0.89652	5.50
0.91318	5.50
0.92985	5.50
0.94652	5.50
0.96318	5.50
0.97985	5.50
0.99652	5.50
1.01318	5.50
1.02985	5.50
1.04652	5.50
1.06318	5.50
1.07985	5.50
1.09652	5.50
1.11318	5.50
1.12985	5.50
1.14652	5.50
1.16318	5.50
1.17985	5.50
1.19652	5.50
1.21318	5.50
1.22985	5.50
1.24652	5.50
1.26318	5.50
1.27985	5.50
1.29652	5.50
1.31318	5.50
1.32985	5.50
1.34652	5.50
1.36318	5.50
1.37985	5.50
1.39652	5.50
1.41318	5.50
1.42985	5.50
1.44652	5.50
1.46318	5.50
1.47985	5.50
1.49652	5.50
1.51318	5.50
1.52985	5.50
1.54652	5.50
1.56318	5.50
1.57985	5.50
1.59652	5.50
1.61318	5.50
1.62985	5.49
1.64652	5.48
1.66318	5.48
1.67985	5.47
1.69652	5.45
1.71318	5.44
1.72985	5.43
1.74652	5.42
1.76318	5.41
1.77985	5.40
1.79652	5.39
1.81318	5.38
1.82985	5.37
1.84652	5.36
1.86318	5.35
1.87985	5.34
1.89652	5.33
1.91318	5.32
1.92985	5.31
1.94652	5.30
1.96318	5.29
1.97985	5.28
1.99652	5.27
2.01318	5.26
2.02985	5.26
2.04652	5.25
2.06318	5.24
2.07985	5.23
2.09652	5.22
2.11318	5.21
2.12985	5.20
2.14652	5.19
2.16318	5.18
2.17985	5.17
2.19652	5.16
2.21318	5.15
2.22985	5.14
2.24652	5.13
2.26318	5.12
2.27985	5.11
2.29652	5.11
2.31318	5.10
2.32985	5.09
2.34652	5.08
2.36318	5.07
2.37985	5.07
2.39652	5.06
2.41318	5.06
2.42985	5.06
2.44652	5.06
2.46318	5.06
2.47985	5.06
2.49652	5.06
2.51318	5.06
2.52985	5.06
2.54652	5.06
2.56318	5.06
2.57985	5.06
2.59652	5.06
2.61318	5.06
2.62985	5.06
2.64652	5.06
2.66318	5.06
2.67985	5.06
2.69652	5.06
2.71318	5.06
2.72985	5.06
2.74652	5.06
2.76318	5.06
2.77985	5.06
2.79652	5.06
2.81318	5.06
2.82985	5.06
2.84652	5.06
2.86318	5.06
2.87985	5.06
2.89652	5.06
2.91318	5.06
2.92985	5.06
2.94652	5.06
2.96318	5.06
2.97985	5.06
2.99652	5.06
3.01318	5.06
3.02985	5.06
3.04652	5.06
3.06318	5.06
3.07985	5.06
3.09652	5.06
3.11318	5.06
3.12985	5.06
3.14652	5.06
3.16318	5.06
3.17985	5.06
3.19652	5.06
3.21318	5.05
3.22985	5.05
3.24652	5.05
3.26318	5.05
3.27985	5.05
3.29652	5.05
3.31318	5.05
3.32985	5.05
3.34652	5.05
3.36318	5.05
3.37985	5.05
3.39652	5.05
3.41318	5.05
3.42985	5.05
3.44652	5.05
3.46318	5.05
3.47985	5.05
3.49652	5.05
3.51318	5.05
3.52985	5.06
3.54652	5.06
3.56318	5.06
3.57985	5.06
3.59652	5.06
3.61318	5.06
3.62985	5.06
3.64652	5.06
3.66318	5.06
3.67985	5.06
3.69652	5.06
3.71318	5.06
3.72985	5.06
3.74652	5.06
3.76318	5.06
3.77985	5.06
3.79652	5.06
3.81318	5.06
3.82985	5.06
3.84652	5.06
3.86318	5.06
3.87985	5.06
3.89652	5.06
3.91318	5.06
3.92985	5.06
3.94652	5.06
3.96318	5.06
3.97985	5.06
3.99652	5.06

[Status Trace (Linear Velocity)]
Interval(msec)	1000
# of Points	240
Start Time(min)	0.013
End Time(min)	3.997
Intensity Units	
Intensity Multiplier	1
R.Time (min)	Intensity
0.01318	38.95
0.02985	37.25
0.04652	38.90
0.06318	40.20
0.07985	39.43
0.09652	38.99
0.11318	39.00
0.12985	39.01
0.14652	39.01
0.16318	39.01
0.17985	39.01
0.19652	39.01
0.21318	39.01
0.22985	39.01
0.24652	39.01
0.26318	39.01
0.27985	39.01
0.29652	39.01
0.31318	39.01
0.32985	39.01
0.34652	39.00
0.36318	39.01
0.37985	39.01
0.39652	39.01
0.41318	39.01
0.42985	39.01
0.44652	39.01
0.46318	39.01
0.47985	39.01
0.49652	39.01
0.51318	39.01
0.52985	39.01
0.54652	39.01
0.56318	39.01
0.57985	39.01
0.59652	39.01
0.61318	39.01
0.62985	39.01
0.64652	39.01
0.66318	39.01
0.67985	39.01
0.69652	39.01
0.71318	39.01
0.72985	39.01
0.74652	39.01
0.76318	39.01
0.77985	39.01
0.79652	39.01
0.81318	39.01
0.82985	39.01
0.84652	39.01
0.86318	39.01
0.87985	39.01
0.89652	39.01
0.91318	39.01
0.92985	39.01
0.94652	39.01
0.96318	39.01
0.97985	39.01
0.99652	39.01
1.01318	39.01
1.02985	39.01
1.04652	39.01
1.06318	39.01
1.07985	39.01
1.09652	39.01
1.11318	39.01
1.12985	39.01
1.14652	39.01
1.16318	39.01
1.17985	39.01
1.19652	39.01
1.21318	39.01
1.22985	39.01
1.24652	39.01
1.26318	39.01
1.27985	39.01
1.29652	39.01
1.31318	39.01
1.32985	39.01
1.34652	39.01
1.36318	39.01
1.37985	39.01
1.39652	39.01
1.41318	39.01
1.42985	39.01
1.44652	39.01
1.46318	39.01
1.47985	39.01
1.49652	39.01
1.51318	39.01
1.52985	39.01
1.54652	39.01
1.56318	39.01
1.57985	39.01
1.59652	39.01
1.61318	39.01
1.62985	38.99
1.64652	38.97
1.66318	38.95
1.67985	38.91
1.69652	38.88
1.71318	38.84
1.72985	38.81
1.74652	38.78
1.76318	38.75
1.77985	38.72
1.79652	38.68
1.81318	38.65
1.82985	38.62
1.84652	38.59
1.86318	38.56
1.87985	38.53
1.89652	38.50
1.91318	38.47
1.92985	38.44
1.94652	38.41
1.96318	38.38
1.97985	38.35
1.99652	38.32
2.01318	38.29
2.02985	38.26
2.04652	38.23
2.06318	38.20
2.07985	38.17
2.09652	38.14
2.11318	38.11
2.12985	38.08
2.14652	38.05
2.16318	38.02
2.17985	37.99
2.19652	37.96
2.21318	37.93
2.22985	37.90
2.24652	37.87
2.26318	37.84
2.27985	37.81
2.29652	37.78
2.31318	37.75
2.32985	37.72
2.34652	37.70
2.36318	37.67
2.37985	37.65
2.39652	37.65
2.41318	37.65
2.42985	37.65
2.44652	37.65
2.46318	37.65
2.47985	37.65
2.49652	37.65
2.51318	37.64
2.52985	37.64
2.54652	37.65
2.56318	37.64
2.57985	37.64
2.59652	37.64
2.61318	37.64
2.62985	37.64
2.64652	37.64
2.66318	37.64
2.67985	37.64
2.69652	37.64
2.71318	37.64
2.72985	37.64
2.74652	37.64
2.76318	37.64
2.77985	37.64
2.79652	37.64
2.81318	37.64
2.82985	37.64
2.84652	37.63
2.86318	37.63
2.87985	37.63
2.89652	37.63
2.91318	37.63
2.92985	37.63
2.94652	37.63
2.96318	37.63
2.97985	37.63
2.99652	37.63
3.01318	37.63
3.02985	37.63
3.04652	37.63
3.06318	37.63
3.07985	37.63
3.09652	37.63
3.11318	37.63
3.12985	37.63
3.14652	37.63
3.16318	37.63
3.17985	37.63
3.19652	37.62
3.21318	37.62
3.22985	37.62
3.24652	37.62
3.26318	37.62
3.27985	37.62
3.29652	37.62
3.31318	37.62
3.32985	37.62
3.34652	37.62
3.36318	37.62
3.37985	37.62
3.39652	37.62
3.41318	37.62
3.42985	37.62
3.44652	37.62
3.46318	37.62
3.47985	37.62
3.49652	37.62
3.51318	37.62
3.52985	37.62
3.54652	37.62
3.56318	37.62
3.57985	37.62
3.59652	37.62
3.61318	37.63
3.62985	37.63
3.64652	37.63
3.66318	37.63
3.67985	37.62
3.69652	37.62
3.71318	37.62
3.72985	37.63
3.74652	37.63
3.76318	37.63
3.77985	37.63
3.79652	37.63
3.81318	37.63
3.82985	37.63
3.84652	37.63
3.86318	37.63
3.87985	37.63
3.89652	37.63
3.91318	37.62
3.92985	37.62
3.94652	37.63
3.96318	37.63
3.97985	37.63
3.99652	37.63

