[Header]
Application Name	LabSolutions
Version	5.110
Data File Name	C:\Users\User\Desktop\Junior\UIC Prairie Sampling\6.2.23\06022023_068.gcd
Output Date	6/12/2023
Output Time	11:47:13 AM

[File Information]
Type	Data File
Generated	6/6/2023 5:10:11 PM
Generated by	System Administrator
Modified	6/6/2023 5:17:29 PM
Modified by	System Administrator

[Sample Information]
Operator Name	System Administrator
Acquired	6/6/2023 5:13:28 PM
Sample Type	0:Unknown
Level	0
Sample Name	068
Sample ID	068
ISTD Amount1	1
ISTD Amount2	1
ISTD Amount3	1
ISTD Amount4	1
ISTD Amount5	1
ISTD Amount6	1
ISTD Amount7	1
ISTD Amount8	1
ISTD Amount9	1
ISTD Amount10	1
ISTD Amount11	1
ISTD Amount12	1
ISTD Amount13	1
ISTD Amount14	1
ISTD Amount15	1
ISTD Amount16	1
ISTD Amount17	1
ISTD Amount18	1
ISTD Amount19	1
ISTD Amount20	1
ISTD Amount21	1
ISTD Amount22	1
ISTD Amount23	1
ISTD Amount24	1
ISTD Amount25	1
ISTD Amount26	1
ISTD Amount27	1
ISTD Amount28	1
ISTD Amount29	1
ISTD Amount30	1
ISTD Amount31	1
ISTD Amount32	1
Sample Amount	1
Dilution Factor	1
Vial#	67
Injection Volume	1
Injection Count	1
Bar Code	

[Original Files]
Data File	C:\Users\User\Desktop\Junior\UIC Prairie Sampling\6.2.23\06022023_068.gcd
Method File	C:\LabSolutions\Data\GHG_4min_2022\ghg3_togas_w_acet_4 min_new_int.gcm
Batch File	C:\LabSolutions\Data\AutoSamplerTesting\06022023.gcb
Report Format File	c:\LabSolutions\System\DEFAULT.lsr

[File Description]


[Configuration]
Instrument Name	C0B7VH3-Instrument1
Instrument #	1
Line #	1
# of Detectors	3
Detector ID	DET#1	DET#2	DET#3
Detector Name	FID	PTCD	ECD
# of Channels	1	1	1

[Peak Table(Ch1)]
# of Peaks	3
Peak#	R.Time	I.Time	F.Time	Area	Height	A/H	Conc.	Mark	ID#	Name	k'	Plate #	Plate Ht.	Tailing	Resolution	Sep.Factor	Area Ratio	Height Ratio	Conc. %	Norm Conc.
1	1.472	1.432	1.523	4480	2197	2.039	0.000	   	1	CO	0.000	9614	15.602	1.194	0.000	0.000	0	0	0.000	0.000
2	1.564	1.523	1.619	4425	2260	1.959	21.575	 V 	2	CH4	0.062	11723	12.795	1.078	1.556	0.000	0	0	4.469	4.469
3	1.989	1.941	2.484	2393087	1156976	2.068	461.192	   	3	CO2	0.351	17671	8.488	1.219	7.233	5.640	0	0	95.531	95.531

[Peak Table(Ch2)]
# of Peaks	0

[Peak Table(Ch3)]
# of Peaks	5
Peak#	R.Time	I.Time	F.Time	Area	Height	A/H	Conc.	Mark	ID#	Name	k'	Plate #	Plate Ht.	Tailing	Resolution	Sep.Factor	Area Ratio	Height Ratio	Conc. %	Norm Conc.
1	2.081	1.956	2.242	182	19	9.720	0.000	   			0.000	3502	42.829	1.151	0.000	0.000	0	0	0.000	0.000
2	2.499	2.440	2.535	3669	816	4.495	0.000	   			0.201	659	227.672	0.000	1.577	0.000	0	0	0.000	0.000
3	2.561	2.535	2.664	5256	787	6.682	0.000	 V 			0.231	122	1232.697	0.000	0.095	1.149	0	0	0.000	0.000
4	2.700	2.664	2.825	5366	615	8.730	0.000	 V 			0.298	61	2462.684	0.000	0.120	1.290	0	0	0.000	0.000
5	2.887	2.825	3.987	38111	5212	7.313	0.564	 V 	1	N2O	0.388	11672	12.851	0.000	0.251	1.302	0	0	100.000	100.000

[Compound Results(Ch1)]
# of IDs	6
ID#	Name	R.Time	Area	Height	Conc.	Curve	3rd	2nd	1st	Constant	Area Ratio	Height Ratio	Conc. %	Norm Conc.
1	CO	1.472	4480	2197	0.000	Linear	0.000000e+00	0.000000e+00	0.000000e+00	0.000000e+00	0	0	0.000	0.000
2	CH4	1.564	4425	2260	21.575	Linear	0.000000e+00	0.000000e+00	2.051179e+002	0.000000e+00	0	0	4.469	4.469
3	CO2	1.989	2393087	1156976	461.192	Linear	0.000000e+00	0.000000e+00	5.188919e+003	0.000000e+00	0	0	95.531	95.531
4	Ethylene	0.000	0	0	0.000	Linear	0.000000e+00	0.000000e+00	0.000000e+00	0.000000e+00	0	0	0.000	0.000
5	Acetylene	0.000	0	0	0.000	Linear	0.000000e+00	0.000000e+00	0.000000e+00	0.000000e+00	0	0	0.000	0.000
6	Ethane	0.000	0	0	0.000	Linear	0.000000e+00	0.000000e+00	0.000000e+00	0.000000e+00	0	0	0.000	0.000

[Compound Results(Ch2)]
# of IDs	5
ID#	Name	R.Time	Area	Height	Conc.	Curve	3rd	2nd	1st	Constant	Area Ratio	Height Ratio	Conc. %	Norm Conc.
1	Hydrogen	0.000	0	0	0.000	Linear	0.000000e+00	0.000000e+00	0.000000e+00	0.000000e+00	0	0	0.000	0.000
2	Oxygen	0.000	0	0	0.000	Linear	0.000000e+00	0.000000e+00	0.000000e+00	0.000000e+00	0	0	0.000	0.000
3	Nitrogen	0.000	0	0	0.000	Linear	0.000000e+00	0.000000e+00	0.000000e+00	0.000000e+00	0	0	0.000	0.000
4	Methane	0.000	0	0	0.000	Linear	0.000000e+00	0.000000e+00	0.000000e+00	0.000000e+00	0	0	0.000	0.000
5	Carbon Monoxide	0.000	0	0	0.000	Linear	0.000000e+00	0.000000e+00	0.000000e+00	0.000000e+00	0	0	0.000	0.000

[Compound Results(Ch3)]
# of IDs	2
ID#	Name	R.Time	Area	Height	Conc.	Curve	3rd	2nd	1st	Constant	Area Ratio	Height Ratio	Conc. %	Norm Conc.
1	N2O	2.887	38111	5212	0.564	Linear	0.000000e+00	0.000000e+00	6.759880e+004	0.000000e+00	0	0	100.000	100.000
2	SF6	0.000	0	0	0.000	Linear	0.000000e+00	0.000000e+00	0.000000e+00	0.000000e+00	0	0	0.000	0.000

[Group Results(Ch1)]
# of Groups	0

[Group Results(Ch2)]
# of Groups	0

[Group Results(Ch3)]
# of Groups	0

[Chromatogram (Ch1)]
Interval(msec)	220
# of Points	1091
Start Time(min)	0.002
End Time(min)	3.998
R.Time (min)	Intensity
0.00167	2
0.00533	-6
0.00900	-15
0.01267	-22
0.01633	-26
0.02000	-25
0.02367	-20
0.02733	-13
0.03100	-6
0.03467	-1
0.03833	1
0.04200	3
0.04567	3
0.04933	0
0.05300	-3
0.05667	-4
0.06033	-3
0.06400	-3
0.06767	-4
0.07133	-6
0.07500	-5
0.07867	-1
0.08233	3
0.08600	6
0.08967	6
0.09333	3
0.09700	-2
0.10067	-5
0.10433	-4
0.10800	1
0.11167	6
0.11533	8
0.11900	8
0.12267	8
0.12633	7
0.13000	5
0.13367	-2
0.13733	-15
0.14100	-28
0.14467	-37
0.14833	-38
0.15200	-31
0.15567	-26
0.15933	-27
0.16300	-29
0.16667	-29
0.17033	-29
0.17400	-26
0.17767	-23
0.18133	-22
0.18500	-21
0.18867	-19
0.19233	-13
0.19600	-7
0.19967	-5
0.20333	-6
0.20700	-10
0.21067	-13
0.21433	-14
0.21800	-14
0.22167	-13
0.22533	-10
0.22900	-6
0.23267	-2
0.23633	6
0.24000	14
0.24367	21
0.24733	22
0.25100	18
0.25467	9
0.25833	-2
0.26200	-10
0.26567	-14
0.26933	-16
0.27300	-18
0.27667	-20
0.28033	-21
0.28400	-21
0.28767	-20
0.29133	-21
0.29500	-24
0.29867	-24
0.30233	-23
0.30600	-22
0.30967	-22
0.31333	-20
0.31700	-14
0.32067	-9
0.32433	-10
0.32800	-11
0.33167	-11
0.33533	-10
0.33900	-7
0.34267	-4
0.34633	-1
0.35000	0
0.35367	3
0.35733	6
0.36100	6
0.36467	3
0.36833	-1
0.37200	-3
0.37567	0
0.37933	5
0.38300	6
0.38667	3
0.39033	1
0.39400	-0
0.39767	-1
0.40133	-2
0.40500	-3
0.40867	-6
0.41233	-11
0.41600	-17
0.41967	-24
0.42333	-30
0.42700	-32
0.43067	-29
0.43433	-23
0.43800	-18
0.44167	-12
0.44533	-12
0.44900	-17
0.45267	-22
0.45633	-26
0.46000	-28
0.46367	-26
0.46733	-21
0.47100	-15
0.47467	-10
0.47833	-5
0.48200	-2
0.48567	-3
0.48933	-10
0.49300	-19
0.49667	-26
0.50033	-30
0.50400	-35
0.50767	-37
0.51133	-37
0.51500	-37
0.51867	-36
0.52233	-34
0.52600	-30
0.52967	-24
0.53333	-18
0.53700	-12
0.54067	-7
0.54433	-5
0.54800	-6
0.55167	-10
0.55533	-15
0.55900	-19
0.56267	-20
0.56633	-20
0.57000	-22
0.57367	-27
0.57733	-30
0.58100	-28
0.58467	-29
0.58833	-31
0.59200	-34
0.59567	-34
0.59933	-33
0.60300	-30
0.60667	-26
0.61033	-23
0.61400	-22
0.61767	-22
0.62133	-26
0.62500	-30
0.62867	-30
0.63233	-27
0.63600	-22
0.63967	-19
0.64333	-19
0.64700	-23
0.65067	-27
0.65433	-31
0.65800	-35
0.66167	-38
0.66533	-39
0.66900	-36
0.67267	-29
0.67633	-21
0.68000	-14
0.68367	-11
0.68733	-12
0.69100	-13
0.69467	-14
0.69833	-18
0.70200	-25
0.70567	-31
0.70933	-35
0.71300	-37
0.71667	-39
0.72033	-40
0.72400	-37
0.72767	-32
0.73133	-30
0.73500	-33
0.73867	-38
0.74233	-42
0.74600	-44
0.74967	-44
0.75333	-42
0.75700	-42
0.76067	-42
0.76433	-41
0.76800	-38
0.77167	-35
0.77533	-30
0.77900	-25
0.78267	-22
0.78633	-21
0.79000	-21
0.79367	-23
0.79733	-26
0.80100	-29
0.80467	-30
0.80833	-29
0.81200	-25
0.81567	-19
0.81933	-15
0.82300	-17
0.82667	-21
0.83033	-26
0.83400	-34
0.83767	-44
0.84133	-51
0.84500	-57
0.84867	-58
0.85233	-55
0.85600	-52
0.85967	-52
0.86333	-55
0.86700	-56
0.87067	-52
0.87433	-43
0.87800	-33
0.88167	-27
0.88533	-26
0.88900	-32
0.89267	-39
0.89633	-46
0.90000	-50
0.90367	-53
0.90733	-51
0.91100	-47
0.91467	-46
0.91833	-45
0.92200	-42
0.92567	-40
0.92933	-38
0.93300	-38
0.93667	-41
0.94033	-41
0.94400	-35
0.94767	-28
0.95133	-23
0.95500	-20
0.95867	-19
0.96233	-22
0.96600	-28
0.96967	-37
0.97333	-46
0.97700	-49
0.98067	-53
0.98433	-58
0.98800	-63
0.99167	-67
0.99533	-68
0.99900	-65
1.00267	-62
1.00633	-57
1.01000	-51
1.01367	-46
1.01733	-41
1.02100	-37
1.02467	-36
1.02833	-39
1.03200	-47
1.03567	-58
1.03933	-69
1.04300	-79
1.04667	-86
1.05033	-92
1.05400	-97
1.05767	-99
1.06133	-96
1.06500	-86
1.06867	-78
1.07233	-74
1.07600	-75
1.07967	-75
1.08333	-72
1.08700	-67
1.09067	-63
1.09433	-62
1.09800	-61
1.10167	-59
1.10533	-54
1.10900	-46
1.11267	-42
1.11633	-42
1.12000	-44
1.12367	-48
1.12733	-52
1.13100	-59
1.13467	-63
1.13833	-63
1.14200	-58
1.14567	-51
1.14933	-46
1.15300	-45
1.15667	-49
1.16033	-58
1.16400	-63
1.16767	-65
1.17133	-64
1.17500	-62
1.17867	-62
1.18233	-63
1.18600	-61
1.18967	-55
1.19333	-49
1.19700	-47
1.20067	-48
1.20433	-51
1.20800	-55
1.21167	-60
1.21533	-64
1.21900	-65
1.22267	-65
1.22633	-63
1.23000	-58
1.23367	-53
1.23733	-50
1.24100	-47
1.24467	-49
1.24833	-53
1.25200	-57
1.25567	-57
1.25933	-55
1.26300	-57
1.26667	-61
1.27033	-64
1.27400	-65
1.27767	-68
1.28133	-70
1.28500	-68
1.28867	-68
1.29233	-70
1.29600	-71
1.29967	-68
1.30333	-58
1.30700	-44
1.31067	-37
1.31433	-38
1.31800	-43
1.32167	-48
1.32533	-55
1.32900	-64
1.33267	-73
1.33633	-80
1.34000	-83
1.34367	-85
1.34733	-87
1.35100	-89
1.35467	-92
1.35833	-95
1.36200	-98
1.36567	-98
1.36933	-97
1.37300	-97
1.37667	-95
1.38033	-86
1.38400	-73
1.38767	-61
1.39133	-54
1.39500	-56
1.39867	-62
1.40233	-73
1.40600	-85
1.40967	-95
1.41333	-101
1.41700	-103
1.42067	-103
1.42433	-100
1.42800	-96
1.43167	-89
1.43533	-72
1.43900	-39
1.44267	2
1.44633	107
1.45000	370
1.45367	766
1.45733	1194
1.46100	1578
1.46467	1877
1.46833	2064
1.47200	2110
1.47567	1996
1.47933	1745
1.48300	1419
1.48667	1080
1.49033	778
1.49400	536
1.49767	354
1.50133	222
1.50500	129
1.50867	63
1.51233	18
1.51600	-12
1.51967	-30
1.52333	-37
1.52700	-36
1.53067	-26
1.53433	24
1.53800	177
1.54167	482
1.54533	902
1.54900	1341
1.55267	1722
1.55633	2008
1.56000	2173
1.56367	2177
1.56733	2003
1.57100	1681
1.57467	1297
1.57833	927
1.58200	619
1.58567	388
1.58933	226
1.59300	115
1.59667	41
1.60033	-4
1.60400	-30
1.60767	-46
1.61133	-60
1.61500	-72
1.61867	-80
1.62233	-85
1.62600	-85
1.62967	-82
1.63333	-80
1.63700	-83
1.64067	-96
1.64433	-114
1.64800	-132
1.65167	-144
1.65533	-148
1.65900	-148
1.66267	-147
1.66633	-147
1.67000	-144
1.67367	-139
1.67733	-132
1.68100	-128
1.68467	-123
1.68833	-121
1.69200	-124
1.69567	-128
1.69933	-128
1.70300	-123
1.70667	-113
1.71033	-99
1.71400	-89
1.71767	-83
1.72133	-84
1.72500	-94
1.72867	-110
1.73233	-122
1.73600	-129
1.73967	-128
1.74333	-122
1.74700	-117
1.75067	-116
1.75433	-120
1.75800	-125
1.76167	-125
1.76533	-122
1.76900	-122
1.77267	-121
1.77633	-117
1.78000	-111
1.78367	-106
1.78733	-103
1.79100	-102
1.79467	-103
1.79833	-106
1.80200	-108
1.80567	-110
1.80933	-111
1.81300	-108
1.81667	-103
1.82033	-98
1.82400	-98
1.82767	-100
1.83133	-100
1.83500	-99
1.83867	-97
1.84233	-96
1.84600	-96
1.84967	-96
1.85333	-97
1.85700	-96
1.86067	-98
1.86433	-100
1.86800	-102
1.87167	-103
1.87533	-102
1.87900	-99
1.88267	-98
1.88633	-99
1.89000	-101
1.89367	-103
1.89733	-105
1.90100	-106
1.90467	-102
1.90833	-96
1.91200	-89
1.91567	-86
1.91933	-87
1.92300	-91
1.92667	-94
1.93033	-99
1.93400	-103
1.93767	-104
1.94133	-98
1.94500	-53
1.94867	252
1.95233	2014
1.95600	9761
1.95967	35312
1.96333	99494
1.96700	223370
1.97067	409497
1.97433	632661
1.97800	851944
1.98167	1028468
1.98533	1134546
1.98900	1156916
1.99267	1097265
1.99633	971942
2.00000	807963
2.00367	634839
2.00733	476042
2.01100	344471
2.01467	243270
2.01833	169458
2.02200	117566
2.02567	81951
2.02933	57852
2.03300	41640
2.03667	30722
2.04033	23314
2.04400	18225
2.04767	14665
2.05133	12112
2.05500	10236
2.05867	8825
2.06233	7733
2.06600	6870
2.06967	6175
2.07333	5604
2.07700	5123
2.08067	4710
2.08433	4352
2.08800	4043
2.09167	3773
2.09533	3538
2.09900	3329
2.10267	3141
2.10633	2966
2.11000	2804
2.11367	2657
2.11733	2525
2.12100	2405
2.12467	2293
2.12833	2191
2.13200	2098
2.13567	2010
2.13933	1925
2.14300	1844
2.14667	1770
2.15033	1701
2.15400	1638
2.15767	1582
2.16133	1531
2.16500	1484
2.16867	1440
2.17233	1399
2.17600	1357
2.17967	1315
2.18333	1272
2.18700	1228
2.19067	1185
2.19433	1145
2.19800	1110
2.20167	1079
2.20533	1054
2.20900	1034
2.21267	1016
2.21633	995
2.22000	969
2.22367	942
2.22733	915
2.23100	888
2.23467	866
2.23833	847
2.24200	830
2.24567	814
2.24933	799
2.25300	781
2.25667	764
2.26033	744
2.26400	723
2.26767	700
2.27133	675
2.27500	653
2.27867	635
2.28233	618
2.28600	603
2.28967	594
2.29333	591
2.29700	590
2.30067	585
2.30433	581
2.30800	577
2.31167	571
2.31533	560
2.31900	549
2.32267	544
2.32633	538
2.33000	527
2.33367	513
2.33733	502
2.34100	495
2.34467	490
2.34833	484
2.35200	477
2.35567	469
2.35933	465
2.36300	462
2.36667	460
2.37033	456
2.37400	453
2.37767	454
2.38133	452
2.38500	444
2.38867	430
2.39233	416
2.39600	408
2.39967	404
2.40333	403
2.40700	401
2.41067	399
2.41433	400
2.41800	404
2.42167	404
2.42533	399
2.42900	394
2.43267	389
2.43633	386
2.44000	381
2.44367	376
2.44733	371
2.45100	369
2.45467	366
2.45833	361
2.46200	356
2.46567	355
2.46933	355
2.47300	353
2.47667	351
2.48033	348
2.48400	342
2.48767	334
2.49133	328
2.49500	327
2.49867	328
2.50233	329
2.50600	332
2.50967	336
2.51333	342
2.51700	346
2.52067	350
2.52433	355
2.52800	360
2.53167	364
2.53533	359
2.53900	346
2.54267	334
2.54633	323
2.55000	312
2.55367	302
2.55733	293
2.56100	287
2.56467	285
2.56833	288
2.57200	292
2.57567	294
2.57933	294
2.58300	294
2.58667	295
2.59033	300
2.59400	307
2.59767	311
2.60133	312
2.60500	311
2.60867	304
2.61233	293
2.61600	285
2.61967	281
2.62333	276
2.62700	273
2.63067	275
2.63433	279
2.63800	280
2.64167	280
2.64533	281
2.64900	279
2.65267	277
2.65633	278
2.66000	277
2.66367	278
2.66733	279
2.67100	278
2.67467	274
2.67833	275
2.68200	280
2.68567	288
2.68933	298
2.69300	306
2.69667	314
2.70033	318
2.70400	318
2.70767	317
2.71133	316
2.71500	311
2.71867	302
2.72233	288
2.72600	275
2.72967	266
2.73333	265
2.73700	269
2.74067	273
2.74433	279
2.74800	284
2.75167	289
2.75533	289
2.75900	287
2.76267	285
2.76633	283
2.77000	283
2.77367	285
2.77733	285
2.78100	284
2.78467	283
2.78833	285
2.79200	286
2.79567	289
2.79933	293
2.80300	300
2.80667	307
2.81033	311
2.81400	311
2.81767	307
2.82133	303
2.82500	304
2.82867	307
2.83233	311
2.83600	312
2.83967	311
2.84333	310
2.84700	307
2.85067	301
2.85433	292
2.85800	286
2.86167	286
2.86533	288
2.86900	288
2.87267	289
2.87633	291
2.88000	294
2.88367	298
2.88733	300
2.89100	302
2.89467	301
2.89833	295
2.90200	289
2.90567	289
2.90933	290
2.91300	292
2.91667	297
2.92033	305
2.92400	313
2.92767	317
2.93133	318
2.93500	318
2.93867	318
2.94233	319
2.94600	320
2.94967	320
2.95333	322
2.95700	323
2.96067	323
2.96433	320
2.96800	317
2.97167	315
2.97533	315
2.97900	316
2.98267	323
2.98633	332
2.99000	338
2.99367	340
2.99733	340
3.00100	339
3.00467	339
3.00833	340
3.01200	343
3.01567	346
3.01933	344
3.02300	339
3.02667	334
3.03033	329
3.03400	332
3.03767	335
3.04133	335
3.04500	336
3.04867	338
3.05233	334
3.05600	320
3.05967	306
3.06333	295
3.06700	292
3.07067	298
3.07433	310
3.07800	318
3.08167	316
3.08533	309
3.08900	304
3.09267	300
3.09633	300
3.10000	304
3.10367	308
3.10733	309
3.11100	309
3.11467	308
3.11833	304
3.12200	299
3.12567	296
3.12933	296
3.13300	296
3.13667	296
3.14033	299
3.14400	308
3.14767	322
3.15133	338
3.15500	349
3.15867	352
3.16233	344
3.16600	336
3.16967	333
3.17333	334
3.17700	334
3.18067	331
3.18433	326
3.18800	319
3.19167	310
3.19533	303
3.19900	301
3.20267	304
3.20633	311
3.21000	319
3.21367	325
3.21733	326
3.22100	322
3.22467	319
3.22833	318
3.23200	319
3.23567	317
3.23933	312
3.24300	308
3.24667	305
3.25033	303
3.25400	300
3.25767	295
3.26133	290
3.26500	284
3.26867	279
3.27233	278
3.27600	278
3.27967	278
3.28333	276
3.28700	276
3.29067	280
3.29433	288
3.29800	300
3.30167	314
3.30533	325
3.30900	332
3.31267	332
3.31633	326
3.32000	315
3.32367	304
3.32733	298
3.33100	298
3.33467	303
3.33833	307
3.34200	305
3.34567	300
3.34933	297
3.35300	296
3.35667	300
3.36033	305
3.36400	309
3.36767	311
3.37133	312
3.37500	308
3.37867	302
3.38233	298
3.38600	295
3.38967	295
3.39333	298
3.39700	304
3.40067	310
3.40433	308
3.40800	299
3.41167	288
3.41533	278
3.41900	272
3.42267	270
3.42633	274
3.43000	281
3.43367	287
3.43733	293
3.44100	298
3.44467	301
3.44833	301
3.45200	302
3.45567	305
3.45933	306
3.46300	306
3.46667	302
3.47033	300
3.47400	303
3.47767	308
3.48133	308
3.48500	303
3.48867	298
3.49233	293
3.49600	285
3.49967	276
3.50333	268
3.50700	261
3.51067	258
3.51433	255
3.51800	252
3.52167	249
3.52533	247
3.52900	249
3.53267	255
3.53633	263
3.54000	270
3.54367	277
3.54733	279
3.55100	276
3.55467	274
3.55833	273
3.56200	275
3.56567	276
3.56933	276
3.57300	277
3.57667	276
3.58033	272
3.58400	268
3.58767	266
3.59133	265
3.59500	265
3.59867	263
3.60233	262
3.60600	261
3.60967	262
3.61333	268
3.61700	275
3.62067	277
3.62433	275
3.62800	269
3.63167	261
3.63533	256
3.63900	253
3.64267	251
3.64633	250
3.65000	250
3.65367	248
3.65733	246
3.66100	244
3.66467	244
3.66833	242
3.67200	236
3.67567	231
3.67933	229
3.68300	233
3.68667	239
3.69033	241
3.69400	243
3.69767	248
3.70133	254
3.70500	258
3.70867	256
3.71233	251
3.71600	248
3.71967	249
3.72333	251
3.72700	250
3.73067	251
3.73433	251
3.73800	245
3.74167	236
3.74533	230
3.74900	228
3.75267	230
3.75633	236
3.76000	241
3.76367	245
3.76733	246
3.77100	247
3.77467	250
3.77833	258
3.78200	265
3.78567	271
3.78933	274
3.79300	270
3.79667	260
3.80033	251
3.80400	247
3.80767	248
3.81133	249
3.81500	248
3.81867	243
3.82233	233
3.82600	222
3.82967	217
3.83333	218
3.83700	221
3.84067	223
3.84433	224
3.84800	224
3.85167	226
3.85533	228
3.85900	228
3.86267	225
3.86633	223
3.87000	217
3.87367	209
3.87733	199
3.88100	193
3.88467	195
3.88833	201
3.89200	208
3.89567	218
3.89933	228
3.90300	231
3.90667	231
3.91033	229
3.91400	227
3.91767	227
3.92133	230
3.92500	233
3.92867	233
3.93233	232
3.93600	229
3.93967	230
3.94333	233
3.94700	235
3.95067	239
3.95433	249
3.95800	258
3.96167	260
3.96533	255
3.96900	245
3.97267	237
3.97633	232
3.98000	227
3.98367	228
3.98733	232
3.99100	237
3.99467	240
3.99833	244

[Chromatogram (Ch2)]
Interval(msec)	220
# of Points	1091
Start Time(min)	0.002
End Time(min)	3.998
R.Time (min)	Intensity
0.00167	1
0.00533	1
0.00900	1
0.01267	1
0.01633	1
0.02000	1
0.02367	1
0.02733	0
0.03100	0
0.03467	-0
0.03833	-1
0.04200	-1
0.04567	-2
0.04933	-2
0.05300	-2
0.05667	-2
0.06033	-2
0.06400	-2
0.06767	-2
0.07133	-2
0.07500	-2
0.07867	-1
0.08233	-1
0.08600	-1
0.08967	-1
0.09333	-0
0.09700	-0
0.10067	-0
0.10433	0
0.10800	0
0.11167	0
0.11533	-0
0.11900	-1
0.12267	-1
0.12633	-1
0.13000	-1
0.13367	-1
0.13733	-1
0.14100	-1
0.14467	-0
0.14833	-0
0.15200	-0
0.15567	0
0.15933	0
0.16300	-0
0.16667	-0
0.17033	-0
0.17400	-0
0.17767	0
0.18133	1
0.18500	1
0.18867	1
0.19233	1
0.19600	1
0.19967	1
0.20333	1
0.20700	1
0.21067	1
0.21433	1
0.21800	0
0.22167	-0
0.22533	-1
0.22900	-1
0.23267	-1
0.23633	-1
0.24000	-1
0.24367	-1
0.24733	-1
0.25100	-1
0.25467	-1
0.25833	-1
0.26200	-1
0.26567	-1
0.26933	-1
0.27300	-2
0.27667	-2
0.28033	-2
0.28400	-1
0.28767	-1
0.29133	-1
0.29500	-1
0.29867	-1
0.30233	-2
0.30600	-2
0.30967	-2
0.31333	-2
0.31700	-2
0.32067	-2
0.32433	-2
0.32800	-2
0.33167	-2
0.33533	-2
0.33900	-2
0.34267	-2
0.34633	-2
0.35000	-2
0.35367	-2
0.35733	-2
0.36100	-2
0.36467	-2
0.36833	-1
0.37200	-1
0.37567	-1
0.37933	-1
0.38300	-1
0.38667	-0
0.39033	-0
0.39400	-0
0.39767	-0
0.40133	-1
0.40500	-1
0.40867	-1
0.41233	-1
0.41600	-1
0.41967	-1
0.42333	-1
0.42700	-1
0.43067	-1
0.43433	-1
0.43800	-1
0.44167	-1
0.44533	-1
0.44900	-1
0.45267	-1
0.45633	-1
0.46000	-1
0.46367	-1
0.46733	-1
0.47100	-1
0.47467	-1
0.47833	-1
0.48200	-1
0.48567	-1
0.48933	-1
0.49300	-1
0.49667	-1
0.50033	-0
0.50400	-0
0.50767	-0
0.51133	-0
0.51500	0
0.51867	1
0.52233	1
0.52600	2
0.52967	2
0.53333	2
0.53700	2
0.54067	2
0.54433	2
0.54800	2
0.55167	2
0.55533	2
0.55900	2
0.56267	2
0.56633	1
0.57000	0
0.57367	-0
0.57733	-1
0.58100	-1
0.58467	-2
0.58833	-2
0.59200	-2
0.59567	-2
0.59933	-2
0.60300	-2
0.60667	-2
0.61033	-2
0.61400	-2
0.61767	-2
0.62133	-2
0.62500	-2
0.62867	-3
0.63233	-3
0.63600	-3
0.63967	-2
0.64333	-2
0.64700	-2
0.65067	-3
0.65433	-3
0.65800	-3
0.66167	-3
0.66533	-3
0.66900	-3
0.67267	-3
0.67633	-3
0.68000	-2
0.68367	-2
0.68733	-2
0.69100	-2
0.69467	-2
0.69833	-2
0.70200	-2
0.70567	-2
0.70933	-1
0.71300	-1
0.71667	-1
0.72033	-1
0.72400	-1
0.72767	-1
0.73133	-1
0.73500	-1
0.73867	-1
0.74233	-1
0.74600	-1
0.74967	-0
0.75333	-0
0.75700	-0
0.76067	-0
0.76433	-1
0.76800	-1
0.77167	-1
0.77533	-1
0.77900	-1
0.78267	-1
0.78633	-1
0.79000	-1
0.79367	-1
0.79733	-2
0.80100	-2
0.80467	-2
0.80833	-2
0.81200	-2
0.81567	-2
0.81933	-2
0.82300	-2
0.82667	-2
0.83033	-2
0.83400	-2
0.83767	-2
0.84133	-3
0.84500	-3
0.84867	-3
0.85233	-2
0.85600	-2
0.85967	-2
0.86333	-1
0.86700	-1
0.87067	-1
0.87433	-1
0.87800	-0
0.88167	-1
0.88533	-1
0.88900	-1
0.89267	-1
0.89633	-1
0.90000	-1
0.90367	-1
0.90733	-1
0.91100	-0
0.91467	-0
0.91833	-0
0.92200	-0
0.92567	-0
0.92933	-1
0.93300	-1
0.93667	-1
0.94033	-2
0.94400	-2
0.94767	-1
0.95133	-1
0.95500	-1
0.95867	-2
0.96233	-2
0.96600	-2
0.96967	-2
0.97333	-2
0.97700	-2
0.98067	-2
0.98433	-2
0.98800	-2
0.99167	-2
0.99533	-2
0.99900	-2
1.00267	-2
1.00633	-2
1.01000	-2
1.01367	-2
1.01733	-2
1.02100	-2
1.02467	-1
1.02833	-1
1.03200	-1
1.03567	-1
1.03933	-1
1.04300	-2
1.04667	-2
1.05033	-2
1.05400	-1
1.05767	-1
1.06133	-1
1.06500	-2
1.06867	-2
1.07233	-2
1.07600	-3
1.07967	-3
1.08333	-3
1.08700	-2
1.09067	-2
1.09433	-2
1.09800	-2
1.10167	-2
1.10533	-2
1.10900	-2
1.11267	-2
1.11633	-2
1.12000	-2
1.12367	-2
1.12733	-2
1.13100	-3
1.13467	-3
1.13833	-3
1.14200	-3
1.14567	-3
1.14933	-2
1.15300	-2
1.15667	-2
1.16033	-2
1.16400	-2
1.16767	-2
1.17133	-2
1.17500	-2
1.17867	-3
1.18233	-3
1.18600	-3
1.18967	-2
1.19333	-2
1.19700	-2
1.20067	-2
1.20433	-1
1.20800	-1
1.21167	-0
1.21533	0
1.21900	0
1.22267	0
1.22633	-0
1.23000	-0
1.23367	-1
1.23733	-1
1.24100	-1
1.24467	-1
1.24833	-1
1.25200	-1
1.25567	-1
1.25933	-1
1.26300	-1
1.26667	-2
1.27033	-2
1.27400	-2
1.27767	-3
1.28133	-3
1.28500	-3
1.28867	-3
1.29233	-3
1.29600	-3
1.29967	-2
1.30333	-2
1.30700	-2
1.31067	-2
1.31433	-2
1.31800	-2
1.32167	-2
1.32533	-3
1.32900	-3
1.33267	-3
1.33633	-4
1.34000	-4
1.34367	-4
1.34733	-4
1.35100	-4
1.35467	-4
1.35833	-4
1.36200	-4
1.36567	-4
1.36933	-4
1.37300	-4
1.37667	-4
1.38033	-4
1.38400	-4
1.38767	-3
1.39133	-3
1.39500	-3
1.39867	-3
1.40233	-2
1.40600	-2
1.40967	-2
1.41333	-2
1.41700	-2
1.42067	-3
1.42433	-3
1.42800	-3
1.43167	-3
1.43533	-3
1.43900	-3
1.44267	-3
1.44633	-3
1.45000	-3
1.45367	-3
1.45733	-4
1.46100	-4
1.46467	-4
1.46833	-4
1.47200	-4
1.47567	-5
1.47933	-5
1.48300	-5
1.48667	-5
1.49033	-4
1.49400	-4
1.49767	-4
1.50133	-4
1.50500	-4
1.50867	-4
1.51233	-4
1.51600	-4
1.51967	-4
1.52333	-4
1.52700	-4
1.53067	-4
1.53433	-4
1.53800	-5
1.54167	-5
1.54533	-4
1.54900	-4
1.55267	-4
1.55633	-3
1.56000	-3
1.56367	-3
1.56733	-2
1.57100	-2
1.57467	-2
1.57833	-1
1.58200	-1
1.58567	-1
1.58933	-2
1.59300	-2
1.59667	-2
1.60033	-3
1.60400	-4
1.60767	-4
1.61133	-6
1.61500	-8
1.61867	-10
1.62233	-12
1.62600	-14
1.62967	-17
1.63333	-20
1.63700	-23
1.64067	-26
1.64433	-30
1.64800	-33
1.65167	-37
1.65533	-40
1.65900	-44
1.66267	-48
1.66633	-53
1.67000	-58
1.67367	-63
1.67733	-68
1.68100	-73
1.68467	-77
1.68833	-82
1.69200	-86
1.69567	-89
1.69933	-92
1.70300	-94
1.70667	-96
1.71033	-97
1.71400	-97
1.71767	-97
1.72133	-98
1.72500	-98
1.72867	-98
1.73233	-99
1.73600	-99
1.73967	-98
1.74333	-98
1.74700	-98
1.75067	-99
1.75433	-99
1.75800	-100
1.76167	-100
1.76533	-101
1.76900	-101
1.77267	-102
1.77633	-102
1.78000	-103
1.78367	-103
1.78733	-104
1.79100	-105
1.79467	-105
1.79833	-106
1.80200	-106
1.80567	-105
1.80933	-105
1.81300	-104
1.81667	-104
1.82033	-104
1.82400	-104
1.82767	-104
1.83133	-104
1.83500	-103
1.83867	-103
1.84233	-103
1.84600	-102
1.84967	-102
1.85333	-101
1.85700	-101
1.86067	-101
1.86433	-102
1.86800	-102
1.87167	-103
1.87533	-104
1.87900	-104
1.88267	-104
1.88633	-103
1.89000	-103
1.89367	-102
1.89733	-101
1.90100	-101
1.90467	-100
1.90833	-99
1.91200	-99
1.91567	-99
1.91933	-99
1.92300	-100
1.92667	-100
1.93033	-100
1.93400	-100
1.93767	-100
1.94133	-100
1.94500	-99
1.94867	-99
1.95233	-99
1.95600	-99
1.95967	-98
1.96333	-98
1.96700	-98
1.97067	-97
1.97433	-97
1.97800	-97
1.98167	-96
1.98533	-96
1.98900	-95
1.99267	-95
1.99633	-94
2.00000	-94
2.00367	-93
2.00733	-93
2.01100	-92
2.01467	-92
2.01833	-92
2.02200	-93
2.02567	-94
2.02933	-94
2.03300	-95
2.03667	-96
2.04033	-96
2.04400	-97
2.04767	-97
2.05133	-98
2.05500	-99
2.05867	-99
2.06233	-99
2.06600	-99
2.06967	-99
2.07333	-99
2.07700	-98
2.08067	-97
2.08433	-96
2.08800	-95
2.09167	-94
2.09533	-93
2.09900	-92
2.10267	-91
2.10633	-90
2.11000	-89
2.11367	-89
2.11733	-89
2.12100	-89
2.12467	-89
2.12833	-89
2.13200	-89
2.13567	-88
2.13933	-88
2.14300	-87
2.14667	-86
2.15033	-86
2.15400	-85
2.15767	-86
2.16133	-86
2.16500	-86
2.16867	-86
2.17233	-86
2.17600	-85
2.17967	-85
2.18333	-84
2.18700	-83
2.19067	-82
2.19433	-81
2.19800	-80
2.20167	-80
2.20533	-79
2.20900	-79
2.21267	-79
2.21633	-78
2.22000	-78
2.22367	-78
2.22733	-78
2.23100	-77
2.23467	-77
2.23833	-77
2.24200	-77
2.24567	-77
2.24933	-78
2.25300	-79
2.25667	-79
2.26033	-80
2.26400	-80
2.26767	-79
2.27133	-79
2.27500	-78
2.27867	-78
2.28233	-78
2.28600	-79
2.28967	-80
2.29333	-82
2.29700	-82
2.30067	-83
2.30433	-83
2.30800	-83
2.31167	-82
2.31533	-81
2.31900	-81
2.32267	-80
2.32633	-79
2.33000	-79
2.33367	-79
2.33733	-78
2.34100	-78
2.34467	-77
2.34833	-75
2.35200	-74
2.35567	-72
2.35933	-71
2.36300	-70
2.36667	-68
2.37033	-66
2.37400	-64
2.37767	-61
2.38133	-57
2.38500	-54
2.38867	-50
2.39233	-46
2.39600	-41
2.39967	-36
2.40333	-31
2.40700	-25
2.41067	-20
2.41433	-16
2.41800	-13
2.42167	-11
2.42533	-10
2.42900	-9
2.43267	-8
2.43633	-7
2.44000	-6
2.44367	-5
2.44733	-4
2.45100	-3
2.45467	-2
2.45833	-1
2.46200	-0
2.46567	0
2.46933	1
2.47300	2
2.47667	2
2.48033	3
2.48400	3
2.48767	3
2.49133	3
2.49500	4
2.49867	4
2.50233	4
2.50600	4
2.50967	3
2.51333	3
2.51700	3
2.52067	3
2.52433	2
2.52800	2
2.53167	1
2.53533	1
2.53900	1
2.54267	0
2.54633	0
2.55000	0
2.55367	0
2.55733	1
2.56100	2
2.56467	3
2.56833	4
2.57200	5
2.57567	5
2.57933	6
2.58300	6
2.58667	6
2.59033	7
2.59400	7
2.59767	7
2.60133	7
2.60500	7
2.60867	7
2.61233	7
2.61600	7
2.61967	8
2.62333	8
2.62700	8
2.63067	8
2.63433	8
2.63800	8
2.64167	9
2.64533	9
2.64900	10
2.65267	11
2.65633	11
2.66000	11
2.66367	12
2.66733	12
2.67100	12
2.67467	12
2.67833	13
2.68200	13
2.68567	14
2.68933	14
2.69300	14
2.69667	14
2.70033	14
2.70400	13
2.70767	13
2.71133	13
2.71500	14
2.71867	14
2.72233	14
2.72600	15
2.72967	15
2.73333	15
2.73700	15
2.74067	15
2.74433	14
2.74800	14
2.75167	14
2.75533	14
2.75900	14
2.76267	15
2.76633	15
2.77000	16
2.77367	16
2.77733	16
2.78100	16
2.78467	16
2.78833	16
2.79200	17
2.79567	17
2.79933	17
2.80300	17
2.80667	17
2.81033	17
2.81400	17
2.81767	18
2.82133	18
2.82500	18
2.82867	18
2.83233	17
2.83600	17
2.83967	17
2.84333	17
2.84700	17
2.85067	17
2.85433	16
2.85800	15
2.86167	12
2.86533	9
2.86900	3
2.87267	-5
2.87633	-17
2.88000	-34
2.88367	-54
2.88733	-80
2.89100	-111
2.89467	-147
2.89833	-189
2.90200	-235
2.90567	-285
2.90933	-339
2.91300	-397
2.91667	-456
2.92033	-518
2.92400	-580
2.92767	-643
2.93133	-705
2.93500	-765
2.93867	-823
2.94233	-877
2.94600	-929
2.94967	-984
2.95333	-1040
2.95700	-1087
2.96067	-1116
2.96433	-1120
2.96800	-1098
2.97167	-1055
2.97533	-994
2.97900	-922
2.98267	-843
2.98633	-762
2.99000	-682
2.99367	-605
2.99733	-534
3.00100	-468
3.00467	-409
3.00833	-355
3.01200	-307
3.01567	-265
3.01933	-228
3.02300	-196
3.02667	-167
3.03033	-143
3.03400	-122
3.03767	-104
3.04133	-89
3.04500	-75
3.04867	-64
3.05233	-54
3.05600	-46
3.05967	-39
3.06333	-33
3.06700	-27
3.07067	-23
3.07433	-18
3.07800	-15
3.08167	-11
3.08533	-9
3.08900	-7
3.09267	-5
3.09633	-4
3.10000	-3
3.10367	-1
3.10733	-0
3.11100	1
3.11467	1
3.11833	2
3.12200	2
3.12567	3
3.12933	3
3.13300	4
3.13667	4
3.14033	4
3.14400	5
3.14767	5
3.15133	6
3.15500	6
3.15867	7
3.16233	7
3.16600	7
3.16967	7
3.17333	7
3.17700	7
3.18067	7
3.18433	7
3.18800	8
3.19167	8
3.19533	8
3.19900	8
3.20267	8
3.20633	8
3.21000	8
3.21367	8
3.21733	8
3.22100	8
3.22467	8
3.22833	8
3.23200	8
3.23567	8
3.23933	9
3.24300	9
3.24667	9
3.25033	9
3.25400	10
3.25767	10
3.26133	10
3.26500	10
3.26867	10
3.27233	10
3.27600	11
3.27967	11
3.28333	11
3.28700	11
3.29067	11
3.29433	12
3.29800	12
3.30167	12
3.30533	13
3.30900	13
3.31267	13
3.31633	13
3.32000	13
3.32367	13
3.32733	13
3.33100	13
3.33467	14
3.33833	14
3.34200	14
3.34567	14
3.34933	13
3.35300	13
3.35667	13
3.36033	13
3.36400	13
3.36767	14
3.37133	14
3.37500	14
3.37867	13
3.38233	13
3.38600	12
3.38967	12
3.39333	11
3.39700	11
3.40067	11
3.40433	11
3.40800	11
3.41167	12
3.41533	12
3.41900	12
3.42267	12
3.42633	13
3.43000	13
3.43367	13
3.43733	13
3.44100	14
3.44467	15
3.44833	14
3.45200	14
3.45567	15
3.45933	14
3.46300	13
3.46667	13
3.47033	13
3.47400	13
3.47767	13
3.48133	13
3.48500	13
3.48867	14
3.49233	13
3.49600	13
3.49967	13
3.50333	12
3.50700	12
3.51067	12
3.51433	12
3.51800	12
3.52167	12
3.52533	12
3.52900	12
3.53267	12
3.53633	12
3.54000	12
3.54367	12
3.54733	13
3.55100	13
3.55467	13
3.55833	13
3.56200	13
3.56567	13
3.56933	13
3.57300	13
3.57667	13
3.58033	13
3.58400	13
3.58767	13
3.59133	14
3.59500	15
3.59867	15
3.60233	15
3.60600	15
3.60967	16
3.61333	16
3.61700	16
3.62067	16
3.62433	16
3.62800	16
3.63167	16
3.63533	16
3.63900	15
3.64267	15
3.64633	15
3.65000	15
3.65367	16
3.65733	16
3.66100	16
3.66467	15
3.66833	15
3.67200	15
3.67567	15
3.67933	14
3.68300	14
3.68667	14
3.69033	14
3.69400	13
3.69767	13
3.70133	13
3.70500	13
3.70867	13
3.71233	13
3.71600	12
3.71967	12
3.72333	12
3.72700	12
3.73067	12
3.73433	12
3.73800	12
3.74167	12
3.74533	12
3.74900	12
3.75267	12
3.75633	12
3.76000	12
3.76367	12
3.76733	13
3.77100	13
3.77467	13
3.77833	13
3.78200	13
3.78567	14
3.78933	14
3.79300	14
3.79667	15
3.80033	15
3.80400	15
3.80767	16
3.81133	16
3.81500	16
3.81867	17
3.82233	17
3.82600	17
3.82967	17
3.83333	17
3.83700	17
3.84067	17
3.84433	17
3.84800	17
3.85167	17
3.85533	16
3.85900	16
3.86267	16
3.86633	16
3.87000	15
3.87367	15
3.87733	15
3.88100	15
3.88467	15
3.88833	15
3.89200	15
3.89567	15
3.89933	15
3.90300	15
3.90667	15
3.91033	15
3.91400	15
3.91767	16
3.92133	16
3.92500	16
3.92867	16
3.93233	15
3.93600	15
3.93967	15
3.94333	14
3.94700	15
3.95067	15
3.95433	15
3.95800	15
3.96167	15
3.96533	14
3.96900	14
3.97267	14
3.97633	14
3.98000	14
3.98367	14
3.98733	14
3.99100	14
3.99467	14
3.99833	14

[Chromatogram (Ch3)]
Interval(msec)	220
# of Points	1091
Start Time(min)	0.002
End Time(min)	3.998
R.Time (min)	Intensity
0.00167	0
0.00533	0
0.00900	-0
0.01267	-1
0.01633	-1
0.02000	-1
0.02367	-1
0.02733	-4
0.03100	-6
0.03467	-7
0.03833	-6
0.04200	-1
0.04567	4
0.04933	5
0.05300	6
0.05667	8
0.06033	8
0.06400	9
0.06767	8
0.07133	7
0.07500	5
0.07867	3
0.08233	0
0.08600	2
0.08967	5
0.09333	6
0.09700	7
0.10067	7
0.10433	9
0.10800	10
0.11167	10
0.11533	10
0.11900	11
0.12267	12
0.12633	11
0.13000	9
0.13367	8
0.13733	7
0.14100	7
0.14467	6
0.14833	6
0.15200	6
0.15567	8
0.15933	9
0.16300	8
0.16667	7
0.17033	7
0.17400	8
0.17767	8
0.18133	6
0.18500	5
0.18867	8
0.19233	9
0.19600	8
0.19967	6
0.20333	6
0.20700	6
0.21067	5
0.21433	5
0.21800	6
0.22167	7
0.22533	8
0.22900	8
0.23267	7
0.23633	8
0.24000	6
0.24367	7
0.24733	9
0.25100	9
0.25467	10
0.25833	12
0.26200	12
0.26567	10
0.26933	10
0.27300	11
0.27667	11
0.28033	10
0.28400	10
0.28767	11
0.29133	11
0.29500	11
0.29867	13
0.30233	15
0.30600	15
0.30967	15
0.31333	12
0.31700	7
0.32067	6
0.32433	5
0.32800	7
0.33167	7
0.33533	5
0.33900	6
0.34267	8
0.34633	9
0.35000	9
0.35367	8
0.35733	10
0.36100	12
0.36467	13
0.36833	14
0.37200	12
0.37567	10
0.37933	9
0.38300	10
0.38667	10
0.39033	9
0.39400	9
0.39767	9
0.40133	9
0.40500	9
0.40867	9
0.41233	9
0.41600	11
0.41967	12
0.42333	12
0.42700	12
0.43067	12
0.43433	13
0.43800	12
0.44167	10
0.44533	10
0.44900	11
0.45267	11
0.45633	12
0.46000	11
0.46367	12
0.46733	13
0.47100	13
0.47467	12
0.47833	11
0.48200	13
0.48567	15
0.48933	15
0.49300	15
0.49667	14
0.50033	14
0.50400	15
0.50767	17
0.51133	18
0.51500	18
0.51867	17
0.52233	16
0.52600	16
0.52967	18
0.53333	18
0.53700	16
0.54067	17
0.54433	16
0.54800	17
0.55167	19
0.55533	20
0.55900	21
0.56267	19
0.56633	18
0.57000	18
0.57367	17
0.57733	15
0.58100	14
0.58467	16
0.58833	17
0.59200	17
0.59567	17
0.59933	16
0.60300	13
0.60667	12
0.61033	13
0.61400	13
0.61767	13
0.62133	14
0.62500	16
0.62867	18
0.63233	20
0.63600	19
0.63967	18
0.64333	17
0.64700	16
0.65067	16
0.65433	17
0.65800	17
0.66167	18
0.66533	17
0.66900	17
0.67267	19
0.67633	19
0.68000	19
0.68367	20
0.68733	21
0.69100	20
0.69467	20
0.69833	23
0.70200	24
0.70567	25
0.70933	25
0.71300	24
0.71667	22
0.72033	21
0.72400	20
0.72767	20
0.73133	20
0.73500	20
0.73867	21
0.74233	22
0.74600	21
0.74967	19
0.75333	19
0.75700	19
0.76067	19
0.76433	21
0.76800	23
0.77167	24
0.77533	24
0.77900	23
0.78267	20
0.78633	18
0.79000	17
0.79367	19
0.79733	21
0.80100	21
0.80467	19
0.80833	19
0.81200	20
0.81567	21
0.81933	24
0.82300	26
0.82667	25
0.83033	24
0.83400	24
0.83767	25
0.84133	27
0.84500	28
0.84867	27
0.85233	27
0.85600	27
0.85967	27
0.86333	27
0.86700	28
0.87067	28
0.87433	27
0.87800	28
0.88167	29
0.88533	30
0.88900	29
0.89267	26
0.89633	25
0.90000	25
0.90367	26
0.90733	29
0.91100	28
0.91467	28
0.91833	27
0.92200	27
0.92567	29
0.92933	31
0.93300	30
0.93667	29
0.94033	27
0.94400	26
0.94767	24
0.95133	23
0.95500	21
0.95867	21
0.96233	21
0.96600	23
0.96967	24
0.97333	25
0.97700	26
0.98067	27
0.98433	28
0.98800	27
0.99167	28
0.99533	30
0.99900	29
1.00267	28
1.00633	29
1.01000	30
1.01367	31
1.01733	30
1.02100	30
1.02467	29
1.02833	29
1.03200	30
1.03567	31
1.03933	32
1.04300	33
1.04667	33
1.05033	32
1.05400	32
1.05767	34
1.06133	33
1.06500	33
1.06867	34
1.07233	33
1.07600	32
1.07967	32
1.08333	32
1.08700	30
1.09067	28
1.09433	28
1.09800	29
1.10167	31
1.10533	31
1.10900	31
1.11267	31
1.11633	31
1.12000	30
1.12367	28
1.12733	28
1.13100	27
1.13467	27
1.13833	27
1.14200	29
1.14567	30
1.14933	30
1.15300	30
1.15667	31
1.16033	32
1.16400	31
1.16767	30
1.17133	29
1.17500	30
1.17867	30
1.18233	31
1.18600	32
1.18967	33
1.19333	34
1.19700	35
1.20067	36
1.20433	35
1.20800	35
1.21167	34
1.21533	33
1.21900	32
1.22267	32
1.22633	33
1.23000	34
1.23367	36
1.23733	37
1.24100	35
1.24467	32
1.24833	31
1.25200	33
1.25567	37
1.25933	39
1.26300	39
1.26667	38
1.27033	38
1.27400	38
1.27767	38
1.28133	39
1.28500	40
1.28867	39
1.29233	37
1.29600	34
1.29967	32
1.30333	32
1.30700	33
1.31067	34
1.31433	32
1.31800	32
1.32167	33
1.32533	34
1.32900	33
1.33267	32
1.33633	33
1.34000	34
1.34367	35
1.34733	33
1.35100	31
1.35467	31
1.35833	32
1.36200	33
1.36567	33
1.36933	32
1.37300	33
1.37667	37
1.38033	40
1.38400	39
1.38767	38
1.39133	37
1.39500	37
1.39867	37
1.40233	39
1.40600	39
1.40967	38
1.41333	37
1.41700	37
1.42067	39
1.42433	40
1.42800	40
1.43167	39
1.43533	40
1.43900	40
1.44267	39
1.44633	39
1.45000	38
1.45367	36
1.45733	37
1.46100	37
1.46467	38
1.46833	38
1.47200	37
1.47567	34
1.47933	32
1.48300	32
1.48667	33
1.49033	35
1.49400	35
1.49767	36
1.50133	34
1.50500	34
1.50867	34
1.51233	36
1.51600	39
1.51967	38
1.52333	37
1.52700	35
1.53067	35
1.53433	35
1.53800	33
1.54167	33
1.54533	32
1.54900	32
1.55267	34
1.55633	35
1.56000	35
1.56367	35
1.56733	33
1.57100	34
1.57467	35
1.57833	35
1.58200	36
1.58567	37
1.58933	37
1.59300	38
1.59667	38
1.60033	38
1.60400	35
1.60767	33
1.61133	34
1.61500	36
1.61867	39
1.62233	39
1.62600	40
1.62967	39
1.63333	40
1.63700	39
1.64067	40
1.64433	38
1.64800	35
1.65167	34
1.65533	34
1.65900	34
1.66267	35
1.66633	37
1.67000	37
1.67367	39
1.67733	39
1.68100	39
1.68467	40
1.68833	40
1.69200	42
1.69567	45
1.69933	47
1.70300	47
1.70667	46
1.71033	44
1.71400	44
1.71767	46
1.72133	44
1.72500	42
1.72867	43
1.73233	45
1.73600	48
1.73967	51
1.74333	53
1.74700	54
1.75067	56
1.75433	56
1.75800	54
1.76167	52
1.76533	53
1.76900	54
1.77267	54
1.77633	54
1.78000	53
1.78367	54
1.78733	54
1.79100	54
1.79467	52
1.79833	50
1.80200	49
1.80567	49
1.80933	48
1.81300	48
1.81667	50
1.82033	53
1.82400	57
1.82767	60
1.83133	63
1.83500	64
1.83867	63
1.84233	62
1.84600	63
1.84967	64
1.85333	66
1.85700	68
1.86067	70
1.86433	71
1.86800	69
1.87167	67
1.87533	68
1.87900	69
1.88267	69
1.88633	68
1.89000	69
1.89367	68
1.89733	69
1.90100	72
1.90467	74
1.90833	74
1.91200	75
1.91567	77
1.91933	77
1.92300	75
1.92667	73
1.93033	73
1.93400	75
1.93767	77
1.94133	77
1.94500	75
1.94867	76
1.95233	79
1.95600	80
1.95967	83
1.96333	86
1.96700	88
1.97067	90
1.97433	91
1.97800	91
1.98167	91
1.98533	92
1.98900	91
1.99267	91
1.99633	94
2.00000	98
2.00367	98
2.00733	99
2.01100	100
2.01467	100
2.01833	102
2.02200	104
2.02567	106
2.02933	109
2.03300	109
2.03667	110
2.04033	110
2.04400	109
2.04767	110
2.05133	112
2.05500	112
2.05867	111
2.06233	113
2.06600	115
2.06967	118
2.07333	121
2.07700	123
2.08067	124
2.08433	124
2.08800	124
2.09167	123
2.09533	123
2.09900	122
2.10267	123
2.10633	126
2.11000	126
2.11367	124
2.11733	122
2.12100	121
2.12467	123
2.12833	125
2.13200	125
2.13567	125
2.13933	127
2.14300	129
2.14667	129
2.15033	129
2.15400	130
2.15767	132
2.16133	134
2.16500	134
2.16867	133
2.17233	133
2.17600	136
2.17967	140
2.18333	140
2.18700	140
2.19067	139
2.19433	139
2.19800	140
2.20167	140
2.20533	141
2.20900	142
2.21267	141
2.21633	143
2.22000	143
2.22367	144
2.22733	144
2.23100	144
2.23467	142
2.23833	140
2.24200	138
2.24567	138
2.24933	138
2.25300	140
2.25667	141
2.26033	139
2.26400	139
2.26767	141
2.27133	143
2.27500	144
2.27867	145
2.28233	146
2.28600	148
2.28967	148
2.29333	148
2.29700	147
2.30067	146
2.30433	147
2.30800	147
2.31167	148
2.31533	151
2.31900	153
2.32267	154
2.32633	155
2.33000	154
2.33367	153
2.33733	152
2.34100	154
2.34467	154
2.34833	153
2.35200	152
2.35567	150
2.35933	150
2.36300	151
2.36667	152
2.37033	151
2.37400	149
2.37767	148
2.38133	150
2.38500	152
2.38867	151
2.39233	151
2.39600	151
2.39967	153
2.40333	156
2.40700	157
2.41067	159
2.41433	160
2.41800	161
2.42167	162
2.42533	162
2.42900	160
2.43267	158
2.43633	156
2.44000	160
2.44367	210
2.44733	321
2.45100	454
2.45467	570
2.45833	663
2.46200	734
2.46567	787
2.46933	823
2.47300	848
2.47667	870
2.48033	893
2.48400	916
2.48767	939
2.49133	961
2.49500	977
2.49867	982
2.50233	978
2.50600	970
2.50967	958
2.51333	946
2.51700	934
2.52067	927
2.52433	923
2.52800	921
2.53167	918
2.53533	917
2.53900	920
2.54267	927
2.54633	936
2.55000	943
2.55367	950
2.55733	956
2.56100	958
2.56467	957
2.56833	951
2.57200	941
2.57567	927
2.57933	911
2.58300	893
2.58667	877
2.59033	863
2.59400	851
2.59767	841
2.60133	834
2.60500	828
2.60867	822
2.61233	819
2.61600	818
2.61967	816
2.62333	811
2.62700	804
2.63067	798
2.63433	794
2.63800	788
2.64167	783
2.64533	778
2.64900	776
2.65267	772
2.65633	770
2.66000	769
2.66367	769
2.66733	770
2.67100	771
2.67467	774
2.67833	777
2.68200	782
2.68567	787
2.68933	792
2.69300	795
2.69667	798
2.70033	799
2.70400	800
2.70767	799
2.71133	796
2.71500	795
2.71867	792
2.72233	787
2.72600	782
2.72967	776
2.73333	769
2.73700	764
2.74067	758
2.74433	751
2.74800	743
2.75167	736
2.75533	731
2.75900	726
2.76267	722
2.76633	719
2.77000	715
2.77367	711
2.77733	707
2.78100	703
2.78467	701
2.78833	698
2.79200	695
2.79567	692
2.79933	687
2.80300	685
2.80667	682
2.81033	681
2.81400	679
2.81767	675
2.82133	673
2.82500	672
2.82867	673
2.83233	678
2.83600	692
2.83967	723
2.84333	786
2.84700	902
2.85067	1102
2.85433	1402
2.85800	1809
2.86167	2314
2.86533	2892
2.86900	3500
2.87267	4088
2.87633	4606
2.88000	5014
2.88367	5288
2.88733	5414
2.89100	5399
2.89467	5264
2.89833	5034
2.90200	4740
2.90567	4410
2.90933	4062
2.91300	3715
2.91667	3382
2.92033	3072
2.92400	2788
2.92767	2529
2.93133	2298
2.93500	2094
2.93867	1910
2.94233	1748
2.94600	1608
2.94967	1485
2.95333	1377
2.95700	1284
2.96067	1206
2.96433	1139
2.96800	1080
2.97167	1028
2.97533	984
2.97900	948
2.98267	918
2.98633	890
2.99000	868
2.99367	849
2.99733	835
3.00100	822
3.00467	809
3.00833	799
3.01200	790
3.01567	780
3.01933	771
3.02300	764
3.02667	758
3.03033	751
3.03400	746
3.03767	743
3.04133	739
3.04500	735
3.04867	733
3.05233	732
3.05600	729
3.05967	725
3.06333	722
3.06700	717
3.07067	712
3.07433	709
3.07800	709
3.08167	710
3.08533	707
3.08900	706
3.09267	704
3.09633	701
3.10000	698
3.10367	695
3.10733	693
3.11100	692
3.11467	691
3.11833	691
3.12200	690
3.12567	689
3.12933	687
3.13300	686
3.13667	685
3.14033	685
3.14400	684
3.14767	684
3.15133	682
3.15500	679
3.15867	681
3.16233	680
3.16600	676
3.16967	674
3.17333	672
3.17700	668
3.18067	666
3.18433	665
3.18800	664
3.19167	663
3.19533	660
3.19900	658
3.20267	659
3.20633	658
3.21000	656
3.21367	655
3.21733	655
3.22100	656
3.22467	656
3.22833	652
3.23200	650
3.23567	650
3.23933	651
3.24300	652
3.24667	651
3.25033	651
3.25400	650
3.25767	647
3.26133	644
3.26500	643
3.26867	642
3.27233	640
3.27600	634
3.27967	630
3.28333	628
3.28700	627
3.29067	625
3.29433	623
3.29800	621
3.30167	622
3.30533	620
3.30900	619
3.31267	618
3.31633	615
3.32000	612
3.32367	609
3.32733	607
3.33100	605
3.33467	603
3.33833	600
3.34200	598
3.34567	596
3.34933	593
3.35300	591
3.35667	591
3.36033	589
3.36400	587
3.36767	585
3.37133	580
3.37500	575
3.37867	572
3.38233	572
3.38600	571
3.38967	571
3.39333	570
3.39700	566
3.40067	562
3.40433	557
3.40800	554
3.41167	553
3.41533	552
3.41900	550
3.42267	547
3.42633	543
3.43000	539
3.43367	536
3.43733	532
3.44100	530
3.44467	530
3.44833	530
3.45200	528
3.45567	527
3.45933	526
3.46300	527
3.46667	527
3.47033	525
3.47400	523
3.47767	520
3.48133	516
3.48500	511
3.48867	507
3.49233	504
3.49600	504
3.49967	504
3.50333	502
3.50700	499
3.51067	495
3.51433	493
3.51800	494
3.52167	495
3.52533	494
3.52900	490
3.53267	486
3.53633	486
3.54000	486
3.54367	483
3.54733	479
3.55100	476
3.55467	476
3.55833	476
3.56200	476
3.56567	475
3.56933	474
3.57300	472
3.57667	472
3.58033	470
3.58400	467
3.58767	465
3.59133	465
3.59500	461
3.59867	457
3.60233	452
3.60600	447
3.60967	446
3.61333	446
3.61700	446
3.62067	446
3.62433	445
3.62800	444
3.63167	443
3.63533	442
3.63900	441
3.64267	442
3.64633	441
3.65000	439
3.65367	437
3.65733	435
3.66100	434
3.66467	434
3.66833	436
3.67200	437
3.67567	436
3.67933	434
3.68300	432
3.68667	431
3.69033	428
3.69400	427
3.69767	428
3.70133	428
3.70500	426
3.70867	423
3.71233	422
3.71600	420
3.71967	420
3.72333	420
3.72700	418
3.73067	417
3.73433	418
3.73800	419
3.74167	418
3.74533	415
3.74900	414
3.75267	411
3.75633	410
3.76000	409
3.76367	408
3.76733	406
3.77100	405
3.77467	405
3.77833	404
3.78200	404
3.78567	402
3.78933	399
3.79300	396
3.79667	394
3.80033	394
3.80400	394
3.80767	392
3.81133	390
3.81500	389
3.81867	387
3.82233	384
3.82600	383
3.82967	381
3.83333	381
3.83700	382
3.84067	381
3.84433	379
3.84800	375
3.85167	373
3.85533	370
3.85900	369
3.86267	366
3.86633	365
3.87000	363
3.87367	362
3.87733	363
3.88100	361
3.88467	359
3.88833	357
3.89200	356
3.89567	355
3.89933	352
3.90300	348
3.90667	345
3.91033	345
3.91400	344
3.91767	344
3.92133	343
3.92500	340
3.92867	337
3.93233	335
3.93600	335
3.93967	335
3.94333	333
3.94700	329
3.95067	328
3.95433	326
3.95800	324
3.96167	322
3.96533	320
3.96900	316
3.97267	313
3.97633	309
3.98000	308
3.98367	306
3.98733	305
3.99100	305
3.99467	305
3.99833	303

[Status Trace (Column Oven Temperature)]
Interval(msec)	1000
# of Points	240
Start Time(min)	0.005
End Time(min)	3.988
Intensity Units	
Intensity Multiplier	1
R.Time (min)	Intensity
0.00507	35.02
0.02173	35.02
0.03840	35.03
0.05507	35.04
0.07173	35.04
0.08840	35.05
0.10507	35.06
0.12173	35.07
0.13840	35.07
0.15507	35.06
0.17173	35.05
0.18840	35.05
0.20507	35.04
0.22173	35.04
0.23840	35.05
0.25507	35.04
0.27173	35.04
0.28840	35.04
0.30507	35.05
0.32173	35.05
0.33840	35.05
0.35507	35.04
0.37173	35.03
0.38840	35.03
0.40507	35.04
0.42173	35.04
0.43840	35.03
0.45507	35.03
0.47173	35.03
0.48840	35.02
0.50507	35.02
0.52173	35.01
0.53840	34.99
0.55507	34.99
0.57173	34.99
0.58840	35.00
0.60507	35.01
0.62173	35.02
0.63840	35.02
0.65507	35.03
0.67173	35.02
0.68840	35.02
0.70507	35.02
0.72173	35.02
0.73840	35.02
0.75507	35.01
0.77173	35.01
0.78840	35.01
0.80507	35.01
0.82173	35.02
0.83840	35.02
0.85507	35.01
0.87173	35.01
0.88840	35.01
0.90507	34.99
0.92173	34.99
0.93840	35.00
0.95507	35.00
0.97173	35.01
0.98840	35.01
1.00507	35.01
1.02173	35.01
1.03840	35.00
1.05507	35.00
1.07173	35.00
1.08840	35.01
1.10507	35.01
1.12173	35.01
1.13840	35.02
1.15507	35.02
1.17173	35.01
1.18840	35.01
1.20507	34.99
1.22173	34.98
1.23840	34.97
1.25507	34.97
1.27173	34.98
1.28840	34.98
1.30507	34.98
1.32173	34.99
1.33840	34.99
1.35507	35.00
1.37173	35.00
1.38840	34.98
1.40507	34.99
1.42173	34.99
1.43840	35.00
1.45507	35.01
1.47173	35.01
1.48840	35.02
1.50507	35.03
1.52173	35.03
1.53840	35.02
1.55507	35.02
1.57173	35.00
1.58840	34.99
1.60507	35.03
1.62173	35.13
1.63840	35.29
1.65507	35.53
1.67173	35.87
1.68840	36.25
1.70507	36.61
1.72173	36.94
1.73840	37.27
1.75507	37.60
1.77173	37.93
1.78840	38.27
1.80507	38.59
1.82173	38.94
1.83840	39.26
1.85507	39.58
1.87173	39.92
1.88840	40.25
1.90507	40.55
1.92173	40.88
1.93840	41.20
1.95507	41.52
1.97173	41.86
1.98840	42.18
2.00507	42.49
2.02173	42.82
2.03840	43.14
2.05507	43.46
2.07173	43.79
2.08840	44.12
2.10507	44.46
2.12173	44.77
2.13840	45.08
2.15507	45.40
2.17173	45.76
2.18840	46.09
2.20507	46.41
2.22173	46.75
2.23840	47.07
2.25507	47.42
2.27173	47.72
2.28840	48.13
2.30507	48.46
2.32173	48.76
2.33840	49.09
2.35507	49.38
2.37173	49.57
2.38840	49.65
2.40507	49.64
2.42173	49.64
2.43840	49.65
2.45507	49.65
2.47173	49.67
2.48840	49.68
2.50507	49.69
2.52173	49.71
2.53840	49.72
2.55507	49.73
2.57173	49.74
2.58840	49.75
2.60507	49.76
2.62173	49.77
2.63840	49.80
2.65507	49.80
2.67173	49.80
2.68840	49.85
2.70507	49.86
2.72173	49.85
2.73840	49.87
2.75507	49.87
2.77173	49.88
2.78840	49.87
2.80507	49.86
2.82173	49.87
2.83840	49.87
2.85507	49.87
2.87173	49.88
2.88840	49.88
2.90507	49.90
2.92173	49.92
2.93840	49.93
2.95507	49.95
2.97173	49.96
2.98840	49.99
3.00507	50.00
3.02173	50.01
3.03840	50.02
3.05507	50.02
3.07173	50.02
3.08840	50.03
3.10507	50.04
3.12173	50.05
3.13840	50.05
3.15507	50.06
3.17173	50.07
3.18840	50.07
3.20507	50.09
3.22173	50.09
3.23840	50.10
3.25507	50.10
3.27173	50.10
3.28840	50.10
3.30507	50.09
3.32173	50.08
3.33840	50.07
3.35507	50.07
3.37173	50.07
3.38840	50.07
3.40507	50.07
3.42173	50.06
3.43840	50.05
3.45507	50.05
3.47173	50.06
3.48840	50.07
3.50507	50.07
3.52173	50.07
3.53840	50.07
3.55507	50.07
3.57173	50.07
3.58840	50.06
3.60507	50.06
3.62173	50.05
3.63840	50.05
3.65507	50.05
3.67173	50.06
3.68840	50.06
3.70507	50.07
3.72173	50.08
3.73840	50.09
3.75507	50.09
3.77173	50.10
3.78840	50.10
3.80507	50.09
3.82173	50.08
3.83840	50.07
3.85507	50.05
3.87173	50.05
3.88840	50.05
3.90507	50.04
3.92173	50.04
3.93840	50.06
3.95507	50.05
3.97173	50.05
3.98840	50.05

[Status Trace (Injection Unit Temperature)]
Interval(msec)	1000
# of Points	240
Start Time(min)	0.005
End Time(min)	3.988
Intensity Units	
Intensity Multiplier	1
R.Time (min)	Intensity
0.00507	99.98
0.02173	99.97
0.03840	99.97
0.05507	99.98
0.07173	99.98
0.08840	99.98
0.10507	99.98
0.12173	99.98
0.13840	99.98
0.15507	99.98
0.17173	99.98
0.18840	99.98
0.20507	99.98
0.22173	99.98
0.23840	99.98
0.25507	99.99
0.27173	99.98
0.28840	99.99
0.30507	99.99
0.32173	99.99
0.33840	99.99
0.35507	99.99
0.37173	99.98
0.38840	99.99
0.40507	99.99
0.42173	99.99
0.43840	99.99
0.45507	99.99
0.47173	99.99
0.48840	99.99
0.50507	100.00
0.52173	99.99
0.53840	99.99
0.55507	100.00
0.57173	99.99
0.58840	99.99
0.60507	99.99
0.62173	99.99
0.63840	99.99
0.65507	99.99
0.67173	100.00
0.68840	99.99
0.70507	100.00
0.72173	99.99
0.73840	99.99
0.75507	99.99
0.77173	99.99
0.78840	99.99
0.80507	99.99
0.82173	99.99
0.83840	99.99
0.85507	99.99
0.87173	99.99
0.88840	99.99
0.90507	99.99
0.92173	99.99
0.93840	99.99
0.95507	99.99
0.97173	99.98
0.98840	99.99
1.00507	99.98
1.02173	99.99
1.03840	99.99
1.05507	99.98
1.07173	99.99
1.08840	99.98
1.10507	99.98
1.12173	99.98
1.13840	99.98
1.15507	99.98
1.17173	99.98
1.18840	99.99
1.20507	99.98
1.22173	99.98
1.23840	99.98
1.25507	99.98
1.27173	99.98
1.28840	99.98
1.30507	99.98
1.32173	99.98
1.33840	99.98
1.35507	99.98
1.37173	99.98
1.38840	99.98
1.40507	99.99
1.42173	99.98
1.43840	99.98
1.45507	99.98
1.47173	99.98
1.48840	99.98
1.50507	99.98
1.52173	99.98
1.53840	99.98
1.55507	99.98
1.57173	99.98
1.58840	99.98
1.60507	99.98
1.62173	99.99
1.63840	99.99
1.65507	99.98
1.67173	99.98
1.68840	99.98
1.70507	99.98
1.72173	99.98
1.73840	99.98
1.75507	99.98
1.77173	99.98
1.78840	99.98
1.80507	99.98
1.82173	99.98
1.83840	99.98
1.85507	99.98
1.87173	99.98
1.88840	99.99
1.90507	99.98
1.92173	99.98
1.93840	99.98
1.95507	99.98
1.97173	99.98
1.98840	99.98
2.00507	99.98
2.02173	99.98
2.03840	99.98
2.05507	99.98
2.07173	99.98
2.08840	99.98
2.10507	99.98
2.12173	99.98
2.13840	99.98
2.15507	99.98
2.17173	99.98
2.18840	99.98
2.20507	99.98
2.22173	99.98
2.23840	99.97
2.25507	99.98
2.27173	99.97
2.28840	99.97
2.30507	99.97
2.32173	99.97
2.33840	99.97
2.35507	99.97
2.37173	99.97
2.38840	99.97
2.40507	99.97
2.42173	99.97
2.43840	99.97
2.45507	99.97
2.47173	99.97
2.48840	99.97
2.50507	99.96
2.52173	99.97
2.53840	99.97
2.55507	99.97
2.57173	99.97
2.58840	99.97
2.60507	99.97
2.62173	99.98
2.63840	99.98
2.65507	99.98
2.67173	99.98
2.68840	99.98
2.70507	99.98
2.72173	99.98
2.73840	99.99
2.75507	99.99
2.77173	99.99
2.78840	99.99
2.80507	100.00
2.82173	100.00
2.83840	100.00
2.85507	100.00
2.87173	100.00
2.88840	100.00
2.90507	100.00
2.92173	100.00
2.93840	100.00
2.95507	100.01
2.97173	100.00
2.98840	100.00
3.00507	100.01
3.02173	100.01
3.03840	100.01
3.05507	100.01
3.07173	100.02
3.08840	100.02
3.10507	100.02
3.12173	100.02
3.13840	100.02
3.15507	100.02
3.17173	100.03
3.18840	100.03
3.20507	100.03
3.22173	100.03
3.23840	100.03
3.25507	100.04
3.27173	100.03
3.28840	100.04
3.30507	100.04
3.32173	100.03
3.33840	100.04
3.35507	100.04
3.37173	100.04
3.38840	100.04
3.40507	100.04
3.42173	100.04
3.43840	100.04
3.45507	100.04
3.47173	100.05
3.48840	100.05
3.50507	100.05
3.52173	100.05
3.53840	100.05
3.55507	100.05
3.57173	100.05
3.58840	100.05
3.60507	100.05
3.62173	100.05
3.63840	100.05
3.65507	100.05
3.67173	100.06
3.68840	100.05
3.70507	100.06
3.72173	100.05
3.73840	100.05
3.75507	100.05
3.77173	100.05
3.78840	100.06
3.80507	100.05
3.82173	100.06
3.83840	100.05
3.85507	100.05
3.87173	100.05
3.88840	100.05
3.90507	100.05
3.92173	100.06
3.93840	100.05
3.95507	100.06
3.97173	100.05
3.98840	100.06

[Status Trace (Carrier Gas Pressure)]
Interval(msec)	1000
# of Points	240
Start Time(min)	0.005
End Time(min)	3.988
Intensity Units	
Intensity Multiplier	1
R.Time (min)	Intensity
0.00507	58.00
0.02173	55.81
0.03840	56.80
0.05507	58.96
0.07173	59.60
0.08840	58.11
0.10507	57.98
0.12173	58.01
0.13840	58.01
0.15507	58.01
0.17173	58.01
0.18840	58.00
0.20507	58.00
0.22173	58.00
0.23840	58.00
0.25507	58.00
0.27173	58.00
0.28840	58.00
0.30507	58.00
0.32173	58.00
0.33840	58.00
0.35507	58.00
0.37173	58.00
0.38840	58.00
0.40507	58.00
0.42173	58.00
0.43840	58.00
0.45507	58.00
0.47173	58.00
0.48840	58.00
0.50507	58.00
0.52173	58.00
0.53840	58.00
0.55507	58.00
0.57173	58.00
0.58840	58.00
0.60507	58.00
0.62173	58.00
0.63840	58.00
0.65507	58.00
0.67173	58.00
0.68840	58.00
0.70507	58.00
0.72173	58.00
0.73840	58.00
0.75507	58.00
0.77173	58.00
0.78840	58.00
0.80507	58.00
0.82173	58.00
0.83840	58.00
0.85507	58.00
0.87173	58.00
0.88840	58.00
0.90507	58.00
0.92173	58.00
0.93840	58.00
0.95507	58.00
0.97173	58.00
0.98840	58.00
1.00507	58.00
1.02173	58.00
1.03840	58.00
1.05507	58.00
1.07173	58.00
1.08840	58.00
1.10507	58.00
1.12173	58.00
1.13840	58.00
1.15507	58.00
1.17173	58.00
1.18840	58.00
1.20507	58.00
1.22173	58.00
1.23840	58.00
1.25507	58.00
1.27173	58.00
1.28840	58.00
1.30507	58.00
1.32173	58.00
1.33840	58.00
1.35507	58.00
1.37173	58.00
1.38840	58.00
1.40507	58.00
1.42173	58.00
1.43840	58.00
1.45507	58.00
1.47173	58.00
1.48840	58.00
1.50507	58.00
1.52173	58.00
1.53840	58.00
1.55507	58.00
1.57173	58.00
1.58840	58.00
1.60507	58.00
1.62173	58.00
1.63840	58.00
1.65507	58.00
1.67173	58.01
1.68840	58.01
1.70507	58.00
1.72173	58.00
1.73840	58.00
1.75507	58.00
1.77173	58.00
1.78840	58.00
1.80507	58.00
1.82173	58.00
1.83840	58.00
1.85507	58.00
1.87173	58.00
1.88840	58.00
1.90507	58.00
1.92173	58.00
1.93840	58.00
1.95507	58.00
1.97173	58.00
1.98840	58.00
2.00507	58.00
2.02173	58.00
2.03840	58.00
2.05507	58.00
2.07173	58.00
2.08840	58.00
2.10507	58.00
2.12173	58.00
2.13840	58.00
2.15507	58.00
2.17173	58.00
2.18840	58.00
2.20507	58.00
2.22173	58.00
2.23840	58.00
2.25507	58.00
2.27173	58.00
2.28840	58.00
2.30507	58.00
2.32173	58.00
2.33840	58.00
2.35507	58.00
2.37173	58.00
2.38840	57.99
2.40507	57.99
2.42173	58.00
2.43840	58.00
2.45507	58.00
2.47173	58.00
2.48840	58.00
2.50507	57.99
2.52173	57.99
2.53840	58.00
2.55507	58.00
2.57173	58.00
2.58840	58.00
2.60507	58.00
2.62173	58.00
2.63840	58.00
2.65507	58.00
2.67173	58.00
2.68840	58.00
2.70507	58.00
2.72173	58.00
2.73840	58.00
2.75507	58.00
2.77173	58.00
2.78840	58.00
2.80507	58.00
2.82173	58.00
2.83840	58.00
2.85507	58.00
2.87173	58.00
2.88840	58.00
2.90507	58.00
2.92173	58.00
2.93840	58.00
2.95507	58.00
2.97173	58.00
2.98840	58.00
3.00507	58.00
3.02173	58.00
3.03840	58.00
3.05507	58.00
3.07173	58.00
3.08840	58.00
3.10507	58.00
3.12173	58.00
3.13840	58.00
3.15507	58.00
3.17173	58.00
3.18840	58.00
3.20507	58.00
3.22173	58.00
3.23840	58.00
3.25507	58.00
3.27173	58.00
3.28840	58.00
3.30507	58.00
3.32173	58.00
3.33840	58.00
3.35507	58.00
3.37173	58.00
3.38840	58.00
3.40507	58.00
3.42173	58.00
3.43840	58.00
3.45507	58.00
3.47173	58.00
3.48840	58.00
3.50507	58.00
3.52173	58.00
3.53840	58.00
3.55507	58.00
3.57173	58.00
3.58840	58.00
3.60507	58.00
3.62173	58.00
3.63840	58.00
3.65507	58.00
3.67173	58.00
3.68840	58.00
3.70507	58.00
3.72173	58.00
3.73840	58.00
3.75507	58.00
3.77173	58.00
3.78840	58.00
3.80507	58.00
3.82173	58.00
3.83840	58.00
3.85507	58.00
3.87173	58.00
3.88840	58.00
3.90507	58.00
3.92173	58.00
3.93840	58.00
3.95507	58.00
3.97173	58.00
3.98840	58.00

[Status Trace (Carrier Gas Flow)]
Interval(msec)	1000
# of Points	240
Start Time(min)	0.005
End Time(min)	3.988
Intensity Units	
Intensity Multiplier	1
R.Time (min)	Intensity
0.00507	34.52
0.02173	34.55
0.03840	34.55
0.05507	34.55
0.07173	34.50
0.08840	34.52
0.10507	34.52
0.12173	34.52
0.13840	34.52
0.15507	34.52
0.17173	34.52
0.18840	34.52
0.20507	34.52
0.22173	34.52
0.23840	34.52
0.25507	34.52
0.27173	34.52
0.28840	34.52
0.30507	34.52
0.32173	34.52
0.33840	34.52
0.35507	34.52
0.37173	34.52
0.38840	34.53
0.40507	34.52
0.42173	34.52
0.43840	34.52
0.45507	34.52
0.47173	34.52
0.48840	34.52
0.50507	34.52
0.52173	34.52
0.53840	34.53
0.55507	34.52
0.57173	34.52
0.58840	34.51
0.60507	34.52
0.62173	34.52
0.63840	34.52
0.65507	34.52
0.67173	34.52
0.68840	34.52
0.70507	34.52
0.72173	34.52
0.73840	34.52
0.75507	34.52
0.77173	34.52
0.78840	34.51
0.80507	34.52
0.82173	34.52
0.83840	34.52
0.85507	34.52
0.87173	34.51
0.88840	34.51
0.90507	34.52
0.92173	34.52
0.93840	34.52
0.95507	34.52
0.97173	34.52
0.98840	34.52
1.00507	34.52
1.02173	34.52
1.03840	34.52
1.05507	34.52
1.07173	34.52
1.08840	34.52
1.10507	34.52
1.12173	34.52
1.13840	34.52
1.15507	34.52
1.17173	34.51
1.18840	34.52
1.20507	34.52
1.22173	34.52
1.23840	34.51
1.25507	34.52
1.27173	34.52
1.28840	34.52
1.30507	34.52
1.32173	34.52
1.33840	34.52
1.35507	34.51
1.37173	34.52
1.38840	34.52
1.40507	34.51
1.42173	34.52
1.43840	34.52
1.45507	34.52
1.47173	34.52
1.48840	34.52
1.50507	34.52
1.52173	34.52
1.53840	34.52
1.55507	34.52
1.57173	34.52
1.58840	34.52
1.60507	34.52
1.62173	34.52
1.63840	34.53
1.65507	34.51
1.67173	34.52
1.68840	34.52
1.70507	34.52
1.72173	34.52
1.73840	34.52
1.75507	34.52
1.77173	34.52
1.78840	34.51
1.80507	34.52
1.82173	34.52
1.83840	34.52
1.85507	34.52
1.87173	34.52
1.88840	34.52
1.90507	34.52
1.92173	34.52
1.93840	34.52
1.95507	34.52
1.97173	34.52
1.98840	34.52
2.00507	34.53
2.02173	34.53
2.03840	34.52
2.05507	34.52
2.07173	34.52
2.08840	34.52
2.10507	34.52
2.12173	34.52
2.13840	34.52
2.15507	34.51
2.17173	34.52
2.18840	34.52
2.20507	34.52
2.22173	34.52
2.23840	34.52
2.25507	34.52
2.27173	34.52
2.28840	34.52
2.30507	34.52
2.32173	34.52
2.33840	34.52
2.35507	34.52
2.37173	34.52
2.38840	34.51
2.40507	34.52
2.42173	34.52
2.43840	34.52
2.45507	34.52
2.47173	34.51
2.48840	34.52
2.50507	34.56
2.52173	34.52
2.53840	34.51
2.55507	34.52
2.57173	34.52
2.58840	34.51
2.60507	34.52
2.62173	34.52
2.63840	34.52
2.65507	34.52
2.67173	34.52
2.68840	34.52
2.70507	34.52
2.72173	34.52
2.73840	34.52
2.75507	34.52
2.77173	34.51
2.78840	34.52
2.80507	34.52
2.82173	34.52
2.83840	34.51
2.85507	34.52
2.87173	34.52
2.88840	34.51
2.90507	34.52
2.92173	34.52
2.93840	34.52
2.95507	34.51
2.97173	34.52
2.98840	34.52
3.00507	34.51
3.02173	34.52
3.03840	34.52
3.05507	34.52
3.07173	34.52
3.08840	34.52
3.10507	34.52
3.12173	34.51
3.13840	34.52
3.15507	34.52
3.17173	34.52
3.18840	34.51
3.20507	34.52
3.22173	34.52
3.23840	34.52
3.25507	34.52
3.27173	34.52
3.28840	34.53
3.30507	34.52
3.32173	34.52
3.33840	34.52
3.35507	34.52
3.37173	34.52
3.38840	34.52
3.40507	34.52
3.42173	34.52
3.43840	34.51
3.45507	34.52
3.47173	34.52
3.48840	34.52
3.50507	34.52
3.52173	34.52
3.53840	34.52
3.55507	34.52
3.57173	34.52
3.58840	34.52
3.60507	34.52
3.62173	34.52
3.63840	34.52
3.65507	34.51
3.67173	34.52
3.68840	34.51
3.70507	34.52
3.72173	34.52
3.73840	34.51
3.75507	34.52
3.77173	34.52
3.78840	34.52
3.80507	34.52
3.82173	34.52
3.83840	34.52
3.85507	34.51
3.87173	34.52
3.88840	34.52
3.90507	34.52
3.92173	34.52
3.93840	34.52
3.95507	34.52
3.97173	34.52
3.98840	34.52

[Status Trace (Column Flow)]
Interval(msec)	1000
# of Points	240
Start Time(min)	0.005
End Time(min)	3.988
Intensity Units	
Intensity Multiplier	1
R.Time (min)	Intensity
0.00507	5.49
0.02173	5.24
0.03840	5.36
0.05507	5.61
0.07173	5.68
0.08840	5.51
0.10507	5.49
0.12173	5.49
0.13840	5.49
0.15507	5.49
0.17173	5.49
0.18840	5.49
0.20507	5.49
0.22173	5.49
0.23840	5.49
0.25507	5.49
0.27173	5.49
0.28840	5.49
0.30507	5.49
0.32173	5.49
0.33840	5.49
0.35507	5.49
0.37173	5.49
0.38840	5.49
0.40507	5.49
0.42173	5.49
0.43840	5.49
0.45507	5.49
0.47173	5.49
0.48840	5.49
0.50507	5.49
0.52173	5.49
0.53840	5.49
0.55507	5.50
0.57173	5.50
0.58840	5.49
0.60507	5.49
0.62173	5.49
0.63840	5.49
0.65507	5.49
0.67173	5.49
0.68840	5.49
0.70507	5.49
0.72173	5.49
0.73840	5.49
0.75507	5.49
0.77173	5.49
0.78840	5.49
0.80507	5.49
0.82173	5.49
0.83840	5.49
0.85507	5.49
0.87173	5.49
0.88840	5.49
0.90507	5.50
0.92173	5.50
0.93840	5.49
0.95507	5.49
0.97173	5.49
0.98840	5.49
1.00507	5.49
1.02173	5.49
1.03840	5.49
1.05507	5.50
1.07173	5.49
1.08840	5.49
1.10507	5.49
1.12173	5.49
1.13840	5.49
1.15507	5.49
1.17173	5.49
1.18840	5.49
1.20507	5.50
1.22173	5.50
1.23840	5.50
1.25507	5.50
1.27173	5.50
1.28840	5.50
1.30507	5.50
1.32173	5.50
1.33840	5.50
1.35507	5.49
1.37173	5.49
1.38840	5.50
1.40507	5.50
1.42173	5.50
1.43840	5.49
1.45507	5.49
1.47173	5.49
1.48840	5.49
1.50507	5.49
1.52173	5.49
1.53840	5.49
1.55507	5.49
1.57173	5.49
1.58840	5.50
1.60507	5.49
1.62173	5.49
1.63840	5.49
1.65507	5.48
1.67173	5.47
1.68840	5.46
1.70507	5.44
1.72173	5.43
1.73840	5.42
1.75507	5.41
1.77173	5.40
1.78840	5.39
1.80507	5.38
1.82173	5.37
1.83840	5.36
1.85507	5.35
1.87173	5.34
1.88840	5.33
1.90507	5.32
1.92173	5.31
1.93840	5.31
1.95507	5.30
1.97173	5.29
1.98840	5.28
2.00507	5.27
2.02173	5.26
2.03840	5.25
2.05507	5.24
2.07173	5.23
2.08840	5.22
2.10507	5.21
2.12173	5.20
2.13840	5.19
2.15507	5.18
2.17173	5.17
2.18840	5.16
2.20507	5.15
2.22173	5.14
2.23840	5.14
2.25507	5.13
2.27173	5.12
2.28840	5.11
2.30507	5.10
2.32173	5.09
2.33840	5.08
2.35507	5.07
2.37173	5.07
2.38840	5.06
2.40507	5.06
2.42173	5.06
2.43840	5.06
2.45507	5.06
2.47173	5.06
2.48840	5.06
2.50507	5.06
2.52173	5.06
2.53840	5.06
2.55507	5.06
2.57173	5.06
2.58840	5.06
2.60507	5.06
2.62173	5.06
2.63840	5.06
2.65507	5.06
2.67173	5.06
2.68840	5.06
2.70507	5.06
2.72173	5.06
2.73840	5.06
2.75507	5.06
2.77173	5.06
2.78840	5.06
2.80507	5.06
2.82173	5.06
2.83840	5.06
2.85507	5.06
2.87173	5.06
2.88840	5.06
2.90507	5.06
2.92173	5.06
2.93840	5.06
2.95507	5.06
2.97173	5.05
2.98840	5.05
3.00507	5.05
3.02173	5.05
3.03840	5.05
3.05507	5.05
3.07173	5.05
3.08840	5.05
3.10507	5.05
3.12173	5.05
3.13840	5.05
3.15507	5.05
3.17173	5.05
3.18840	5.05
3.20507	5.05
3.22173	5.05
3.23840	5.05
3.25507	5.05
3.27173	5.05
3.28840	5.05
3.30507	5.05
3.32173	5.05
3.33840	5.05
3.35507	5.05
3.37173	5.05
3.38840	5.05
3.40507	5.05
3.42173	5.05
3.43840	5.05
3.45507	5.05
3.47173	5.05
3.48840	5.05
3.50507	5.05
3.52173	5.05
3.53840	5.05
3.55507	5.05
3.57173	5.05
3.58840	5.05
3.60507	5.05
3.62173	5.05
3.63840	5.05
3.65507	5.05
3.67173	5.05
3.68840	5.05
3.70507	5.05
3.72173	5.05
3.73840	5.05
3.75507	5.05
3.77173	5.05
3.78840	5.05
3.80507	5.05
3.82173	5.05
3.83840	5.05
3.85507	5.05
3.87173	5.05
3.88840	5.05
3.90507	5.05
3.92173	5.05
3.93840	5.05
3.95507	5.05
3.97173	5.05
3.98840	5.05

[Status Trace (Linear Velocity)]
Interval(msec)	1000
# of Points	240
Start Time(min)	0.005
End Time(min)	3.988
Intensity Units	
Intensity Multiplier	1
R.Time (min)	Intensity
0.00507	39.01
0.02173	37.57
0.03840	38.22
0.05507	39.63
0.07173	40.05
0.08840	39.08
0.10507	38.99
0.12173	39.01
0.13840	39.01
0.15507	39.01
0.17173	39.01
0.18840	39.01
0.20507	39.01
0.22173	39.01
0.23840	39.01
0.25507	39.01
0.27173	39.01
0.28840	39.01
0.30507	39.01
0.32173	39.01
0.33840	39.01
0.35507	39.01
0.37173	39.01
0.38840	39.01
0.40507	39.01
0.42173	39.01
0.43840	39.01
0.45507	39.01
0.47173	39.01
0.48840	39.01
0.50507	39.01
0.52173	39.01
0.53840	39.01
0.55507	39.01
0.57173	39.01
0.58840	39.01
0.60507	39.01
0.62173	39.01
0.63840	39.01
0.65507	39.01
0.67173	39.01
0.68840	39.01
0.70507	39.01
0.72173	39.01
0.73840	39.01
0.75507	39.01
0.77173	39.01
0.78840	39.01
0.80507	39.01
0.82173	39.01
0.83840	39.01
0.85507	39.01
0.87173	39.01
0.88840	39.01
0.90507	39.01
0.92173	39.01
0.93840	39.01
0.95507	39.01
0.97173	39.01
0.98840	39.01
1.00507	39.01
1.02173	39.01
1.03840	39.01
1.05507	39.01
1.07173	39.01
1.08840	39.01
1.10507	39.01
1.12173	39.01
1.13840	39.01
1.15507	39.01
1.17173	39.01
1.18840	39.01
1.20507	39.01
1.22173	39.01
1.23840	39.01
1.25507	39.01
1.27173	39.01
1.28840	39.01
1.30507	39.01
1.32173	39.01
1.33840	39.01
1.35507	39.01
1.37173	39.01
1.38840	39.01
1.40507	39.01
1.42173	39.01
1.43840	39.01
1.45507	39.01
1.47173	39.01
1.48840	39.01
1.50507	39.01
1.52173	39.01
1.53840	39.01
1.55507	39.01
1.57173	39.01
1.58840	39.01
1.60507	39.01
1.62173	39.00
1.63840	38.98
1.65507	38.96
1.67173	38.93
1.68840	38.89
1.70507	38.86
1.72173	38.82
1.73840	38.79
1.75507	38.76
1.77173	38.73
1.78840	38.70
1.80507	38.67
1.82173	38.64
1.83840	38.61
1.85507	38.57
1.87173	38.54
1.88840	38.51
1.90507	38.48
1.92173	38.45
1.93840	38.42
1.95507	38.39
1.97173	38.36
1.98840	38.33
2.00507	38.30
2.02173	38.27
2.03840	38.25
2.05507	38.22
2.07173	38.18
2.08840	38.16
2.10507	38.12
2.12173	38.09
2.13840	38.07
2.15507	38.04
2.17173	38.01
2.18840	37.98
2.20507	37.95
2.22173	37.92
2.23840	37.89
2.25507	37.86
2.27173	37.83
2.28840	37.80
2.30507	37.76
2.32173	37.74
2.33840	37.71
2.35507	37.68
2.37173	37.66
2.38840	37.65
2.40507	37.65
2.42173	37.66
2.43840	37.66
2.45507	37.66
2.47173	37.66
2.48840	37.65
2.50507	37.65
2.52173	37.65
2.53840	37.65
2.55507	37.65
2.57173	37.65
2.58840	37.65
2.60507	37.65
2.62173	37.65
2.63840	37.65
2.65507	37.64
2.67173	37.64
2.68840	37.64
2.70507	37.64
2.72173	37.64
2.73840	37.64
2.75507	37.64
2.77173	37.64
2.78840	37.64
2.80507	37.64
2.82173	37.64
2.83840	37.64
2.85507	37.64
2.87173	37.64
2.88840	37.64
2.90507	37.64
2.92173	37.63
2.93840	37.63
2.95507	37.63
2.97173	37.63
2.98840	37.63
3.00507	37.63
3.02173	37.63
3.03840	37.62
3.05507	37.62
3.07173	37.62
3.08840	37.62
3.10507	37.62
3.12173	37.62
3.13840	37.62
3.15507	37.62
3.17173	37.62
3.18840	37.62
3.20507	37.62
3.22173	37.62
3.23840	37.62
3.25507	37.62
3.27173	37.62
3.28840	37.62
3.30507	37.62
3.32173	37.62
3.33840	37.62
3.35507	37.62
3.37173	37.62
3.38840	37.62
3.40507	37.62
3.42173	37.62
3.43840	37.62
3.45507	37.62
3.47173	37.62
3.48840	37.62
3.50507	37.62
3.52173	37.62
3.53840	37.62
3.55507	37.62
3.57173	37.62
3.58840	37.62
3.60507	37.62
3.62173	37.62
3.63840	37.62
3.65507	37.62
3.67173	37.62
3.68840	37.62
3.70507	37.62
3.72173	37.62
3.73840	37.62
3.75507	37.62
3.77173	37.62
3.78840	37.62
3.80507	37.62
3.82173	37.62
3.83840	37.62
3.85507	37.62
3.87173	37.62
3.88840	37.62
3.90507	37.62
3.92173	37.62
3.93840	37.62
3.95507	37.62
3.97173	37.62
3.98840	37.62

