[Header]
Application Name	LabSolutions
Version	5.110
Data File Name	C:\Users\User\Desktop\Junior\UIC Prairie Sampling\6.2.23\06022023_004.gcd
Output Date	6/12/2023
Output Time	11:47:08 AM

[File Information]
Type	Data File
Generated	6/5/2023 2:13:26 PM
Generated by	System Administrator
Modified	6/5/2023 2:20:40 PM
Modified by	System Administrator

[Sample Information]
Operator Name	System Administrator
Acquired	6/5/2023 2:16:40 PM
Sample Type	0:Unknown
Level	0
Sample Name	004
Sample ID	004
ISTD Amount1	1
ISTD Amount2	1
ISTD Amount3	1
ISTD Amount4	1
ISTD Amount5	1
ISTD Amount6	1
ISTD Amount7	1
ISTD Amount8	1
ISTD Amount9	1
ISTD Amount10	1
ISTD Amount11	1
ISTD Amount12	1
ISTD Amount13	1
ISTD Amount14	1
ISTD Amount15	1
ISTD Amount16	1
ISTD Amount17	1
ISTD Amount18	1
ISTD Amount19	1
ISTD Amount20	1
ISTD Amount21	1
ISTD Amount22	1
ISTD Amount23	1
ISTD Amount24	1
ISTD Amount25	1
ISTD Amount26	1
ISTD Amount27	1
ISTD Amount28	1
ISTD Amount29	1
ISTD Amount30	1
ISTD Amount31	1
ISTD Amount32	1
Sample Amount	1
Dilution Factor	1
Vial#	3
Injection Volume	1
Injection Count	1
Bar Code	

[Original Files]
Data File	C:\Users\User\Desktop\Junior\UIC Prairie Sampling\6.2.23\06022023_004.gcd
Method File	C:\LabSolutions\Data\GHG_4min_2022\ghg3_togas_w_acet_4 min_new_int.gcm
Batch File	C:\LabSolutions\Data\AutoSamplerTesting\06022023.gcb
Report Format File	c:\LabSolutions\System\DEFAULT.lsr

[File Description]


[Configuration]
Instrument Name	C0B7VH3-Instrument1
Instrument #	1
Line #	1
# of Detectors	3
Detector ID	DET#1	DET#2	DET#3
Detector Name	FID	PTCD	ECD
# of Channels	1	1	1

[Peak Table(Ch1)]
# of Peaks	2
Peak#	R.Time	I.Time	F.Time	Area	Height	A/H	Conc.	Mark	ID#	Name	k'	Plate #	Plate Ht.	Tailing	Resolution	Sep.Factor	Area Ratio	Height Ratio	Conc. %	Norm Conc.
1	1.564	1.527	1.626	19046	9665	1.971	92.852	   	2	CH4	0.000	11556	12.980	1.128	0.000	0.000	0	0	19.601	19.601
2	1.989	1.941	2.422	1976263	951212	2.078	380.862	   	3	CO2	0.272	17583	8.531	1.244	7.198	0.000	0	0	80.399	80.399

[Peak Table(Ch2)]
# of Peaks	0

[Peak Table(Ch3)]
# of Peaks	4
Peak#	R.Time	I.Time	F.Time	Area	Height	A/H	Conc.	Mark	ID#	Name	k'	Plate #	Plate Ht.	Tailing	Resolution	Sep.Factor	Area Ratio	Height Ratio	Conc. %	Norm Conc.
1	2.462	2.392	2.539	856	284	3.019	0.000	   			0.000	18426	8.141	1.549	0.000	0.000	0	0	0.000	0.000
2	2.590	2.557	2.631	213	84	2.550	0.000	   			0.052	18361	8.170	1.128	1.722	0.000	0	0	0.000	0.000
3	2.763	2.704	2.821	217	55	3.930	0.003	   	1	N2O	0.122	8578	17.487	0.994	1.760	2.343	0	0	0.432	0.432
4	2.891	2.829	3.192	50034	13071	3.828	0.740	   	1	N2O	0.174	13377	11.213	1.481	1.170	1.427	0	0	99.568	99.568

[Compound Results(Ch1)]
# of IDs	6
ID#	Name	R.Time	Area	Height	Conc.	Curve	3rd	2nd	1st	Constant	Area Ratio	Height Ratio	Conc. %	Norm Conc.
1	CO	0.000	0	0	0.000	Linear	0.000000e+00	0.000000e+00	0.000000e+00	0.000000e+00	0	0	0.000	0.000
2	CH4	1.564	19046	9665	92.852	Linear	0.000000e+00	0.000000e+00	2.051179e+002	0.000000e+00	0	0	19.601	19.601
3	CO2	1.989	1976263	951212	380.862	Linear	0.000000e+00	0.000000e+00	5.188919e+003	0.000000e+00	0	0	80.399	80.399
4	Ethylene	0.000	0	0	0.000	Linear	0.000000e+00	0.000000e+00	0.000000e+00	0.000000e+00	0	0	0.000	0.000
5	Acetylene	0.000	0	0	0.000	Linear	0.000000e+00	0.000000e+00	0.000000e+00	0.000000e+00	0	0	0.000	0.000
6	Ethane	0.000	0	0	0.000	Linear	0.000000e+00	0.000000e+00	0.000000e+00	0.000000e+00	0	0	0.000	0.000

[Compound Results(Ch2)]
# of IDs	5
ID#	Name	R.Time	Area	Height	Conc.	Curve	3rd	2nd	1st	Constant	Area Ratio	Height Ratio	Conc. %	Norm Conc.
1	Hydrogen	0.000	0	0	0.000	Linear	0.000000e+00	0.000000e+00	0.000000e+00	0.000000e+00	0	0	0.000	0.000
2	Oxygen	0.000	0	0	0.000	Linear	0.000000e+00	0.000000e+00	0.000000e+00	0.000000e+00	0	0	0.000	0.000
3	Nitrogen	0.000	0	0	0.000	Linear	0.000000e+00	0.000000e+00	0.000000e+00	0.000000e+00	0	0	0.000	0.000
4	Methane	0.000	0	0	0.000	Linear	0.000000e+00	0.000000e+00	0.000000e+00	0.000000e+00	0	0	0.000	0.000
5	Carbon Monoxide	0.000	0	0	0.000	Linear	0.000000e+00	0.000000e+00	0.000000e+00	0.000000e+00	0	0	0.000	0.000

[Compound Results(Ch3)]
# of IDs	2
ID#	Name	R.Time	Area	Height	Conc.	Curve	3rd	2nd	1st	Constant	Area Ratio	Height Ratio	Conc. %	Norm Conc.
1	N2O	2.891	50251	13126	0.743	Linear	0.000000e+00	0.000000e+00	6.759880e+004	0.000000e+00	0	0	100.000	100.000
2	SF6	0.000	0	0	0.000	Linear	0.000000e+00	0.000000e+00	0.000000e+00	0.000000e+00	0	0	0.000	0.000

[Group Results(Ch1)]
# of Groups	0

[Group Results(Ch2)]
# of Groups	0

[Group Results(Ch3)]
# of Groups	0

[Chromatogram (Ch1)]
Interval(msec)	220
# of Points	1091
Start Time(min)	0.002
End Time(min)	3.998
R.Time (min)	Intensity
0.00167	9
0.00533	11
0.00900	14
0.01267	16
0.01633	18
0.02000	19
0.02367	20
0.02733	20
0.03100	17
0.03467	12
0.03833	12
0.04200	17
0.04567	22
0.04933	26
0.05300	25
0.05667	20
0.06033	15
0.06400	14
0.06767	16
0.07133	19
0.07500	19
0.07867	16
0.08233	12
0.08600	9
0.08967	12
0.09333	20
0.09700	28
0.10067	36
0.10433	41
0.10800	42
0.11167	38
0.11533	32
0.11900	20
0.12267	3
0.12633	-20
0.13000	-40
0.13367	-52
0.13733	-57
0.14100	-54
0.14467	-43
0.14833	-29
0.15200	-15
0.15567	-8
0.15933	-6
0.16300	-8
0.16667	-7
0.17033	-5
0.17400	-0
0.17767	5
0.18133	5
0.18500	-1
0.18867	-13
0.19233	-23
0.19600	-25
0.19967	-24
0.20333	-18
0.20700	-10
0.21067	-5
0.21433	0
0.21800	4
0.22167	5
0.22533	6
0.22900	6
0.23267	8
0.23633	11
0.24000	16
0.24367	19
0.24733	19
0.25100	17
0.25467	15
0.25833	14
0.26200	15
0.26567	16
0.26933	17
0.27300	16
0.27667	13
0.28033	11
0.28400	13
0.28767	18
0.29133	22
0.29500	23
0.29867	20
0.30233	17
0.30600	13
0.30967	8
0.31333	4
0.31700	0
0.32067	-5
0.32433	-12
0.32800	-14
0.33167	-12
0.33533	-9
0.33900	-7
0.34267	-4
0.34633	-1
0.35000	4
0.35367	9
0.35733	12
0.36100	14
0.36467	18
0.36833	25
0.37200	29
0.37567	29
0.37933	28
0.38300	24
0.38667	20
0.39033	14
0.39400	5
0.39767	-6
0.40133	-17
0.40500	-23
0.40867	-25
0.41233	-21
0.41600	-12
0.41967	-4
0.42333	2
0.42700	6
0.43067	11
0.43433	15
0.43800	19
0.44167	21
0.44533	21
0.44900	22
0.45267	24
0.45633	30
0.46000	39
0.46367	46
0.46733	49
0.47100	45
0.47467	34
0.47833	21
0.48200	14
0.48567	14
0.48933	15
0.49300	15
0.49667	14
0.50033	9
0.50400	1
0.50767	-9
0.51133	-18
0.51500	-23
0.51867	-24
0.52233	-22
0.52600	-15
0.52967	-5
0.53333	2
0.53700	3
0.54067	1
0.54433	-1
0.54800	-0
0.55167	5
0.55533	10
0.55900	11
0.56267	10
0.56633	9
0.57000	6
0.57367	4
0.57733	2
0.58100	-1
0.58467	-4
0.58833	-4
0.59200	-3
0.59567	-2
0.59933	-1
0.60300	2
0.60667	8
0.61033	14
0.61400	17
0.61767	17
0.62133	14
0.62500	13
0.62867	13
0.63233	9
0.63600	7
0.63967	9
0.64333	11
0.64700	13
0.65067	14
0.65433	12
0.65800	8
0.66167	3
0.66533	-1
0.66900	-3
0.67267	-3
0.67633	-2
0.68000	-2
0.68367	-2
0.68733	-3
0.69100	-3
0.69467	-5
0.69833	-10
0.70200	-15
0.70567	-19
0.70933	-17
0.71300	-10
0.71667	-6
0.72033	-6
0.72400	-9
0.72767	-11
0.73133	-9
0.73500	-1
0.73867	9
0.74233	16
0.74600	14
0.74967	7
0.75333	-0
0.75700	-4
0.76067	-2
0.76433	3
0.76800	10
0.77167	17
0.77533	17
0.77900	11
0.78267	2
0.78633	-8
0.79000	-13
0.79367	-16
0.79733	-18
0.80100	-21
0.80467	-21
0.80833	-18
0.81200	-11
0.81567	-3
0.81933	5
0.82300	12
0.82667	17
0.83033	18
0.83400	13
0.83767	5
0.84133	-4
0.84500	-9
0.84867	-10
0.85233	-7
0.85600	-5
0.85967	-5
0.86333	-9
0.86700	-15
0.87067	-19
0.87433	-18
0.87800	-15
0.88167	-15
0.88533	-16
0.88900	-15
0.89267	-12
0.89633	-9
0.90000	-9
0.90367	-11
0.90733	-10
0.91100	-7
0.91467	-4
0.91833	-3
0.92200	-6
0.92567	-8
0.92933	-7
0.93300	0
0.93667	10
0.94033	13
0.94400	11
0.94767	6
0.95133	-0
0.95500	-7
0.95867	-12
0.96233	-11
0.96600	-6
0.96967	-1
0.97333	2
0.97700	6
0.98067	11
0.98433	12
0.98800	7
0.99167	0
0.99533	-4
0.99900	-5
1.00267	-5
1.00633	-6
1.01000	-8
1.01367	-11
1.01733	-18
1.02100	-28
1.02467	-38
1.02833	-44
1.03200	-45
1.03567	-40
1.03933	-30
1.04300	-18
1.04667	-7
1.05033	-0
1.05400	0
1.05767	-7
1.06133	-19
1.06500	-30
1.06867	-34
1.07233	-35
1.07600	-37
1.07967	-41
1.08333	-46
1.08700	-51
1.09067	-53
1.09433	-52
1.09800	-49
1.10167	-44
1.10533	-38
1.10900	-30
1.11267	-22
1.11633	-18
1.12000	-17
1.12367	-16
1.12733	-17
1.13100	-17
1.13467	-16
1.13833	-13
1.14200	-10
1.14567	-10
1.14933	-12
1.15300	-15
1.15667	-14
1.16033	-12
1.16400	-10
1.16767	-7
1.17133	-3
1.17500	-1
1.17867	1
1.18233	0
1.18600	-6
1.18967	-13
1.19333	-20
1.19700	-25
1.20067	-30
1.20433	-36
1.20800	-41
1.21167	-45
1.21533	-49
1.21900	-51
1.22267	-48
1.22633	-40
1.23000	-33
1.23367	-30
1.23733	-30
1.24100	-32
1.24467	-36
1.24833	-41
1.25200	-45
1.25567	-48
1.25933	-49
1.26300	-49
1.26667	-46
1.27033	-43
1.27400	-38
1.27767	-31
1.28133	-24
1.28500	-19
1.28867	-18
1.29233	-18
1.29600	-19
1.29967	-21
1.30333	-21
1.30700	-19
1.31067	-16
1.31433	-17
1.31800	-23
1.32167	-31
1.32533	-41
1.32900	-46
1.33267	-44
1.33633	-36
1.34000	-29
1.34367	-26
1.34733	-27
1.35100	-27
1.35467	-23
1.35833	-18
1.36200	-19
1.36567	-26
1.36933	-36
1.37300	-44
1.37667	-50
1.38033	-55
1.38400	-59
1.38767	-59
1.39133	-54
1.39500	-43
1.39867	-29
1.40233	-16
1.40600	-8
1.40967	-11
1.41333	-20
1.41700	-31
1.42067	-40
1.42433	-47
1.42800	-52
1.43167	-53
1.43533	-36
1.43900	9
1.44267	51
1.44633	57
1.45000	35
1.45367	1
1.45733	-33
1.46100	-58
1.46467	-65
1.46833	-48
1.47200	-18
1.47567	11
1.47933	26
1.48300	25
1.48667	14
1.49033	-2
1.49400	-19
1.49767	-33
1.50133	-45
1.50500	-59
1.50867	-71
1.51233	-80
1.51600	-87
1.51967	-90
1.52333	-89
1.52700	-80
1.53067	-28
1.53433	208
1.53800	902
1.54167	2241
1.54533	4068
1.54900	5981
1.55267	7636
1.55633	8862
1.56000	9558
1.56367	9600
1.56733	8909
1.57100	7609
1.57467	6019
1.57833	4464
1.58200	3151
1.58567	2144
1.58933	1421
1.59300	924
1.59667	588
1.60033	365
1.60400	220
1.60767	127
1.61133	65
1.61500	22
1.61867	-9
1.62233	-29
1.62600	-39
1.62967	-42
1.63333	-35
1.63700	-23
1.64067	-17
1.64433	-20
1.64800	-30
1.65167	-42
1.65533	-55
1.65900	-72
1.66267	-87
1.66633	-94
1.67000	-91
1.67367	-82
1.67733	-71
1.68100	-61
1.68467	-60
1.68833	-67
1.69200	-79
1.69567	-90
1.69933	-98
1.70300	-101
1.70667	-100
1.71033	-97
1.71400	-95
1.71767	-96
1.72133	-97
1.72500	-96
1.72867	-94
1.73233	-92
1.73600	-89
1.73967	-85
1.74333	-80
1.74700	-74
1.75067	-67
1.75433	-60
1.75800	-58
1.76167	-60
1.76533	-62
1.76900	-66
1.77267	-68
1.77633	-67
1.78000	-66
1.78367	-65
1.78733	-64
1.79100	-66
1.79467	-73
1.79833	-81
1.80200	-91
1.80567	-102
1.80933	-110
1.81300	-111
1.81667	-107
1.82033	-101
1.82400	-93
1.82767	-84
1.83133	-80
1.83500	-81
1.83867	-82
1.84233	-82
1.84600	-80
1.84967	-76
1.85333	-73
1.85700	-71
1.86067	-72
1.86433	-75
1.86800	-77
1.87167	-78
1.87533	-77
1.87900	-79
1.88267	-83
1.88633	-88
1.89000	-91
1.89367	-90
1.89733	-87
1.90100	-83
1.90467	-79
1.90833	-76
1.91200	-76
1.91567	-79
1.91933	-83
1.92300	-86
1.92667	-87
1.93033	-89
1.93400	-89
1.93767	-86
1.94133	-76
1.94500	-35
1.94867	201
1.95233	1503
1.95600	7218
1.95967	26200
1.96333	74488
1.96700	169125
1.97067	313962
1.97433	491520
1.97800	670887
1.98167	821053
1.98533	918803
1.98900	951170
1.99267	916118
1.99633	823644
2.00000	693911
2.00367	551388
2.00733	417121
2.01100	303766
2.01467	215406
2.01833	150348
2.02200	104312
2.02567	72580
2.02933	51049
2.03300	36548
2.03667	26780
2.04033	20156
2.04400	15611
2.04767	12438
2.05133	10180
2.05500	8535
2.05867	7310
2.06233	6368
2.06600	5627
2.06967	5032
2.07333	4540
2.07700	4127
2.08067	3777
2.08433	3478
2.08800	3221
2.09167	2998
2.09533	2801
2.09900	2629
2.10267	2476
2.10633	2341
2.11000	2220
2.11367	2112
2.11733	2014
2.12100	1926
2.12467	1843
2.12833	1761
2.13200	1678
2.13567	1591
2.13933	1504
2.14300	1425
2.14667	1356
2.15033	1298
2.15400	1249
2.15767	1205
2.16133	1164
2.16500	1124
2.16867	1085
2.17233	1046
2.17600	1012
2.17967	978
2.18333	946
2.18700	915
2.19067	887
2.19433	862
2.19800	840
2.20167	820
2.20533	802
2.20900	788
2.21267	777
2.21633	769
2.22000	758
2.22367	739
2.22733	712
2.23100	682
2.23467	658
2.23833	641
2.24200	630
2.24567	623
2.24933	615
2.25300	603
2.25667	587
2.26033	570
2.26400	559
2.26767	547
2.27133	536
2.27500	525
2.27867	512
2.28233	496
2.28600	481
2.28967	473
2.29333	472
2.29700	472
2.30067	467
2.30433	458
2.30800	448
2.31167	439
2.31533	430
2.31900	419
2.32267	406
2.32633	394
2.33000	384
2.33367	375
2.33733	368
2.34100	364
2.34467	363
2.34833	364
2.35200	366
2.35567	367
2.35933	366
2.36300	365
2.36667	362
2.37033	360
2.37400	355
2.37767	343
2.38133	329
2.38500	314
2.38867	300
2.39233	290
2.39600	286
2.39967	286
2.40333	284
2.40700	281
2.41067	276
2.41433	272
2.41800	268
2.42167	266
2.42533	266
2.42900	265
2.43267	264
2.43633	264
2.44000	265
2.44367	266
2.44733	268
2.45100	271
2.45467	271
2.45833	269
2.46200	267
2.46567	264
2.46933	263
2.47300	267
2.47667	274
2.48033	279
2.48400	281
2.48767	275
2.49133	268
2.49500	260
2.49867	252
2.50233	249
2.50600	246
2.50967	238
2.51333	229
2.51700	224
2.52067	224
2.52433	228
2.52800	231
2.53167	235
2.53533	237
2.53900	236
2.54267	233
2.54633	227
2.55000	220
2.55367	214
2.55733	206
2.56100	197
2.56467	188
2.56833	179
2.57200	173
2.57567	172
2.57933	174
2.58300	179
2.58667	186
2.59033	193
2.59400	199
2.59767	204
2.60133	211
2.60500	215
2.60867	216
2.61233	216
2.61600	212
2.61967	206
2.62333	202
2.62700	197
2.63067	193
2.63433	190
2.63800	186
2.64167	182
2.64533	173
2.64900	166
2.65267	167
2.65633	173
2.66000	175
2.66367	174
2.66733	174
2.67100	176
2.67467	176
2.67833	172
2.68200	167
2.68567	162
2.68933	158
2.69300	153
2.69667	149
2.70033	149
2.70400	155
2.70767	165
2.71133	177
2.71500	187
2.71867	192
2.72233	189
2.72600	182
2.72967	176
2.73333	170
2.73700	165
2.74067	158
2.74433	152
2.74800	146
2.75167	142
2.75533	141
2.75900	142
2.76267	145
2.76633	149
2.77000	150
2.77367	151
2.77733	154
2.78100	157
2.78467	160
2.78833	164
2.79200	166
2.79567	163
2.79933	159
2.80300	158
2.80667	156
2.81033	152
2.81400	149
2.81767	151
2.82133	153
2.82500	158
2.82867	164
2.83233	167
2.83600	162
2.83967	153
2.84333	149
2.84700	146
2.85067	142
2.85433	140
2.85800	143
2.86167	154
2.86533	164
2.86900	169
2.87267	171
2.87633	169
2.88000	166
2.88367	161
2.88733	154
2.89100	153
2.89467	159
2.89833	166
2.90200	175
2.90567	179
2.90933	177
2.91300	171
2.91667	163
2.92033	156
2.92400	149
2.92767	143
2.93133	140
2.93500	141
2.93867	143
2.94233	147
2.94600	149
2.94967	148
2.95333	145
2.95700	140
2.96067	136
2.96433	135
2.96800	138
2.97167	142
2.97533	146
2.97900	150
2.98267	155
2.98633	158
2.99000	162
2.99367	168
2.99733	174
3.00100	178
3.00467	177
3.00833	172
3.01200	164
3.01567	161
3.01933	164
3.02300	169
3.02667	170
3.03033	167
3.03400	162
3.03767	158
3.04133	159
3.04500	162
3.04867	161
3.05233	155
3.05600	148
3.05967	143
3.06333	140
3.06700	137
3.07067	130
3.07433	125
3.07800	125
3.08167	130
3.08533	134
3.08900	141
3.09267	148
3.09633	152
3.10000	151
3.10367	152
3.10733	152
3.11100	145
3.11467	135
3.11833	127
3.12200	122
3.12567	118
3.12933	118
3.13300	121
3.13667	127
3.14033	135
3.14400	144
3.14767	150
3.15133	152
3.15500	150
3.15867	144
3.16233	136
3.16600	131
3.16967	129
3.17333	130
3.17700	135
3.18067	139
3.18433	139
3.18800	136
3.19167	132
3.19533	128
3.19900	125
3.20267	124
3.20633	127
3.21000	134
3.21367	139
3.21733	143
3.22100	145
3.22467	145
3.22833	146
3.23200	154
3.23567	161
3.23933	160
3.24300	150
3.24667	135
3.25033	120
3.25400	108
3.25767	104
3.26133	107
3.26500	112
3.26867	116
3.27233	121
3.27600	126
3.27967	131
3.28333	136
3.28700	136
3.29067	135
3.29433	133
3.29800	132
3.30167	129
3.30533	124
3.30900	118
3.31267	115
3.31633	112
3.32000	109
3.32367	107
3.32733	105
3.33100	106
3.33467	113
3.33833	122
3.34200	127
3.34567	130
3.34933	134
3.35300	140
3.35667	144
3.36033	146
3.36400	145
3.36767	141
3.37133	136
3.37500	131
3.37867	127
3.38233	127
3.38600	126
3.38967	125
3.39333	123
3.39700	121
3.40067	122
3.40433	121
3.40800	116
3.41167	109
3.41533	103
3.41900	101
3.42267	100
3.42633	99
3.43000	96
3.43367	94
3.43733	94
3.44100	93
3.44467	91
3.44833	89
3.45200	89
3.45567	89
3.45933	90
3.46300	92
3.46667	99
3.47033	105
3.47400	111
3.47767	115
3.48133	117
3.48500	120
3.48867	123
3.49233	123
3.49600	117
3.49967	108
3.50333	104
3.50700	103
3.51067	105
3.51433	108
3.51800	109
3.52167	107
3.52533	105
3.52900	107
3.53267	111
3.53633	115
3.54000	115
3.54367	110
3.54733	101
3.55100	94
3.55467	92
3.55833	93
3.56200	97
3.56567	106
3.56933	115
3.57300	120
3.57667	121
3.58033	120
3.58400	118
3.58767	115
3.59133	113
3.59500	110
3.59867	105
3.60233	100
3.60600	93
3.60967	86
3.61333	81
3.61700	81
3.62067	84
3.62433	85
3.62800	81
3.63167	77
3.63533	73
3.63900	71
3.64267	69
3.64633	66
3.65000	64
3.65367	67
3.65733	73
3.66100	80
3.66467	86
3.66833	91
3.67200	92
3.67567	91
3.67933	90
3.68300	91
3.68667	95
3.69033	98
3.69400	95
3.69767	88
3.70133	81
3.70500	78
3.70867	78
3.71233	75
3.71600	72
3.71967	72
3.72333	73
3.72700	73
3.73067	72
3.73433	71
3.73800	69
3.74167	66
3.74533	63
3.74900	62
3.75267	62
3.75633	63
3.76000	64
3.76367	66
3.76733	66
3.77100	63
3.77467	65
3.77833	70
3.78200	76
3.78567	75
3.78933	71
3.79300	64
3.79667	55
3.80033	47
3.80400	43
3.80767	43
3.81133	46
3.81500	49
3.81867	52
3.82233	53
3.82600	52
3.82967	51
3.83333	51
3.83700	53
3.84067	54
3.84433	57
3.84800	61
3.85167	64
3.85533	65
3.85900	65
3.86267	65
3.86633	62
3.87000	58
3.87367	55
3.87733	54
3.88100	52
3.88467	50
3.88833	47
3.89200	46
3.89567	47
3.89933	48
3.90300	49
3.90667	51
3.91033	51
3.91400	50
3.91767	48
3.92133	47
3.92500	49
3.92867	51
3.93233	53
3.93600	55
3.93967	55
3.94333	53
3.94700	51
3.95067	50
3.95433	49
3.95800	50
3.96167	53
3.96533	56
3.96900	61
3.97267	62
3.97633	61
3.98000	58
3.98367	55
3.98733	55
3.99100	56
3.99467	55
3.99833	53

[Chromatogram (Ch2)]
Interval(msec)	220
# of Points	1091
Start Time(min)	0.002
End Time(min)	3.998
R.Time (min)	Intensity
0.00167	-0
0.00533	0
0.00900	0
0.01267	0
0.01633	1
0.02000	1
0.02367	1
0.02733	2
0.03100	2
0.03467	2
0.03833	3
0.04200	3
0.04567	3
0.04933	3
0.05300	3
0.05667	3
0.06033	3
0.06400	3
0.06767	3
0.07133	3
0.07500	3
0.07867	3
0.08233	3
0.08600	2
0.08967	2
0.09333	2
0.09700	2
0.10067	2
0.10433	2
0.10800	2
0.11167	2
0.11533	2
0.11900	2
0.12267	2
0.12633	1
0.13000	1
0.13367	0
0.13733	0
0.14100	-0
0.14467	-0
0.14833	-0
0.15200	-1
0.15567	-1
0.15933	-1
0.16300	-1
0.16667	-1
0.17033	-0
0.17400	-0
0.17767	-0
0.18133	0
0.18500	0
0.18867	0
0.19233	0
0.19600	0
0.19967	0
0.20333	0
0.20700	0
0.21067	0
0.21433	-0
0.21800	-1
0.22167	-1
0.22533	-1
0.22900	-1
0.23267	-1
0.23633	-1
0.24000	-1
0.24367	-1
0.24733	-1
0.25100	-1
0.25467	-1
0.25833	-1
0.26200	-1
0.26567	-1
0.26933	-1
0.27300	-1
0.27667	-1
0.28033	-1
0.28400	-1
0.28767	-0
0.29133	-0
0.29500	0
0.29867	0
0.30233	1
0.30600	1
0.30967	1
0.31333	1
0.31700	1
0.32067	2
0.32433	2
0.32800	2
0.33167	2
0.33533	2
0.33900	2
0.34267	2
0.34633	3
0.35000	2
0.35367	2
0.35733	2
0.36100	2
0.36467	2
0.36833	2
0.37200	2
0.37567	2
0.37933	2
0.38300	2
0.38667	2
0.39033	2
0.39400	2
0.39767	2
0.40133	2
0.40500	2
0.40867	2
0.41233	2
0.41600	2
0.41967	1
0.42333	1
0.42700	1
0.43067	1
0.43433	1
0.43800	0
0.44167	0
0.44533	0
0.44900	0
0.45267	-0
0.45633	-0
0.46000	-0
0.46367	-0
0.46733	0
0.47100	0
0.47467	1
0.47833	1
0.48200	1
0.48567	1
0.48933	0
0.49300	0
0.49667	0
0.50033	0
0.50400	0
0.50767	0
0.51133	0
0.51500	0
0.51867	0
0.52233	0
0.52600	0
0.52967	-0
0.53333	-0
0.53700	-0
0.54067	-1
0.54433	-1
0.54800	-2
0.55167	-2
0.55533	-2
0.55900	-2
0.56267	-3
0.56633	-3
0.57000	-3
0.57367	-3
0.57733	-2
0.58100	-2
0.58467	-2
0.58833	-2
0.59200	-2
0.59567	-2
0.59933	-1
0.60300	-1
0.60667	-1
0.61033	-0
0.61400	-0
0.61767	-0
0.62133	-0
0.62500	-0
0.62867	-0
0.63233	-0
0.63600	-0
0.63967	-0
0.64333	0
0.64700	0
0.65067	1
0.65433	1
0.65800	1
0.66167	1
0.66533	1
0.66900	1
0.67267	0
0.67633	0
0.68000	-0
0.68367	0
0.68733	0
0.69100	0
0.69467	0
0.69833	0
0.70200	0
0.70567	0
0.70933	0
0.71300	-0
0.71667	-1
0.72033	-1
0.72400	-1
0.72767	-1
0.73133	-2
0.73500	-2
0.73867	-2
0.74233	-2
0.74600	-2
0.74967	-2
0.75333	-2
0.75700	-2
0.76067	-2
0.76433	-2
0.76800	-2
0.77167	-2
0.77533	-2
0.77900	-2
0.78267	-2
0.78633	-2
0.79000	-2
0.79367	-2
0.79733	-2
0.80100	-2
0.80467	-2
0.80833	-2
0.81200	-2
0.81567	-2
0.81933	-2
0.82300	-2
0.82667	-2
0.83033	-2
0.83400	-1
0.83767	-1
0.84133	-1
0.84500	-1
0.84867	-1
0.85233	-1
0.85600	-0
0.85967	-0
0.86333	-0
0.86700	-0
0.87067	-1
0.87433	-1
0.87800	-1
0.88167	-1
0.88533	-1
0.88900	-1
0.89267	-1
0.89633	-1
0.90000	-1
0.90367	-0
0.90733	-0
0.91100	0
0.91467	-0
0.91833	-0
0.92200	-0
0.92567	-0
0.92933	0
0.93300	0
0.93667	0
0.94033	0
0.94400	0
0.94767	0
0.95133	0
0.95500	0
0.95867	0
0.96233	0
0.96600	-0
0.96967	-0
0.97333	-0
0.97700	-0
0.98067	-0
0.98433	-0
0.98800	-0
0.99167	-1
0.99533	-1
0.99900	-1
1.00267	-1
1.00633	-1
1.01000	-1
1.01367	-1
1.01733	-2
1.02100	-2
1.02467	-2
1.02833	-2
1.03200	-2
1.03567	-2
1.03933	-2
1.04300	-2
1.04667	-2
1.05033	-2
1.05400	-2
1.05767	-2
1.06133	-2
1.06500	-3
1.06867	-3
1.07233	-3
1.07600	-3
1.07967	-3
1.08333	-3
1.08700	-3
1.09067	-3
1.09433	-3
1.09800	-4
1.10167	-4
1.10533	-4
1.10900	-4
1.11267	-4
1.11633	-3
1.12000	-3
1.12367	-3
1.12733	-3
1.13100	-3
1.13467	-3
1.13833	-2
1.14200	-2
1.14567	-2
1.14933	-2
1.15300	-2
1.15667	-2
1.16033	-1
1.16400	-1
1.16767	-1
1.17133	-1
1.17500	-1
1.17867	-2
1.18233	-2
1.18600	-1
1.18967	-1
1.19333	-1
1.19700	-1
1.20067	-1
1.20433	-1
1.20800	-1
1.21167	-0
1.21533	-0
1.21900	-0
1.22267	-1
1.22633	-1
1.23000	-1
1.23367	-1
1.23733	-2
1.24100	-2
1.24467	-2
1.24833	-2
1.25200	-2
1.25567	-2
1.25933	-2
1.26300	-2
1.26667	-3
1.27033	-3
1.27400	-3
1.27767	-3
1.28133	-3
1.28500	-2
1.28867	-2
1.29233	-2
1.29600	-2
1.29967	-2
1.30333	-2
1.30700	-2
1.31067	-2
1.31433	-3
1.31800	-3
1.32167	-3
1.32533	-3
1.32900	-4
1.33267	-4
1.33633	-4
1.34000	-4
1.34367	-4
1.34733	-4
1.35100	-4
1.35467	-4
1.35833	-4
1.36200	-4
1.36567	-3
1.36933	-3
1.37300	-3
1.37667	-2
1.38033	-2
1.38400	-2
1.38767	-2
1.39133	-2
1.39500	-2
1.39867	-2
1.40233	-3
1.40600	-3
1.40967	-3
1.41333	-3
1.41700	-3
1.42067	-3
1.42433	-3
1.42800	-3
1.43167	-4
1.43533	-4
1.43900	-4
1.44267	-3
1.44633	-3
1.45000	-3
1.45367	-2
1.45733	-2
1.46100	-2
1.46467	-2
1.46833	-1
1.47200	-1
1.47567	-1
1.47933	-1
1.48300	-1
1.48667	-1
1.49033	-1
1.49400	-1
1.49767	-1
1.50133	-1
1.50500	-1
1.50867	-0
1.51233	-0
1.51600	-0
1.51967	-0
1.52333	-0
1.52700	-1
1.53067	-0
1.53433	-0
1.53800	-0
1.54167	-0
1.54533	-0
1.54900	-0
1.55267	-1
1.55633	-1
1.56000	-1
1.56367	-2
1.56733	-2
1.57100	-2
1.57467	-2
1.57833	-3
1.58200	-3
1.58567	-2
1.58933	-2
1.59300	-3
1.59667	-3
1.60033	-4
1.60400	-5
1.60767	-7
1.61133	-9
1.61500	-11
1.61867	-13
1.62233	-15
1.62600	-18
1.62967	-21
1.63333	-24
1.63700	-27
1.64067	-31
1.64433	-34
1.64800	-38
1.65167	-41
1.65533	-45
1.65900	-48
1.66267	-52
1.66633	-56
1.67000	-60
1.67367	-64
1.67733	-69
1.68100	-74
1.68467	-78
1.68833	-82
1.69200	-86
1.69567	-89
1.69933	-92
1.70300	-94
1.70667	-96
1.71033	-97
1.71400	-98
1.71767	-99
1.72133	-100
1.72500	-101
1.72867	-101
1.73233	-101
1.73600	-101
1.73967	-101
1.74333	-101
1.74700	-100
1.75067	-100
1.75433	-100
1.75800	-101
1.76167	-101
1.76533	-102
1.76900	-103
1.77267	-104
1.77633	-104
1.78000	-105
1.78367	-105
1.78733	-105
1.79100	-105
1.79467	-105
1.79833	-105
1.80200	-104
1.80567	-104
1.80933	-104
1.81300	-103
1.81667	-103
1.82033	-103
1.82400	-103
1.82767	-102
1.83133	-102
1.83500	-102
1.83867	-102
1.84233	-102
1.84600	-103
1.84967	-103
1.85333	-104
1.85700	-104
1.86067	-105
1.86433	-105
1.86800	-105
1.87167	-104
1.87533	-104
1.87900	-104
1.88267	-105
1.88633	-105
1.89000	-105
1.89367	-105
1.89733	-105
1.90100	-105
1.90467	-105
1.90833	-105
1.91200	-105
1.91567	-105
1.91933	-106
1.92300	-105
1.92667	-105
1.93033	-104
1.93400	-103
1.93767	-103
1.94133	-102
1.94500	-101
1.94867	-100
1.95233	-100
1.95600	-99
1.95967	-99
1.96333	-99
1.96700	-99
1.97067	-99
1.97433	-99
1.97800	-99
1.98167	-99
1.98533	-99
1.98900	-99
1.99267	-98
1.99633	-98
2.00000	-98
2.00367	-98
2.00733	-97
2.01100	-97
2.01467	-97
2.01833	-97
2.02200	-96
2.02567	-96
2.02933	-96
2.03300	-96
2.03667	-95
2.04033	-95
2.04400	-95
2.04767	-95
2.05133	-94
2.05500	-94
2.05867	-94
2.06233	-94
2.06600	-94
2.06967	-94
2.07333	-93
2.07700	-93
2.08067	-93
2.08433	-92
2.08800	-92
2.09167	-91
2.09533	-91
2.09900	-90
2.10267	-89
2.10633	-89
2.11000	-88
2.11367	-87
2.11733	-87
2.12100	-87
2.12467	-87
2.12833	-87
2.13200	-87
2.13567	-87
2.13933	-87
2.14300	-87
2.14667	-86
2.15033	-86
2.15400	-86
2.15767	-86
2.16133	-86
2.16500	-86
2.16867	-85
2.17233	-85
2.17600	-85
2.17967	-84
2.18333	-84
2.18700	-83
2.19067	-83
2.19433	-83
2.19800	-82
2.20167	-82
2.20533	-82
2.20900	-82
2.21267	-82
2.21633	-81
2.22000	-81
2.22367	-80
2.22733	-80
2.23100	-80
2.23467	-80
2.23833	-80
2.24200	-80
2.24567	-79
2.24933	-79
2.25300	-78
2.25667	-78
2.26033	-77
2.26400	-77
2.26767	-77
2.27133	-77
2.27500	-76
2.27867	-76
2.28233	-76
2.28600	-75
2.28967	-75
2.29333	-75
2.29700	-75
2.30067	-74
2.30433	-74
2.30800	-73
2.31167	-72
2.31533	-72
2.31900	-71
2.32267	-71
2.32633	-71
2.33000	-71
2.33367	-72
2.33733	-73
2.34100	-74
2.34467	-74
2.34833	-73
2.35200	-72
2.35567	-71
2.35933	-69
2.36300	-68
2.36667	-66
2.37033	-63
2.37400	-60
2.37767	-57
2.38133	-53
2.38500	-50
2.38867	-46
2.39233	-41
2.39600	-37
2.39967	-32
2.40333	-28
2.40700	-24
2.41067	-20
2.41433	-17
2.41800	-14
2.42167	-11
2.42533	-9
2.42900	-7
2.43267	-5
2.43633	-3
2.44000	-2
2.44367	-0
2.44733	2
2.45100	3
2.45467	4
2.45833	5
2.46200	6
2.46567	7
2.46933	8
2.47300	9
2.47667	10
2.48033	11
2.48400	12
2.48767	13
2.49133	14
2.49500	14
2.49867	15
2.50233	15
2.50600	14
2.50967	14
2.51333	14
2.51700	14
2.52067	13
2.52433	12
2.52800	12
2.53167	11
2.53533	11
2.53900	10
2.54267	10
2.54633	10
2.55000	10
2.55367	11
2.55733	11
2.56100	12
2.56467	12
2.56833	13
2.57200	14
2.57567	14
2.57933	14
2.58300	14
2.58667	15
2.59033	15
2.59400	15
2.59767	16
2.60133	17
2.60500	17
2.60867	18
2.61233	18
2.61600	19
2.61967	19
2.62333	19
2.62700	20
2.63067	20
2.63433	20
2.63800	19
2.64167	19
2.64533	19
2.64900	19
2.65267	19
2.65633	19
2.66000	20
2.66367	20
2.66733	21
2.67100	21
2.67467	22
2.67833	22
2.68200	22
2.68567	22
2.68933	22
2.69300	22
2.69667	22
2.70033	23
2.70400	23
2.70767	23
2.71133	24
2.71500	24
2.71867	25
2.72233	25
2.72600	25
2.72967	25
2.73333	25
2.73700	25
2.74067	25
2.74433	25
2.74800	25
2.75167	25
2.75533	25
2.75900	26
2.76267	26
2.76633	27
2.77000	27
2.77367	27
2.77733	28
2.78100	28
2.78467	28
2.78833	28
2.79200	28
2.79567	28
2.79933	28
2.80300	27
2.80667	27
2.81033	27
2.81400	27
2.81767	27
2.82133	27
2.82500	27
2.82867	27
2.83233	27
2.83600	27
2.83967	27
2.84333	27
2.84700	27
2.85067	27
2.85433	27
2.85800	26
2.86167	24
2.86533	21
2.86900	15
2.87267	5
2.87633	-9
2.88000	-27
2.88367	-51
2.88733	-81
2.89100	-118
2.89467	-161
2.89833	-210
2.90200	-265
2.90567	-327
2.90933	-393
2.91300	-466
2.91667	-542
2.92033	-623
2.92400	-708
2.92767	-796
2.93133	-887
2.93500	-980
2.93867	-1075
2.94233	-1172
2.94600	-1270
2.94967	-1369
2.95333	-1458
2.95700	-1525
2.96067	-1557
2.96433	-1552
2.96800	-1511
2.97167	-1441
2.97533	-1350
2.97900	-1245
2.98267	-1133
2.98633	-1020
2.99000	-910
2.99367	-805
2.99733	-708
3.00100	-619
3.00467	-538
3.00833	-466
3.01200	-402
3.01567	-346
3.01933	-297
3.02300	-255
3.02667	-218
3.03033	-185
3.03400	-158
3.03767	-134
3.04133	-113
3.04500	-96
3.04867	-81
3.05233	-68
3.05600	-57
3.05967	-47
3.06333	-39
3.06700	-32
3.07067	-25
3.07433	-20
3.07800	-15
3.08167	-12
3.08533	-8
3.08900	-6
3.09267	-3
3.09633	-1
3.10000	1
3.10367	2
3.10733	4
3.11100	5
3.11467	6
3.11833	7
3.12200	8
3.12567	9
3.12933	10
3.13300	11
3.13667	11
3.14033	12
3.14400	12
3.14767	12
3.15133	12
3.15500	13
3.15867	13
3.16233	13
3.16600	13
3.16967	14
3.17333	14
3.17700	15
3.18067	15
3.18433	16
3.18800	16
3.19167	16
3.19533	17
3.19900	17
3.20267	17
3.20633	18
3.21000	18
3.21367	18
3.21733	19
3.22100	19
3.22467	19
3.22833	19
3.23200	20
3.23567	20
3.23933	20
3.24300	20
3.24667	21
3.25033	21
3.25400	21
3.25767	21
3.26133	21
3.26500	22
3.26867	22
3.27233	22
3.27600	23
3.27967	23
3.28333	23
3.28700	23
3.29067	24
3.29433	24
3.29800	24
3.30167	23
3.30533	23
3.30900	23
3.31267	23
3.31633	23
3.32000	23
3.32367	23
3.32733	23
3.33100	23
3.33467	24
3.33833	24
3.34200	25
3.34567	25
3.34933	26
3.35300	26
3.35667	26
3.36033	26
3.36400	26
3.36767	27
3.37133	27
3.37500	27
3.37867	27
3.38233	28
3.38600	28
3.38967	28
3.39333	29
3.39700	29
3.40067	29
3.40433	30
3.40800	30
3.41167	30
3.41533	29
3.41900	29
3.42267	29
3.42633	29
3.43000	29
3.43367	28
3.43733	28
3.44100	28
3.44467	28
3.44833	28
3.45200	28
3.45567	28
3.45933	28
3.46300	28
3.46667	27
3.47033	27
3.47400	27
3.47767	27
3.48133	27
3.48500	27
3.48867	27
3.49233	27
3.49600	27
3.49967	27
3.50333	26
3.50700	26
3.51067	26
3.51433	26
3.51800	26
3.52167	26
3.52533	26
3.52900	26
3.53267	26
3.53633	27
3.54000	27
3.54367	27
3.54733	27
3.55100	27
3.55467	27
3.55833	27
3.56200	27
3.56567	27
3.56933	26
3.57300	26
3.57667	27
3.58033	27
3.58400	27
3.58767	28
3.59133	28
3.59500	28
3.59867	28
3.60233	28
3.60600	28
3.60967	28
3.61333	28
3.61700	27
3.62067	27
3.62433	27
3.62800	27
3.63167	27
3.63533	27
3.63900	27
3.64267	27
3.64633	27
3.65000	28
3.65367	28
3.65733	28
3.66100	28
3.66467	28
3.66833	28
3.67200	28
3.67567	27
3.67933	27
3.68300	27
3.68667	26
3.69033	26
3.69400	26
3.69767	26
3.70133	26
3.70500	26
3.70867	26
3.71233	26
3.71600	25
3.71967	25
3.72333	25
3.72700	25
3.73067	25
3.73433	25
3.73800	26
3.74167	26
3.74533	26
3.74900	26
3.75267	26
3.75633	26
3.76000	26
3.76367	27
3.76733	27
3.77100	27
3.77467	27
3.77833	27
3.78200	27
3.78567	27
3.78933	27
3.79300	27
3.79667	27
3.80033	27
3.80400	27
3.80767	27
3.81133	27
3.81500	27
3.81867	27
3.82233	27
3.82600	27
3.82967	27
3.83333	27
3.83700	26
3.84067	26
3.84433	26
3.84800	26
3.85167	26
3.85533	26
3.85900	26
3.86267	26
3.86633	26
3.87000	26
3.87367	26
3.87733	26
3.88100	25
3.88467	25
3.88833	26
3.89200	25
3.89567	25
3.89933	25
3.90300	25
3.90667	25
3.91033	25
3.91400	25
3.91767	25
3.92133	25
3.92500	25
3.92867	25
3.93233	25
3.93600	26
3.93967	26
3.94333	26
3.94700	26
3.95067	26
3.95433	27
3.95800	27
3.96167	27
3.96533	28
3.96900	28
3.97267	28
3.97633	28
3.98000	28
3.98367	28
3.98733	28
3.99100	28
3.99467	28
3.99833	28

[Chromatogram (Ch3)]
Interval(msec)	220
# of Points	1091
Start Time(min)	0.002
End Time(min)	3.998
R.Time (min)	Intensity
0.00167	-0
0.00533	-1
0.00900	-1
0.01267	-2
0.01633	-3
0.02000	-3
0.02367	-2
0.02733	-3
0.03100	-4
0.03467	-4
0.03833	-4
0.04200	-3
0.04567	-4
0.04933	-5
0.05300	-5
0.05667	-6
0.06033	-7
0.06400	-7
0.06767	-5
0.07133	-4
0.07500	-4
0.07867	-4
0.08233	-4
0.08600	-2
0.08967	-2
0.09333	-4
0.09700	-6
0.10067	-7
0.10433	-7
0.10800	-6
0.11167	-3
0.11533	1
0.11900	2
0.12267	2
0.12633	-1
0.13000	-6
0.13367	-7
0.13733	-6
0.14100	-3
0.14467	-2
0.14833	-0
0.15200	-0
0.15567	0
0.15933	-2
0.16300	-3
0.16667	-5
0.17033	-8
0.17400	-6
0.17767	-4
0.18133	-2
0.18500	-0
0.18867	1
0.19233	3
0.19600	3
0.19967	2
0.20333	2
0.20700	2
0.21067	2
0.21433	1
0.21800	-2
0.22167	-4
0.22533	-5
0.22900	-5
0.23267	-5
0.23633	-7
0.24000	-7
0.24367	-7
0.24733	-5
0.25100	-2
0.25467	-4
0.25833	-4
0.26200	-3
0.26567	-2
0.26933	-2
0.27300	-3
0.27667	-4
0.28033	-4
0.28400	-3
0.28767	-5
0.29133	-6
0.29500	-5
0.29867	-6
0.30233	-6
0.30600	-5
0.30967	-3
0.31333	-2
0.31700	-2
0.32067	1
0.32433	2
0.32800	1
0.33167	1
0.33533	0
0.33900	-2
0.34267	-3
0.34633	-3
0.35000	-3
0.35367	-3
0.35733	-3
0.36100	-3
0.36467	-4
0.36833	-2
0.37200	-0
0.37567	-0
0.37933	1
0.38300	3
0.38667	2
0.39033	2
0.39400	1
0.39767	-1
0.40133	-2
0.40500	-3
0.40867	-4
0.41233	-3
0.41600	-3
0.41967	-2
0.42333	-1
0.42700	-3
0.43067	-4
0.43433	-3
0.43800	-1
0.44167	1
0.44533	0
0.44900	-1
0.45267	-4
0.45633	-5
0.46000	-3
0.46367	-3
0.46733	-3
0.47100	-2
0.47467	1
0.47833	2
0.48200	1
0.48567	-1
0.48933	-2
0.49300	-2
0.49667	-1
0.50033	-2
0.50400	-6
0.50767	-6
0.51133	-6
0.51500	-6
0.51867	-6
0.52233	-5
0.52600	-1
0.52967	0
0.53333	2
0.53700	1
0.54067	-0
0.54433	0
0.54800	0
0.55167	1
0.55533	2
0.55900	3
0.56267	3
0.56633	2
0.57000	3
0.57367	2
0.57733	1
0.58100	-1
0.58467	-3
0.58833	-4
0.59200	-2
0.59567	-2
0.59933	-3
0.60300	-4
0.60667	-4
0.61033	-2
0.61400	-1
0.61767	-3
0.62133	-3
0.62500	-3
0.62867	-2
0.63233	-1
0.63600	-0
0.63967	1
0.64333	2
0.64700	1
0.65067	2
0.65433	3
0.65800	3
0.66167	5
0.66533	6
0.66900	5
0.67267	5
0.67633	4
0.68000	6
0.68367	6
0.68733	5
0.69100	3
0.69467	1
0.69833	1
0.70200	3
0.70567	5
0.70933	5
0.71300	5
0.71667	5
0.72033	5
0.72400	7
0.72767	9
0.73133	9
0.73500	7
0.73867	5
0.74233	4
0.74600	4
0.74967	4
0.75333	4
0.75700	4
0.76067	3
0.76433	1
0.76800	1
0.77167	2
0.77533	3
0.77900	5
0.78267	7
0.78633	9
0.79000	9
0.79367	10
0.79733	12
0.80100	10
0.80467	7
0.80833	5
0.81200	3
0.81567	2
0.81933	2
0.82300	4
0.82667	4
0.83033	4
0.83400	4
0.83767	4
0.84133	3
0.84500	4
0.84867	4
0.85233	4
0.85600	5
0.85967	7
0.86333	8
0.86700	8
0.87067	8
0.87433	9
0.87800	8
0.88167	8
0.88533	8
0.88900	7
0.89267	7
0.89633	7
0.90000	7
0.90367	9
0.90733	10
0.91100	11
0.91467	11
0.91833	8
0.92200	8
0.92567	10
0.92933	11
0.93300	12
0.93667	12
0.94033	11
0.94400	12
0.94767	12
0.95133	11
0.95500	11
0.95867	14
0.96233	14
0.96600	12
0.96967	10
0.97333	9
0.97700	8
0.98067	8
0.98433	8
0.98800	8
0.99167	7
0.99533	6
0.99900	6
1.00267	6
1.00633	8
1.01000	11
1.01367	11
1.01733	10
1.02100	8
1.02467	8
1.02833	8
1.03200	8
1.03567	6
1.03933	5
1.04300	5
1.04667	6
1.05033	9
1.05400	12
1.05767	12
1.06133	12
1.06500	11
1.06867	10
1.07233	8
1.07600	7
1.07967	8
1.08333	10
1.08700	12
1.09067	13
1.09433	12
1.09800	13
1.10167	11
1.10533	10
1.10900	10
1.11267	10
1.11633	10
1.12000	11
1.12367	11
1.12733	12
1.13100	11
1.13467	11
1.13833	9
1.14200	7
1.14567	6
1.14933	4
1.15300	4
1.15667	5
1.16033	5
1.16400	5
1.16767	6
1.17133	4
1.17500	1
1.17867	-0
1.18233	2
1.18600	5
1.18967	7
1.19333	9
1.19700	9
1.20067	8
1.20433	6
1.20800	6
1.21167	5
1.21533	5
1.21900	6
1.22267	4
1.22633	3
1.23000	4
1.23367	5
1.23733	7
1.24100	9
1.24467	11
1.24833	11
1.25200	10
1.25567	9
1.25933	10
1.26300	10
1.26667	10
1.27033	11
1.27400	12
1.27767	12
1.28133	11
1.28500	8
1.28867	6
1.29233	6
1.29600	6
1.29967	8
1.30333	9
1.30700	11
1.31067	10
1.31433	8
1.31800	7
1.32167	6
1.32533	6
1.32900	6
1.33267	7
1.33633	9
1.34000	11
1.34367	11
1.34733	11
1.35100	10
1.35467	10
1.35833	9
1.36200	8
1.36567	7
1.36933	8
1.37300	9
1.37667	11
1.38033	11
1.38400	9
1.38767	10
1.39133	11
1.39500	9
1.39867	7
1.40233	7
1.40600	9
1.40967	10
1.41333	12
1.41700	11
1.42067	11
1.42433	10
1.42800	10
1.43167	9
1.43533	9
1.43900	11
1.44267	14
1.44633	14
1.45000	14
1.45367	12
1.45733	9
1.46100	9
1.46467	11
1.46833	12
1.47200	12
1.47567	10
1.47933	10
1.48300	11
1.48667	13
1.49033	14
1.49400	14
1.49767	12
1.50133	9
1.50500	9
1.50867	11
1.51233	13
1.51600	13
1.51967	11
1.52333	10
1.52700	8
1.53067	6
1.53433	6
1.53800	7
1.54167	8
1.54533	9
1.54900	9
1.55267	10
1.55633	10
1.56000	9
1.56367	8
1.56733	9
1.57100	10
1.57467	11
1.57833	12
1.58200	14
1.58567	15
1.58933	14
1.59300	13
1.59667	13
1.60033	13
1.60400	12
1.60767	10
1.61133	10
1.61500	9
1.61867	9
1.62233	11
1.62600	12
1.62967	12
1.63333	13
1.63700	14
1.64067	16
1.64433	19
1.64800	21
1.65167	21
1.65533	21
1.65900	23
1.66267	23
1.66633	22
1.67000	21
1.67367	23
1.67733	26
1.68100	27
1.68467	30
1.68833	31
1.69200	30
1.69567	28
1.69933	26
1.70300	25
1.70667	27
1.71033	28
1.71400	28
1.71767	26
1.72133	27
1.72500	28
1.72867	30
1.73233	33
1.73600	34
1.73967	33
1.74333	32
1.74700	30
1.75067	31
1.75433	34
1.75800	37
1.76167	35
1.76533	34
1.76900	34
1.77267	34
1.77633	34
1.78000	36
1.78367	36
1.78733	37
1.79100	39
1.79467	39
1.79833	39
1.80200	38
1.80567	37
1.80933	38
1.81300	39
1.81667	41
1.82033	44
1.82400	47
1.82767	47
1.83133	44
1.83500	43
1.83867	45
1.84233	49
1.84600	50
1.84967	50
1.85333	52
1.85700	55
1.86067	59
1.86433	62
1.86800	63
1.87167	62
1.87533	61
1.87900	60
1.88267	58
1.88633	58
1.89000	61
1.89367	64
1.89733	66
1.90100	68
1.90467	69
1.90833	70
1.91200	73
1.91567	74
1.91933	74
1.92300	73
1.92667	75
1.93033	76
1.93400	77
1.93767	77
1.94133	79
1.94500	79
1.94867	80
1.95233	82
1.95600	83
1.95967	85
1.96333	87
1.96700	89
1.97067	91
1.97433	92
1.97800	91
1.98167	91
1.98533	90
1.98900	88
1.99267	89
1.99633	90
2.00000	89
2.00367	89
2.00733	90
2.01100	90
2.01467	91
2.01833	93
2.02200	95
2.02567	97
2.02933	100
2.03300	102
2.03667	101
2.04033	100
2.04400	100
2.04767	101
2.05133	103
2.05500	103
2.05867	102
2.06233	102
2.06600	102
2.06967	104
2.07333	107
2.07700	110
2.08067	111
2.08433	110
2.08800	110
2.09167	112
2.09533	116
2.09900	118
2.10267	119
2.10633	119
2.11000	118
2.11367	119
2.11733	118
2.12100	116
2.12467	114
2.12833	114
2.13200	116
2.13567	119
2.13933	122
2.14300	123
2.14667	124
2.15033	124
2.15400	124
2.15767	125
2.16133	126
2.16500	127
2.16867	128
2.17233	130
2.17600	131
2.17967	131
2.18333	134
2.18700	135
2.19067	137
2.19433	139
2.19800	138
2.20167	136
2.20533	136
2.20900	138
2.21267	140
2.21633	141
2.22000	141
2.22367	143
2.22733	144
2.23100	145
2.23467	147
2.23833	147
2.24200	147
2.24567	146
2.24933	147
2.25300	149
2.25667	151
2.26033	151
2.26400	152
2.26767	154
2.27133	155
2.27500	156
2.27867	158
2.28233	160
2.28600	158
2.28967	155
2.29333	155
2.29700	156
2.30067	156
2.30433	157
2.30800	160
2.31167	160
2.31533	160
2.31900	161
2.32267	160
2.32633	161
2.33000	165
2.33367	166
2.33733	165
2.34100	163
2.34467	165
2.34833	166
2.35200	167
2.35567	167
2.35933	169
2.36300	171
2.36667	170
2.37033	169
2.37400	170
2.37767	170
2.38133	168
2.38500	167
2.38867	167
2.39233	169
2.39600	170
2.39967	171
2.40333	172
2.40700	175
2.41067	177
2.41433	178
2.41800	180
2.42167	179
2.42533	179
2.42900	180
2.43267	181
2.43633	182
2.44000	188
2.44367	226
2.44733	302
2.45100	379
2.45467	427
2.45833	442
2.46200	446
2.46567	443
2.46933	427
2.47300	402
2.47667	369
2.48033	333
2.48400	304
2.48767	285
2.49133	278
2.49500	276
2.49867	279
2.50233	284
2.50600	285
2.50967	276
2.51333	259
2.51700	239
2.52067	219
2.52433	202
2.52800	187
2.53167	173
2.53533	162
2.53900	156
2.54267	152
2.54633	150
2.55000	150
2.55367	152
2.55733	156
2.56100	162
2.56467	171
2.56833	181
2.57200	192
2.57567	204
2.57933	214
2.58300	221
2.58667	223
2.59033	222
2.59400	217
2.59767	210
2.60133	202
2.60500	193
2.60867	183
2.61233	172
2.61600	162
2.61967	152
2.62333	142
2.62700	130
2.63067	116
2.63433	108
2.63800	100
2.64167	96
2.64533	91
2.64900	86
2.65267	82
2.65633	81
2.66000	79
2.66367	80
2.66733	82
2.67100	83
2.67467	83
2.67833	82
2.68200	84
2.68567	87
2.68933	91
2.69300	96
2.69667	100
2.70033	103
2.70400	107
2.70767	113
2.71133	118
2.71500	123
2.71867	128
2.72233	135
2.72600	140
2.72967	147
2.73333	153
2.73700	157
2.74067	162
2.74433	166
2.74800	172
2.75167	177
2.75533	180
2.75900	183
2.76267	186
2.76633	188
2.77000	188
2.77367	186
2.77733	181
2.78100	180
2.78467	179
2.78833	177
2.79200	174
2.79567	173
2.79933	170
2.80300	167
2.80667	166
2.81033	164
2.81400	160
2.81767	157
2.82133	155
2.82500	154
2.82867	157
2.83233	171
2.83600	207
2.83967	297
2.84333	487
2.84700	832
2.85067	1393
2.85433	2217
2.85800	3322
2.86167	4685
2.86533	6233
2.86900	7866
2.87267	9464
2.87633	10899
2.88000	12053
2.88367	12854
2.88733	13270
2.89100	13311
2.89467	13017
2.89833	12458
2.90200	11708
2.90567	10842
2.90933	9917
2.91300	8982
2.91667	8068
2.92033	7202
2.92400	6399
2.92767	5665
2.93133	5003
2.93500	4406
2.93867	3874
2.94233	3402
2.94600	2984
2.94967	2615
2.95333	2292
2.95700	2012
2.96067	1769
2.96433	1556
2.96800	1368
2.97167	1204
2.97533	1066
2.97900	955
2.98267	867
2.98633	797
2.99000	743
2.99367	698
2.99733	661
3.00100	633
3.00467	616
3.00833	609
3.01200	609
3.01567	612
3.01933	614
3.02300	620
3.02667	626
3.03033	634
3.03400	639
3.03767	643
3.04133	647
3.04500	649
3.04867	651
3.05233	652
3.05600	653
3.05967	655
3.06333	658
3.06700	661
3.07067	664
3.07433	668
3.07800	673
3.08167	675
3.08533	676
3.08900	677
3.09267	678
3.09633	681
3.10000	685
3.10367	687
3.10733	688
3.11100	687
3.11467	687
3.11833	688
3.12200	689
3.12567	688
3.12933	686
3.13300	684
3.13667	683
3.14033	681
3.14400	680
3.14767	676
3.15133	673
3.15500	669
3.15867	666
3.16233	665
3.16600	662
3.16967	660
3.17333	654
3.17700	648
3.18067	646
3.18433	644
3.18800	641
3.19167	638
3.19533	635
3.19900	630
3.20267	626
3.20633	621
3.21000	618
3.21367	619
3.21733	620
3.22100	619
3.22467	617
3.22833	614
3.23200	610
3.23567	606
3.23933	602
3.24300	601
3.24667	599
3.25033	596
3.25400	592
3.25767	589
3.26133	587
3.26500	584
3.26867	580
3.27233	576
3.27600	574
3.27967	574
3.28333	574
3.28700	573
3.29067	573
3.29433	571
3.29800	569
3.30167	568
3.30533	568
3.30900	568
3.31267	565
3.31633	561
3.32000	559
3.32367	561
3.32733	563
3.33100	562
3.33467	559
3.33833	556
3.34200	553
3.34567	551
3.34933	548
3.35300	545
3.35667	544
3.36033	540
3.36400	536
3.36767	533
3.37133	529
3.37500	524
3.37867	521
3.38233	519
3.38600	516
3.38967	515
3.39333	514
3.39700	514
3.40067	514
3.40433	514
3.40800	510
3.41167	507
3.41533	505
3.41900	502
3.42267	499
3.42633	497
3.43000	496
3.43367	494
3.43733	490
3.44100	487
3.44467	487
3.44833	485
3.45200	483
3.45567	483
3.45933	483
3.46300	481
3.46667	480
3.47033	480
3.47400	480
3.47767	481
3.48133	483
3.48500	482
3.48867	480
3.49233	479
3.49600	477
3.49967	476
3.50333	476
3.50700	476
3.51067	474
3.51433	471
3.51800	470
3.52167	468
3.52533	467
3.52900	466
3.53267	464
3.53633	463
3.54000	462
3.54367	461
3.54733	460
3.55100	458
3.55467	456
3.55833	454
3.56200	453
3.56567	449
3.56933	446
3.57300	446
3.57667	446
3.58033	448
3.58400	447
3.58767	445
3.59133	443
3.59500	444
3.59867	446
3.60233	446
3.60600	446
3.60967	445
3.61333	442
3.61700	440
3.62067	438
3.62433	438
3.62800	438
3.63167	437
3.63533	437
3.63900	438
3.64267	437
3.64633	435
3.65000	431
3.65367	428
3.65733	426
3.66100	424
3.66467	423
3.66833	425
3.67200	426
3.67567	427
3.67933	428
3.68300	428
3.68667	427
3.69033	427
3.69400	426
3.69767	424
3.70133	422
3.70500	420
3.70867	420
3.71233	422
3.71600	423
3.71967	424
3.72333	425
3.72700	424
3.73067	424
3.73433	422
3.73800	420
3.74167	420
3.74533	417
3.74900	413
3.75267	409
3.75633	407
3.76000	409
3.76367	410
3.76733	407
3.77100	405
3.77467	404
3.77833	404
3.78200	404
3.78567	406
3.78933	408
3.79300	408
3.79667	408
3.80033	405
3.80400	403
3.80767	400
3.81133	397
3.81500	395
3.81867	393
3.82233	391
3.82600	389
3.82967	385
3.83333	383
3.83700	383
3.84067	382
3.84433	381
3.84800	382
3.85167	383
3.85533	384
3.85900	385
3.86267	385
3.86633	385
3.87000	383
3.87367	381
3.87733	377
3.88100	373
3.88467	373
3.88833	372
3.89200	374
3.89567	375
3.89933	376
3.90300	375
3.90667	372
3.91033	370
3.91400	369
3.91767	368
3.92133	368
3.92500	366
3.92867	365
3.93233	363
3.93600	362
3.93967	360
3.94333	360
3.94700	359
3.95067	358
3.95433	356
3.95800	353
3.96167	350
3.96533	350
3.96900	351
3.97267	353
3.97633	355
3.98000	354
3.98367	353
3.98733	352
3.99100	352
3.99467	351
3.99833	350

[Status Trace (Column Oven Temperature)]
Interval(msec)	1000
# of Points	240
Start Time(min)	0.003
End Time(min)	3.986
Intensity Units	
Intensity Multiplier	1
R.Time (min)	Intensity
0.00253	35.06
0.01920	35.05
0.03587	35.04
0.05253	35.03
0.06920	35.04
0.08587	35.04
0.10253	35.03
0.11920	35.03
0.13587	35.03
0.15253	35.04
0.16920	35.04
0.18587	35.03
0.20253	35.04
0.21920	35.05
0.23587	35.05
0.25253	35.04
0.26920	35.04
0.28587	35.05
0.30253	35.04
0.31920	35.04
0.33587	35.03
0.35253	35.02
0.36920	35.01
0.38587	35.01
0.40253	35.00
0.41920	35.00
0.43587	35.00
0.45253	35.00
0.46920	35.00
0.48587	35.01
0.50253	35.00
0.51920	35.00
0.53587	35.01
0.55253	35.03
0.56920	35.03
0.58587	35.03
0.60253	35.02
0.61920	35.01
0.63587	35.01
0.65253	35.00
0.66920	35.01
0.68587	35.00
0.70253	35.00
0.71920	35.00
0.73587	35.01
0.75253	35.00
0.76920	35.01
0.78587	35.01
0.80253	35.02
0.81920	35.02
0.83587	35.01
0.85253	35.02
0.86920	35.02
0.88587	35.03
0.90253	35.03
0.91920	35.03
0.93587	35.02
0.95253	35.01
0.96920	35.00
0.98587	34.99
1.00253	34.99
1.01920	34.99
1.03587	34.99
1.05253	35.00
1.06920	35.00
1.08587	35.01
1.10253	35.02
1.11920	35.02
1.13587	35.02
1.15253	35.01
1.16920	35.00
1.18587	35.00
1.20253	34.99
1.21920	34.99
1.23587	34.99
1.25253	35.00
1.26920	35.00
1.28587	35.00
1.30253	34.99
1.31920	35.01
1.33587	35.01
1.35253	35.01
1.36920	35.00
1.38587	35.01
1.40253	35.01
1.41920	35.01
1.43587	35.01
1.45253	35.01
1.46920	35.00
1.48587	35.00
1.50253	34.99
1.51920	34.98
1.53587	34.97
1.55253	34.97
1.56920	34.98
1.58587	34.98
1.60253	35.03
1.61920	35.13
1.63587	35.30
1.65253	35.52
1.66920	35.82
1.68587	36.19
1.70253	36.55
1.71920	36.89
1.73587	37.22
1.75253	37.54
1.76920	37.88
1.78587	38.22
1.80253	38.55
1.81920	38.86
1.83587	39.18
1.85253	39.52
1.86920	39.83
1.88587	40.16
1.90253	40.50
1.91920	40.84
1.93587	41.16
1.95253	41.47
1.96920	41.79
1.98587	42.12
2.00253	42.45
2.01920	42.77
2.03587	43.10
2.05253	43.43
2.06920	43.76
2.08587	44.09
2.10253	44.40
2.11920	44.73
2.13587	45.06
2.15253	45.39
2.16920	45.73
2.18587	46.04
2.20253	46.37
2.21920	46.70
2.23587	47.04
2.25253	47.37
2.26920	47.69
2.28587	48.05
2.30253	48.37
2.31920	48.68
2.33587	49.04
2.35253	49.34
2.36920	49.56
2.38587	49.67
2.40253	49.68
2.41920	49.67
2.43587	49.67
2.45253	49.67
2.46920	49.70
2.48587	49.71
2.50253	49.72
2.51920	49.73
2.53587	49.74
2.55253	49.75
2.56920	49.76
2.58587	49.78
2.60253	49.79
2.61920	49.80
2.63587	49.82
2.65253	49.84
2.66920	49.84
2.68587	49.86
2.70253	49.85
2.71920	49.85
2.73587	49.85
2.75253	49.85
2.76920	49.85
2.78587	49.85
2.80253	49.86
2.81920	49.86
2.83587	49.86
2.85253	49.86
2.86920	49.87
2.88587	49.87
2.90253	49.90
2.91920	49.92
2.93587	49.94
2.95253	49.95
2.96920	49.96
2.98587	49.97
3.00253	49.98
3.01920	49.99
3.03587	50.01
3.05253	50.01
3.06920	50.01
3.08587	50.01
3.10253	50.02
3.11920	50.02
3.13587	50.03
3.15253	50.05
3.16920	50.06
3.18587	50.07
3.20253	50.07
3.21920	50.07
3.23587	50.08
3.25253	50.08
3.26920	50.08
3.28587	50.09
3.30253	50.10
3.31920	50.11
3.33587	50.11
3.35253	50.10
3.36920	50.09
3.38587	50.07
3.40253	50.04
3.41920	50.03
3.43587	50.03
3.45253	50.03
3.46920	50.04
3.48587	50.04
3.50253	50.05
3.51920	50.06
3.53587	50.05
3.55253	50.05
3.56920	50.05
3.58587	50.04
3.60253	50.03
3.61920	50.05
3.63587	50.04
3.65253	50.03
3.66920	50.03
3.68587	50.05
3.70253	50.05
3.71920	50.07
3.73587	50.07
3.75253	50.07
3.76920	50.07
3.78587	50.06
3.80253	50.06
3.81920	50.06
3.83587	50.06
3.85253	50.06
3.86920	50.06
3.88587	50.06
3.90253	50.07
3.91920	50.08
3.93587	50.08
3.95253	50.08
3.96920	50.06
3.98587	50.06

[Status Trace (Injection Unit Temperature)]
Interval(msec)	1000
# of Points	240
Start Time(min)	0.003
End Time(min)	3.986
Intensity Units	
Intensity Multiplier	1
R.Time (min)	Intensity
0.00253	99.98
0.01920	99.98
0.03587	99.97
0.05253	99.98
0.06920	99.98
0.08587	99.98
0.10253	99.98
0.11920	99.98
0.13587	99.98
0.15253	99.98
0.16920	99.98
0.18587	99.98
0.20253	99.98
0.21920	99.98
0.23587	99.98
0.25253	99.98
0.26920	99.98
0.28587	99.98
0.30253	99.98
0.31920	99.98
0.33587	99.98
0.35253	99.98
0.36920	99.98
0.38587	99.98
0.40253	99.98
0.41920	99.98
0.43587	99.98
0.45253	99.98
0.46920	99.98
0.48587	99.98
0.50253	99.98
0.51920	99.98
0.53587	99.98
0.55253	99.98
0.56920	99.98
0.58587	99.98
0.60253	99.98
0.61920	99.98
0.63587	99.98
0.65253	99.99
0.66920	99.98
0.68587	99.98
0.70253	99.98
0.71920	99.98
0.73587	99.99
0.75253	99.99
0.76920	99.98
0.78587	99.99
0.80253	99.98
0.81920	99.98
0.83587	99.99
0.85253	99.99
0.86920	99.99
0.88587	99.99
0.90253	99.99
0.91920	99.99
0.93587	99.99
0.95253	99.99
0.96920	99.99
0.98587	99.99
1.00253	99.99
1.01920	99.99
1.03587	99.99
1.05253	99.99
1.06920	99.99
1.08587	99.99
1.10253	99.99
1.11920	99.99
1.13587	99.99
1.15253	100.00
1.16920	99.99
1.18587	99.99
1.20253	99.99
1.21920	99.99
1.23587	99.99
1.25253	99.99
1.26920	100.00
1.28587	99.99
1.30253	99.99
1.31920	99.99
1.33587	99.99
1.35253	99.99
1.36920	99.99
1.38587	99.99
1.40253	99.99
1.41920	99.99
1.43587	99.99
1.45253	99.99
1.46920	99.99
1.48587	99.99
1.50253	99.99
1.51920	99.98
1.53587	99.99
1.55253	99.99
1.56920	99.98
1.58587	99.99
1.60253	99.98
1.61920	99.98
1.63587	99.99
1.65253	99.99
1.66920	99.98
1.68587	99.98
1.70253	99.98
1.71920	99.98
1.73587	99.99
1.75253	99.98
1.76920	99.98
1.78587	99.98
1.80253	99.98
1.81920	99.98
1.83587	99.98
1.85253	99.98
1.86920	99.98
1.88587	99.98
1.90253	99.98
1.91920	99.98
1.93587	99.98
1.95253	99.98
1.96920	99.97
1.98587	99.98
2.00253	99.97
2.01920	99.97
2.03587	99.97
2.05253	99.97
2.06920	99.97
2.08587	99.98
2.10253	99.97
2.11920	99.97
2.13587	99.97
2.15253	99.97
2.16920	99.97
2.18587	99.97
2.20253	99.96
2.21920	99.97
2.23587	99.97
2.25253	99.96
2.26920	99.97
2.28587	99.96
2.30253	99.97
2.31920	99.97
2.33587	99.97
2.35253	99.96
2.36920	99.96
2.38587	99.96
2.40253	99.97
2.41920	99.97
2.43587	99.96
2.45253	99.97
2.46920	99.97
2.48587	99.96
2.50253	99.97
2.51920	99.97
2.53587	99.97
2.55253	99.97
2.56920	99.97
2.58587	99.97
2.60253	99.97
2.61920	99.97
2.63587	99.98
2.65253	99.97
2.66920	99.98
2.68587	99.98
2.70253	99.98
2.71920	99.98
2.73587	99.98
2.75253	99.99
2.76920	99.99
2.78587	99.99
2.80253	99.99
2.81920	99.99
2.83587	99.99
2.85253	99.99
2.86920	100.00
2.88587	100.00
2.90253	100.00
2.91920	100.01
2.93587	100.00
2.95253	100.01
2.96920	100.01
2.98587	100.01
3.00253	100.01
3.01920	100.01
3.03587	100.01
3.05253	100.02
3.06920	100.02
3.08587	100.01
3.10253	100.02
3.11920	100.02
3.13587	100.02
3.15253	100.02
3.16920	100.02
3.18587	100.02
3.20253	100.03
3.21920	100.02
3.23587	100.03
3.25253	100.02
3.26920	100.03
3.28587	100.03
3.30253	100.03
3.31920	100.03
3.33587	100.03
3.35253	100.03
3.36920	100.03
3.38587	100.03
3.40253	100.03
3.41920	100.03
3.43587	100.03
3.45253	100.04
3.46920	100.03
3.48587	100.03
3.50253	100.04
3.51920	100.03
3.53587	100.04
3.55253	100.04
3.56920	100.04
3.58587	100.04
3.60253	100.04
3.61920	100.04
3.63587	100.04
3.65253	100.04
3.66920	100.04
3.68587	100.04
3.70253	100.04
3.71920	100.04
3.73587	100.04
3.75253	100.04
3.76920	100.05
3.78587	100.04
3.80253	100.04
3.81920	100.05
3.83587	100.04
3.85253	100.04
3.86920	100.05
3.88587	100.04
3.90253	100.05
3.91920	100.04
3.93587	100.05
3.95253	100.05
3.96920	100.04
3.98587	100.05

[Status Trace (Carrier Gas Pressure)]
Interval(msec)	1000
# of Points	240
Start Time(min)	0.003
End Time(min)	3.986
Intensity Units	
Intensity Multiplier	1
R.Time (min)	Intensity
0.00253	58.00
0.01920	56.32
0.03587	56.38
0.05253	58.72
0.06920	59.80
0.08587	58.23
0.10253	57.98
0.11920	58.01
0.13587	58.01
0.15253	58.01
0.16920	58.00
0.18587	58.00
0.20253	58.00
0.21920	58.00
0.23587	58.00
0.25253	58.00
0.26920	58.00
0.28587	58.00
0.30253	58.00
0.31920	58.00
0.33587	58.00
0.35253	58.00
0.36920	58.00
0.38587	58.00
0.40253	58.00
0.41920	58.00
0.43587	58.00
0.45253	58.00
0.46920	58.00
0.48587	58.00
0.50253	58.00
0.51920	58.00
0.53587	58.00
0.55253	58.00
0.56920	58.00
0.58587	58.00
0.60253	58.00
0.61920	58.00
0.63587	58.00
0.65253	58.00
0.66920	58.00
0.68587	58.00
0.70253	58.00
0.71920	58.00
0.73587	58.00
0.75253	58.00
0.76920	58.00
0.78587	58.00
0.80253	58.00
0.81920	58.00
0.83587	58.00
0.85253	58.00
0.86920	58.00
0.88587	58.00
0.90253	58.00
0.91920	58.00
0.93587	58.00
0.95253	58.00
0.96920	58.00
0.98587	58.00
1.00253	58.00
1.01920	58.00
1.03587	58.00
1.05253	58.00
1.06920	58.00
1.08587	58.00
1.10253	58.00
1.11920	58.00
1.13587	58.00
1.15253	58.00
1.16920	58.00
1.18587	58.00
1.20253	58.00
1.21920	58.00
1.23587	58.00
1.25253	58.00
1.26920	58.00
1.28587	58.00
1.30253	58.00
1.31920	58.00
1.33587	58.00
1.35253	58.00
1.36920	58.00
1.38587	58.00
1.40253	58.00
1.41920	58.00
1.43587	58.00
1.45253	58.00
1.46920	58.00
1.48587	58.00
1.50253	58.00
1.51920	58.00
1.53587	58.00
1.55253	58.00
1.56920	58.00
1.58587	58.00
1.60253	58.00
1.61920	58.00
1.63587	58.00
1.65253	58.00
1.66920	58.01
1.68587	58.01
1.70253	58.00
1.71920	58.00
1.73587	58.00
1.75253	58.00
1.76920	58.00
1.78587	58.00
1.80253	58.00
1.81920	58.00
1.83587	58.00
1.85253	58.00
1.86920	58.00
1.88587	58.00
1.90253	58.00
1.91920	58.00
1.93587	58.00
1.95253	58.00
1.96920	58.00
1.98587	58.00
2.00253	58.00
2.01920	58.00
2.03587	58.00
2.05253	58.00
2.06920	58.00
2.08587	58.00
2.10253	58.00
2.11920	58.00
2.13587	58.00
2.15253	58.00
2.16920	58.00
2.18587	58.00
2.20253	58.00
2.21920	58.00
2.23587	58.00
2.25253	58.00
2.26920	58.00
2.28587	58.00
2.30253	58.00
2.31920	58.00
2.33587	58.00
2.35253	58.00
2.36920	58.00
2.38587	57.99
2.40253	57.99
2.41920	58.00
2.43587	58.00
2.45253	58.00
2.46920	58.00
2.48587	58.00
2.50253	57.96
2.51920	58.02
2.53587	57.99
2.55253	58.00
2.56920	58.00
2.58587	58.00
2.60253	58.00
2.61920	58.00
2.63587	58.00
2.65253	58.00
2.66920	58.00
2.68587	58.00
2.70253	58.00
2.71920	58.00
2.73587	58.00
2.75253	58.00
2.76920	58.00
2.78587	58.00
2.80253	58.00
2.81920	58.00
2.83587	58.00
2.85253	58.00
2.86920	58.00
2.88587	58.00
2.90253	58.00
2.91920	58.00
2.93587	58.00
2.95253	58.00
2.96920	58.00
2.98587	58.00
3.00253	58.00
3.01920	58.00
3.03587	58.00
3.05253	58.00
3.06920	58.00
3.08587	58.00
3.10253	58.00
3.11920	58.00
3.13587	58.00
3.15253	58.00
3.16920	58.00
3.18587	58.00
3.20253	58.00
3.21920	58.00
3.23587	58.00
3.25253	58.00
3.26920	58.00
3.28587	58.00
3.30253	58.00
3.31920	58.00
3.33587	58.00
3.35253	58.00
3.36920	58.00
3.38587	58.00
3.40253	58.00
3.41920	58.00
3.43587	58.00
3.45253	58.00
3.46920	58.00
3.48587	58.00
3.50253	58.00
3.51920	58.00
3.53587	58.00
3.55253	58.00
3.56920	58.00
3.58587	58.00
3.60253	58.00
3.61920	58.00
3.63587	58.00
3.65253	58.00
3.66920	58.00
3.68587	58.00
3.70253	58.00
3.71920	58.00
3.73587	58.00
3.75253	58.00
3.76920	58.00
3.78587	58.00
3.80253	58.00
3.81920	58.00
3.83587	58.00
3.85253	58.00
3.86920	58.00
3.88587	58.00
3.90253	58.00
3.91920	58.00
3.93587	58.00
3.95253	58.00
3.96920	58.00
3.98587	58.00

[Status Trace (Carrier Gas Flow)]
Interval(msec)	1000
# of Points	240
Start Time(min)	0.003
End Time(min)	3.986
Intensity Units	
Intensity Multiplier	1
R.Time (min)	Intensity
0.00253	34.52
0.01920	34.55
0.03587	34.54
0.05253	34.55
0.06920	34.49
0.08587	34.52
0.10253	34.52
0.11920	34.52
0.13587	34.52
0.15253	34.52
0.16920	34.52
0.18587	34.51
0.20253	34.52
0.21920	34.52
0.23587	34.52
0.25253	34.52
0.26920	34.52
0.28587	34.52
0.30253	34.52
0.31920	34.52
0.33587	34.52
0.35253	34.52
0.36920	34.52
0.38587	34.52
0.40253	34.52
0.41920	34.52
0.43587	34.52
0.45253	34.52
0.46920	34.52
0.48587	34.52
0.50253	34.52
0.51920	34.52
0.53587	34.52
0.55253	34.52
0.56920	34.52
0.58587	34.52
0.60253	34.52
0.61920	34.52
0.63587	34.52
0.65253	34.52
0.66920	34.52
0.68587	34.52
0.70253	34.52
0.71920	34.52
0.73587	34.52
0.75253	34.51
0.76920	34.52
0.78587	34.52
0.80253	34.52
0.81920	34.52
0.83587	34.52
0.85253	34.52
0.86920	34.51
0.88587	34.52
0.90253	34.52
0.91920	34.52
0.93587	34.51
0.95253	34.51
0.96920	34.53
0.98587	34.52
1.00253	34.51
1.01920	34.52
1.03587	34.52
1.05253	34.52
1.06920	34.52
1.08587	34.52
1.10253	34.52
1.11920	34.52
1.13587	34.52
1.15253	34.53
1.16920	34.51
1.18587	34.52
1.20253	34.52
1.21920	34.52
1.23587	34.52
1.25253	34.52
1.26920	34.52
1.28587	34.52
1.30253	34.52
1.31920	34.52
1.33587	34.51
1.35253	34.52
1.36920	34.52
1.38587	34.51
1.40253	34.52
1.41920	34.52
1.43587	34.52
1.45253	34.52
1.46920	34.52
1.48587	34.52
1.50253	34.52
1.51920	34.52
1.53587	34.51
1.55253	34.53
1.56920	34.52
1.58587	34.52
1.60253	34.52
1.61920	34.52
1.63587	34.52
1.65253	34.52
1.66920	34.52
1.68587	34.52
1.70253	34.52
1.71920	34.52
1.73587	34.52
1.75253	34.52
1.76920	34.52
1.78587	34.52
1.80253	34.52
1.81920	34.52
1.83587	34.51
1.85253	34.52
1.86920	34.52
1.88587	34.52
1.90253	34.52
1.91920	34.52
1.93587	34.52
1.95253	34.52
1.96920	34.52
1.98587	34.52
2.00253	34.52
2.01920	34.52
2.03587	34.52
2.05253	34.52
2.06920	34.52
2.08587	34.51
2.10253	34.52
2.11920	34.52
2.13587	34.51
2.15253	34.52
2.16920	34.52
2.18587	34.52
2.20253	34.52
2.21920	34.52
2.23587	34.53
2.25253	34.52
2.26920	34.52
2.28587	34.52
2.30253	34.51
2.31920	34.52
2.33587	34.51
2.35253	34.51
2.36920	34.52
2.38587	34.52
2.40253	34.52
2.41920	34.52
2.43587	34.53
2.45253	34.51
2.46920	34.52
2.48587	34.52
2.50253	34.66
2.51920	34.52
2.53587	34.52
2.55253	34.53
2.56920	34.51
2.58587	34.51
2.60253	34.52
2.61920	34.52
2.63587	34.52
2.65253	34.52
2.66920	34.52
2.68587	34.52
2.70253	34.52
2.71920	34.52
2.73587	34.52
2.75253	34.52
2.76920	34.52
2.78587	34.52
2.80253	34.52
2.81920	34.52
2.83587	34.52
2.85253	34.52
2.86920	34.52
2.88587	34.52
2.90253	34.52
2.91920	34.52
2.93587	34.52
2.95253	34.52
2.96920	34.52
2.98587	34.52
3.00253	34.52
3.01920	34.52
3.03587	34.52
3.05253	34.52
3.06920	34.51
3.08587	34.52
3.10253	34.52
3.11920	34.52
3.13587	34.52
3.15253	34.52
3.16920	34.52
3.18587	34.52
3.20253	34.51
3.21920	34.52
3.23587	34.52
3.25253	34.52
3.26920	34.52
3.28587	34.52
3.30253	34.52
3.31920	34.52
3.33587	34.52
3.35253	34.52
3.36920	34.52
3.38587	34.51
3.40253	34.52
3.41920	34.53
3.43587	34.52
3.45253	34.52
3.46920	34.52
3.48587	34.52
3.50253	34.52
3.51920	34.52
3.53587	34.52
3.55253	34.52
3.56920	34.51
3.58587	34.51
3.60253	34.52
3.61920	34.52
3.63587	34.52
3.65253	34.52
3.66920	34.52
3.68587	34.52
3.70253	34.51
3.71920	34.52
3.73587	34.52
3.75253	34.52
3.76920	34.52
3.78587	34.52
3.80253	34.52
3.81920	34.51
3.83587	34.52
3.85253	34.52
3.86920	34.52
3.88587	34.52
3.90253	34.52
3.91920	34.52
3.93587	34.51
3.95253	34.52
3.96920	34.52
3.98587	34.52

[Status Trace (Column Flow)]
Interval(msec)	1000
# of Points	240
Start Time(min)	0.003
End Time(min)	3.986
Intensity Units	
Intensity Multiplier	1
R.Time (min)	Intensity
0.00253	5.51
0.01920	5.32
0.03587	5.32
0.05253	5.60
0.06920	5.72
0.08587	5.54
0.10253	5.51
0.11920	5.51
0.13587	5.51
0.15253	5.51
0.16920	5.51
0.18587	5.51
0.20253	5.51
0.21920	5.51
0.23587	5.51
0.25253	5.51
0.26920	5.51
0.28587	5.51
0.30253	5.51
0.31920	5.51
0.33587	5.51
0.35253	5.51
0.36920	5.51
0.38587	5.51
0.40253	5.51
0.41920	5.51
0.43587	5.51
0.45253	5.51
0.46920	5.51
0.48587	5.51
0.50253	5.51
0.51920	5.51
0.53587	5.51
0.55253	5.51
0.56920	5.51
0.58587	5.51
0.60253	5.51
0.61920	5.51
0.63587	5.51
0.65253	5.51
0.66920	5.51
0.68587	5.51
0.70253	5.51
0.71920	5.51
0.73587	5.51
0.75253	5.51
0.76920	5.51
0.78587	5.51
0.80253	5.51
0.81920	5.51
0.83587	5.51
0.85253	5.51
0.86920	5.51
0.88587	5.51
0.90253	5.51
0.91920	5.51
0.93587	5.51
0.95253	5.51
0.96920	5.51
0.98587	5.51
1.00253	5.51
1.01920	5.51
1.03587	5.51
1.05253	5.51
1.06920	5.51
1.08587	5.51
1.10253	5.51
1.11920	5.51
1.13587	5.51
1.15253	5.51
1.16920	5.51
1.18587	5.51
1.20253	5.51
1.21920	5.51
1.23587	5.51
1.25253	5.51
1.26920	5.51
1.28587	5.51
1.30253	5.51
1.31920	5.51
1.33587	5.51
1.35253	5.51
1.36920	5.51
1.38587	5.51
1.40253	5.51
1.41920	5.51
1.43587	5.51
1.45253	5.51
1.46920	5.51
1.48587	5.51
1.50253	5.51
1.51920	5.51
1.53587	5.51
1.55253	5.51
1.56920	5.51
1.58587	5.51
1.60253	5.51
1.61920	5.51
1.63587	5.50
1.65253	5.50
1.66920	5.49
1.68587	5.48
1.70253	5.46
1.71920	5.45
1.73587	5.44
1.75253	5.43
1.76920	5.42
1.78587	5.41
1.80253	5.40
1.81920	5.39
1.83587	5.38
1.85253	5.37
1.86920	5.36
1.88587	5.35
1.90253	5.34
1.91920	5.33
1.93587	5.32
1.95253	5.31
1.96920	5.31
1.98587	5.30
2.00253	5.29
2.01920	5.28
2.03587	5.27
2.05253	5.26
2.06920	5.25
2.08587	5.24
2.10253	5.23
2.11920	5.22
2.13587	5.21
2.15253	5.20
2.16920	5.19
2.18587	5.18
2.20253	5.17
2.21920	5.16
2.23587	5.15
2.25253	5.14
2.26920	5.13
2.28587	5.12
2.30253	5.12
2.31920	5.11
2.33587	5.10
2.35253	5.09
2.36920	5.08
2.38587	5.08
2.40253	5.08
2.41920	5.08
2.43587	5.08
2.45253	5.08
2.46920	5.08
2.48587	5.08
2.50253	5.07
2.51920	5.08
2.53587	5.08
2.55253	5.08
2.56920	5.08
2.58587	5.08
2.60253	5.08
2.61920	5.08
2.63587	5.08
2.65253	5.07
2.66920	5.07
2.68587	5.07
2.70253	5.07
2.71920	5.07
2.73587	5.07
2.75253	5.07
2.76920	5.07
2.78587	5.07
2.80253	5.07
2.81920	5.07
2.83587	5.07
2.85253	5.07
2.86920	5.07
2.88587	5.07
2.90253	5.07
2.91920	5.07
2.93587	5.07
2.95253	5.07
2.96920	5.07
2.98587	5.07
3.00253	5.07
3.01920	5.07
3.03587	5.07
3.05253	5.07
3.06920	5.07
3.08587	5.07
3.10253	5.07
3.11920	5.07
3.13587	5.07
3.15253	5.07
3.16920	5.07
3.18587	5.07
3.20253	5.07
3.21920	5.07
3.23587	5.07
3.25253	5.07
3.26920	5.07
3.28587	5.07
3.30253	5.07
3.31920	5.07
3.33587	5.07
3.35253	5.07
3.36920	5.07
3.38587	5.07
3.40253	5.07
3.41920	5.07
3.43587	5.07
3.45253	5.07
3.46920	5.07
3.48587	5.07
3.50253	5.07
3.51920	5.07
3.53587	5.07
3.55253	5.07
3.56920	5.07
3.58587	5.07
3.60253	5.07
3.61920	5.07
3.63587	5.07
3.65253	5.07
3.66920	5.07
3.68587	5.07
3.70253	5.07
3.71920	5.07
3.73587	5.07
3.75253	5.07
3.76920	5.07
3.78587	5.07
3.80253	5.07
3.81920	5.07
3.83587	5.07
3.85253	5.07
3.86920	5.07
3.88587	5.07
3.90253	5.07
3.91920	5.07
3.93587	5.07
3.95253	5.07
3.96920	5.07
3.98587	5.07

[Status Trace (Linear Velocity)]
Interval(msec)	1000
# of Points	240
Start Time(min)	0.003
End Time(min)	3.986
Intensity Units	
Intensity Multiplier	1
R.Time (min)	Intensity
0.00253	39.01
0.01920	37.91
0.03587	37.95
0.05253	39.48
0.06920	40.19
0.08587	39.16
0.10253	39.00
0.11920	39.02
0.13587	39.02
0.15253	39.01
0.16920	39.01
0.18587	39.01
0.20253	39.01
0.21920	39.01
0.23587	39.01
0.25253	39.01
0.26920	39.01
0.28587	39.01
0.30253	39.01
0.31920	39.01
0.33587	39.01
0.35253	39.01
0.36920	39.01
0.38587	39.01
0.40253	39.01
0.41920	39.02
0.43587	39.01
0.45253	39.01
0.46920	39.01
0.48587	39.01
0.50253	39.01
0.51920	39.01
0.53587	39.01
0.55253	39.01
0.56920	39.01
0.58587	39.01
0.60253	39.01
0.61920	39.01
0.63587	39.01
0.65253	39.01
0.66920	39.01
0.68587	39.01
0.70253	39.01
0.71920	39.02
0.73587	39.01
0.75253	39.01
0.76920	39.01
0.78587	39.01
0.80253	39.01
0.81920	39.01
0.83587	39.01
0.85253	39.01
0.86920	39.01
0.88587	39.01
0.90253	39.01
0.91920	39.01
0.93587	39.01
0.95253	39.01
0.96920	39.02
0.98587	39.02
1.00253	39.02
1.01920	39.02
1.03587	39.02
1.05253	39.02
1.06920	39.01
1.08587	39.01
1.10253	39.01
1.11920	39.01
1.13587	39.01
1.15253	39.01
1.16920	39.01
1.18587	39.01
1.20253	39.02
1.21920	39.02
1.23587	39.02
1.25253	39.01
1.26920	39.01
1.28587	39.01
1.30253	39.02
1.31920	39.01
1.33587	39.01
1.35253	39.01
1.36920	39.01
1.38587	39.01
1.40253	39.01
1.41920	39.01
1.43587	39.01
1.45253	39.01
1.46920	39.01
1.48587	39.02
1.50253	39.02
1.51920	39.02
1.53587	39.02
1.55253	39.02
1.56920	39.02
1.58587	39.02
1.60253	39.01
1.61920	39.01
1.63587	38.99
1.65253	38.97
1.66920	38.94
1.68587	38.90
1.70253	38.87
1.71920	38.83
1.73587	38.80
1.75253	38.77
1.76920	38.74
1.78587	38.71
1.80253	38.68
1.81920	38.65
1.83587	38.62
1.85253	38.59
1.86920	38.56
1.88587	38.53
1.90253	38.49
1.91920	38.46
1.93587	38.43
1.95253	38.40
1.96920	38.37
1.98587	38.34
2.00253	38.31
2.01920	38.28
2.03587	38.25
2.05253	38.22
2.06920	38.19
2.08587	38.16
2.10253	38.13
2.11920	38.10
2.13587	38.07
2.15253	38.04
2.16920	38.01
2.18587	37.98
2.20253	37.96
2.21920	37.93
2.23587	37.89
2.25253	37.86
2.26920	37.84
2.28587	37.80
2.30253	37.78
2.31920	37.75
2.33587	37.72
2.35253	37.69
2.36920	37.67
2.38587	37.66
2.40253	37.66
2.41920	37.66
2.43587	37.66
2.45253	37.66
2.46920	37.66
2.48587	37.66
2.50253	37.63
2.51920	37.67
2.53587	37.65
2.55253	37.65
2.56920	37.65
2.58587	37.65
2.60253	37.65
2.61920	37.65
2.63587	37.65
2.65253	37.64
2.66920	37.64
2.68587	37.64
2.70253	37.64
2.71920	37.64
2.73587	37.64
2.75253	37.64
2.76920	37.64
2.78587	37.64
2.80253	37.64
2.81920	37.64
2.83587	37.64
2.85253	37.64
2.86920	37.64
2.88587	37.64
2.90253	37.64
2.91920	37.64
2.93587	37.64
2.95253	37.64
2.96920	37.63
2.98587	37.63
3.00253	37.63
3.01920	37.63
3.03587	37.63
3.05253	37.63
3.06920	37.63
3.08587	37.63
3.10253	37.63
3.11920	37.63
3.13587	37.63
3.15253	37.63
3.16920	37.63
3.18587	37.62
3.20253	37.62
3.21920	37.62
3.23587	37.62
3.25253	37.62
3.26920	37.62
3.28587	37.62
3.30253	37.62
3.31920	37.62
3.33587	37.62
3.35253	37.62
3.36920	37.62
3.38587	37.62
3.40253	37.63
3.41920	37.63
3.43587	37.63
3.45253	37.63
3.46920	37.63
3.48587	37.63
3.50253	37.63
3.51920	37.63
3.53587	37.63
3.55253	37.63
3.56920	37.63
3.58587	37.63
3.60253	37.63
3.61920	37.63
3.63587	37.63
3.65253	37.63
3.66920	37.63
3.68587	37.63
3.70253	37.63
3.71920	37.62
3.73587	37.62
3.75253	37.62
3.76920	37.62
3.78587	37.62
3.80253	37.63
3.81920	37.63
3.83587	37.63
3.85253	37.63
3.86920	37.63
3.88587	37.63
3.90253	37.62
3.91920	37.62
3.93587	37.62
3.95253	37.62
3.96920	37.62
3.98587	37.63

