[Header]
Application Name	LabSolutions
Version	5.110
Data File Name	C:\Users\User\Desktop\Junior\UIC Prairie Sampling\6.2.23\06022023_071.gcd
Output Date	6/12/2023
Output Time	11:47:13 AM

[File Information]
Type	Data File
Generated	6/6/2023 5:32:26 PM
Generated by	System Administrator
Modified	6/6/2023 5:39:45 PM
Modified by	System Administrator

[Sample Information]
Operator Name	System Administrator
Acquired	6/6/2023 5:35:45 PM
Sample Type	0:Unknown
Level	0
Sample Name	071
Sample ID	071
ISTD Amount1	1
ISTD Amount2	1
ISTD Amount3	1
ISTD Amount4	1
ISTD Amount5	1
ISTD Amount6	1
ISTD Amount7	1
ISTD Amount8	1
ISTD Amount9	1
ISTD Amount10	1
ISTD Amount11	1
ISTD Amount12	1
ISTD Amount13	1
ISTD Amount14	1
ISTD Amount15	1
ISTD Amount16	1
ISTD Amount17	1
ISTD Amount18	1
ISTD Amount19	1
ISTD Amount20	1
ISTD Amount21	1
ISTD Amount22	1
ISTD Amount23	1
ISTD Amount24	1
ISTD Amount25	1
ISTD Amount26	1
ISTD Amount27	1
ISTD Amount28	1
ISTD Amount29	1
ISTD Amount30	1
ISTD Amount31	1
ISTD Amount32	1
Sample Amount	1
Dilution Factor	1
Vial#	70
Injection Volume	1
Injection Count	1
Bar Code	

[Original Files]
Data File	C:\Users\User\Desktop\Junior\UIC Prairie Sampling\6.2.23\06022023_071.gcd
Method File	C:\LabSolutions\Data\GHG_4min_2022\ghg3_togas_w_acet_4 min_new_int.gcm
Batch File	C:\LabSolutions\Data\AutoSamplerTesting\06022023.gcb
Report Format File	c:\LabSolutions\System\DEFAULT.lsr

[File Description]


[Configuration]
Instrument Name	C0B7VH3-Instrument1
Instrument #	1
Line #	1
# of Detectors	3
Detector ID	DET#1	DET#2	DET#3
Detector Name	FID	PTCD	ECD
# of Channels	1	1	1

[Peak Table(Ch1)]
# of Peaks	3
Peak#	R.Time	I.Time	F.Time	Area	Height	A/H	Conc.	Mark	ID#	Name	k'	Plate #	Plate Ht.	Tailing	Resolution	Sep.Factor	Area Ratio	Height Ratio	Conc. %	Norm Conc.
1	1.472	1.435	1.523	2704	1364	1.983	0.000	   	1	CO	0.000	9948	15.078	1.155	0.000	0.000	0	0	0.000	0.000
2	1.560	1.523	1.622	4209	2138	1.969	20.521	 V 	2	CH4	0.060	11456	13.094	1.270	1.500	0.000	0	0	4.093	4.093
3	1.989	1.941	2.488	2494995	1205395	2.070	480.831	   	3	CO2	0.351	17642	8.503	1.223	7.259	5.875	0	0	95.907	95.907

[Peak Table(Ch2)]
# of Peaks	0

[Peak Table(Ch3)]
# of Peaks	6
Peak#	R.Time	I.Time	F.Time	Area	Height	A/H	Conc.	Mark	ID#	Name	k'	Plate #	Plate Ht.	Tailing	Resolution	Sep.Factor	Area Ratio	Height Ratio	Conc. %	Norm Conc.
1	2.458	2.440	2.466	257	253	1.015	0.000	   			0.000	8329	18.010	0.000	0.000	0.000	0	0	0.000	0.000
2	2.510	2.466	2.554	2322	540	4.301	0.000	 V 			0.021	1812	82.796	0.000	0.299	0.000	0	0	0.000	0.000
3	2.561	2.554	2.678	1713	473	3.622	0.000	 V 			0.042	72	2070.926	0.000	0.071	2.000	0	0	0.000	0.000
4	2.715	2.686	2.755	94	37	2.522	0.000	   			0.104	24487	6.126	1.195	0.242	2.500	0	0	0.000	0.000
5	2.887	2.832	3.038	16556	4541	3.646	0.245	   	1	N2O	0.175	13979	10.730	1.641	2.063	1.671	0	0	100.000	100.000
6	3.305	3.133	3.415	223	25	9.030	0.000	   			0.345	2695	55.667	0.784	2.372	1.974	0	0	0.000	0.000

[Compound Results(Ch1)]
# of IDs	6
ID#	Name	R.Time	Area	Height	Conc.	Curve	3rd	2nd	1st	Constant	Area Ratio	Height Ratio	Conc. %	Norm Conc.
1	CO	1.472	2704	1364	0.000	Linear	0.000000e+00	0.000000e+00	0.000000e+00	0.000000e+00	0	0	0.000	0.000
2	CH4	1.560	4209	2138	20.521	Linear	0.000000e+00	0.000000e+00	2.051179e+002	0.000000e+00	0	0	4.093	4.093
3	CO2	1.989	2494995	1205395	480.831	Linear	0.000000e+00	0.000000e+00	5.188919e+003	0.000000e+00	0	0	95.907	95.907
4	Ethylene	0.000	0	0	0.000	Linear	0.000000e+00	0.000000e+00	0.000000e+00	0.000000e+00	0	0	0.000	0.000
5	Acetylene	0.000	0	0	0.000	Linear	0.000000e+00	0.000000e+00	0.000000e+00	0.000000e+00	0	0	0.000	0.000
6	Ethane	0.000	0	0	0.000	Linear	0.000000e+00	0.000000e+00	0.000000e+00	0.000000e+00	0	0	0.000	0.000

[Compound Results(Ch2)]
# of IDs	5
ID#	Name	R.Time	Area	Height	Conc.	Curve	3rd	2nd	1st	Constant	Area Ratio	Height Ratio	Conc. %	Norm Conc.
1	Hydrogen	0.000	0	0	0.000	Linear	0.000000e+00	0.000000e+00	0.000000e+00	0.000000e+00	0	0	0.000	0.000
2	Oxygen	0.000	0	0	0.000	Linear	0.000000e+00	0.000000e+00	0.000000e+00	0.000000e+00	0	0	0.000	0.000
3	Nitrogen	0.000	0	0	0.000	Linear	0.000000e+00	0.000000e+00	0.000000e+00	0.000000e+00	0	0	0.000	0.000
4	Methane	0.000	0	0	0.000	Linear	0.000000e+00	0.000000e+00	0.000000e+00	0.000000e+00	0	0	0.000	0.000
5	Carbon Monoxide	0.000	0	0	0.000	Linear	0.000000e+00	0.000000e+00	0.000000e+00	0.000000e+00	0	0	0.000	0.000

[Compound Results(Ch3)]
# of IDs	2
ID#	Name	R.Time	Area	Height	Conc.	Curve	3rd	2nd	1st	Constant	Area Ratio	Height Ratio	Conc. %	Norm Conc.
1	N2O	2.887	16556	4541	0.245	Linear	0.000000e+00	0.000000e+00	6.759880e+004	0.000000e+00	0	0	100.000	100.000
2	SF6	0.000	0	0	0.000	Linear	0.000000e+00	0.000000e+00	0.000000e+00	0.000000e+00	0	0	0.000	0.000

[Group Results(Ch1)]
# of Groups	0

[Group Results(Ch2)]
# of Groups	0

[Group Results(Ch3)]
# of Groups	0

[Chromatogram (Ch1)]
Interval(msec)	220
# of Points	1091
Start Time(min)	0.002
End Time(min)	3.998
R.Time (min)	Intensity
0.00167	12
0.00533	17
0.00900	16
0.01267	14
0.01633	13
0.02000	16
0.02367	20
0.02733	24
0.03100	26
0.03467	26
0.03833	27
0.04200	27
0.04567	28
0.04933	31
0.05300	34
0.05667	33
0.06033	30
0.06400	27
0.06767	25
0.07133	25
0.07500	27
0.07867	29
0.08233	31
0.08600	30
0.08967	21
0.09333	11
0.09700	4
0.10067	-0
0.10433	-3
0.10800	-5
0.11167	-0
0.11533	10
0.11900	19
0.12267	22
0.12633	23
0.13000	22
0.13367	22
0.13733	18
0.14100	12
0.14467	5
0.14833	0
0.15200	1
0.15567	6
0.15933	9
0.16300	10
0.16667	12
0.17033	17
0.17400	23
0.17767	27
0.18133	28
0.18500	23
0.18867	15
0.19233	10
0.19600	7
0.19967	6
0.20333	5
0.20700	5
0.21067	4
0.21433	1
0.21800	-3
0.22167	-5
0.22533	-6
0.22900	-5
0.23267	-1
0.23633	3
0.24000	7
0.24367	12
0.24733	18
0.25100	24
0.25467	27
0.25833	28
0.26200	26
0.26567	23
0.26933	22
0.27300	21
0.27667	22
0.28033	24
0.28400	23
0.28767	20
0.29133	15
0.29500	10
0.29867	8
0.30233	6
0.30600	2
0.30967	-1
0.31333	-2
0.31700	-2
0.32067	1
0.32433	6
0.32800	7
0.33167	6
0.33533	5
0.33900	8
0.34267	10
0.34633	14
0.35000	17
0.35367	16
0.35733	14
0.36100	10
0.36467	9
0.36833	12
0.37200	15
0.37567	16
0.37933	15
0.38300	13
0.38667	13
0.39033	14
0.39400	16
0.39767	20
0.40133	25
0.40500	23
0.40867	15
0.41233	1
0.41600	-13
0.41967	-20
0.42333	-19
0.42700	-12
0.43067	-5
0.43433	-1
0.43800	3
0.44167	6
0.44533	9
0.44900	12
0.45267	13
0.45633	13
0.46000	11
0.46367	9
0.46733	6
0.47100	5
0.47467	5
0.47833	10
0.48200	16
0.48567	22
0.48933	28
0.49300	30
0.49667	30
0.50033	24
0.50400	14
0.50767	7
0.51133	4
0.51500	1
0.51867	2
0.52233	6
0.52600	11
0.52967	15
0.53333	15
0.53700	13
0.54067	6
0.54433	-3
0.54800	-9
0.55167	-13
0.55533	-14
0.55900	-8
0.56267	0
0.56633	6
0.57000	12
0.57367	15
0.57733	15
0.58100	11
0.58467	7
0.58833	4
0.59200	5
0.59567	5
0.59933	7
0.60300	10
0.60667	13
0.61033	15
0.61400	15
0.61767	14
0.62133	13
0.62500	12
0.62867	12
0.63233	13
0.63600	14
0.63967	14
0.64333	13
0.64700	10
0.65067	4
0.65433	-3
0.65800	-8
0.66167	-10
0.66533	-6
0.66900	2
0.67267	10
0.67633	16
0.68000	20
0.68367	22
0.68733	22
0.69100	18
0.69467	10
0.69833	2
0.70200	-0
0.70567	-3
0.70933	-9
0.71300	-19
0.71667	-29
0.72033	-36
0.72400	-40
0.72767	-40
0.73133	-37
0.73500	-33
0.73867	-30
0.74233	-25
0.74600	-21
0.74967	-20
0.75333	-19
0.75700	-18
0.76067	-17
0.76433	-16
0.76800	-18
0.77167	-20
0.77533	-19
0.77900	-10
0.78267	2
0.78633	17
0.79000	23
0.79367	19
0.79733	11
0.80100	3
0.80467	-5
0.80833	-13
0.81200	-19
0.81567	-18
0.81933	-14
0.82300	-11
0.82667	-9
0.83033	-4
0.83400	2
0.83767	2
0.84133	-2
0.84500	-5
0.84867	-9
0.85233	-11
0.85600	-13
0.85967	-15
0.86333	-16
0.86700	-14
0.87067	-11
0.87433	-7
0.87800	-1
0.88167	6
0.88533	9
0.88900	9
0.89267	5
0.89633	1
0.90000	-2
0.90367	-2
0.90733	-2
0.91100	-5
0.91467	-11
0.91833	-19
0.92200	-27
0.92567	-31
0.92933	-32
0.93300	-32
0.93667	-30
0.94033	-26
0.94400	-21
0.94767	-13
0.95133	-5
0.95500	-2
0.95867	-4
0.96233	-10
0.96600	-16
0.96967	-18
0.97333	-18
0.97700	-14
0.98067	-11
0.98433	-13
0.98800	-15
0.99167	-17
0.99533	-19
0.99900	-22
1.00267	-25
1.00633	-30
1.01000	-32
1.01367	-30
1.01733	-24
1.02100	-15
1.02467	-5
1.02833	-0
1.03200	-0
1.03567	-5
1.03933	-13
1.04300	-22
1.04667	-32
1.05033	-40
1.05400	-46
1.05767	-47
1.06133	-46
1.06500	-40
1.06867	-31
1.07233	-22
1.07600	-13
1.07967	-7
1.08333	-4
1.08700	-2
1.09067	-4
1.09433	-12
1.09800	-26
1.10167	-40
1.10533	-48
1.10900	-51
1.11267	-49
1.11633	-46
1.12000	-45
1.12367	-45
1.12733	-46
1.13100	-46
1.13467	-47
1.13833	-48
1.14200	-50
1.14567	-49
1.14933	-45
1.15300	-40
1.15667	-37
1.16033	-37
1.16400	-39
1.16767	-42
1.17133	-45
1.17500	-47
1.17867	-49
1.18233	-51
1.18600	-53
1.18967	-53
1.19333	-54
1.19700	-57
1.20067	-58
1.20433	-55
1.20800	-50
1.21167	-45
1.21533	-40
1.21900	-39
1.22267	-39
1.22633	-39
1.23000	-39
1.23367	-39
1.23733	-40
1.24100	-44
1.24467	-50
1.24833	-57
1.25200	-59
1.25567	-57
1.25933	-55
1.26300	-54
1.26667	-57
1.27033	-58
1.27400	-56
1.27767	-52
1.28133	-47
1.28500	-44
1.28867	-42
1.29233	-40
1.29600	-39
1.29967	-41
1.30333	-42
1.30700	-41
1.31067	-39
1.31433	-37
1.31800	-33
1.32167	-29
1.32533	-30
1.32900	-33
1.33267	-39
1.33633	-43
1.34000	-46
1.34367	-47
1.34733	-47
1.35100	-48
1.35467	-48
1.35833	-48
1.36200	-48
1.36567	-47
1.36933	-46
1.37300	-48
1.37667	-50
1.38033	-50
1.38400	-48
1.38767	-44
1.39133	-38
1.39500	-33
1.39867	-31
1.40233	-31
1.40600	-30
1.40967	-28
1.41333	-30
1.41700	-34
1.42067	-37
1.42433	-40
1.42800	-43
1.43167	-41
1.43533	-27
1.43900	3
1.44267	27
1.44633	79
1.45000	226
1.45367	460
1.45733	722
1.46100	962
1.46467	1156
1.46833	1284
1.47200	1325
1.47567	1265
1.47933	1111
1.48300	902
1.48667	681
1.49033	483
1.49400	323
1.49767	202
1.50133	117
1.50500	60
1.50867	22
1.51233	-3
1.51600	-23
1.51967	-39
1.52333	-49
1.52700	-50
1.53067	-36
1.53433	24
1.53800	187
1.54167	487
1.54533	887
1.54900	1303
1.55267	1661
1.55633	1926
1.56000	2071
1.56367	2064
1.56733	1893
1.57100	1593
1.57467	1239
1.57833	901
1.58200	617
1.58567	398
1.58933	238
1.59300	128
1.59667	54
1.60033	6
1.60400	-29
1.60767	-52
1.61133	-67
1.61500	-75
1.61867	-82
1.62233	-87
1.62600	-92
1.62967	-97
1.63333	-104
1.63700	-107
1.64067	-103
1.64433	-96
1.64800	-89
1.65167	-81
1.65533	-77
1.65900	-77
1.66267	-81
1.66633	-81
1.67000	-80
1.67367	-77
1.67733	-73
1.68100	-73
1.68467	-76
1.68833	-80
1.69200	-83
1.69567	-81
1.69933	-78
1.70300	-78
1.70667	-78
1.71033	-78
1.71400	-78
1.71767	-78
1.72133	-76
1.72500	-77
1.72867	-85
1.73233	-93
1.73600	-97
1.73967	-96
1.74333	-91
1.74700	-85
1.75067	-82
1.75433	-80
1.75800	-79
1.76167	-79
1.76533	-78
1.76900	-78
1.77267	-81
1.77633	-88
1.78000	-93
1.78367	-97
1.78733	-98
1.79100	-98
1.79467	-96
1.79833	-96
1.80200	-96
1.80567	-93
1.80933	-84
1.81300	-76
1.81667	-72
1.82033	-71
1.82400	-72
1.82767	-78
1.83133	-86
1.83500	-90
1.83867	-88
1.84233	-81
1.84600	-73
1.84967	-69
1.85333	-72
1.85700	-74
1.86067	-72
1.86433	-73
1.86800	-80
1.87167	-88
1.87533	-90
1.87900	-88
1.88267	-84
1.88633	-82
1.89000	-78
1.89367	-74
1.89733	-72
1.90100	-73
1.90467	-73
1.90833	-69
1.91200	-66
1.91567	-66
1.91933	-70
1.92300	-77
1.92667	-84
1.93033	-92
1.93400	-99
1.93767	-98
1.94133	-87
1.94500	-39
1.94867	268
1.95233	2045
1.95600	9888
1.95967	35964
1.96333	101997
1.96700	230156
1.97067	423524
1.97433	655744
1.97800	884115
1.98167	1068393
1.98533	1180204
1.98900	1205349
1.99267	1145111
1.99633	1015955
2.00000	845852
2.00367	665563
2.00733	499678
2.01100	361904
2.01467	255746
2.01833	178215
2.02200	123658
2.02567	86188
2.02933	60821
2.03300	43751
2.03667	32260
2.04033	24472
2.04400	19124
2.04767	15379
2.05133	12697
2.05500	10728
2.05867	9247
2.06233	8104
2.06600	7200
2.06967	6469
2.07333	5866
2.07700	5357
2.08067	4923
2.08433	4550
2.08800	4227
2.09167	3947
2.09533	3701
2.09900	3484
2.10267	3292
2.10633	3117
2.11000	2955
2.11367	2806
2.11733	2669
2.12100	2539
2.12467	2417
2.12833	2301
2.13200	2191
2.13567	2092
2.13933	2003
2.14300	1926
2.14667	1858
2.15033	1797
2.15400	1739
2.15767	1683
2.16133	1629
2.16500	1574
2.16867	1521
2.17233	1475
2.17600	1431
2.17967	1390
2.18333	1349
2.18700	1311
2.19067	1272
2.19433	1232
2.19800	1191
2.20167	1154
2.20533	1124
2.20900	1095
2.21267	1064
2.21633	1033
2.22000	1005
2.22367	980
2.22733	958
2.23100	938
2.23467	919
2.23833	904
2.24200	892
2.24567	879
2.24933	866
2.25300	852
2.25667	836
2.26033	817
2.26400	792
2.26767	765
2.27133	739
2.27500	716
2.27867	698
2.28233	684
2.28600	673
2.28967	664
2.29333	652
2.29700	641
2.30067	630
2.30433	620
2.30800	615
2.31167	611
2.31533	604
2.31900	591
2.32267	579
2.32633	570
2.33000	564
2.33367	557
2.33733	551
2.34100	547
2.34467	546
2.34833	544
2.35200	541
2.35567	537
2.35933	528
2.36300	514
2.36667	500
2.37033	489
2.37400	475
2.37767	462
2.38133	456
2.38500	456
2.38867	457
2.39233	457
2.39600	458
2.39967	454
2.40333	446
2.40700	438
2.41067	432
2.41433	423
2.41800	412
2.42167	405
2.42533	404
2.42900	405
2.43267	406
2.43633	407
2.44000	409
2.44367	408
2.44733	403
2.45100	393
2.45467	383
2.45833	376
2.46200	371
2.46567	366
2.46933	363
2.47300	364
2.47667	364
2.48033	366
2.48400	369
2.48767	371
2.49133	372
2.49500	372
2.49867	369
2.50233	366
2.50600	365
2.50967	368
2.51333	373
2.51700	379
2.52067	381
2.52433	381
2.52800	381
2.53167	379
2.53533	374
2.53900	367
2.54267	360
2.54633	351
2.55000	341
2.55367	337
2.55733	338
2.56100	341
2.56467	344
2.56833	349
2.57200	349
2.57567	344
2.57933	336
2.58300	329
2.58667	324
2.59033	320
2.59400	318
2.59767	317
2.60133	316
2.60500	317
2.60867	318
2.61233	318
2.61600	318
2.61967	318
2.62333	318
2.62700	319
2.63067	321
2.63433	323
2.63800	322
2.64167	317
2.64533	312
2.64900	313
2.65267	319
2.65633	322
2.66000	322
2.66367	321
2.66733	319
2.67100	317
2.67467	316
2.67833	317
2.68200	320
2.68567	324
2.68933	329
2.69300	333
2.69667	335
2.70033	339
2.70400	341
2.70767	339
2.71133	337
2.71500	333
2.71867	327
2.72233	316
2.72600	308
2.72967	302
2.73333	303
2.73700	305
2.74067	306
2.74433	303
2.74800	298
2.75167	294
2.75533	290
2.75900	288
2.76267	285
2.76633	284
2.77000	285
2.77367	290
2.77733	297
2.78100	301
2.78467	304
2.78833	306
2.79200	306
2.79567	305
2.79933	301
2.80300	298
2.80667	297
2.81033	298
2.81400	303
2.81767	313
2.82133	325
2.82500	334
2.82867	337
2.83233	332
2.83600	325
2.83967	321
2.84333	322
2.84700	321
2.85067	315
2.85433	307
2.85800	304
2.86167	305
2.86533	309
2.86900	316
2.87267	323
2.87633	327
2.88000	331
2.88367	336
2.88733	341
2.89100	344
2.89467	343
2.89833	339
2.90200	333
2.90567	328
2.90933	328
2.91300	332
2.91667	335
2.92033	332
2.92400	324
2.92767	314
2.93133	306
2.93500	302
2.93867	303
2.94233	308
2.94600	311
2.94967	314
2.95333	320
2.95700	326
2.96067	332
2.96433	336
2.96800	342
2.97167	348
2.97533	352
2.97900	350
2.98267	346
2.98633	345
2.99000	346
2.99367	347
2.99733	346
3.00100	345
3.00467	342
3.00833	341
3.01200	340
3.01567	338
3.01933	337
3.02300	338
3.02667	336
3.03033	333
3.03400	331
3.03767	332
3.04133	334
3.04500	334
3.04867	330
3.05233	324
3.05600	319
3.05967	316
3.06333	317
3.06700	323
3.07067	329
3.07433	336
3.07800	341
3.08167	343
3.08533	341
3.08900	337
3.09267	333
3.09633	329
3.10000	325
3.10367	324
3.10733	326
3.11100	328
3.11467	329
3.11833	331
3.12200	333
3.12567	336
3.12933	339
3.13300	341
3.13667	342
3.14033	342
3.14400	341
3.14767	342
3.15133	343
3.15500	338
3.15867	331
3.16233	326
3.16600	322
3.16967	320
3.17333	313
3.17700	307
3.18067	307
3.18433	310
3.18800	314
3.19167	315
3.19533	314
3.19900	313
3.20267	314
3.20633	315
3.21000	312
3.21367	306
3.21733	302
3.22100	302
3.22467	305
3.22833	312
3.23200	318
3.23567	320
3.23933	324
3.24300	331
3.24667	335
3.25033	333
3.25400	323
3.25767	316
3.26133	312
3.26500	307
3.26867	307
3.27233	314
3.27600	321
3.27967	328
3.28333	332
3.28700	331
3.29067	327
3.29433	323
3.29800	319
3.30167	315
3.30533	312
3.30900	312
3.31267	314
3.31633	315
3.32000	314
3.32367	317
3.32733	325
3.33100	331
3.33467	332
3.33833	331
3.34200	328
3.34567	322
3.34933	315
3.35300	307
3.35667	300
3.36033	296
3.36400	294
3.36767	293
3.37133	293
3.37500	293
3.37867	288
3.38233	280
3.38600	272
3.38967	266
3.39333	266
3.39700	269
3.40067	273
3.40433	275
3.40800	279
3.41167	284
3.41533	293
3.41900	304
3.42267	313
3.42633	316
3.43000	317
3.43367	316
3.43733	314
3.44100	311
3.44467	309
3.44833	306
3.45200	304
3.45567	304
3.45933	305
3.46300	307
3.46667	308
3.47033	305
3.47400	299
3.47767	290
3.48133	282
3.48500	278
3.48867	280
3.49233	283
3.49600	288
3.49967	294
3.50333	298
3.50700	300
3.51067	303
3.51433	303
3.51800	303
3.52167	304
3.52533	302
3.52900	297
3.53267	291
3.53633	286
3.54000	282
3.54367	280
3.54733	278
3.55100	275
3.55467	272
3.55833	272
3.56200	276
3.56567	280
3.56933	284
3.57300	284
3.57667	285
3.58033	286
3.58400	287
3.58767	287
3.59133	284
3.59500	286
3.59867	292
3.60233	295
3.60600	293
3.60967	287
3.61333	279
3.61700	273
3.62067	271
3.62433	272
3.62800	275
3.63167	276
3.63533	274
3.63900	271
3.64267	269
3.64633	268
3.65000	266
3.65367	267
3.65733	269
3.66100	272
3.66467	275
3.66833	280
3.67200	283
3.67567	286
3.67933	288
3.68300	291
3.68667	296
3.69033	299
3.69400	298
3.69767	290
3.70133	280
3.70500	269
3.70867	257
3.71233	246
3.71600	238
3.71967	235
3.72333	235
3.72700	235
3.73067	235
3.73433	233
3.73800	233
3.74167	237
3.74533	245
3.74900	252
3.75267	255
3.75633	253
3.76000	248
3.76367	243
3.76733	241
3.77100	245
3.77467	250
3.77833	255
3.78200	258
3.78567	260
3.78933	260
3.79300	259
3.79667	258
3.80033	259
3.80400	260
3.80767	260
3.81133	261
3.81500	264
3.81867	266
3.82233	263
3.82600	255
3.82967	247
3.83333	240
3.83700	237
3.84067	237
3.84433	241
3.84800	248
3.85167	255
3.85533	262
3.85900	265
3.86267	266
3.86633	264
3.87000	259
3.87367	253
3.87733	249
3.88100	248
3.88467	248
3.88833	250
3.89200	252
3.89567	251
3.89933	248
3.90300	246
3.90667	243
3.91033	239
3.91400	239
3.91767	242
3.92133	246
3.92500	247
3.92867	247
3.93233	247
3.93600	246
3.93967	245
3.94333	245
3.94700	249
3.95067	252
3.95433	251
3.95800	253
3.96167	260
3.96533	265
3.96900	265
3.97267	263
3.97633	259
3.98000	256
3.98367	254
3.98733	254
3.99100	256
3.99467	259
3.99833	259

[Chromatogram (Ch2)]
Interval(msec)	220
# of Points	1091
Start Time(min)	0.002
End Time(min)	3.998
R.Time (min)	Intensity
0.00167	1
0.00533	1
0.00900	0
0.01267	0
0.01633	-0
0.02000	-0
0.02367	-1
0.02733	-1
0.03100	-1
0.03467	-1
0.03833	-1
0.04200	-1
0.04567	-1
0.04933	-2
0.05300	-2
0.05667	-3
0.06033	-3
0.06400	-4
0.06767	-4
0.07133	-4
0.07500	-3
0.07867	-2
0.08233	-2
0.08600	-1
0.08967	-2
0.09333	-2
0.09700	-2
0.10067	-2
0.10433	-2
0.10800	-1
0.11167	-1
0.11533	-1
0.11900	-1
0.12267	-1
0.12633	-1
0.13000	-2
0.13367	-2
0.13733	-2
0.14100	-2
0.14467	-1
0.14833	-0
0.15200	0
0.15567	1
0.15933	1
0.16300	1
0.16667	1
0.17033	1
0.17400	-0
0.17767	-1
0.18133	-2
0.18500	-2
0.18867	-3
0.19233	-3
0.19600	-3
0.19967	-3
0.20333	-2
0.20700	-2
0.21067	-2
0.21433	-1
0.21800	-1
0.22167	-2
0.22533	-2
0.22900	-2
0.23267	-2
0.23633	-1
0.24000	-1
0.24367	-1
0.24733	-1
0.25100	-1
0.25467	-1
0.25833	-1
0.26200	-1
0.26567	-1
0.26933	-2
0.27300	-2
0.27667	-3
0.28033	-3
0.28400	-4
0.28767	-5
0.29133	-5
0.29500	-5
0.29867	-4
0.30233	-4
0.30600	-3
0.30967	-3
0.31333	-2
0.31700	-2
0.32067	-1
0.32433	-1
0.32800	-1
0.33167	-2
0.33533	-2
0.33900	-2
0.34267	-2
0.34633	-2
0.35000	-2
0.35367	-1
0.35733	-1
0.36100	-1
0.36467	-1
0.36833	-1
0.37200	-1
0.37567	-1
0.37933	-1
0.38300	-1
0.38667	-0
0.39033	-0
0.39400	-1
0.39767	-1
0.40133	-1
0.40500	-2
0.40867	-2
0.41233	-3
0.41600	-3
0.41967	-3
0.42333	-3
0.42700	-4
0.43067	-4
0.43433	-4
0.43800	-4
0.44167	-4
0.44533	-3
0.44900	-3
0.45267	-2
0.45633	-1
0.46000	-1
0.46367	-1
0.46733	-1
0.47100	-1
0.47467	-1
0.47833	-1
0.48200	-1
0.48567	-1
0.48933	-1
0.49300	-1
0.49667	-1
0.50033	-0
0.50400	-0
0.50767	-0
0.51133	-0
0.51500	-1
0.51867	-1
0.52233	-1
0.52600	-1
0.52967	-1
0.53333	-1
0.53700	-1
0.54067	-2
0.54433	-2
0.54800	-2
0.55167	-2
0.55533	-2
0.55900	-2
0.56267	-2
0.56633	-2
0.57000	-2
0.57367	-1
0.57733	-1
0.58100	-1
0.58467	-1
0.58833	-1
0.59200	-0
0.59567	0
0.59933	1
0.60300	1
0.60667	2
0.61033	2
0.61400	2
0.61767	2
0.62133	2
0.62500	2
0.62867	1
0.63233	1
0.63600	1
0.63967	1
0.64333	1
0.64700	1
0.65067	1
0.65433	2
0.65800	2
0.66167	2
0.66533	1
0.66900	1
0.67267	-0
0.67633	-1
0.68000	-1
0.68367	-2
0.68733	-2
0.69100	-2
0.69467	-2
0.69833	-2
0.70200	-1
0.70567	-1
0.70933	-1
0.71300	-1
0.71667	-1
0.72033	-0
0.72400	0
0.72767	0
0.73133	1
0.73500	1
0.73867	1
0.74233	1
0.74600	1
0.74967	1
0.75333	2
0.75700	2
0.76067	2
0.76433	2
0.76800	2
0.77167	1
0.77533	1
0.77900	1
0.78267	1
0.78633	0
0.79000	-0
0.79367	-1
0.79733	-1
0.80100	-2
0.80467	-2
0.80833	-3
0.81200	-3
0.81567	-3
0.81933	-3
0.82300	-2
0.82667	-2
0.83033	-2
0.83400	-2
0.83767	-2
0.84133	-2
0.84500	-2
0.84867	-2
0.85233	-2
0.85600	-3
0.85967	-3
0.86333	-3
0.86700	-3
0.87067	-3
0.87433	-3
0.87800	-2
0.88167	-2
0.88533	-2
0.88900	-2
0.89267	-2
0.89633	-2
0.90000	-2
0.90367	-2
0.90733	-1
0.91100	-1
0.91467	-1
0.91833	-2
0.92200	-2
0.92567	-1
0.92933	-2
0.93300	-2
0.93667	-2
0.94033	-2
0.94400	-2
0.94767	-2
0.95133	-1
0.95500	-1
0.95867	-0
0.96233	-0
0.96600	0
0.96967	0
0.97333	0
0.97700	-0
0.98067	-0
0.98433	-0
0.98800	-1
0.99167	-1
0.99533	-1
0.99900	-1
1.00267	-1
1.00633	-1
1.01000	-1
1.01367	-2
1.01733	-2
1.02100	-2
1.02467	-2
1.02833	-2
1.03200	-2
1.03567	-2
1.03933	-2
1.04300	-2
1.04667	-2
1.05033	-2
1.05400	-3
1.05767	-3
1.06133	-3
1.06500	-4
1.06867	-4
1.07233	-4
1.07600	-4
1.07967	-4
1.08333	-4
1.08700	-4
1.09067	-4
1.09433	-4
1.09800	-4
1.10167	-4
1.10533	-4
1.10900	-4
1.11267	-5
1.11633	-5
1.12000	-4
1.12367	-4
1.12733	-4
1.13100	-4
1.13467	-4
1.13833	-4
1.14200	-4
1.14567	-4
1.14933	-3
1.15300	-3
1.15667	-3
1.16033	-3
1.16400	-3
1.16767	-3
1.17133	-3
1.17500	-3
1.17867	-3
1.18233	-3
1.18600	-2
1.18967	-2
1.19333	-2
1.19700	-2
1.20067	-2
1.20433	-2
1.20800	-2
1.21167	-2
1.21533	-2
1.21900	-2
1.22267	-2
1.22633	-2
1.23000	-2
1.23367	-2
1.23733	-2
1.24100	-2
1.24467	-2
1.24833	-2
1.25200	-2
1.25567	-2
1.25933	-2
1.26300	-3
1.26667	-3
1.27033	-4
1.27400	-4
1.27767	-5
1.28133	-5
1.28500	-5
1.28867	-5
1.29233	-5
1.29600	-5
1.29967	-4
1.30333	-4
1.30700	-4
1.31067	-4
1.31433	-4
1.31800	-4
1.32167	-3
1.32533	-3
1.32900	-3
1.33267	-3
1.33633	-2
1.34000	-2
1.34367	-2
1.34733	-1
1.35100	-1
1.35467	-1
1.35833	-1
1.36200	-1
1.36567	-1
1.36933	-1
1.37300	-1
1.37667	-2
1.38033	-2
1.38400	-1
1.38767	-1
1.39133	-1
1.39500	-1
1.39867	-1
1.40233	-2
1.40600	-2
1.40967	-3
1.41333	-3
1.41700	-3
1.42067	-3
1.42433	-3
1.42800	-3
1.43167	-3
1.43533	-3
1.43900	-3
1.44267	-3
1.44633	-3
1.45000	-3
1.45367	-3
1.45733	-3
1.46100	-2
1.46467	-2
1.46833	-2
1.47200	-2
1.47567	-2
1.47933	-2
1.48300	-3
1.48667	-3
1.49033	-4
1.49400	-5
1.49767	-5
1.50133	-6
1.50500	-6
1.50867	-6
1.51233	-7
1.51600	-7
1.51967	-7
1.52333	-7
1.52700	-7
1.53067	-7
1.53433	-7
1.53800	-7
1.54167	-7
1.54533	-7
1.54900	-7
1.55267	-7
1.55633	-6
1.56000	-6
1.56367	-5
1.56733	-4
1.57100	-4
1.57467	-4
1.57833	-4
1.58200	-3
1.58567	-3
1.58933	-3
1.59300	-4
1.59667	-4
1.60033	-5
1.60400	-6
1.60767	-7
1.61133	-8
1.61500	-10
1.61867	-12
1.62233	-15
1.62600	-19
1.62967	-22
1.63333	-26
1.63700	-30
1.64067	-33
1.64433	-36
1.64800	-39
1.65167	-41
1.65533	-44
1.65900	-48
1.66267	-51
1.66633	-54
1.67000	-58
1.67367	-62
1.67733	-67
1.68100	-71
1.68467	-75
1.68833	-79
1.69200	-83
1.69567	-86
1.69933	-89
1.70300	-91
1.70667	-93
1.71033	-94
1.71400	-95
1.71767	-95
1.72133	-96
1.72500	-97
1.72867	-98
1.73233	-99
1.73600	-99
1.73967	-100
1.74333	-100
1.74700	-100
1.75067	-100
1.75433	-101
1.75800	-101
1.76167	-102
1.76533	-102
1.76900	-103
1.77267	-103
1.77633	-103
1.78000	-103
1.78367	-104
1.78733	-104
1.79100	-104
1.79467	-104
1.79833	-105
1.80200	-105
1.80567	-105
1.80933	-106
1.81300	-107
1.81667	-108
1.82033	-108
1.82400	-108
1.82767	-108
1.83133	-107
1.83500	-107
1.83867	-107
1.84233	-107
1.84600	-107
1.84967	-107
1.85333	-107
1.85700	-107
1.86067	-106
1.86433	-106
1.86800	-106
1.87167	-105
1.87533	-105
1.87900	-104
1.88267	-104
1.88633	-104
1.89000	-104
1.89367	-105
1.89733	-106
1.90100	-106
1.90467	-106
1.90833	-105
1.91200	-104
1.91567	-103
1.91933	-103
1.92300	-103
1.92667	-102
1.93033	-102
1.93400	-101
1.93767	-100
1.94133	-99
1.94500	-98
1.94867	-98
1.95233	-97
1.95600	-97
1.95967	-97
1.96333	-97
1.96700	-97
1.97067	-97
1.97433	-98
1.97800	-98
1.98167	-98
1.98533	-98
1.98900	-98
1.99267	-98
1.99633	-98
2.00000	-98
2.00367	-99
2.00733	-100
2.01100	-101
2.01467	-102
2.01833	-103
2.02200	-104
2.02567	-105
2.02933	-105
2.03300	-105
2.03667	-105
2.04033	-104
2.04400	-102
2.04767	-101
2.05133	-100
2.05500	-99
2.05867	-99
2.06233	-100
2.06600	-100
2.06967	-101
2.07333	-101
2.07700	-101
2.08067	-101
2.08433	-99
2.08800	-98
2.09167	-96
2.09533	-95
2.09900	-93
2.10267	-93
2.10633	-93
2.11000	-94
2.11367	-95
2.11733	-96
2.12100	-97
2.12467	-97
2.12833	-97
2.13200	-96
2.13567	-95
2.13933	-94
2.14300	-93
2.14667	-93
2.15033	-93
2.15400	-93
2.15767	-93
2.16133	-94
2.16500	-94
2.16867	-94
2.17233	-94
2.17600	-94
2.17967	-94
2.18333	-95
2.18700	-95
2.19067	-95
2.19433	-95
2.19800	-94
2.20167	-93
2.20533	-93
2.20900	-92
2.21267	-92
2.21633	-91
2.22000	-90
2.22367	-90
2.22733	-89
2.23100	-88
2.23467	-88
2.23833	-87
2.24200	-87
2.24567	-87
2.24933	-87
2.25300	-86
2.25667	-86
2.26033	-85
2.26400	-85
2.26767	-84
2.27133	-84
2.27500	-84
2.27867	-84
2.28233	-83
2.28600	-83
2.28967	-82
2.29333	-81
2.29700	-80
2.30067	-80
2.30433	-79
2.30800	-79
2.31167	-79
2.31533	-79
2.31900	-79
2.32267	-79
2.32633	-79
2.33000	-79
2.33367	-78
2.33733	-77
2.34100	-77
2.34467	-77
2.34833	-78
2.35200	-79
2.35567	-80
2.35933	-81
2.36300	-80
2.36667	-79
2.37033	-78
2.37400	-75
2.37767	-72
2.38133	-68
2.38500	-65
2.38867	-60
2.39233	-55
2.39600	-50
2.39967	-45
2.40333	-40
2.40700	-35
2.41067	-31
2.41433	-27
2.41800	-24
2.42167	-21
2.42533	-19
2.42900	-17
2.43267	-15
2.43633	-13
2.44000	-11
2.44367	-10
2.44733	-9
2.45100	-8
2.45467	-7
2.45833	-6
2.46200	-5
2.46567	-4
2.46933	-3
2.47300	-2
2.47667	-1
2.48033	0
2.48400	2
2.48767	3
2.49133	4
2.49500	4
2.49867	5
2.50233	6
2.50600	6
2.50967	6
2.51333	6
2.51700	7
2.52067	8
2.52433	9
2.52800	10
2.53167	11
2.53533	11
2.53900	10
2.54267	9
2.54633	8
2.55000	7
2.55367	5
2.55733	4
2.56100	4
2.56467	3
2.56833	2
2.57200	3
2.57567	3
2.57933	3
2.58300	4
2.58667	4
2.59033	5
2.59400	5
2.59767	5
2.60133	5
2.60500	5
2.60867	6
2.61233	6
2.61600	6
2.61967	7
2.62333	7
2.62700	7
2.63067	7
2.63433	7
2.63800	8
2.64167	8
2.64533	9
2.64900	10
2.65267	10
2.65633	10
2.66000	10
2.66367	10
2.66733	10
2.67100	10
2.67467	11
2.67833	11
2.68200	11
2.68567	12
2.68933	12
2.69300	12
2.69667	12
2.70033	13
2.70400	13
2.70767	13
2.71133	14
2.71500	14
2.71867	14
2.72233	14
2.72600	14
2.72967	15
2.73333	15
2.73700	15
2.74067	15
2.74433	15
2.74800	15
2.75167	15
2.75533	15
2.75900	15
2.76267	15
2.76633	15
2.77000	15
2.77367	15
2.77733	15
2.78100	15
2.78467	15
2.78833	15
2.79200	15
2.79567	16
2.79933	16
2.80300	15
2.80667	15
2.81033	15
2.81400	14
2.81767	14
2.82133	14
2.82500	14
2.82867	14
2.83233	14
2.83600	14
2.83967	13
2.84333	14
2.84700	14
2.85067	13
2.85433	13
2.85800	13
2.86167	11
2.86533	8
2.86900	2
2.87267	-6
2.87633	-19
2.88000	-35
2.88367	-56
2.88733	-82
2.89100	-113
2.89467	-149
2.89833	-190
2.90200	-236
2.90567	-287
2.90933	-341
2.91300	-398
2.91667	-458
2.92033	-519
2.92400	-580
2.92767	-642
2.93133	-703
2.93500	-763
2.93867	-820
2.94233	-874
2.94600	-926
2.94967	-980
2.95333	-1035
2.95700	-1082
2.96067	-1112
2.96433	-1117
2.96800	-1098
2.97167	-1056
2.97533	-997
2.97900	-925
2.98267	-847
2.98633	-767
2.99000	-688
2.99367	-611
2.99733	-539
3.00100	-472
3.00467	-412
3.00833	-358
3.01200	-310
3.01567	-268
3.01933	-231
3.02300	-199
3.02667	-171
3.03033	-147
3.03400	-126
3.03767	-107
3.04133	-91
3.04500	-78
3.04867	-66
3.05233	-57
3.05600	-48
3.05967	-42
3.06333	-36
3.06700	-31
3.07067	-26
3.07433	-22
3.07800	-19
3.08167	-17
3.08533	-14
3.08900	-12
3.09267	-11
3.09633	-9
3.10000	-7
3.10367	-6
3.10733	-5
3.11100	-3
3.11467	-1
3.11833	-0
3.12200	0
3.12567	1
3.12933	1
3.13300	2
3.13667	2
3.14033	2
3.14400	3
3.14767	3
3.15133	3
3.15500	4
3.15867	4
3.16233	5
3.16600	5
3.16967	5
3.17333	5
3.17700	5
3.18067	5
3.18433	5
3.18800	5
3.19167	6
3.19533	6
3.19900	6
3.20267	7
3.20633	8
3.21000	8
3.21367	8
3.21733	9
3.22100	9
3.22467	9
3.22833	9
3.23200	8
3.23567	8
3.23933	8
3.24300	8
3.24667	8
3.25033	8
3.25400	8
3.25767	8
3.26133	9
3.26500	9
3.26867	9
3.27233	9
3.27600	9
3.27967	9
3.28333	9
3.28700	9
3.29067	9
3.29433	10
3.29800	10
3.30167	10
3.30533	10
3.30900	10
3.31267	11
3.31633	11
3.32000	12
3.32367	13
3.32733	14
3.33100	14
3.33467	13
3.33833	13
3.34200	13
3.34567	13
3.34933	14
3.35300	14
3.35667	15
3.36033	15
3.36400	15
3.36767	16
3.37133	16
3.37500	16
3.37867	16
3.38233	16
3.38600	16
3.38967	16
3.39333	16
3.39700	15
3.40067	15
3.40433	15
3.40800	15
3.41167	15
3.41533	15
3.41900	15
3.42267	15
3.42633	15
3.43000	16
3.43367	16
3.43733	16
3.44100	16
3.44467	16
3.44833	16
3.45200	16
3.45567	16
3.45933	16
3.46300	16
3.46667	16
3.47033	16
3.47400	16
3.47767	16
3.48133	16
3.48500	15
3.48867	16
3.49233	16
3.49600	17
3.49967	18
3.50333	19
3.50700	20
3.51067	19
3.51433	19
3.51800	18
3.52167	17
3.52533	16
3.52900	15
3.53267	15
3.53633	15
3.54000	14
3.54367	14
3.54733	14
3.55100	14
3.55467	13
3.55833	13
3.56200	13
3.56567	13
3.56933	13
3.57300	13
3.57667	13
3.58033	14
3.58400	14
3.58767	14
3.59133	15
3.59500	15
3.59867	14
3.60233	14
3.60600	15
3.60967	15
3.61333	15
3.61700	16
3.62067	16
3.62433	16
3.62800	15
3.63167	15
3.63533	14
3.63900	14
3.64267	14
3.64633	14
3.65000	14
3.65367	14
3.65733	14
3.66100	14
3.66467	13
3.66833	13
3.67200	13
3.67567	13
3.67933	13
3.68300	13
3.68667	14
3.69033	15
3.69400	15
3.69767	15
3.70133	15
3.70500	16
3.70867	16
3.71233	17
3.71600	17
3.71967	18
3.72333	18
3.72700	19
3.73067	19
3.73433	19
3.73800	20
3.74167	20
3.74533	20
3.74900	20
3.75267	21
3.75633	21
3.76000	21
3.76367	21
3.76733	21
3.77100	21
3.77467	21
3.77833	22
3.78200	22
3.78567	22
3.78933	22
3.79300	22
3.79667	21
3.80033	21
3.80400	21
3.80767	21
3.81133	20
3.81500	20
3.81867	20
3.82233	20
3.82600	20
3.82967	20
3.83333	20
3.83700	20
3.84067	20
3.84433	20
3.84800	20
3.85167	20
3.85533	20
3.85900	20
3.86267	20
3.86633	20
3.87000	20
3.87367	20
3.87733	20
3.88100	20
3.88467	21
3.88833	21
3.89200	21
3.89567	21
3.89933	21
3.90300	21
3.90667	21
3.91033	21
3.91400	21
3.91767	21
3.92133	21
3.92500	21
3.92867	21
3.93233	21
3.93600	21
3.93967	21
3.94333	21
3.94700	21
3.95067	20
3.95433	20
3.95800	20
3.96167	20
3.96533	21
3.96900	21
3.97267	21
3.97633	21
3.98000	21
3.98367	21
3.98733	21
3.99100	21
3.99467	21
3.99833	21

[Chromatogram (Ch3)]
Interval(msec)	220
# of Points	1091
Start Time(min)	0.002
End Time(min)	3.998
R.Time (min)	Intensity
0.00167	0
0.00533	1
0.00900	2
0.01267	5
0.01633	6
0.02000	6
0.02367	5
0.02733	4
0.03100	3
0.03467	3
0.03833	3
0.04200	4
0.04567	5
0.04933	4
0.05300	3
0.05667	4
0.06033	7
0.06400	7
0.06767	8
0.07133	7
0.07500	3
0.07867	3
0.08233	-0
0.08600	-3
0.08967	-4
0.09333	-2
0.09700	1
0.10067	1
0.10433	1
0.10800	3
0.11167	5
0.11533	5
0.11900	5
0.12267	7
0.12633	8
0.13000	8
0.13367	7
0.13733	6
0.14100	8
0.14467	10
0.14833	9
0.15200	8
0.15567	8
0.15933	8
0.16300	7
0.16667	4
0.17033	3
0.17400	3
0.17767	2
0.18133	2
0.18500	3
0.18867	6
0.19233	9
0.19600	9
0.19967	6
0.20333	4
0.20700	7
0.21067	9
0.21433	10
0.21800	8
0.22167	7
0.22533	7
0.22900	9
0.23267	10
0.23633	12
0.24000	11
0.24367	10
0.24733	11
0.25100	9
0.25467	8
0.25833	8
0.26200	9
0.26567	9
0.26933	9
0.27300	9
0.27667	9
0.28033	7
0.28400	6
0.28767	6
0.29133	3
0.29500	3
0.29867	6
0.30233	9
0.30600	12
0.30967	13
0.31333	14
0.31700	12
0.32067	10
0.32433	9
0.32800	9
0.33167	9
0.33533	9
0.33900	11
0.34267	12
0.34633	10
0.35000	9
0.35367	7
0.35733	4
0.36100	2
0.36467	3
0.36833	4
0.37200	4
0.37567	5
0.37933	6
0.38300	6
0.38667	6
0.39033	5
0.39400	6
0.39767	8
0.40133	10
0.40500	12
0.40867	12
0.41233	11
0.41600	12
0.41967	12
0.42333	11
0.42700	9
0.43067	10
0.43433	12
0.43800	11
0.44167	11
0.44533	12
0.44900	13
0.45267	14
0.45633	11
0.46000	9
0.46367	10
0.46733	13
0.47100	14
0.47467	15
0.47833	14
0.48200	12
0.48567	10
0.48933	10
0.49300	10
0.49667	11
0.50033	12
0.50400	13
0.50767	14
0.51133	14
0.51500	14
0.51867	12
0.52233	11
0.52600	10
0.52967	9
0.53333	10
0.53700	11
0.54067	10
0.54433	10
0.54800	11
0.55167	12
0.55533	13
0.55900	13
0.56267	15
0.56633	16
0.57000	16
0.57367	16
0.57733	17
0.58100	17
0.58467	17
0.58833	16
0.59200	15
0.59567	14
0.59933	13
0.60300	13
0.60667	12
0.61033	12
0.61400	12
0.61767	13
0.62133	13
0.62500	12
0.62867	11
0.63233	13
0.63600	13
0.63967	13
0.64333	11
0.64700	10
0.65067	7
0.65433	7
0.65800	8
0.66167	8
0.66533	9
0.66900	13
0.67267	14
0.67633	13
0.68000	14
0.68367	15
0.68733	15
0.69100	14
0.69467	13
0.69833	12
0.70200	11
0.70567	10
0.70933	10
0.71300	11
0.71667	14
0.72033	18
0.72400	19
0.72767	18
0.73133	15
0.73500	16
0.73867	16
0.74233	15
0.74600	16
0.74967	18
0.75333	18
0.75700	17
0.76067	15
0.76433	13
0.76800	13
0.77167	13
0.77533	12
0.77900	12
0.78267	14
0.78633	15
0.79000	14
0.79367	15
0.79733	17
0.80100	18
0.80467	17
0.80833	17
0.81200	19
0.81567	20
0.81933	19
0.82300	19
0.82667	21
0.83033	21
0.83400	21
0.83767	22
0.84133	22
0.84500	22
0.84867	22
0.85233	22
0.85600	22
0.85967	20
0.86333	19
0.86700	17
0.87067	16
0.87433	16
0.87800	17
0.88167	19
0.88533	21
0.88900	24
0.89267	26
0.89633	26
0.90000	24
0.90367	23
0.90733	23
0.91100	21
0.91467	22
0.91833	23
0.92200	25
0.92567	26
0.92933	26
0.93300	27
0.93667	28
0.94033	28
0.94400	29
0.94767	26
0.95133	24
0.95500	24
0.95867	23
0.96233	22
0.96600	20
0.96967	20
0.97333	23
0.97700	25
0.98067	26
0.98433	25
0.98800	26
0.99167	28
0.99533	29
0.99900	26
1.00267	27
1.00633	27
1.01000	25
1.01367	24
1.01733	26
1.02100	26
1.02467	27
1.02833	29
1.03200	29
1.03567	27
1.03933	27
1.04300	27
1.04667	26
1.05033	26
1.05400	26
1.05767	26
1.06133	25
1.06500	24
1.06867	23
1.07233	24
1.07600	25
1.07967	25
1.08333	25
1.08700	25
1.09067	26
1.09433	27
1.09800	27
1.10167	27
1.10533	27
1.10900	27
1.11267	27
1.11633	27
1.12000	25
1.12367	26
1.12733	27
1.13100	27
1.13467	26
1.13833	26
1.14200	28
1.14567	29
1.14933	31
1.15300	33
1.15667	34
1.16033	34
1.16400	31
1.16767	31
1.17133	32
1.17500	32
1.17867	29
1.18233	28
1.18600	29
1.18967	29
1.19333	28
1.19700	29
1.20067	29
1.20433	30
1.20800	30
1.21167	29
1.21533	27
1.21900	26
1.22267	27
1.22633	29
1.23000	31
1.23367	32
1.23733	32
1.24100	31
1.24467	31
1.24833	31
1.25200	30
1.25567	27
1.25933	26
1.26300	25
1.26667	24
1.27033	24
1.27400	25
1.27767	26
1.28133	26
1.28500	24
1.28867	24
1.29233	24
1.29600	28
1.29967	32
1.30333	33
1.30700	32
1.31067	31
1.31433	30
1.31800	30
1.32167	31
1.32533	30
1.32900	29
1.33267	30
1.33633	32
1.34000	32
1.34367	32
1.34733	32
1.35100	31
1.35467	31
1.35833	32
1.36200	31
1.36567	29
1.36933	29
1.37300	30
1.37667	30
1.38033	32
1.38400	35
1.38767	36
1.39133	37
1.39500	37
1.39867	35
1.40233	34
1.40600	33
1.40967	33
1.41333	34
1.41700	34
1.42067	35
1.42433	36
1.42800	36
1.43167	36
1.43533	37
1.43900	35
1.44267	32
1.44633	32
1.45000	33
1.45367	34
1.45733	34
1.46100	33
1.46467	33
1.46833	32
1.47200	32
1.47567	30
1.47933	29
1.48300	28
1.48667	30
1.49033	31
1.49400	31
1.49767	30
1.50133	33
1.50500	35
1.50867	35
1.51233	35
1.51600	35
1.51967	36
1.52333	36
1.52700	37
1.53067	37
1.53433	36
1.53800	37
1.54167	38
1.54533	38
1.54900	38
1.55267	37
1.55633	36
1.56000	35
1.56367	35
1.56733	37
1.57100	39
1.57467	40
1.57833	40
1.58200	37
1.58567	35
1.58933	36
1.59300	37
1.59667	36
1.60033	36
1.60400	37
1.60767	37
1.61133	37
1.61500	38
1.61867	39
1.62233	38
1.62600	39
1.62967	39
1.63333	38
1.63700	37
1.64067	36
1.64433	38
1.64800	40
1.65167	41
1.65533	42
1.65900	44
1.66267	47
1.66633	45
1.67000	46
1.67367	46
1.67733	44
1.68100	43
1.68467	41
1.68833	41
1.69200	39
1.69567	41
1.69933	42
1.70300	43
1.70667	44
1.71033	45
1.71400	46
1.71767	49
1.72133	50
1.72500	50
1.72867	50
1.73233	47
1.73600	45
1.73967	45
1.74333	46
1.74700	46
1.75067	46
1.75433	47
1.75800	47
1.76167	46
1.76533	45
1.76900	46
1.77267	47
1.77633	48
1.78000	49
1.78367	51
1.78733	51
1.79100	53
1.79467	53
1.79833	55
1.80200	54
1.80567	52
1.80933	50
1.81300	49
1.81667	49
1.82033	50
1.82400	53
1.82767	54
1.83133	56
1.83500	59
1.83867	59
1.84233	63
1.84600	66
1.84967	64
1.85333	64
1.85700	63
1.86067	60
1.86433	58
1.86800	59
1.87167	61
1.87533	62
1.87900	62
1.88267	63
1.88633	65
1.89000	67
1.89367	67
1.89733	68
1.90100	69
1.90467	66
1.90833	65
1.91200	65
1.91567	67
1.91933	69
1.92300	70
1.92667	69
1.93033	70
1.93400	69
1.93767	68
1.94133	70
1.94500	73
1.94867	74
1.95233	74
1.95600	74
1.95967	75
1.96333	77
1.96700	79
1.97067	82
1.97433	82
1.97800	81
1.98167	82
1.98533	82
1.98900	84
1.99267	88
1.99633	92
2.00000	93
2.00367	93
2.00733	93
2.01100	93
2.01467	92
2.01833	92
2.02200	95
2.02567	96
2.02933	97
2.03300	98
2.03667	98
2.04033	97
2.04400	98
2.04767	100
2.05133	101
2.05500	100
2.05867	99
2.06233	100
2.06600	102
2.06967	105
2.07333	107
2.07700	108
2.08067	110
2.08433	110
2.08800	110
2.09167	111
2.09533	112
2.09900	112
2.10267	112
2.10633	111
2.11000	112
2.11367	113
2.11733	113
2.12100	117
2.12467	118
2.12833	118
2.13200	120
2.13567	121
2.13933	121
2.14300	120
2.14667	121
2.15033	121
2.15400	121
2.15767	119
2.16133	117
2.16500	116
2.16867	116
2.17233	116
2.17600	120
2.17967	125
2.18333	127
2.18700	129
2.19067	130
2.19433	130
2.19800	130
2.20167	128
2.20533	127
2.20900	126
2.21267	124
2.21633	125
2.22000	128
2.22367	131
2.22733	132
2.23100	133
2.23467	133
2.23833	134
2.24200	136
2.24567	137
2.24933	140
2.25300	141
2.25667	140
2.26033	140
2.26400	142
2.26767	144
2.27133	144
2.27500	144
2.27867	142
2.28233	143
2.28600	143
2.28967	141
2.29333	140
2.29700	142
2.30067	144
2.30433	143
2.30800	143
2.31167	143
2.31533	145
2.31900	148
2.32267	147
2.32633	146
2.33000	145
2.33367	147
2.33733	149
2.34100	150
2.34467	149
2.34833	149
2.35200	149
2.35567	149
2.35933	149
2.36300	150
2.36667	150
2.37033	151
2.37400	151
2.37767	150
2.38133	148
2.38500	145
2.38867	144
2.39233	143
2.39600	144
2.39967	146
2.40333	149
2.40700	153
2.41067	155
2.41433	157
2.41800	157
2.42167	159
2.42533	158
2.42900	157
2.43267	156
2.43633	158
2.44000	163
2.44367	207
2.44733	291
2.45100	371
2.45467	432
2.45833	461
2.46200	459
2.46567	458
2.46933	482
2.47300	520
2.47667	554
2.48033	586
2.48400	620
2.48767	662
2.49133	711
2.49500	761
2.49867	803
2.50233	837
2.50600	862
2.50967	874
2.51333	875
2.51700	870
2.52067	864
2.52433	861
2.52800	860
2.53167	861
2.53533	866
2.53900	874
2.54267	882
2.54633	892
2.55000	902
2.55367	912
2.55733	922
2.56100	932
2.56467	941
2.56833	945
2.57200	943
2.57567	937
2.57933	929
2.58300	915
2.58667	898
2.59033	881
2.59400	864
2.59767	845
2.60133	830
2.60500	818
2.60867	811
2.61233	806
2.61600	800
2.61967	793
2.62333	786
2.62700	780
2.63067	775
2.63433	769
2.63800	763
2.64167	758
2.64533	754
2.64900	751
2.65267	747
2.65633	744
2.66000	742
2.66367	740
2.66733	740
2.67100	741
2.67467	744
2.67833	746
2.68200	750
2.68567	756
2.68933	761
2.69300	765
2.69667	772
2.70033	776
2.70400	779
2.70767	781
2.71133	784
2.71500	784
2.71867	781
2.72233	778
2.72600	774
2.72967	770
2.73333	767
2.73700	765
2.74067	760
2.74433	752
2.74800	747
2.75167	741
2.75533	734
2.75900	726
2.76267	717
2.76633	710
2.77000	703
2.77367	696
2.77733	692
2.78100	690
2.78467	688
2.78833	686
2.79200	682
2.79567	678
2.79933	675
2.80300	672
2.80667	669
2.81033	666
2.81400	664
2.81767	665
2.82133	666
2.82500	667
2.82867	668
2.83233	672
2.83600	684
2.83967	713
2.84333	775
2.84700	892
2.85067	1085
2.85433	1376
2.85800	1771
2.86167	2259
2.86533	2818
2.86900	3405
2.87267	3972
2.87633	4472
2.88000	4863
2.88367	5118
2.88733	5230
2.89100	5208
2.89467	5074
2.89833	4850
2.90200	4562
2.90567	4241
2.90933	3907
2.91300	3577
2.91667	3261
2.92033	2966
2.92400	2695
2.92767	2448
2.93133	2226
2.93500	2029
2.93867	1854
2.94233	1700
2.94600	1566
2.94967	1449
2.95333	1348
2.95700	1262
2.96067	1189
2.96433	1127
2.96800	1070
2.97167	1021
2.97533	978
2.97900	942
2.98267	910
2.98633	881
2.99000	857
2.99367	838
2.99733	820
3.00100	806
3.00467	795
3.00833	785
3.01200	776
3.01567	766
3.01933	755
3.02300	747
3.02667	742
3.03033	739
3.03400	736
3.03767	734
3.04133	730
3.04500	725
3.04867	723
3.05233	720
3.05600	717
3.05967	715
3.06333	713
3.06700	711
3.07067	708
3.07433	703
3.07800	700
3.08167	699
3.08533	697
3.08900	696
3.09267	695
3.09633	695
3.10000	696
3.10367	694
3.10733	691
3.11100	691
3.11467	690
3.11833	687
3.12200	682
3.12567	680
3.12933	680
3.13300	680
3.13667	679
3.14033	678
3.14400	677
3.14767	677
3.15133	678
3.15500	677
3.15867	678
3.16233	679
3.16600	679
3.16967	678
3.17333	675
3.17700	672
3.18067	670
3.18433	666
3.18800	661
3.19167	660
3.19533	662
3.19900	662
3.20267	661
3.20633	660
3.21000	661
3.21367	660
3.21733	660
3.22100	657
3.22467	653
3.22833	652
3.23200	653
3.23567	651
3.23933	651
3.24300	649
3.24667	648
3.25033	648
3.25400	648
3.25767	648
3.26133	647
3.26500	646
3.26867	645
3.27233	642
3.27600	638
3.27967	633
3.28333	630
3.28700	628
3.29067	627
3.29433	628
3.29800	629
3.30167	630
3.30533	629
3.30900	627
3.31267	624
3.31633	620
3.32000	616
3.32367	615
3.32733	615
3.33100	613
3.33467	611
3.33833	609
3.34200	605
3.34567	601
3.34933	598
3.35300	596
3.35667	594
3.36033	591
3.36400	588
3.36767	586
3.37133	585
3.37500	585
3.37867	584
3.38233	582
3.38600	579
3.38967	576
3.39333	571
3.39700	566
3.40067	564
3.40433	563
3.40800	564
3.41167	562
3.41533	557
3.41900	553
3.42267	549
3.42633	546
3.43000	546
3.43367	547
3.43733	546
3.44100	546
3.44467	546
3.44833	546
3.45200	544
3.45567	544
3.45933	542
3.46300	538
3.46667	535
3.47033	531
3.47400	528
3.47767	525
3.48133	524
3.48500	524
3.48867	524
3.49233	523
3.49600	520
3.49967	517
3.50333	513
3.50700	511
3.51067	508
3.51433	504
3.51800	501
3.52167	499
3.52533	498
3.52900	497
3.53267	495
3.53633	493
3.54000	492
3.54367	490
3.54733	489
3.55100	488
3.55467	487
3.55833	485
3.56200	485
3.56567	484
3.56933	483
3.57300	483
3.57667	481
3.58033	480
3.58400	477
3.58767	475
3.59133	472
3.59500	471
3.59867	470
3.60233	470
3.60600	469
3.60967	470
3.61333	469
3.61700	469
3.62067	467
3.62433	465
3.62800	464
3.63167	463
3.63533	463
3.63900	462
3.64267	459
3.64633	456
3.65000	454
3.65367	452
3.65733	451
3.66100	450
3.66467	448
3.66833	446
3.67200	445
3.67567	444
3.67933	445
3.68300	447
3.68667	449
3.69033	449
3.69400	448
3.69767	443
3.70133	438
3.70500	435
3.70867	433
3.71233	432
3.71600	429
3.71967	429
3.72333	429
3.72700	428
3.73067	427
3.73433	424
3.73800	424
3.74167	426
3.74533	428
3.74900	428
3.75267	427
3.75633	424
3.76000	421
3.76367	420
3.76733	418
3.77100	417
3.77467	415
3.77833	414
3.78200	414
3.78567	413
3.78933	412
3.79300	411
3.79667	410
3.80033	412
3.80400	412
3.80767	408
3.81133	403
3.81500	399
3.81867	397
3.82233	398
3.82600	399
3.82967	400
3.83333	401
3.83700	400
3.84067	398
3.84433	397
3.84800	394
3.85167	392
3.85533	392
3.85900	391
3.86267	390
3.86633	388
3.87000	387
3.87367	385
3.87733	384
3.88100	383
3.88467	381
3.88833	379
3.89200	377
3.89567	374
3.89933	373
3.90300	370
3.90667	367
3.91033	366
3.91400	368
3.91767	368
3.92133	366
3.92500	364
3.92867	360
3.93233	358
3.93600	358
3.93967	358
3.94333	356
3.94700	353
3.95067	351
3.95433	350
3.95800	347
3.96167	346
3.96533	345
3.96900	345
3.97267	344
3.97633	343
3.98000	343
3.98367	340
3.98733	336
3.99100	333
3.99467	332
3.99833	331

[Status Trace (Column Oven Temperature)]
Interval(msec)	1000
# of Points	240
Start Time(min)	0.013
End Time(min)	3.996
Intensity Units	
Intensity Multiplier	1
R.Time (min)	Intensity
0.01303	35.06
0.02970	35.06
0.04637	35.06
0.06303	35.05
0.07970	35.05
0.09637	35.05
0.11303	35.05
0.12970	35.05
0.14637	35.05
0.16303	35.05
0.17970	35.05
0.19637	35.04
0.21303	35.04
0.22970	35.05
0.24637	35.05
0.26303	35.04
0.27970	35.03
0.29637	35.04
0.31303	35.03
0.32970	35.02
0.34637	35.02
0.36303	35.02
0.37970	35.02
0.39637	35.04
0.41303	35.04
0.42970	35.05
0.44637	35.05
0.46303	35.05
0.47970	35.03
0.49637	35.03
0.51303	35.02
0.52970	35.02
0.54637	35.03
0.56303	35.03
0.57970	35.03
0.59637	35.02
0.61303	35.02
0.62970	35.01
0.64637	35.00
0.66303	35.01
0.67970	35.02
0.69637	35.01
0.71303	35.01
0.72970	35.00
0.74637	34.99
0.76303	34.99
0.77970	34.99
0.79637	35.00
0.81303	35.01
0.82970	35.01
0.84637	35.01
0.86303	35.01
0.87970	35.03
0.89637	35.02
0.91303	35.02
0.92970	35.02
0.94637	35.01
0.96303	35.00
0.97970	34.99
0.99637	34.99
1.01303	34.98
1.02970	34.98
1.04637	34.99
1.06303	35.00
1.07970	35.01
1.09637	35.01
1.11303	35.01
1.12970	35.01
1.14637	35.01
1.16303	35.01
1.17970	35.00
1.19637	35.00
1.21303	35.01
1.22970	35.00
1.24637	35.00
1.26303	35.00
1.27970	35.00
1.29637	34.99
1.31303	34.99
1.32970	34.99
1.34637	34.99
1.36303	34.97
1.37970	34.96
1.39637	34.95
1.41303	34.96
1.42970	34.97
1.44637	34.96
1.46303	34.96
1.47970	34.97
1.49637	34.99
1.51303	35.00
1.52970	35.02
1.54637	35.02
1.56303	35.02
1.57970	35.02
1.59637	35.04
1.61303	35.10
1.62970	35.23
1.64637	35.44
1.66303	35.70
1.67970	36.05
1.69637	36.40
1.71303	36.75
1.72970	37.10
1.74637	37.43
1.76303	37.76
1.77970	38.10
1.79637	38.43
1.81303	38.76
1.82970	39.09
1.84637	39.43
1.86303	39.75
1.87970	40.07
1.89637	40.40
1.91303	40.73
1.92970	41.06
1.94637	41.39
1.96303	41.72
1.97970	42.03
1.99637	42.35
2.01303	42.68
2.02970	43.01
2.04637	43.32
2.06303	43.65
2.07970	43.99
2.09637	44.31
2.11303	44.64
2.12970	44.96
2.14637	45.28
2.16303	45.60
2.17970	45.93
2.19637	46.24
2.21303	46.58
2.22970	46.90
2.24637	47.27
2.26303	47.60
2.27970	47.92
2.29637	48.24
2.31303	48.59
2.32970	48.89
2.34637	49.22
2.36303	49.54
2.37970	49.70
2.39637	49.73
2.41303	49.72
2.42970	49.73
2.44637	49.71
2.46303	49.74
2.47970	49.73
2.49637	49.74
2.51303	49.75
2.52970	49.75
2.54637	49.76
2.56303	49.79
2.57970	49.78
2.59637	49.82
2.61303	49.82
2.62970	49.83
2.64637	49.83
2.66303	49.84
2.67970	49.84
2.69637	49.85
2.71303	49.85
2.72970	49.86
2.74637	49.86
2.76303	49.84
2.77970	49.86
2.79637	49.86
2.81303	49.87
2.82970	49.87
2.84637	49.88
2.86303	49.87
2.87970	49.88
2.89637	49.88
2.91303	49.89
2.92970	49.91
2.94637	49.92
2.96303	49.93
2.97970	49.95
2.99637	49.96
3.01303	49.98
3.02970	49.98
3.04637	50.00
3.06303	50.03
3.07970	50.03
3.09637	50.04
3.11303	50.04
3.12970	50.05
3.14637	50.04
3.16303	50.05
3.17970	50.06
3.19637	50.06
3.21303	50.06
3.22970	50.07
3.24637	50.08
3.26303	50.09
3.27970	50.10
3.29637	50.11
3.31303	50.11
3.32970	50.11
3.34637	50.08
3.36303	50.07
3.37970	50.06
3.39637	50.05
3.41303	50.05
3.42970	50.04
3.44637	50.04
3.46303	50.03
3.47970	50.02
3.49637	50.01
3.51303	50.01
3.52970	50.02
3.54637	50.04
3.56303	50.04
3.57970	50.05
3.59637	50.05
3.61303	50.04
3.62970	50.03
3.64637	50.04
3.66303	50.04
3.67970	50.04
3.69637	50.05
3.71303	50.06
3.72970	50.06
3.74637	50.07
3.76303	50.07
3.77970	50.07
3.79637	50.07
3.81303	50.08
3.82970	50.07
3.84637	50.07
3.86303	50.07
3.87970	50.07
3.89637	50.06
3.91303	50.06
3.92970	50.06
3.94637	50.07
3.96303	50.07
3.97970	50.07
3.99637	50.06

[Status Trace (Injection Unit Temperature)]
Interval(msec)	1000
# of Points	240
Start Time(min)	0.013
End Time(min)	3.996
Intensity Units	
Intensity Multiplier	1
R.Time (min)	Intensity
0.01303	99.97
0.02970	99.97
0.04637	99.97
0.06303	99.97
0.07970	99.98
0.09637	99.98
0.11303	99.97
0.12970	99.98
0.14637	99.98
0.16303	99.98
0.17970	99.98
0.19637	99.98
0.21303	99.98
0.22970	99.98
0.24637	99.98
0.26303	99.98
0.27970	99.98
0.29637	99.99
0.31303	99.98
0.32970	99.98
0.34637	99.98
0.36303	99.98
0.37970	99.98
0.39637	99.99
0.41303	99.99
0.42970	99.99
0.44637	99.98
0.46303	99.98
0.47970	99.98
0.49637	99.99
0.51303	99.99
0.52970	99.98
0.54637	99.98
0.56303	99.99
0.57970	99.99
0.59637	99.99
0.61303	99.98
0.62970	99.99
0.64637	99.98
0.66303	99.99
0.67970	99.99
0.69637	99.98
0.71303	99.98
0.72970	99.98
0.74637	99.99
0.76303	99.99
0.77970	99.98
0.79637	99.98
0.81303	99.99
0.82970	99.98
0.84637	99.98
0.86303	99.98
0.87970	99.98
0.89637	99.98
0.91303	99.98
0.92970	99.98
0.94637	99.98
0.96303	99.98
0.97970	99.98
0.99637	99.98
1.01303	99.98
1.02970	99.98
1.04637	99.98
1.06303	99.98
1.07970	99.98
1.09637	99.98
1.11303	99.98
1.12970	99.98
1.14637	99.98
1.16303	99.98
1.17970	99.98
1.19637	99.98
1.21303	99.97
1.22970	99.98
1.24637	99.98
1.26303	99.98
1.27970	99.98
1.29637	99.98
1.31303	99.98
1.32970	99.98
1.34637	99.98
1.36303	99.98
1.37970	99.99
1.39637	99.98
1.41303	99.99
1.42970	99.98
1.44637	99.99
1.46303	99.99
1.47970	99.99
1.49637	99.99
1.51303	99.99
1.52970	99.99
1.54637	99.99
1.56303	99.99
1.57970	99.99
1.59637	99.99
1.61303	99.99
1.62970	99.99
1.64637	99.99
1.66303	99.99
1.67970	99.99
1.69637	99.98
1.71303	99.99
1.72970	99.99
1.74637	99.99
1.76303	99.99
1.77970	99.99
1.79637	99.98
1.81303	99.99
1.82970	99.98
1.84637	99.99
1.86303	99.98
1.87970	99.98
1.89637	99.98
1.91303	99.98
1.92970	99.98
1.94637	99.98
1.96303	99.98
1.97970	99.98
1.99637	99.98
2.01303	99.98
2.02970	99.98
2.04637	99.98
2.06303	99.97
2.07970	99.97
2.09637	99.97
2.11303	99.98
2.12970	99.97
2.14637	99.97
2.16303	99.97
2.17970	99.96
2.19637	99.97
2.21303	99.97
2.22970	99.97
2.24637	99.97
2.26303	99.97
2.27970	99.96
2.29637	99.96
2.31303	99.97
2.32970	99.97
2.34637	99.97
2.36303	99.97
2.37970	99.96
2.39637	99.97
2.41303	99.97
2.42970	99.97
2.44637	99.97
2.46303	99.97
2.47970	99.97
2.49637	99.97
2.51303	99.97
2.52970	99.97
2.54637	99.97
2.56303	99.97
2.57970	99.98
2.59637	99.98
2.61303	99.98
2.62970	99.98
2.64637	99.98
2.66303	99.98
2.67970	99.98
2.69637	99.98
2.71303	99.99
2.72970	99.99
2.74637	99.99
2.76303	100.00
2.77970	99.99
2.79637	100.00
2.81303	100.00
2.82970	100.00
2.84637	100.01
2.86303	100.00
2.87970	100.01
2.89637	100.01
2.91303	100.01
2.92970	100.01
2.94637	100.01
2.96303	100.02
2.97970	100.02
2.99637	100.02
3.01303	100.02
3.02970	100.02
3.04637	100.02
3.06303	100.02
3.07970	100.02
3.09637	100.02
3.11303	100.03
3.12970	100.02
3.14637	100.03
3.16303	100.03
3.17970	100.03
3.19637	100.03
3.21303	100.03
3.22970	100.03
3.24637	100.03
3.26303	100.03
3.27970	100.03
3.29637	100.03
3.31303	100.04
3.32970	100.03
3.34637	100.04
3.36303	100.04
3.37970	100.04
3.39637	100.04
3.41303	100.04
3.42970	100.04
3.44637	100.04
3.46303	100.04
3.47970	100.05
3.49637	100.05
3.51303	100.04
3.52970	100.05
3.54637	100.04
3.56303	100.05
3.57970	100.04
3.59637	100.05
3.61303	100.05
3.62970	100.05
3.64637	100.05
3.66303	100.05
3.67970	100.05
3.69637	100.05
3.71303	100.05
3.72970	100.05
3.74637	100.05
3.76303	100.05
3.77970	100.05
3.79637	100.05
3.81303	100.05
3.82970	100.05
3.84637	100.05
3.86303	100.05
3.87970	100.05
3.89637	100.05
3.91303	100.05
3.92970	100.05
3.94637	100.05
3.96303	100.05
3.97970	100.05
3.99637	100.05

[Status Trace (Carrier Gas Pressure)]
Interval(msec)	1000
# of Points	240
Start Time(min)	0.013
End Time(min)	3.996
Intensity Units	
Intensity Multiplier	1
R.Time (min)	Intensity
0.01303	57.83
0.02970	55.04
0.04637	57.87
0.06303	59.83
0.07970	58.72
0.09637	57.98
0.11303	58.00
0.12970	58.01
0.14637	58.01
0.16303	58.01
0.17970	58.00
0.19637	58.00
0.21303	58.00
0.22970	58.00
0.24637	58.00
0.26303	58.00
0.27970	58.00
0.29637	58.00
0.31303	58.00
0.32970	58.00
0.34637	58.00
0.36303	58.00
0.37970	58.00
0.39637	58.00
0.41303	58.00
0.42970	58.00
0.44637	58.00
0.46303	58.00
0.47970	58.00
0.49637	58.00
0.51303	58.00
0.52970	58.00
0.54637	58.00
0.56303	58.00
0.57970	58.00
0.59637	58.00
0.61303	58.00
0.62970	58.00
0.64637	58.00
0.66303	58.00
0.67970	58.00
0.69637	58.00
0.71303	58.00
0.72970	58.00
0.74637	58.00
0.76303	58.00
0.77970	58.00
0.79637	58.00
0.81303	58.00
0.82970	58.00
0.84637	58.00
0.86303	58.00
0.87970	58.00
0.89637	58.00
0.91303	58.00
0.92970	58.00
0.94637	58.00
0.96303	58.00
0.97970	58.00
0.99637	58.00
1.01303	58.00
1.02970	58.00
1.04637	58.00
1.06303	58.00
1.07970	58.00
1.09637	58.00
1.11303	58.00
1.12970	58.00
1.14637	58.00
1.16303	58.00
1.17970	58.00
1.19637	58.00
1.21303	58.00
1.22970	58.00
1.24637	58.00
1.26303	58.00
1.27970	58.00
1.29637	58.00
1.31303	58.00
1.32970	58.00
1.34637	58.00
1.36303	58.00
1.37970	58.00
1.39637	58.00
1.41303	58.00
1.42970	58.00
1.44637	58.00
1.46303	58.00
1.47970	58.00
1.49637	58.00
1.51303	58.00
1.52970	58.00
1.54637	58.00
1.56303	58.00
1.57970	58.00
1.59637	58.00
1.61303	58.00
1.62970	58.00
1.64637	58.00
1.66303	58.00
1.67970	58.01
1.69637	58.00
1.71303	58.00
1.72970	58.00
1.74637	58.00
1.76303	58.00
1.77970	58.00
1.79637	58.00
1.81303	58.00
1.82970	58.00
1.84637	58.00
1.86303	58.00
1.87970	58.00
1.89637	58.00
1.91303	58.00
1.92970	58.00
1.94637	58.00
1.96303	58.00
1.97970	58.00
1.99637	58.00
2.01303	58.00
2.02970	58.00
2.04637	58.00
2.06303	58.00
2.07970	58.00
2.09637	58.00
2.11303	58.00
2.12970	58.00
2.14637	58.00
2.16303	58.00
2.17970	58.00
2.19637	58.00
2.21303	58.00
2.22970	58.00
2.24637	58.00
2.26303	58.00
2.27970	58.00
2.29637	58.00
2.31303	58.00
2.32970	58.00
2.34637	58.00
2.36303	58.00
2.37970	57.99
2.39637	57.99
2.41303	58.00
2.42970	58.00
2.44637	58.00
2.46303	58.00
2.47970	58.00
2.49637	58.00
2.51303	57.99
2.52970	57.99
2.54637	58.00
2.56303	58.00
2.57970	58.00
2.59637	58.00
2.61303	58.00
2.62970	58.00
2.64637	58.00
2.66303	58.00
2.67970	58.00
2.69637	58.00
2.71303	58.00
2.72970	58.00
2.74637	58.00
2.76303	58.00
2.77970	58.00
2.79637	58.00
2.81303	58.00
2.82970	58.00
2.84637	58.00
2.86303	58.00
2.87970	58.00
2.89637	58.00
2.91303	58.00
2.92970	58.00
2.94637	58.00
2.96303	58.00
2.97970	58.00
2.99637	58.00
3.01303	58.00
3.02970	58.00
3.04637	58.00
3.06303	58.00
3.07970	58.00
3.09637	58.00
3.11303	58.00
3.12970	58.00
3.14637	58.00
3.16303	58.00
3.17970	58.00
3.19637	58.00
3.21303	58.00
3.22970	58.00
3.24637	58.00
3.26303	58.00
3.27970	58.00
3.29637	58.00
3.31303	58.00
3.32970	58.00
3.34637	58.00
3.36303	58.00
3.37970	58.00
3.39637	58.00
3.41303	58.00
3.42970	58.00
3.44637	58.00
3.46303	58.00
3.47970	58.00
3.49637	58.00
3.51303	58.00
3.52970	58.00
3.54637	58.00
3.56303	58.00
3.57970	58.00
3.59637	58.00
3.61303	58.00
3.62970	58.00
3.64637	58.00
3.66303	58.00
3.67970	58.00
3.69637	58.00
3.71303	58.00
3.72970	58.00
3.74637	58.00
3.76303	58.00
3.77970	58.00
3.79637	58.00
3.81303	58.00
3.82970	58.00
3.84637	58.00
3.86303	58.00
3.87970	58.00
3.89637	58.00
3.91303	58.00
3.92970	58.00
3.94637	58.00
3.96303	58.00
3.97970	58.00
3.99637	58.00

[Status Trace (Carrier Gas Flow)]
Interval(msec)	1000
# of Points	240
Start Time(min)	0.013
End Time(min)	3.996
Intensity Units	
Intensity Multiplier	1
R.Time (min)	Intensity
0.01303	34.59
0.02970	34.54
0.04637	34.55
0.06303	34.52
0.07970	34.51
0.09637	34.52
0.11303	34.52
0.12970	34.52
0.14637	34.51
0.16303	34.52
0.17970	34.52
0.19637	34.51
0.21303	34.52
0.22970	34.51
0.24637	34.53
0.26303	34.51
0.27970	34.53
0.29637	34.52
0.31303	34.52
0.32970	34.52
0.34637	34.52
0.36303	34.52
0.37970	34.52
0.39637	34.52
0.41303	34.52
0.42970	34.52
0.44637	34.51
0.46303	34.52
0.47970	34.52
0.49637	34.52
0.51303	34.51
0.52970	34.52
0.54637	34.52
0.56303	34.52
0.57970	34.52
0.59637	34.52
0.61303	34.52
0.62970	34.52
0.64637	34.52
0.66303	34.52
0.67970	34.52
0.69637	34.52
0.71303	34.52
0.72970	34.52
0.74637	34.51
0.76303	34.51
0.77970	34.52
0.79637	34.52
0.81303	34.51
0.82970	34.52
0.84637	34.52
0.86303	34.52
0.87970	34.51
0.89637	34.52
0.91303	34.52
0.92970	34.51
0.94637	34.52
0.96303	34.53
0.97970	34.51
0.99637	34.52
1.01303	34.52
1.02970	34.52
1.04637	34.51
1.06303	34.51
1.07970	34.51
1.09637	34.51
1.11303	34.52
1.12970	34.51
1.14637	34.51
1.16303	34.52
1.17970	34.52
1.19637	34.53
1.21303	34.53
1.22970	34.51
1.24637	34.51
1.26303	34.52
1.27970	34.52
1.29637	34.52
1.31303	34.52
1.32970	34.52
1.34637	34.51
1.36303	34.51
1.37970	34.53
1.39637	34.52
1.41303	34.51
1.42970	34.52
1.44637	34.52
1.46303	34.52
1.47970	34.52
1.49637	34.52
1.51303	34.52
1.52970	34.52
1.54637	34.52
1.56303	34.52
1.57970	34.51
1.59637	34.52
1.61303	34.52
1.62970	34.52
1.64637	34.52
1.66303	34.52
1.67970	34.52
1.69637	34.52
1.71303	34.52
1.72970	34.52
1.74637	34.52
1.76303	34.52
1.77970	34.52
1.79637	34.52
1.81303	34.52
1.82970	34.52
1.84637	34.52
1.86303	34.52
1.87970	34.51
1.89637	34.52
1.91303	34.52
1.92970	34.52
1.94637	34.51
1.96303	34.52
1.97970	34.52
1.99637	34.51
2.01303	34.51
2.02970	34.53
2.04637	34.52
2.06303	34.52
2.07970	34.52
2.09637	34.52
2.11303	34.52
2.12970	34.51
2.14637	34.52
2.16303	34.51
2.17970	34.52
2.19637	34.52
2.21303	34.52
2.22970	34.52
2.24637	34.52
2.26303	34.52
2.27970	34.52
2.29637	34.52
2.31303	34.52
2.32970	34.52
2.34637	34.52
2.36303	34.52
2.37970	34.52
2.39637	34.52
2.41303	34.52
2.42970	34.52
2.44637	34.52
2.46303	34.52
2.47970	34.51
2.49637	34.52
2.51303	34.52
2.52970	34.51
2.54637	34.52
2.56303	34.52
2.57970	34.52
2.59637	34.52
2.61303	34.52
2.62970	34.52
2.64637	34.52
2.66303	34.52
2.67970	34.52
2.69637	34.52
2.71303	34.52
2.72970	34.52
2.74637	34.52
2.76303	34.52
2.77970	34.52
2.79637	34.52
2.81303	34.52
2.82970	34.52
2.84637	34.52
2.86303	34.52
2.87970	34.52
2.89637	34.52
2.91303	34.52
2.92970	34.52
2.94637	34.52
2.96303	34.52
2.97970	34.52
2.99637	34.52
3.01303	34.51
3.02970	34.52
3.04637	34.52
3.06303	34.52
3.07970	34.52
3.09637	34.52
3.11303	34.52
3.12970	34.51
3.14637	34.52
3.16303	34.52
3.17970	34.52
3.19637	34.52
3.21303	34.52
3.22970	34.52
3.24637	34.52
3.26303	34.52
3.27970	34.53
3.29637	34.52
3.31303	34.52
3.32970	34.52
3.34637	34.52
3.36303	34.52
3.37970	34.52
3.39637	34.52
3.41303	34.52
3.42970	34.51
3.44637	34.52
3.46303	34.52
3.47970	34.52
3.49637	34.52
3.51303	34.52
3.52970	34.52
3.54637	34.52
3.56303	34.52
3.57970	34.52
3.59637	34.52
3.61303	34.52
3.62970	34.52
3.64637	34.52
3.66303	34.52
3.67970	34.52
3.69637	34.53
3.71303	34.52
3.72970	34.52
3.74637	34.52
3.76303	34.52
3.77970	34.52
3.79637	34.52
3.81303	34.52
3.82970	34.52
3.84637	34.52
3.86303	34.52
3.87970	34.52
3.89637	34.52
3.91303	34.52
3.92970	34.52
3.94637	34.52
3.96303	34.51
3.97970	34.52
3.99637	34.53

[Status Trace (Column Flow)]
Interval(msec)	1000
# of Points	240
Start Time(min)	0.013
End Time(min)	3.996
Intensity Units	
Intensity Multiplier	1
R.Time (min)	Intensity
0.01303	5.47
0.02970	5.15
0.04637	5.48
0.06303	5.71
0.07970	5.58
0.09637	5.49
0.11303	5.49
0.12970	5.49
0.14637	5.49
0.16303	5.49
0.17970	5.49
0.19637	5.49
0.21303	5.49
0.22970	5.49
0.24637	5.49
0.26303	5.49
0.27970	5.49
0.29637	5.49
0.31303	5.49
0.32970	5.49
0.34637	5.49
0.36303	5.49
0.37970	5.49
0.39637	5.49
0.41303	5.49
0.42970	5.49
0.44637	5.49
0.46303	5.49
0.47970	5.49
0.49637	5.49
0.51303	5.49
0.52970	5.49
0.54637	5.49
0.56303	5.49
0.57970	5.49
0.59637	5.49
0.61303	5.49
0.62970	5.49
0.64637	5.50
0.66303	5.50
0.67970	5.49
0.69637	5.49
0.71303	5.49
0.72970	5.50
0.74637	5.50
0.76303	5.50
0.77970	5.50
0.79637	5.50
0.81303	5.49
0.82970	5.49
0.84637	5.49
0.86303	5.49
0.87970	5.49
0.89637	5.49
0.91303	5.49
0.92970	5.49
0.94637	5.49
0.96303	5.50
0.97970	5.50
0.99637	5.50
1.01303	5.50
1.02970	5.50
1.04637	5.50
1.06303	5.50
1.07970	5.49
1.09637	5.49
1.11303	5.49
1.12970	5.49
1.14637	5.49
1.16303	5.49
1.17970	5.50
1.19637	5.49
1.21303	5.49
1.22970	5.49
1.24637	5.50
1.26303	5.49
1.27970	5.50
1.29637	5.50
1.31303	5.50
1.32970	5.50
1.34637	5.50
1.36303	5.50
1.37970	5.50
1.39637	5.50
1.41303	5.50
1.42970	5.50
1.44637	5.50
1.46303	5.50
1.47970	5.50
1.49637	5.50
1.51303	5.49
1.52970	5.49
1.54637	5.49
1.56303	5.49
1.57970	5.49
1.59637	5.49
1.61303	5.49
1.62970	5.49
1.64637	5.48
1.66303	5.47
1.67970	5.46
1.69637	5.45
1.71303	5.44
1.72970	5.43
1.74637	5.42
1.76303	5.41
1.77970	5.40
1.79637	5.39
1.81303	5.38
1.82970	5.37
1.84637	5.36
1.86303	5.35
1.87970	5.34
1.89637	5.33
1.91303	5.32
1.92970	5.31
1.94637	5.30
1.96303	5.29
1.97970	5.28
1.99637	5.27
2.01303	5.26
2.02970	5.25
2.04637	5.24
2.06303	5.23
2.07970	5.22
2.09637	5.21
2.11303	5.21
2.12970	5.20
2.14637	5.19
2.16303	5.18
2.17970	5.17
2.19637	5.16
2.21303	5.15
2.22970	5.14
2.24637	5.13
2.26303	5.12
2.27970	5.11
2.29637	5.10
2.31303	5.09
2.32970	5.08
2.34637	5.08
2.36303	5.07
2.37970	5.06
2.39637	5.06
2.41303	5.06
2.42970	5.06
2.44637	5.06
2.46303	5.06
2.47970	5.06
2.49637	5.06
2.51303	5.06
2.52970	5.06
2.54637	5.06
2.56303	5.06
2.57970	5.06
2.59637	5.06
2.61303	5.06
2.62970	5.06
2.64637	5.06
2.66303	5.06
2.67970	5.06
2.69637	5.06
2.71303	5.06
2.72970	5.06
2.74637	5.06
2.76303	5.06
2.77970	5.06
2.79637	5.06
2.81303	5.06
2.82970	5.06
2.84637	5.06
2.86303	5.06
2.87970	5.06
2.89637	5.06
2.91303	5.06
2.92970	5.06
2.94637	5.06
2.96303	5.06
2.97970	5.06
2.99637	5.06
3.01303	5.05
3.02970	5.05
3.04637	5.05
3.06303	5.05
3.07970	5.05
3.09637	5.05
3.11303	5.05
3.12970	5.05
3.14637	5.05
3.16303	5.05
3.17970	5.05
3.19637	5.05
3.21303	5.05
3.22970	5.05
3.24637	5.05
3.26303	5.05
3.27970	5.05
3.29637	5.05
3.31303	5.05
3.32970	5.05
3.34637	5.05
3.36303	5.05
3.37970	5.05
3.39637	5.05
3.41303	5.05
3.42970	5.05
3.44637	5.05
3.46303	5.05
3.47970	5.05
3.49637	5.05
3.51303	5.05
3.52970	5.05
3.54637	5.05
3.56303	5.05
3.57970	5.05
3.59637	5.05
3.61303	5.05
3.62970	5.05
3.64637	5.05
3.66303	5.05
3.67970	5.05
3.69637	5.05
3.71303	5.05
3.72970	5.05
3.74637	5.05
3.76303	5.05
3.77970	5.05
3.79637	5.05
3.81303	5.05
3.82970	5.05
3.84637	5.05
3.86303	5.05
3.87970	5.05
3.89637	5.05
3.91303	5.05
3.92970	5.05
3.94637	5.05
3.96303	5.05
3.97970	5.05
3.99637	5.05

[Status Trace (Linear Velocity)]
Interval(msec)	1000
# of Points	240
Start Time(min)	0.013
End Time(min)	3.996
Intensity Units	
Intensity Multiplier	1
R.Time (min)	Intensity
0.01303	38.89
0.02970	37.06
0.04637	38.92
0.06303	40.20
0.07970	39.48
0.09637	39.00
0.11303	39.00
0.12970	39.01
0.14637	39.01
0.16303	39.01
0.17970	39.01
0.19637	39.01
0.21303	39.01
0.22970	39.01
0.24637	39.01
0.26303	39.01
0.27970	39.01
0.29637	39.01
0.31303	39.01
0.32970	39.01
0.34637	39.01
0.36303	39.01
0.37970	39.01
0.39637	39.01
0.41303	39.01
0.42970	39.01
0.44637	39.01
0.46303	39.01
0.47970	39.01
0.49637	39.01
0.51303	39.01
0.52970	39.01
0.54637	39.01
0.56303	39.01
0.57970	39.01
0.59637	39.01
0.61303	39.01
0.62970	39.01
0.64637	39.01
0.66303	39.01
0.67970	39.01
0.69637	39.01
0.71303	39.01
0.72970	39.01
0.74637	39.01
0.76303	39.01
0.77970	39.01
0.79637	39.01
0.81303	39.01
0.82970	39.01
0.84637	39.01
0.86303	39.01
0.87970	39.01
0.89637	39.01
0.91303	39.01
0.92970	39.01
0.94637	39.01
0.96303	39.01
0.97970	39.01
0.99637	39.01
1.01303	39.01
1.02970	39.01
1.04637	39.01
1.06303	39.01
1.07970	39.01
1.09637	39.01
1.11303	39.01
1.12970	39.01
1.14637	39.01
1.16303	39.01
1.17970	39.01
1.19637	39.01
1.21303	39.01
1.22970	39.01
1.24637	39.01
1.26303	39.01
1.27970	39.01
1.29637	39.01
1.31303	39.01
1.32970	39.01
1.34637	39.01
1.36303	39.01
1.37970	39.01
1.39637	39.02
1.41303	39.01
1.42970	39.01
1.44637	39.01
1.46303	39.01
1.47970	39.01
1.49637	39.01
1.51303	39.01
1.52970	39.01
1.54637	39.01
1.56303	39.01
1.57970	39.01
1.59637	39.01
1.61303	39.00
1.62970	38.99
1.64637	38.97
1.66303	38.95
1.67970	38.91
1.69637	38.88
1.71303	38.84
1.72970	38.81
1.74637	38.78
1.76303	38.75
1.77970	38.72
1.79637	38.68
1.81303	38.65
1.82970	38.62
1.84637	38.59
1.86303	38.56
1.87970	38.53
1.89637	38.50
1.91303	38.47
1.92970	38.44
1.94637	38.41
1.96303	38.38
1.97970	38.35
1.99637	38.32
2.01303	38.29
2.02970	38.26
2.04637	38.23
2.06303	38.20
2.07970	38.17
2.09637	38.14
2.11303	38.11
2.12970	38.08
2.14637	38.05
2.16303	38.02
2.17970	37.99
2.19637	37.96
2.21303	37.93
2.22970	37.90
2.24637	37.87
2.26303	37.84
2.27970	37.81
2.29637	37.78
2.31303	37.75
2.32970	37.72
2.34637	37.70
2.36303	37.67
2.37970	37.65
2.39637	37.64
2.41303	37.65
2.42970	37.65
2.44637	37.65
2.46303	37.65
2.47970	37.65
2.49637	37.65
2.51303	37.64
2.52970	37.64
2.54637	37.65
2.56303	37.65
2.57970	37.65
2.59637	37.64
2.61303	37.64
2.62970	37.64
2.64637	37.64
2.66303	37.64
2.67970	37.64
2.69637	37.64
2.71303	37.64
2.72970	37.64
2.74637	37.64
2.76303	37.64
2.77970	37.64
2.79637	37.64
2.81303	37.64
2.82970	37.64
2.84637	37.64
2.86303	37.64
2.87970	37.64
2.89637	37.64
2.91303	37.64
2.92970	37.63
2.94637	37.63
2.96303	37.63
2.97970	37.63
2.99637	37.63
3.01303	37.63
3.02970	37.63
3.04637	37.63
3.06303	37.62
3.07970	37.62
3.09637	37.62
3.11303	37.62
3.12970	37.62
3.14637	37.62
3.16303	37.62
3.17970	37.62
3.19637	37.62
3.21303	37.62
3.22970	37.62
3.24637	37.62
3.26303	37.62
3.27970	37.62
3.29637	37.62
3.31303	37.62
3.32970	37.62
3.34637	37.62
3.36303	37.62
3.37970	37.62
3.39637	37.62
3.41303	37.62
3.42970	37.62
3.44637	37.62
3.46303	37.62
3.47970	37.62
3.49637	37.63
3.51303	37.63
3.52970	37.63
3.54637	37.62
3.56303	37.62
3.57970	37.62
3.59637	37.62
3.61303	37.62
3.62970	37.62
3.64637	37.62
3.66303	37.62
3.67970	37.62
3.69637	37.62
3.71303	37.62
3.72970	37.62
3.74637	37.62
3.76303	37.62
3.77970	37.62
3.79637	37.62
3.81303	37.62
3.82970	37.62
3.84637	37.62
3.86303	37.62
3.87970	37.62
3.89637	37.62
3.91303	37.62
3.92970	37.62
3.94637	37.62
3.96303	37.62
3.97970	37.62
3.99637	37.62

