[Header]
Application Name	LabSolutions
Version	5.110
Data File Name	C:\Users\User\Desktop\Junior\UIC Prairie Sampling\6.2.23\06022023_060.gcd
Output Date	6/12/2023
Output Time	11:47:12 AM

[File Information]
Type	Data File
Generated	6/6/2023 4:10:43 PM
Generated by	System Administrator
Modified	6/6/2023 4:18:05 PM
Modified by	System Administrator

[Sample Information]
Operator Name	System Administrator
Acquired	6/6/2023 4:14:04 PM
Sample Type	0:Unknown
Level	0
Sample Name	060
Sample ID	060
ISTD Amount1	1
ISTD Amount2	1
ISTD Amount3	1
ISTD Amount4	1
ISTD Amount5	1
ISTD Amount6	1
ISTD Amount7	1
ISTD Amount8	1
ISTD Amount9	1
ISTD Amount10	1
ISTD Amount11	1
ISTD Amount12	1
ISTD Amount13	1
ISTD Amount14	1
ISTD Amount15	1
ISTD Amount16	1
ISTD Amount17	1
ISTD Amount18	1
ISTD Amount19	1
ISTD Amount20	1
ISTD Amount21	1
ISTD Amount22	1
ISTD Amount23	1
ISTD Amount24	1
ISTD Amount25	1
ISTD Amount26	1
ISTD Amount27	1
ISTD Amount28	1
ISTD Amount29	1
ISTD Amount30	1
ISTD Amount31	1
ISTD Amount32	1
Sample Amount	1
Dilution Factor	1
Vial#	59
Injection Volume	1
Injection Count	1
Bar Code	

[Original Files]
Data File	C:\Users\User\Desktop\Junior\UIC Prairie Sampling\6.2.23\06022023_060.gcd
Method File	C:\LabSolutions\Data\GHG_4min_2022\ghg3_togas_w_acet_4 min_new_int.gcm
Batch File	C:\LabSolutions\Data\AutoSamplerTesting\06022023.gcb
Report Format File	c:\LabSolutions\System\DEFAULT.lsr

[File Description]


[Configuration]
Instrument Name	C0B7VH3-Instrument1
Instrument #	1
Line #	1
# of Detectors	3
Detector ID	DET#1	DET#2	DET#3
Detector Name	FID	PTCD	ECD
# of Channels	1	1	1

[Peak Table(Ch1)]
# of Peaks	3
Peak#	R.Time	I.Time	F.Time	Area	Height	A/H	Conc.	Mark	ID#	Name	k'	Plate #	Plate Ht.	Tailing	Resolution	Sep.Factor	Area Ratio	Height Ratio	Conc. %	Norm Conc.
1	1.487	1.468	1.520	477	204	2.340	0.000	   	1	CO	0.000	2605	57.586	0.000	0.000	0.000	0	0	0.000	0.000
2	1.560	1.520	1.666	20227	10039	2.015	98.611	 V 	2	CH4	0.049	11281	13.297	1.285	0.837	0.000	0	0	20.218	20.218
3	1.989	1.941	2.436	2019180	972818	2.076	389.133	   	3	CO2	0.338	17456	8.593	1.227	7.212	6.850	0	0	79.782	79.782

[Peak Table(Ch2)]
# of Peaks	0

[Peak Table(Ch3)]
# of Peaks	4
Peak#	R.Time	I.Time	F.Time	Area	Height	A/H	Conc.	Mark	ID#	Name	k'	Plate #	Plate Ht.	Tailing	Resolution	Sep.Factor	Area Ratio	Height Ratio	Conc. %	Norm Conc.
1	2.499	2.440	2.535	3332	738	4.513	0.000	   			0.000	1089	137.709	0.000	0.000	0.000	0	0	0.000	0.000
2	2.565	2.535	2.667	4465	692	6.453	0.000	 V 			0.026	166	901.965	0.000	0.120	0.000	0	0	0.000	0.000
3	2.697	2.667	2.821	3659	470	7.781	0.000	 V 			0.079	154	977.171	0.000	0.158	3.000	0	0	0.000	0.000
4	2.887	2.821	3.287	59121	14438	4.095	0.875	 V 	1	N2O	0.156	12618	11.888	1.705	0.392	1.963	0	0	100.000	100.000

[Compound Results(Ch1)]
# of IDs	6
ID#	Name	R.Time	Area	Height	Conc.	Curve	3rd	2nd	1st	Constant	Area Ratio	Height Ratio	Conc. %	Norm Conc.
1	CO	1.487	477	204	0.000	Linear	0.000000e+00	0.000000e+00	0.000000e+00	0.000000e+00	0	0	0.000	0.000
2	CH4	1.560	20227	10039	98.611	Linear	0.000000e+00	0.000000e+00	2.051179e+002	0.000000e+00	0	0	20.218	20.218
3	CO2	1.989	2019180	972818	389.133	Linear	0.000000e+00	0.000000e+00	5.188919e+003	0.000000e+00	0	0	79.782	79.782
4	Ethylene	0.000	0	0	0.000	Linear	0.000000e+00	0.000000e+00	0.000000e+00	0.000000e+00	0	0	0.000	0.000
5	Acetylene	0.000	0	0	0.000	Linear	0.000000e+00	0.000000e+00	0.000000e+00	0.000000e+00	0	0	0.000	0.000
6	Ethane	0.000	0	0	0.000	Linear	0.000000e+00	0.000000e+00	0.000000e+00	0.000000e+00	0	0	0.000	0.000

[Compound Results(Ch2)]
# of IDs	5
ID#	Name	R.Time	Area	Height	Conc.	Curve	3rd	2nd	1st	Constant	Area Ratio	Height Ratio	Conc. %	Norm Conc.
1	Hydrogen	0.000	0	0	0.000	Linear	0.000000e+00	0.000000e+00	0.000000e+00	0.000000e+00	0	0	0.000	0.000
2	Oxygen	0.000	0	0	0.000	Linear	0.000000e+00	0.000000e+00	0.000000e+00	0.000000e+00	0	0	0.000	0.000
3	Nitrogen	0.000	0	0	0.000	Linear	0.000000e+00	0.000000e+00	0.000000e+00	0.000000e+00	0	0	0.000	0.000
4	Methane	0.000	0	0	0.000	Linear	0.000000e+00	0.000000e+00	0.000000e+00	0.000000e+00	0	0	0.000	0.000
5	Carbon Monoxide	0.000	0	0	0.000	Linear	0.000000e+00	0.000000e+00	0.000000e+00	0.000000e+00	0	0	0.000	0.000

[Compound Results(Ch3)]
# of IDs	2
ID#	Name	R.Time	Area	Height	Conc.	Curve	3rd	2nd	1st	Constant	Area Ratio	Height Ratio	Conc. %	Norm Conc.
1	N2O	2.887	59121	14438	0.875	Linear	0.000000e+00	0.000000e+00	6.759880e+004	0.000000e+00	0	0	100.000	100.000
2	SF6	0.000	0	0	0.000	Linear	0.000000e+00	0.000000e+00	0.000000e+00	0.000000e+00	0	0	0.000	0.000

[Group Results(Ch1)]
# of Groups	0

[Group Results(Ch2)]
# of Groups	0

[Group Results(Ch3)]
# of Groups	0

[Chromatogram (Ch1)]
Interval(msec)	220
# of Points	1091
Start Time(min)	0.002
End Time(min)	3.998
R.Time (min)	Intensity
0.00167	-32
0.00533	-26
0.00900	-20
0.01267	-16
0.01633	-13
0.02000	-10
0.02367	-9
0.02733	-7
0.03100	-1
0.03467	3
0.03833	4
0.04200	2
0.04567	0
0.04933	-2
0.05300	2
0.05667	9
0.06033	12
0.06400	12
0.06767	9
0.07133	8
0.07500	7
0.07867	7
0.08233	8
0.08600	8
0.08967	7
0.09333	2
0.09700	-5
0.10067	-10
0.10433	-13
0.10800	-11
0.11167	-10
0.11533	-12
0.11900	-16
0.12267	-20
0.12633	-21
0.13000	-23
0.13367	-22
0.13733	-17
0.14100	-11
0.14467	-8
0.14833	-5
0.15200	-4
0.15567	-4
0.15933	-4
0.16300	-3
0.16667	-3
0.17033	-7
0.17400	-10
0.17767	-13
0.18133	-13
0.18500	-10
0.18867	-4
0.19233	-0
0.19600	2
0.19967	0
0.20333	-1
0.20700	-0
0.21067	1
0.21433	4
0.21800	6
0.22167	7
0.22533	7
0.22900	9
0.23267	10
0.23633	9
0.24000	8
0.24367	6
0.24733	7
0.25100	11
0.25467	15
0.25833	15
0.26200	12
0.26567	5
0.26933	-3
0.27300	-11
0.27667	-18
0.28033	-23
0.28400	-25
0.28767	-24
0.29133	-20
0.29500	-13
0.29867	-6
0.30233	-4
0.30600	-4
0.30967	-6
0.31333	-9
0.31700	-11
0.32067	-12
0.32433	-9
0.32800	-8
0.33167	-10
0.33533	-10
0.33900	-6
0.34267	0
0.34633	4
0.35000	3
0.35367	1
0.35733	-1
0.36100	-5
0.36467	-10
0.36833	-15
0.37200	-17
0.37567	-14
0.37933	-12
0.38300	-12
0.38667	-14
0.39033	-13
0.39400	-9
0.39767	-3
0.40133	-0
0.40500	-2
0.40867	-9
0.41233	-18
0.41600	-25
0.41967	-30
0.42333	-34
0.42700	-35
0.43067	-33
0.43433	-30
0.43800	-27
0.44167	-25
0.44533	-23
0.44900	-18
0.45267	-12
0.45633	-9
0.46000	-12
0.46367	-19
0.46733	-23
0.47100	-22
0.47467	-14
0.47833	-6
0.48200	1
0.48567	3
0.48933	-2
0.49300	-5
0.49667	-4
0.50033	-3
0.50400	-5
0.50767	-9
0.51133	-17
0.51500	-23
0.51867	-26
0.52233	-27
0.52600	-26
0.52967	-24
0.53333	-24
0.53700	-26
0.54067	-26
0.54433	-23
0.54800	-17
0.55167	-15
0.55533	-13
0.55900	-12
0.56267	-7
0.56633	0
0.57000	7
0.57367	11
0.57733	9
0.58100	3
0.58467	-3
0.58833	-7
0.59200	-10
0.59567	-10
0.59933	-12
0.60300	-15
0.60667	-23
0.61033	-34
0.61400	-45
0.61767	-53
0.62133	-59
0.62500	-62
0.62867	-63
0.63233	-60
0.63600	-52
0.63967	-44
0.64333	-36
0.64700	-29
0.65067	-25
0.65433	-26
0.65800	-27
0.66167	-28
0.66533	-30
0.66900	-31
0.67267	-29
0.67633	-25
0.68000	-18
0.68367	-12
0.68733	-9
0.69100	-11
0.69467	-13
0.69833	-17
0.70200	-22
0.70567	-25
0.70933	-26
0.71300	-28
0.71667	-30
0.72033	-28
0.72400	-22
0.72767	-17
0.73133	-14
0.73500	-12
0.73867	-10
0.74233	-10
0.74600	-11
0.74967	-7
0.75333	-5
0.75700	-4
0.76067	-3
0.76433	-8
0.76800	-15
0.77167	-23
0.77533	-29
0.77900	-33
0.78267	-37
0.78633	-44
0.79000	-54
0.79367	-62
0.79733	-64
0.80100	-64
0.80467	-66
0.80833	-66
0.81200	-65
0.81567	-60
0.81933	-55
0.82300	-52
0.82667	-50
0.83033	-47
0.83400	-42
0.83767	-38
0.84133	-36
0.84500	-35
0.84867	-34
0.85233	-32
0.85600	-27
0.85967	-23
0.86333	-23
0.86700	-22
0.87067	-22
0.87433	-21
0.87800	-18
0.88167	-14
0.88533	-13
0.88900	-17
0.89267	-23
0.89633	-29
0.90000	-33
0.90367	-38
0.90733	-40
0.91100	-40
0.91467	-38
0.91833	-35
0.92200	-33
0.92567	-33
0.92933	-36
0.93300	-34
0.93667	-25
0.94033	-17
0.94400	-18
0.94767	-25
0.95133	-32
0.95500	-40
0.95867	-45
0.96233	-49
0.96600	-54
0.96967	-58
0.97333	-54
0.97700	-47
0.98067	-42
0.98433	-37
0.98800	-33
0.99167	-31
0.99533	-31
0.99900	-34
1.00267	-36
1.00633	-37
1.01000	-37
1.01367	-39
1.01733	-41
1.02100	-41
1.02467	-39
1.02833	-38
1.03200	-38
1.03567	-37
1.03933	-35
1.04300	-33
1.04667	-33
1.05033	-36
1.05400	-42
1.05767	-45
1.06133	-44
1.06500	-43
1.06867	-44
1.07233	-47
1.07600	-49
1.07967	-51
1.08333	-50
1.08700	-48
1.09067	-50
1.09433	-51
1.09800	-50
1.10167	-48
1.10533	-47
1.10900	-48
1.11267	-51
1.11633	-57
1.12000	-62
1.12367	-66
1.12733	-68
1.13100	-68
1.13467	-63
1.13833	-57
1.14200	-54
1.14567	-54
1.14933	-57
1.15300	-60
1.15667	-58
1.16033	-52
1.16400	-51
1.16767	-55
1.17133	-59
1.17500	-60
1.17867	-61
1.18233	-58
1.18600	-54
1.18967	-48
1.19333	-43
1.19700	-40
1.20067	-40
1.20433	-45
1.20800	-50
1.21167	-51
1.21533	-52
1.21900	-57
1.22267	-61
1.22633	-65
1.23000	-66
1.23367	-65
1.23733	-65
1.24100	-67
1.24467	-68
1.24833	-68
1.25200	-69
1.25567	-68
1.25933	-64
1.26300	-60
1.26667	-56
1.27033	-54
1.27400	-50
1.27767	-47
1.28133	-44
1.28500	-41
1.28867	-39
1.29233	-40
1.29600	-41
1.29967	-43
1.30333	-45
1.30700	-48
1.31067	-51
1.31433	-55
1.31800	-56
1.32167	-56
1.32533	-55
1.32900	-56
1.33267	-58
1.33633	-57
1.34000	-54
1.34367	-52
1.34733	-53
1.35100	-58
1.35467	-62
1.35833	-61
1.36200	-56
1.36567	-53
1.36933	-53
1.37300	-55
1.37667	-56
1.38033	-54
1.38400	-50
1.38767	-48
1.39133	-48
1.39500	-50
1.39867	-53
1.40233	-57
1.40600	-61
1.40967	-65
1.41333	-66
1.41700	-68
1.42067	-67
1.42433	-65
1.42800	-65
1.43167	-64
1.43533	-53
1.43900	-32
1.44267	-37
1.44633	-85
1.45000	-152
1.45367	-212
1.45733	-257
1.46100	-285
1.46467	-286
1.46833	-254
1.47200	-198
1.47567	-133
1.47933	-80
1.48300	-48
1.48667	-34
1.49033	-33
1.49400	-39
1.49767	-47
1.50133	-53
1.50500	-59
1.50867	-62
1.51233	-62
1.51600	-64
1.51967	-67
1.52333	-67
1.52700	-61
1.53067	-5
1.53433	258
1.53800	1011
1.54167	2432
1.54533	4330
1.54900	6285
1.55267	7964
1.55633	9196
1.56000	9866
1.56367	9839
1.56733	9056
1.57100	7674
1.57467	6029
1.57833	4450
1.58200	3128
1.58567	2118
1.58933	1395
1.59300	898
1.59667	565
1.60033	341
1.60400	190
1.60767	91
1.61133	28
1.61500	-11
1.61867	-34
1.62233	-46
1.62600	-52
1.62967	-54
1.63333	-54
1.63700	-53
1.64067	-55
1.64433	-58
1.64800	-62
1.65167	-66
1.65533	-71
1.65900	-77
1.66267	-79
1.66633	-79
1.67000	-83
1.67367	-90
1.67733	-97
1.68100	-102
1.68467	-103
1.68833	-101
1.69200	-98
1.69567	-94
1.69933	-89
1.70300	-84
1.70667	-83
1.71033	-85
1.71400	-88
1.71767	-88
1.72133	-88
1.72500	-87
1.72867	-85
1.73233	-81
1.73600	-75
1.73967	-70
1.74333	-64
1.74700	-61
1.75067	-65
1.75433	-75
1.75800	-91
1.76167	-109
1.76533	-123
1.76900	-130
1.77267	-132
1.77633	-126
1.78000	-118
1.78367	-111
1.78733	-104
1.79100	-95
1.79467	-86
1.79833	-78
1.80200	-75
1.80567	-79
1.80933	-87
1.81300	-98
1.81667	-106
1.82033	-108
1.82400	-109
1.82767	-110
1.83133	-108
1.83500	-108
1.83867	-110
1.84233	-110
1.84600	-108
1.84967	-106
1.85333	-101
1.85700	-96
1.86067	-93
1.86433	-91
1.86800	-88
1.87167	-86
1.87533	-85
1.87900	-82
1.88267	-78
1.88633	-74
1.89000	-77
1.89367	-86
1.89733	-95
1.90100	-102
1.90467	-108
1.90833	-110
1.91200	-108
1.91567	-105
1.91933	-102
1.92300	-97
1.92667	-89
1.93033	-84
1.93400	-81
1.93767	-80
1.94133	-79
1.94500	-47
1.94867	210
1.95233	1703
1.95600	8209
1.95967	29482
1.96333	82524
1.96700	184498
1.97067	337843
1.97433	522345
1.97800	704766
1.98167	854005
1.98533	947444
1.98900	972780
1.99267	929235
1.99633	828587
2.00000	692774
2.00367	546874
2.00733	411510
2.01100	298474
2.01467	211069
2.01833	147102
2.02200	102040
2.02567	71075
2.02933	50109
2.03300	36008
2.03667	26517
2.04033	20083
2.04400	15666
2.04767	12581
2.05133	10376
2.05500	8762
2.05867	7552
2.06233	6618
2.06600	5877
2.06967	5277
2.07333	4786
2.07700	4374
2.08067	4021
2.08433	3718
2.08800	3454
2.09167	3224
2.09533	3024
2.09900	2847
2.10267	2683
2.10633	2531
2.11000	2394
2.11367	2270
2.11733	2156
2.12100	2051
2.12467	1953
2.12833	1862
2.13200	1780
2.13567	1708
2.13933	1641
2.14300	1580
2.14667	1527
2.15033	1479
2.15400	1432
2.15767	1386
2.16133	1337
2.16500	1285
2.16867	1233
2.17233	1186
2.17600	1144
2.17967	1103
2.18333	1063
2.18700	1025
2.19067	992
2.19433	967
2.19800	944
2.20167	924
2.20533	910
2.20900	898
2.21267	880
2.21633	855
2.22000	828
2.22367	802
2.22733	779
2.23100	758
2.23467	737
2.23833	720
2.24200	705
2.24567	688
2.24933	669
2.25300	647
2.25667	629
2.26033	616
2.26400	606
2.26767	597
2.27133	589
2.27500	584
2.27867	581
2.28233	574
2.28600	562
2.28967	547
2.29333	532
2.29700	520
2.30067	511
2.30433	504
2.30800	497
2.31167	490
2.31533	486
2.31900	481
2.32267	476
2.32633	473
2.33000	473
2.33367	471
2.33733	466
2.34100	459
2.34467	450
2.34833	440
2.35200	429
2.35567	419
2.35933	412
2.36300	407
2.36667	401
2.37033	394
2.37400	388
2.37767	385
2.38133	382
2.38500	377
2.38867	373
2.39233	371
2.39600	369
2.39967	367
2.40333	364
2.40700	364
2.41067	364
2.41433	362
2.41800	362
2.42167	364
2.42533	364
2.42900	360
2.43267	353
2.43633	350
2.44000	351
2.44367	351
2.44733	349
2.45100	345
2.45467	343
2.45833	344
2.46200	342
2.46567	338
2.46933	333
2.47300	327
2.47667	324
2.48033	325
2.48400	325
2.48767	325
2.49133	326
2.49500	323
2.49867	313
2.50233	301
2.50600	292
2.50967	285
2.51333	282
2.51700	284
2.52067	285
2.52433	285
2.52800	287
2.53167	292
2.53533	294
2.53900	295
2.54267	295
2.54633	292
2.55000	290
2.55367	293
2.55733	299
2.56100	303
2.56467	305
2.56833	301
2.57200	296
2.57567	291
2.57933	288
2.58300	288
2.58667	292
2.59033	299
2.59400	304
2.59767	306
2.60133	306
2.60500	306
2.60867	305
2.61233	302
2.61600	299
2.61967	295
2.62333	292
2.62700	287
2.63067	283
2.63433	280
2.63800	277
2.64167	277
2.64533	283
2.64900	291
2.65267	299
2.65633	309
2.66000	317
2.66367	322
2.66733	321
2.67100	316
2.67467	306
2.67833	294
2.68200	285
2.68567	280
2.68933	278
2.69300	279
2.69667	282
2.70033	286
2.70400	287
2.70767	289
2.71133	294
2.71500	302
2.71867	309
2.72233	311
2.72600	305
2.72967	294
2.73333	280
2.73700	269
2.74067	263
2.74433	261
2.74800	258
2.75167	257
2.75533	258
2.75900	264
2.76267	271
2.76633	280
2.77000	289
2.77367	295
2.77733	302
2.78100	307
2.78467	314
2.78833	322
2.79200	331
2.79567	336
2.79933	337
2.80300	333
2.80667	326
2.81033	316
2.81400	305
2.81767	296
2.82133	291
2.82500	288
2.82867	282
2.83233	275
2.83600	271
2.83967	270
2.84333	274
2.84700	282
2.85067	292
2.85433	304
2.85800	318
2.86167	333
2.86533	345
2.86900	348
2.87267	342
2.87633	330
2.88000	318
2.88367	313
2.88733	315
2.89100	317
2.89467	316
2.89833	314
2.90200	314
2.90567	315
2.90933	316
2.91300	316
2.91667	314
2.92033	312
2.92400	309
2.92767	307
2.93133	306
2.93500	307
2.93867	308
2.94233	312
2.94600	318
2.94967	316
2.95333	308
2.95700	303
2.96067	304
2.96433	311
2.96800	318
2.97167	323
2.97533	323
2.97900	317
2.98267	311
2.98633	308
2.99000	309
2.99367	314
2.99733	320
3.00100	325
3.00467	329
3.00833	329
3.01200	326
3.01567	325
3.01933	330
3.02300	338
3.02667	349
3.03033	363
3.03400	375
3.03767	377
3.04133	369
3.04500	356
3.04867	341
3.05233	326
3.05600	315
3.05967	308
3.06333	305
3.06700	301
3.07067	301
3.07433	302
3.07800	301
3.08167	304
3.08533	311
3.08900	319
3.09267	322
3.09633	320
3.10000	318
3.10367	320
3.10733	324
3.11100	327
3.11467	328
3.11833	327
3.12200	328
3.12567	330
3.12933	331
3.13300	329
3.13667	328
3.14033	329
3.14400	328
3.14767	327
3.15133	323
3.15500	319
3.15867	319
3.16233	321
3.16600	323
3.16967	325
3.17333	331
3.17700	337
3.18067	338
3.18433	336
3.18800	334
3.19167	331
3.19533	325
3.19900	320
3.20267	318
3.20633	317
3.21000	318
3.21367	319
3.21733	320
3.22100	319
3.22467	316
3.22833	316
3.23200	318
3.23567	320
3.23933	320
3.24300	320
3.24667	319
3.25033	320
3.25400	324
3.25767	329
3.26133	331
3.26500	332
3.26867	329
3.27233	324
3.27600	320
3.27967	317
3.28333	315
3.28700	314
3.29067	315
3.29433	314
3.29800	312
3.30167	306
3.30533	302
3.30900	302
3.31267	305
3.31633	308
3.32000	312
3.32367	315
3.32733	317
3.33100	322
3.33467	326
3.33833	321
3.34200	308
3.34567	297
3.34933	290
3.35300	286
3.35667	286
3.36033	291
3.36400	296
3.36767	302
3.37133	304
3.37500	299
3.37867	295
3.38233	295
3.38600	297
3.38967	301
3.39333	307
3.39700	315
3.40067	320
3.40433	321
3.40800	318
3.41167	314
3.41533	311
3.41900	310
3.42267	310
3.42633	310
3.43000	307
3.43367	302
3.43733	299
3.44100	297
3.44467	299
3.44833	303
3.45200	303
3.45567	299
3.45933	295
3.46300	294
3.46667	295
3.47033	293
3.47400	293
3.47767	292
3.48133	286
3.48500	281
3.48867	279
3.49233	277
3.49600	278
3.49967	277
3.50333	271
3.50700	263
3.51067	260
3.51433	262
3.51800	267
3.52167	270
3.52533	271
3.52900	270
3.53267	269
3.53633	269
3.54000	269
3.54367	272
3.54733	276
3.55100	279
3.55467	280
3.55833	281
3.56200	283
3.56567	283
3.56933	282
3.57300	281
3.57667	281
3.58033	284
3.58400	289
3.58767	295
3.59133	300
3.59500	307
3.59867	312
3.60233	310
3.60600	300
3.60967	288
3.61333	278
3.61700	268
3.62067	258
3.62433	251
3.62800	249
3.63167	248
3.63533	243
3.63900	240
3.64267	236
3.64633	233
3.65000	235
3.65367	242
3.65733	250
3.66100	257
3.66467	262
3.66833	265
3.67200	263
3.67567	260
3.67933	260
3.68300	263
3.68667	267
3.69033	274
3.69400	281
3.69767	290
3.70133	301
3.70500	304
3.70867	295
3.71233	282
3.71600	270
3.71967	258
3.72333	248
3.72700	239
3.73067	234
3.73433	232
3.73800	234
3.74167	238
3.74533	240
3.74900	243
3.75267	244
3.75633	245
3.76000	248
3.76367	257
3.76733	264
3.77100	263
3.77467	254
3.77833	244
3.78200	238
3.78567	236
3.78933	236
3.79300	240
3.79667	248
3.80033	254
3.80400	256
3.80767	257
3.81133	257
3.81500	256
3.81867	255
3.82233	255
3.82600	256
3.82967	254
3.83333	251
3.83700	247
3.84067	244
3.84433	243
3.84800	244
3.85167	248
3.85533	251
3.85900	252
3.86267	252
3.86633	255
3.87000	261
3.87367	269
3.87733	274
3.88100	273
3.88467	265
3.88833	255
3.89200	249
3.89567	249
3.89933	252
3.90300	256
3.90667	258
3.91033	260
3.91400	260
3.91767	258
3.92133	254
3.92500	248
3.92867	242
3.93233	242
3.93600	243
3.93967	244
3.94333	242
3.94700	240
3.95067	239
3.95433	239
3.95800	238
3.96167	235
3.96533	234
3.96900	234
3.97267	238
3.97633	244
3.98000	251
3.98367	258
3.98733	261
3.99100	261
3.99467	260
3.99833	256

[Chromatogram (Ch2)]
Interval(msec)	220
# of Points	1091
Start Time(min)	0.002
End Time(min)	3.998
R.Time (min)	Intensity
0.00167	-0
0.00533	-1
0.00900	-1
0.01267	-1
0.01633	-2
0.02000	-2
0.02367	-2
0.02733	-2
0.03100	-3
0.03467	-3
0.03833	-3
0.04200	-3
0.04567	-3
0.04933	-3
0.05300	-3
0.05667	-4
0.06033	-4
0.06400	-4
0.06767	-4
0.07133	-4
0.07500	-3
0.07867	-3
0.08233	-3
0.08600	-3
0.08967	-3
0.09333	-3
0.09700	-3
0.10067	-3
0.10433	-3
0.10800	-3
0.11167	-3
0.11533	-3
0.11900	-3
0.12267	-3
0.12633	-3
0.13000	-3
0.13367	-3
0.13733	-3
0.14100	-3
0.14467	-3
0.14833	-3
0.15200	-3
0.15567	-3
0.15933	-2
0.16300	-2
0.16667	-2
0.17033	-1
0.17400	-1
0.17767	-1
0.18133	-1
0.18500	-1
0.18867	-1
0.19233	-1
0.19600	-1
0.19967	-1
0.20333	-1
0.20700	-1
0.21067	-1
0.21433	-1
0.21800	-1
0.22167	-1
0.22533	-2
0.22900	-2
0.23267	-2
0.23633	-2
0.24000	-2
0.24367	-2
0.24733	-2
0.25100	-2
0.25467	-2
0.25833	-2
0.26200	-2
0.26567	-2
0.26933	-2
0.27300	-2
0.27667	-2
0.28033	-2
0.28400	-2
0.28767	-1
0.29133	-1
0.29500	-1
0.29867	-1
0.30233	-1
0.30600	-1
0.30967	-1
0.31333	-1
0.31700	-1
0.32067	-1
0.32433	-1
0.32800	-2
0.33167	-2
0.33533	-3
0.33900	-3
0.34267	-3
0.34633	-3
0.35000	-3
0.35367	-4
0.35733	-4
0.36100	-4
0.36467	-4
0.36833	-4
0.37200	-4
0.37567	-4
0.37933	-5
0.38300	-5
0.38667	-4
0.39033	-4
0.39400	-4
0.39767	-4
0.40133	-3
0.40500	-3
0.40867	-3
0.41233	-3
0.41600	-2
0.41967	-2
0.42333	-1
0.42700	-1
0.43067	-1
0.43433	-0
0.43800	-0
0.44167	-1
0.44533	-1
0.44900	-1
0.45267	-1
0.45633	-0
0.46000	-0
0.46367	-0
0.46733	-1
0.47100	-1
0.47467	-1
0.47833	-1
0.48200	-1
0.48567	-1
0.48933	-1
0.49300	-1
0.49667	-2
0.50033	-2
0.50400	-3
0.50767	-3
0.51133	-4
0.51500	-4
0.51867	-4
0.52233	-5
0.52600	-5
0.52967	-5
0.53333	-5
0.53700	-4
0.54067	-4
0.54433	-4
0.54800	-4
0.55167	-4
0.55533	-4
0.55900	-4
0.56267	-4
0.56633	-4
0.57000	-3
0.57367	-3
0.57733	-3
0.58100	-3
0.58467	-2
0.58833	-2
0.59200	-2
0.59567	-2
0.59933	-2
0.60300	-1
0.60667	-1
0.61033	-1
0.61400	-1
0.61767	-1
0.62133	-0
0.62500	-0
0.62867	-0
0.63233	0
0.63600	0
0.63967	0
0.64333	1
0.64700	0
0.65067	-0
0.65433	-1
0.65800	-1
0.66167	-2
0.66533	-2
0.66900	-3
0.67267	-3
0.67633	-4
0.68000	-4
0.68367	-4
0.68733	-4
0.69100	-5
0.69467	-4
0.69833	-4
0.70200	-4
0.70567	-4
0.70933	-4
0.71300	-4
0.71667	-4
0.72033	-4
0.72400	-3
0.72767	-3
0.73133	-3
0.73500	-3
0.73867	-2
0.74233	-2
0.74600	-2
0.74967	-2
0.75333	-2
0.75700	-2
0.76067	-2
0.76433	-2
0.76800	-2
0.77167	-2
0.77533	-3
0.77900	-3
0.78267	-3
0.78633	-4
0.79000	-4
0.79367	-4
0.79733	-4
0.80100	-4
0.80467	-4
0.80833	-4
0.81200	-4
0.81567	-4
0.81933	-4
0.82300	-4
0.82667	-3
0.83033	-3
0.83400	-3
0.83767	-3
0.84133	-2
0.84500	-2
0.84867	-2
0.85233	-2
0.85600	-2
0.85967	-2
0.86333	-2
0.86700	-2
0.87067	-3
0.87433	-3
0.87800	-3
0.88167	-3
0.88533	-4
0.88900	-4
0.89267	-4
0.89633	-4
0.90000	-4
0.90367	-5
0.90733	-5
0.91100	-4
0.91467	-4
0.91833	-4
0.92200	-4
0.92567	-4
0.92933	-4
0.93300	-4
0.93667	-4
0.94033	-4
0.94400	-4
0.94767	-3
0.95133	-3
0.95500	-2
0.95867	-2
0.96233	-2
0.96600	-2
0.96967	-2
0.97333	-2
0.97700	-2
0.98067	-2
0.98433	-2
0.98800	-2
0.99167	-3
0.99533	-3
0.99900	-3
1.00267	-3
1.00633	-3
1.01000	-3
1.01367	-3
1.01733	-4
1.02100	-4
1.02467	-4
1.02833	-4
1.03200	-4
1.03567	-4
1.03933	-4
1.04300	-3
1.04667	-3
1.05033	-3
1.05400	-3
1.05767	-3
1.06133	-3
1.06500	-4
1.06867	-4
1.07233	-4
1.07600	-4
1.07967	-4
1.08333	-4
1.08700	-4
1.09067	-4
1.09433	-4
1.09800	-4
1.10167	-4
1.10533	-5
1.10900	-5
1.11267	-5
1.11633	-5
1.12000	-5
1.12367	-5
1.12733	-5
1.13100	-6
1.13467	-6
1.13833	-6
1.14200	-6
1.14567	-6
1.14933	-6
1.15300	-6
1.15667	-6
1.16033	-6
1.16400	-5
1.16767	-5
1.17133	-5
1.17500	-4
1.17867	-4
1.18233	-4
1.18600	-5
1.18967	-5
1.19333	-5
1.19700	-5
1.20067	-5
1.20433	-6
1.20800	-6
1.21167	-5
1.21533	-5
1.21900	-5
1.22267	-5
1.22633	-5
1.23000	-5
1.23367	-5
1.23733	-5
1.24100	-4
1.24467	-4
1.24833	-4
1.25200	-4
1.25567	-4
1.25933	-3
1.26300	-3
1.26667	-3
1.27033	-4
1.27400	-4
1.27767	-4
1.28133	-4
1.28500	-4
1.28867	-4
1.29233	-5
1.29600	-5
1.29967	-5
1.30333	-5
1.30700	-6
1.31067	-6
1.31433	-6
1.31800	-6
1.32167	-6
1.32533	-6
1.32900	-6
1.33267	-6
1.33633	-6
1.34000	-5
1.34367	-5
1.34733	-5
1.35100	-5
1.35467	-5
1.35833	-5
1.36200	-5
1.36567	-5
1.36933	-5
1.37300	-5
1.37667	-5
1.38033	-5
1.38400	-5
1.38767	-5
1.39133	-5
1.39500	-5
1.39867	-6
1.40233	-6
1.40600	-6
1.40967	-6
1.41333	-6
1.41700	-6
1.42067	-6
1.42433	-6
1.42800	-6
1.43167	-6
1.43533	-6
1.43900	-6
1.44267	-6
1.44633	-6
1.45000	-6
1.45367	-5
1.45733	-5
1.46100	-5
1.46467	-5
1.46833	-5
1.47200	-5
1.47567	-5
1.47933	-5
1.48300	-5
1.48667	-5
1.49033	-5
1.49400	-5
1.49767	-4
1.50133	-4
1.50500	-4
1.50867	-4
1.51233	-3
1.51600	-3
1.51967	-3
1.52333	-3
1.52700	-3
1.53067	-3
1.53433	-3
1.53800	-3
1.54167	-3
1.54533	-3
1.54900	-3
1.55267	-3
1.55633	-4
1.56000	-4
1.56367	-4
1.56733	-4
1.57100	-4
1.57467	-5
1.57833	-5
1.58200	-5
1.58567	-5
1.58933	-6
1.59300	-6
1.59667	-6
1.60033	-7
1.60400	-7
1.60767	-9
1.61133	-11
1.61500	-13
1.61867	-15
1.62233	-17
1.62600	-20
1.62967	-23
1.63333	-26
1.63700	-29
1.64067	-32
1.64433	-35
1.64800	-38
1.65167	-41
1.65533	-45
1.65900	-48
1.66267	-52
1.66633	-56
1.67000	-60
1.67367	-64
1.67733	-69
1.68100	-73
1.68467	-78
1.68833	-82
1.69200	-86
1.69567	-89
1.69933	-92
1.70300	-94
1.70667	-96
1.71033	-98
1.71400	-99
1.71767	-100
1.72133	-101
1.72500	-102
1.72867	-102
1.73233	-102
1.73600	-102
1.73967	-102
1.74333	-102
1.74700	-102
1.75067	-103
1.75433	-104
1.75800	-104
1.76167	-105
1.76533	-105
1.76900	-106
1.77267	-106
1.77633	-106
1.78000	-106
1.78367	-106
1.78733	-106
1.79100	-106
1.79467	-107
1.79833	-107
1.80200	-107
1.80567	-107
1.80933	-107
1.81300	-107
1.81667	-107
1.82033	-107
1.82400	-107
1.82767	-107
1.83133	-107
1.83500	-107
1.83867	-107
1.84233	-107
1.84600	-107
1.84967	-107
1.85333	-107
1.85700	-107
1.86067	-107
1.86433	-107
1.86800	-106
1.87167	-106
1.87533	-106
1.87900	-105
1.88267	-105
1.88633	-105
1.89000	-105
1.89367	-105
1.89733	-105
1.90100	-105
1.90467	-104
1.90833	-104
1.91200	-104
1.91567	-104
1.91933	-104
1.92300	-104
1.92667	-103
1.93033	-103
1.93400	-103
1.93767	-103
1.94133	-103
1.94500	-103
1.94867	-103
1.95233	-103
1.95600	-103
1.95967	-102
1.96333	-102
1.96700	-102
1.97067	-101
1.97433	-101
1.97800	-101
1.98167	-101
1.98533	-100
1.98900	-100
1.99267	-100
1.99633	-99
2.00000	-98
2.00367	-98
2.00733	-97
2.01100	-97
2.01467	-97
2.01833	-96
2.02200	-96
2.02567	-96
2.02933	-96
2.03300	-96
2.03667	-96
2.04033	-96
2.04400	-96
2.04767	-96
2.05133	-96
2.05500	-96
2.05867	-95
2.06233	-94
2.06600	-93
2.06967	-93
2.07333	-92
2.07700	-91
2.08067	-91
2.08433	-90
2.08800	-90
2.09167	-90
2.09533	-90
2.09900	-90
2.10267	-90
2.10633	-90
2.11000	-90
2.11367	-89
2.11733	-89
2.12100	-89
2.12467	-89
2.12833	-88
2.13200	-87
2.13567	-86
2.13933	-86
2.14300	-86
2.14667	-86
2.15033	-86
2.15400	-87
2.15767	-88
2.16133	-88
2.16500	-89
2.16867	-89
2.17233	-89
2.17600	-89
2.17967	-89
2.18333	-88
2.18700	-87
2.19067	-87
2.19433	-87
2.19800	-87
2.20167	-87
2.20533	-87
2.20900	-86
2.21267	-86
2.21633	-85
2.22000	-84
2.22367	-82
2.22733	-81
2.23100	-80
2.23467	-79
2.23833	-79
2.24200	-79
2.24567	-80
2.24933	-81
2.25300	-82
2.25667	-82
2.26033	-82
2.26400	-81
2.26767	-80
2.27133	-79
2.27500	-79
2.27867	-78
2.28233	-77
2.28600	-75
2.28967	-75
2.29333	-74
2.29700	-74
2.30067	-75
2.30433	-76
2.30800	-77
2.31167	-77
2.31533	-78
2.31900	-78
2.32267	-77
2.32633	-76
2.33000	-75
2.33367	-73
2.33733	-72
2.34100	-71
2.34467	-70
2.34833	-69
2.35200	-69
2.35567	-69
2.35933	-69
2.36300	-69
2.36667	-69
2.37033	-68
2.37400	-67
2.37767	-64
2.38133	-61
2.38500	-58
2.38867	-54
2.39233	-50
2.39600	-45
2.39967	-40
2.40333	-35
2.40700	-31
2.41067	-26
2.41433	-22
2.41800	-18
2.42167	-15
2.42533	-12
2.42900	-10
2.43267	-7
2.43633	-5
2.44000	-3
2.44367	-1
2.44733	1
2.45100	3
2.45467	4
2.45833	6
2.46200	7
2.46567	8
2.46933	9
2.47300	10
2.47667	11
2.48033	12
2.48400	12
2.48767	13
2.49133	13
2.49500	13
2.49867	13
2.50233	13
2.50600	14
2.50967	14
2.51333	14
2.51700	14
2.52067	13
2.52433	13
2.52800	13
2.53167	12
2.53533	11
2.53900	11
2.54267	10
2.54633	10
2.55000	10
2.55367	10
2.55733	11
2.56100	12
2.56467	12
2.56833	13
2.57200	14
2.57567	15
2.57933	15
2.58300	16
2.58667	16
2.59033	16
2.59400	17
2.59767	17
2.60133	18
2.60500	18
2.60867	19
2.61233	19
2.61600	19
2.61967	19
2.62333	19
2.62700	19
2.63067	19
2.63433	20
2.63800	20
2.64167	21
2.64533	21
2.64900	22
2.65267	23
2.65633	23
2.66000	24
2.66367	24
2.66733	24
2.67100	24
2.67467	24
2.67833	24
2.68200	24
2.68567	24
2.68933	24
2.69300	25
2.69667	25
2.70033	26
2.70400	27
2.70767	27
2.71133	27
2.71500	27
2.71867	26
2.72233	26
2.72600	25
2.72967	25
2.73333	25
2.73700	25
2.74067	25
2.74433	25
2.74800	25
2.75167	25
2.75533	26
2.75900	26
2.76267	27
2.76633	28
2.77000	28
2.77367	29
2.77733	29
2.78100	29
2.78467	29
2.78833	30
2.79200	29
2.79567	29
2.79933	28
2.80300	28
2.80667	27
2.81033	27
2.81400	26
2.81767	26
2.82133	25
2.82500	25
2.82867	25
2.83233	25
2.83600	25
2.83967	25
2.84333	26
2.84700	26
2.85067	26
2.85433	26
2.85800	25
2.86167	23
2.86533	20
2.86900	13
2.87267	4
2.87633	-10
2.88000	-28
2.88367	-53
2.88733	-84
2.89100	-121
2.89467	-164
2.89833	-214
2.90200	-269
2.90567	-331
2.90933	-398
2.91300	-470
2.91667	-547
2.92033	-628
2.92400	-713
2.92767	-801
2.93133	-892
2.93500	-986
2.93867	-1081
2.94233	-1179
2.94600	-1278
2.94967	-1378
2.95333	-1467
2.95700	-1534
2.96067	-1567
2.96433	-1562
2.96800	-1521
2.97167	-1450
2.97533	-1358
2.97900	-1252
2.98267	-1140
2.98633	-1027
2.99000	-916
2.99367	-811
2.99733	-712
3.00100	-623
3.00467	-542
3.00833	-469
3.01200	-405
3.01567	-348
3.01933	-298
3.02300	-255
3.02667	-217
3.03033	-185
3.03400	-157
3.03767	-134
3.04133	-114
3.04500	-97
3.04867	-82
3.05233	-69
3.05600	-58
3.05967	-48
3.06333	-40
3.06700	-32
3.07067	-26
3.07433	-20
3.07800	-16
3.08167	-12
3.08533	-9
3.08900	-6
3.09267	-3
3.09633	-1
3.10000	0
3.10367	1
3.10733	2
3.11100	3
3.11467	3
3.11833	4
3.12200	5
3.12567	5
3.12933	6
3.13300	6
3.13667	7
3.14033	7
3.14400	8
3.14767	9
3.15133	9
3.15500	10
3.15867	10
3.16233	11
3.16600	12
3.16967	12
3.17333	13
3.17700	14
3.18067	15
3.18433	15
3.18800	16
3.19167	16
3.19533	16
3.19900	17
3.20267	17
3.20633	18
3.21000	19
3.21367	19
3.21733	20
3.22100	20
3.22467	21
3.22833	21
3.23200	21
3.23567	21
3.23933	21
3.24300	21
3.24667	20
3.25033	20
3.25400	20
3.25767	20
3.26133	21
3.26500	21
3.26867	21
3.27233	21
3.27600	21
3.27967	21
3.28333	21
3.28700	21
3.29067	20
3.29433	20
3.29800	19
3.30167	19
3.30533	18
3.30900	18
3.31267	19
3.31633	19
3.32000	19
3.32367	19
3.32733	19
3.33100	19
3.33467	20
3.33833	20
3.34200	21
3.34567	22
3.34933	23
3.35300	24
3.35667	25
3.36033	26
3.36400	26
3.36767	27
3.37133	28
3.37500	28
3.37867	29
3.38233	29
3.38600	29
3.38967	29
3.39333	29
3.39700	30
3.40067	30
3.40433	30
3.40800	30
3.41167	30
3.41533	30
3.41900	30
3.42267	30
3.42633	30
3.43000	30
3.43367	30
3.43733	30
3.44100	29
3.44467	29
3.44833	29
3.45200	29
3.45567	29
3.45933	28
3.46300	28
3.46667	27
3.47033	26
3.47400	25
3.47767	25
3.48133	25
3.48500	25
3.48867	25
3.49233	25
3.49600	26
3.49967	26
3.50333	26
3.50700	26
3.51067	26
3.51433	26
3.51800	27
3.52167	27
3.52533	27
3.52900	27
3.53267	27
3.53633	28
3.54000	28
3.54367	28
3.54733	28
3.55100	28
3.55467	28
3.55833	29
3.56200	29
3.56567	29
3.56933	30
3.57300	30
3.57667	29
3.58033	29
3.58400	28
3.58767	27
3.59133	26
3.59500	25
3.59867	24
3.60233	24
3.60600	24
3.60967	23
3.61333	23
3.61700	24
3.62067	24
3.62433	24
3.62800	25
3.63167	26
3.63533	26
3.63900	26
3.64267	26
3.64633	26
3.65000	25
3.65367	25
3.65733	25
3.66100	24
3.66467	25
3.66833	25
3.67200	26
3.67567	26
3.67933	26
3.68300	26
3.68667	26
3.69033	26
3.69400	26
3.69767	26
3.70133	26
3.70500	26
3.70867	27
3.71233	27
3.71600	27
3.71967	28
3.72333	28
3.72700	29
3.73067	29
3.73433	29
3.73800	29
3.74167	29
3.74533	29
3.74900	29
3.75267	29
3.75633	29
3.76000	29
3.76367	29
3.76733	29
3.77100	29
3.77467	29
3.77833	29
3.78200	29
3.78567	29
3.78933	29
3.79300	29
3.79667	29
3.80033	29
3.80400	29
3.80767	29
3.81133	29
3.81500	29
3.81867	29
3.82233	29
3.82600	29
3.82967	28
3.83333	28
3.83700	28
3.84067	28
3.84433	28
3.84800	28
3.85167	27
3.85533	27
3.85900	26
3.86267	25
3.86633	25
3.87000	25
3.87367	26
3.87733	26
3.88100	26
3.88467	27
3.88833	27
3.89200	28
3.89567	28
3.89933	29
3.90300	29
3.90667	30
3.91033	30
3.91400	30
3.91767	30
3.92133	30
3.92500	30
3.92867	30
3.93233	30
3.93600	31
3.93967	31
3.94333	30
3.94700	30
3.95067	30
3.95433	31
3.95800	31
3.96167	31
3.96533	31
3.96900	30
3.97267	30
3.97633	30
3.98000	30
3.98367	30
3.98733	30
3.99100	29
3.99467	29
3.99833	29

[Chromatogram (Ch3)]
Interval(msec)	220
# of Points	1091
Start Time(min)	0.002
End Time(min)	3.998
R.Time (min)	Intensity
0.00167	-0
0.00533	-2
0.00900	-5
0.01267	-7
0.01633	-9
0.02000	-9
0.02367	-11
0.02733	-12
0.03100	-11
0.03467	-8
0.03833	-5
0.04200	-1
0.04567	1
0.04933	0
0.05300	-1
0.05667	-2
0.06033	-4
0.06400	-5
0.06767	-5
0.07133	-3
0.07500	-2
0.07867	-1
0.08233	-2
0.08600	1
0.08967	2
0.09333	2
0.09700	1
0.10067	1
0.10433	1
0.10800	0
0.11167	1
0.11533	2
0.11900	3
0.12267	4
0.12633	4
0.13000	3
0.13367	1
0.13733	-1
0.14100	-0
0.14467	1
0.14833	1
0.15200	1
0.15567	2
0.15933	2
0.16300	0
0.16667	-0
0.17033	1
0.17400	2
0.17767	2
0.18133	3
0.18500	5
0.18867	6
0.19233	7
0.19600	8
0.19967	9
0.20333	9
0.20700	7
0.21067	6
0.21433	5
0.21800	5
0.22167	2
0.22533	-1
0.22900	-2
0.23267	-3
0.23633	-1
0.24000	0
0.24367	3
0.24733	5
0.25100	4
0.25467	5
0.25833	6
0.26200	5
0.26567	3
0.26933	2
0.27300	4
0.27667	6
0.28033	7
0.28400	8
0.28767	9
0.29133	10
0.29500	9
0.29867	7
0.30233	5
0.30600	4
0.30967	4
0.31333	7
0.31700	10
0.32067	8
0.32433	5
0.32800	5
0.33167	4
0.33533	6
0.33900	7
0.34267	6
0.34633	6
0.35000	7
0.35367	8
0.35733	5
0.36100	4
0.36467	3
0.36833	3
0.37200	5
0.37567	6
0.37933	5
0.38300	6
0.38667	7
0.39033	7
0.39400	8
0.39767	8
0.40133	8
0.40500	9
0.40867	8
0.41233	8
0.41600	10
0.41967	10
0.42333	9
0.42700	7
0.43067	8
0.43433	10
0.43800	13
0.44167	13
0.44533	13
0.44900	11
0.45267	9
0.45633	10
0.46000	8
0.46367	6
0.46733	6
0.47100	6
0.47467	7
0.47833	10
0.48200	11
0.48567	10
0.48933	11
0.49300	11
0.49667	10
0.50033	9
0.50400	7
0.50767	8
0.51133	11
0.51500	15
0.51867	16
0.52233	17
0.52600	17
0.52967	15
0.53333	13
0.53700	12
0.54067	12
0.54433	13
0.54800	12
0.55167	9
0.55533	7
0.55900	5
0.56267	3
0.56633	4
0.57000	7
0.57367	10
0.57733	10
0.58100	9
0.58467	10
0.58833	12
0.59200	12
0.59567	12
0.59933	12
0.60300	11
0.60667	12
0.61033	14
0.61400	15
0.61767	16
0.62133	16
0.62500	14
0.62867	13
0.63233	13
0.63600	14
0.63967	15
0.64333	15
0.64700	14
0.65067	14
0.65433	13
0.65800	14
0.66167	15
0.66533	16
0.66900	15
0.67267	15
0.67633	15
0.68000	15
0.68367	15
0.68733	15
0.69100	18
0.69467	20
0.69833	21
0.70200	22
0.70567	20
0.70933	16
0.71300	15
0.71667	18
0.72033	18
0.72400	19
0.72767	20
0.73133	17
0.73500	16
0.73867	19
0.74233	22
0.74600	22
0.74967	22
0.75333	21
0.75700	20
0.76067	18
0.76433	16
0.76800	16
0.77167	18
0.77533	19
0.77900	19
0.78267	17
0.78633	17
0.79000	19
0.79367	21
0.79733	21
0.80100	22
0.80467	22
0.80833	22
0.81200	23
0.81567	24
0.81933	24
0.82300	23
0.82667	21
0.83033	20
0.83400	17
0.83767	17
0.84133	19
0.84500	20
0.84867	20
0.85233	20
0.85600	20
0.85967	19
0.86333	19
0.86700	19
0.87067	20
0.87433	20
0.87800	20
0.88167	19
0.88533	17
0.88900	18
0.89267	21
0.89633	24
0.90000	22
0.90367	19
0.90733	18
0.91100	17
0.91467	18
0.91833	18
0.92200	16
0.92567	17
0.92933	18
0.93300	20
0.93667	22
0.94033	23
0.94400	25
0.94767	25
0.95133	25
0.95500	25
0.95867	23
0.96233	22
0.96600	22
0.96967	24
0.97333	26
0.97700	27
0.98067	23
0.98433	20
0.98800	18
0.99167	19
0.99533	20
0.99900	20
1.00267	19
1.00633	20
1.01000	22
1.01367	23
1.01733	23
1.02100	23
1.02467	25
1.02833	26
1.03200	25
1.03567	25
1.03933	23
1.04300	21
1.04667	20
1.05033	21
1.05400	22
1.05767	22
1.06133	22
1.06500	21
1.06867	22
1.07233	21
1.07600	21
1.07967	23
1.08333	23
1.08700	23
1.09067	22
1.09433	20
1.09800	20
1.10167	21
1.10533	21
1.10900	22
1.11267	24
1.11633	26
1.12000	27
1.12367	28
1.12733	29
1.13100	29
1.13467	29
1.13833	29
1.14200	27
1.14567	25
1.14933	25
1.15300	26
1.15667	25
1.16033	25
1.16400	27
1.16767	27
1.17133	27
1.17500	29
1.17867	30
1.18233	30
1.18600	28
1.18967	26
1.19333	25
1.19700	22
1.20067	19
1.20433	16
1.20800	16
1.21167	19
1.21533	21
1.21900	23
1.22267	22
1.22633	23
1.23000	24
1.23367	25
1.23733	25
1.24100	25
1.24467	25
1.24833	26
1.25200	28
1.25567	27
1.25933	27
1.26300	28
1.26667	28
1.27033	26
1.27400	26
1.27767	26
1.28133	24
1.28500	21
1.28867	21
1.29233	21
1.29600	21
1.29967	21
1.30333	22
1.30700	24
1.31067	27
1.31433	28
1.31800	26
1.32167	23
1.32533	23
1.32900	21
1.33267	21
1.33633	22
1.34000	24
1.34367	24
1.34733	23
1.35100	21
1.35467	21
1.35833	24
1.36200	27
1.36567	28
1.36933	28
1.37300	27
1.37667	26
1.38033	25
1.38400	25
1.38767	24
1.39133	23
1.39500	23
1.39867	22
1.40233	22
1.40600	21
1.40967	18
1.41333	18
1.41700	20
1.42067	21
1.42433	22
1.42800	23
1.43167	25
1.43533	25
1.43900	26
1.44267	27
1.44633	27
1.45000	25
1.45367	24
1.45733	23
1.46100	22
1.46467	23
1.46833	23
1.47200	25
1.47567	27
1.47933	28
1.48300	30
1.48667	30
1.49033	31
1.49400	33
1.49767	32
1.50133	31
1.50500	30
1.50867	28
1.51233	28
1.51600	27
1.51967	26
1.52333	24
1.52700	22
1.53067	23
1.53433	24
1.53800	26
1.54167	28
1.54533	28
1.54900	27
1.55267	25
1.55633	26
1.56000	27
1.56367	28
1.56733	29
1.57100	28
1.57467	25
1.57833	22
1.58200	20
1.58567	19
1.58933	20
1.59300	22
1.59667	24
1.60033	27
1.60400	30
1.60767	29
1.61133	27
1.61500	26
1.61867	27
1.62233	28
1.62600	30
1.62967	31
1.63333	31
1.63700	31
1.64067	32
1.64433	32
1.64800	33
1.65167	31
1.65533	30
1.65900	31
1.66267	30
1.66633	31
1.67000	29
1.67367	29
1.67733	30
1.68100	33
1.68467	35
1.68833	34
1.69200	34
1.69567	35
1.69933	35
1.70300	36
1.70667	37
1.71033	37
1.71400	37
1.71767	38
1.72133	38
1.72500	39
1.72867	40
1.73233	41
1.73600	42
1.73967	44
1.74333	43
1.74700	43
1.75067	43
1.75433	42
1.75800	43
1.76167	46
1.76533	46
1.76900	42
1.77267	38
1.77633	38
1.78000	41
1.78367	44
1.78733	48
1.79100	50
1.79467	50
1.79833	51
1.80200	51
1.80567	52
1.80933	51
1.81300	48
1.81667	46
1.82033	44
1.82400	43
1.82767	43
1.83133	44
1.83500	45
1.83867	47
1.84233	48
1.84600	49
1.84967	49
1.85333	52
1.85700	53
1.86067	55
1.86433	59
1.86800	61
1.87167	58
1.87533	58
1.87900	59
1.88267	59
1.88633	58
1.89000	61
1.89367	64
1.89733	67
1.90100	66
1.90467	66
1.90833	65
1.91200	65
1.91567	64
1.91933	64
1.92300	66
1.92667	66
1.93033	68
1.93400	71
1.93767	71
1.94133	73
1.94500	76
1.94867	78
1.95233	80
1.95600	81
1.95967	80
1.96333	80
1.96700	78
1.97067	77
1.97433	78
1.97800	78
1.98167	77
1.98533	78
1.98900	80
1.99267	81
1.99633	82
2.00000	81
2.00367	82
2.00733	85
2.01100	87
2.01467	88
2.01833	89
2.02200	90
2.02567	90
2.02933	90
2.03300	91
2.03667	94
2.04033	96
2.04400	96
2.04767	95
2.05133	95
2.05500	95
2.05867	95
2.06233	96
2.06600	95
2.06967	94
2.07333	94
2.07700	95
2.08067	97
2.08433	100
2.08800	103
2.09167	107
2.09533	108
2.09900	108
2.10267	108
2.10633	109
2.11000	109
2.11367	111
2.11733	112
2.12100	112
2.12467	111
2.12833	110
2.13200	110
2.13567	110
2.13933	108
2.14300	106
2.14667	107
2.15033	109
2.15400	110
2.15767	109
2.16133	108
2.16500	110
2.16867	113
2.17233	115
2.17600	116
2.17967	115
2.18333	115
2.18700	117
2.19067	118
2.19433	118
2.19800	119
2.20167	120
2.20533	121
2.20900	120
2.21267	120
2.21633	121
2.22000	122
2.22367	121
2.22733	121
2.23100	122
2.23467	125
2.23833	129
2.24200	133
2.24567	133
2.24933	133
2.25300	135
2.25667	133
2.26033	131
2.26400	129
2.26767	127
2.27133	125
2.27500	127
2.27867	130
2.28233	135
2.28600	138
2.28967	139
2.29333	137
2.29700	135
2.30067	134
2.30433	134
2.30800	135
2.31167	136
2.31533	138
2.31900	137
2.32267	136
2.32633	134
2.33000	132
2.33367	132
2.33733	134
2.34100	135
2.34467	137
2.34833	139
2.35200	141
2.35567	145
2.35933	147
2.36300	146
2.36667	146
2.37033	147
2.37400	149
2.37767	148
2.38133	148
2.38500	148
2.38867	145
2.39233	143
2.39600	145
2.39967	146
2.40333	147
2.40700	150
2.41067	152
2.41433	155
2.41800	159
2.42167	160
2.42533	160
2.42900	160
2.43267	158
2.43633	156
2.44000	162
2.44367	215
2.44733	327
2.45100	455
2.45467	563
2.45833	649
2.46200	718
2.46567	766
2.46933	794
2.47300	811
2.47667	828
2.48033	845
2.48400	863
2.48767	885
2.49133	906
2.49500	923
2.49867	929
2.50233	924
2.50600	913
2.50967	902
2.51333	891
2.51700	882
2.52067	872
2.52433	865
2.52800	860
2.53167	859
2.53533	861
2.53900	866
2.54267	871
2.54633	878
2.55000	886
2.55367	896
2.55733	905
2.56100	912
2.56467	914
2.56833	909
2.57200	897
2.57567	881
2.57933	863
2.58300	847
2.58667	831
2.59033	816
2.59400	802
2.59767	792
2.60133	784
2.60500	777
2.60867	770
2.61233	765
2.61600	762
2.61967	759
2.62333	756
2.62700	750
2.63067	743
2.63433	737
2.63800	733
2.64167	727
2.64533	724
2.64900	723
2.65267	721
2.65633	720
2.66000	719
2.66367	719
2.66733	720
2.67100	722
2.67467	728
2.67833	732
2.68200	736
2.68567	743
2.68933	749
2.69300	754
2.69667	757
2.70033	758
2.70400	758
2.70767	759
2.71133	759
2.71500	757
2.71867	752
2.72233	747
2.72600	743
2.72967	738
2.73333	734
2.73700	729
2.74067	723
2.74433	716
2.74800	709
2.75167	701
2.75533	692
2.75900	688
2.76267	685
2.76633	681
2.77000	677
2.77367	675
2.77733	671
2.78100	666
2.78467	662
2.78833	659
2.79200	656
2.79567	653
2.79933	651
2.80300	650
2.80667	649
2.81033	648
2.81400	647
2.81767	644
2.82133	641
2.82500	643
2.82867	652
2.83233	672
2.83600	720
2.83967	833
2.84333	1063
2.84700	1475
2.85067	2134
2.85433	3083
2.85800	4329
2.86167	5842
2.86533	7547
2.86900	9319
2.87267	11019
2.87633	12509
2.88000	13678
2.88367	14457
2.88733	14817
2.89100	14778
2.89467	14397
2.89833	13748
2.90200	12914
2.90567	11967
2.90933	10973
2.91300	9978
2.91667	9016
2.92033	8109
2.92400	7266
2.92767	6495
2.93133	5798
2.93500	5171
2.93867	4609
2.94233	4112
2.94600	3672
2.94967	3286
2.95333	2948
2.95700	2652
2.96067	2392
2.96433	2164
2.96800	1968
2.97167	1793
2.97533	1640
2.97900	1508
2.98267	1394
2.98633	1295
2.99000	1210
2.99367	1139
2.99733	1078
3.00100	1025
3.00467	977
3.00833	935
3.01200	898
3.01567	868
3.01933	842
3.02300	820
3.02667	803
3.03033	787
3.03400	771
3.03767	757
3.04133	746
3.04500	736
3.04867	726
3.05233	717
3.05600	712
3.05967	707
3.06333	698
3.06700	691
3.07067	687
3.07433	685
3.07800	684
3.08167	683
3.08533	680
3.08900	678
3.09267	674
3.09633	670
3.10000	667
3.10367	662
3.10733	658
3.11100	654
3.11467	652
3.11833	650
3.12200	647
3.12567	645
3.12933	645
3.13300	645
3.13667	645
3.14033	644
3.14400	643
3.14767	641
3.15133	638
3.15500	637
3.15867	636
3.16233	635
3.16600	632
3.16967	629
3.17333	626
3.17700	627
3.18067	628
3.18433	628
3.18800	626
3.19167	623
3.19533	621
3.19900	619
3.20267	619
3.20633	618
3.21000	615
3.21367	612
3.21733	609
3.22100	607
3.22467	606
3.22833	607
3.23200	606
3.23567	604
3.23933	601
3.24300	596
3.24667	591
3.25033	590
3.25400	590
3.25767	590
3.26133	590
3.26500	587
3.26867	586
3.27233	586
3.27600	584
3.27967	581
3.28333	577
3.28700	573
3.29067	570
3.29433	569
3.29800	568
3.30167	567
3.30533	566
3.30900	563
3.31267	561
3.31633	559
3.32000	555
3.32367	551
3.32733	549
3.33100	548
3.33467	547
3.33833	547
3.34200	545
3.34567	542
3.34933	538
3.35300	535
3.35667	534
3.36033	532
3.36400	529
3.36767	528
3.37133	527
3.37500	526
3.37867	524
3.38233	520
3.38600	517
3.38967	513
3.39333	511
3.39700	510
3.40067	508
3.40433	505
3.40800	502
3.41167	501
3.41533	499
3.41900	495
3.42267	490
3.42633	487
3.43000	486
3.43367	484
3.43733	482
3.44100	480
3.44467	477
3.44833	477
3.45200	478
3.45567	478
3.45933	477
3.46300	475
3.46667	474
3.47033	474
3.47400	474
3.47767	472
3.48133	470
3.48500	469
3.48867	468
3.49233	467
3.49600	465
3.49967	462
3.50333	461
3.50700	459
3.51067	458
3.51433	458
3.51800	459
3.52167	456
3.52533	451
3.52900	449
3.53267	447
3.53633	445
3.54000	442
3.54367	440
3.54733	441
3.55100	442
3.55467	440
3.55833	437
3.56200	432
3.56567	428
3.56933	426
3.57300	424
3.57667	423
3.58033	422
3.58400	422
3.58767	420
3.59133	418
3.59500	415
3.59867	412
3.60233	411
3.60600	410
3.60967	407
3.61333	407
3.61700	407
3.62067	406
3.62433	407
3.62800	407
3.63167	407
3.63533	406
3.63900	403
3.64267	401
3.64633	401
3.65000	400
3.65367	398
3.65733	396
3.66100	394
3.66467	392
3.66833	390
3.67200	390
3.67567	389
3.67933	389
3.68300	387
3.68667	385
3.69033	384
3.69400	384
3.69767	384
3.70133	383
3.70500	380
3.70867	375
3.71233	370
3.71600	368
3.71967	368
3.72333	367
3.72700	366
3.73067	366
3.73433	364
3.73800	363
3.74167	362
3.74533	362
3.74900	362
3.75267	361
3.75633	361
3.76000	360
3.76367	360
3.76733	357
3.77100	355
3.77467	353
3.77833	352
3.78200	351
3.78567	349
3.78933	345
3.79300	344
3.79667	343
3.80033	340
3.80400	339
3.80767	336
3.81133	334
3.81500	332
3.81867	331
3.82233	328
3.82600	327
3.82967	327
3.83333	326
3.83700	325
3.84067	324
3.84433	322
3.84800	320
3.85167	321
3.85533	319
3.85900	316
3.86267	315
3.86633	316
3.87000	315
3.87367	315
3.87733	313
3.88100	310
3.88467	307
3.88833	306
3.89200	304
3.89567	303
3.89933	301
3.90300	300
3.90667	299
3.91033	297
3.91400	294
3.91767	292
3.92133	288
3.92500	285
3.92867	283
3.93233	283
3.93600	285
3.93967	286
3.94333	284
3.94700	280
3.95067	278
3.95433	277
3.95800	274
3.96167	270
3.96533	268
3.96900	265
3.97267	265
3.97633	268
3.98000	270
3.98367	269
3.98733	264
3.99100	260
3.99467	258
3.99833	258

[Status Trace (Column Oven Temperature)]
Interval(msec)	1000
# of Points	240
Start Time(min)	0.003
End Time(min)	3.987
Intensity Units	
Intensity Multiplier	1
R.Time (min)	Intensity
0.00318	35.05
0.01985	35.05
0.03652	35.05
0.05318	35.06
0.06985	35.06
0.08652	35.06
0.10318	35.06
0.11985	35.07
0.13652	35.09
0.15318	35.08
0.16985	35.07
0.18652	35.06
0.20318	35.05
0.21985	35.04
0.23652	35.04
0.25318	35.05
0.26985	35.04
0.28652	35.03
0.30318	35.03
0.31985	35.02
0.33652	35.04
0.35318	35.05
0.36985	35.05
0.38652	35.04
0.40318	35.04
0.41985	35.03
0.43652	35.02
0.45318	35.01
0.46985	35.01
0.48652	35.00
0.50318	35.01
0.51985	35.02
0.53652	35.02
0.55318	35.02
0.56985	35.02
0.58652	35.03
0.60318	35.02
0.61985	35.01
0.63652	35.00
0.65318	35.01
0.66985	35.01
0.68652	35.02
0.70318	35.02
0.71985	35.02
0.73652	35.01
0.75318	35.02
0.76985	35.01
0.78652	35.02
0.80318	35.02
0.81985	35.02
0.83652	35.00
0.85318	35.01
0.86985	35.01
0.88652	35.01
0.90318	35.01
0.91985	35.02
0.93652	35.02
0.95318	35.00
0.96985	34.99
0.98652	34.99
1.00318	34.98
1.01985	34.98
1.03652	34.98
1.05318	34.98
1.06985	34.99
1.08652	34.99
1.10318	34.99
1.11985	34.99
1.13652	35.00
1.15318	35.01
1.16985	35.00
1.18652	35.01
1.20318	35.01
1.21985	35.02
1.23652	35.01
1.25318	35.00
1.26985	34.99
1.28652	34.99
1.30318	35.00
1.31985	35.00
1.33652	34.99
1.35318	34.98
1.36985	34.99
1.38652	35.00
1.40318	35.00
1.41985	35.01
1.43652	35.02
1.45318	35.02
1.46985	35.03
1.48652	35.03
1.50318	35.01
1.51985	35.00
1.53652	34.98
1.55318	34.98
1.56985	34.99
1.58652	34.99
1.60318	35.04
1.61985	35.15
1.63652	35.30
1.65318	35.52
1.66985	35.82
1.68652	36.20
1.70318	36.56
1.71985	36.90
1.73652	37.22
1.75318	37.57
1.76985	37.90
1.78652	38.23
1.80318	38.57
1.81985	38.89
1.83652	39.23
1.85318	39.55
1.86985	39.89
1.88652	40.21
1.90318	40.54
1.91985	40.86
1.93652	41.18
1.95318	41.51
1.96985	41.82
1.98652	42.15
2.00318	42.47
2.01985	42.77
2.03652	43.10
2.05318	43.43
2.06985	43.76
2.08652	44.08
2.10318	44.42
2.11985	44.75
2.13652	45.04
2.15318	45.39
2.16985	45.74
2.18652	46.05
2.20318	46.40
2.21985	46.71
2.23652	47.03
2.25318	47.39
2.26985	47.73
2.28652	48.03
2.30318	48.38
2.31985	48.73
2.33652	49.03
2.35318	49.35
2.36985	49.62
2.38652	49.74
2.40318	49.76
2.41985	49.76
2.43652	49.76
2.45318	49.75
2.46985	49.75
2.48652	49.75
2.50318	49.76
2.51985	49.76
2.53652	49.76
2.55318	49.78
2.56985	49.79
2.58652	49.80
2.60318	49.80
2.61985	49.81
2.63652	49.82
2.65318	49.83
2.66985	49.85
2.68652	49.85
2.70318	49.84
2.71985	49.86
2.73652	49.87
2.75318	49.87
2.76985	49.85
2.78652	49.85
2.80318	49.88
2.81985	49.90
2.83652	49.92
2.85318	49.93
2.86985	49.93
2.88652	49.94
2.90318	49.93
2.91985	49.94
2.93652	49.93
2.95318	49.93
2.96985	49.93
2.98652	49.94
3.00318	49.96
3.01985	49.96
3.03652	49.98
3.05318	49.98
3.06985	49.99
3.08652	50.01
3.10318	50.02
3.11985	50.02
3.13652	50.03
3.15318	50.04
3.16985	50.05
3.18652	50.07
3.20318	50.07
3.21985	50.07
3.23652	50.07
3.25318	50.07
3.26985	50.08
3.28652	50.08
3.30318	50.10
3.31985	50.10
3.33652	50.10
3.35318	50.09
3.36985	50.08
3.38652	50.08
3.40318	50.08
3.41985	50.08
3.43652	50.07
3.45318	50.08
3.46985	50.08
3.48652	50.07
3.50318	50.07
3.51985	50.07
3.53652	50.07
3.55318	50.07
3.56985	50.07
3.58652	50.07
3.60318	50.07
3.61985	50.08
3.63652	50.08
3.65318	50.08
3.66985	50.08
3.68652	50.07
3.70318	50.07
3.71985	50.07
3.73652	50.07
3.75318	50.07
3.76985	50.07
3.78652	50.07
3.80318	50.07
3.81985	50.07
3.83652	50.08
3.85318	50.09
3.86985	50.09
3.88652	50.09
3.90318	50.09
3.91985	50.09
3.93652	50.08
3.95318	50.08
3.96985	50.07
3.98652	50.07

[Status Trace (Injection Unit Temperature)]
Interval(msec)	1000
# of Points	240
Start Time(min)	0.003
End Time(min)	3.987
Intensity Units	
Intensity Multiplier	1
R.Time (min)	Intensity
0.00318	99.97
0.01985	99.98
0.03652	99.98
0.05318	99.98
0.06985	99.98
0.08652	99.98
0.10318	99.98
0.11985	99.98
0.13652	99.98
0.15318	99.98
0.16985	99.98
0.18652	99.98
0.20318	99.99
0.21985	99.98
0.23652	99.98
0.25318	99.99
0.26985	99.99
0.28652	99.99
0.30318	99.99
0.31985	99.99
0.33652	99.99
0.35318	99.99
0.36985	99.99
0.38652	99.99
0.40318	99.99
0.41985	99.98
0.43652	99.98
0.45318	99.98
0.46985	99.98
0.48652	99.98
0.50318	99.99
0.51985	99.98
0.53652	99.98
0.55318	99.98
0.56985	99.98
0.58652	99.98
0.60318	99.98
0.61985	99.98
0.63652	99.98
0.65318	99.98
0.66985	99.98
0.68652	99.98
0.70318	99.98
0.71985	99.98
0.73652	99.98
0.75318	99.98
0.76985	99.98
0.78652	99.98
0.80318	99.98
0.81985	99.98
0.83652	99.98
0.85318	99.97
0.86985	99.98
0.88652	99.98
0.90318	99.98
0.91985	99.98
0.93652	99.97
0.95318	99.98
0.96985	99.97
0.98652	99.98
1.00318	99.98
1.01985	99.97
1.03652	99.97
1.05318	99.98
1.06985	99.98
1.08652	99.98
1.10318	99.98
1.11985	99.98
1.13652	99.98
1.15318	99.98
1.16985	99.98
1.18652	99.98
1.20318	99.98
1.21985	99.98
1.23652	99.98
1.25318	99.98
1.26985	99.98
1.28652	99.98
1.30318	99.98
1.31985	99.99
1.33652	99.99
1.35318	99.99
1.36985	99.98
1.38652	99.99
1.40318	99.99
1.41985	99.99
1.43652	99.99
1.45318	99.99
1.46985	99.99
1.48652	99.99
1.50318	99.99
1.51985	99.99
1.53652	99.99
1.55318	99.99
1.56985	99.99
1.58652	99.99
1.60318	99.99
1.61985	99.99
1.63652	99.99
1.65318	99.99
1.66985	99.99
1.68652	99.99
1.70318	99.99
1.71985	99.99
1.73652	99.99
1.75318	99.99
1.76985	99.99
1.78652	99.99
1.80318	99.99
1.81985	99.98
1.83652	99.99
1.85318	99.99
1.86985	99.98
1.88652	99.98
1.90318	99.98
1.91985	99.98
1.93652	99.98
1.95318	99.98
1.96985	99.98
1.98652	99.98
2.00318	99.97
2.01985	99.97
2.03652	99.97
2.05318	99.97
2.06985	99.97
2.08652	99.97
2.10318	99.97
2.11985	99.97
2.13652	99.96
2.15318	99.96
2.16985	99.97
2.18652	99.97
2.20318	99.97
2.21985	99.97
2.23652	99.97
2.25318	99.97
2.26985	99.97
2.28652	99.97
2.30318	99.97
2.31985	99.96
2.33652	99.96
2.35318	99.97
2.36985	99.96
2.38652	99.96
2.40318	99.97
2.41985	99.96
2.43652	99.96
2.45318	99.96
2.46985	99.96
2.48652	99.97
2.50318	99.96
2.51985	99.97
2.53652	99.97
2.55318	99.96
2.56985	99.97
2.58652	99.97
2.60318	99.97
2.61985	99.97
2.63652	99.97
2.65318	99.97
2.66985	99.98
2.68652	99.98
2.70318	99.98
2.71985	99.98
2.73652	99.98
2.75318	99.99
2.76985	99.99
2.78652	99.98
2.80318	99.99
2.81985	99.99
2.83652	99.99
2.85318	100.00
2.86985	100.00
2.88652	100.00
2.90318	100.00
2.91985	100.00
2.93652	100.01
2.95318	100.01
2.96985	100.01
2.98652	100.01
3.00318	100.01
3.01985	100.01
3.03652	100.02
3.05318	100.02
3.06985	100.02
3.08652	100.02
3.10318	100.02
3.11985	100.02
3.13652	100.03
3.15318	100.03
3.16985	100.03
3.18652	100.03
3.20318	100.03
3.21985	100.03
3.23652	100.04
3.25318	100.03
3.26985	100.03
3.28652	100.03
3.30318	100.03
3.31985	100.04
3.33652	100.04
3.35318	100.04
3.36985	100.04
3.38652	100.04
3.40318	100.03
3.41985	100.04
3.43652	100.05
3.45318	100.05
3.46985	100.05
3.48652	100.05
3.50318	100.04
3.51985	100.05
3.53652	100.05
3.55318	100.05
3.56985	100.05
3.58652	100.05
3.60318	100.05
3.61985	100.05
3.63652	100.05
3.65318	100.05
3.66985	100.05
3.68652	100.05
3.70318	100.05
3.71985	100.05
3.73652	100.05
3.75318	100.05
3.76985	100.05
3.78652	100.06
3.80318	100.05
3.81985	100.06
3.83652	100.06
3.85318	100.05
3.86985	100.05
3.88652	100.06
3.90318	100.05
3.91985	100.05
3.93652	100.05
3.95318	100.05
3.96985	100.05
3.98652	100.06

[Status Trace (Carrier Gas Pressure)]
Interval(msec)	1000
# of Points	240
Start Time(min)	0.003
End Time(min)	3.987
Intensity Units	
Intensity Multiplier	1
R.Time (min)	Intensity
0.00318	58.00
0.01985	56.12
0.03652	56.53
0.05318	58.73
0.06985	59.74
0.08652	58.18
0.10318	57.98
0.11985	58.01
0.13652	58.01
0.15318	58.01
0.16985	58.00
0.18652	58.00
0.20318	58.00
0.21985	58.00
0.23652	58.00
0.25318	58.00
0.26985	58.00
0.28652	58.00
0.30318	58.00
0.31985	58.00
0.33652	58.00
0.35318	58.00
0.36985	58.00
0.38652	58.00
0.40318	58.00
0.41985	58.00
0.43652	58.00
0.45318	58.00
0.46985	58.00
0.48652	58.00
0.50318	58.00
0.51985	58.00
0.53652	58.00
0.55318	58.00
0.56985	58.00
0.58652	58.00
0.60318	58.00
0.61985	58.00
0.63652	58.00
0.65318	58.00
0.66985	58.00
0.68652	58.00
0.70318	58.00
0.71985	58.00
0.73652	58.00
0.75318	58.00
0.76985	58.00
0.78652	58.00
0.80318	58.00
0.81985	58.00
0.83652	58.00
0.85318	58.00
0.86985	58.00
0.88652	58.00
0.90318	58.00
0.91985	58.00
0.93652	58.00
0.95318	58.00
0.96985	58.00
0.98652	58.00
1.00318	58.00
1.01985	58.00
1.03652	58.00
1.05318	58.00
1.06985	58.00
1.08652	58.00
1.10318	58.00
1.11985	58.00
1.13652	58.00
1.15318	58.00
1.16985	58.00
1.18652	58.00
1.20318	58.00
1.21985	58.00
1.23652	58.00
1.25318	58.00
1.26985	58.00
1.28652	58.00
1.30318	58.00
1.31985	58.00
1.33652	58.00
1.35318	58.00
1.36985	58.00
1.38652	58.00
1.40318	58.00
1.41985	58.00
1.43652	58.00
1.45318	58.00
1.46985	58.00
1.48652	58.00
1.50318	58.00
1.51985	58.00
1.53652	58.00
1.55318	58.00
1.56985	58.00
1.58652	58.00
1.60318	58.00
1.61985	58.00
1.63652	58.00
1.65318	58.00
1.66985	58.01
1.68652	58.01
1.70318	58.00
1.71985	58.00
1.73652	58.00
1.75318	58.00
1.76985	58.00
1.78652	58.00
1.80318	58.00
1.81985	58.00
1.83652	58.00
1.85318	58.00
1.86985	58.00
1.88652	58.00
1.90318	58.00
1.91985	58.00
1.93652	58.00
1.95318	58.00
1.96985	58.00
1.98652	58.00
2.00318	58.00
2.01985	58.00
2.03652	58.00
2.05318	58.00
2.06985	58.00
2.08652	58.00
2.10318	58.00
2.11985	58.00
2.13652	58.00
2.15318	58.00
2.16985	58.00
2.18652	58.00
2.20318	58.00
2.21985	58.00
2.23652	58.00
2.25318	58.00
2.26985	58.00
2.28652	58.00
2.30318	58.00
2.31985	58.00
2.33652	58.00
2.35318	58.00
2.36985	58.00
2.38652	57.99
2.40318	57.99
2.41985	58.00
2.43652	58.00
2.45318	58.00
2.46985	58.00
2.48652	58.00
2.50318	57.96
2.51985	58.01
2.53652	57.99
2.55318	58.00
2.56985	58.00
2.58652	58.00
2.60318	58.00
2.61985	58.00
2.63652	58.00
2.65318	58.00
2.66985	58.00
2.68652	58.00
2.70318	58.00
2.71985	58.00
2.73652	58.00
2.75318	58.00
2.76985	58.00
2.78652	58.00
2.80318	58.00
2.81985	58.00
2.83652	58.00
2.85318	58.00
2.86985	58.00
2.88652	58.00
2.90318	58.00
2.91985	58.00
2.93652	58.00
2.95318	58.00
2.96985	58.00
2.98652	58.00
3.00318	58.00
3.01985	58.00
3.03652	58.00
3.05318	58.00
3.06985	58.00
3.08652	58.00
3.10318	58.00
3.11985	58.00
3.13652	58.00
3.15318	58.00
3.16985	58.00
3.18652	58.00
3.20318	58.00
3.21985	58.00
3.23652	58.00
3.25318	58.00
3.26985	58.00
3.28652	58.00
3.30318	58.00
3.31985	58.00
3.33652	58.00
3.35318	58.00
3.36985	58.00
3.38652	58.00
3.40318	58.00
3.41985	58.00
3.43652	58.00
3.45318	58.00
3.46985	58.00
3.48652	58.00
3.50318	58.00
3.51985	58.00
3.53652	58.00
3.55318	58.00
3.56985	58.00
3.58652	58.00
3.60318	58.00
3.61985	58.00
3.63652	58.00
3.65318	58.00
3.66985	58.00
3.68652	58.00
3.70318	58.00
3.71985	58.00
3.73652	58.00
3.75318	58.00
3.76985	58.00
3.78652	58.00
3.80318	58.00
3.81985	58.00
3.83652	58.00
3.85318	58.00
3.86985	58.00
3.88652	58.00
3.90318	58.00
3.91985	58.00
3.93652	58.00
3.95318	58.00
3.96985	58.00
3.98652	58.00

[Status Trace (Carrier Gas Flow)]
Interval(msec)	1000
# of Points	240
Start Time(min)	0.003
End Time(min)	3.987
Intensity Units	
Intensity Multiplier	1
R.Time (min)	Intensity
0.00318	34.52
0.01985	34.60
0.03652	34.55
0.05318	34.55
0.06985	34.49
0.08652	34.52
0.10318	34.52
0.11985	34.51
0.13652	34.52
0.15318	34.52
0.16985	34.52
0.18652	34.52
0.20318	34.52
0.21985	34.52
0.23652	34.52
0.25318	34.52
0.26985	34.52
0.28652	34.52
0.30318	34.52
0.31985	34.52
0.33652	34.52
0.35318	34.52
0.36985	34.51
0.38652	34.52
0.40318	34.52
0.41985	34.52
0.43652	34.52
0.45318	34.52
0.46985	34.52
0.48652	34.52
0.50318	34.52
0.51985	34.52
0.53652	34.52
0.55318	34.51
0.56985	34.52
0.58652	34.52
0.60318	34.51
0.61985	34.52
0.63652	34.52
0.65318	34.51
0.66985	34.52
0.68652	34.52
0.70318	34.52
0.71985	34.51
0.73652	34.51
0.75318	34.52
0.76985	34.52
0.78652	34.53
0.80318	34.52
0.81985	34.52
0.83652	34.52
0.85318	34.52
0.86985	34.52
0.88652	34.51
0.90318	34.52
0.91985	34.52
0.93652	34.52
0.95318	34.52
0.96985	34.52
0.98652	34.52
1.00318	34.52
1.01985	34.52
1.03652	34.52
1.05318	34.52
1.06985	34.52
1.08652	34.52
1.10318	34.52
1.11985	34.52
1.13652	34.52
1.15318	34.52
1.16985	34.52
1.18652	34.52
1.20318	34.52
1.21985	34.52
1.23652	34.52
1.25318	34.52
1.26985	34.52
1.28652	34.52
1.30318	34.52
1.31985	34.52
1.33652	34.52
1.35318	34.52
1.36985	34.52
1.38652	34.52
1.40318	34.52
1.41985	34.52
1.43652	34.52
1.45318	34.52
1.46985	34.52
1.48652	34.53
1.50318	34.52
1.51985	34.52
1.53652	34.52
1.55318	34.52
1.56985	34.51
1.58652	34.52
1.60318	34.52
1.61985	34.52
1.63652	34.52
1.65318	34.52
1.66985	34.52
1.68652	34.52
1.70318	34.51
1.71985	34.52
1.73652	34.52
1.75318	34.52
1.76985	34.52
1.78652	34.52
1.80318	34.52
1.81985	34.52
1.83652	34.51
1.85318	34.52
1.86985	34.51
1.88652	34.52
1.90318	34.51
1.91985	34.52
1.93652	34.52
1.95318	34.52
1.96985	34.52
1.98652	34.52
2.00318	34.52
2.01985	34.52
2.03652	34.52
2.05318	34.52
2.06985	34.52
2.08652	34.52
2.10318	34.52
2.11985	34.52
2.13652	34.52
2.15318	34.52
2.16985	34.51
2.18652	34.52
2.20318	34.52
2.21985	34.52
2.23652	34.52
2.25318	34.52
2.26985	34.52
2.28652	34.52
2.30318	34.52
2.31985	34.52
2.33652	34.52
2.35318	34.52
2.36985	34.52
2.38652	34.52
2.40318	34.52
2.41985	34.51
2.43652	34.52
2.45318	34.52
2.46985	34.52
2.48652	34.52
2.50318	34.65
2.51985	34.52
2.53652	34.52
2.55318	34.52
2.56985	34.52
2.58652	34.52
2.60318	34.52
2.61985	34.52
2.63652	34.52
2.65318	34.53
2.66985	34.52
2.68652	34.51
2.70318	34.52
2.71985	34.52
2.73652	34.52
2.75318	34.51
2.76985	34.53
2.78652	34.52
2.80318	34.51
2.81985	34.51
2.83652	34.52
2.85318	34.52
2.86985	34.52
2.88652	34.51
2.90318	34.52
2.91985	34.52
2.93652	34.52
2.95318	34.52
2.96985	34.52
2.98652	34.52
3.00318	34.51
3.01985	34.52
3.03652	34.52
3.05318	34.52
3.06985	34.51
3.08652	34.52
3.10318	34.53
3.11985	34.52
3.13652	34.52
3.15318	34.52
3.16985	34.52
3.18652	34.52
3.20318	34.51
3.21985	34.52
3.23652	34.52
3.25318	34.52
3.26985	34.52
3.28652	34.52
3.30318	34.51
3.31985	34.51
3.33652	34.53
3.35318	34.52
3.36985	34.52
3.38652	34.51
3.40318	34.52
3.41985	34.52
3.43652	34.52
3.45318	34.52
3.46985	34.51
3.48652	34.51
3.50318	34.51
3.51985	34.51
3.53652	34.52
3.55318	34.52
3.56985	34.52
3.58652	34.52
3.60318	34.51
3.61985	34.52
3.63652	34.52
3.65318	34.52
3.66985	34.52
3.68652	34.52
3.70318	34.52
3.71985	34.52
3.73652	34.53
3.75318	34.51
3.76985	34.52
3.78652	34.51
3.80318	34.52
3.81985	34.52
3.83652	34.52
3.85318	34.52
3.86985	34.52
3.88652	34.52
3.90318	34.52
3.91985	34.52
3.93652	34.52
3.95318	34.51
3.96985	34.52
3.98652	34.52

[Status Trace (Column Flow)]
Interval(msec)	1000
# of Points	240
Start Time(min)	0.003
End Time(min)	3.987
Intensity Units	
Intensity Multiplier	1
R.Time (min)	Intensity
0.00318	5.49
0.01985	5.28
0.03652	5.32
0.05318	5.58
0.06985	5.70
0.08652	5.51
0.10318	5.49
0.11985	5.49
0.13652	5.49
0.15318	5.49
0.16985	5.49
0.18652	5.49
0.20318	5.49
0.21985	5.49
0.23652	5.49
0.25318	5.49
0.26985	5.49
0.28652	5.49
0.30318	5.49
0.31985	5.50
0.33652	5.49
0.35318	5.49
0.36985	5.49
0.38652	5.49
0.40318	5.49
0.41985	5.49
0.43652	5.49
0.45318	5.49
0.46985	5.50
0.48652	5.50
0.50318	5.50
0.51985	5.49
0.53652	5.49
0.55318	5.49
0.56985	5.49
0.58652	5.49
0.60318	5.49
0.61985	5.50
0.63652	5.50
0.65318	5.50
0.66985	5.50
0.68652	5.49
0.70318	5.49
0.71985	5.49
0.73652	5.49
0.75318	5.49
0.76985	5.50
0.78652	5.49
0.80318	5.49
0.81985	5.49
0.83652	5.50
0.85318	5.50
0.86985	5.50
0.88652	5.50
0.90318	5.49
0.91985	5.49
0.93652	5.49
0.95318	5.50
0.96985	5.50
0.98652	5.50
1.00318	5.50
1.01985	5.50
1.03652	5.50
1.05318	5.50
1.06985	5.50
1.08652	5.50
1.10318	5.50
1.11985	5.50
1.13652	5.50
1.15318	5.50
1.16985	5.50
1.18652	5.50
1.20318	5.49
1.21985	5.49
1.23652	5.50
1.25318	5.50
1.26985	5.50
1.28652	5.50
1.30318	5.50
1.31985	5.50
1.33652	5.50
1.35318	5.50
1.36985	5.50
1.38652	5.50
1.40318	5.50
1.41985	5.50
1.43652	5.49
1.45318	5.50
1.46985	5.49
1.48652	5.49
1.50318	5.50
1.51985	5.50
1.53652	5.50
1.55318	5.50
1.56985	5.50
1.58652	5.50
1.60318	5.49
1.61985	5.49
1.63652	5.49
1.65318	5.48
1.66985	5.47
1.68652	5.46
1.70318	5.45
1.71985	5.44
1.73652	5.43
1.75318	5.42
1.76985	5.41
1.78652	5.40
1.80318	5.39
1.81985	5.38
1.83652	5.37
1.85318	5.36
1.86985	5.35
1.88652	5.34
1.90318	5.33
1.91985	5.32
1.93652	5.31
1.95318	5.30
1.96985	5.29
1.98652	5.28
2.00318	5.27
2.01985	5.26
2.03652	5.25
2.05318	5.24
2.06985	5.23
2.08652	5.22
2.10318	5.21
2.11985	5.20
2.13652	5.19
2.15318	5.18
2.16985	5.17
2.18652	5.16
2.20318	5.16
2.21985	5.15
2.23652	5.14
2.25318	5.13
2.26985	5.12
2.28652	5.11
2.30318	5.10
2.31985	5.09
2.33652	5.08
2.35318	5.07
2.36985	5.06
2.38652	5.06
2.40318	5.06
2.41985	5.06
2.43652	5.06
2.45318	5.06
2.46985	5.06
2.48652	5.06
2.50318	5.06
2.51985	5.06
2.53652	5.06
2.55318	5.06
2.56985	5.06
2.58652	5.06
2.60318	5.06
2.61985	5.06
2.63652	5.06
2.65318	5.06
2.66985	5.06
2.68652	5.06
2.70318	5.06
2.71985	5.06
2.73652	5.06
2.75318	5.06
2.76985	5.06
2.78652	5.06
2.80318	5.06
2.81985	5.06
2.83652	5.06
2.85318	5.06
2.86985	5.06
2.88652	5.06
2.90318	5.06
2.91985	5.06
2.93652	5.06
2.95318	5.06
2.96985	5.06
2.98652	5.06
3.00318	5.06
3.01985	5.06
3.03652	5.05
3.05318	5.05
3.06985	5.05
3.08652	5.05
3.10318	5.05
3.11985	5.05
3.13652	5.05
3.15318	5.05
3.16985	5.05
3.18652	5.05
3.20318	5.05
3.21985	5.05
3.23652	5.05
3.25318	5.05
3.26985	5.05
3.28652	5.05
3.30318	5.05
3.31985	5.05
3.33652	5.05
3.35318	5.05
3.36985	5.05
3.38652	5.05
3.40318	5.05
3.41985	5.05
3.43652	5.05
3.45318	5.05
3.46985	5.05
3.48652	5.05
3.50318	5.05
3.51985	5.05
3.53652	5.05
3.55318	5.05
3.56985	5.05
3.58652	5.05
3.60318	5.05
3.61985	5.05
3.63652	5.05
3.65318	5.05
3.66985	5.05
3.68652	5.05
3.70318	5.05
3.71985	5.05
3.73652	5.05
3.75318	5.05
3.76985	5.05
3.78652	5.05
3.80318	5.05
3.81985	5.05
3.83652	5.05
3.85318	5.05
3.86985	5.05
3.88652	5.05
3.90318	5.05
3.91985	5.05
3.93652	5.05
3.95318	5.05
3.96985	5.05
3.98652	5.05

[Status Trace (Linear Velocity)]
Interval(msec)	1000
# of Points	240
Start Time(min)	0.003
End Time(min)	3.987
Intensity Units	
Intensity Multiplier	1
R.Time (min)	Intensity
0.00318	39.01
0.01985	37.77
0.03652	38.04
0.05318	39.48
0.06985	40.14
0.08652	39.12
0.10318	38.99
0.11985	39.01
0.13652	39.01
0.15318	39.01
0.16985	39.01
0.18652	39.01
0.20318	39.01
0.21985	39.01
0.23652	39.01
0.25318	39.01
0.26985	39.01
0.28652	39.01
0.30318	39.01
0.31985	39.01
0.33652	39.01
0.35318	39.00
0.36985	39.01
0.38652	39.01
0.40318	39.01
0.41985	39.01
0.43652	39.01
0.45318	39.01
0.46985	39.01
0.48652	39.01
0.50318	39.01
0.51985	39.01
0.53652	39.01
0.55318	39.01
0.56985	39.01
0.58652	39.01
0.60318	39.01
0.61985	39.01
0.63652	39.01
0.65318	39.01
0.66985	39.01
0.68652	39.01
0.70318	39.01
0.71985	39.01
0.73652	39.01
0.75318	39.01
0.76985	39.01
0.78652	39.01
0.80318	39.01
0.81985	39.01
0.83652	39.01
0.85318	39.01
0.86985	39.01
0.88652	39.01
0.90318	39.01
0.91985	39.01
0.93652	39.01
0.95318	39.01
0.96985	39.01
0.98652	39.01
1.00318	39.01
1.01985	39.01
1.03652	39.01
1.05318	39.01
1.06985	39.01
1.08652	39.01
1.10318	39.01
1.11985	39.01
1.13652	39.01
1.15318	39.01
1.16985	39.01
1.18652	39.01
1.20318	39.01
1.21985	39.01
1.23652	39.01
1.25318	39.01
1.26985	39.01
1.28652	39.01
1.30318	39.01
1.31985	39.01
1.33652	39.01
1.35318	39.01
1.36985	39.01
1.38652	39.01
1.40318	39.01
1.41985	39.01
1.43652	39.01
1.45318	39.01
1.46985	39.01
1.48652	39.01
1.50318	39.01
1.51985	39.01
1.53652	39.01
1.55318	39.01
1.56985	39.01
1.58652	39.01
1.60318	39.01
1.61985	39.00
1.63652	38.98
1.65318	38.96
1.66985	38.94
1.68652	38.90
1.70318	38.86
1.71985	38.83
1.73652	38.80
1.75318	38.77
1.76985	38.73
1.78652	38.70
1.80318	38.67
1.81985	38.64
1.83652	38.61
1.85318	38.58
1.86985	38.55
1.88652	38.52
1.90318	38.48
1.91985	38.46
1.93652	38.43
1.95318	38.40
1.96985	38.37
1.98652	38.34
2.00318	38.31
2.01985	38.28
2.03652	38.25
2.05318	38.22
2.06985	38.19
2.08652	38.16
2.10318	38.13
2.11985	38.10
2.13652	38.07
2.15318	38.04
2.16985	38.01
2.18652	37.98
2.20318	37.95
2.21985	37.92
2.23652	37.89
2.25318	37.86
2.26985	37.83
2.28652	37.80
2.30318	37.77
2.31985	37.74
2.33652	37.71
2.35318	37.69
2.36985	37.66
2.38652	37.64
2.40318	37.64
2.41985	37.65
2.43652	37.65
2.45318	37.65
2.46985	37.65
2.48652	37.65
2.50318	37.62
2.51985	37.65
2.53652	37.64
2.55318	37.65
2.56985	37.65
2.58652	37.64
2.60318	37.64
2.61985	37.64
2.63652	37.64
2.65318	37.64
2.66985	37.64
2.68652	37.64
2.70318	37.64
2.71985	37.64
2.73652	37.64
2.75318	37.64
2.76985	37.64
2.78652	37.64
2.80318	37.64
2.81985	37.64
2.83652	37.63
2.85318	37.63
2.86985	37.63
2.88652	37.63
2.90318	37.63
2.91985	37.63
2.93652	37.63
2.95318	37.63
2.96985	37.63
2.98652	37.63
3.00318	37.63
3.01985	37.63
3.03652	37.63
3.05318	37.63
3.06985	37.63
3.08652	37.63
3.10318	37.63
3.11985	37.62
3.13652	37.62
3.15318	37.62
3.16985	37.62
3.18652	37.62
3.20318	37.62
3.21985	37.62
3.23652	37.62
3.25318	37.62
3.26985	37.62
3.28652	37.62
3.30318	37.62
3.31985	37.62
3.33652	37.62
3.35318	37.62
3.36985	37.62
3.38652	37.62
3.40318	37.62
3.41985	37.62
3.43652	37.62
3.45318	37.62
3.46985	37.62
3.48652	37.62
3.50318	37.62
3.51985	37.62
3.53652	37.62
3.55318	37.62
3.56985	37.62
3.58652	37.62
3.60318	37.62
3.61985	37.62
3.63652	37.62
3.65318	37.62
3.66985	37.62
3.68652	37.62
3.70318	37.62
3.71985	37.62
3.73652	37.62
3.75318	37.62
3.76985	37.62
3.78652	37.62
3.80318	37.62
3.81985	37.62
3.83652	37.62
3.85318	37.62
3.86985	37.62
3.88652	37.62
3.90318	37.62
3.91985	37.62
3.93652	37.62
3.95318	37.62
3.96985	37.62
3.98652	37.62

