[Header]
Application Name	LabSolutions
Version	5.110
Data File Name	C:\Users\User\Desktop\GC Analyses\Jack\UIC Prairie Sampling\9.2.22\220902_094.gcd
Output Date	10/28/2022
Output Time	1:23:57 PM

[File Information]
Type	Data File
Generated	10/27/2022 3:12:55 PM
Generated by	System Administrator
Modified	10/27/2022 3:17:31 PM
Modified by	System Administrator

[Sample Information]
Operator Name	System Administrator
Acquired	10/27/2022 3:13:31 PM
Sample Type	1:Standard
Level	1
Sample Name	220902_UICPrairie
Sample ID	220902_UICPrairie
ISTD Amount1	1
ISTD Amount2	1
ISTD Amount3	1
ISTD Amount4	1
ISTD Amount5	1
ISTD Amount6	1
ISTD Amount7	1
ISTD Amount8	1
ISTD Amount9	1
ISTD Amount10	1
ISTD Amount11	1
ISTD Amount12	1
ISTD Amount13	1
ISTD Amount14	1
ISTD Amount15	1
ISTD Amount16	1
ISTD Amount17	1
ISTD Amount18	1
ISTD Amount19	1
ISTD Amount20	1
ISTD Amount21	1
ISTD Amount22	1
ISTD Amount23	1
ISTD Amount24	1
ISTD Amount25	1
ISTD Amount26	1
ISTD Amount27	1
ISTD Amount28	1
ISTD Amount29	1
ISTD Amount30	1
ISTD Amount31	1
ISTD Amount32	1
Sample Amount	1
Dilution Factor	1
Vial#	1
Injection Volume	1
Injection Count	1
Bar Code	

[Original Files]
Data File	C:\Users\User\Desktop\GC Analyses\Jack\UIC Prairie Sampling\9.2.22\220902_094.gcd
Method File	C:\LabSolutions\Data\GHG_4min_2022\ghg3_togas_w_acet_4 min_new_int.gcm
Batch File	
Report Format File	c:\LabSolutions\System\DEFAULT.lsr

[File Description]


[Configuration]
Instrument Name	C0B7VH3-Instrument1
Instrument #	1
Line #	1
# of Detectors	3
Detector ID	DET#1	DET#2	DET#3
Detector Name	FID	PTCD	ECD
# of Channels	1	1	1

[Peak Table(Ch1)]
# of Peaks	2
Peak#	R.Time	I.Time	F.Time	Area	Height	A/H	Conc.	Mark	ID#	Name	k'	Plate #	Plate Ht.	Tailing	Resolution	Sep.Factor	Area Ratio	Height Ratio	Conc. %	Norm Conc.
1	1.483	1.465	1.527	493	305	1.613	100.000	   	1	CO	0.000	15358	9.767	1.619	0.000	0.000	0	0	20.000	20.000
2	2.011	1.949	2.099	15471	8800	1.758	400.000	   	3	CO2	0.356	24992	6.002	1.132	10.694	0.000	0	0	80.000	80.000

[Peak Table(Ch2)]
# of Peaks	0

[Peak Table(Ch3)]
# of Peaks	2
Peak#	R.Time	I.Time	F.Time	Area	Height	A/H	Conc.	Mark	ID#	Name	k'	Plate #	Plate Ht.	Tailing	Resolution	Sep.Factor	Area Ratio	Height Ratio	Conc. %	Norm Conc.
1	2.455	2.246	2.502	870	157	5.533	0.000	   			0.000	3422	43.836	0.602	0.000	0.000	0	0	0.000	0.000
2	2.891	2.836	3.023	427	115	3.729	1.000	   	1	N2O	0.178	12447	12.051	1.363	3.214	0.000	0	0	100.000	100.000

[Compound Results(Ch1)]
# of IDs	6
ID#	Name	R.Time	Area	Height	Conc.	Curve	3rd	2nd	1st	Constant	Area Ratio	Height Ratio	Conc. %	Norm Conc.
1	CO	1.483	493	305	100.000	Linear	0.000000e+00	0.000000e+00	4.926467e+000	0.000000e+00	0	0	20.000	20.000
2	CH4	0.000	0	0	0.000	Linear	0.000000e+00	0.000000e+00	0.000000e+00	0.000000e+00	0	0	0.000	0.000
3	CO2	2.011	15471	8800	400.000	Linear	0.000000e+00	0.000000e+00	3.867707e+001	0.000000e+00	0	0	80.000	80.000
4	Ethylene	0.000	0	0	0.000	Linear	0.000000e+00	0.000000e+00	0.000000e+00	0.000000e+00	0	0	0.000	0.000
5	Acetylene	0.000	0	0	0.000	Linear	0.000000e+00	0.000000e+00	0.000000e+00	0.000000e+00	0	0	0.000	0.000
6	Ethane	0.000	0	0	0.000	Linear	0.000000e+00	0.000000e+00	0.000000e+00	0.000000e+00	0	0	0.000	0.000

[Compound Results(Ch2)]
# of IDs	5
ID#	Name	R.Time	Area	Height	Conc.	Curve	3rd	2nd	1st	Constant	Area Ratio	Height Ratio	Conc. %	Norm Conc.
1	Hydrogen	0.000	0	0	0.000	Linear	0.000000e+00	0.000000e+00	0.000000e+00	0.000000e+00	0	0	0.000	0.000
2	Oxygen	0.000	0	0	0.000	Linear	0.000000e+00	0.000000e+00	0.000000e+00	0.000000e+00	0	0	0.000	0.000
3	Nitrogen	0.000	0	0	0.000	Linear	0.000000e+00	0.000000e+00	0.000000e+00	0.000000e+00	0	0	0.000	0.000
4	Methane	0.000	0	0	0.000	Linear	0.000000e+00	0.000000e+00	0.000000e+00	0.000000e+00	0	0	0.000	0.000
5	Carbon Monoxide	0.000	0	0	0.000	Linear	0.000000e+00	0.000000e+00	0.000000e+00	0.000000e+00	0	0	0.000	0.000

[Compound Results(Ch3)]
# of IDs	2
ID#	Name	R.Time	Area	Height	Conc.	Curve	3rd	2nd	1st	Constant	Area Ratio	Height Ratio	Conc. %	Norm Conc.
1	N2O	2.891	427	115	1.000	Linear	0.000000e+00	0.000000e+00	4.271542e+002	0.000000e+00	0	0	100.000	100.000
2	SF6	0.000	0	0	0.000	Linear	0.000000e+00	0.000000e+00	0.000000e+00	0.000000e+00	0	0	0.000	0.000

[Group Results(Ch1)]
# of Groups	0

[Group Results(Ch2)]
# of Groups	0

[Group Results(Ch3)]
# of Groups	0

[Chromatogram (Ch1)]
Interval(msec)	220
# of Points	1091
Start Time(min)	0.002
End Time(min)	3.998
R.Time (min)	Intensity
0.00167	6
0.00533	11
0.00900	12
0.01267	10
0.01633	7
0.02000	4
0.02367	2
0.02733	4
0.03100	7
0.03467	8
0.03833	5
0.04200	1
0.04567	0
0.04933	-3
0.05300	-11
0.05667	-18
0.06033	-21
0.06400	-19
0.06767	-13
0.07133	-7
0.07500	-4
0.07867	-1
0.08233	1
0.08600	-1
0.08967	-3
0.09333	-3
0.09700	-2
0.10067	2
0.10433	5
0.10800	5
0.11167	2
0.11533	-1
0.11900	-4
0.12267	-4
0.12633	-4
0.13000	-4
0.13367	-7
0.13733	-10
0.14100	-14
0.14467	-17
0.14833	-16
0.15200	-9
0.15567	-4
0.15933	-3
0.16300	-3
0.16667	-4
0.17033	-4
0.17400	-2
0.17767	-1
0.18133	-3
0.18500	-6
0.18867	-12
0.19233	-19
0.19600	-24
0.19967	-28
0.20333	-27
0.20700	-25
0.21067	-21
0.21433	-20
0.21800	-20
0.22167	-24
0.22533	-28
0.22900	-26
0.23267	-21
0.23633	-16
0.24000	-12
0.24367	-8
0.24733	-9
0.25100	-11
0.25467	-12
0.25833	-10
0.26200	-8
0.26567	-5
0.26933	-3
0.27300	-6
0.27667	-13
0.28033	-26
0.28400	-36
0.28767	-43
0.29133	-47
0.29500	-49
0.29867	-50
0.30233	-49
0.30600	-45
0.30967	-43
0.31333	-39
0.31700	-34
0.32067	-30
0.32433	-24
0.32800	-18
0.33167	-16
0.33533	-14
0.33900	-13
0.34267	-11
0.34633	-8
0.35000	-4
0.35367	-4
0.35733	-6
0.36100	-12
0.36467	-21
0.36833	-29
0.37200	-38
0.37567	-44
0.37933	-46
0.38300	-45
0.38667	-42
0.39033	-39
0.39400	-37
0.39767	-40
0.40133	-45
0.40500	-46
0.40867	-44
0.41233	-39
0.41600	-33
0.41967	-30
0.42333	-29
0.42700	-31
0.43067	-36
0.43433	-43
0.43800	-50
0.44167	-50
0.44533	-44
0.44900	-36
0.45267	-28
0.45633	-26
0.46000	-29
0.46367	-33
0.46733	-37
0.47100	-40
0.47467	-43
0.47833	-48
0.48200	-55
0.48567	-61
0.48933	-63
0.49300	-62
0.49667	-60
0.50033	-58
0.50400	-60
0.50767	-63
0.51133	-64
0.51500	-62
0.51867	-59
0.52233	-53
0.52600	-48
0.52967	-44
0.53333	-42
0.53700	-43
0.54067	-45
0.54433	-43
0.54800	-39
0.55167	-35
0.55533	-33
0.55900	-36
0.56267	-39
0.56633	-43
0.57000	-46
0.57367	-46
0.57733	-49
0.58100	-52
0.58467	-54
0.58833	-56
0.59200	-55
0.59567	-49
0.59933	-42
0.60300	-39
0.60667	-42
0.61033	-48
0.61400	-53
0.61767	-58
0.62133	-59
0.62500	-55
0.62867	-49
0.63233	-48
0.63600	-50
0.63967	-53
0.64333	-56
0.64700	-57
0.65067	-57
0.65433	-55
0.65800	-52
0.66167	-47
0.66533	-43
0.66900	-40
0.67267	-40
0.67633	-44
0.68000	-51
0.68367	-58
0.68733	-64
0.69100	-62
0.69467	-58
0.69833	-57
0.70200	-58
0.70567	-59
0.70933	-61
0.71300	-64
0.71667	-70
0.72033	-75
0.72400	-77
0.72767	-74
0.73133	-70
0.73500	-66
0.73867	-63
0.74233	-61
0.74600	-60
0.74967	-59
0.75333	-58
0.75700	-59
0.76067	-58
0.76433	-55
0.76800	-49
0.77167	-44
0.77533	-45
0.77900	-50
0.78267	-54
0.78633	-57
0.79000	-56
0.79367	-54
0.79733	-54
0.80100	-56
0.80467	-60
0.80833	-64
0.81200	-66
0.81567	-69
0.81933	-69
0.82300	-68
0.82667	-64
0.83033	-59
0.83400	-59
0.83767	-61
0.84133	-62
0.84500	-62
0.84867	-60
0.85233	-57
0.85600	-56
0.85967	-58
0.86333	-62
0.86700	-65
0.87067	-68
0.87433	-71
0.87800	-70
0.88167	-65
0.88533	-58
0.88900	-52
0.89267	-45
0.89633	-42
0.90000	-45
0.90367	-47
0.90733	-45
0.91100	-39
0.91467	-35
0.91833	-40
0.92200	-51
0.92567	-62
0.92933	-72
0.93300	-79
0.93667	-83
0.94033	-84
0.94400	-81
0.94767	-73
0.95133	-66
0.95500	-64
0.95867	-67
0.96233	-69
0.96600	-68
0.96967	-68
0.97333	-69
0.97700	-71
0.98067	-76
0.98433	-83
0.98800	-87
0.99167	-84
0.99533	-77
0.99900	-70
1.00267	-66
1.00633	-65
1.01000	-67
1.01367	-67
1.01733	-64
1.02100	-61
1.02467	-60
1.02833	-61
1.03200	-63
1.03567	-64
1.03933	-65
1.04300	-67
1.04667	-69
1.05033	-68
1.05400	-66
1.05767	-66
1.06133	-67
1.06500	-69
1.06867	-68
1.07233	-64
1.07600	-59
1.07967	-53
1.08333	-49
1.08700	-48
1.09067	-48
1.09433	-49
1.09800	-53
1.10167	-54
1.10533	-53
1.10900	-52
1.11267	-52
1.11633	-52
1.12000	-54
1.12367	-57
1.12733	-60
1.13100	-62
1.13467	-62
1.13833	-61
1.14200	-61
1.14567	-61
1.14933	-61
1.15300	-61
1.15667	-59
1.16033	-56
1.16400	-50
1.16767	-43
1.17133	-40
1.17500	-44
1.17867	-50
1.18233	-57
1.18600	-60
1.18967	-60
1.19333	-60
1.19700	-62
1.20067	-61
1.20433	-60
1.20800	-60
1.21167	-59
1.21533	-60
1.21900	-63
1.22267	-67
1.22633	-70
1.23000	-70
1.23367	-69
1.23733	-68
1.24100	-70
1.24467	-74
1.24833	-77
1.25200	-80
1.25567	-83
1.25933	-81
1.26300	-77
1.26667	-74
1.27033	-71
1.27400	-67
1.27767	-63
1.28133	-61
1.28500	-58
1.28867	-55
1.29233	-54
1.29600	-55
1.29967	-58
1.30333	-61
1.30700	-60
1.31067	-57
1.31433	-53
1.31800	-49
1.32167	-49
1.32533	-50
1.32900	-52
1.33267	-54
1.33633	-56
1.34000	-61
1.34367	-67
1.34733	-71
1.35100	-72
1.35467	-72
1.35833	-69
1.36200	-65
1.36567	-58
1.36933	-51
1.37300	-50
1.37667	-53
1.38033	-57
1.38400	-61
1.38767	-63
1.39133	-64
1.39500	-64
1.39867	-63
1.40233	-62
1.40600	-61
1.40967	-58
1.41333	-55
1.41700	-51
1.42067	-51
1.42433	-55
1.42800	-59
1.43167	-63
1.43533	-67
1.43900	-69
1.44267	-73
1.44633	-77
1.45000	-79
1.45367	-79
1.45733	-79
1.46100	-77
1.46467	-62
1.46833	-18
1.47200	59
1.47567	146
1.47933	213
1.48300	244
1.48667	235
1.49033	196
1.49400	146
1.49767	98
1.50133	57
1.50500	26
1.50867	1
1.51233	-16
1.51600	-29
1.51967	-40
1.52333	-50
1.52700	-59
1.53067	-66
1.53433	-67
1.53800	-64
1.54167	-59
1.54533	-54
1.54900	-53
1.55267	-53
1.55633	-52
1.56000	-51
1.56367	-49
1.56733	-42
1.57100	-27
1.57467	-7
1.57833	3
1.58200	1
1.58567	-7
1.58933	-18
1.59300	-28
1.59667	-35
1.60033	-40
1.60400	-45
1.60767	-48
1.61133	-51
1.61500	-52
1.61867	-52
1.62233	-52
1.62600	-53
1.62967	-55
1.63333	-56
1.63700	-52
1.64067	-47
1.64433	-45
1.64800	-47
1.65167	-46
1.65533	-44
1.65900	-41
1.66267	-40
1.66633	-41
1.67000	-45
1.67367	-50
1.67733	-55
1.68100	-58
1.68467	-64
1.68833	-71
1.69200	-74
1.69567	-73
1.69933	-69
1.70300	-63
1.70667	-59
1.71033	-59
1.71400	-61
1.71767	-64
1.72133	-66
1.72500	-70
1.72867	-74
1.73233	-76
1.73600	-73
1.73967	-67
1.74333	-62
1.74700	-60
1.75067	-61
1.75433	-62
1.75800	-62
1.76167	-60
1.76533	-53
1.76900	-46
1.77267	-39
1.77633	-35
1.78000	-35
1.78367	-40
1.78733	-48
1.79100	-58
1.79467	-67
1.79833	-71
1.80200	-69
1.80567	-67
1.80933	-63
1.81300	-54
1.81667	-47
1.82033	-47
1.82400	-51
1.82767	-54
1.83133	-56
1.83500	-57
1.83867	-56
1.84233	-56
1.84600	-59
1.84967	-59
1.85333	-57
1.85700	-53
1.86067	-48
1.86433	-44
1.86800	-44
1.87167	-44
1.87533	-44
1.87900	-42
1.88267	-42
1.88633	-41
1.89000	-41
1.89367	-40
1.89733	-39
1.90100	-42
1.90467	-47
1.90833	-54
1.91200	-58
1.91567	-54
1.91933	-46
1.92300	-38
1.92667	-33
1.93033	-30
1.93400	-32
1.93767	-37
1.94133	-40
1.94500	-41
1.94867	-39
1.95233	-31
1.95600	-23
1.95967	-16
1.96333	-6
1.96700	12
1.97067	49
1.97433	112
1.97800	209
1.98167	346
1.98533	575
1.98900	1039
1.99267	1971
1.99633	3542
2.00000	5588
2.00367	7533
2.00733	8707
2.01100	8779
2.01467	7893
2.01833	6475
2.02200	4956
2.02567	3605
2.02933	2533
2.03300	1743
2.03667	1189
2.04033	811
2.04400	558
2.04767	388
2.05133	275
2.05500	203
2.05867	155
2.06233	120
2.06600	94
2.06967	72
2.07333	54
2.07700	43
2.08067	33
2.08433	25
2.08800	19
2.09167	14
2.09533	9
2.09900	5
2.10267	6
2.10633	8
2.11000	9
2.11367	10
2.11733	11
2.12100	12
2.12467	13
2.12833	16
2.13200	20
2.13567	23
2.13933	22
2.14300	20
2.14667	21
2.15033	26
2.15400	29
2.15767	31
2.16133	26
2.16500	19
2.16867	10
2.17233	2
2.17600	-5
2.17967	-8
2.18333	-6
2.18700	-5
2.19067	-3
2.19433	1
2.19800	4
2.20167	7
2.20533	9
2.20900	8
2.21267	6
2.21633	5
2.22000	3
2.22367	1
2.22733	-2
2.23100	-2
2.23467	-2
2.23833	-1
2.24200	4
2.24567	9
2.24933	13
2.25300	12
2.25667	8
2.26033	4
2.26400	-0
2.26767	-1
2.27133	-4
2.27500	-8
2.27867	-9
2.28233	-4
2.28600	6
2.28967	15
2.29333	20
2.29700	20
2.30067	21
2.30433	23
2.30800	25
2.31167	24
2.31533	18
2.31900	11
2.32267	7
2.32633	6
2.33000	7
2.33367	6
2.33733	3
2.34100	3
2.34467	7
2.34833	16
2.35200	28
2.35567	38
2.35933	48
2.36300	53
2.36667	49
2.37033	38
2.37400	28
2.37767	22
2.38133	20
2.38500	20
2.38867	22
2.39233	24
2.39600	25
2.39967	27
2.40333	28
2.40700	27
2.41067	28
2.41433	32
2.41800	36
2.42167	41
2.42533	45
2.42900	46
2.43267	44
2.43633	42
2.44000	40
2.44367	40
2.44733	43
2.45100	49
2.45467	55
2.45833	58
2.46200	61
2.46567	61
2.46933	61
2.47300	61
2.47667	60
2.48033	58
2.48400	54
2.48767	50
2.49133	49
2.49500	53
2.49867	58
2.50233	61
2.50600	60
2.50967	57
2.51333	55
2.51700	52
2.52067	49
2.52433	46
2.52800	43
2.53167	44
2.53533	48
2.53900	53
2.54267	59
2.54633	62
2.55000	62
2.55367	58
2.55733	59
2.56100	63
2.56467	69
2.56833	77
2.57200	82
2.57567	85
2.57933	84
2.58300	78
2.58667	70
2.59033	67
2.59400	71
2.59767	80
2.60133	85
2.60500	81
2.60867	73
2.61233	68
2.61600	65
2.61967	60
2.62333	56
2.62700	55
2.63067	57
2.63433	61
2.63800	65
2.64167	67
2.64533	66
2.64900	68
2.65267	72
2.65633	79
2.66000	84
2.66367	88
2.66733	90
2.67100	90
2.67467	88
2.67833	85
2.68200	82
2.68567	79
2.68933	75
2.69300	74
2.69667	75
2.70033	75
2.70400	73
2.70767	74
2.71133	77
2.71500	81
2.71867	81
2.72233	77
2.72600	73
2.72967	71
2.73333	73
2.73700	78
2.74067	78
2.74433	75
2.74800	74
2.75167	75
2.75533	78
2.75900	81
2.76267	84
2.76633	84
2.77000	82
2.77367	84
2.77733	93
2.78100	103
2.78467	110
2.78833	113
2.79200	111
2.79567	109
2.79933	108
2.80300	106
2.80667	103
2.81033	98
2.81400	94
2.81767	88
2.82133	86
2.82500	87
2.82867	90
2.83233	93
2.83600	96
2.83967	101
2.84333	109
2.84700	118
2.85067	124
2.85433	126
2.85800	124
2.86167	121
2.86533	117
2.86900	111
2.87267	110
2.87633	110
2.88000	110
2.88367	107
2.88733	103
2.89100	101
2.89467	102
2.89833	103
2.90200	103
2.90567	103
2.90933	103
2.91300	107
2.91667	115
2.92033	121
2.92400	127
2.92767	129
2.93133	126
2.93500	119
2.93867	110
2.94233	104
2.94600	103
2.94967	104
2.95333	104
2.95700	102
2.96067	102
2.96433	103
2.96800	108
2.97167	115
2.97533	121
2.97900	122
2.98267	121
2.98633	120
2.99000	119
2.99367	120
2.99733	121
3.00100	121
3.00467	120
3.00833	120
3.01200	120
3.01567	117
3.01933	112
3.02300	108
3.02667	109
3.03033	116
3.03400	124
3.03767	127
3.04133	125
3.04500	119
3.04867	114
3.05233	113
3.05600	113
3.05967	114
3.06333	118
3.06700	121
3.07067	121
3.07433	122
3.07800	124
3.08167	124
3.08533	125
3.08900	131
3.09267	138
3.09633	143
3.10000	146
3.10367	141
3.10733	133
3.11100	126
3.11467	120
3.11833	118
3.12200	119
3.12567	120
3.12933	118
3.13300	117
3.13667	115
3.14033	115
3.14400	117
3.14767	117
3.15133	116
3.15500	115
3.15867	114
3.16233	115
3.16600	119
3.16967	127
3.17333	132
3.17700	134
3.18067	132
3.18433	130
3.18800	129
3.19167	128
3.19533	127
3.19900	122
3.20267	118
3.20633	115
3.21000	115
3.21367	117
3.21733	121
3.22100	124
3.22467	125
3.22833	127
3.23200	128
3.23567	130
3.23933	131
3.24300	128
3.24667	123
3.25033	117
3.25400	114
3.25767	110
3.26133	104
3.26500	96
3.26867	93
3.27233	95
3.27600	100
3.27967	107
3.28333	114
3.28700	118
3.29067	120
3.29433	120
3.29800	118
3.30167	115
3.30533	113
3.30900	110
3.31267	108
3.31633	107
3.32000	108
3.32367	111
3.32733	112
3.33100	112
3.33467	108
3.33833	103
3.34200	100
3.34567	103
3.34933	110
3.35300	113
3.35667	111
3.36033	106
3.36400	103
3.36767	105
3.37133	109
3.37500	116
3.37867	121
3.38233	123
3.38600	121
3.38967	117
3.39333	111
3.39700	107
3.40067	105
3.40433	107
3.40800	112
3.41167	115
3.41533	115
3.41900	115
3.42267	118
3.42633	124
3.43000	127
3.43367	123
3.43733	116
3.44100	112
3.44467	109
3.44833	105
3.45200	100
3.45567	99
3.45933	104
3.46300	110
3.46667	111
3.47033	108
3.47400	99
3.47767	87
3.48133	79
3.48500	78
3.48867	83
3.49233	89
3.49600	95
3.49967	100
3.50333	106
3.50700	113
3.51067	112
3.51433	105
3.51800	96
3.52167	91
3.52533	90
3.52900	90
3.53267	86
3.53633	84
3.54000	85
3.54367	89
3.54733	87
3.55100	83
3.55467	83
3.55833	88
3.56200	94
3.56567	96
3.56933	95
3.57300	94
3.57667	95
3.58033	94
3.58400	90
3.58767	84
3.59133	83
3.59500	88
3.59867	93
3.60233	93
3.60600	92
3.60967	94
3.61333	98
3.61700	101
3.62067	102
3.62433	98
3.62800	96
3.63167	99
3.63533	102
3.63900	103
3.64267	102
3.64633	100
3.65000	97
3.65367	97
3.65733	100
3.66100	102
3.66467	104
3.66833	102
3.67200	96
3.67567	89
3.67933	83
3.68300	82
3.68667	84
3.69033	88
3.69400	93
3.69767	98
3.70133	101
3.70500	104
3.70867	108
3.71233	108
3.71600	104
3.71967	95
3.72333	88
3.72700	84
3.73067	81
3.73433	78
3.73800	82
3.74167	92
3.74533	103
3.74900	108
3.75267	106
3.75633	100
3.76000	95
3.76367	93
3.76733	92
3.77100	93
3.77467	95
3.77833	98
3.78200	98
3.78567	94
3.78933	87
3.79300	82
3.79667	80
3.80033	82
3.80400	87
3.80767	92
3.81133	93
3.81500	91
3.81867	86
3.82233	79
3.82600	76
3.82967	77
3.83333	83
3.83700	90
3.84067	96
3.84433	98
3.84800	99
3.85167	97
3.85533	96
3.85900	98
3.86267	102
3.86633	109
3.87000	110
3.87367	105
3.87733	99
3.88100	92
3.88467	87
3.88833	82
3.89200	80
3.89567	78
3.89933	76
3.90300	77
3.90667	77
3.91033	75
3.91400	76
3.91767	81
3.92133	86
3.92500	88
3.92867	89
3.93233	89
3.93600	88
3.93967	86
3.94333	87
3.94700	88
3.95067	88
3.95433	88
3.95800	89
3.96167	89
3.96533	91
3.96900	90
3.97267	85
3.97633	79
3.98000	73
3.98367	69
3.98733	68
3.99100	73
3.99467	81
3.99833	88

[Chromatogram (Ch2)]
Interval(msec)	220
# of Points	1091
Start Time(min)	0.002
End Time(min)	3.998
R.Time (min)	Intensity
0.00167	-1
0.00533	-1
0.00900	-1
0.01267	-1
0.01633	-1
0.02000	-1
0.02367	-1
0.02733	-1
0.03100	-1
0.03467	-2
0.03833	-2
0.04200	-3
0.04567	-3
0.04933	-4
0.05300	-4
0.05667	-4
0.06033	-4
0.06400	-4
0.06767	-4
0.07133	-3
0.07500	-3
0.07867	-3
0.08233	-2
0.08600	-2
0.08967	-2
0.09333	-1
0.09700	-1
0.10067	-0
0.10433	-0
0.10800	0
0.11167	-0
0.11533	-0
0.11900	-0
0.12267	-1
0.12633	-1
0.13000	-1
0.13367	-1
0.13733	-1
0.14100	-1
0.14467	-0
0.14833	0
0.15200	0
0.15567	1
0.15933	1
0.16300	1
0.16667	2
0.17033	2
0.17400	2
0.17767	2
0.18133	2
0.18500	2
0.18867	2
0.19233	2
0.19600	2
0.19967	2
0.20333	2
0.20700	2
0.21067	2
0.21433	1
0.21800	1
0.22167	1
0.22533	1
0.22900	1
0.23267	1
0.23633	1
0.24000	1
0.24367	1
0.24733	0
0.25100	0
0.25467	0
0.25833	-0
0.26200	-0
0.26567	-0
0.26933	-0
0.27300	-0
0.27667	-0
0.28033	-0
0.28400	-0
0.28767	-1
0.29133	-1
0.29500	-1
0.29867	-1
0.30233	-1
0.30600	-1
0.30967	-1
0.31333	-1
0.31700	-1
0.32067	-1
0.32433	-1
0.32800	-1
0.33167	-1
0.33533	-1
0.33900	-1
0.34267	-1
0.34633	-0
0.35000	-0
0.35367	-0
0.35733	0
0.36100	0
0.36467	0
0.36833	0
0.37200	0
0.37567	0
0.37933	0
0.38300	-0
0.38667	-0
0.39033	-1
0.39400	-1
0.39767	-1
0.40133	-1
0.40500	-1
0.40867	-1
0.41233	-1
0.41600	-1
0.41967	-1
0.42333	-1
0.42700	-1
0.43067	-1
0.43433	-1
0.43800	-1
0.44167	-1
0.44533	-0
0.44900	-1
0.45267	-1
0.45633	-1
0.46000	-1
0.46367	-1
0.46733	-1
0.47100	-1
0.47467	-2
0.47833	-2
0.48200	-2
0.48567	-2
0.48933	-2
0.49300	-2
0.49667	-3
0.50033	-3
0.50400	-3
0.50767	-2
0.51133	-2
0.51500	-2
0.51867	-2
0.52233	-1
0.52600	-1
0.52967	-1
0.53333	-1
0.53700	-0
0.54067	-0
0.54433	-0
0.54800	-0
0.55167	-1
0.55533	-1
0.55900	-2
0.56267	-2
0.56633	-2
0.57000	-3
0.57367	-3
0.57733	-3
0.58100	-3
0.58467	-3
0.58833	-3
0.59200	-4
0.59567	-4
0.59933	-4
0.60300	-4
0.60667	-3
0.61033	-3
0.61400	-3
0.61767	-2
0.62133	-2
0.62500	-2
0.62867	-1
0.63233	-1
0.63600	-1
0.63967	-1
0.64333	-1
0.64700	-1
0.65067	-1
0.65433	-1
0.65800	-1
0.66167	-1
0.66533	-1
0.66900	-1
0.67267	-1
0.67633	-1
0.68000	-1
0.68367	-1
0.68733	-1
0.69100	-1
0.69467	-0
0.69833	-1
0.70200	-0
0.70567	-0
0.70933	-0
0.71300	0
0.71667	0
0.72033	0
0.72400	-0
0.72767	-0
0.73133	-1
0.73500	-1
0.73867	-1
0.74233	-2
0.74600	-2
0.74967	-2
0.75333	-2
0.75700	-2
0.76067	-2
0.76433	-2
0.76800	-2
0.77167	-2
0.77533	-2
0.77900	-2
0.78267	-3
0.78633	-3
0.79000	-3
0.79367	-3
0.79733	-3
0.80100	-3
0.80467	-3
0.80833	-3
0.81200	-3
0.81567	-3
0.81933	-3
0.82300	-3
0.82667	-3
0.83033	-2
0.83400	-2
0.83767	-2
0.84133	-2
0.84500	-2
0.84867	-2
0.85233	-2
0.85600	-3
0.85967	-3
0.86333	-3
0.86700	-3
0.87067	-3
0.87433	-3
0.87800	-3
0.88167	-3
0.88533	-3
0.88900	-3
0.89267	-3
0.89633	-3
0.90000	-3
0.90367	-3
0.90733	-3
0.91100	-3
0.91467	-3
0.91833	-3
0.92200	-2
0.92567	-2
0.92933	-2
0.93300	-2
0.93667	-2
0.94033	-2
0.94400	-2
0.94767	-2
0.95133	-2
0.95500	-3
0.95867	-3
0.96233	-3
0.96600	-4
0.96967	-4
0.97333	-4
0.97700	-4
0.98067	-4
0.98433	-5
0.98800	-5
0.99167	-5
0.99533	-5
0.99900	-5
1.00267	-5
1.00633	-5
1.01000	-6
1.01367	-6
1.01733	-6
1.02100	-6
1.02467	-5
1.02833	-5
1.03200	-5
1.03567	-4
1.03933	-4
1.04300	-3
1.04667	-3
1.05033	-2
1.05400	-2
1.05767	-2
1.06133	-2
1.06500	-2
1.06867	-1
1.07233	-1
1.07600	-1
1.07967	-1
1.08333	-1
1.08700	-1
1.09067	-1
1.09433	-1
1.09800	-1
1.10167	-1
1.10533	-1
1.10900	-1
1.11267	-1
1.11633	-1
1.12000	-1
1.12367	-1
1.12733	-1
1.13100	-2
1.13467	-2
1.13833	-2
1.14200	-3
1.14567	-3
1.14933	-3
1.15300	-3
1.15667	-3
1.16033	-3
1.16400	-3
1.16767	-2
1.17133	-2
1.17500	-2
1.17867	-2
1.18233	-2
1.18600	-2
1.18967	-2
1.19333	-2
1.19700	-1
1.20067	-1
1.20433	-1
1.20800	-1
1.21167	-2
1.21533	-2
1.21900	-2
1.22267	-2
1.22633	-2
1.23000	-2
1.23367	-2
1.23733	-1
1.24100	-1
1.24467	-1
1.24833	-1
1.25200	-1
1.25567	-1
1.25933	-2
1.26300	-2
1.26667	-2
1.27033	-2
1.27400	-2
1.27767	-2
1.28133	-2
1.28500	-2
1.28867	-3
1.29233	-3
1.29600	-3
1.29967	-3
1.30333	-3
1.30700	-3
1.31067	-3
1.31433	-3
1.31800	-4
1.32167	-4
1.32533	-4
1.32900	-4
1.33267	-4
1.33633	-4
1.34000	-4
1.34367	-4
1.34733	-5
1.35100	-5
1.35467	-5
1.35833	-5
1.36200	-5
1.36567	-5
1.36933	-5
1.37300	-5
1.37667	-5
1.38033	-5
1.38400	-5
1.38767	-5
1.39133	-5
1.39500	-5
1.39867	-5
1.40233	-5
1.40600	-5
1.40967	-5
1.41333	-5
1.41700	-5
1.42067	-5
1.42433	-5
1.42800	-5
1.43167	-5
1.43533	-4
1.43900	-4
1.44267	-4
1.44633	-4
1.45000	-4
1.45367	-4
1.45733	-4
1.46100	-4
1.46467	-3
1.46833	-3
1.47200	-3
1.47567	-3
1.47933	-4
1.48300	-4
1.48667	-5
1.49033	-5
1.49400	-5
1.49767	-5
1.50133	-5
1.50500	-5
1.50867	-5
1.51233	-5
1.51600	-5
1.51967	-5
1.52333	-5
1.52700	-5
1.53067	-5
1.53433	-4
1.53800	-4
1.54167	-4
1.54533	-3
1.54900	-3
1.55267	-2
1.55633	-2
1.56000	-2
1.56367	-1
1.56733	-1
1.57100	-1
1.57467	-1
1.57833	-1
1.58200	-1
1.58567	-1
1.58933	-1
1.59300	-2
1.59667	-2
1.60033	-3
1.60400	-4
1.60767	-5
1.61133	-7
1.61500	-9
1.61867	-12
1.62233	-14
1.62600	-17
1.62967	-20
1.63333	-24
1.63700	-27
1.64067	-31
1.64433	-35
1.64800	-38
1.65167	-42
1.65533	-46
1.65900	-50
1.66267	-55
1.66633	-60
1.67000	-65
1.67367	-70
1.67733	-76
1.68100	-81
1.68467	-86
1.68833	-91
1.69200	-95
1.69567	-99
1.69933	-102
1.70300	-105
1.70667	-107
1.71033	-108
1.71400	-109
1.71767	-110
1.72133	-111
1.72500	-112
1.72867	-113
1.73233	-115
1.73600	-116
1.73967	-117
1.74333	-118
1.74700	-119
1.75067	-119
1.75433	-119
1.75800	-119
1.76167	-119
1.76533	-118
1.76900	-118
1.77267	-118
1.77633	-118
1.78000	-118
1.78367	-119
1.78733	-119
1.79100	-120
1.79467	-121
1.79833	-121
1.80200	-122
1.80567	-123
1.80933	-123
1.81300	-124
1.81667	-124
1.82033	-124
1.82400	-124
1.82767	-125
1.83133	-125
1.83500	-125
1.83867	-125
1.84233	-125
1.84600	-125
1.84967	-125
1.85333	-125
1.85700	-125
1.86067	-126
1.86433	-126
1.86800	-126
1.87167	-126
1.87533	-125
1.87900	-125
1.88267	-125
1.88633	-125
1.89000	-125
1.89367	-125
1.89733	-125
1.90100	-125
1.90467	-124
1.90833	-124
1.91200	-123
1.91567	-123
1.91933	-122
1.92300	-122
1.92667	-121
1.93033	-121
1.93400	-121
1.93767	-121
1.94133	-121
1.94500	-121
1.94867	-122
1.95233	-122
1.95600	-123
1.95967	-122
1.96333	-122
1.96700	-122
1.97067	-122
1.97433	-122
1.97800	-121
1.98167	-120
1.98533	-120
1.98900	-119
1.99267	-119
1.99633	-118
2.00000	-118
2.00367	-118
2.00733	-118
2.01100	-118
2.01467	-118
2.01833	-118
2.02200	-117
2.02567	-117
2.02933	-117
2.03300	-116
2.03667	-116
2.04033	-115
2.04400	-114
2.04767	-114
2.05133	-113
2.05500	-112
2.05867	-112
2.06233	-111
2.06600	-111
2.06967	-110
2.07333	-110
2.07700	-110
2.08067	-110
2.08433	-110
2.08800	-110
2.09167	-110
2.09533	-110
2.09900	-109
2.10267	-109
2.10633	-108
2.11000	-108
2.11367	-107
2.11733	-107
2.12100	-107
2.12467	-107
2.12833	-107
2.13200	-106
2.13567	-105
2.13933	-105
2.14300	-104
2.14667	-104
2.15033	-104
2.15400	-104
2.15767	-104
2.16133	-103
2.16500	-103
2.16867	-103
2.17233	-103
2.17600	-103
2.17967	-103
2.18333	-103
2.18700	-102
2.19067	-102
2.19433	-101
2.19800	-101
2.20167	-100
2.20533	-100
2.20900	-100
2.21267	-99
2.21633	-99
2.22000	-98
2.22367	-98
2.22733	-97
2.23100	-96
2.23467	-96
2.23833	-96
2.24200	-96
2.24567	-96
2.24933	-95
2.25300	-95
2.25667	-95
2.26033	-95
2.26400	-95
2.26767	-94
2.27133	-94
2.27500	-93
2.27867	-93
2.28233	-92
2.28600	-92
2.28967	-91
2.29333	-91
2.29700	-91
2.30067	-90
2.30433	-89
2.30800	-89
2.31167	-89
2.31533	-88
2.31900	-88
2.32267	-88
2.32633	-88
2.33000	-88
2.33367	-88
2.33733	-88
2.34100	-87
2.34467	-87
2.34833	-86
2.35200	-86
2.35567	-85
2.35933	-84
2.36300	-83
2.36667	-82
2.37033	-80
2.37400	-78
2.37767	-76
2.38133	-73
2.38500	-69
2.38867	-65
2.39233	-61
2.39600	-57
2.39967	-52
2.40333	-48
2.40700	-43
2.41067	-39
2.41433	-34
2.41800	-30
2.42167	-26
2.42533	-22
2.42900	-19
2.43267	-16
2.43633	-13
2.44000	-11
2.44367	-9
2.44733	-7
2.45100	-6
2.45467	-4
2.45833	-3
2.46200	-1
2.46567	0
2.46933	1
2.47300	2
2.47667	4
2.48033	5
2.48400	6
2.48767	7
2.49133	8
2.49500	9
2.49867	9
2.50233	10
2.50600	10
2.50967	11
2.51333	12
2.51700	12
2.52067	12
2.52433	13
2.52800	13
2.53167	14
2.53533	14
2.53900	15
2.54267	16
2.54633	17
2.55000	17
2.55367	17
2.55733	16
2.56100	15
2.56467	15
2.56833	15
2.57200	15
2.57567	15
2.57933	16
2.58300	17
2.58667	18
2.59033	19
2.59400	20
2.59767	21
2.60133	22
2.60500	22
2.60867	22
2.61233	22
2.61600	21
2.61967	21
2.62333	21
2.62700	21
2.63067	21
2.63433	21
2.63800	21
2.64167	21
2.64533	21
2.64900	22
2.65267	22
2.65633	22
2.66000	22
2.66367	22
2.66733	22
2.67100	22
2.67467	22
2.67833	22
2.68200	23
2.68567	23
2.68933	23
2.69300	24
2.69667	24
2.70033	25
2.70400	25
2.70767	25
2.71133	25
2.71500	25
2.71867	24
2.72233	24
2.72600	24
2.72967	24
2.73333	24
2.73700	24
2.74067	24
2.74433	24
2.74800	24
2.75167	24
2.75533	24
2.75900	24
2.76267	25
2.76633	25
2.77000	25
2.77367	25
2.77733	26
2.78100	26
2.78467	26
2.78833	26
2.79200	26
2.79567	27
2.79933	27
2.80300	26
2.80667	26
2.81033	26
2.81400	25
2.81767	25
2.82133	25
2.82500	24
2.82867	24
2.83233	24
2.83600	24
2.83967	24
2.84333	24
2.84700	24
2.85067	24
2.85433	24
2.85800	24
2.86167	24
2.86533	24
2.86900	24
2.87267	24
2.87633	24
2.88000	23
2.88367	23
2.88733	23
2.89100	22
2.89467	21
2.89833	20
2.90200	17
2.90567	15
2.90933	12
2.91300	9
2.91667	6
2.92033	4
2.92400	1
2.92767	0
2.93133	-1
2.93500	-1
2.93867	-0
2.94233	1
2.94600	2
2.94967	4
2.95333	5
2.95700	7
2.96067	9
2.96433	10
2.96800	12
2.97167	13
2.97533	14
2.97900	15
2.98267	16
2.98633	17
2.99000	18
2.99367	19
2.99733	19
3.00100	20
3.00467	20
3.00833	21
3.01200	21
3.01567	22
3.01933	22
3.02300	23
3.02667	23
3.03033	24
3.03400	24
3.03767	24
3.04133	24
3.04500	24
3.04867	25
3.05233	25
3.05600	25
3.05967	25
3.06333	25
3.06700	26
3.07067	26
3.07433	25
3.07800	26
3.08167	26
3.08533	26
3.08900	26
3.09267	26
3.09633	26
3.10000	26
3.10367	26
3.10733	26
3.11100	26
3.11467	26
3.11833	26
3.12200	26
3.12567	26
3.12933	26
3.13300	26
3.13667	26
3.14033	26
3.14400	26
3.14767	25
3.15133	26
3.15500	26
3.15867	26
3.16233	25
3.16600	25
3.16967	25
3.17333	25
3.17700	25
3.18067	25
3.18433	25
3.18800	25
3.19167	25
3.19533	25
3.19900	25
3.20267	26
3.20633	25
3.21000	25
3.21367	25
3.21733	25
3.22100	25
3.22467	25
3.22833	25
3.23200	25
3.23567	25
3.23933	25
3.24300	25
3.24667	25
3.25033	25
3.25400	25
3.25767	25
3.26133	25
3.26500	25
3.26867	25
3.27233	25
3.27600	25
3.27967	25
3.28333	26
3.28700	26
3.29067	26
3.29433	26
3.29800	27
3.30167	27
3.30533	27
3.30900	28
3.31267	28
3.31633	28
3.32000	29
3.32367	29
3.32733	30
3.33100	30
3.33467	30
3.33833	30
3.34200	31
3.34567	31
3.34933	31
3.35300	31
3.35667	31
3.36033	31
3.36400	31
3.36767	31
3.37133	31
3.37500	31
3.37867	31
3.38233	31
3.38600	31
3.38967	31
3.39333	31
3.39700	30
3.40067	30
3.40433	30
3.40800	30
3.41167	30
3.41533	30
3.41900	29
3.42267	29
3.42633	29
3.43000	29
3.43367	29
3.43733	29
3.44100	28
3.44467	28
3.44833	28
3.45200	28
3.45567	28
3.45933	28
3.46300	28
3.46667	28
3.47033	28
3.47400	28
3.47767	28
3.48133	28
3.48500	28
3.48867	28
3.49233	28
3.49600	28
3.49967	28
3.50333	28
3.50700	28
3.51067	28
3.51433	28
3.51800	28
3.52167	28
3.52533	28
3.52900	28
3.53267	27
3.53633	27
3.54000	27
3.54367	27
3.54733	28
3.55100	28
3.55467	28
3.55833	28
3.56200	28
3.56567	28
3.56933	28
3.57300	28
3.57667	28
3.58033	27
3.58400	27
3.58767	27
3.59133	26
3.59500	26
3.59867	26
3.60233	26
3.60600	26
3.60967	26
3.61333	26
3.61700	26
3.62067	26
3.62433	26
3.62800	26
3.63167	26
3.63533	26
3.63900	26
3.64267	26
3.64633	26
3.65000	26
3.65367	26
3.65733	27
3.66100	27
3.66467	27
3.66833	27
3.67200	27
3.67567	27
3.67933	27
3.68300	27
3.68667	26
3.69033	26
3.69400	26
3.69767	26
3.70133	26
3.70500	26
3.70867	26
3.71233	27
3.71600	27
3.71967	27
3.72333	28
3.72700	28
3.73067	28
3.73433	28
3.73800	28
3.74167	29
3.74533	29
3.74900	29
3.75267	28
3.75633	28
3.76000	28
3.76367	28
3.76733	28
3.77100	27
3.77467	27
3.77833	27
3.78200	27
3.78567	27
3.78933	28
3.79300	28
3.79667	28
3.80033	28
3.80400	28
3.80767	28
3.81133	28
3.81500	28
3.81867	28
3.82233	28
3.82600	27
3.82967	27
3.83333	27
3.83700	27
3.84067	27
3.84433	27
3.84800	27
3.85167	27
3.85533	27
3.85900	28
3.86267	28
3.86633	28
3.87000	28
3.87367	28
3.87733	28
3.88100	28
3.88467	28
3.88833	28
3.89200	28
3.89567	28
3.89933	28
3.90300	28
3.90667	29
3.91033	29
3.91400	28
3.91767	28
3.92133	28
3.92500	28
3.92867	28
3.93233	28
3.93600	28
3.93967	28
3.94333	27
3.94700	27
3.95067	27
3.95433	27
3.95800	27
3.96167	27
3.96533	27
3.96900	27
3.97267	27
3.97633	27
3.98000	27
3.98367	27
3.98733	28
3.99100	28
3.99467	28
3.99833	28

[Chromatogram (Ch3)]
Interval(msec)	220
# of Points	1091
Start Time(min)	0.002
End Time(min)	3.998
R.Time (min)	Intensity
0.00167	0
0.00533	1
0.00900	2
0.01267	1
0.01633	2
0.02000	4
0.02367	7
0.02733	9
0.03100	10
0.03467	10
0.03833	10
0.04200	7
0.04567	5
0.04933	2
0.05300	1
0.05667	3
0.06033	3
0.06400	1
0.06767	1
0.07133	2
0.07500	5
0.07867	6
0.08233	7
0.08600	7
0.08967	7
0.09333	8
0.09700	8
0.10067	8
0.10433	9
0.10800	8
0.11167	9
0.11533	10
0.11900	10
0.12267	10
0.12633	10
0.13000	9
0.13367	7
0.13733	6
0.14100	4
0.14467	5
0.14833	6
0.15200	7
0.15567	8
0.15933	9
0.16300	8
0.16667	9
0.17033	9
0.17400	10
0.17767	12
0.18133	14
0.18500	15
0.18867	14
0.19233	13
0.19600	12
0.19967	10
0.20333	8
0.20700	8
0.21067	6
0.21433	5
0.21800	4
0.22167	5
0.22533	7
0.22900	10
0.23267	10
0.23633	11
0.24000	8
0.24367	7
0.24733	6
0.25100	6
0.25467	7
0.25833	8
0.26200	10
0.26567	11
0.26933	11
0.27300	10
0.27667	9
0.28033	7
0.28400	7
0.28767	8
0.29133	10
0.29500	10
0.29867	12
0.30233	12
0.30600	11
0.30967	9
0.31333	9
0.31700	9
0.32067	8
0.32433	9
0.32800	11
0.33167	11
0.33533	13
0.33900	13
0.34267	11
0.34633	12
0.35000	13
0.35367	13
0.35733	11
0.36100	11
0.36467	14
0.36833	16
0.37200	17
0.37567	15
0.37933	12
0.38300	10
0.38667	8
0.39033	7
0.39400	6
0.39767	5
0.40133	4
0.40500	6
0.40867	10
0.41233	13
0.41600	16
0.41967	16
0.42333	15
0.42700	14
0.43067	12
0.43433	12
0.43800	12
0.44167	11
0.44533	12
0.44900	13
0.45267	13
0.45633	13
0.46000	13
0.46367	12
0.46733	12
0.47100	10
0.47467	9
0.47833	6
0.48200	5
0.48567	5
0.48933	6
0.49300	7
0.49667	8
0.50033	8
0.50400	7
0.50767	8
0.51133	9
0.51500	12
0.51867	12
0.52233	12
0.52600	12
0.52967	11
0.53333	11
0.53700	12
0.54067	13
0.54433	12
0.54800	11
0.55167	10
0.55533	12
0.55900	13
0.56267	14
0.56633	14
0.57000	16
0.57367	18
0.57733	16
0.58100	15
0.58467	15
0.58833	14
0.59200	14
0.59567	13
0.59933	12
0.60300	13
0.60667	12
0.61033	9
0.61400	9
0.61767	10
0.62133	11
0.62500	10
0.62867	10
0.63233	10
0.63600	12
0.63967	15
0.64333	15
0.64700	14
0.65067	12
0.65433	12
0.65800	12
0.66167	12
0.66533	14
0.66900	15
0.67267	15
0.67633	13
0.68000	11
0.68367	10
0.68733	10
0.69100	10
0.69467	10
0.69833	9
0.70200	9
0.70567	8
0.70933	8
0.71300	10
0.71667	10
0.72033	10
0.72400	9
0.72767	7
0.73133	7
0.73500	10
0.73867	13
0.74233	12
0.74600	10
0.74967	8
0.75333	9
0.75700	8
0.76067	10
0.76433	13
0.76800	15
0.77167	15
0.77533	16
0.77900	13
0.78267	10
0.78633	8
0.79000	7
0.79367	7
0.79733	9
0.80100	11
0.80467	12
0.80833	12
0.81200	9
0.81567	6
0.81933	4
0.82300	4
0.82667	4
0.83033	5
0.83400	5
0.83767	4
0.84133	3
0.84500	4
0.84867	5
0.85233	4
0.85600	4
0.85967	4
0.86333	5
0.86700	3
0.87067	3
0.87433	6
0.87800	7
0.88167	10
0.88533	10
0.88900	10
0.89267	10
0.89633	10
0.90000	9
0.90367	8
0.90733	7
0.91100	6
0.91467	6
0.91833	6
0.92200	7
0.92567	6
0.92933	5
0.93300	4
0.93667	3
0.94033	3
0.94400	3
0.94767	3
0.95133	5
0.95500	5
0.95867	6
0.96233	6
0.96600	9
0.96967	9
0.97333	10
0.97700	9
0.98067	6
0.98433	5
0.98800	6
0.99167	7
0.99533	7
0.99900	8
1.00267	9
1.00633	8
1.01000	5
1.01367	1
1.01733	-2
1.02100	-2
1.02467	1
1.02833	2
1.03200	1
1.03567	0
1.03933	3
1.04300	5
1.04667	5
1.05033	6
1.05400	7
1.05767	6
1.06133	6
1.06500	4
1.06867	3
1.07233	3
1.07600	4
1.07967	5
1.08333	5
1.08700	6
1.09067	6
1.09433	6
1.09800	5
1.10167	3
1.10533	3
1.10900	5
1.11267	6
1.11633	5
1.12000	3
1.12367	3
1.12733	1
1.13100	-1
1.13467	-2
1.13833	-3
1.14200	-4
1.14567	-2
1.14933	-1
1.15300	-1
1.15667	-2
1.16033	-2
1.16400	-2
1.16767	-0
1.17133	-1
1.17500	-1
1.17867	-1
1.18233	0
1.18600	1
1.18967	2
1.19333	4
1.19700	6
1.20067	5
1.20433	1
1.20800	0
1.21167	1
1.21533	2
1.21900	0
1.22267	1
1.22633	3
1.23000	4
1.23367	3
1.23733	2
1.24100	1
1.24467	2
1.24833	2
1.25200	0
1.25567	-1
1.25933	-1
1.26300	-2
1.26667	-2
1.27033	-2
1.27400	-1
1.27767	-2
1.28133	-4
1.28500	-4
1.28867	-4
1.29233	-3
1.29600	-1
1.29967	-0
1.30333	0
1.30700	0
1.31067	-1
1.31433	-2
1.31800	-0
1.32167	1
1.32533	2
1.32900	3
1.33267	4
1.33633	4
1.34000	3
1.34367	1
1.34733	-0
1.35100	-2
1.35467	-3
1.35833	-4
1.36200	-2
1.36567	-1
1.36933	-1
1.37300	-2
1.37667	-0
1.38033	0
1.38400	1
1.38767	-1
1.39133	-4
1.39500	-6
1.39867	-6
1.40233	-4
1.40600	-1
1.40967	1
1.41333	1
1.41700	-2
1.42067	-2
1.42433	-2
1.42800	-2
1.43167	-2
1.43533	-3
1.43900	-4
1.44267	-4
1.44633	-4
1.45000	-4
1.45367	-4
1.45733	-2
1.46100	-2
1.46467	-3
1.46833	-2
1.47200	-1
1.47567	-3
1.47933	-5
1.48300	-5
1.48667	-3
1.49033	-3
1.49400	-3
1.49767	-2
1.50133	0
1.50500	2
1.50867	4
1.51233	3
1.51600	1
1.51967	-1
1.52333	-4
1.52700	-5
1.53067	-4
1.53433	-3
1.53800	-2
1.54167	-3
1.54533	-4
1.54900	-4
1.55267	-7
1.55633	-8
1.56000	-3
1.56367	1
1.56733	2
1.57100	-0
1.57467	-1
1.57833	-1
1.58200	-3
1.58567	-4
1.58933	-3
1.59300	0
1.59667	0
1.60033	-3
1.60400	-4
1.60767	-3
1.61133	-4
1.61500	-6
1.61867	-5
1.62233	-3
1.62600	-3
1.62967	-4
1.63333	-6
1.63700	-7
1.64067	-6
1.64433	-6
1.64800	-3
1.65167	0
1.65533	1
1.65900	3
1.66267	4
1.66633	5
1.67000	5
1.67367	7
1.67733	9
1.68100	10
1.68467	10
1.68833	10
1.69200	9
1.69567	8
1.69933	7
1.70300	7
1.70667	8
1.71033	9
1.71400	10
1.71767	8
1.72133	7
1.72500	6
1.72867	6
1.73233	7
1.73600	8
1.73967	8
1.74333	11
1.74700	15
1.75067	18
1.75433	15
1.75800	11
1.76167	9
1.76533	8
1.76900	11
1.77267	14
1.77633	18
1.78000	19
1.78367	18
1.78733	14
1.79100	13
1.79467	14
1.79833	16
1.80200	16
1.80567	16
1.80933	17
1.81300	17
1.81667	17
1.82033	18
1.82400	17
1.82767	17
1.83133	17
1.83500	17
1.83867	16
1.84233	16
1.84600	15
1.84967	16
1.85333	17
1.85700	17
1.86067	17
1.86433	18
1.86800	18
1.87167	17
1.87533	17
1.87900	16
1.88267	18
1.88633	20
1.89000	22
1.89367	22
1.89733	22
1.90100	24
1.90467	23
1.90833	23
1.91200	23
1.91567	24
1.91933	25
1.92300	24
1.92667	23
1.93033	25
1.93400	24
1.93767	24
1.94133	26
1.94500	27
1.94867	30
1.95233	32
1.95600	32
1.95967	30
1.96333	31
1.96700	32
1.97067	32
1.97433	32
1.97800	32
1.98167	31
1.98533	30
1.98900	28
1.99267	28
1.99633	30
2.00000	31
2.00367	32
2.00733	34
2.01100	36
2.01467	36
2.01833	35
2.02200	34
2.02567	35
2.02933	36
2.03300	36
2.03667	38
2.04033	40
2.04400	43
2.04767	44
2.05133	45
2.05500	45
2.05867	46
2.06233	48
2.06600	49
2.06967	49
2.07333	47
2.07700	47
2.08067	48
2.08433	50
2.08800	52
2.09167	51
2.09533	52
2.09900	53
2.10267	55
2.10633	55
2.11000	54
2.11367	54
2.11733	55
2.12100	56
2.12467	57
2.12833	57
2.13200	56
2.13567	55
2.13933	57
2.14300	59
2.14667	60
2.15033	60
2.15400	61
2.15767	61
2.16133	63
2.16500	65
2.16867	67
2.17233	69
2.17600	70
2.17967	70
2.18333	70
2.18700	72
2.19067	73
2.19433	73
2.19800	73
2.20167	74
2.20533	74
2.20900	73
2.21267	72
2.21633	72
2.22000	73
2.22367	75
2.22733	76
2.23100	77
2.23467	75
2.23833	74
2.24200	75
2.24567	77
2.24933	79
2.25300	81
2.25667	83
2.26033	84
2.26400	86
2.26767	85
2.27133	84
2.27500	85
2.27867	85
2.28233	84
2.28600	83
2.28967	84
2.29333	85
2.29700	85
2.30067	85
2.30433	85
2.30800	85
2.31167	86
2.31533	87
2.31900	88
2.32267	90
2.32633	92
2.33000	95
2.33367	97
2.33733	99
2.34100	98
2.34467	98
2.34833	100
2.35200	101
2.35567	103
2.35933	103
2.36300	104
2.36667	105
2.37033	107
2.37400	106
2.37767	105
2.38133	105
2.38500	103
2.38867	104
2.39233	105
2.39600	103
2.39967	102
2.40333	101
2.40700	99
2.41067	101
2.41433	105
2.41800	106
2.42167	107
2.42533	110
2.42900	113
2.43267	115
2.43633	116
2.44000	115
2.44367	122
2.44733	141
2.45100	159
2.45467	168
2.45833	158
2.46200	134
2.46567	110
2.46933	89
2.47300	74
2.47667	62
2.48033	52
2.48400	40
2.48767	27
2.49133	15
2.49500	6
2.49867	-1
2.50233	-5
2.50600	-7
2.50967	-8
2.51333	-9
2.51700	-11
2.52067	-12
2.52433	-11
2.52800	-9
2.53167	-9
2.53533	-10
2.53900	-13
2.54267	-20
2.54633	-25
2.55000	-28
2.55367	-31
2.55733	-37
2.56100	-41
2.56467	-46
2.56833	-49
2.57200	-50
2.57567	-49
2.57933	-45
2.58300	-45
2.58667	-45
2.59033	-45
2.59400	-45
2.59767	-47
2.60133	-45
2.60500	-42
2.60867	-38
2.61233	-35
2.61600	-34
2.61967	-34
2.62333	-33
2.62700	-32
2.63067	-32
2.63433	-34
2.63800	-34
2.64167	-34
2.64533	-33
2.64900	-34
2.65267	-36
2.65633	-38
2.66000	-38
2.66367	-37
2.66733	-37
2.67100	-37
2.67467	-38
2.67833	-41
2.68200	-44
2.68567	-43
2.68933	-43
2.69300	-43
2.69667	-44
2.70033	-44
2.70400	-42
2.70767	-40
2.71133	-40
2.71500	-42
2.71867	-41
2.72233	-39
2.72600	-38
2.72967	-36
2.73333	-34
2.73700	-32
2.74067	-30
2.74433	-27
2.74800	-24
2.75167	-24
2.75533	-26
2.75900	-25
2.76267	-23
2.76633	-21
2.77000	-18
2.77367	-16
2.77733	-16
2.78100	-18
2.78467	-19
2.78833	-21
2.79200	-21
2.79567	-19
2.79933	-16
2.80300	-13
2.80667	-11
2.81033	-9
2.81400	-8
2.81767	-7
2.82133	-8
2.82500	-10
2.82867	-10
2.83233	-9
2.83600	-7
2.83967	-3
2.84333	2
2.84700	5
2.85067	9
2.85433	13
2.85800	19
2.86167	27
2.86533	35
2.86900	48
2.87267	65
2.87633	83
2.88000	96
2.88367	106
2.88733	113
2.89100	115
2.89467	113
2.89833	109
2.90200	103
2.90567	96
2.90933	90
2.91300	85
2.91667	78
2.92033	71
2.92400	65
2.92767	57
2.93133	53
2.93500	47
2.93867	40
2.94233	34
2.94600	34
2.94967	34
2.95333	33
2.95700	33
2.96067	31
2.96433	28
2.96800	24
2.97167	21
2.97533	18
2.97900	16
2.98267	14
2.98633	14
2.99000	15
2.99367	17
2.99733	17
3.00100	16
3.00467	17
3.00833	17
3.01200	17
3.01567	18
3.01933	18
3.02300	18
3.02667	22
3.03033	21
3.03400	19
3.03767	18
3.04133	18
3.04500	17
3.04867	18
3.05233	20
3.05600	23
3.05967	24
3.06333	26
3.06700	25
3.07067	22
3.07433	22
3.07800	22
3.08167	21
3.08533	22
3.08900	23
3.09267	23
3.09633	24
3.10000	23
3.10367	24
3.10733	25
3.11100	24
3.11467	22
3.11833	21
3.12200	20
3.12567	19
3.12933	21
3.13300	21
3.13667	22
3.14033	22
3.14400	23
3.14767	23
3.15133	24
3.15500	24
3.15867	22
3.16233	20
3.16600	22
3.16967	22
3.17333	20
3.17700	20
3.18067	20
3.18433	21
3.18800	22
3.19167	24
3.19533	24
3.19900	26
3.20267	27
3.20633	25
3.21000	22
3.21367	24
3.21733	27
3.22100	31
3.22467	33
3.22833	33
3.23200	31
3.23567	31
3.23933	31
3.24300	30
3.24667	32
3.25033	34
3.25400	36
3.25767	36
3.26133	34
3.26500	34
3.26867	35
3.27233	35
3.27600	34
3.27967	34
3.28333	33
3.28700	32
3.29067	34
3.29433	36
3.29800	36
3.30167	36
3.30533	36
3.30900	34
3.31267	34
3.31633	34
3.32000	33
3.32367	34
3.32733	34
3.33100	33
3.33467	33
3.33833	35
3.34200	34
3.34567	34
3.34933	33
3.35300	34
3.35667	34
3.36033	34
3.36400	33
3.36767	32
3.37133	31
3.37500	29
3.37867	30
3.38233	32
3.38600	33
3.38967	35
3.39333	37
3.39700	40
3.40067	40
3.40433	41
3.40800	41
3.41167	40
3.41533	38
3.41900	35
3.42267	33
3.42633	33
3.43000	33
3.43367	35
3.43733	38
3.44100	41
3.44467	42
3.44833	43
3.45200	44
3.45567	44
3.45933	44
3.46300	44
3.46667	44
3.47033	43
3.47400	42
3.47767	43
3.48133	41
3.48500	39
3.48867	41
3.49233	42
3.49600	42
3.49967	42
3.50333	39
3.50700	38
3.51067	37
3.51433	36
3.51800	36
3.52167	36
3.52533	37
3.52900	39
3.53267	38
3.53633	37
3.54000	37
3.54367	37
3.54733	38
3.55100	38
3.55467	38
3.55833	38
3.56200	38
3.56567	38
3.56933	38
3.57300	37
3.57667	36
3.58033	34
3.58400	34
3.58767	37
3.59133	39
3.59500	39
3.59867	38
3.60233	38
3.60600	39
3.60967	37
3.61333	35
3.61700	34
3.62067	33
3.62433	31
3.62800	31
3.63167	32
3.63533	33
3.63900	32
3.64267	32
3.64633	33
3.65000	34
3.65367	34
3.65733	33
3.66100	32
3.66467	33
3.66833	33
3.67200	34
3.67567	34
3.67933	35
3.68300	37
3.68667	38
3.69033	38
3.69400	39
3.69767	39
3.70133	37
3.70500	36
3.70867	33
3.71233	33
3.71600	33
3.71967	31
3.72333	30
3.72700	29
3.73067	31
3.73433	33
3.73800	34
3.74167	36
3.74533	38
3.74900	38
3.75267	36
3.75633	36
3.76000	37
3.76367	38
3.76733	40
3.77100	42
3.77467	42
3.77833	42
3.78200	43
3.78567	43
3.78933	44
3.79300	45
3.79667	45
3.80033	45
3.80400	44
3.80767	40
3.81133	37
3.81500	32
3.81867	30
3.82233	31
3.82600	32
3.82967	32
3.83333	31
3.83700	33
3.84067	34
3.84433	38
3.84800	40
3.85167	38
3.85533	36
3.85900	34
3.86267	33
3.86633	33
3.87000	34
3.87367	37
3.87733	39
3.88100	40
3.88467	38
3.88833	37
3.89200	37
3.89567	38
3.89933	41
3.90300	43
3.90667	42
3.91033	43
3.91400	45
3.91767	48
3.92133	50
3.92500	52
3.92867	52
3.93233	51
3.93600	51
3.93967	51
3.94333	52
3.94700	52
3.95067	52
3.95433	55
3.95800	58
3.96167	61
3.96533	62
3.96900	64
3.97267	67
3.97633	69
3.98000	71
3.98367	72
3.98733	73
3.99100	72
3.99467	72
3.99833	73

[Status Trace (Column Oven Temperature)]
Interval(msec)	1000
# of Points	240
Start Time(min)	0.009
End Time(min)	3.993
Intensity Units	
Intensity Multiplier	1
R.Time (min)	Intensity
0.00943	34.99
0.02610	35.01
0.04277	35.02
0.05943	35.02
0.07610	35.02
0.09277	35.02
0.10943	35.02
0.12610	35.01
0.14277	35.01
0.15943	35.00
0.17610	34.98
0.19277	34.98
0.20943	34.98
0.22610	34.98
0.24277	34.98
0.25943	34.97
0.27610	34.96
0.29277	34.97
0.30943	34.97
0.32610	34.96
0.34277	34.96
0.35943	34.97
0.37610	34.97
0.39277	34.98
0.40943	34.99
0.42610	34.99
0.44277	34.99
0.45943	34.98
0.47610	34.98
0.49277	34.99
0.50943	34.98
0.52610	34.98
0.54277	34.98
0.55943	34.99
0.57610	34.99
0.59277	35.00
0.60943	35.01
0.62610	35.01
0.64277	35.00
0.65943	35.00
0.67610	35.01
0.69277	35.00
0.70943	34.98
0.72610	34.99
0.74277	34.98
0.75943	34.98
0.77610	34.99
0.79277	34.99
0.80943	35.00
0.82610	34.99
0.84277	34.99
0.85943	34.99
0.87610	34.99
0.89277	34.99
0.90943	34.99
0.92610	34.99
0.94277	35.00
0.95943	35.01
0.97610	35.01
0.99277	35.02
1.00943	35.03
1.02610	35.02
1.04277	35.01
1.05943	35.00
1.07610	35.01
1.09277	35.00
1.10943	34.99
1.12610	34.99
1.14277	34.98
1.15943	34.99
1.17610	34.98
1.19277	34.98
1.20943	34.97
1.22610	34.97
1.24277	34.98
1.25943	34.97
1.27610	34.98
1.29277	34.98
1.30943	34.98
1.32610	34.98
1.34277	34.99
1.35943	34.99
1.37610	35.00
1.39277	35.01
1.40943	35.03
1.42610	35.02
1.44277	35.02
1.45943	35.02
1.47610	35.02
1.49277	35.02
1.50943	35.03
1.52610	35.04
1.54277	35.03
1.55943	35.02
1.57610	35.00
1.59277	35.00
1.60943	35.06
1.62610	35.19
1.64277	35.37
1.65943	35.62
1.67610	35.97
1.69277	36.34
1.70943	36.69
1.72610	37.04
1.74277	37.38
1.75943	37.69
1.77610	38.01
1.79277	38.34
1.80943	38.68
1.82610	39.01
1.84277	39.35
1.85943	39.68
1.87610	40.01
1.89277	40.36
1.90943	40.66
1.92610	40.98
1.94277	41.33
1.95943	41.66
1.97610	41.98
1.99277	42.31
2.00943	42.64
2.02610	42.97
2.04277	43.29
2.05943	43.61
2.07610	43.94
2.09277	44.27
2.10943	44.57
2.12610	44.91
2.14277	45.24
2.15943	45.56
2.17610	45.91
2.19277	46.22
2.20943	46.56
2.22610	46.87
2.24277	47.21
2.25943	47.54
2.27610	47.85
2.29277	48.18
2.30943	48.52
2.32610	48.84
2.34277	49.16
2.35943	49.47
2.37610	49.69
2.39277	49.77
2.40943	49.78
2.42610	49.76
2.44277	49.76
2.45943	49.76
2.47610	49.76
2.49277	49.77
2.50943	49.78
2.52610	49.79
2.54277	49.79
2.55943	49.84
2.57610	49.85
2.59277	49.82
2.60943	49.83
2.62610	49.84
2.64277	49.85
2.65943	49.86
2.67610	49.86
2.69277	49.84
2.70943	49.86
2.72610	49.86
2.74277	49.87
2.75943	49.87
2.77610	49.86
2.79277	49.85
2.80943	49.87
2.82610	49.88
2.84277	49.90
2.85943	49.90
2.87610	49.91
2.89277	49.92
2.90943	49.94
2.92610	49.95
2.94277	49.96
2.95943	49.97
2.97610	49.99
2.99277	50.00
3.00943	50.01
3.02610	50.02
3.04277	50.02
3.05943	50.03
3.07610	50.03
3.09277	50.03
3.10943	50.04
3.12610	50.04
3.14277	50.06
3.15943	50.06
3.17610	50.07
3.19277	50.07
3.20943	50.08
3.22610	50.09
3.24277	50.10
3.25943	50.11
3.27610	50.11
3.29277	50.10
3.30943	50.09
3.32610	50.08
3.34277	50.07
3.35943	50.06
3.37610	50.04
3.39277	50.04
3.40943	50.03
3.42610	50.03
3.44277	50.03
3.45943	50.03
3.47610	50.03
3.49277	50.03
3.50943	50.03
3.52610	50.03
3.54277	50.03
3.55943	50.04
3.57610	50.04
3.59277	50.05
3.60943	50.07
3.62610	50.08
3.64277	50.07
3.65943	50.08
3.67610	50.08
3.69277	50.09
3.70943	50.08
3.72610	50.07
3.74277	50.06
3.75943	50.07
3.77610	50.07
3.79277	50.07
3.80943	50.07
3.82610	50.07
3.84277	50.08
3.85943	50.08
3.87610	50.08
3.89277	50.08
3.90943	50.07
3.92610	50.07
3.94277	50.07
3.95943	50.07
3.97610	50.07
3.99277	50.07

[Status Trace (Injection Unit Temperature)]
Interval(msec)	1000
# of Points	240
Start Time(min)	0.009
End Time(min)	3.993
Intensity Units	
Intensity Multiplier	1
R.Time (min)	Intensity
0.00943	99.99
0.02610	99.99
0.04277	99.99
0.05943	99.99
0.07610	99.99
0.09277	99.99
0.10943	99.99
0.12610	99.99
0.14277	99.99
0.15943	99.99
0.17610	100.00
0.19277	99.99
0.20943	99.99
0.22610	99.99
0.24277	100.00
0.25943	99.99
0.27610	99.99
0.29277	99.99
0.30943	99.99
0.32610	99.99
0.34277	99.99
0.35943	99.99
0.37610	99.99
0.39277	99.99
0.40943	99.99
0.42610	99.99
0.44277	99.99
0.45943	99.99
0.47610	99.99
0.49277	99.99
0.50943	99.99
0.52610	99.99
0.54277	99.99
0.55943	100.00
0.57610	99.99
0.59277	99.99
0.60943	99.99
0.62610	99.99
0.64277	99.99
0.65943	99.99
0.67610	99.98
0.69277	99.99
0.70943	99.99
0.72610	99.99
0.74277	99.99
0.75943	99.99
0.77610	99.99
0.79277	99.99
0.80943	99.99
0.82610	99.99
0.84277	99.99
0.85943	99.99
0.87610	99.99
0.89277	99.99
0.90943	99.99
0.92610	99.98
0.94277	99.99
0.95943	99.99
0.97610	99.99
0.99277	99.99
1.00943	99.99
1.02610	99.99
1.04277	99.99
1.05943	99.99
1.07610	99.99
1.09277	99.99
1.10943	99.99
1.12610	99.99
1.14277	99.99
1.15943	99.99
1.17610	99.99
1.19277	99.99
1.20943	99.99
1.22610	99.99
1.24277	99.99
1.25943	99.99
1.27610	99.99
1.29277	99.99
1.30943	99.99
1.32610	99.99
1.34277	99.99
1.35943	99.99
1.37610	99.99
1.39277	99.99
1.40943	99.99
1.42610	99.99
1.44277	100.00
1.45943	99.99
1.47610	99.99
1.49277	99.99
1.50943	99.99
1.52610	100.00
1.54277	99.99
1.55943	99.99
1.57610	99.99
1.59277	99.99
1.60943	100.00
1.62610	99.99
1.64277	99.99
1.65943	99.99
1.67610	99.99
1.69277	99.99
1.70943	99.99
1.72610	100.00
1.74277	100.00
1.75943	99.99
1.77610	99.99
1.79277	99.99
1.80943	99.99
1.82610	100.00
1.84277	99.99
1.85943	99.99
1.87610	99.99
1.89277	99.99
1.90943	99.99
1.92610	99.99
1.94277	99.99
1.95943	99.99
1.97610	99.97
1.99277	99.99
2.00943	99.99
2.02610	99.99
2.04277	99.99
2.05943	99.98
2.07610	99.98
2.09277	99.98
2.10943	99.98
2.12610	99.98
2.14277	99.98
2.15943	99.98
2.17610	99.98
2.19277	99.98
2.20943	99.98
2.22610	99.98
2.24277	99.97
2.25943	99.97
2.27610	99.98
2.29277	99.97
2.30943	99.97
2.32610	99.97
2.34277	99.97
2.35943	99.97
2.37610	99.98
2.39277	99.97
2.40943	99.97
2.42610	99.97
2.44277	99.97
2.45943	99.98
2.47610	99.97
2.49277	99.97
2.50943	99.97
2.52610	99.98
2.54277	99.98
2.55943	99.97
2.57610	99.98
2.59277	99.98
2.60943	99.98
2.62610	99.98
2.64277	99.98
2.65943	99.98
2.67610	99.98
2.69277	99.98
2.70943	99.98
2.72610	99.98
2.74277	99.98
2.75943	99.99
2.77610	99.99
2.79277	99.98
2.80943	99.99
2.82610	99.99
2.84277	100.00
2.85943	99.99
2.87610	100.00
2.89277	99.99
2.90943	100.00
2.92610	100.00
2.94277	100.01
2.95943	100.00
2.97610	100.01
2.99277	100.01
3.00943	100.01
3.02610	100.01
3.04277	100.02
3.05943	100.01
3.07610	100.02
3.09277	100.02
3.10943	100.02
3.12610	100.02
3.14277	100.02
3.15943	100.03
3.17610	100.02
3.19277	100.03
3.20943	100.03
3.22610	100.03
3.24277	100.03
3.25943	100.03
3.27610	100.03
3.29277	100.03
3.30943	100.03
3.32610	100.04
3.34277	100.04
3.35943	100.04
3.37610	100.04
3.39277	100.04
3.40943	100.04
3.42610	100.04
3.44277	100.04
3.45943	100.04
3.47610	100.05
3.49277	100.05
3.50943	100.05
3.52610	100.05
3.54277	100.04
3.55943	100.05
3.57610	100.05
3.59277	100.05
3.60943	100.05
3.62610	100.05
3.64277	100.05
3.65943	100.05
3.67610	100.05
3.69277	100.05
3.70943	100.05
3.72610	100.05
3.74277	100.05
3.75943	100.05
3.77610	100.05
3.79277	100.06
3.80943	100.06
3.82610	100.06
3.84277	100.05
3.85943	100.05
3.87610	100.05
3.89277	100.06
3.90943	100.06
3.92610	100.05
3.94277	100.05
3.95943	100.05
3.97610	100.05
3.99277	100.05

[Status Trace (Carrier Gas Pressure)]
Interval(msec)	1000
# of Points	240
Start Time(min)	0.009
End Time(min)	3.993
Intensity Units	
Intensity Multiplier	1
R.Time (min)	Intensity
0.00943	58.00
0.02610	55.17
0.04277	57.21
0.05943	59.36
0.07610	59.31
0.09277	58.06
0.10943	57.98
0.12610	58.01
0.14277	58.01
0.15943	58.00
0.17610	58.00
0.19277	58.00
0.20943	58.00
0.22610	58.00
0.24277	58.00
0.25943	58.00
0.27610	58.00
0.29277	58.00
0.30943	58.00
0.32610	58.00
0.34277	58.00
0.35943	58.00
0.37610	58.00
0.39277	58.00
0.40943	58.00
0.42610	58.00
0.44277	58.00
0.45943	58.00
0.47610	58.00
0.49277	58.00
0.50943	58.00
0.52610	58.00
0.54277	58.00
0.55943	58.00
0.57610	58.00
0.59277	58.00
0.60943	58.00
0.62610	58.00
0.64277	58.00
0.65943	58.00
0.67610	58.00
0.69277	58.00
0.70943	58.00
0.72610	58.00
0.74277	58.00
0.75943	58.00
0.77610	58.00
0.79277	58.00
0.80943	58.00
0.82610	58.00
0.84277	58.00
0.85943	58.00
0.87610	58.00
0.89277	58.00
0.90943	58.00
0.92610	58.00
0.94277	58.00
0.95943	58.00
0.97610	58.00
0.99277	58.00
1.00943	58.00
1.02610	58.00
1.04277	58.00
1.05943	58.00
1.07610	58.00
1.09277	58.00
1.10943	58.00
1.12610	58.00
1.14277	58.00
1.15943	58.00
1.17610	58.00
1.19277	58.00
1.20943	58.00
1.22610	58.00
1.24277	58.00
1.25943	58.00
1.27610	58.00
1.29277	58.00
1.30943	58.00
1.32610	58.00
1.34277	58.00
1.35943	58.00
1.37610	58.00
1.39277	58.00
1.40943	58.00
1.42610	58.00
1.44277	58.00
1.45943	58.00
1.47610	58.00
1.49277	58.00
1.50943	58.00
1.52610	58.00
1.54277	58.00
1.55943	58.00
1.57610	58.00
1.59277	58.00
1.60943	58.00
1.62610	58.00
1.64277	58.01
1.65943	58.00
1.67610	58.01
1.69277	58.00
1.70943	58.00
1.72610	58.00
1.74277	58.00
1.75943	58.00
1.77610	58.00
1.79277	58.00
1.80943	58.00
1.82610	58.00
1.84277	58.00
1.85943	58.00
1.87610	58.00
1.89277	58.00
1.90943	58.00
1.92610	58.00
1.94277	58.00
1.95943	58.00
1.97610	58.00
1.99277	58.00
2.00943	58.00
2.02610	58.00
2.04277	58.00
2.05943	58.00
2.07610	58.00
2.09277	58.00
2.10943	58.00
2.12610	58.00
2.14277	58.00
2.15943	58.00
2.17610	58.00
2.19277	58.00
2.20943	58.00
2.22610	58.00
2.24277	58.00
2.25943	58.00
2.27610	58.00
2.29277	58.00
2.30943	58.00
2.32610	58.00
2.34277	58.00
2.35943	58.00
2.37610	58.00
2.39277	57.99
2.40943	57.99
2.42610	58.00
2.44277	58.00
2.45943	58.00
2.47610	58.00
2.49277	58.00
2.50943	58.00
2.52610	57.99
2.54277	58.00
2.55943	58.00
2.57610	58.00
2.59277	58.00
2.60943	58.00
2.62610	58.00
2.64277	58.00
2.65943	58.00
2.67610	58.00
2.69277	58.00
2.70943	58.00
2.72610	58.00
2.74277	58.00
2.75943	58.00
2.77610	58.00
2.79277	58.00
2.80943	58.00
2.82610	58.00
2.84277	58.00
2.85943	58.00
2.87610	58.00
2.89277	58.00
2.90943	58.00
2.92610	58.00
2.94277	58.00
2.95943	58.00
2.97610	58.00
2.99277	58.00
3.00943	58.00
3.02610	58.00
3.04277	58.00
3.05943	58.00
3.07610	58.00
3.09277	58.00
3.10943	58.00
3.12610	58.00
3.14277	58.00
3.15943	58.00
3.17610	58.00
3.19277	58.00
3.20943	58.00
3.22610	58.00
3.24277	58.00
3.25943	58.00
3.27610	58.00
3.29277	58.00
3.30943	58.00
3.32610	58.00
3.34277	58.00
3.35943	58.00
3.37610	58.00
3.39277	58.00
3.40943	58.00
3.42610	58.00
3.44277	58.00
3.45943	58.00
3.47610	58.00
3.49277	58.00
3.50943	58.00
3.52610	58.00
3.54277	58.00
3.55943	58.00
3.57610	58.00
3.59277	58.00
3.60943	58.00
3.62610	58.00
3.64277	58.00
3.65943	58.00
3.67610	58.00
3.69277	58.00
3.70943	58.00
3.72610	58.00
3.74277	58.00
3.75943	58.00
3.77610	58.00
3.79277	58.00
3.80943	58.00
3.82610	58.00
3.84277	58.00
3.85943	58.00
3.87610	58.00
3.89277	58.00
3.90943	58.00
3.92610	58.00
3.94277	58.00
3.95943	58.00
3.97610	58.00
3.99277	58.00

[Status Trace (Carrier Gas Flow)]
Interval(msec)	1000
# of Points	240
Start Time(min)	0.009
End Time(min)	3.993
Intensity Units	
Intensity Multiplier	1
R.Time (min)	Intensity
0.00943	34.52
0.02610	34.53
0.04277	34.54
0.05943	34.54
0.07610	34.50
0.09277	34.52
0.10943	34.52
0.12610	34.52
0.14277	34.52
0.15943	34.52
0.17610	34.52
0.19277	34.52
0.20943	34.52
0.22610	34.52
0.24277	34.52
0.25943	34.52
0.27610	34.52
0.29277	34.52
0.30943	34.52
0.32610	34.52
0.34277	34.52
0.35943	34.52
0.37610	34.52
0.39277	34.52
0.40943	34.52
0.42610	34.52
0.44277	34.52
0.45943	34.52
0.47610	34.52
0.49277	34.52
0.50943	34.52
0.52610	34.52
0.54277	34.52
0.55943	34.52
0.57610	34.52
0.59277	34.52
0.60943	34.52
0.62610	34.52
0.64277	34.52
0.65943	34.52
0.67610	34.52
0.69277	34.52
0.70943	34.52
0.72610	34.52
0.74277	34.52
0.75943	34.52
0.77610	34.52
0.79277	34.52
0.80943	34.52
0.82610	34.52
0.84277	34.52
0.85943	34.52
0.87610	34.52
0.89277	34.52
0.90943	34.52
0.92610	34.52
0.94277	34.52
0.95943	34.52
0.97610	34.52
0.99277	34.52
1.00943	34.52
1.02610	34.52
1.04277	34.52
1.05943	34.52
1.07610	34.52
1.09277	34.52
1.10943	34.52
1.12610	34.52
1.14277	34.52
1.15943	34.52
1.17610	34.52
1.19277	34.52
1.20943	34.52
1.22610	34.52
1.24277	34.52
1.25943	34.52
1.27610	34.52
1.29277	34.52
1.30943	34.52
1.32610	34.52
1.34277	34.52
1.35943	34.52
1.37610	34.52
1.39277	34.52
1.40943	34.52
1.42610	34.52
1.44277	34.52
1.45943	34.52
1.47610	34.52
1.49277	34.52
1.50943	34.52
1.52610	34.52
1.54277	34.52
1.55943	34.52
1.57610	34.52
1.59277	34.52
1.60943	34.52
1.62610	34.52
1.64277	34.52
1.65943	34.52
1.67610	34.52
1.69277	34.52
1.70943	34.52
1.72610	34.52
1.74277	34.52
1.75943	34.52
1.77610	34.52
1.79277	34.52
1.80943	34.52
1.82610	34.52
1.84277	34.52
1.85943	34.52
1.87610	34.52
1.89277	34.52
1.90943	34.52
1.92610	34.52
1.94277	34.52
1.95943	34.52
1.97610	34.52
1.99277	34.52
2.00943	34.52
2.02610	34.52
2.04277	34.52
2.05943	34.52
2.07610	34.52
2.09277	34.52
2.10943	34.52
2.12610	34.52
2.14277	34.52
2.15943	34.52
2.17610	34.52
2.19277	34.52
2.20943	34.52
2.22610	34.52
2.24277	34.52
2.25943	34.52
2.27610	34.52
2.29277	34.52
2.30943	34.52
2.32610	34.52
2.34277	34.52
2.35943	34.52
2.37610	34.52
2.39277	34.52
2.40943	34.52
2.42610	34.52
2.44277	34.52
2.45943	34.52
2.47610	34.52
2.49277	34.52
2.50943	34.51
2.52610	34.52
2.54277	34.52
2.55943	34.52
2.57610	34.52
2.59277	34.52
2.60943	34.52
2.62610	34.52
2.64277	34.52
2.65943	34.52
2.67610	34.52
2.69277	34.52
2.70943	34.52
2.72610	34.52
2.74277	34.52
2.75943	34.52
2.77610	34.52
2.79277	34.52
2.80943	34.52
2.82610	34.52
2.84277	34.52
2.85943	34.52
2.87610	34.52
2.89277	34.52
2.90943	34.52
2.92610	34.52
2.94277	34.52
2.95943	34.52
2.97610	34.52
2.99277	34.52
3.00943	34.52
3.02610	34.52
3.04277	34.52
3.05943	34.52
3.07610	34.52
3.09277	34.52
3.10943	34.52
3.12610	34.52
3.14277	34.52
3.15943	34.52
3.17610	34.52
3.19277	34.52
3.20943	34.52
3.22610	34.52
3.24277	34.52
3.25943	34.52
3.27610	34.50
3.29277	34.52
3.30943	34.52
3.32610	34.52
3.34277	34.52
3.35943	34.53
3.37610	34.51
3.39277	34.51
3.40943	34.52
3.42610	34.52
3.44277	34.50
3.45943	34.52
3.47610	34.52
3.49277	34.52
3.50943	34.51
3.52610	34.53
3.54277	34.52
3.55943	34.52
3.57610	34.52
3.59277	34.52
3.60943	34.52
3.62610	34.52
3.64277	34.51
3.65943	34.52
3.67610	34.51
3.69277	34.51
3.70943	34.52
3.72610	34.53
3.74277	34.50
3.75943	34.51
3.77610	34.52
3.79277	34.52
3.80943	34.51
3.82610	34.52
3.84277	34.51
3.85943	34.50
3.87610	34.52
3.89277	34.51
3.90943	34.52
3.92610	34.52
3.94277	34.52
3.95943	34.52
3.97610	34.52
3.99277	34.52

[Status Trace (Column Flow)]
Interval(msec)	1000
# of Points	240
Start Time(min)	0.009
End Time(min)	3.993
Intensity Units	
Intensity Multiplier	1
R.Time (min)	Intensity
0.00943	5.56
0.02610	5.23
0.04277	5.46
0.05943	5.71
0.07610	5.71
0.09277	5.56
0.10943	5.55
0.12610	5.56
0.14277	5.56
0.15943	5.56
0.17610	5.56
0.19277	5.56
0.20943	5.56
0.22610	5.56
0.24277	5.56
0.25943	5.56
0.27610	5.56
0.29277	5.56
0.30943	5.56
0.32610	5.56
0.34277	5.56
0.35943	5.56
0.37610	5.56
0.39277	5.56
0.40943	5.56
0.42610	5.56
0.44277	5.56
0.45943	5.56
0.47610	5.56
0.49277	5.56
0.50943	5.56
0.52610	5.56
0.54277	5.56
0.55943	5.56
0.57610	5.56
0.59277	5.56
0.60943	5.56
0.62610	5.56
0.64277	5.56
0.65943	5.56
0.67610	5.56
0.69277	5.56
0.70943	5.56
0.72610	5.56
0.74277	5.56
0.75943	5.56
0.77610	5.56
0.79277	5.56
0.80943	5.56
0.82610	5.56
0.84277	5.56
0.85943	5.56
0.87610	5.56
0.89277	5.56
0.90943	5.56
0.92610	5.56
0.94277	5.56
0.95943	5.56
0.97610	5.56
0.99277	5.55
1.00943	5.55
1.02610	5.55
1.04277	5.55
1.05943	5.56
1.07610	5.55
1.09277	5.56
1.10943	5.56
1.12610	5.56
1.14277	5.56
1.15943	5.56
1.17610	5.56
1.19277	5.56
1.20943	5.56
1.22610	5.56
1.24277	5.56
1.25943	5.56
1.27610	5.56
1.29277	5.56
1.30943	5.56
1.32610	5.56
1.34277	5.56
1.35943	5.56
1.37610	5.56
1.39277	5.55
1.40943	5.55
1.42610	5.55
1.44277	5.55
1.45943	5.55
1.47610	5.55
1.49277	5.55
1.50943	5.55
1.52610	5.55
1.54277	5.55
1.55943	5.55
1.57610	5.56
1.59277	5.56
1.60943	5.55
1.62610	5.55
1.64277	5.54
1.65943	5.54
1.67610	5.53
1.69277	5.51
1.70943	5.50
1.72610	5.49
1.74277	5.48
1.75943	5.47
1.77610	5.46
1.79277	5.45
1.80943	5.44
1.82610	5.43
1.84277	5.42
1.85943	5.41
1.87610	5.40
1.89277	5.39
1.90943	5.38
1.92610	5.37
1.94277	5.36
1.95943	5.35
1.97610	5.34
1.99277	5.33
2.00943	5.32
2.02610	5.31
2.04277	5.30
2.05943	5.29
2.07610	5.28
2.09277	5.27
2.10943	5.26
2.12610	5.25
2.14277	5.24
2.15943	5.24
2.17610	5.23
2.19277	5.22
2.20943	5.21
2.22610	5.20
2.24277	5.19
2.25943	5.18
2.27610	5.17
2.29277	5.16
2.30943	5.15
2.32610	5.14
2.34277	5.13
2.35943	5.12
2.37610	5.12
2.39277	5.11
2.40943	5.11
2.42610	5.12
2.44277	5.12
2.45943	5.12
2.47610	5.12
2.49277	5.12
2.50943	5.11
2.52610	5.11
2.54277	5.11
2.55943	5.11
2.57610	5.11
2.59277	5.11
2.60943	5.11
2.62610	5.11
2.64277	5.11
2.65943	5.11
2.67610	5.11
2.69277	5.11
2.70943	5.11
2.72610	5.11
2.74277	5.11
2.75943	5.11
2.77610	5.11
2.79277	5.11
2.80943	5.11
2.82610	5.11
2.84277	5.11
2.85943	5.11
2.87610	5.11
2.89277	5.11
2.90943	5.11
2.92610	5.11
2.94277	5.11
2.95943	5.11
2.97610	5.11
2.99277	5.11
3.00943	5.11
3.02610	5.11
3.04277	5.11
3.05943	5.11
3.07610	5.11
3.09277	5.11
3.10943	5.11
3.12610	5.11
3.14277	5.11
3.15943	5.11
3.17610	5.11
3.19277	5.11
3.20943	5.11
3.22610	5.11
3.24277	5.11
3.25943	5.11
3.27610	5.11
3.29277	5.11
3.30943	5.11
3.32610	5.11
3.34277	5.11
3.35943	5.11
3.37610	5.11
3.39277	5.11
3.40943	5.11
3.42610	5.11
3.44277	5.11
3.45943	5.11
3.47610	5.11
3.49277	5.11
3.50943	5.11
3.52610	5.11
3.54277	5.11
3.55943	5.11
3.57610	5.11
3.59277	5.11
3.60943	5.11
3.62610	5.11
3.64277	5.11
3.65943	5.11
3.67610	5.11
3.69277	5.11
3.70943	5.11
3.72610	5.11
3.74277	5.11
3.75943	5.11
3.77610	5.11
3.79277	5.11
3.80943	5.11
3.82610	5.11
3.84277	5.11
3.85943	5.11
3.87610	5.11
3.89277	5.11
3.90943	5.11
3.92610	5.11
3.94277	5.11
3.95943	5.11
3.97610	5.11
3.99277	5.11

[Status Trace (Linear Velocity)]
Interval(msec)	1000
# of Points	240
Start Time(min)	0.009
End Time(min)	3.993
Intensity Units	
Intensity Multiplier	1
R.Time (min)	Intensity
0.00943	39.03
0.02610	37.17
0.04277	38.50
0.05943	39.91
0.07610	39.88
0.09277	39.06
0.10943	39.01
0.12610	39.03
0.14277	39.03
0.15943	39.03
0.17610	39.03
0.19277	39.03
0.20943	39.03
0.22610	39.03
0.24277	39.03
0.25943	39.03
0.27610	39.03
0.29277	39.03
0.30943	39.03
0.32610	39.03
0.34277	39.03
0.35943	39.03
0.37610	39.03
0.39277	39.03
0.40943	39.03
0.42610	39.03
0.44277	39.03
0.45943	39.03
0.47610	39.03
0.49277	39.03
0.50943	39.03
0.52610	39.03
0.54277	39.03
0.55943	39.03
0.57610	39.03
0.59277	39.02
0.60943	39.02
0.62610	39.02
0.64277	39.02
0.65943	39.02
0.67610	39.02
0.69277	39.03
0.70943	39.03
0.72610	39.03
0.74277	39.03
0.75943	39.03
0.77610	39.03
0.79277	39.03
0.80943	39.02
0.82610	39.02
0.84277	39.03
0.85943	39.03
0.87610	39.03
0.89277	39.03
0.90943	39.03
0.92610	39.03
0.94277	39.02
0.95943	39.02
0.97610	39.02
0.99277	39.02
1.00943	39.02
1.02610	39.02
1.04277	39.02
1.05943	39.02
1.07610	39.02
1.09277	39.02
1.10943	39.03
1.12610	39.03
1.14277	39.03
1.15943	39.03
1.17610	39.03
1.19277	39.03
1.20943	39.03
1.22610	39.03
1.24277	39.03
1.25943	39.03
1.27610	39.03
1.29277	39.03
1.30943	39.03
1.32610	39.03
1.34277	39.03
1.35943	39.03
1.37610	39.02
1.39277	39.02
1.40943	39.02
1.42610	39.02
1.44277	39.02
1.45943	39.02
1.47610	39.02
1.49277	39.02
1.50943	39.02
1.52610	39.02
1.54277	39.02
1.55943	39.02
1.57610	39.02
1.59277	39.02
1.60943	39.02
1.62610	39.01
1.64277	38.99
1.65943	38.97
1.67610	38.94
1.69277	38.90
1.70943	38.86
1.72610	38.83
1.74277	38.80
1.75943	38.77
1.77610	38.74
1.79277	38.71
1.80943	38.67
1.82610	38.64
1.84277	38.61
1.85943	38.58
1.87610	38.55
1.89277	38.52
1.90943	38.49
1.92610	38.46
1.94277	38.43
1.95943	38.40
1.97610	38.36
1.99277	38.33
2.00943	38.31
2.02610	38.27
2.04277	38.24
2.05943	38.21
2.07610	38.18
2.09277	38.15
2.10943	38.13
2.12610	38.10
2.14277	38.07
2.15943	38.04
2.17610	38.01
2.19277	37.98
2.20943	37.95
2.22610	37.92
2.24277	37.89
2.25943	37.86
2.27610	37.83
2.29277	37.80
2.30943	37.77
2.32610	37.74
2.34277	37.71
2.35943	37.69
2.37610	37.67
2.39277	37.66
2.40943	37.66
2.42610	37.66
2.44277	37.66
2.45943	37.66
2.47610	37.66
2.49277	37.66
2.50943	37.66
2.52610	37.65
2.54277	37.66
2.55943	37.66
2.57610	37.65
2.59277	37.65
2.60943	37.66
2.62610	37.65
2.64277	37.65
2.65943	37.65
2.67610	37.65
2.69277	37.65
2.70943	37.65
2.72610	37.65
2.74277	37.65
2.75943	37.65
2.77610	37.65
2.79277	37.65
2.80943	37.65
2.82610	37.65
2.84277	37.65
2.85943	37.65
2.87610	37.65
2.89277	37.65
2.90943	37.65
2.92610	37.64
2.94277	37.64
2.95943	37.64
2.97610	37.64
2.99277	37.64
3.00943	37.64
3.02610	37.64
3.04277	37.64
3.05943	37.64
3.07610	37.64
3.09277	37.64
3.10943	37.64
3.12610	37.64
3.14277	37.64
3.15943	37.63
3.17610	37.63
3.19277	37.63
3.20943	37.63
3.22610	37.63
3.24277	37.63
3.25943	37.63
3.27610	37.63
3.29277	37.63
3.30943	37.63
3.32610	37.63
3.34277	37.63
3.35943	37.64
3.37610	37.64
3.39277	37.64
3.40943	37.64
3.42610	37.64
3.44277	37.64
3.45943	37.64
3.47610	37.64
3.49277	37.64
3.50943	37.64
3.52610	37.64
3.54277	37.64
3.55943	37.64
3.57610	37.64
3.59277	37.64
3.60943	37.63
3.62610	37.63
3.64277	37.63
3.65943	37.63
3.67610	37.63
3.69277	37.63
3.70943	37.63
3.72610	37.63
3.74277	37.63
3.75943	37.63
3.77610	37.63
3.79277	37.63
3.80943	37.63
3.82610	37.63
3.84277	37.63
3.85943	37.63
3.87610	37.63
3.89277	37.63
3.90943	37.63
3.92610	37.63
3.94277	37.63
3.95943	37.63
3.97610	37.63
3.99277	37.63

