[Header]
Application Name	LabSolutions
Version	5.110
Data File Name	C:\Users\User\Desktop\GC Analyses\Jack\UIC Prairie Sampling\9.2.22\220902_025.gcd
Output Date	10/28/2022
Output Time	1:23:53 PM

[File Information]
Type	Data File
Generated	10/25/2022 1:56:03 PM
Generated by	System Administrator
Modified	10/25/2022 2:00:17 PM
Modified by	System Administrator

[Sample Information]
Operator Name	System Administrator
Acquired	10/25/2022 1:56:16 PM
Sample Type	1:Standard
Level	1
Sample Name	220902_UICPrairie
Sample ID	220902_UICPrairie
ISTD Amount1	1
ISTD Amount2	1
ISTD Amount3	1
ISTD Amount4	1
ISTD Amount5	1
ISTD Amount6	1
ISTD Amount7	1
ISTD Amount8	1
ISTD Amount9	1
ISTD Amount10	1
ISTD Amount11	1
ISTD Amount12	1
ISTD Amount13	1
ISTD Amount14	1
ISTD Amount15	1
ISTD Amount16	1
ISTD Amount17	1
ISTD Amount18	1
ISTD Amount19	1
ISTD Amount20	1
ISTD Amount21	1
ISTD Amount22	1
ISTD Amount23	1
ISTD Amount24	1
ISTD Amount25	1
ISTD Amount26	1
ISTD Amount27	1
ISTD Amount28	1
ISTD Amount29	1
ISTD Amount30	1
ISTD Amount31	1
ISTD Amount32	1
Sample Amount	1
Dilution Factor	1
Vial#	1
Injection Volume	1
Injection Count	1
Bar Code	

[Original Files]
Data File	C:\Users\User\Desktop\GC Analyses\Jack\UIC Prairie Sampling\9.2.22\220902_025.gcd
Method File	C:\LabSolutions\Data\GHG_4min_2022\ghg3_togas_w_acet_4 min_new_int.gcm
Batch File	
Report Format File	c:\LabSolutions\System\DEFAULT.lsr

[File Description]


[Configuration]
Instrument Name	C0B7VH3-Instrument1
Instrument #	1
Line #	1
# of Detectors	3
Detector ID	DET#1	DET#2	DET#3
Detector Name	FID	PTCD	ECD
# of Channels	1	1	1

[Peak Table(Ch1)]
# of Peaks	3
Peak#	R.Time	I.Time	F.Time	Area	Height	A/H	Conc.	Mark	ID#	Name	k'	Plate #	Plate Ht.	Tailing	Resolution	Sep.Factor	Area Ratio	Height Ratio	Conc. %	Norm Conc.
1	1.476	1.432	1.538	11815	5254	2.249	100.000	   	1	CO	0.000	8423	17.809	1.276	0.000	0.000	0	0	16.667	16.667
2	1.571	1.538	1.633	4687	2316	2.024	100.000	 V 	2	CH4	0.065	11154	13.448	1.122	1.540	0.000	0	0	16.667	16.667
3	2.000	1.945	2.348	1340560	657063	2.040	400.000	   	3	CO2	0.355	18149	8.265	1.167	7.217	5.500	0	0	66.667	66.667

[Peak Table(Ch2)]
# of Peaks	0

[Peak Table(Ch3)]
# of Peaks	3
Peak#	R.Time	I.Time	F.Time	Area	Height	A/H	Conc.	Mark	ID#	Name	k'	Plate #	Plate Ht.	Tailing	Resolution	Sep.Factor	Area Ratio	Height Ratio	Conc. %	Norm Conc.
1	2.557	2.440	2.660	8106	842	9.629	0.000	   			0.000	1671	89.773	0.000	0.000	0.000	0	0	0.000	0.000
2	2.730	2.660	2.825	4934	527	9.362	0.173	 V 	1	N2O	0.067	153	982.937	0.000	0.304	0.000	0	0	17.314	17.314
3	2.884	2.825	3.228	23564	5305	4.442	0.827	 V 	1	N2O	0.128	12102	12.394	0.000	0.312	1.894	0	0	82.686	82.686

[Compound Results(Ch1)]
# of IDs	6
ID#	Name	R.Time	Area	Height	Conc.	Curve	3rd	2nd	1st	Constant	Area Ratio	Height Ratio	Conc. %	Norm Conc.
1	CO	1.476	11815	5254	100.000	Linear	0.000000e+00	0.000000e+00	1.181533e+002	0.000000e+00	0	0	16.667	16.667
2	CH4	1.571	4687	2316	100.000	Linear	0.000000e+00	0.000000e+00	4.686593e+001	0.000000e+00	0	0	16.667	16.667
3	CO2	2.000	1340560	657063	400.000	Linear	0.000000e+00	0.000000e+00	3.351399e+003	0.000000e+00	0	0	66.667	66.667
4	Ethylene	0.000	0	0	0.000	Linear	0.000000e+00	0.000000e+00	0.000000e+00	0.000000e+00	0	0	0.000	0.000
5	Acetylene	0.000	0	0	0.000	Linear	0.000000e+00	0.000000e+00	0.000000e+00	0.000000e+00	0	0	0.000	0.000
6	Ethane	0.000	0	0	0.000	Linear	0.000000e+00	0.000000e+00	0.000000e+00	0.000000e+00	0	0	0.000	0.000

[Compound Results(Ch2)]
# of IDs	5
ID#	Name	R.Time	Area	Height	Conc.	Curve	3rd	2nd	1st	Constant	Area Ratio	Height Ratio	Conc. %	Norm Conc.
1	Hydrogen	0.000	0	0	0.000	Linear	0.000000e+00	0.000000e+00	0.000000e+00	0.000000e+00	0	0	0.000	0.000
2	Oxygen	0.000	0	0	0.000	Linear	0.000000e+00	0.000000e+00	0.000000e+00	0.000000e+00	0	0	0.000	0.000
3	Nitrogen	0.000	0	0	0.000	Linear	0.000000e+00	0.000000e+00	0.000000e+00	0.000000e+00	0	0	0.000	0.000
4	Methane	0.000	0	0	0.000	Linear	0.000000e+00	0.000000e+00	0.000000e+00	0.000000e+00	0	0	0.000	0.000
5	Carbon Monoxide	0.000	0	0	0.000	Linear	0.000000e+00	0.000000e+00	0.000000e+00	0.000000e+00	0	0	0.000	0.000

[Compound Results(Ch3)]
# of IDs	2
ID#	Name	R.Time	Area	Height	Conc.	Curve	3rd	2nd	1st	Constant	Area Ratio	Height Ratio	Conc. %	Norm Conc.
1	N2O	2.884	28498	5832	1.000	Linear	0.000000e+00	0.000000e+00	2.849814e+004	0.000000e+00	0	0	100.000	100.000
2	SF6	0.000	0	0	0.000	Linear	0.000000e+00	0.000000e+00	0.000000e+00	0.000000e+00	0	0	0.000	0.000

[Group Results(Ch1)]
# of Groups	0

[Group Results(Ch2)]
# of Groups	0

[Group Results(Ch3)]
# of Groups	0

[Chromatogram (Ch1)]
Interval(msec)	220
# of Points	1091
Start Time(min)	0.002
End Time(min)	3.998
R.Time (min)	Intensity
0.00167	-31
0.00533	-32
0.00900	-27
0.01267	-20
0.01633	-15
0.02000	-10
0.02367	-4
0.02733	2
0.03100	3
0.03467	-2
0.03833	-14
0.04200	-28
0.04567	-39
0.04933	-43
0.05300	-43
0.05667	-40
0.06033	-35
0.06400	-31
0.06767	-29
0.07133	-30
0.07500	-34
0.07867	-37
0.08233	-39
0.08600	-40
0.08967	-42
0.09333	-45
0.09700	-46
0.10067	-45
0.10433	-41
0.10800	-33
0.11167	-23
0.11533	-15
0.11900	-11
0.12267	-11
0.12633	-12
0.13000	-14
0.13367	-18
0.13733	-21
0.14100	-22
0.14467	-24
0.14833	-30
0.15200	-39
0.15567	-47
0.15933	-54
0.16300	-55
0.16667	-52
0.17033	-44
0.17400	-35
0.17767	-29
0.18133	-27
0.18500	-30
0.18867	-32
0.19233	-28
0.19600	-22
0.19967	-20
0.20333	-21
0.20700	-23
0.21067	-27
0.21433	-32
0.21800	-35
0.22167	-36
0.22533	-35
0.22900	-33
0.23267	-34
0.23633	-38
0.24000	-42
0.24367	-43
0.24733	-38
0.25100	-31
0.25467	-29
0.25833	-31
0.26200	-35
0.26567	-39
0.26933	-43
0.27300	-45
0.27667	-45
0.28033	-45
0.28400	-48
0.28767	-50
0.29133	-52
0.29500	-56
0.29867	-60
0.30233	-66
0.30600	-72
0.30967	-75
0.31333	-78
0.31700	-76
0.32067	-69
0.32433	-62
0.32800	-53
0.33167	-43
0.33533	-37
0.33900	-39
0.34267	-43
0.34633	-45
0.35000	-44
0.35367	-42
0.35733	-40
0.36100	-42
0.36467	-50
0.36833	-56
0.37200	-61
0.37567	-66
0.37933	-71
0.38300	-73
0.38667	-72
0.39033	-70
0.39400	-69
0.39767	-68
0.40133	-66
0.40500	-66
0.40867	-64
0.41233	-62
0.41600	-61
0.41967	-59
0.42333	-57
0.42700	-55
0.43067	-54
0.43433	-55
0.43800	-59
0.44167	-61
0.44533	-61
0.44900	-59
0.45267	-59
0.45633	-63
0.46000	-68
0.46367	-71
0.46733	-70
0.47100	-66
0.47467	-63
0.47833	-61
0.48200	-62
0.48567	-63
0.48933	-63
0.49300	-62
0.49667	-61
0.50033	-62
0.50400	-60
0.50767	-55
0.51133	-50
0.51500	-51
0.51867	-57
0.52233	-66
0.52600	-74
0.52967	-78
0.53333	-78
0.53700	-75
0.54067	-69
0.54433	-63
0.54800	-59
0.55167	-58
0.55533	-58
0.55900	-58
0.56267	-62
0.56633	-68
0.57000	-73
0.57367	-76
0.57733	-79
0.58100	-81
0.58467	-78
0.58833	-71
0.59200	-63
0.59567	-59
0.59933	-58
0.60300	-60
0.60667	-64
0.61033	-70
0.61400	-77
0.61767	-82
0.62133	-84
0.62500	-86
0.62867	-86
0.63233	-83
0.63600	-76
0.63967	-71
0.64333	-66
0.64700	-62
0.65067	-60
0.65433	-64
0.65800	-74
0.66167	-87
0.66533	-96
0.66900	-98
0.67267	-96
0.67633	-91
0.68000	-84
0.68367	-81
0.68733	-85
0.69100	-90
0.69467	-95
0.69833	-95
0.70200	-92
0.70567	-90
0.70933	-89
0.71300	-87
0.71667	-85
0.72033	-84
0.72400	-83
0.72767	-81
0.73133	-81
0.73500	-81
0.73867	-80
0.74233	-79
0.74600	-78
0.74967	-79
0.75333	-81
0.75700	-83
0.76067	-84
0.76433	-89
0.76800	-96
0.77167	-100
0.77533	-102
0.77900	-103
0.78267	-102
0.78633	-100
0.79000	-95
0.79367	-95
0.79733	-100
0.80100	-109
0.80467	-118
0.80833	-122
0.81200	-123
0.81567	-120
0.81933	-113
0.82300	-103
0.82667	-94
0.83033	-87
0.83400	-83
0.83767	-80
0.84133	-78
0.84500	-80
0.84867	-85
0.85233	-92
0.85600	-96
0.85967	-97
0.86333	-97
0.86700	-99
0.87067	-100
0.87433	-95
0.87800	-84
0.88167	-75
0.88533	-73
0.88900	-79
0.89267	-91
0.89633	-104
0.90000	-114
0.90367	-121
0.90733	-127
0.91100	-131
0.91467	-130
0.91833	-128
0.92200	-124
0.92567	-116
0.92933	-110
0.93300	-106
0.93667	-104
0.94033	-100
0.94400	-98
0.94767	-101
0.95133	-106
0.95500	-111
0.95867	-112
0.96233	-109
0.96600	-104
0.96967	-101
0.97333	-100
0.97700	-102
0.98067	-102
0.98433	-104
0.98800	-105
0.99167	-104
0.99533	-103
0.99900	-103
1.00267	-105
1.00633	-110
1.01000	-113
1.01367	-115
1.01733	-117
1.02100	-118
1.02467	-117
1.02833	-112
1.03200	-106
1.03567	-102
1.03933	-100
1.04300	-98
1.04667	-96
1.05033	-94
1.05400	-92
1.05767	-92
1.06133	-95
1.06500	-101
1.06867	-105
1.07233	-110
1.07600	-114
1.07967	-119
1.08333	-124
1.08700	-127
1.09067	-124
1.09433	-117
1.09800	-109
1.10167	-105
1.10533	-107
1.10900	-113
1.11267	-117
1.11633	-120
1.12000	-121
1.12367	-120
1.12733	-120
1.13100	-122
1.13467	-120
1.13833	-116
1.14200	-110
1.14567	-105
1.14933	-103
1.15300	-102
1.15667	-103
1.16033	-102
1.16400	-101
1.16767	-102
1.17133	-105
1.17500	-109
1.17867	-115
1.18233	-122
1.18600	-126
1.18967	-127
1.19333	-128
1.19700	-130
1.20067	-129
1.20433	-126
1.20800	-125
1.21167	-122
1.21533	-116
1.21900	-109
1.22267	-105
1.22633	-102
1.23000	-103
1.23367	-106
1.23733	-110
1.24100	-114
1.24467	-115
1.24833	-113
1.25200	-112
1.25567	-116
1.25933	-124
1.26300	-130
1.26667	-133
1.27033	-137
1.27400	-142
1.27767	-144
1.28133	-141
1.28500	-135
1.28867	-131
1.29233	-129
1.29600	-130
1.29967	-134
1.30333	-136
1.30700	-137
1.31067	-137
1.31433	-134
1.31800	-128
1.32167	-123
1.32533	-122
1.32900	-122
1.33267	-125
1.33633	-128
1.34000	-125
1.34367	-119
1.34733	-113
1.35100	-112
1.35467	-115
1.35833	-120
1.36200	-123
1.36567	-127
1.36933	-131
1.37300	-136
1.37667	-143
1.38033	-151
1.38400	-156
1.38767	-155
1.39133	-153
1.39500	-151
1.39867	-148
1.40233	-143
1.40600	-140
1.40967	-139
1.41333	-140
1.41700	-140
1.42067	-140
1.42433	-139
1.42800	-138
1.43167	-133
1.43533	-127
1.43900	-111
1.44267	-37
1.44633	168
1.45000	541
1.45367	1126
1.45733	1942
1.46100	2876
1.46467	3750
1.46833	4448
1.47200	4915
1.47567	5115
1.47933	5021
1.48300	4628
1.48667	3996
1.49033	3244
1.49400	2498
1.49767	1848
1.50133	1327
1.50500	932
1.50867	642
1.51233	431
1.51600	280
1.51967	173
1.52333	94
1.52700	34
1.53067	-8
1.53433	-37
1.53800	-45
1.54167	-8
1.54533	123
1.54900	396
1.55267	794
1.55633	1234
1.56000	1631
1.56367	1937
1.56733	2126
1.57100	2162
1.57467	2022
1.57833	1728
1.58200	1357
1.58567	992
1.58933	680
1.59300	437
1.59667	260
1.60033	137
1.60400	53
1.60767	-7
1.61133	-53
1.61500	-90
1.61867	-116
1.62233	-133
1.62600	-144
1.62967	-154
1.63333	-162
1.63700	-167
1.64067	-167
1.64433	-163
1.64800	-159
1.65167	-155
1.65533	-152
1.65900	-148
1.66267	-148
1.66633	-151
1.67000	-156
1.67367	-160
1.67733	-162
1.68100	-158
1.68467	-150
1.68833	-143
1.69200	-141
1.69567	-141
1.69933	-142
1.70300	-142
1.70667	-145
1.71033	-149
1.71400	-153
1.71767	-156
1.72133	-155
1.72500	-151
1.72867	-148
1.73233	-147
1.73600	-151
1.73967	-158
1.74333	-165
1.74700	-171
1.75067	-174
1.75433	-174
1.75800	-169
1.76167	-162
1.76533	-156
1.76900	-153
1.77267	-152
1.77633	-153
1.78000	-153
1.78367	-151
1.78733	-148
1.79100	-148
1.79467	-148
1.79833	-148
1.80200	-150
1.80567	-152
1.80933	-151
1.81300	-148
1.81667	-141
1.82033	-135
1.82400	-134
1.82767	-136
1.83133	-139
1.83500	-139
1.83867	-139
1.84233	-139
1.84600	-138
1.84967	-139
1.85333	-140
1.85700	-141
1.86067	-139
1.86433	-133
1.86800	-125
1.87167	-116
1.87533	-112
1.87900	-113
1.88267	-118
1.88633	-121
1.89000	-120
1.89367	-119
1.89733	-119
1.90100	-122
1.90467	-125
1.90833	-128
1.91200	-129
1.91567	-131
1.91933	-133
1.92300	-136
1.92667	-140
1.93033	-143
1.93400	-143
1.93767	-143
1.94133	-142
1.94500	-137
1.94867	-126
1.95233	-108
1.95600	-45
1.95967	296
1.96333	1987
1.96700	8509
1.97067	27667
1.97433	71174
1.97800	148612
1.98167	258348
1.98533	384792
1.98900	505424
1.99267	599587
1.99633	652594
2.00000	656959
2.00367	614075
2.00733	534832
2.01100	436465
2.01467	336556
2.01833	247820
2.02200	176250
2.02567	122403
2.02933	83835
2.03300	57125
2.03667	39032
2.04033	26931
2.04400	18874
2.04767	13499
2.05133	9888
2.05500	7436
2.05867	5749
2.06233	4563
2.06600	3706
2.06967	3074
2.07333	2600
2.07700	2236
2.08067	1947
2.08433	1712
2.08800	1519
2.09167	1357
2.09533	1221
2.09900	1107
2.10267	1006
2.10633	917
2.11000	843
2.11367	782
2.11733	731
2.12100	686
2.12467	648
2.12833	616
2.13200	591
2.13567	566
2.13933	540
2.14300	511
2.14667	483
2.15033	453
2.15400	422
2.15767	392
2.16133	365
2.16500	344
2.16867	330
2.17233	319
2.17600	309
2.17967	296
2.18333	284
2.18700	275
2.19067	268
2.19433	260
2.19800	251
2.20167	242
2.20533	233
2.20900	227
2.21267	222
2.21633	217
2.22000	211
2.22367	208
2.22733	205
2.23100	199
2.23467	194
2.23833	192
2.24200	190
2.24567	189
2.24933	189
2.25300	185
2.25667	180
2.26033	175
2.26400	171
2.26767	167
2.27133	164
2.27500	162
2.27867	161
2.28233	161
2.28600	162
2.28967	158
2.29333	151
2.29700	144
2.30067	138
2.30433	135
2.30800	134
2.31167	133
2.31533	135
2.31900	138
2.32267	134
2.32633	125
2.33000	119
2.33367	116
2.33733	115
2.34100	113
2.34467	110
2.34833	104
2.35200	97
2.35567	92
2.35933	89
2.36300	89
2.36667	89
2.37033	91
2.37400	94
2.37767	100
2.38133	106
2.38500	110
2.38867	111
2.39233	109
2.39600	104
2.39967	103
2.40333	104
2.40700	106
2.41067	109
2.41433	110
2.41800	112
2.42167	113
2.42533	111
2.42900	109
2.43267	107
2.43633	106
2.44000	105
2.44367	104
2.44733	100
2.45100	96
2.45467	93
2.45833	95
2.46200	102
2.46567	110
2.46933	116
2.47300	117
2.47667	113
2.48033	106
2.48400	103
2.48767	103
2.49133	102
2.49500	100
2.49867	99
2.50233	97
2.50600	94
2.50967	91
2.51333	91
2.51700	90
2.52067	92
2.52433	94
2.52800	96
2.53167	97
2.53533	99
2.53900	102
2.54267	106
2.54633	109
2.55000	112
2.55367	115
2.55733	120
2.56100	124
2.56467	123
2.56833	117
2.57200	109
2.57567	100
2.57933	92
2.58300	86
2.58667	83
2.59033	86
2.59400	89
2.59767	94
2.60133	99
2.60500	102
2.60867	99
2.61233	90
2.61600	83
2.61967	79
2.62333	78
2.62700	74
2.63067	67
2.63433	64
2.63800	66
2.64167	69
2.64533	70
2.64900	70
2.65267	74
2.65633	79
2.66000	83
2.66367	83
2.66733	85
2.67100	91
2.67467	99
2.67833	100
2.68200	94
2.68567	85
2.68933	78
2.69300	74
2.69667	73
2.70033	73
2.70400	75
2.70767	76
2.71133	78
2.71500	76
2.71867	71
2.72233	69
2.72600	69
2.72967	71
2.73333	72
2.73700	72
2.74067	73
2.74433	74
2.74800	78
2.75167	81
2.75533	82
2.75900	81
2.76267	80
2.76633	83
2.77000	91
2.77367	97
2.77733	98
2.78100	97
2.78467	95
2.78833	91
2.79200	86
2.79567	81
2.79933	80
2.80300	79
2.80667	79
2.81033	80
2.81400	80
2.81767	76
2.82133	69
2.82500	60
2.82867	57
2.83233	59
2.83600	64
2.83967	73
2.84333	81
2.84700	83
2.85067	79
2.85433	75
2.85800	74
2.86167	76
2.86533	80
2.86900	83
2.87267	88
2.87633	91
2.88000	90
2.88367	87
2.88733	85
2.89100	87
2.89467	89
2.89833	87
2.90200	82
2.90567	77
2.90933	70
2.91300	65
2.91667	66
2.92033	70
2.92400	77
2.92767	84
2.93133	91
2.93500	97
2.93867	100
2.94233	98
2.94600	92
2.94967	87
2.95333	82
2.95700	79
2.96067	75
2.96433	68
2.96800	61
2.97167	58
2.97533	57
2.97900	59
2.98267	62
2.98633	63
2.99000	61
2.99367	58
2.99733	59
3.00100	63
3.00467	69
3.00833	73
3.01200	75
3.01567	71
3.01933	65
3.02300	60
3.02667	58
3.03033	55
3.03400	51
3.03767	50
3.04133	56
3.04500	64
3.04867	70
3.05233	71
3.05600	70
3.05967	69
3.06333	70
3.06700	70
3.07067	67
3.07433	62
3.07800	57
3.08167	55
3.08533	58
3.08900	64
3.09267	70
3.09633	75
3.10000	78
3.10367	78
3.10733	73
3.11100	68
3.11467	62
3.11833	55
3.12200	49
3.12567	48
3.12933	50
3.13300	52
3.13667	50
3.14033	46
3.14400	43
3.14767	41
3.15133	41
3.15500	40
3.15867	41
3.16233	47
3.16600	55
3.16967	61
3.17333	64
3.17700	66
3.18067	64
3.18433	57
3.18800	47
3.19167	38
3.19533	30
3.19900	28
3.20267	29
3.20633	31
3.21000	33
3.21367	34
3.21733	32
3.22100	30
3.22467	31
3.22833	34
3.23200	39
3.23567	45
3.23933	49
3.24300	52
3.24667	53
3.25033	53
3.25400	55
3.25767	57
3.26133	56
3.26500	53
3.26867	50
3.27233	45
3.27600	39
3.27967	34
3.28333	32
3.28700	32
3.29067	35
3.29433	40
3.29800	46
3.30167	48
3.30533	47
3.30900	45
3.31267	45
3.31633	49
3.32000	51
3.32367	52
3.32733	46
3.33100	34
3.33467	22
3.33833	11
3.34200	4
3.34567	4
3.34933	8
3.35300	14
3.35667	22
3.36033	29
3.36400	37
3.36767	41
3.37133	42
3.37500	40
3.37867	36
3.38233	33
3.38600	29
3.38967	25
3.39333	22
3.39700	23
3.40067	26
3.40433	33
3.40800	42
3.41167	46
3.41533	43
3.41900	34
3.42267	27
3.42633	23
3.43000	16
3.43367	11
3.43733	8
3.44100	6
3.44467	6
3.44833	8
3.45200	10
3.45567	11
3.45933	13
3.46300	16
3.46667	21
3.47033	26
3.47400	28
3.47767	25
3.48133	20
3.48500	15
3.48867	16
3.49233	21
3.49600	25
3.49967	28
3.50333	31
3.50700	34
3.51067	35
3.51433	35
3.51800	34
3.52167	33
3.52533	32
3.52900	30
3.53267	28
3.53633	29
3.54000	35
3.54367	41
3.54733	43
3.55100	39
3.55467	31
3.55833	21
3.56200	14
3.56567	8
3.56933	5
3.57300	4
3.57667	1
3.58033	-2
3.58400	-7
3.58767	-10
3.59133	-10
3.59500	-10
3.59867	-8
3.60233	-5
3.60600	0
3.60967	7
3.61333	11
3.61700	14
3.62067	19
3.62433	21
3.62800	19
3.63167	15
3.63533	12
3.63900	11
3.64267	13
3.64633	16
3.65000	16
3.65367	13
3.65733	10
3.66100	9
3.66467	9
3.66833	11
3.67200	13
3.67567	13
3.67933	8
3.68300	2
3.68667	-3
3.69033	-2
3.69400	1
3.69767	2
3.70133	2
3.70500	3
3.70867	5
3.71233	5
3.71600	4
3.71967	-1
3.72333	-6
3.72700	-6
3.73067	-6
3.73433	-9
3.73800	-13
3.74167	-13
3.74533	-8
3.74900	-1
3.75267	6
3.75633	8
3.76000	5
3.76367	2
3.76733	-0
3.77100	-3
3.77467	-5
3.77833	-5
3.78200	-4
3.78567	-0
3.78933	4
3.79300	3
3.79667	-1
3.80033	-4
3.80400	-7
3.80767	-7
3.81133	-6
3.81500	-1
3.81867	5
3.82233	15
3.82600	23
3.82967	26
3.83333	23
3.83700	20
3.84067	18
3.84433	13
3.84800	6
3.85167	-4
3.85533	-9
3.85900	-10
3.86267	-13
3.86633	-15
3.87000	-14
3.87367	-12
3.87733	-8
3.88100	-4
3.88467	1
3.88833	7
3.89200	9
3.89567	6
3.89933	1
3.90300	-5
3.90667	-11
3.91033	-13
3.91400	-15
3.91767	-17
3.92133	-19
3.92500	-17
3.92867	-13
3.93233	-10
3.93600	-7
3.93967	-3
3.94333	1
3.94700	3
3.95067	4
3.95433	4
3.95800	2
3.96167	-3
3.96533	-7
3.96900	-5
3.97267	1
3.97633	7
3.98000	8
3.98367	6
3.98733	3
3.99100	2
3.99467	-1
3.99833	-6

[Chromatogram (Ch2)]
Interval(msec)	220
# of Points	1091
Start Time(min)	0.002
End Time(min)	3.998
R.Time (min)	Intensity
0.00167	-0
0.00533	-0
0.00900	-0
0.01267	-1
0.01633	-1
0.02000	-1
0.02367	-2
0.02733	-2
0.03100	-3
0.03467	-3
0.03833	-3
0.04200	-3
0.04567	-3
0.04933	-3
0.05300	-2
0.05667	-2
0.06033	-2
0.06400	-2
0.06767	-2
0.07133	-2
0.07500	-2
0.07867	-2
0.08233	-1
0.08600	-1
0.08967	-1
0.09333	-1
0.09700	-1
0.10067	-1
0.10433	-1
0.10800	-1
0.11167	-1
0.11533	-1
0.11900	-1
0.12267	-1
0.12633	-1
0.13000	-0
0.13367	-0
0.13733	-0
0.14100	0
0.14467	0
0.14833	0
0.15200	0
0.15567	0
0.15933	-0
0.16300	-0
0.16667	-1
0.17033	-1
0.17400	-1
0.17767	-1
0.18133	-1
0.18500	-1
0.18867	-1
0.19233	-1
0.19600	-1
0.19967	-1
0.20333	-1
0.20700	-1
0.21067	-2
0.21433	-2
0.21800	-2
0.22167	-2
0.22533	-2
0.22900	-1
0.23267	-1
0.23633	-1
0.24000	-1
0.24367	-1
0.24733	-1
0.25100	-1
0.25467	-2
0.25833	-2
0.26200	-2
0.26567	-3
0.26933	-3
0.27300	-3
0.27667	-4
0.28033	-4
0.28400	-4
0.28767	-4
0.29133	-4
0.29500	-4
0.29867	-3
0.30233	-3
0.30600	-3
0.30967	-3
0.31333	-3
0.31700	-3
0.32067	-3
0.32433	-3
0.32800	-3
0.33167	-3
0.33533	-3
0.33900	-3
0.34267	-3
0.34633	-3
0.35000	-3
0.35367	-3
0.35733	-3
0.36100	-3
0.36467	-4
0.36833	-4
0.37200	-4
0.37567	-4
0.37933	-4
0.38300	-3
0.38667	-3
0.39033	-3
0.39400	-3
0.39767	-3
0.40133	-3
0.40500	-3
0.40867	-3
0.41233	-3
0.41600	-3
0.41967	-3
0.42333	-3
0.42700	-4
0.43067	-4
0.43433	-4
0.43800	-5
0.44167	-5
0.44533	-5
0.44900	-6
0.45267	-6
0.45633	-6
0.46000	-6
0.46367	-6
0.46733	-6
0.47100	-6
0.47467	-5
0.47833	-5
0.48200	-5
0.48567	-4
0.48933	-4
0.49300	-4
0.49667	-3
0.50033	-3
0.50400	-2
0.50767	-2
0.51133	-1
0.51500	-1
0.51867	-1
0.52233	-1
0.52600	-1
0.52967	-1
0.53333	-1
0.53700	-1
0.54067	-1
0.54433	-1
0.54800	-1
0.55167	-1
0.55533	-1
0.55900	-2
0.56267	-2
0.56633	-2
0.57000	-2
0.57367	-2
0.57733	-2
0.58100	-3
0.58467	-3
0.58833	-3
0.59200	-3
0.59567	-3
0.59933	-3
0.60300	-3
0.60667	-2
0.61033	-2
0.61400	-2
0.61767	-3
0.62133	-3
0.62500	-3
0.62867	-3
0.63233	-3
0.63600	-3
0.63967	-3
0.64333	-3
0.64700	-4
0.65067	-4
0.65433	-4
0.65800	-4
0.66167	-4
0.66533	-4
0.66900	-4
0.67267	-5
0.67633	-4
0.68000	-4
0.68367	-4
0.68733	-4
0.69100	-4
0.69467	-3
0.69833	-3
0.70200	-3
0.70567	-3
0.70933	-3
0.71300	-3
0.71667	-3
0.72033	-3
0.72400	-3
0.72767	-3
0.73133	-3
0.73500	-3
0.73867	-3
0.74233	-3
0.74600	-3
0.74967	-3
0.75333	-2
0.75700	-2
0.76067	-2
0.76433	-2
0.76800	-2
0.77167	-2
0.77533	-2
0.77900	-2
0.78267	-2
0.78633	-2
0.79000	-2
0.79367	-2
0.79733	-2
0.80100	-3
0.80467	-3
0.80833	-3
0.81200	-3
0.81567	-3
0.81933	-3
0.82300	-3
0.82667	-3
0.83033	-3
0.83400	-3
0.83767	-3
0.84133	-3
0.84500	-3
0.84867	-3
0.85233	-3
0.85600	-4
0.85967	-4
0.86333	-4
0.86700	-4
0.87067	-4
0.87433	-5
0.87800	-5
0.88167	-5
0.88533	-5
0.88900	-5
0.89267	-5
0.89633	-5
0.90000	-4
0.90367	-4
0.90733	-4
0.91100	-4
0.91467	-4
0.91833	-4
0.92200	-4
0.92567	-4
0.92933	-4
0.93300	-5
0.93667	-5
0.94033	-5
0.94400	-5
0.94767	-5
0.95133	-5
0.95500	-5
0.95867	-4
0.96233	-4
0.96600	-4
0.96967	-4
0.97333	-4
0.97700	-5
0.98067	-5
0.98433	-5
0.98800	-5
0.99167	-5
0.99533	-5
0.99900	-5
1.00267	-5
1.00633	-5
1.01000	-5
1.01367	-5
1.01733	-5
1.02100	-5
1.02467	-6
1.02833	-6
1.03200	-6
1.03567	-6
1.03933	-6
1.04300	-6
1.04667	-6
1.05033	-6
1.05400	-6
1.05767	-6
1.06133	-5
1.06500	-5
1.06867	-5
1.07233	-5
1.07600	-5
1.07967	-5
1.08333	-5
1.08700	-5
1.09067	-5
1.09433	-5
1.09800	-5
1.10167	-5
1.10533	-4
1.10900	-4
1.11267	-4
1.11633	-4
1.12000	-3
1.12367	-3
1.12733	-3
1.13100	-3
1.13467	-3
1.13833	-3
1.14200	-3
1.14567	-4
1.14933	-4
1.15300	-4
1.15667	-4
1.16033	-3
1.16400	-3
1.16767	-3
1.17133	-3
1.17500	-3
1.17867	-3
1.18233	-3
1.18600	-4
1.18967	-4
1.19333	-4
1.19700	-4
1.20067	-4
1.20433	-4
1.20800	-4
1.21167	-4
1.21533	-4
1.21900	-4
1.22267	-4
1.22633	-4
1.23000	-4
1.23367	-5
1.23733	-5
1.24100	-5
1.24467	-5
1.24833	-5
1.25200	-6
1.25567	-6
1.25933	-6
1.26300	-6
1.26667	-6
1.27033	-6
1.27400	-6
1.27767	-6
1.28133	-6
1.28500	-6
1.28867	-6
1.29233	-6
1.29600	-6
1.29967	-5
1.30333	-5
1.30700	-5
1.31067	-5
1.31433	-5
1.31800	-5
1.32167	-5
1.32533	-5
1.32900	-5
1.33267	-5
1.33633	-5
1.34000	-5
1.34367	-5
1.34733	-5
1.35100	-6
1.35467	-6
1.35833	-6
1.36200	-6
1.36567	-6
1.36933	-6
1.37300	-6
1.37667	-6
1.38033	-6
1.38400	-6
1.38767	-6
1.39133	-6
1.39500	-6
1.39867	-6
1.40233	-6
1.40600	-6
1.40967	-6
1.41333	-5
1.41700	-5
1.42067	-5
1.42433	-5
1.42800	-5
1.43167	-5
1.43533	-5
1.43900	-5
1.44267	-5
1.44633	-5
1.45000	-5
1.45367	-5
1.45733	-4
1.46100	-4
1.46467	-3
1.46833	-3
1.47200	-3
1.47567	-3
1.47933	-3
1.48300	-3
1.48667	-4
1.49033	-4
1.49400	-4
1.49767	-4
1.50133	-4
1.50500	-5
1.50867	-5
1.51233	-5
1.51600	-6
1.51967	-6
1.52333	-6
1.52700	-6
1.53067	-6
1.53433	-6
1.53800	-6
1.54167	-6
1.54533	-6
1.54900	-6
1.55267	-6
1.55633	-6
1.56000	-6
1.56367	-6
1.56733	-6
1.57100	-6
1.57467	-6
1.57833	-6
1.58200	-6
1.58567	-6
1.58933	-6
1.59300	-7
1.59667	-7
1.60033	-8
1.60400	-9
1.60767	-10
1.61133	-11
1.61500	-12
1.61867	-14
1.62233	-16
1.62600	-19
1.62967	-22
1.63333	-25
1.63700	-28
1.64067	-32
1.64433	-35
1.64800	-39
1.65167	-42
1.65533	-46
1.65900	-50
1.66267	-54
1.66633	-58
1.67000	-62
1.67367	-67
1.67733	-72
1.68100	-78
1.68467	-82
1.68833	-87
1.69200	-91
1.69567	-95
1.69933	-98
1.70300	-101
1.70667	-103
1.71033	-105
1.71400	-107
1.71767	-108
1.72133	-109
1.72500	-110
1.72867	-111
1.73233	-111
1.73600	-112
1.73967	-113
1.74333	-114
1.74700	-115
1.75067	-115
1.75433	-116
1.75800	-117
1.76167	-117
1.76533	-117
1.76900	-117
1.77267	-116
1.77633	-116
1.78000	-117
1.78367	-118
1.78733	-118
1.79100	-119
1.79467	-120
1.79833	-120
1.80200	-120
1.80567	-120
1.80933	-121
1.81300	-121
1.81667	-121
1.82033	-121
1.82400	-121
1.82767	-122
1.83133	-122
1.83500	-122
1.83867	-122
1.84233	-122
1.84600	-123
1.84967	-123
1.85333	-123
1.85700	-123
1.86067	-123
1.86433	-122
1.86800	-122
1.87167	-122
1.87533	-121
1.87900	-121
1.88267	-122
1.88633	-122
1.89000	-121
1.89367	-121
1.89733	-121
1.90100	-121
1.90467	-121
1.90833	-121
1.91200	-121
1.91567	-120
1.91933	-120
1.92300	-120
1.92667	-120
1.93033	-120
1.93400	-120
1.93767	-120
1.94133	-119
1.94500	-119
1.94867	-118
1.95233	-118
1.95600	-118
1.95967	-118
1.96333	-118
1.96700	-119
1.97067	-119
1.97433	-118
1.97800	-118
1.98167	-117
1.98533	-117
1.98900	-116
1.99267	-116
1.99633	-116
2.00000	-116
2.00367	-116
2.00733	-115
2.01100	-115
2.01467	-115
2.01833	-115
2.02200	-115
2.02567	-115
2.02933	-115
2.03300	-115
2.03667	-115
2.04033	-114
2.04400	-113
2.04767	-113
2.05133	-112
2.05500	-111
2.05867	-111
2.06233	-110
2.06600	-110
2.06967	-110
2.07333	-109
2.07700	-109
2.08067	-109
2.08433	-108
2.08800	-108
2.09167	-108
2.09533	-108
2.09900	-108
2.10267	-108
2.10633	-108
2.11000	-107
2.11367	-107
2.11733	-106
2.12100	-105
2.12467	-105
2.12833	-104
2.13200	-104
2.13567	-104
2.13933	-104
2.14300	-104
2.14667	-104
2.15033	-103
2.15400	-103
2.15767	-102
2.16133	-102
2.16500	-102
2.16867	-102
2.17233	-102
2.17600	-101
2.17967	-101
2.18333	-101
2.18700	-101
2.19067	-101
2.19433	-101
2.19800	-101
2.20167	-101
2.20533	-101
2.20900	-100
2.21267	-100
2.21633	-99
2.22000	-99
2.22367	-98
2.22733	-98
2.23100	-97
2.23467	-97
2.23833	-97
2.24200	-96
2.24567	-96
2.24933	-96
2.25300	-95
2.25667	-95
2.26033	-94
2.26400	-94
2.26767	-93
2.27133	-93
2.27500	-93
2.27867	-93
2.28233	-93
2.28600	-93
2.28967	-93
2.29333	-93
2.29700	-93
2.30067	-93
2.30433	-93
2.30800	-93
2.31167	-92
2.31533	-92
2.31900	-91
2.32267	-91
2.32633	-91
2.33000	-90
2.33367	-90
2.33733	-90
2.34100	-89
2.34467	-89
2.34833	-89
2.35200	-90
2.35567	-90
2.35933	-90
2.36300	-89
2.36667	-89
2.37033	-87
2.37400	-85
2.37767	-82
2.38133	-79
2.38500	-76
2.38867	-72
2.39233	-67
2.39600	-63
2.39967	-58
2.40333	-53
2.40700	-48
2.41067	-44
2.41433	-40
2.41800	-36
2.42167	-33
2.42533	-30
2.42900	-28
2.43267	-25
2.43633	-23
2.44000	-20
2.44367	-18
2.44733	-16
2.45100	-14
2.45467	-11
2.45833	-9
2.46200	-8
2.46567	-6
2.46933	-4
2.47300	-3
2.47667	-2
2.48033	-0
2.48400	1
2.48767	1
2.49133	2
2.49500	3
2.49867	3
2.50233	4
2.50600	5
2.50967	5
2.51333	6
2.51700	6
2.52067	6
2.52433	6
2.52800	7
2.53167	7
2.53533	7
2.53900	8
2.54267	8
2.54633	9
2.55000	10
2.55367	10
2.55733	10
2.56100	10
2.56467	10
2.56833	10
2.57200	10
2.57567	10
2.57933	10
2.58300	10
2.58667	11
2.59033	11
2.59400	12
2.59767	12
2.60133	12
2.60500	13
2.60867	13
2.61233	13
2.61600	13
2.61967	13
2.62333	13
2.62700	13
2.63067	14
2.63433	14
2.63800	14
2.64167	14
2.64533	15
2.64900	15
2.65267	15
2.65633	15
2.66000	16
2.66367	16
2.66733	17
2.67100	17
2.67467	18
2.67833	19
2.68200	19
2.68567	19
2.68933	20
2.69300	20
2.69667	20
2.70033	20
2.70400	20
2.70767	19
2.71133	19
2.71500	19
2.71867	18
2.72233	18
2.72600	19
2.72967	19
2.73333	19
2.73700	20
2.74067	20
2.74433	20
2.74800	20
2.75167	21
2.75533	21
2.75900	21
2.76267	22
2.76633	22
2.77000	22
2.77367	22
2.77733	22
2.78100	22
2.78467	22
2.78833	22
2.79200	22
2.79567	22
2.79933	22
2.80300	22
2.80667	22
2.81033	22
2.81400	22
2.81767	22
2.82133	22
2.82500	23
2.82867	23
2.83233	23
2.83600	22
2.83967	22
2.84333	22
2.84700	21
2.85067	19
2.85433	15
2.85800	10
2.86167	2
2.86533	-10
2.86900	-25
2.87267	-44
2.87633	-67
2.88000	-94
2.88367	-124
2.88733	-159
2.89100	-197
2.89467	-238
2.89833	-282
2.90200	-327
2.90567	-375
2.90933	-424
2.91300	-474
2.91667	-524
2.92033	-574
2.92400	-625
2.92767	-675
2.93133	-724
2.93500	-773
2.93867	-824
2.94233	-877
2.94600	-938
2.94967	-1000
2.95333	-1053
2.95700	-1087
2.96067	-1096
2.96433	-1078
2.96800	-1037
2.97167	-978
2.97533	-906
2.97900	-828
2.98267	-747
2.98633	-668
2.99000	-591
2.99367	-520
2.99733	-454
3.00100	-394
3.00467	-341
3.00833	-293
3.01200	-252
3.01567	-215
3.01933	-183
3.02300	-156
3.02667	-132
3.03033	-111
3.03400	-94
3.03767	-79
3.04133	-66
3.04500	-55
3.04867	-46
3.05233	-38
3.05600	-31
3.05967	-25
3.06333	-20
3.06700	-16
3.07067	-13
3.07433	-10
3.07800	-7
3.08167	-5
3.08533	-3
3.08900	-1
3.09267	0
3.09633	2
3.10000	3
3.10367	4
3.10733	5
3.11100	6
3.11467	6
3.11833	7
3.12200	7
3.12567	8
3.12933	8
3.13300	9
3.13667	9
3.14033	10
3.14400	10
3.14767	11
3.15133	11
3.15500	12
3.15867	12
3.16233	13
3.16600	13
3.16967	13
3.17333	14
3.17700	14
3.18067	15
3.18433	15
3.18800	16
3.19167	16
3.19533	16
3.19900	16
3.20267	16
3.20633	16
3.21000	16
3.21367	16
3.21733	16
3.22100	16
3.22467	17
3.22833	17
3.23200	17
3.23567	17
3.23933	17
3.24300	18
3.24667	18
3.25033	18
3.25400	19
3.25767	19
3.26133	19
3.26500	20
3.26867	20
3.27233	20
3.27600	20
3.27967	20
3.28333	21
3.28700	21
3.29067	22
3.29433	22
3.29800	22
3.30167	22
3.30533	23
3.30900	23
3.31267	23
3.31633	23
3.32000	23
3.32367	23
3.32733	24
3.33100	24
3.33467	24
3.33833	24
3.34200	24
3.34567	24
3.34933	24
3.35300	24
3.35667	24
3.36033	24
3.36400	24
3.36767	24
3.37133	24
3.37500	24
3.37867	24
3.38233	24
3.38600	24
3.38967	24
3.39333	24
3.39700	23
3.40067	23
3.40433	23
3.40800	23
3.41167	23
3.41533	23
3.41900	23
3.42267	23
3.42633	23
3.43000	23
3.43367	23
3.43733	23
3.44100	23
3.44467	22
3.44833	22
3.45200	22
3.45567	22
3.45933	22
3.46300	22
3.46667	21
3.47033	21
3.47400	21
3.47767	21
3.48133	21
3.48500	22
3.48867	22
3.49233	22
3.49600	22
3.49967	22
3.50333	23
3.50700	23
3.51067	23
3.51433	23
3.51800	23
3.52167	23
3.52533	23
3.52900	23
3.53267	23
3.53633	23
3.54000	23
3.54367	23
3.54733	23
3.55100	23
3.55467	23
3.55833	23
3.56200	22
3.56567	22
3.56933	22
3.57300	22
3.57667	22
3.58033	22
3.58400	22
3.58767	22
3.59133	21
3.59500	21
3.59867	21
3.60233	21
3.60600	21
3.60967	21
3.61333	21
3.61700	21
3.62067	21
3.62433	21
3.62800	21
3.63167	21
3.63533	21
3.63900	21
3.64267	21
3.64633	21
3.65000	22
3.65367	22
3.65733	22
3.66100	22
3.66467	22
3.66833	22
3.67200	22
3.67567	22
3.67933	22
3.68300	22
3.68667	22
3.69033	22
3.69400	22
3.69767	22
3.70133	22
3.70500	22
3.70867	22
3.71233	22
3.71600	22
3.71967	22
3.72333	22
3.72700	22
3.73067	22
3.73433	22
3.73800	23
3.74167	23
3.74533	23
3.74900	23
3.75267	23
3.75633	23
3.76000	24
3.76367	24
3.76733	24
3.77100	24
3.77467	24
3.77833	24
3.78200	24
3.78567	24
3.78933	24
3.79300	24
3.79667	24
3.80033	24
3.80400	24
3.80767	24
3.81133	24
3.81500	24
3.81867	24
3.82233	24
3.82600	24
3.82967	24
3.83333	24
3.83700	24
3.84067	23
3.84433	23
3.84800	23
3.85167	23
3.85533	23
3.85900	23
3.86267	23
3.86633	23
3.87000	23
3.87367	22
3.87733	22
3.88100	22
3.88467	22
3.88833	22
3.89200	22
3.89567	22
3.89933	22
3.90300	22
3.90667	22
3.91033	22
3.91400	22
3.91767	22
3.92133	23
3.92500	23
3.92867	23
3.93233	23
3.93600	23
3.93967	23
3.94333	23
3.94700	23
3.95067	24
3.95433	24
3.95800	24
3.96167	23
3.96533	23
3.96900	23
3.97267	23
3.97633	22
3.98000	22
3.98367	22
3.98733	22
3.99100	21
3.99467	21
3.99833	21

[Chromatogram (Ch3)]
Interval(msec)	220
# of Points	1091
Start Time(min)	0.002
End Time(min)	3.998
R.Time (min)	Intensity
0.00167	-0
0.00533	0
0.00900	1
0.01267	2
0.01633	4
0.02000	5
0.02367	6
0.02733	6
0.03100	7
0.03467	10
0.03833	10
0.04200	8
0.04567	9
0.04933	11
0.05300	10
0.05667	8
0.06033	8
0.06400	8
0.06767	9
0.07133	8
0.07500	6
0.07867	4
0.08233	4
0.08600	8
0.08967	13
0.09333	16
0.09700	16
0.10067	14
0.10433	13
0.10800	13
0.11167	16
0.11533	17
0.11900	16
0.12267	16
0.12633	19
0.13000	19
0.13367	17
0.13733	16
0.14100	16
0.14467	16
0.14833	14
0.15200	12
0.15567	13
0.15933	13
0.16300	13
0.16667	15
0.17033	15
0.17400	15
0.17767	18
0.18133	20
0.18500	21
0.18867	21
0.19233	20
0.19600	21
0.19967	20
0.20333	20
0.20700	19
0.21067	21
0.21433	20
0.21800	18
0.22167	17
0.22533	16
0.22900	15
0.23267	17
0.23633	18
0.24000	17
0.24367	18
0.24733	20
0.25100	19
0.25467	18
0.25833	18
0.26200	19
0.26567	19
0.26933	21
0.27300	23
0.27667	26
0.28033	28
0.28400	29
0.28767	28
0.29133	24
0.29500	23
0.29867	24
0.30233	26
0.30600	28
0.30967	30
0.31333	31
0.31700	29
0.32067	29
0.32433	27
0.32800	27
0.33167	26
0.33533	27
0.33900	29
0.34267	28
0.34633	28
0.35000	29
0.35367	30
0.35733	27
0.36100	27
0.36467	27
0.36833	25
0.37200	25
0.37567	27
0.37933	32
0.38300	35
0.38667	36
0.39033	34
0.39400	30
0.39767	29
0.40133	28
0.40500	27
0.40867	28
0.41233	29
0.41600	30
0.41967	29
0.42333	29
0.42700	30
0.43067	28
0.43433	26
0.43800	24
0.44167	25
0.44533	27
0.44900	29
0.45267	29
0.45633	28
0.46000	28
0.46367	28
0.46733	29
0.47100	33
0.47467	36
0.47833	39
0.48200	38
0.48567	35
0.48933	33
0.49300	32
0.49667	32
0.50033	35
0.50400	35
0.50767	36
0.51133	37
0.51500	38
0.51867	37
0.52233	37
0.52600	38
0.52967	37
0.53333	33
0.53700	32
0.54067	31
0.54433	31
0.54800	32
0.55167	34
0.55533	35
0.55900	34
0.56267	34
0.56633	33
0.57000	32
0.57367	32
0.57733	30
0.58100	29
0.58467	27
0.58833	28
0.59200	30
0.59567	32
0.59933	35
0.60300	36
0.60667	36
0.61033	35
0.61400	39
0.61767	42
0.62133	41
0.62500	41
0.62867	40
0.63233	37
0.63600	38
0.63967	40
0.64333	40
0.64700	38
0.65067	37
0.65433	38
0.65800	40
0.66167	40
0.66533	42
0.66900	42
0.67267	41
0.67633	40
0.68000	38
0.68367	37
0.68733	38
0.69100	40
0.69467	42
0.69833	42
0.70200	43
0.70567	42
0.70933	39
0.71300	37
0.71667	37
0.72033	38
0.72400	41
0.72767	45
0.73133	46
0.73500	46
0.73867	45
0.74233	43
0.74600	43
0.74967	43
0.75333	44
0.75700	43
0.76067	40
0.76433	39
0.76800	39
0.77167	39
0.77533	39
0.77900	39
0.78267	40
0.78633	41
0.79000	44
0.79367	45
0.79733	44
0.80100	43
0.80467	41
0.80833	41
0.81200	41
0.81567	41
0.81933	42
0.82300	42
0.82667	41
0.83033	42
0.83400	43
0.83767	42
0.84133	40
0.84500	37
0.84867	33
0.85233	33
0.85600	35
0.85967	36
0.86333	37
0.86700	37
0.87067	36
0.87433	38
0.87800	39
0.88167	40
0.88533	41
0.88900	41
0.89267	41
0.89633	42
0.90000	43
0.90367	45
0.90733	45
0.91100	44
0.91467	43
0.91833	41
0.92200	41
0.92567	40
0.92933	40
0.93300	43
0.93667	45
0.94033	47
0.94400	48
0.94767	47
0.95133	43
0.95500	41
0.95867	42
0.96233	44
0.96600	45
0.96967	44
0.97333	42
0.97700	42
0.98067	42
0.98433	42
0.98800	42
0.99167	42
0.99533	43
0.99900	42
1.00267	43
1.00633	44
1.01000	45
1.01367	47
1.01733	49
1.02100	48
1.02467	49
1.02833	51
1.03200	53
1.03567	51
1.03933	49
1.04300	50
1.04667	49
1.05033	49
1.05400	49
1.05767	50
1.06133	49
1.06500	48
1.06867	45
1.07233	43
1.07600	41
1.07967	40
1.08333	40
1.08700	41
1.09067	44
1.09433	47
1.09800	47
1.10167	46
1.10533	46
1.10900	49
1.11267	50
1.11633	51
1.12000	52
1.12367	52
1.12733	51
1.13100	49
1.13467	47
1.13833	45
1.14200	42
1.14567	43
1.14933	43
1.15300	44
1.15667	46
1.16033	47
1.16400	47
1.16767	48
1.17133	48
1.17500	49
1.17867	49
1.18233	50
1.18600	50
1.18967	50
1.19333	49
1.19700	48
1.20067	47
1.20433	46
1.20800	45
1.21167	45
1.21533	46
1.21900	47
1.22267	46
1.22633	45
1.23000	48
1.23367	49
1.23733	51
1.24100	51
1.24467	49
1.24833	47
1.25200	46
1.25567	47
1.25933	48
1.26300	50
1.26667	51
1.27033	50
1.27400	50
1.27767	48
1.28133	48
1.28500	49
1.28867	48
1.29233	48
1.29600	46
1.29967	47
1.30333	48
1.30700	49
1.31067	48
1.31433	48
1.31800	46
1.32167	47
1.32533	48
1.32900	51
1.33267	52
1.33633	53
1.34000	53
1.34367	53
1.34733	52
1.35100	51
1.35467	52
1.35833	54
1.36200	54
1.36567	53
1.36933	54
1.37300	56
1.37667	56
1.38033	56
1.38400	56
1.38767	56
1.39133	53
1.39500	50
1.39867	48
1.40233	50
1.40600	50
1.40967	50
1.41333	49
1.41700	50
1.42067	51
1.42433	51
1.42800	49
1.43167	49
1.43533	50
1.43900	51
1.44267	54
1.44633	56
1.45000	57
1.45367	57
1.45733	57
1.46100	56
1.46467	56
1.46833	56
1.47200	55
1.47567	54
1.47933	54
1.48300	55
1.48667	53
1.49033	51
1.49400	50
1.49767	51
1.50133	53
1.50500	56
1.50867	58
1.51233	59
1.51600	58
1.51967	57
1.52333	59
1.52700	60
1.53067	59
1.53433	57
1.53800	55
1.54167	53
1.54533	51
1.54900	49
1.55267	49
1.55633	52
1.56000	55
1.56367	55
1.56733	55
1.57100	52
1.57467	51
1.57833	55
1.58200	57
1.58567	58
1.58933	58
1.59300	58
1.59667	58
1.60033	59
1.60400	60
1.60767	57
1.61133	56
1.61500	54
1.61867	55
1.62233	57
1.62600	58
1.62967	58
1.63333	58
1.63700	58
1.64067	58
1.64433	60
1.64800	61
1.65167	61
1.65533	60
1.65900	62
1.66267	63
1.66633	66
1.67000	69
1.67367	71
1.67733	71
1.68100	71
1.68467	69
1.68833	67
1.69200	66
1.69567	67
1.69933	69
1.70300	71
1.70667	73
1.71033	74
1.71400	74
1.71767	74
1.72133	73
1.72500	72
1.72867	74
1.73233	74
1.73600	74
1.73967	73
1.74333	71
1.74700	71
1.75067	72
1.75433	73
1.75800	74
1.76167	74
1.76533	74
1.76900	73
1.77267	73
1.77633	74
1.78000	76
1.78367	77
1.78733	78
1.79100	79
1.79467	80
1.79833	79
1.80200	78
1.80567	78
1.80933	77
1.81300	78
1.81667	78
1.82033	81
1.82400	83
1.82767	84
1.83133	84
1.83500	86
1.83867	86
1.84233	85
1.84600	85
1.84967	84
1.85333	82
1.85700	82
1.86067	83
1.86433	82
1.86800	84
1.87167	86
1.87533	86
1.87900	86
1.88267	86
1.88633	87
1.89000	89
1.89367	89
1.89733	89
1.90100	90
1.90467	89
1.90833	89
1.91200	90
1.91567	91
1.91933	94
1.92300	96
1.92667	94
1.93033	92
1.93400	89
1.93767	88
1.94133	90
1.94500	93
1.94867	94
1.95233	95
1.95600	96
1.95967	93
1.96333	92
1.96700	95
1.97067	97
1.97433	97
1.97800	96
1.98167	97
1.98533	101
1.98900	105
1.99267	106
1.99633	105
2.00000	106
2.00367	109
2.00733	109
2.01100	109
2.01467	105
2.01833	106
2.02200	108
2.02567	110
2.02933	112
2.03300	114
2.03667	113
2.04033	112
2.04400	110
2.04767	110
2.05133	114
2.05500	118
2.05867	121
2.06233	122
2.06600	122
2.06967	123
2.07333	122
2.07700	120
2.08067	123
2.08433	123
2.08800	122
2.09167	122
2.09533	122
2.09900	122
2.10267	122
2.10633	124
2.11000	125
2.11367	124
2.11733	127
2.12100	130
2.12467	132
2.12833	134
2.13200	135
2.13567	136
2.13933	135
2.14300	134
2.14667	137
2.15033	136
2.15400	135
2.15767	136
2.16133	136
2.16500	136
2.16867	137
2.17233	135
2.17600	134
2.17967	135
2.18333	139
2.18700	143
2.19067	144
2.19433	145
2.19800	145
2.20167	145
2.20533	142
2.20900	142
2.21267	142
2.21633	144
2.22000	148
2.22367	149
2.22733	150
2.23100	152
2.23467	154
2.23833	154
2.24200	154
2.24567	155
2.24933	157
2.25300	156
2.25667	156
2.26033	158
2.26400	159
2.26767	159
2.27133	161
2.27500	162
2.27867	162
2.28233	163
2.28600	165
2.28967	166
2.29333	166
2.29700	165
2.30067	166
2.30433	165
2.30800	167
2.31167	167
2.31533	167
2.31900	168
2.32267	170
2.32633	173
2.33000	172
2.33367	172
2.33733	170
2.34100	172
2.34467	173
2.34833	174
2.35200	175
2.35567	176
2.35933	176
2.36300	177
2.36667	176
2.37033	174
2.37400	174
2.37767	175
2.38133	175
2.38500	176
2.38867	179
2.39233	183
2.39600	184
2.39967	182
2.40333	182
2.40700	184
2.41067	186
2.41433	187
2.41800	187
2.42167	187
2.42533	189
2.42900	193
2.43267	196
2.43633	198
2.44000	198
2.44367	204
2.44733	221
2.45100	242
2.45467	270
2.45833	308
2.46200	359
2.46567	421
2.46933	486
2.47300	549
2.47667	610
2.48033	664
2.48400	719
2.48767	772
2.49133	822
2.49500	868
2.49867	908
2.50233	940
2.50600	968
2.50967	988
2.51333	1003
2.51700	1017
2.52067	1031
2.52433	1044
2.52800	1057
2.53167	1069
2.53533	1077
2.53900	1084
2.54267	1089
2.54633	1092
2.55000	1095
2.55367	1097
2.55733	1100
2.56100	1101
2.56467	1101
2.56833	1101
2.57200	1101
2.57567	1098
2.57933	1092
2.58300	1087
2.58667	1082
2.59033	1080
2.59400	1079
2.59767	1072
2.60133	1062
2.60500	1051
2.60867	1036
2.61233	1018
2.61600	994
2.61967	965
2.62333	935
2.62700	905
2.63067	875
2.63433	847
2.63800	821
2.64167	800
2.64533	789
2.64900	781
2.65267	777
2.65633	775
2.66000	774
2.66367	777
2.66733	781
2.67100	786
2.67467	792
2.67833	799
2.68200	807
2.68567	814
2.68933	823
2.69300	831
2.69667	838
2.70033	844
2.70400	848
2.70767	853
2.71133	857
2.71500	859
2.71867	863
2.72233	866
2.72600	870
2.72967	873
2.73333	873
2.73700	874
2.74067	875
2.74433	877
2.74800	877
2.75167	875
2.75533	875
2.75900	874
2.76267	872
2.76633	872
2.77000	871
2.77367	869
2.77733	869
2.78100	868
2.78467	867
2.78833	867
2.79200	866
2.79567	864
2.79933	861
2.80300	858
2.80667	856
2.81033	854
2.81400	853
2.81767	853
2.82133	853
2.82500	854
2.82867	858
2.83233	873
2.83600	911
2.83967	992
2.84333	1133
2.84700	1359
2.85067	1685
2.85433	2122
2.85800	2652
2.86167	3249
2.86533	3866
2.86900	4453
2.87267	4968
2.87633	5367
2.88000	5623
2.88367	5729
2.88733	5694
2.89100	5536
2.89467	5285
2.89833	4969
2.90200	4615
2.90567	4251
2.90933	3890
2.91300	3543
2.91667	3220
2.92033	2923
2.92400	2652
2.92767	2409
2.93133	2193
2.93500	2002
2.93867	1834
2.94233	1688
2.94600	1561
2.94967	1448
2.95333	1350
2.95700	1267
2.96067	1194
2.96433	1132
2.96800	1081
2.97167	1036
2.97533	994
2.97900	959
2.98267	927
2.98633	898
2.99000	874
2.99367	851
2.99733	831
3.00100	816
3.00467	805
3.00833	794
3.01200	782
3.01567	773
3.01933	764
3.02300	758
3.02667	751
3.03033	745
3.03400	741
3.03767	738
3.04133	734
3.04500	730
3.04867	727
3.05233	727
3.05600	724
3.05967	721
3.06333	716
3.06700	711
3.07067	706
3.07433	701
3.07800	697
3.08167	694
3.08533	689
3.08900	686
3.09267	683
3.09633	683
3.10000	683
3.10367	681
3.10733	677
3.11100	674
3.11467	671
3.11833	667
3.12200	665
3.12567	660
3.12933	657
3.13300	655
3.13667	656
3.14033	655
3.14400	654
3.14767	652
3.15133	650
3.15500	647
3.15867	642
3.16233	637
3.16600	634
3.16967	628
3.17333	622
3.17700	618
3.18067	615
3.18433	612
3.18800	611
3.19167	610
3.19533	608
3.19900	606
3.20267	608
3.20633	607
3.21000	607
3.21367	607
3.21733	605
3.22100	603
3.22467	602
3.22833	600
3.23200	595
3.23567	592
3.23933	590
3.24300	588
3.24667	585
3.25033	582
3.25400	579
3.25767	575
3.26133	573
3.26500	573
3.26867	573
3.27233	572
3.27600	569
3.27967	565
3.28333	563
3.28700	561
3.29067	556
3.29433	551
3.29800	545
3.30167	539
3.30533	535
3.30900	532
3.31267	531
3.31633	531
3.32000	530
3.32367	527
3.32733	523
3.33100	521
3.33467	519
3.33833	516
3.34200	513
3.34567	510
3.34933	507
3.35300	505
3.35667	501
3.36033	498
3.36400	496
3.36767	492
3.37133	486
3.37500	480
3.37867	476
3.38233	472
3.38600	472
3.38967	472
3.39333	471
3.39700	469
3.40067	464
3.40433	461
3.40800	460
3.41167	460
3.41533	457
3.41900	453
3.42267	450
3.42633	446
3.43000	444
3.43367	440
3.43733	436
3.44100	435
3.44467	435
3.44833	435
3.45200	432
3.45567	429
3.45933	424
3.46300	420
3.46667	417
3.47033	414
3.47400	412
3.47767	409
3.48133	407
3.48500	406
3.48867	405
3.49233	403
3.49600	402
3.49967	399
3.50333	398
3.50700	396
3.51067	395
3.51433	395
3.51800	393
3.52167	390
3.52533	388
3.52900	384
3.53267	379
3.53633	375
3.54000	372
3.54367	372
3.54733	372
3.55100	370
3.55467	370
3.55833	370
3.56200	369
3.56567	368
3.56933	364
3.57300	361
3.57667	359
3.58033	359
3.58400	358
3.58767	357
3.59133	354
3.59500	351
3.59867	350
3.60233	348
3.60600	346
3.60967	344
3.61333	344
3.61700	345
3.62067	345
3.62433	341
3.62800	336
3.63167	331
3.63533	327
3.63900	327
3.64267	327
3.64633	330
3.65000	330
3.65367	328
3.65733	326
3.66100	323
3.66467	320
3.66833	316
3.67200	315
3.67567	316
3.67933	317
3.68300	316
3.68667	314
3.69033	312
3.69400	311
3.69767	311
3.70133	310
3.70500	308
3.70867	308
3.71233	308
3.71600	308
3.71967	307
3.72333	306
3.72700	306
3.73067	305
3.73433	304
3.73800	303
3.74167	303
3.74533	302
3.74900	303
3.75267	299
3.75633	295
3.76000	294
3.76367	293
3.76733	291
3.77100	290
3.77467	288
3.77833	288
3.78200	285
3.78567	283
3.78933	282
3.79300	279
3.79667	278
3.80033	280
3.80400	278
3.80767	275
3.81133	273
3.81500	270
3.81867	269
3.82233	267
3.82600	265
3.82967	263
3.83333	265
3.83700	265
3.84067	265
3.84433	264
3.84800	266
3.85167	268
3.85533	265
3.85900	262
3.86267	260
3.86633	260
3.87000	261
3.87367	258
3.87733	256
3.88100	256
3.88467	256
3.88833	254
3.89200	254
3.89567	252
3.89933	251
3.90300	250
3.90667	249
3.91033	248
3.91400	248
3.91767	248
3.92133	250
3.92500	252
3.92867	254
3.93233	253
3.93600	250
3.93967	248
3.94333	247
3.94700	243
3.95067	238
3.95433	234
3.95800	230
3.96167	229
3.96533	228
3.96900	228
3.97267	227
3.97633	226
3.98000	224
3.98367	222
3.98733	221
3.99100	221
3.99467	220
3.99833	223

[Status Trace (Column Oven Temperature)]
Interval(msec)	1000
# of Points	240
Start Time(min)	0.001
End Time(min)	3.984
Intensity Units	
Intensity Multiplier	1
R.Time (min)	Intensity
0.00057	34.97
0.01723	34.98
0.03390	34.98
0.05057	34.99
0.06723	34.98
0.08390	34.98
0.10057	34.99
0.11723	34.98
0.13390	34.97
0.15057	34.98
0.16723	34.98
0.18390	34.98
0.20057	34.98
0.21723	34.96
0.23390	34.97
0.25057	34.97
0.26723	34.98
0.28390	34.98
0.30057	34.98
0.31723	34.98
0.33390	34.99
0.35057	34.99
0.36723	34.99
0.38390	34.99
0.40057	35.00
0.41723	35.00
0.43390	35.02
0.45057	35.03
0.46723	35.03
0.48390	35.02
0.50057	35.00
0.51723	34.99
0.53390	34.99
0.55057	34.97
0.56723	34.98
0.58390	34.98
0.60057	34.97
0.61723	34.97
0.63390	34.99
0.65057	34.99
0.66723	35.00
0.68390	35.00
0.70057	35.00
0.71723	34.99
0.73390	34.99
0.75057	34.97
0.76723	34.97
0.78390	34.96
0.80057	34.96
0.81723	34.96
0.83390	34.97
0.85057	34.97
0.86723	34.97
0.88390	34.97
0.90057	34.97
0.91723	34.97
0.93390	34.97
0.95057	34.98
0.96723	34.97
0.98390	34.96
1.00057	34.97
1.01723	34.98
1.03390	34.98
1.05057	34.98
1.06723	34.99
1.08390	34.99
1.10057	35.00
1.11723	34.99
1.13390	34.98
1.15057	34.98
1.16723	34.98
1.18390	34.98
1.20057	34.98
1.21723	34.98
1.23390	34.99
1.25057	34.99
1.26723	34.99
1.28390	34.99
1.30057	34.97
1.31723	34.98
1.33390	34.99
1.35057	35.00
1.36723	35.01
1.38390	35.00
1.40057	35.00
1.41723	34.99
1.43390	34.99
1.45057	34.98
1.46723	34.98
1.48390	34.98
1.50057	34.99
1.51723	35.01
1.53390	35.01
1.55057	35.01
1.56723	35.01
1.58390	35.02
1.60057	35.05
1.61723	35.14
1.63390	35.29
1.65057	35.51
1.66723	35.81
1.68390	36.18
1.70057	36.53
1.71723	36.88
1.73390	37.21
1.75057	37.55
1.76723	37.85
1.78390	38.20
1.80057	38.52
1.81723	38.86
1.83390	39.19
1.85057	39.52
1.86723	39.85
1.88390	40.19
1.90057	40.52
1.91723	40.84
1.93390	41.17
1.95057	41.49
1.96723	41.82
1.98390	42.14
2.00057	42.46
2.01723	42.79
2.03390	43.13
2.05057	43.44
2.06723	43.77
2.08390	44.10
2.10057	44.42
2.11723	44.73
2.13390	45.08
2.15057	45.39
2.16723	45.72
2.18390	46.06
2.20057	46.38
2.21723	46.71
2.23390	47.04
2.25057	47.38
2.26723	47.70
2.28390	48.05
2.30057	48.36
2.31723	48.69
2.33390	49.00
2.35057	49.35
2.36723	49.61
2.38390	49.71
2.40057	49.72
2.41723	49.72
2.43390	49.74
2.45057	49.74
2.46723	49.74
2.48390	49.74
2.50057	49.75
2.51723	49.77
2.53390	49.79
2.55057	49.80
2.56723	49.82
2.58390	49.82
2.60057	49.82
2.61723	49.85
2.63390	49.86
2.65057	49.87
2.66723	49.85
2.68390	49.84
2.70057	49.85
2.71723	49.87
2.73390	49.87
2.75057	49.87
2.76723	49.87
2.78390	49.87
2.80057	49.86
2.81723	49.86
2.83390	49.88
2.85057	49.89
2.86723	49.90
2.88390	49.92
2.90057	49.93
2.91723	49.95
2.93390	49.98
2.95057	49.99
2.96723	49.99
2.98390	50.00
3.00057	50.01
3.01723	50.02
3.03390	50.02
3.05057	50.03
3.06723	50.04
3.08390	50.06
3.10057	50.07
3.11723	50.08
3.13390	50.09
3.15057	50.10
3.16723	50.10
3.18390	50.10
3.20057	50.10
3.21723	50.10
3.23390	50.10
3.25057	50.11
3.26723	50.10
3.28390	50.09
3.30057	50.07
3.31723	50.06
3.33390	50.05
3.35057	50.04
3.36723	50.03
3.38390	50.03
3.40057	50.02
3.41723	50.02
3.43390	50.02
3.45057	50.03
3.46723	50.05
3.48390	50.05
3.50057	50.05
3.51723	50.05
3.53390	50.05
3.55057	50.05
3.56723	50.05
3.58390	50.06
3.60057	50.07
3.61723	50.08
3.63390	50.08
3.65057	50.07
3.66723	50.07
3.68390	50.07
3.70057	50.08
3.71723	50.09
3.73390	50.08
3.75057	50.07
3.76723	50.07
3.78390	50.06
3.80057	50.06
3.81723	50.06
3.83390	50.05
3.85057	50.05
3.86723	50.05
3.88390	50.06
3.90057	50.06
3.91723	50.06
3.93390	50.05
3.95057	50.06
3.96723	50.06
3.98390	50.07

[Status Trace (Injection Unit Temperature)]
Interval(msec)	1000
# of Points	240
Start Time(min)	0.001
End Time(min)	3.984
Intensity Units	
Intensity Multiplier	1
R.Time (min)	Intensity
0.00057	99.98
0.01723	99.98
0.03390	99.99
0.05057	99.98
0.06723	99.98
0.08390	99.98
0.10057	99.98
0.11723	99.98
0.13390	99.98
0.15057	99.99
0.16723	99.99
0.18390	99.98
0.20057	99.98
0.21723	99.98
0.23390	99.98
0.25057	99.99
0.26723	99.98
0.28390	99.98
0.30057	99.98
0.31723	99.98
0.33390	99.98
0.35057	99.98
0.36723	99.98
0.38390	99.98
0.40057	99.98
0.41723	99.98
0.43390	99.98
0.45057	99.98
0.46723	99.99
0.48390	99.98
0.50057	99.98
0.51723	99.99
0.53390	99.98
0.55057	99.98
0.56723	99.98
0.58390	99.98
0.60057	99.98
0.61723	99.97
0.63390	99.98
0.65057	99.98
0.66723	99.98
0.68390	99.98
0.70057	99.98
0.71723	99.98
0.73390	99.98
0.75057	99.98
0.76723	99.98
0.78390	99.98
0.80057	99.98
0.81723	99.98
0.83390	99.98
0.85057	99.98
0.86723	99.98
0.88390	99.98
0.90057	99.99
0.91723	99.99
0.93390	99.98
0.95057	99.98
0.96723	99.99
0.98390	99.99
1.00057	99.99
1.01723	99.98
1.03390	99.98
1.05057	99.98
1.06723	99.99
1.08390	99.98
1.10057	99.98
1.11723	99.99
1.13390	99.99
1.15057	99.98
1.16723	99.98
1.18390	99.99
1.20057	99.99
1.21723	99.99
1.23390	99.99
1.25057	99.99
1.26723	99.99
1.28390	99.99
1.30057	99.99
1.31723	99.99
1.33390	99.99
1.35057	99.99
1.36723	99.98
1.38390	99.99
1.40057	99.99
1.41723	99.99
1.43390	99.99
1.45057	99.98
1.46723	99.99
1.48390	99.99
1.50057	99.99
1.51723	99.99
1.53390	99.99
1.55057	99.99
1.56723	99.99
1.58390	99.98
1.60057	99.99
1.61723	99.98
1.63390	99.98
1.65057	99.99
1.66723	99.99
1.68390	99.99
1.70057	99.98
1.71723	99.99
1.73390	99.99
1.75057	99.99
1.76723	99.98
1.78390	99.98
1.80057	99.98
1.81723	99.98
1.83390	99.98
1.85057	99.98
1.86723	99.98
1.88390	99.98
1.90057	99.98
1.91723	99.98
1.93390	99.98
1.95057	99.98
1.96723	99.97
1.98390	99.97
2.00057	99.98
2.01723	99.97
2.03390	99.98
2.05057	99.97
2.06723	99.97
2.08390	99.97
2.10057	99.97
2.11723	99.97
2.13390	99.97
2.15057	99.97
2.16723	99.97
2.18390	99.97
2.20057	99.97
2.21723	99.97
2.23390	99.97
2.25057	99.97
2.26723	99.96
2.28390	99.97
2.30057	99.97
2.31723	99.97
2.33390	99.97
2.35057	99.96
2.36723	99.97
2.38390	99.97
2.40057	99.97
2.41723	99.97
2.43390	99.97
2.45057	99.97
2.46723	99.98
2.48390	99.98
2.50057	99.97
2.51723	99.98
2.53390	99.98
2.55057	99.98
2.56723	99.98
2.58390	99.98
2.60057	99.98
2.61723	99.98
2.63390	99.98
2.65057	99.99
2.66723	99.98
2.68390	99.99
2.70057	99.98
2.71723	99.99
2.73390	99.99
2.75057	99.99
2.76723	99.99
2.78390	99.99
2.80057	99.99
2.81723	99.99
2.83390	100.00
2.85057	100.00
2.86723	100.00
2.88390	100.00
2.90057	100.00
2.91723	100.01
2.93390	100.01
2.95057	100.01
2.96723	100.01
2.98390	100.01
3.00057	100.01
3.01723	100.01
3.03390	100.01
3.05057	100.01
3.06723	100.02
3.08390	100.02
3.10057	100.02
3.11723	100.02
3.13390	100.02
3.15057	100.02
3.16723	100.02
3.18390	100.02
3.20057	100.02
3.21723	100.03
3.23390	100.02
3.25057	100.03
3.26723	100.03
3.28390	100.03
3.30057	100.04
3.31723	100.04
3.33390	100.04
3.35057	100.04
3.36723	100.04
3.38390	100.04
3.40057	100.04
3.41723	100.04
3.43390	100.04
3.45057	100.04
3.46723	100.04
3.48390	100.05
3.50057	100.05
3.51723	100.05
3.53390	100.05
3.55057	100.05
3.56723	100.05
3.58390	100.05
3.60057	100.05
3.61723	100.04
3.63390	100.05
3.65057	100.05
3.66723	100.05
3.68390	100.05
3.70057	100.05
3.71723	100.06
3.73390	100.06
3.75057	100.05
3.76723	100.05
3.78390	100.05
3.80057	100.05
3.81723	100.06
3.83390	100.06
3.85057	100.05
3.86723	100.05
3.88390	100.05
3.90057	100.05
3.91723	100.05
3.93390	100.06
3.95057	100.05
3.96723	100.05
3.98390	100.05

[Status Trace (Carrier Gas Pressure)]
Interval(msec)	1000
# of Points	240
Start Time(min)	0.001
End Time(min)	3.984
Intensity Units	
Intensity Multiplier	1
R.Time (min)	Intensity
0.00057	58.00
0.01723	56.73
0.03390	56.01
0.05057	58.34
0.06723	59.92
0.08390	58.46
0.10057	57.97
0.11723	58.00
0.13390	58.01
0.15057	58.01
0.16723	58.00
0.18390	58.00
0.20057	58.00
0.21723	58.00
0.23390	58.00
0.25057	58.00
0.26723	58.00
0.28390	58.00
0.30057	58.00
0.31723	58.00
0.33390	58.00
0.35057	58.00
0.36723	58.00
0.38390	58.00
0.40057	58.00
0.41723	58.00
0.43390	58.00
0.45057	58.00
0.46723	58.00
0.48390	58.00
0.50057	58.00
0.51723	58.00
0.53390	58.00
0.55057	58.00
0.56723	58.00
0.58390	58.00
0.60057	58.00
0.61723	58.00
0.63390	58.00
0.65057	58.00
0.66723	58.00
0.68390	58.00
0.70057	58.00
0.71723	58.00
0.73390	58.00
0.75057	58.00
0.76723	58.00
0.78390	58.00
0.80057	58.00
0.81723	58.00
0.83390	58.00
0.85057	58.00
0.86723	58.00
0.88390	58.00
0.90057	58.00
0.91723	58.00
0.93390	58.00
0.95057	58.00
0.96723	58.00
0.98390	58.00
1.00057	58.00
1.01723	58.00
1.03390	58.00
1.05057	58.00
1.06723	58.00
1.08390	58.00
1.10057	58.00
1.11723	58.00
1.13390	58.00
1.15057	58.00
1.16723	58.00
1.18390	58.00
1.20057	58.00
1.21723	58.00
1.23390	58.00
1.25057	58.00
1.26723	58.00
1.28390	58.00
1.30057	58.00
1.31723	58.00
1.33390	58.00
1.35057	58.00
1.36723	58.00
1.38390	58.00
1.40057	58.00
1.41723	58.00
1.43390	58.00
1.45057	58.00
1.46723	58.00
1.48390	58.00
1.50057	58.00
1.51723	58.00
1.53390	58.00
1.55057	58.00
1.56723	58.00
1.58390	58.00
1.60057	58.00
1.61723	58.00
1.63390	58.00
1.65057	58.00
1.66723	58.01
1.68390	58.01
1.70057	58.00
1.71723	58.00
1.73390	58.00
1.75057	58.00
1.76723	58.00
1.78390	58.00
1.80057	58.00
1.81723	58.00
1.83390	58.00
1.85057	58.00
1.86723	58.00
1.88390	58.00
1.90057	58.00
1.91723	58.00
1.93390	58.00
1.95057	58.00
1.96723	58.00
1.98390	58.00
2.00057	58.00
2.01723	58.00
2.03390	58.00
2.05057	58.00
2.06723	58.00
2.08390	58.00
2.10057	58.00
2.11723	58.00
2.13390	58.00
2.15057	58.00
2.16723	58.00
2.18390	58.00
2.20057	58.00
2.21723	58.00
2.23390	58.00
2.25057	58.00
2.26723	58.00
2.28390	58.00
2.30057	58.00
2.31723	58.00
2.33390	58.00
2.35057	58.00
2.36723	58.00
2.38390	57.99
2.40057	57.99
2.41723	58.00
2.43390	58.00
2.45057	58.00
2.46723	58.00
2.48390	58.00
2.50057	58.00
2.51723	57.99
2.53390	57.99
2.55057	58.00
2.56723	58.00
2.58390	58.00
2.60057	58.00
2.61723	58.00
2.63390	58.00
2.65057	58.00
2.66723	58.00
2.68390	58.00
2.70057	58.00
2.71723	58.00
2.73390	58.00
2.75057	58.00
2.76723	58.00
2.78390	58.00
2.80057	58.00
2.81723	58.00
2.83390	58.00
2.85057	58.00
2.86723	58.00
2.88390	58.00
2.90057	58.00
2.91723	58.00
2.93390	58.00
2.95057	58.00
2.96723	58.00
2.98390	58.00
3.00057	58.00
3.01723	58.00
3.03390	58.00
3.05057	58.00
3.06723	58.00
3.08390	58.00
3.10057	58.00
3.11723	58.00
3.13390	58.00
3.15057	58.00
3.16723	58.00
3.18390	58.00
3.20057	58.00
3.21723	58.00
3.23390	58.00
3.25057	58.00
3.26723	58.00
3.28390	58.00
3.30057	58.00
3.31723	58.00
3.33390	58.00
3.35057	58.00
3.36723	58.00
3.38390	58.00
3.40057	58.00
3.41723	58.00
3.43390	58.00
3.45057	58.00
3.46723	58.00
3.48390	58.00
3.50057	58.00
3.51723	58.00
3.53390	58.00
3.55057	58.00
3.56723	58.00
3.58390	58.00
3.60057	58.00
3.61723	58.00
3.63390	58.00
3.65057	58.00
3.66723	58.00
3.68390	58.00
3.70057	58.00
3.71723	58.00
3.73390	58.00
3.75057	58.00
3.76723	58.00
3.78390	58.00
3.80057	58.00
3.81723	58.00
3.83390	58.00
3.85057	58.00
3.86723	58.00
3.88390	58.00
3.90057	58.00
3.91723	58.00
3.93390	58.00
3.95057	58.00
3.96723	58.00
3.98390	58.00

[Status Trace (Carrier Gas Flow)]
Interval(msec)	1000
# of Points	240
Start Time(min)	0.001
End Time(min)	3.984
Intensity Units	
Intensity Multiplier	1
R.Time (min)	Intensity
0.00057	34.52
0.01723	33.80
0.03390	34.54
0.05057	34.55
0.06723	34.51
0.08390	34.52
0.10057	34.52
0.11723	34.52
0.13390	34.52
0.15057	34.52
0.16723	34.52
0.18390	34.52
0.20057	34.52
0.21723	34.52
0.23390	34.52
0.25057	34.52
0.26723	34.52
0.28390	34.52
0.30057	34.52
0.31723	34.52
0.33390	34.52
0.35057	34.52
0.36723	34.52
0.38390	34.52
0.40057	34.52
0.41723	34.52
0.43390	34.52
0.45057	34.52
0.46723	34.52
0.48390	34.52
0.50057	34.52
0.51723	34.52
0.53390	34.52
0.55057	34.52
0.56723	34.52
0.58390	34.52
0.60057	34.52
0.61723	34.52
0.63390	34.52
0.65057	34.52
0.66723	34.52
0.68390	34.52
0.70057	34.52
0.71723	34.52
0.73390	34.52
0.75057	34.52
0.76723	34.52
0.78390	34.52
0.80057	34.52
0.81723	34.52
0.83390	34.52
0.85057	34.52
0.86723	34.52
0.88390	34.52
0.90057	34.52
0.91723	34.52
0.93390	34.52
0.95057	34.52
0.96723	34.52
0.98390	34.52
1.00057	34.52
1.01723	34.52
1.03390	34.52
1.05057	34.52
1.06723	34.52
1.08390	34.52
1.10057	34.52
1.11723	34.52
1.13390	34.52
1.15057	34.52
1.16723	34.52
1.18390	34.52
1.20057	34.52
1.21723	34.52
1.23390	34.52
1.25057	34.52
1.26723	34.52
1.28390	34.52
1.30057	34.52
1.31723	34.52
1.33390	34.52
1.35057	34.52
1.36723	34.52
1.38390	34.52
1.40057	34.52
1.41723	34.52
1.43390	34.52
1.45057	34.52
1.46723	34.52
1.48390	34.52
1.50057	34.52
1.51723	34.52
1.53390	34.52
1.55057	34.52
1.56723	34.52
1.58390	34.52
1.60057	34.52
1.61723	34.52
1.63390	34.52
1.65057	34.52
1.66723	34.52
1.68390	34.52
1.70057	34.52
1.71723	34.52
1.73390	34.52
1.75057	34.52
1.76723	34.52
1.78390	34.52
1.80057	34.52
1.81723	34.52
1.83390	34.52
1.85057	34.52
1.86723	34.52
1.88390	34.52
1.90057	34.52
1.91723	34.52
1.93390	34.52
1.95057	34.52
1.96723	34.52
1.98390	34.52
2.00057	34.52
2.01723	34.52
2.03390	34.52
2.05057	34.52
2.06723	34.52
2.08390	34.52
2.10057	34.52
2.11723	34.52
2.13390	34.52
2.15057	34.52
2.16723	34.52
2.18390	34.52
2.20057	34.52
2.21723	34.52
2.23390	34.52
2.25057	34.52
2.26723	34.52
2.28390	34.52
2.30057	34.52
2.31723	34.52
2.33390	34.52
2.35057	34.52
2.36723	34.52
2.38390	34.52
2.40057	34.52
2.41723	34.52
2.43390	34.52
2.45057	34.52
2.46723	34.52
2.48390	34.52
2.50057	34.52
2.51723	34.52
2.53390	34.52
2.55057	34.52
2.56723	34.52
2.58390	34.52
2.60057	34.52
2.61723	34.52
2.63390	34.52
2.65057	34.52
2.66723	34.52
2.68390	34.52
2.70057	34.52
2.71723	34.52
2.73390	34.52
2.75057	34.52
2.76723	34.52
2.78390	34.52
2.80057	34.52
2.81723	34.52
2.83390	34.52
2.85057	34.52
2.86723	34.52
2.88390	34.52
2.90057	34.51
2.91723	34.52
2.93390	34.52
2.95057	34.52
2.96723	34.51
2.98390	34.52
3.00057	34.52
3.01723	34.53
3.03390	34.52
3.05057	34.52
3.06723	34.52
3.08390	34.51
3.10057	34.52
3.11723	34.52
3.13390	34.51
3.15057	34.51
3.16723	34.51
3.18390	34.52
3.20057	34.52
3.21723	34.50
3.23390	34.51
3.25057	34.52
3.26723	34.52
3.28390	34.52
3.30057	34.52
3.31723	34.51
3.33390	34.52
3.35057	34.52
3.36723	34.50
3.38390	34.51
3.40057	34.52
3.41723	34.52
3.43390	34.53
3.45057	34.52
3.46723	34.52
3.48390	34.52
3.50057	34.52
3.51723	34.50
3.53390	34.52
3.55057	34.53
3.56723	34.52
3.58390	34.52
3.60057	34.51
3.61723	34.52
3.63390	34.52
3.65057	34.52
3.66723	34.52
3.68390	34.52
3.70057	34.52
3.71723	34.52
3.73390	34.52
3.75057	34.52
3.76723	34.52
3.78390	34.52
3.80057	34.52
3.81723	34.52
3.83390	34.52
3.85057	34.52
3.86723	34.52
3.88390	34.52
3.90057	34.52
3.91723	34.52
3.93390	34.52
3.95057	34.52
3.96723	34.52
3.98390	34.52

[Status Trace (Column Flow)]
Interval(msec)	1000
# of Points	240
Start Time(min)	0.001
End Time(min)	3.984
Intensity Units	
Intensity Multiplier	1
R.Time (min)	Intensity
0.00057	5.46
0.01723	5.31
0.03390	5.23
0.05057	5.50
0.06723	5.68
0.08390	5.51
0.10057	5.45
0.11723	5.46
0.13390	5.46
0.15057	5.46
0.16723	5.46
0.18390	5.46
0.20057	5.46
0.21723	5.46
0.23390	5.46
0.25057	5.46
0.26723	5.46
0.28390	5.46
0.30057	5.46
0.31723	5.46
0.33390	5.46
0.35057	5.46
0.36723	5.46
0.38390	5.46
0.40057	5.46
0.41723	5.46
0.43390	5.46
0.45057	5.46
0.46723	5.46
0.48390	5.46
0.50057	5.46
0.51723	5.46
0.53390	5.46
0.55057	5.46
0.56723	5.46
0.58390	5.46
0.60057	5.46
0.61723	5.46
0.63390	5.46
0.65057	5.46
0.66723	5.46
0.68390	5.46
0.70057	5.46
0.71723	5.46
0.73390	5.46
0.75057	5.46
0.76723	5.46
0.78390	5.46
0.80057	5.46
0.81723	5.46
0.83390	5.46
0.85057	5.46
0.86723	5.46
0.88390	5.46
0.90057	5.46
0.91723	5.46
0.93390	5.46
0.95057	5.46
0.96723	5.46
0.98390	5.46
1.00057	5.46
1.01723	5.46
1.03390	5.46
1.05057	5.46
1.06723	5.46
1.08390	5.46
1.10057	5.46
1.11723	5.46
1.13390	5.46
1.15057	5.46
1.16723	5.46
1.18390	5.46
1.20057	5.46
1.21723	5.46
1.23390	5.46
1.25057	5.46
1.26723	5.46
1.28390	5.46
1.30057	5.46
1.31723	5.46
1.33390	5.46
1.35057	5.46
1.36723	5.46
1.38390	5.46
1.40057	5.46
1.41723	5.46
1.43390	5.46
1.45057	5.46
1.46723	5.46
1.48390	5.46
1.50057	5.46
1.51723	5.46
1.53390	5.46
1.55057	5.46
1.56723	5.46
1.58390	5.46
1.60057	5.46
1.61723	5.45
1.63390	5.45
1.65057	5.44
1.66723	5.43
1.68390	5.42
1.70057	5.41
1.71723	5.40
1.73390	5.39
1.75057	5.38
1.76723	5.37
1.78390	5.36
1.80057	5.35
1.81723	5.34
1.83390	5.33
1.85057	5.32
1.86723	5.31
1.88390	5.30
1.90057	5.29
1.91723	5.28
1.93390	5.27
1.95057	5.26
1.96723	5.25
1.98390	5.24
2.00057	5.23
2.01723	5.22
2.03390	5.21
2.05057	5.20
2.06723	5.20
2.08390	5.19
2.10057	5.18
2.11723	5.17
2.13390	5.16
2.15057	5.15
2.16723	5.14
2.18390	5.13
2.20057	5.12
2.21723	5.11
2.23390	5.10
2.25057	5.09
2.26723	5.08
2.28390	5.07
2.30057	5.06
2.31723	5.06
2.33390	5.05
2.35057	5.04
2.36723	5.03
2.38390	5.03
2.40057	5.03
2.41723	5.03
2.43390	5.03
2.45057	5.03
2.46723	5.03
2.48390	5.03
2.50057	5.03
2.51723	5.02
2.53390	5.02
2.55057	5.03
2.56723	5.02
2.58390	5.02
2.60057	5.02
2.61723	5.02
2.63390	5.02
2.65057	5.02
2.66723	5.02
2.68390	5.02
2.70057	5.02
2.71723	5.02
2.73390	5.02
2.75057	5.02
2.76723	5.02
2.78390	5.02
2.80057	5.02
2.81723	5.02
2.83390	5.02
2.85057	5.02
2.86723	5.02
2.88390	5.02
2.90057	5.02
2.91723	5.02
2.93390	5.02
2.95057	5.02
2.96723	5.02
2.98390	5.02
3.00057	5.02
3.01723	5.02
3.03390	5.02
3.05057	5.02
3.06723	5.02
3.08390	5.02
3.10057	5.02
3.11723	5.02
3.13390	5.02
3.15057	5.02
3.16723	5.02
3.18390	5.02
3.20057	5.02
3.21723	5.02
3.23390	5.02
3.25057	5.02
3.26723	5.02
3.28390	5.02
3.30057	5.02
3.31723	5.02
3.33390	5.02
3.35057	5.02
3.36723	5.02
3.38390	5.02
3.40057	5.02
3.41723	5.02
3.43390	5.02
3.45057	5.02
3.46723	5.02
3.48390	5.02
3.50057	5.02
3.51723	5.02
3.53390	5.02
3.55057	5.02
3.56723	5.02
3.58390	5.02
3.60057	5.02
3.61723	5.02
3.63390	5.02
3.65057	5.02
3.66723	5.02
3.68390	5.02
3.70057	5.02
3.71723	5.02
3.73390	5.02
3.75057	5.02
3.76723	5.02
3.78390	5.02
3.80057	5.02
3.81723	5.02
3.83390	5.02
3.85057	5.02
3.86723	5.02
3.88390	5.02
3.90057	5.02
3.91723	5.02
3.93390	5.02
3.95057	5.02
3.96723	5.02
3.98390	5.02

[Status Trace (Linear Velocity)]
Interval(msec)	1000
# of Points	240
Start Time(min)	0.001
End Time(min)	3.984
Intensity Units	
Intensity Multiplier	1
R.Time (min)	Intensity
0.00057	39.00
0.01723	38.17
0.03390	37.70
0.05057	39.23
0.06723	40.26
0.08390	39.30
0.10057	38.98
0.11723	39.00
0.13390	39.01
0.15057	39.01
0.16723	39.01
0.18390	39.01
0.20057	39.01
0.21723	39.01
0.23390	39.01
0.25057	39.01
0.26723	39.00
0.28390	39.00
0.30057	39.00
0.31723	39.00
0.33390	39.00
0.35057	39.00
0.36723	39.00
0.38390	39.00
0.40057	39.00
0.41723	39.00
0.43390	39.00
0.45057	39.00
0.46723	39.00
0.48390	39.00
0.50057	39.00
0.51723	39.00
0.53390	39.00
0.55057	39.00
0.56723	39.00
0.58390	39.00
0.60057	39.00
0.61723	39.00
0.63390	39.00
0.65057	39.00
0.66723	39.00
0.68390	39.00
0.70057	39.00
0.71723	39.00
0.73390	39.00
0.75057	39.00
0.76723	39.00
0.78390	39.01
0.80057	39.01
0.81723	39.01
0.83390	39.00
0.85057	39.00
0.86723	39.00
0.88390	39.00
0.90057	39.00
0.91723	39.00
0.93390	39.00
0.95057	39.00
0.96723	39.00
0.98390	39.00
1.00057	39.00
1.01723	39.00
1.03390	39.00
1.05057	39.00
1.06723	39.00
1.08390	39.00
1.10057	39.00
1.11723	39.00
1.13390	39.00
1.15057	39.00
1.16723	39.00
1.18390	39.00
1.20057	39.00
1.21723	39.00
1.23390	39.00
1.25057	39.00
1.26723	39.00
1.28390	39.00
1.30057	39.00
1.31723	39.00
1.33390	39.00
1.35057	39.00
1.36723	39.00
1.38390	39.00
1.40057	39.00
1.41723	39.00
1.43390	39.00
1.45057	39.00
1.46723	39.00
1.48390	39.00
1.50057	39.00
1.51723	39.00
1.53390	39.00
1.55057	39.00
1.56723	39.00
1.58390	39.00
1.60057	39.00
1.61723	38.99
1.63390	38.98
1.65057	38.96
1.66723	38.93
1.68390	38.90
1.70057	38.86
1.71723	38.82
1.73390	38.79
1.75057	38.76
1.76723	38.73
1.78390	38.70
1.80057	38.67
1.81723	38.64
1.83390	38.61
1.85057	38.57
1.86723	38.54
1.88390	38.51
1.90057	38.48
1.91723	38.45
1.93390	38.42
1.95057	38.39
1.96723	38.36
1.98390	38.33
2.00057	38.30
2.01723	38.27
2.03390	38.24
2.05057	38.21
2.06723	38.18
2.08390	38.15
2.10057	38.12
2.11723	38.09
2.13390	38.06
2.15057	38.03
2.16723	38.00
2.18390	37.97
2.20057	37.94
2.21723	37.91
2.23390	37.88
2.25057	37.85
2.26723	37.83
2.28390	37.80
2.30057	37.76
2.31723	37.74
2.33390	37.71
2.35057	37.68
2.36723	37.65
2.38390	37.64
2.40057	37.64
2.41723	37.64
2.43390	37.64
2.45057	37.64
2.46723	37.64
2.48390	37.64
2.50057	37.64
2.51723	37.63
2.53390	37.63
2.55057	37.64
2.56723	37.63
2.58390	37.63
2.60057	37.63
2.61723	37.63
2.63390	37.63
2.65057	37.63
2.66723	37.63
2.68390	37.63
2.70057	37.63
2.71723	37.63
2.73390	37.63
2.75057	37.63
2.76723	37.63
2.78390	37.63
2.80057	37.63
2.81723	37.63
2.83390	37.63
2.85057	37.63
2.86723	37.63
2.88390	37.62
2.90057	37.62
2.91723	37.62
2.93390	37.62
2.95057	37.62
2.96723	37.62
2.98390	37.62
3.00057	37.62
3.01723	37.62
3.03390	37.62
3.05057	37.62
3.06723	37.61
3.08390	37.61
3.10057	37.61
3.11723	37.61
3.13390	37.61
3.15057	37.61
3.16723	37.61
3.18390	37.61
3.20057	37.61
3.21723	37.61
3.23390	37.61
3.25057	37.61
3.26723	37.61
3.28390	37.61
3.30057	37.61
3.31723	37.61
3.33390	37.61
3.35057	37.61
3.36723	37.62
3.38390	37.62
3.40057	37.62
3.41723	37.62
3.43390	37.62
3.45057	37.61
3.46723	37.61
3.48390	37.61
3.50057	37.61
3.51723	37.61
3.53390	37.61
3.55057	37.61
3.56723	37.61
3.58390	37.61
3.60057	37.61
3.61723	37.61
3.63390	37.61
3.65057	37.61
3.66723	37.61
3.68390	37.61
3.70057	37.61
3.71723	37.61
3.73390	37.61
3.75057	37.61
3.76723	37.61
3.78390	37.61
3.80057	37.61
3.81723	37.61
3.83390	37.61
3.85057	37.61
3.86723	37.61
3.88390	37.61
3.90057	37.61
3.91723	37.61
3.93390	37.61
3.95057	37.61
3.96723	37.61
3.98390	37.61

