[Header]
Application Name	LabSolutions
Version	5.110
Data File Name	C:\Users\User\Desktop\GC Analyses\Jack\UIC Prairie Sampling\9.2.22\220902_001.gcd
Output Date	10/28/2022
Output Time	1:23:51 PM

[File Information]
Type	Data File
Generated	10/25/2022 10:35:20 AM
Generated by	System Administrator
Modified	10/25/2022 10:39:49 AM
Modified by	System Administrator

[Sample Information]
Operator Name	System Administrator
Acquired	10/25/2022 10:35:49 AM
Sample Type	1:Standard
Level	1
Sample Name	220812_UICPrairie
Sample ID	220812_UICPrairie
ISTD Amount1	1
ISTD Amount2	1
ISTD Amount3	1
ISTD Amount4	1
ISTD Amount5	1
ISTD Amount6	1
ISTD Amount7	1
ISTD Amount8	1
ISTD Amount9	1
ISTD Amount10	1
ISTD Amount11	1
ISTD Amount12	1
ISTD Amount13	1
ISTD Amount14	1
ISTD Amount15	1
ISTD Amount16	1
ISTD Amount17	1
ISTD Amount18	1
ISTD Amount19	1
ISTD Amount20	1
ISTD Amount21	1
ISTD Amount22	1
ISTD Amount23	1
ISTD Amount24	1
ISTD Amount25	1
ISTD Amount26	1
ISTD Amount27	1
ISTD Amount28	1
ISTD Amount29	1
ISTD Amount30	1
ISTD Amount31	1
ISTD Amount32	1
Sample Amount	1
Dilution Factor	1
Vial#	1
Injection Volume	1
Injection Count	1
Bar Code	

[Original Files]
Data File	C:\Users\User\Desktop\GC Analyses\Jack\UIC Prairie Sampling\9.2.22\220902_001.gcd
Method File	C:\LabSolutions\Data\GHG_4min_2022\ghg3_togas_w_acet_4 min_new_int.gcm
Batch File	
Report Format File	c:\LabSolutions\System\DEFAULT.lsr

[File Description]


[Configuration]
Instrument Name	C0B7VH3-Instrument1
Instrument #	1
Line #	1
# of Detectors	3
Detector ID	DET#1	DET#2	DET#3
Detector Name	FID	PTCD	ECD
# of Channels	1	1	1

[Peak Table(Ch1)]
# of Peaks	3
Peak#	R.Time	I.Time	F.Time	Area	Height	A/H	Conc.	Mark	ID#	Name	k'	Plate #	Plate Ht.	Tailing	Resolution	Sep.Factor	Area Ratio	Height Ratio	Conc. %	Norm Conc.
1	1.468	1.439	1.538	6151	2270	2.710	100.000	   	1	CO	0.000	6651	22.552	1.777	0.000	0.000	0	0	16.667	16.667
2	1.575	1.538	1.663	10996	6261	1.756	100.000	 V 	2	CH4	0.072	14560	10.302	1.117	1.712	0.000	0	0	16.667	16.667
3	2.000	1.952	2.268	1439269	727289	1.979	400.000	   	3	CO2	0.362	18992	7.898	1.244	7.716	5.000	0	0	66.667	66.667

[Peak Table(Ch2)]
# of Peaks	0

[Peak Table(Ch3)]
# of Peaks	3
Peak#	R.Time	I.Time	F.Time	Area	Height	A/H	Conc.	Mark	ID#	Name	k'	Plate #	Plate Ht.	Tailing	Resolution	Sep.Factor	Area Ratio	Height Ratio	Conc. %	Norm Conc.
1	2.605	2.488	2.645	639	148	4.310	0.000	   			0.000	6024	24.899	0.690	0.000	0.000	0	0	0.000	0.000
2	2.887	2.664	3.705	41842	9632	4.344	1.000	S  	1	N2O	0.108	13469	11.137	1.669	2.416	0.000	0	0	50.000	50.000
3	3.291	3.173	3.481	319	32	10.096	1.000	T  	2	SF6	0.263	2865	52.350	1.336	2.335	2.429	0	0	50.000	50.000

[Compound Results(Ch1)]
# of IDs	6
ID#	Name	R.Time	Area	Height	Conc.	Curve	3rd	2nd	1st	Constant	Area Ratio	Height Ratio	Conc. %	Norm Conc.
1	CO	1.468	6151	2270	100.000	Linear	0.000000e+00	0.000000e+00	6.150770e+001	0.000000e+00	0	0	16.667	16.667
2	CH4	1.575	10996	6261	100.000	Linear	0.000000e+00	0.000000e+00	1.099566e+002	0.000000e+00	0	0	16.667	16.667
3	CO2	2.000	1439269	727289	400.000	Linear	0.000000e+00	0.000000e+00	3.598173e+003	0.000000e+00	0	0	66.667	66.667
4	Ethylene	0.000	0	0	0.000	Linear	0.000000e+00	0.000000e+00	0.000000e+00	0.000000e+00	0	0	0.000	0.000
5	Acetylene	0.000	0	0	0.000	Linear	0.000000e+00	0.000000e+00	0.000000e+00	0.000000e+00	0	0	0.000	0.000
6	Ethane	0.000	0	0	0.000	Linear	0.000000e+00	0.000000e+00	0.000000e+00	0.000000e+00	0	0	0.000	0.000

[Compound Results(Ch2)]
# of IDs	5
ID#	Name	R.Time	Area	Height	Conc.	Curve	3rd	2nd	1st	Constant	Area Ratio	Height Ratio	Conc. %	Norm Conc.
1	Hydrogen	0.000	0	0	0.000	Linear	0.000000e+00	0.000000e+00	0.000000e+00	0.000000e+00	0	0	0.000	0.000
2	Oxygen	0.000	0	0	0.000	Linear	0.000000e+00	0.000000e+00	0.000000e+00	0.000000e+00	0	0	0.000	0.000
3	Nitrogen	0.000	0	0	0.000	Linear	0.000000e+00	0.000000e+00	0.000000e+00	0.000000e+00	0	0	0.000	0.000
4	Methane	0.000	0	0	0.000	Linear	0.000000e+00	0.000000e+00	0.000000e+00	0.000000e+00	0	0	0.000	0.000
5	Carbon Monoxide	0.000	0	0	0.000	Linear	0.000000e+00	0.000000e+00	0.000000e+00	0.000000e+00	0	0	0.000	0.000

[Compound Results(Ch3)]
# of IDs	2
ID#	Name	R.Time	Area	Height	Conc.	Curve	3rd	2nd	1st	Constant	Area Ratio	Height Ratio	Conc. %	Norm Conc.
1	N2O	2.887	41842	9632	1.000	Linear	0.000000e+00	0.000000e+00	4.184213e+004	0.000000e+00	0	0	50.000	50.000
2	SF6	3.291	319	32	1.000	Linear	0.000000e+00	0.000000e+00	3.190389e+002	0.000000e+00	0	0	50.000	50.000

[Group Results(Ch1)]
# of Groups	0

[Group Results(Ch2)]
# of Groups	0

[Group Results(Ch3)]
# of Groups	0

[Chromatogram (Ch1)]
Interval(msec)	220
# of Points	1091
Start Time(min)	0.002
End Time(min)	3.998
R.Time (min)	Intensity
0.00167	-2
0.00533	0
0.00900	6
0.01267	12
0.01633	16
0.02000	17
0.02367	18
0.02733	16
0.03100	12
0.03467	9
0.03833	7
0.04200	5
0.04567	6
0.04933	8
0.05300	12
0.05667	16
0.06033	19
0.06400	18
0.06767	16
0.07133	17
0.07500	21
0.07867	25
0.08233	28
0.08600	31
0.08967	35
0.09333	36
0.09700	32
0.10067	27
0.10433	29
0.10800	31
0.11167	31
0.11533	26
0.11900	20
0.12267	17
0.12633	15
0.13000	15
0.13367	12
0.13733	7
0.14100	4
0.14467	4
0.14833	5
0.15200	8
0.15567	9
0.15933	7
0.16300	5
0.16667	8
0.17033	16
0.17400	26
0.17767	33
0.18133	35
0.18500	34
0.18867	32
0.19233	25
0.19600	16
0.19967	7
0.20333	3
0.20700	2
0.21067	2
0.21433	4
0.21800	8
0.22167	10
0.22533	9
0.22900	6
0.23267	3
0.23633	3
0.24000	4
0.24367	7
0.24733	7
0.25100	9
0.25467	12
0.25833	15
0.26200	16
0.26567	18
0.26933	21
0.27300	24
0.27667	30
0.28033	37
0.28400	40
0.28767	37
0.29133	33
0.29500	26
0.29867	17
0.30233	7
0.30600	-2
0.30967	-8
0.31333	-10
0.31700	-9
0.32067	-6
0.32433	-3
0.32800	0
0.33167	4
0.33533	10
0.33900	17
0.34267	25
0.34633	31
0.35000	35
0.35367	35
0.35733	29
0.36100	22
0.36467	19
0.36833	16
0.37200	13
0.37567	12
0.37933	15
0.38300	20
0.38667	27
0.39033	30
0.39400	28
0.39767	24
0.40133	18
0.40500	12
0.40867	5
0.41233	-1
0.41600	-2
0.41967	3
0.42333	11
0.42700	17
0.43067	18
0.43433	17
0.43800	16
0.44167	18
0.44533	26
0.44900	33
0.45267	35
0.45633	34
0.46000	32
0.46367	27
0.46733	22
0.47100	23
0.47467	27
0.47833	31
0.48200	31
0.48567	28
0.48933	23
0.49300	20
0.49667	18
0.50033	16
0.50400	12
0.50767	11
0.51133	10
0.51500	7
0.51867	4
0.52233	2
0.52600	-0
0.52967	-0
0.53333	4
0.53700	8
0.54067	9
0.54433	6
0.54800	3
0.55167	2
0.55533	4
0.55900	12
0.56267	22
0.56633	29
0.57000	35
0.57367	37
0.57733	33
0.58100	25
0.58467	12
0.58833	-3
0.59200	-14
0.59567	-19
0.59933	-18
0.60300	-14
0.60667	-10
0.61033	-6
0.61400	-4
0.61767	-3
0.62133	2
0.62500	8
0.62867	13
0.63233	16
0.63600	17
0.63967	15
0.64333	12
0.64700	12
0.65067	14
0.65433	16
0.65800	17
0.66167	20
0.66533	22
0.66900	22
0.67267	20
0.67633	18
0.68000	19
0.68367	20
0.68733	17
0.69100	11
0.69467	7
0.69833	8
0.70200	10
0.70567	15
0.70933	24
0.71300	34
0.71667	46
0.72033	53
0.72400	53
0.72767	47
0.73133	38
0.73500	29
0.73867	21
0.74233	12
0.74600	5
0.74967	-3
0.75333	-7
0.75700	-6
0.76067	-5
0.76433	-4
0.76800	-3
0.77167	0
0.77533	3
0.77900	5
0.78267	6
0.78633	8
0.79000	12
0.79367	19
0.79733	26
0.80100	30
0.80467	28
0.80833	21
0.81200	13
0.81567	9
0.81933	10
0.82300	10
0.82667	8
0.83033	5
0.83400	2
0.83767	-1
0.84133	-2
0.84500	-1
0.84867	4
0.85233	10
0.85600	17
0.85967	19
0.86333	20
0.86700	23
0.87067	26
0.87433	24
0.87800	19
0.88167	14
0.88533	11
0.88900	10
0.89267	13
0.89633	20
0.90000	24
0.90367	26
0.90733	24
0.91100	21
0.91467	21
0.91833	23
0.92200	29
0.92567	37
0.92933	43
0.93300	43
0.93667	34
0.94033	23
0.94400	19
0.94767	18
0.95133	18
0.95500	18
0.95867	17
0.96233	16
0.96600	15
0.96967	14
0.97333	15
0.97700	16
0.98067	16
0.98433	15
0.98800	17
0.99167	22
0.99533	27
0.99900	29
1.00267	30
1.00633	32
1.01000	30
1.01367	25
1.01733	17
1.02100	13
1.02467	12
1.02833	9
1.03200	6
1.03567	6
1.03933	10
1.04300	12
1.04667	13
1.05033	16
1.05400	20
1.05767	22
1.06133	24
1.06500	25
1.06867	27
1.07233	27
1.07600	24
1.07967	21
1.08333	21
1.08700	22
1.09067	21
1.09433	16
1.09800	14
1.10167	10
1.10533	7
1.10900	8
1.11267	10
1.11633	14
1.12000	17
1.12367	21
1.12733	21
1.13100	20
1.13467	20
1.13833	26
1.14200	33
1.14567	33
1.14933	26
1.15300	16
1.15667	3
1.16033	-11
1.16400	-20
1.16767	-23
1.17133	-21
1.17500	-16
1.17867	-8
1.18233	4
1.18600	18
1.18967	28
1.19333	30
1.19700	24
1.20067	13
1.20433	3
1.20800	-5
1.21167	-10
1.21533	-8
1.21900	-4
1.22267	-0
1.22633	2
1.23000	3
1.23367	3
1.23733	-2
1.24100	-9
1.24467	-16
1.24833	-21
1.25200	-19
1.25567	-12
1.25933	-6
1.26300	-3
1.26667	-2
1.27033	0
1.27400	5
1.27767	8
1.28133	8
1.28500	9
1.28867	11
1.29233	14
1.29600	14
1.29967	14
1.30333	14
1.30700	13
1.31067	10
1.31433	8
1.31800	9
1.32167	12
1.32533	15
1.32900	14
1.33267	10
1.33633	6
1.34000	2
1.34367	2
1.34733	5
1.35100	12
1.35467	17
1.35833	19
1.36200	17
1.36567	13
1.36933	11
1.37300	11
1.37667	12
1.38033	11
1.38400	10
1.38767	11
1.39133	14
1.39500	16
1.39867	20
1.40233	26
1.40600	35
1.40967	43
1.41333	47
1.41700	46
1.42067	43
1.42433	39
1.42800	34
1.43167	30
1.43533	26
1.43900	37
1.44267	132
1.44633	447
1.45000	959
1.45367	1473
1.45733	1864
1.46100	2112
1.46467	2245
1.46833	2302
1.47200	2299
1.47567	2239
1.47933	2115
1.48300	1931
1.48667	1694
1.49033	1429
1.49400	1168
1.49767	934
1.50133	736
1.50500	578
1.50867	458
1.51233	366
1.51600	295
1.51967	242
1.52333	201
1.52700	170
1.53067	148
1.53433	132
1.53800	127
1.54167	151
1.54533	258
1.54900	510
1.55267	931
1.55633	1531
1.56000	2376
1.56367	3516
1.56733	4802
1.57100	5854
1.57467	6277
1.57833	5940
1.58200	5041
1.58567	3924
1.58933	2864
1.59300	1999
1.59667	1354
1.60033	899
1.60400	591
1.60767	390
1.61133	262
1.61500	182
1.61867	132
1.62233	103
1.62600	85
1.62967	74
1.63333	65
1.63700	59
1.64067	52
1.64433	42
1.64800	34
1.65167	26
1.65533	20
1.65900	13
1.66267	4
1.66633	-5
1.67000	-10
1.67367	-11
1.67733	-9
1.68100	-4
1.68467	2
1.68833	10
1.69200	21
1.69567	31
1.69933	34
1.70300	36
1.70667	40
1.71033	36
1.71400	27
1.71767	18
1.72133	9
1.72500	2
1.72867	-2
1.73233	-1
1.73600	4
1.73967	10
1.74333	13
1.74700	11
1.75067	9
1.75433	7
1.75800	7
1.76167	7
1.76533	6
1.76900	9
1.77267	19
1.77633	29
1.78000	35
1.78367	37
1.78733	38
1.79100	37
1.79467	36
1.79833	34
1.80200	32
1.80567	30
1.80933	29
1.81300	34
1.81667	42
1.82033	51
1.82400	58
1.82767	60
1.83133	55
1.83500	45
1.83867	36
1.84233	32
1.84600	31
1.84967	30
1.85333	26
1.85700	23
1.86067	23
1.86433	26
1.86800	30
1.87167	31
1.87533	31
1.87900	31
1.88267	35
1.88633	43
1.89000	52
1.89367	57
1.89733	58
1.90100	56
1.90467	50
1.90833	43
1.91200	36
1.91567	33
1.91933	29
1.92300	25
1.92667	26
1.93033	32
1.93400	37
1.93767	38
1.94133	37
1.94500	38
1.94867	41
1.95233	53
1.95600	89
1.95967	282
1.96333	1252
1.96700	5128
1.97067	16984
1.97433	45247
1.97800	99154
1.98167	183773
1.98533	296854
1.98900	428126
1.99267	559850
1.99633	667694
2.00000	727390
2.00367	724862
2.00733	663382
2.01100	561573
2.01467	444171
2.01833	332238
2.02200	238055
2.02567	165414
2.02933	112690
2.03300	75986
2.03667	51137
2.04033	34610
2.04400	23724
2.04767	16573
2.05133	11859
2.05500	8728
2.05867	6621
2.06233	5179
2.06600	4171
2.06967	3448
2.07333	2916
2.07700	2513
2.08067	2202
2.08433	1959
2.08800	1769
2.09167	1615
2.09533	1484
2.09900	1370
2.10267	1270
2.10633	1186
2.11000	1117
2.11367	1058
2.11733	1005
2.12100	959
2.12467	919
2.12833	881
2.13200	841
2.13567	802
2.13933	768
2.14300	738
2.14667	710
2.15033	684
2.15400	660
2.15767	640
2.16133	628
2.16500	618
2.16867	608
2.17233	594
2.17600	577
2.17967	558
2.18333	538
2.18700	520
2.19067	505
2.19433	495
2.19800	489
2.20167	487
2.20533	484
2.20900	475
2.21267	463
2.21633	453
2.22000	448
2.22367	445
2.22733	441
2.23100	434
2.23467	422
2.23833	409
2.24200	401
2.24567	398
2.24933	394
2.25300	387
2.25667	379
2.26033	374
2.26400	371
2.26767	370
2.27133	369
2.27500	369
2.27867	369
2.28233	368
2.28600	367
2.28967	367
2.29333	370
2.29700	371
2.30067	370
2.30433	367
2.30800	367
2.31167	367
2.31533	365
2.31900	362
2.32267	360
2.32633	361
2.33000	364
2.33367	365
2.33733	360
2.34100	349
2.34467	332
2.34833	318
2.35200	309
2.35567	304
2.35933	303
2.36300	305
2.36667	312
2.37033	319
2.37400	322
2.37767	325
2.38133	328
2.38500	333
2.38867	336
2.39233	336
2.39600	334
2.39967	334
2.40333	335
2.40700	337
2.41067	335
2.41433	331
2.41800	326
2.42167	322
2.42533	319
2.42900	319
2.43267	321
2.43633	321
2.44000	319
2.44367	317
2.44733	319
2.45100	323
2.45467	324
2.45833	320
2.46200	316
2.46567	314
2.46933	311
2.47300	310
2.47667	311
2.48033	313
2.48400	313
2.48767	315
2.49133	318
2.49500	319
2.49867	318
2.50233	320
2.50600	322
2.50967	325
2.51333	324
2.51700	321
2.52067	320
2.52433	318
2.52800	317
2.53167	319
2.53533	320
2.53900	317
2.54267	313
2.54633	311
2.55000	313
2.55367	313
2.55733	309
2.56100	303
2.56467	299
2.56833	298
2.57200	300
2.57567	304
2.57933	303
2.58300	298
2.58667	296
2.59033	298
2.59400	304
2.59767	310
2.60133	312
2.60500	310
2.60867	308
2.61233	304
2.61600	299
2.61967	294
2.62333	292
2.62700	293
2.63067	293
2.63433	295
2.63800	298
2.64167	303
2.64533	307
2.64900	307
2.65267	307
2.65633	308
2.66000	310
2.66367	313
2.66733	314
2.67100	312
2.67467	307
2.67833	299
2.68200	295
2.68567	294
2.68933	295
2.69300	295
2.69667	292
2.70033	290
2.70400	289
2.70767	286
2.71133	287
2.71500	289
2.71867	294
2.72233	300
2.72600	301
2.72967	298
2.73333	294
2.73700	292
2.74067	294
2.74433	296
2.74800	297
2.75167	298
2.75533	296
2.75900	294
2.76267	296
2.76633	302
2.77000	304
2.77367	303
2.77733	301
2.78100	297
2.78467	294
2.78833	295
2.79200	297
2.79567	300
2.79933	302
2.80300	303
2.80667	302
2.81033	302
2.81400	305
2.81767	308
2.82133	309
2.82500	313
2.82867	320
2.83233	326
2.83600	326
2.83967	323
2.84333	319
2.84700	314
2.85067	308
2.85433	301
2.85800	297
2.86167	297
2.86533	300
2.86900	305
2.87267	311
2.87633	315
2.88000	314
2.88367	312
2.88733	311
2.89100	306
2.89467	296
2.89833	286
2.90200	280
2.90567	281
2.90933	287
2.91300	294
2.91667	300
2.92033	307
2.92400	311
2.92767	311
2.93133	309
2.93500	306
2.93867	304
2.94233	305
2.94600	308
2.94967	309
2.95333	311
2.95700	310
2.96067	308
2.96433	311
2.96800	313
2.97167	314
2.97533	312
2.97900	309
2.98267	303
2.98633	297
2.99000	293
2.99367	294
2.99733	299
3.00100	306
3.00467	315
3.00833	324
3.01200	332
3.01567	335
3.01933	333
3.02300	327
3.02667	318
3.03033	311
3.03400	310
3.03767	314
3.04133	318
3.04500	320
3.04867	319
3.05233	318
3.05600	318
3.05967	318
3.06333	322
3.06700	325
3.07067	324
3.07433	320
3.07800	316
3.08167	315
3.08533	314
3.08900	313
3.09267	312
3.09633	303
3.10000	302
3.10367	302
3.10733	300
3.11100	300
3.11467	301
3.11833	305
3.12200	310
3.12567	314
3.12933	317
3.13300	320
3.13667	321
3.14033	321
3.14400	321
3.14767	320
3.15133	318
3.15500	316
3.15867	317
3.16233	324
3.16600	335
3.16967	345
3.17333	348
3.17700	343
3.18067	334
3.18433	329
3.18800	328
3.19167	327
3.19533	322
3.19900	316
3.20267	310
3.20633	308
3.21000	308
3.21367	310
3.21733	312
3.22100	312
3.22467	310
3.22833	309
3.23200	312
3.23567	313
3.23933	307
3.24300	299
3.24667	302
3.25033	307
3.25400	311
3.25767	310
3.26133	308
3.26500	305
3.26867	302
3.27233	301
3.27600	305
3.27967	310
3.28333	312
3.28700	311
3.29067	312
3.29433	317
3.29800	320
3.30167	321
3.30533	322
3.30900	326
3.31267	332
3.31633	339
3.32000	343
3.32367	339
3.32733	331
3.33100	322
3.33467	316
3.33833	315
3.34200	315
3.34567	314
3.34933	311
3.35300	311
3.35667	314
3.36033	319
3.36400	325
3.36767	329
3.37133	329
3.37500	328
3.37867	327
3.38233	328
3.38600	327
3.38967	324
3.39333	321
3.39700	318
3.40067	316
3.40433	315
3.40800	314
3.41167	316
3.41533	321
3.41900	327
3.42267	336
3.42633	343
3.43000	346
3.43367	342
3.43733	333
3.44100	324
3.44467	317
3.44833	312
3.45200	314
3.45567	323
3.45933	333
3.46300	340
3.46667	342
3.47033	339
3.47400	336
3.47767	331
3.48133	323
3.48500	319
3.48867	319
3.49233	322
3.49600	326
3.49967	328
3.50333	327
3.50700	323
3.51067	319
3.51433	318
3.51800	323
3.52167	326
3.52533	327
3.52900	322
3.53267	316
3.53633	314
3.54000	312
3.54367	308
3.54733	305
3.55100	309
3.55467	316
3.55833	324
3.56200	330
3.56567	331
3.56933	327
3.57300	320
3.57667	315
3.58033	312
3.58400	314
3.58767	318
3.59133	324
3.59500	332
3.59867	338
3.60233	339
3.60600	335
3.60967	330
3.61333	326
3.61700	324
3.62067	325
3.62433	327
3.62800	328
3.63167	331
3.63533	333
3.63900	333
3.64267	331
3.64633	324
3.65000	317
3.65367	309
3.65733	303
3.66100	298
3.66467	295
3.66833	294
3.67200	296
3.67567	302
3.67933	312
3.68300	323
3.68667	332
3.69033	336
3.69400	333
3.69767	325
3.70133	318
3.70500	310
3.70867	304
3.71233	298
3.71600	293
3.71967	290
3.72333	290
3.72700	293
3.73067	298
3.73433	304
3.73800	310
3.74167	314
3.74533	315
3.74900	314
3.75267	311
3.75633	307
3.76000	307
3.76367	312
3.76733	316
3.77100	320
3.77467	322
3.77833	321
3.78200	321
3.78567	321
3.78933	322
3.79300	323
3.79667	324
3.80033	326
3.80400	325
3.80767	320
3.81133	316
3.81500	314
3.81867	309
3.82233	305
3.82600	301
3.82967	301
3.83333	301
3.83700	298
3.84067	296
3.84433	296
3.84800	300
3.85167	301
3.85533	298
3.85900	295
3.86267	294
3.86633	296
3.87000	302
3.87367	309
3.87733	314
3.88100	318
3.88467	321
3.88833	324
3.89200	325
3.89567	324
3.89933	323
3.90300	322
3.90667	322
3.91033	321
3.91400	318
3.91767	315
3.92133	316
3.92500	317
3.92867	317
3.93233	314
3.93600	309
3.93967	303
3.94333	298
3.94700	292
3.95067	288
3.95433	289
3.95800	294
3.96167	300
3.96533	303
3.96900	303
3.97267	303
3.97633	305
3.98000	312
3.98367	321
3.98733	326
3.99100	329
3.99467	330
3.99833	331

[Chromatogram (Ch2)]
Interval(msec)	220
# of Points	1091
Start Time(min)	0.002
End Time(min)	3.998
R.Time (min)	Intensity
0.00167	-0
0.00533	-0
0.00900	-0
0.01267	-0
0.01633	-0
0.02000	-0
0.02367	-0
0.02733	0
0.03100	0
0.03467	1
0.03833	1
0.04200	2
0.04567	2
0.04933	3
0.05300	4
0.05667	4
0.06033	5
0.06400	5
0.06767	6
0.07133	6
0.07500	6
0.07867	6
0.08233	7
0.08600	7
0.08967	7
0.09333	7
0.09700	6
0.10067	6
0.10433	6
0.10800	6
0.11167	6
0.11533	6
0.11900	6
0.12267	6
0.12633	6
0.13000	6
0.13367	6
0.13733	6
0.14100	6
0.14467	6
0.14833	6
0.15200	6
0.15567	6
0.15933	6
0.16300	6
0.16667	6
0.17033	6
0.17400	6
0.17767	7
0.18133	7
0.18500	7
0.18867	6
0.19233	6
0.19600	6
0.19967	5
0.20333	5
0.20700	5
0.21067	5
0.21433	5
0.21800	5
0.22167	5
0.22533	5
0.22900	5
0.23267	6
0.23633	6
0.24000	6
0.24367	6
0.24733	7
0.25100	7
0.25467	7
0.25833	7
0.26200	7
0.26567	7
0.26933	7
0.27300	7
0.27667	7
0.28033	6
0.28400	6
0.28767	6
0.29133	6
0.29500	6
0.29867	5
0.30233	5
0.30600	5
0.30967	5
0.31333	5
0.31700	4
0.32067	4
0.32433	4
0.32800	4
0.33167	4
0.33533	4
0.33900	4
0.34267	4
0.34633	4
0.35000	4
0.35367	3
0.35733	3
0.36100	3
0.36467	3
0.36833	3
0.37200	4
0.37567	4
0.37933	4
0.38300	4
0.38667	4
0.39033	4
0.39400	4
0.39767	4
0.40133	4
0.40500	4
0.40867	3
0.41233	3
0.41600	3
0.41967	3
0.42333	3
0.42700	3
0.43067	3
0.43433	4
0.43800	4
0.44167	4
0.44533	5
0.44900	5
0.45267	6
0.45633	6
0.46000	7
0.46367	7
0.46733	7
0.47100	8
0.47467	8
0.47833	8
0.48200	8
0.48567	8
0.48933	8
0.49300	8
0.49667	8
0.50033	8
0.50400	7
0.50767	7
0.51133	7
0.51500	8
0.51867	8
0.52233	8
0.52600	8
0.52967	8
0.53333	8
0.53700	8
0.54067	8
0.54433	8
0.54800	8
0.55167	8
0.55533	8
0.55900	8
0.56267	8
0.56633	8
0.57000	9
0.57367	9
0.57733	9
0.58100	9
0.58467	9
0.58833	9
0.59200	9
0.59567	9
0.59933	9
0.60300	9
0.60667	10
0.61033	10
0.61400	10
0.61767	10
0.62133	9
0.62500	9
0.62867	9
0.63233	9
0.63600	9
0.63967	9
0.64333	8
0.64700	8
0.65067	8
0.65433	7
0.65800	7
0.66167	6
0.66533	6
0.66900	5
0.67267	5
0.67633	4
0.68000	3
0.68367	3
0.68733	2
0.69100	1
0.69467	1
0.69833	1
0.70200	1
0.70567	1
0.70933	1
0.71300	1
0.71667	2
0.72033	2
0.72400	2
0.72767	3
0.73133	3
0.73500	4
0.73867	4
0.74233	5
0.74600	6
0.74967	6
0.75333	6
0.75700	6
0.76067	6
0.76433	6
0.76800	6
0.77167	6
0.77533	6
0.77900	6
0.78267	6
0.78633	6
0.79000	6
0.79367	6
0.79733	7
0.80100	7
0.80467	7
0.80833	7
0.81200	7
0.81567	8
0.81933	8
0.82300	8
0.82667	8
0.83033	8
0.83400	8
0.83767	8
0.84133	8
0.84500	8
0.84867	7
0.85233	7
0.85600	7
0.85967	6
0.86333	6
0.86700	6
0.87067	6
0.87433	5
0.87800	5
0.88167	5
0.88533	5
0.88900	5
0.89267	5
0.89633	5
0.90000	5
0.90367	6
0.90733	6
0.91100	6
0.91467	6
0.91833	6
0.92200	6
0.92567	6
0.92933	6
0.93300	6
0.93667	6
0.94033	6
0.94400	6
0.94767	5
0.95133	5
0.95500	5
0.95867	5
0.96233	5
0.96600	5
0.96967	5
0.97333	5
0.97700	5
0.98067	5
0.98433	5
0.98800	5
0.99167	5
0.99533	5
0.99900	5
1.00267	5
1.00633	5
1.01000	5
1.01367	5
1.01733	5
1.02100	5
1.02467	5
1.02833	5
1.03200	5
1.03567	5
1.03933	5
1.04300	4
1.04667	4
1.05033	4
1.05400	4
1.05767	4
1.06133	4
1.06500	4
1.06867	4
1.07233	4
1.07600	4
1.07967	4
1.08333	4
1.08700	4
1.09067	4
1.09433	5
1.09800	5
1.10167	5
1.10533	6
1.10900	6
1.11267	7
1.11633	7
1.12000	7
1.12367	7
1.12733	7
1.13100	7
1.13467	7
1.13833	7
1.14200	6
1.14567	6
1.14933	6
1.15300	5
1.15667	5
1.16033	5
1.16400	5
1.16767	4
1.17133	5
1.17500	5
1.17867	5
1.18233	5
1.18600	6
1.18967	6
1.19333	6
1.19700	7
1.20067	7
1.20433	7
1.20800	7
1.21167	7
1.21533	7
1.21900	7
1.22267	7
1.22633	7
1.23000	7
1.23367	7
1.23733	6
1.24100	6
1.24467	6
1.24833	6
1.25200	6
1.25567	6
1.25933	6
1.26300	6
1.26667	6
1.27033	7
1.27400	7
1.27767	7
1.28133	6
1.28500	6
1.28867	6
1.29233	6
1.29600	6
1.29967	6
1.30333	5
1.30700	5
1.31067	5
1.31433	5
1.31800	5
1.32167	5
1.32533	5
1.32900	5
1.33267	5
1.33633	5
1.34000	5
1.34367	5
1.34733	5
1.35100	5
1.35467	5
1.35833	5
1.36200	5
1.36567	5
1.36933	5
1.37300	5
1.37667	6
1.38033	6
1.38400	6
1.38767	6
1.39133	6
1.39500	6
1.39867	6
1.40233	6
1.40600	6
1.40967	6
1.41333	6
1.41700	5
1.42067	5
1.42433	5
1.42800	5
1.43167	5
1.43533	5
1.43900	5
1.44267	5
1.44633	5
1.45000	5
1.45367	4
1.45733	4
1.46100	4
1.46467	4
1.46833	4
1.47200	4
1.47567	4
1.47933	4
1.48300	5
1.48667	5
1.49033	5
1.49400	5
1.49767	5
1.50133	5
1.50500	5
1.50867	5
1.51233	4
1.51600	4
1.51967	4
1.52333	3
1.52700	3
1.53067	3
1.53433	3
1.53800	2
1.54167	2
1.54533	2
1.54900	2
1.55267	2
1.55633	2
1.56000	2
1.56367	2
1.56733	2
1.57100	2
1.57467	2
1.57833	3
1.58200	3
1.58567	3
1.58933	3
1.59300	4
1.59667	4
1.60033	4
1.60400	3
1.60767	2
1.61133	0
1.61500	-2
1.61867	-4
1.62233	-6
1.62600	-9
1.62967	-12
1.63333	-15
1.63700	-19
1.64067	-22
1.64433	-26
1.64800	-29
1.65167	-32
1.65533	-35
1.65900	-39
1.66267	-42
1.66633	-46
1.67000	-49
1.67367	-53
1.67733	-58
1.68100	-63
1.68467	-68
1.68833	-72
1.69200	-77
1.69567	-81
1.69933	-85
1.70300	-89
1.70667	-92
1.71033	-94
1.71400	-96
1.71767	-97
1.72133	-99
1.72500	-100
1.72867	-100
1.73233	-101
1.73600	-101
1.73967	-101
1.74333	-101
1.74700	-102
1.75067	-102
1.75433	-103
1.75800	-104
1.76167	-105
1.76533	-107
1.76900	-108
1.77267	-109
1.77633	-109
1.78000	-110
1.78367	-110
1.78733	-109
1.79100	-108
1.79467	-108
1.79833	-107
1.80200	-107
1.80567	-107
1.80933	-108
1.81300	-108
1.81667	-109
1.82033	-109
1.82400	-110
1.82767	-110
1.83133	-111
1.83500	-111
1.83867	-111
1.84233	-112
1.84600	-112
1.84967	-111
1.85333	-111
1.85700	-111
1.86067	-111
1.86433	-111
1.86800	-111
1.87167	-110
1.87533	-111
1.87900	-111
1.88267	-110
1.88633	-110
1.89000	-110
1.89367	-110
1.89733	-110
1.90100	-110
1.90467	-110
1.90833	-110
1.91200	-110
1.91567	-110
1.91933	-110
1.92300	-110
1.92667	-110
1.93033	-110
1.93400	-110
1.93767	-109
1.94133	-109
1.94500	-109
1.94867	-109
1.95233	-109
1.95600	-109
1.95967	-109
1.96333	-109
1.96700	-109
1.97067	-108
1.97433	-108
1.97800	-107
1.98167	-107
1.98533	-106
1.98900	-106
1.99267	-106
1.99633	-106
2.00000	-105
2.00367	-105
2.00733	-104
2.01100	-104
2.01467	-104
2.01833	-104
2.02200	-104
2.02567	-104
2.02933	-105
2.03300	-105
2.03667	-105
2.04033	-104
2.04400	-104
2.04767	-104
2.05133	-103
2.05500	-102
2.05867	-101
2.06233	-101
2.06600	-100
2.06967	-99
2.07333	-99
2.07700	-99
2.08067	-98
2.08433	-97
2.08800	-96
2.09167	-95
2.09533	-95
2.09900	-95
2.10267	-95
2.10633	-94
2.11000	-94
2.11367	-94
2.11733	-94
2.12100	-94
2.12467	-93
2.12833	-93
2.13200	-92
2.13567	-92
2.13933	-92
2.14300	-92
2.14667	-92
2.15033	-92
2.15400	-92
2.15767	-93
2.16133	-93
2.16500	-93
2.16867	-92
2.17233	-92
2.17600	-91
2.17967	-91
2.18333	-90
2.18700	-90
2.19067	-89
2.19433	-88
2.19800	-88
2.20167	-87
2.20533	-87
2.20900	-86
2.21267	-86
2.21633	-85
2.22000	-85
2.22367	-86
2.22733	-86
2.23100	-86
2.23467	-85
2.23833	-85
2.24200	-84
2.24567	-84
2.24933	-83
2.25300	-83
2.25667	-83
2.26033	-82
2.26400	-82
2.26767	-82
2.27133	-82
2.27500	-81
2.27867	-81
2.28233	-81
2.28600	-80
2.28967	-80
2.29333	-79
2.29700	-78
2.30067	-78
2.30433	-77
2.30800	-77
2.31167	-77
2.31533	-76
2.31900	-76
2.32267	-75
2.32633	-75
2.33000	-75
2.33367	-75
2.33733	-75
2.34100	-74
2.34467	-74
2.34833	-74
2.35200	-74
2.35567	-74
2.35933	-74
2.36300	-75
2.36667	-75
2.37033	-74
2.37400	-73
2.37767	-71
2.38133	-68
2.38500	-65
2.38867	-61
2.39233	-57
2.39600	-53
2.39967	-48
2.40333	-43
2.40700	-38
2.41067	-33
2.41433	-29
2.41800	-24
2.42167	-21
2.42533	-17
2.42900	-15
2.43267	-12
2.43633	-10
2.44000	-8
2.44367	-6
2.44733	-3
2.45100	-1
2.45467	0
2.45833	2
2.46200	3
2.46567	5
2.46933	6
2.47300	7
2.47667	8
2.48033	9
2.48400	11
2.48767	12
2.49133	14
2.49500	15
2.49867	16
2.50233	17
2.50600	17
2.50967	18
2.51333	18
2.51700	18
2.52067	18
2.52433	18
2.52800	19
2.53167	19
2.53533	20
2.53900	20
2.54267	21
2.54633	21
2.55000	22
2.55367	22
2.55733	22
2.56100	23
2.56467	23
2.56833	24
2.57200	24
2.57567	24
2.57933	25
2.58300	25
2.58667	26
2.59033	26
2.59400	26
2.59767	27
2.60133	27
2.60500	27
2.60867	27
2.61233	27
2.61600	27
2.61967	27
2.62333	28
2.62700	28
2.63067	28
2.63433	29
2.63800	29
2.64167	29
2.64533	29
2.64900	29
2.65267	28
2.65633	28
2.66000	29
2.66367	29
2.66733	29
2.67100	29
2.67467	30
2.67833	30
2.68200	30
2.68567	29
2.68933	29
2.69300	29
2.69667	28
2.70033	28
2.70400	28
2.70767	28
2.71133	28
2.71500	28
2.71867	28
2.72233	29
2.72600	29
2.72967	30
2.73333	31
2.73700	31
2.74067	32
2.74433	32
2.74800	33
2.75167	34
2.75533	34
2.75900	34
2.76267	34
2.76633	35
2.77000	34
2.77367	34
2.77733	34
2.78100	33
2.78467	33
2.78833	32
2.79200	32
2.79567	31
2.79933	31
2.80300	31
2.80667	31
2.81033	31
2.81400	31
2.81767	31
2.82133	31
2.82500	31
2.82867	31
2.83233	31
2.83600	32
2.83967	32
2.84333	32
2.84700	31
2.85067	30
2.85433	27
2.85800	22
2.86167	15
2.86533	4
2.86900	-10
2.87267	-29
2.87633	-51
2.88000	-77
2.88367	-108
2.88733	-143
2.89100	-181
2.89467	-222
2.89833	-267
2.90200	-315
2.90567	-365
2.90933	-418
2.91300	-472
2.91667	-529
2.92033	-588
2.92400	-649
2.92767	-712
2.93133	-777
2.93500	-844
2.93867	-914
2.94233	-988
2.94600	-1066
2.94967	-1144
2.95333	-1210
2.95700	-1253
2.96067	-1265
2.96433	-1246
2.96800	-1200
2.97167	-1132
2.97533	-1050
2.97900	-960
2.98267	-867
2.98633	-775
2.99000	-686
2.99367	-603
2.99733	-526
3.00100	-457
3.00467	-394
3.00833	-339
3.01200	-290
3.01567	-247
3.01933	-209
3.02300	-177
3.02667	-149
3.03033	-124
3.03400	-104
3.03767	-86
3.04133	-70
3.04500	-57
3.04867	-46
3.05233	-37
3.05600	-29
3.05967	-22
3.06333	-16
3.06700	-10
3.07067	-6
3.07433	-2
3.07800	1
3.08167	3
3.08533	6
3.08900	8
3.09267	10
3.09633	11
3.10000	13
3.10367	14
3.10733	15
3.11100	16
3.11467	17
3.11833	18
3.12200	19
3.12567	20
3.12933	21
3.13300	22
3.13667	22
3.14033	23
3.14400	23
3.14767	24
3.15133	24
3.15500	24
3.15867	25
3.16233	25
3.16600	25
3.16967	26
3.17333	26
3.17700	26
3.18067	26
3.18433	26
3.18800	25
3.19167	25
3.19533	25
3.19900	25
3.20267	24
3.20633	25
3.21000	25
3.21367	25
3.21733	25
3.22100	25
3.22467	25
3.22833	25
3.23200	25
3.23567	26
3.23933	26
3.24300	27
3.24667	27
3.25033	27
3.25400	27
3.25767	27
3.26133	28
3.26500	28
3.26867	29
3.27233	29
3.27600	30
3.27967	30
3.28333	30
3.28700	31
3.29067	31
3.29433	31
3.29800	31
3.30167	31
3.30533	31
3.30900	31
3.31267	31
3.31633	31
3.32000	32
3.32367	32
3.32733	32
3.33100	32
3.33467	32
3.33833	32
3.34200	32
3.34567	32
3.34933	32
3.35300	32
3.35667	32
3.36033	32
3.36400	32
3.36767	32
3.37133	32
3.37500	32
3.37867	32
3.38233	32
3.38600	32
3.38967	32
3.39333	32
3.39700	32
3.40067	32
3.40433	32
3.40800	33
3.41167	33
3.41533	33
3.41900	33
3.42267	33
3.42633	33
3.43000	34
3.43367	34
3.43733	34
3.44100	34
3.44467	35
3.44833	35
3.45200	35
3.45567	35
3.45933	36
3.46300	36
3.46667	36
3.47033	36
3.47400	36
3.47767	36
3.48133	36
3.48500	35
3.48867	35
3.49233	35
3.49600	35
3.49967	35
3.50333	35
3.50700	34
3.51067	34
3.51433	34
3.51800	34
3.52167	34
3.52533	34
3.52900	33
3.53267	33
3.53633	33
3.54000	33
3.54367	33
3.54733	32
3.55100	32
3.55467	32
3.55833	32
3.56200	32
3.56567	31
3.56933	31
3.57300	31
3.57667	31
3.58033	31
3.58400	31
3.58767	31
3.59133	31
3.59500	31
3.59867	31
3.60233	31
3.60600	31
3.60967	31
3.61333	31
3.61700	32
3.62067	32
3.62433	33
3.62800	33
3.63167	34
3.63533	34
3.63900	35
3.64267	35
3.64633	35
3.65000	35
3.65367	35
3.65733	35
3.66100	35
3.66467	35
3.66833	35
3.67200	35
3.67567	35
3.67933	35
3.68300	35
3.68667	35
3.69033	35
3.69400	35
3.69767	35
3.70133	35
3.70500	35
3.70867	35
3.71233	35
3.71600	35
3.71967	34
3.72333	34
3.72700	34
3.73067	33
3.73433	33
3.73800	33
3.74167	33
3.74533	33
3.74900	33
3.75267	33
3.75633	34
3.76000	34
3.76367	34
3.76733	34
3.77100	34
3.77467	35
3.77833	35
3.78200	35
3.78567	35
3.78933	35
3.79300	35
3.79667	35
3.80033	35
3.80400	35
3.80767	35
3.81133	35
3.81500	35
3.81867	34
3.82233	34
3.82600	34
3.82967	34
3.83333	34
3.83700	34
3.84067	34
3.84433	34
3.84800	34
3.85167	34
3.85533	34
3.85900	34
3.86267	34
3.86633	34
3.87000	34
3.87367	34
3.87733	34
3.88100	34
3.88467	34
3.88833	34
3.89200	34
3.89567	34
3.89933	34
3.90300	34
3.90667	35
3.91033	35
3.91400	35
3.91767	35
3.92133	35
3.92500	35
3.92867	35
3.93233	35
3.93600	34
3.93967	34
3.94333	34
3.94700	34
3.95067	33
3.95433	33
3.95800	34
3.96167	34
3.96533	34
3.96900	35
3.97267	35
3.97633	35
3.98000	35
3.98367	35
3.98733	35
3.99100	35
3.99467	35
3.99833	35

[Chromatogram (Ch3)]
Interval(msec)	220
# of Points	1091
Start Time(min)	0.002
End Time(min)	3.998
R.Time (min)	Intensity
0.00167	0
0.00533	1
0.00900	2
0.01267	1
0.01633	-0
0.02000	-0
0.02367	-1
0.02733	-1
0.03100	-1
0.03467	1
0.03833	-0
0.04200	-1
0.04567	0
0.04933	1
0.05300	2
0.05667	1
0.06033	-0
0.06400	-2
0.06767	-4
0.07133	-6
0.07500	-5
0.07867	-3
0.08233	-1
0.08600	1
0.08967	2
0.09333	2
0.09700	3
0.10067	4
0.10433	4
0.10800	5
0.11167	4
0.11533	4
0.11900	1
0.12267	-2
0.12633	-3
0.13000	-3
0.13367	-5
0.13733	-6
0.14100	-5
0.14467	-5
0.14833	-5
0.15200	-6
0.15567	-7
0.15933	-6
0.16300	-6
0.16667	-5
0.17033	-4
0.17400	-3
0.17767	-3
0.18133	-3
0.18500	-3
0.18867	-4
0.19233	-3
0.19600	-2
0.19967	-2
0.20333	-3
0.20700	-6
0.21067	-6
0.21433	-6
0.21800	-6
0.22167	-8
0.22533	-9
0.22900	-9
0.23267	-8
0.23633	-6
0.24000	-4
0.24367	-5
0.24733	-7
0.25100	-6
0.25467	-8
0.25833	-9
0.26200	-7
0.26567	-7
0.26933	-6
0.27300	-4
0.27667	-3
0.28033	-3
0.28400	-3
0.28767	-3
0.29133	-3
0.29500	-4
0.29867	-4
0.30233	-4
0.30600	-6
0.30967	-8
0.31333	-10
0.31700	-12
0.32067	-11
0.32433	-9
0.32800	-8
0.33167	-9
0.33533	-9
0.33900	-8
0.34267	-7
0.34633	-6
0.35000	-8
0.35367	-10
0.35733	-9
0.36100	-8
0.36467	-7
0.36833	-6
0.37200	-6
0.37567	-6
0.37933	-7
0.38300	-8
0.38667	-7
0.39033	-6
0.39400	-5
0.39767	-3
0.40133	-2
0.40500	-4
0.40867	-6
0.41233	-5
0.41600	-1
0.41967	2
0.42333	3
0.42700	5
0.43067	3
0.43433	-1
0.43800	-7
0.44167	-8
0.44533	-8
0.44900	-7
0.45267	-5
0.45633	-4
0.46000	-3
0.46367	-5
0.46733	-6
0.47100	-6
0.47467	-5
0.47833	-5
0.48200	-5
0.48567	-4
0.48933	-5
0.49300	-6
0.49667	-7
0.50033	-7
0.50400	-6
0.50767	-6
0.51133	-6
0.51500	-4
0.51867	-3
0.52233	-1
0.52600	-1
0.52967	-2
0.53333	-0
0.53700	0
0.54067	-1
0.54433	-5
0.54800	-8
0.55167	-10
0.55533	-9
0.55900	-9
0.56267	-9
0.56633	-7
0.57000	-3
0.57367	-1
0.57733	-2
0.58100	-5
0.58467	-6
0.58833	-6
0.59200	-6
0.59567	-6
0.59933	-8
0.60300	-11
0.60667	-11
0.61033	-11
0.61400	-11
0.61767	-10
0.62133	-11
0.62500	-15
0.62867	-16
0.63233	-16
0.63600	-16
0.63967	-16
0.64333	-16
0.64700	-14
0.65067	-13
0.65433	-14
0.65800	-16
0.66167	-15
0.66533	-13
0.66900	-13
0.67267	-13
0.67633	-11
0.68000	-9
0.68367	-8
0.68733	-7
0.69100	-6
0.69467	-7
0.69833	-9
0.70200	-11
0.70567	-13
0.70933	-14
0.71300	-14
0.71667	-14
0.72033	-15
0.72400	-14
0.72767	-12
0.73133	-12
0.73500	-13
0.73867	-13
0.74233	-14
0.74600	-14
0.74967	-14
0.75333	-10
0.75700	-7
0.76067	-8
0.76433	-9
0.76800	-9
0.77167	-11
0.77533	-14
0.77900	-16
0.78267	-16
0.78633	-15
0.79000	-14
0.79367	-12
0.79733	-9
0.80100	-6
0.80467	-7
0.80833	-10
0.81200	-13
0.81567	-16
0.81933	-21
0.82300	-25
0.82667	-24
0.83033	-23
0.83400	-21
0.83767	-21
0.84133	-21
0.84500	-19
0.84867	-19
0.85233	-22
0.85600	-24
0.85967	-23
0.86333	-22
0.86700	-21
0.87067	-20
0.87433	-19
0.87800	-18
0.88167	-16
0.88533	-15
0.88900	-16
0.89267	-17
0.89633	-19
0.90000	-20
0.90367	-20
0.90733	-18
0.91100	-17
0.91467	-16
0.91833	-14
0.92200	-15
0.92567	-17
0.92933	-18
0.93300	-18
0.93667	-17
0.94033	-16
0.94400	-17
0.94767	-16
0.95133	-14
0.95500	-12
0.95867	-12
0.96233	-15
0.96600	-14
0.96967	-14
0.97333	-14
0.97700	-13
0.98067	-12
0.98433	-15
0.98800	-16
0.99167	-14
0.99533	-12
0.99900	-10
1.00267	-11
1.00633	-13
1.01000	-14
1.01367	-15
1.01733	-15
1.02100	-16
1.02467	-16
1.02833	-16
1.03200	-17
1.03567	-18
1.03933	-17
1.04300	-17
1.04667	-17
1.05033	-16
1.05400	-14
1.05767	-12
1.06133	-10
1.06500	-10
1.06867	-11
1.07233	-10
1.07600	-9
1.07967	-11
1.08333	-14
1.08700	-17
1.09067	-18
1.09433	-18
1.09800	-18
1.10167	-19
1.10533	-18
1.10900	-17
1.11267	-17
1.11633	-16
1.12000	-17
1.12367	-18
1.12733	-20
1.13100	-20
1.13467	-20
1.13833	-17
1.14200	-14
1.14567	-15
1.14933	-15
1.15300	-14
1.15667	-13
1.16033	-11
1.16400	-10
1.16767	-9
1.17133	-9
1.17500	-10
1.17867	-8
1.18233	-8
1.18600	-10
1.18967	-10
1.19333	-13
1.19700	-16
1.20067	-19
1.20433	-21
1.20800	-21
1.21167	-19
1.21533	-16
1.21900	-13
1.22267	-14
1.22633	-14
1.23000	-14
1.23367	-17
1.23733	-17
1.24100	-15
1.24467	-15
1.24833	-17
1.25200	-19
1.25567	-19
1.25933	-17
1.26300	-17
1.26667	-18
1.27033	-19
1.27400	-21
1.27767	-21
1.28133	-21
1.28500	-21
1.28867	-18
1.29233	-17
1.29600	-16
1.29967	-14
1.30333	-13
1.30700	-13
1.31067	-15
1.31433	-14
1.31800	-14
1.32167	-15
1.32533	-14
1.32900	-11
1.33267	-10
1.33633	-11
1.34000	-13
1.34367	-13
1.34733	-13
1.35100	-13
1.35467	-14
1.35833	-15
1.36200	-14
1.36567	-15
1.36933	-14
1.37300	-15
1.37667	-17
1.38033	-19
1.38400	-17
1.38767	-16
1.39133	-19
1.39500	-21
1.39867	-23
1.40233	-23
1.40600	-22
1.40967	-18
1.41333	-15
1.41700	-14
1.42067	-14
1.42433	-15
1.42800	-17
1.43167	-19
1.43533	-20
1.43900	-20
1.44267	-19
1.44633	-16
1.45000	-16
1.45367	-18
1.45733	-19
1.46100	-17
1.46467	-15
1.46833	-14
1.47200	-16
1.47567	-18
1.47933	-18
1.48300	-16
1.48667	-14
1.49033	-16
1.49400	-17
1.49767	-14
1.50133	-14
1.50500	-16
1.50867	-17
1.51233	-19
1.51600	-20
1.51967	-18
1.52333	-17
1.52700	-16
1.53067	-15
1.53433	-17
1.53800	-19
1.54167	-21
1.54533	-24
1.54900	-23
1.55267	-21
1.55633	-20
1.56000	-18
1.56367	-18
1.56733	-20
1.57100	-19
1.57467	-20
1.57833	-19
1.58200	-18
1.58567	-17
1.58933	-17
1.59300	-16
1.59667	-15
1.60033	-15
1.60400	-13
1.60767	-11
1.61133	-11
1.61500	-12
1.61867	-14
1.62233	-14
1.62600	-13
1.62967	-11
1.63333	-10
1.63700	-11
1.64067	-11
1.64433	-12
1.64800	-13
1.65167	-13
1.65533	-14
1.65900	-14
1.66267	-13
1.66633	-14
1.67000	-14
1.67367	-12
1.67733	-8
1.68100	-6
1.68467	-3
1.68833	-1
1.69200	2
1.69567	3
1.69933	2
1.70300	2
1.70667	4
1.71033	3
1.71400	2
1.71767	4
1.72133	8
1.72500	10
1.72867	11
1.73233	7
1.73600	4
1.73967	5
1.74333	6
1.74700	7
1.75067	7
1.75433	8
1.75800	9
1.76167	9
1.76533	11
1.76900	12
1.77267	14
1.77633	17
1.78000	20
1.78367	24
1.78733	24
1.79100	22
1.79467	21
1.79833	22
1.80200	25
1.80567	28
1.80933	32
1.81300	33
1.81667	33
1.82033	33
1.82400	31
1.82767	30
1.83133	30
1.83500	31
1.83867	32
1.84233	35
1.84600	35
1.84967	35
1.85333	34
1.85700	33
1.86067	31
1.86433	31
1.86800	33
1.87167	37
1.87533	40
1.87900	41
1.88267	42
1.88633	41
1.89000	43
1.89367	46
1.89733	48
1.90100	48
1.90467	48
1.90833	50
1.91200	48
1.91567	47
1.91933	48
1.92300	47
1.92667	48
1.93033	51
1.93400	53
1.93767	53
1.94133	52
1.94500	54
1.94867	54
1.95233	56
1.95600	57
1.95967	57
1.96333	56
1.96700	56
1.97067	57
1.97433	59
1.97800	61
1.98167	66
1.98533	69
1.98900	71
1.99267	74
1.99633	76
2.00000	77
2.00367	80
2.00733	82
2.01100	83
2.01467	85
2.01833	84
2.02200	84
2.02567	84
2.02933	85
2.03300	88
2.03667	90
2.04033	92
2.04400	96
2.04767	100
2.05133	102
2.05500	102
2.05867	103
2.06233	102
2.06600	102
2.06967	103
2.07333	104
2.07700	103
2.08067	101
2.08433	100
2.08800	102
2.09167	105
2.09533	106
2.09900	106
2.10267	107
2.10633	110
2.11000	115
2.11367	119
2.11733	120
2.12100	121
2.12467	122
2.12833	124
2.13200	127
2.13567	129
2.13933	130
2.14300	133
2.14667	135
2.15033	137
2.15400	137
2.15767	140
2.16133	143
2.16500	146
2.16867	149
2.17233	151
2.17600	151
2.17967	152
2.18333	152
2.18700	155
2.19067	157
2.19433	159
2.19800	161
2.20167	165
2.20533	166
2.20900	168
2.21267	167
2.21633	166
2.22000	166
2.22367	168
2.22733	172
2.23100	173
2.23467	173
2.23833	176
2.24200	177
2.24567	179
2.24933	182
2.25300	183
2.25667	184
2.26033	185
2.26400	187
2.26767	186
2.27133	186
2.27500	187
2.27867	189
2.28233	192
2.28600	195
2.28967	199
2.29333	203
2.29700	205
2.30067	205
2.30433	205
2.30800	208
2.31167	213
2.31533	217
2.31900	221
2.32267	224
2.32633	226
2.33000	230
2.33367	233
2.33733	234
2.34100	234
2.34467	235
2.34833	240
2.35200	244
2.35567	248
2.35933	251
2.36300	254
2.36667	256
2.37033	257
2.37400	257
2.37767	257
2.38133	258
2.38500	257
2.38867	258
2.39233	259
2.39600	261
2.39967	260
2.40333	259
2.40700	260
2.41067	263
2.41433	267
2.41800	269
2.42167	273
2.42533	275
2.42900	275
2.43267	276
2.43633	279
2.44000	281
2.44367	284
2.44733	291
2.45100	300
2.45467	308
2.45833	313
2.46200	314
2.46567	314
2.46933	312
2.47300	311
2.47667	307
2.48033	301
2.48400	293
2.48767	284
2.49133	278
2.49500	271
2.49867	266
2.50233	261
2.50600	256
2.50967	253
2.51333	253
2.51700	253
2.52067	252
2.52433	249
2.52800	245
2.53167	241
2.53533	238
2.53900	236
2.54267	234
2.54633	232
2.55000	230
2.55367	228
2.55733	228
2.56100	228
2.56467	225
2.56833	224
2.57200	220
2.57567	216
2.57933	215
2.58300	213
2.58667	213
2.59033	214
2.59400	215
2.59767	215
2.60133	218
2.60500	215
2.60867	207
2.61233	198
2.61600	184
2.61967	165
2.62333	139
2.62700	110
2.63067	82
2.63433	54
2.63800	27
2.64167	7
2.64533	-8
2.64900	-19
2.65267	-25
2.65633	-29
2.66000	-30
2.66367	-26
2.66733	-20
2.67100	-14
2.67467	-5
2.67833	4
2.68200	13
2.68567	21
2.68933	31
2.69300	43
2.69667	55
2.70033	62
2.70400	68
2.70767	76
2.71133	86
2.71500	96
2.71867	105
2.72233	111
2.72600	115
2.72967	117
2.73333	119
2.73700	122
2.74067	124
2.74433	127
2.74800	132
2.75167	138
2.75533	139
2.75900	141
2.76267	143
2.76633	144
2.77000	148
2.77367	150
2.77733	149
2.78100	149
2.78467	148
2.78833	150
2.79200	152
2.79567	153
2.79933	154
2.80300	152
2.80667	148
2.81033	145
2.81400	144
2.81767	146
2.82133	148
2.82500	151
2.82867	156
2.83233	173
2.83600	213
2.83967	292
2.84333	438
2.84700	687
2.85067	1078
2.85433	1653
2.85800	2426
2.86167	3392
2.86533	4514
2.86900	5722
2.87267	6907
2.87633	7965
2.88000	8801
2.88367	9350
2.88733	9591
2.89100	9545
2.89467	9257
2.89833	8786
2.90200	8191
2.90567	7525
2.90933	6831
2.91300	6144
2.91667	5482
2.92033	4863
2.92400	4296
2.92767	3781
2.93133	3317
2.93500	2907
2.93867	2546
2.94233	2229
2.94600	1951
2.94967	1708
2.95333	1493
2.95700	1306
2.96067	1144
2.96433	1002
2.96800	880
2.97167	775
2.97533	686
2.97900	607
2.98267	540
2.98633	483
2.99000	435
2.99367	393
2.99733	353
3.00100	320
3.00467	293
3.00833	269
3.01200	250
3.01567	235
3.01933	221
3.02300	209
3.02667	198
3.03033	189
3.03400	180
3.03767	171
3.04133	162
3.04500	156
3.04867	151
3.05233	147
3.05600	143
3.05967	140
3.06333	139
3.06700	137
3.07067	135
3.07433	132
3.07800	130
3.08167	130
3.08533	127
3.08900	121
3.09267	118
3.09633	115
3.10000	113
3.10367	112
3.10733	110
3.11100	108
3.11467	106
3.11833	105
3.12200	105
3.12567	106
3.12933	107
3.13300	104
3.13667	101
3.14033	100
3.14400	99
3.14767	96
3.15133	94
3.15500	94
3.15867	95
3.16233	95
3.16600	94
3.16967	95
3.17333	94
3.17700	94
3.18067	94
3.18433	93
3.18800	92
3.19167	93
3.19533	94
3.19900	94
3.20267	94
3.20633	95
3.21000	94
3.21367	94
3.21733	95
3.22100	94
3.22467	94
3.22833	95
3.23200	95
3.23567	95
3.23933	93
3.24300	91
3.24667	89
3.25033	87
3.25400	85
3.25767	86
3.26133	85
3.26500	82
3.26867	80
3.27233	82
3.27600	80
3.27967	79
3.28333	79
3.28700	80
3.29067	81
3.29433	77
3.29800	74
3.30167	69
3.30533	64
3.30900	61
3.31267	62
3.31633	62
3.32000	59
3.32367	59
3.32733	59
3.33100	59
3.33467	57
3.33833	57
3.34200	53
3.34567	49
3.34933	49
3.35300	47
3.35667	47
3.36033	44
3.36400	42
3.36767	43
3.37133	41
3.37500	39
3.37867	39
3.38233	38
3.38600	34
3.38967	29
3.39333	24
3.39700	21
3.40067	18
3.40433	16
3.40800	14
3.41167	13
3.41533	10
3.41900	9
3.42267	9
3.42633	9
3.43000	8
3.43367	7
3.43733	8
3.44100	7
3.44467	4
3.44833	1
3.45200	-4
3.45567	-9
3.45933	-11
3.46300	-14
3.46667	-16
3.47033	-19
3.47400	-19
3.47767	-22
3.48133	-25
3.48500	-25
3.48867	-26
3.49233	-27
3.49600	-31
3.49967	-33
3.50333	-34
3.50700	-36
3.51067	-38
3.51433	-39
3.51800	-40
3.52167	-42
3.52533	-43
3.52900	-43
3.53267	-42
3.53633	-42
3.54000	-43
3.54367	-44
3.54733	-46
3.55100	-49
3.55467	-53
3.55833	-55
3.56200	-57
3.56567	-58
3.56933	-60
3.57300	-60
3.57667	-60
3.58033	-60
3.58400	-59
3.58767	-58
3.59133	-60
3.59500	-62
3.59867	-63
3.60233	-65
3.60600	-68
3.60967	-68
3.61333	-70
3.61700	-71
3.62067	-69
3.62433	-69
3.62800	-72
3.63167	-75
3.63533	-80
3.63900	-82
3.64267	-83
3.64633	-82
3.65000	-81
3.65367	-80
3.65733	-79
3.66100	-79
3.66467	-80
3.66833	-82
3.67200	-83
3.67567	-85
3.67933	-87
3.68300	-87
3.68667	-88
3.69033	-89
3.69400	-88
3.69767	-89
3.70133	-90
3.70500	-92
3.70867	-95
3.71233	-95
3.71600	-97
3.71967	-99
3.72333	-97
3.72700	-95
3.73067	-93
3.73433	-91
3.73800	-89
3.74167	-89
3.74533	-89
3.74900	-90
3.75267	-94
3.75633	-98
3.76000	-100
3.76367	-100
3.76733	-102
3.77100	-104
3.77467	-105
3.77833	-106
3.78200	-105
3.78567	-105
3.78933	-103
3.79300	-103
3.79667	-102
3.80033	-101
3.80400	-103
3.80767	-105
3.81133	-107
3.81500	-108
3.81867	-110
3.82233	-111
3.82600	-111
3.82967	-111
3.83333	-110
3.83700	-110
3.84067	-111
3.84433	-112
3.84800	-112
3.85167	-111
3.85533	-108
3.85900	-108
3.86267	-109
3.86633	-111
3.87000	-112
3.87367	-113
3.87733	-115
3.88100	-116
3.88467	-116
3.88833	-115
3.89200	-114
3.89567	-113
3.89933	-114
3.90300	-116
3.90667	-118
3.91033	-119
3.91400	-119
3.91767	-118
3.92133	-118
3.92500	-118
3.92867	-117
3.93233	-116
3.93600	-116
3.93967	-117
3.94333	-119
3.94700	-120
3.95067	-118
3.95433	-118
3.95800	-118
3.96167	-119
3.96533	-119
3.96900	-119
3.97267	-121
3.97633	-122
3.98000	-123
3.98367	-123
3.98733	-123
3.99100	-123
3.99467	-122
3.99833	-120

[Status Trace (Column Oven Temperature)]
Interval(msec)	1000
# of Points	240
Start Time(min)	0.012
End Time(min)	3.995
Intensity Units	
Intensity Multiplier	1
R.Time (min)	Intensity
0.01173	35.06
0.02840	35.06
0.04507	35.05
0.06173	35.04
0.07840	35.03
0.09507	35.03
0.11173	35.04
0.12840	35.04
0.14507	35.03
0.16173	35.02
0.17840	35.01
0.19507	35.02
0.21173	35.02
0.22840	35.02
0.24507	35.01
0.26173	35.00
0.27840	35.01
0.29507	35.00
0.31173	35.00
0.32840	35.01
0.34507	35.02
0.36173	35.03
0.37840	35.04
0.39507	35.04
0.41173	35.05
0.42840	35.04
0.44507	35.03
0.46173	35.02
0.47840	35.01
0.49507	35.00
0.51173	35.00
0.52840	35.00
0.54507	34.99
0.56173	34.98
0.57840	34.97
0.59507	34.96
0.61173	34.96
0.62840	34.96
0.64507	34.96
0.66173	34.99
0.67840	35.00
0.69507	35.01
0.71173	35.02
0.72840	35.01
0.74507	35.01
0.76173	35.00
0.77840	34.99
0.79507	34.99
0.81173	34.98
0.82840	34.97
0.84507	34.98
0.86173	34.99
0.87840	34.99
0.89507	34.99
0.91173	34.98
0.92840	34.98
0.94507	34.98
0.96173	34.99
0.97840	34.98
0.99507	34.99
1.01173	34.99
1.02840	34.99
1.04507	35.00
1.06173	35.01
1.07840	35.00
1.09507	34.99
1.11173	34.99
1.12840	34.99
1.14507	35.00
1.16173	35.01
1.17840	35.00
1.19507	34.98
1.21173	34.98
1.22840	34.98
1.24507	34.98
1.26173	34.98
1.27840	34.97
1.29507	34.97
1.31173	34.98
1.32840	34.98
1.34507	34.98
1.36173	34.97
1.37840	34.97
1.39507	34.98
1.41173	34.99
1.42840	35.00
1.44507	35.00
1.46173	35.01
1.47840	35.01
1.49507	35.02
1.51173	35.03
1.52840	35.04
1.54507	35.06
1.56173	35.06
1.57840	35.06
1.59507	35.07
1.61173	35.14
1.62840	35.28
1.64507	35.47
1.66173	35.71
1.67840	36.05
1.69507	36.42
1.71173	36.77
1.72840	37.10
1.74507	37.43
1.76173	37.77
1.77840	38.10
1.79507	38.40
1.81173	38.74
1.82840	39.08
1.84507	39.41
1.86173	39.73
1.87840	40.07
1.89507	40.40
1.91173	40.73
1.92840	41.06
1.94507	41.39
1.96173	41.72
1.97840	42.04
1.99507	42.38
2.01173	42.69
2.02840	43.03
2.04507	43.36
2.06173	43.68
2.07840	44.00
2.09507	44.33
2.11173	44.65
2.12840	44.95
2.14507	45.30
2.16173	45.65
2.17840	45.98
2.19507	46.28
2.21173	46.62
2.22840	46.96
2.24507	47.26
2.26173	47.60
2.27840	47.92
2.29507	48.26
2.31173	48.59
2.32840	48.90
2.34507	49.22
2.36173	49.53
2.37840	49.72
2.39507	49.76
2.41173	49.73
2.42840	49.76
2.44507	49.75
2.46173	49.77
2.47840	49.78
2.49507	49.77
2.51173	49.80
2.52840	49.80
2.54507	49.81
2.56173	49.81
2.57840	49.81
2.59507	49.82
2.61173	49.82
2.62840	49.83
2.64507	49.84
2.66173	49.84
2.67840	49.84
2.69507	49.87
2.71173	49.89
2.72840	49.88
2.74507	49.86
2.76173	49.84
2.77840	49.87
2.79507	49.89
2.81173	49.90
2.82840	49.91
2.84507	49.91
2.86173	49.92
2.87840	49.92
2.89507	49.93
2.91173	49.94
2.92840	49.93
2.94507	49.94
2.96173	49.95
2.97840	49.96
2.99507	49.98
3.01173	49.99
3.02840	50.01
3.04507	50.02
3.06173	50.02
3.07840	50.03
3.09507	50.04
3.11173	50.03
3.12840	50.04
3.14507	50.03
3.16173	50.04
3.17840	50.05
3.19507	50.07
3.21173	50.10
3.22840	50.10
3.24507	50.10
3.26173	50.09
3.27840	50.09
3.29507	50.08
3.31173	50.07
3.32840	50.07
3.34507	50.08
3.36173	50.08
3.37840	50.10
3.39507	50.09
3.41173	50.08
3.42840	50.07
3.44507	50.06
3.46173	50.04
3.47840	50.03
3.49507	50.03
3.51173	50.04
3.52840	50.05
3.54507	50.07
3.56173	50.08
3.57840	50.09
3.59507	50.10
3.61173	50.10
3.62840	50.09
3.64507	50.08
3.66173	50.08
3.67840	50.06
3.69507	50.06
3.71173	50.06
3.72840	50.07
3.74507	50.07
3.76173	50.06
3.77840	50.06
3.79507	50.06
3.81173	50.06
3.82840	50.06
3.84507	50.06
3.86173	50.07
3.87840	50.06
3.89507	50.06
3.91173	50.05
3.92840	50.05
3.94507	50.05
3.96173	50.04
3.97840	50.04
3.99507	50.04

[Status Trace (Injection Unit Temperature)]
Interval(msec)	1000
# of Points	240
Start Time(min)	0.012
End Time(min)	3.995
Intensity Units	
Intensity Multiplier	1
R.Time (min)	Intensity
0.01173	100.00
0.02840	100.00
0.04507	100.00
0.06173	100.00
0.07840	100.00
0.09507	100.00
0.11173	100.00
0.12840	100.00
0.14507	100.00
0.16173	100.00
0.17840	100.00
0.19507	100.00
0.21173	100.00
0.22840	100.00
0.24507	100.01
0.26173	100.00
0.27840	100.01
0.29507	100.00
0.31173	100.00
0.32840	100.01
0.34507	100.01
0.36173	100.00
0.37840	100.01
0.39507	100.00
0.41173	100.00
0.42840	100.01
0.44507	100.00
0.46173	100.00
0.47840	100.01
0.49507	100.00
0.51173	100.01
0.52840	100.00
0.54507	100.01
0.56173	100.00
0.57840	100.00
0.59507	100.00
0.61173	100.00
0.62840	100.01
0.64507	100.00
0.66173	100.01
0.67840	100.01
0.69507	100.01
0.71173	100.01
0.72840	100.01
0.74507	100.01
0.76173	100.00
0.77840	100.01
0.79507	100.01
0.81173	100.00
0.82840	100.01
0.84507	100.01
0.86173	100.01
0.87840	100.01
0.89507	100.00
0.91173	100.01
0.92840	100.01
0.94507	100.00
0.96173	100.01
0.97840	100.01
0.99507	100.00
1.01173	100.01
1.02840	100.01
1.04507	100.01
1.06173	100.00
1.07840	100.00
1.09507	100.00
1.11173	100.00
1.12840	100.01
1.14507	100.01
1.16173	100.00
1.17840	100.00
1.19507	100.00
1.21173	100.00
1.22840	100.01
1.24507	100.00
1.26173	100.00
1.27840	100.00
1.29507	100.00
1.31173	100.00
1.32840	100.00
1.34507	100.00
1.36173	100.00
1.37840	100.00
1.39507	100.00
1.41173	100.00
1.42840	100.00
1.44507	100.00
1.46173	100.00
1.47840	100.00
1.49507	100.00
1.51173	99.99
1.52840	100.00
1.54507	100.00
1.56173	99.99
1.57840	100.00
1.59507	100.00
1.61173	99.99
1.62840	99.99
1.64507	99.99
1.66173	99.99
1.67840	100.00
1.69507	99.99
1.71173	99.99
1.72840	99.99
1.74507	99.99
1.76173	99.99
1.77840	99.99
1.79507	99.99
1.81173	99.99
1.82840	99.99
1.84507	99.99
1.86173	99.99
1.87840	99.99
1.89507	99.99
1.91173	99.99
1.92840	99.99
1.94507	99.99
1.96173	99.99
1.97840	99.99
1.99507	99.99
2.01173	99.99
2.02840	99.99
2.04507	99.99
2.06173	99.99
2.07840	99.98
2.09507	99.98
2.11173	99.99
2.12840	99.99
2.14507	99.98
2.16173	99.98
2.17840	99.99
2.19507	99.98
2.21173	99.98
2.22840	99.98
2.24507	99.98
2.26173	99.98
2.27840	99.98
2.29507	99.98
2.31173	99.98
2.32840	99.98
2.34507	99.98
2.36173	99.98
2.37840	99.98
2.39507	99.99
2.41173	99.98
2.42840	99.98
2.44507	99.98
2.46173	99.98
2.47840	99.99
2.49507	99.99
2.51173	99.98
2.52840	99.98
2.54507	99.98
2.56173	99.99
2.57840	99.98
2.59507	99.99
2.61173	99.99
2.62840	99.99
2.64507	99.99
2.66173	99.99
2.67840	99.99
2.69507	99.99
2.71173	100.00
2.72840	100.00
2.74507	99.99
2.76173	100.00
2.77840	100.00
2.79507	100.00
2.81173	100.00
2.82840	100.00
2.84507	100.01
2.86173	100.00
2.87840	100.01
2.89507	100.01
2.91173	100.01
2.92840	100.01
2.94507	100.01
2.96173	100.01
2.97840	100.01
2.99507	100.01
3.01173	100.02
3.02840	100.01
3.04507	100.02
3.06173	100.02
3.07840	100.02
3.09507	100.02
3.11173	100.02
3.12840	100.02
3.14507	100.03
3.16173	100.03
3.17840	100.03
3.19507	100.03
3.21173	100.03
3.22840	100.03
3.24507	100.03
3.26173	100.03
3.27840	100.03
3.29507	100.04
3.31173	100.03
3.32840	100.03
3.34507	100.04
3.36173	100.04
3.37840	100.04
3.39507	100.04
3.41173	100.04
3.42840	100.04
3.44507	100.04
3.46173	100.04
3.47840	100.05
3.49507	100.05
3.51173	100.05
3.52840	100.05
3.54507	100.04
3.56173	100.05
3.57840	100.05
3.59507	100.05
3.61173	100.05
3.62840	100.05
3.64507	100.05
3.66173	100.05
3.67840	100.05
3.69507	100.05
3.71173	100.05
3.72840	100.05
3.74507	100.05
3.76173	100.05
3.77840	100.05
3.79507	100.05
3.81173	100.05
3.82840	100.05
3.84507	100.05
3.86173	100.05
3.87840	100.05
3.89507	100.06
3.91173	100.05
3.92840	100.06
3.94507	100.05
3.96173	100.05
3.97840	100.05
3.99507	100.05

[Status Trace (Carrier Gas Pressure)]
Interval(msec)	1000
# of Points	240
Start Time(min)	0.012
End Time(min)	3.995
Intensity Units	
Intensity Multiplier	1
R.Time (min)	Intensity
0.01173	58.00
0.02840	54.98
0.04507	57.60
0.06173	59.66
0.07840	58.97
0.09507	58.00
0.11173	57.99
0.12840	58.01
0.14507	58.01
0.16173	58.00
0.17840	58.00
0.19507	58.00
0.21173	58.00
0.22840	58.00
0.24507	58.00
0.26173	58.00
0.27840	58.00
0.29507	58.00
0.31173	58.00
0.32840	58.00
0.34507	58.00
0.36173	58.00
0.37840	58.00
0.39507	58.00
0.41173	58.00
0.42840	58.00
0.44507	58.00
0.46173	58.00
0.47840	58.00
0.49507	58.00
0.51173	58.00
0.52840	58.00
0.54507	58.00
0.56173	58.00
0.57840	58.00
0.59507	58.00
0.61173	58.00
0.62840	58.00
0.64507	58.00
0.66173	58.00
0.67840	58.00
0.69507	58.00
0.71173	58.00
0.72840	58.00
0.74507	58.00
0.76173	58.00
0.77840	58.00
0.79507	58.00
0.81173	58.00
0.82840	58.00
0.84507	58.00
0.86173	58.00
0.87840	58.00
0.89507	58.00
0.91173	58.00
0.92840	58.00
0.94507	58.00
0.96173	58.00
0.97840	58.00
0.99507	58.00
1.01173	58.00
1.02840	58.00
1.04507	58.00
1.06173	58.00
1.07840	58.00
1.09507	58.00
1.11173	58.00
1.12840	58.00
1.14507	58.00
1.16173	58.00
1.17840	58.00
1.19507	58.00
1.21173	58.00
1.22840	58.00
1.24507	58.00
1.26173	58.00
1.27840	58.00
1.29507	58.00
1.31173	58.00
1.32840	58.00
1.34507	58.00
1.36173	58.00
1.37840	58.00
1.39507	58.00
1.41173	58.00
1.42840	58.00
1.44507	58.00
1.46173	58.00
1.47840	58.00
1.49507	58.00
1.51173	58.00
1.52840	58.00
1.54507	58.00
1.56173	58.00
1.57840	58.00
1.59507	58.00
1.61173	58.00
1.62840	58.00
1.64507	58.00
1.66173	58.00
1.67840	58.01
1.69507	58.01
1.71173	58.00
1.72840	58.00
1.74507	58.00
1.76173	58.00
1.77840	58.00
1.79507	58.00
1.81173	58.00
1.82840	58.00
1.84507	58.00
1.86173	58.00
1.87840	58.00
1.89507	58.00
1.91173	58.00
1.92840	58.00
1.94507	58.00
1.96173	58.00
1.97840	58.00
1.99507	58.00
2.01173	58.00
2.02840	58.00
2.04507	58.00
2.06173	58.00
2.07840	58.00
2.09507	58.00
2.11173	58.00
2.12840	58.00
2.14507	58.00
2.16173	58.00
2.17840	58.00
2.19507	58.00
2.21173	58.00
2.22840	58.00
2.24507	58.00
2.26173	58.00
2.27840	58.00
2.29507	58.00
2.31173	58.00
2.32840	58.00
2.34507	58.00
2.36173	58.00
2.37840	58.00
2.39507	57.99
2.41173	57.99
2.42840	58.00
2.44507	58.00
2.46173	58.00
2.47840	58.00
2.49507	58.00
2.51173	57.99
2.52840	57.98
2.54507	58.00
2.56173	58.00
2.57840	58.00
2.59507	58.00
2.61173	58.00
2.62840	58.00
2.64507	58.00
2.66173	58.00
2.67840	58.00
2.69507	58.00
2.71173	58.00
2.72840	58.00
2.74507	58.00
2.76173	58.00
2.77840	58.00
2.79507	58.00
2.81173	58.00
2.82840	58.00
2.84507	58.00
2.86173	58.00
2.87840	58.00
2.89507	58.00
2.91173	58.00
2.92840	58.00
2.94507	58.00
2.96173	58.00
2.97840	58.00
2.99507	58.00
3.01173	58.00
3.02840	58.00
3.04507	58.00
3.06173	58.00
3.07840	58.00
3.09507	58.00
3.11173	58.00
3.12840	58.00
3.14507	58.00
3.16173	58.00
3.17840	58.00
3.19507	58.00
3.21173	58.00
3.22840	58.00
3.24507	58.00
3.26173	58.00
3.27840	58.00
3.29507	58.00
3.31173	58.00
3.32840	58.00
3.34507	58.00
3.36173	58.00
3.37840	58.00
3.39507	58.00
3.41173	58.00
3.42840	58.00
3.44507	58.00
3.46173	58.00
3.47840	58.00
3.49507	58.00
3.51173	58.00
3.52840	58.00
3.54507	58.00
3.56173	58.00
3.57840	58.00
3.59507	58.00
3.61173	58.00
3.62840	58.00
3.64507	58.00
3.66173	58.00
3.67840	58.00
3.69507	58.00
3.71173	58.00
3.72840	58.00
3.74507	58.00
3.76173	58.00
3.77840	58.00
3.79507	58.00
3.81173	58.00
3.82840	58.00
3.84507	58.00
3.86173	58.00
3.87840	58.00
3.89507	58.00
3.91173	58.00
3.92840	58.00
3.94507	58.00
3.96173	58.00
3.97840	58.00
3.99507	58.00

[Status Trace (Carrier Gas Flow)]
Interval(msec)	1000
# of Points	240
Start Time(min)	0.012
End Time(min)	3.995
Intensity Units	
Intensity Multiplier	1
R.Time (min)	Intensity
0.01173	34.52
0.02840	34.54
0.04507	34.55
0.06173	34.53
0.07840	34.50
0.09507	34.52
0.11173	34.52
0.12840	34.52
0.14507	34.52
0.16173	34.52
0.17840	34.52
0.19507	34.52
0.21173	34.52
0.22840	34.52
0.24507	34.52
0.26173	34.52
0.27840	34.52
0.29507	34.52
0.31173	34.52
0.32840	34.52
0.34507	34.52
0.36173	34.52
0.37840	34.52
0.39507	34.52
0.41173	34.52
0.42840	34.52
0.44507	34.52
0.46173	34.52
0.47840	34.52
0.49507	34.52
0.51173	34.52
0.52840	34.52
0.54507	34.52
0.56173	34.52
0.57840	34.52
0.59507	34.52
0.61173	34.52
0.62840	34.52
0.64507	34.52
0.66173	34.52
0.67840	34.52
0.69507	34.52
0.71173	34.52
0.72840	34.52
0.74507	34.52
0.76173	34.52
0.77840	34.52
0.79507	34.52
0.81173	34.52
0.82840	34.52
0.84507	34.52
0.86173	34.52
0.87840	34.52
0.89507	34.52
0.91173	34.51
0.92840	34.52
0.94507	34.52
0.96173	34.52
0.97840	34.52
0.99507	34.52
1.01173	34.51
1.02840	34.52
1.04507	34.52
1.06173	34.51
1.07840	34.53
1.09507	34.52
1.11173	34.52
1.12840	34.52
1.14507	34.52
1.16173	34.53
1.17840	34.51
1.19507	34.52
1.21173	34.52
1.22840	34.51
1.24507	34.52
1.26173	34.52
1.27840	34.53
1.29507	34.51
1.31173	34.52
1.32840	34.52
1.34507	34.52
1.36173	34.52
1.37840	34.52
1.39507	34.52
1.41173	34.52
1.42840	34.52
1.44507	34.52
1.46173	34.52
1.47840	34.52
1.49507	34.52
1.51173	34.52
1.52840	34.52
1.54507	34.52
1.56173	34.52
1.57840	34.52
1.59507	34.52
1.61173	34.52
1.62840	34.52
1.64507	34.52
1.66173	34.52
1.67840	34.52
1.69507	34.52
1.71173	34.52
1.72840	34.52
1.74507	34.52
1.76173	34.52
1.77840	34.52
1.79507	34.52
1.81173	34.52
1.82840	34.52
1.84507	34.52
1.86173	34.52
1.87840	34.52
1.89507	34.52
1.91173	34.52
1.92840	34.52
1.94507	34.52
1.96173	34.52
1.97840	34.52
1.99507	34.52
2.01173	34.52
2.02840	34.52
2.04507	34.52
2.06173	34.52
2.07840	34.52
2.09507	34.52
2.11173	34.52
2.12840	34.52
2.14507	34.52
2.16173	34.52
2.17840	34.52
2.19507	34.52
2.21173	34.52
2.22840	34.52
2.24507	34.52
2.26173	34.52
2.27840	34.52
2.29507	34.52
2.31173	34.52
2.32840	34.52
2.34507	34.52
2.36173	34.52
2.37840	34.52
2.39507	34.52
2.41173	34.52
2.42840	34.52
2.44507	34.52
2.46173	34.52
2.47840	34.52
2.49507	34.52
2.51173	34.52
2.52840	34.52
2.54507	34.52
2.56173	34.52
2.57840	34.52
2.59507	34.52
2.61173	34.52
2.62840	34.52
2.64507	34.52
2.66173	34.52
2.67840	34.52
2.69507	34.52
2.71173	34.52
2.72840	34.52
2.74507	34.52
2.76173	34.52
2.77840	34.52
2.79507	34.52
2.81173	34.52
2.82840	34.52
2.84507	34.52
2.86173	34.52
2.87840	34.52
2.89507	34.52
2.91173	34.52
2.92840	34.52
2.94507	34.52
2.96173	34.52
2.97840	34.52
2.99507	34.52
3.01173	34.52
3.02840	34.52
3.04507	34.52
3.06173	34.54
3.07840	34.52
3.09507	34.52
3.11173	34.52
3.12840	34.52
3.14507	34.52
3.16173	34.52
3.17840	34.52
3.19507	34.52
3.21173	34.52
3.22840	34.52
3.24507	34.52
3.26173	34.52
3.27840	34.52
3.29507	34.52
3.31173	34.52
3.32840	34.51
3.34507	34.52
3.36173	34.52
3.37840	34.52
3.39507	34.52
3.41173	34.52
3.42840	34.52
3.44507	34.52
3.46173	34.52
3.47840	34.52
3.49507	34.52
3.51173	34.52
3.52840	34.52
3.54507	34.52
3.56173	34.52
3.57840	34.52
3.59507	34.52
3.61173	34.52
3.62840	34.52
3.64507	34.52
3.66173	34.52
3.67840	34.52
3.69507	34.52
3.71173	34.52
3.72840	34.52
3.74507	34.52
3.76173	34.52
3.77840	34.52
3.79507	34.52
3.81173	34.52
3.82840	34.52
3.84507	34.52
3.86173	34.52
3.87840	34.52
3.89507	34.52
3.91173	34.52
3.92840	34.52
3.94507	34.52
3.96173	34.52
3.97840	34.52
3.99507	34.52

[Status Trace (Column Flow)]
Interval(msec)	1000
# of Points	240
Start Time(min)	0.012
End Time(min)	3.995
Intensity Units	
Intensity Multiplier	1
R.Time (min)	Intensity
0.01173	5.47
0.02840	5.12
0.04507	5.42
0.06173	5.66
0.07840	5.58
0.09507	5.47
0.11173	5.47
0.12840	5.47
0.14507	5.47
0.16173	5.47
0.17840	5.47
0.19507	5.47
0.21173	5.47
0.22840	5.47
0.24507	5.47
0.26173	5.47
0.27840	5.47
0.29507	5.47
0.31173	5.47
0.32840	5.47
0.34507	5.47
0.36173	5.47
0.37840	5.47
0.39507	5.47
0.41173	5.47
0.42840	5.47
0.44507	5.47
0.46173	5.47
0.47840	5.47
0.49507	5.47
0.51173	5.47
0.52840	5.47
0.54507	5.47
0.56173	5.47
0.57840	5.47
0.59507	5.47
0.61173	5.47
0.62840	5.47
0.64507	5.47
0.66173	5.47
0.67840	5.47
0.69507	5.47
0.71173	5.47
0.72840	5.47
0.74507	5.47
0.76173	5.47
0.77840	5.47
0.79507	5.47
0.81173	5.47
0.82840	5.47
0.84507	5.47
0.86173	5.47
0.87840	5.47
0.89507	5.47
0.91173	5.47
0.92840	5.47
0.94507	5.47
0.96173	5.47
0.97840	5.47
0.99507	5.47
1.01173	5.47
1.02840	5.47
1.04507	5.47
1.06173	5.47
1.07840	5.47
1.09507	5.47
1.11173	5.47
1.12840	5.47
1.14507	5.47
1.16173	5.47
1.17840	5.47
1.19507	5.47
1.21173	5.47
1.22840	5.47
1.24507	5.47
1.26173	5.47
1.27840	5.47
1.29507	5.47
1.31173	5.47
1.32840	5.47
1.34507	5.47
1.36173	5.47
1.37840	5.47
1.39507	5.47
1.41173	5.47
1.42840	5.47
1.44507	5.47
1.46173	5.47
1.47840	5.47
1.49507	5.47
1.51173	5.47
1.52840	5.47
1.54507	5.47
1.56173	5.47
1.57840	5.47
1.59507	5.47
1.61173	5.46
1.62840	5.46
1.64507	5.46
1.66173	5.45
1.67840	5.44
1.69507	5.43
1.71173	5.41
1.72840	5.41
1.74507	5.40
1.76173	5.38
1.77840	5.37
1.79507	5.37
1.81173	5.35
1.82840	5.35
1.84507	5.34
1.86173	5.32
1.87840	5.32
1.89507	5.31
1.91173	5.29
1.92840	5.29
1.94507	5.28
1.96173	5.27
1.97840	5.26
1.99507	5.25
2.01173	5.24
2.02840	5.23
2.04507	5.22
2.06173	5.21
2.07840	5.20
2.09507	5.19
2.11173	5.18
2.12840	5.17
2.14507	5.16
2.16173	5.15
2.17840	5.14
2.19507	5.13
2.21173	5.12
2.22840	5.12
2.24507	5.11
2.26173	5.10
2.27840	5.09
2.29507	5.08
2.31173	5.07
2.32840	5.06
2.34507	5.05
2.36173	5.04
2.37840	5.04
2.39507	5.04
2.41173	5.04
2.42840	5.04
2.44507	5.04
2.46173	5.04
2.47840	5.04
2.49507	5.04
2.51173	5.03
2.52840	5.03
2.54507	5.04
2.56173	5.04
2.57840	5.04
2.59507	5.04
2.61173	5.04
2.62840	5.04
2.64507	5.03
2.66173	5.03
2.67840	5.03
2.69507	5.03
2.71173	5.03
2.72840	5.03
2.74507	5.03
2.76173	5.03
2.77840	5.03
2.79507	5.03
2.81173	5.03
2.82840	5.03
2.84507	5.03
2.86173	5.03
2.87840	5.03
2.89507	5.03
2.91173	5.03
2.92840	5.03
2.94507	5.03
2.96173	5.03
2.97840	5.03
2.99507	5.03
3.01173	5.03
3.02840	5.03
3.04507	5.03
3.06173	5.03
3.07840	5.03
3.09507	5.03
3.11173	5.03
3.12840	5.03
3.14507	5.03
3.16173	5.03
3.17840	5.03
3.19507	5.03
3.21173	5.03
3.22840	5.03
3.24507	5.03
3.26173	5.03
3.27840	5.03
3.29507	5.03
3.31173	5.03
3.32840	5.03
3.34507	5.03
3.36173	5.03
3.37840	5.03
3.39507	5.03
3.41173	5.03
3.42840	5.03
3.44507	5.03
3.46173	5.03
3.47840	5.03
3.49507	5.03
3.51173	5.03
3.52840	5.03
3.54507	5.03
3.56173	5.03
3.57840	5.03
3.59507	5.03
3.61173	5.03
3.62840	5.03
3.64507	5.03
3.66173	5.03
3.67840	5.03
3.69507	5.03
3.71173	5.03
3.72840	5.03
3.74507	5.03
3.76173	5.03
3.77840	5.03
3.79507	5.03
3.81173	5.03
3.82840	5.03
3.84507	5.03
3.86173	5.03
3.87840	5.03
3.89507	5.03
3.91173	5.03
3.92840	5.03
3.94507	5.03
3.96173	5.03
3.97840	5.03
3.99507	5.03

[Status Trace (Linear Velocity)]
Interval(msec)	1000
# of Points	240
Start Time(min)	0.012
End Time(min)	3.995
Intensity Units	
Intensity Multiplier	1
R.Time (min)	Intensity
0.01173	39.00
0.02840	37.02
0.04507	38.73
0.06173	40.09
0.07840	39.63
0.09507	39.00
0.11173	39.00
0.12840	39.01
0.14507	39.01
0.16173	39.00
0.17840	39.01
0.19507	39.00
0.21173	39.00
0.22840	39.00
0.24507	39.00
0.26173	39.00
0.27840	39.00
0.29507	39.00
0.31173	39.01
0.32840	39.00
0.34507	39.00
0.36173	39.00
0.37840	39.00
0.39507	39.00
0.41173	39.00
0.42840	39.00
0.44507	39.00
0.46173	39.00
0.47840	39.00
0.49507	39.00
0.51173	39.00
0.52840	39.00
0.54507	39.01
0.56173	39.01
0.57840	39.01
0.59507	39.01
0.61173	39.01
0.62840	39.01
0.64507	39.01
0.66173	39.01
0.67840	39.01
0.69507	39.00
0.71173	39.00
0.72840	39.00
0.74507	39.00
0.76173	39.00
0.77840	39.00
0.79507	39.00
0.81173	39.01
0.82840	39.01
0.84507	39.01
0.86173	39.01
0.87840	39.01
0.89507	39.01
0.91173	39.01
0.92840	39.01
0.94507	39.01
0.96173	39.01
0.97840	39.01
0.99507	39.01
1.01173	39.00
1.02840	39.00
1.04507	39.00
1.06173	39.00
1.07840	39.00
1.09507	39.00
1.11173	39.00
1.12840	39.01
1.14507	39.00
1.16173	39.00
1.17840	39.00
1.19507	39.01
1.21173	39.01
1.22840	39.01
1.24507	39.01
1.26173	39.01
1.27840	39.01
1.29507	39.01
1.31173	39.01
1.32840	39.01
1.34507	39.01
1.36173	39.01
1.37840	39.01
1.39507	39.01
1.41173	39.01
1.42840	39.00
1.44507	39.00
1.46173	39.00
1.47840	39.00
1.49507	39.00
1.51173	39.00
1.52840	39.00
1.54507	39.00
1.56173	39.00
1.57840	39.00
1.59507	39.00
1.61173	38.99
1.62840	38.98
1.64507	38.96
1.66173	38.94
1.67840	38.91
1.69507	38.88
1.71173	38.83
1.72840	38.81
1.74507	38.78
1.76173	38.74
1.77840	38.71
1.79507	38.68
1.81173	38.65
1.82840	38.62
1.84507	38.59
1.86173	38.55
1.87840	38.53
1.89507	38.49
1.91173	38.46
1.92840	38.43
1.94507	38.40
1.96173	38.37
1.97840	38.34
1.99507	38.31
2.01173	38.28
2.02840	38.25
2.04507	38.22
2.06173	38.19
2.07840	38.16
2.09507	38.13
2.11173	38.10
2.12840	38.08
2.14507	38.04
2.16173	38.01
2.17840	37.98
2.19507	37.95
2.21173	37.92
2.22840	37.89
2.24507	37.87
2.26173	37.84
2.27840	37.81
2.29507	37.78
2.31173	37.75
2.32840	37.72
2.34507	37.69
2.36173	37.66
2.37840	37.64
2.39507	37.64
2.41173	37.64
2.42840	37.64
2.44507	37.64
2.46173	37.64
2.47840	37.64
2.49507	37.64
2.51173	37.63
2.52840	37.63
2.54507	37.64
2.56173	37.64
2.57840	37.64
2.59507	37.64
2.61173	37.64
2.62840	37.64
2.64507	37.64
2.66173	37.63
2.67840	37.63
2.69507	37.63
2.71173	37.63
2.72840	37.63
2.74507	37.63
2.76173	37.63
2.77840	37.63
2.79507	37.63
2.81173	37.63
2.82840	37.63
2.84507	37.63
2.86173	37.63
2.87840	37.63
2.89507	37.63
2.91173	37.63
2.92840	37.63
2.94507	37.63
2.96173	37.63
2.97840	37.62
2.99507	37.62
3.01173	37.62
3.02840	37.62
3.04507	37.62
3.06173	37.62
3.07840	37.62
3.09507	37.62
3.11173	37.62
3.12840	37.62
3.14507	37.62
3.16173	37.62
3.17840	37.62
3.19507	37.61
3.21173	37.61
3.22840	37.61
3.24507	37.61
3.26173	37.61
3.27840	37.61
3.29507	37.61
3.31173	37.61
3.32840	37.61
3.34507	37.61
3.36173	37.61
3.37840	37.61
3.39507	37.61
3.41173	37.61
3.42840	37.61
3.44507	37.62
3.46173	37.62
3.47840	37.62
3.49507	37.62
3.51173	37.62
3.52840	37.62
3.54507	37.62
3.56173	37.61
3.57840	37.61
3.59507	37.61
3.61173	37.61
3.62840	37.61
3.64507	37.61
3.66173	37.61
3.67840	37.61
3.69507	37.62
3.71173	37.62
3.72840	37.61
3.74507	37.61
3.76173	37.62
3.77840	37.62
3.79507	37.62
3.81173	37.62
3.82840	37.62
3.84507	37.62
3.86173	37.61
3.87840	37.61
3.89507	37.62
3.91173	37.62
3.92840	37.62
3.94507	37.62
3.96173	37.62
3.97840	37.62
3.99507	37.62

