[Header]
Application Name	LabSolutions
Version	5.110
Data File Name	C:\Users\User\Desktop\GC Analyses\Jack\UIC Prairie Sampling\9.2.22\220902_068.gcd
Output Date	10/28/2022
Output Time	1:23:56 PM

[File Information]
Type	Data File
Generated	10/27/2022 11:59:01 AM
Generated by	System Administrator
Modified	10/27/2022 12:03:43 PM
Modified by	System Administrator

[Sample Information]
Operator Name	System Administrator
Acquired	10/27/2022 11:59:43 AM
Sample Type	1:Standard
Level	1
Sample Name	220902_UICPrairie
Sample ID	220902_UICPrairie
ISTD Amount1	1
ISTD Amount2	1
ISTD Amount3	1
ISTD Amount4	1
ISTD Amount5	1
ISTD Amount6	1
ISTD Amount7	1
ISTD Amount8	1
ISTD Amount9	1
ISTD Amount10	1
ISTD Amount11	1
ISTD Amount12	1
ISTD Amount13	1
ISTD Amount14	1
ISTD Amount15	1
ISTD Amount16	1
ISTD Amount17	1
ISTD Amount18	1
ISTD Amount19	1
ISTD Amount20	1
ISTD Amount21	1
ISTD Amount22	1
ISTD Amount23	1
ISTD Amount24	1
ISTD Amount25	1
ISTD Amount26	1
ISTD Amount27	1
ISTD Amount28	1
ISTD Amount29	1
ISTD Amount30	1
ISTD Amount31	1
ISTD Amount32	1
Sample Amount	1
Dilution Factor	1
Vial#	1
Injection Volume	1
Injection Count	1
Bar Code	

[Original Files]
Data File	C:\Users\User\Desktop\GC Analyses\Jack\UIC Prairie Sampling\9.2.22\220902_068.gcd
Method File	C:\LabSolutions\Data\GHG_4min_2022\ghg3_togas_w_acet_4 min_new_int.gcm
Batch File	
Report Format File	c:\LabSolutions\System\DEFAULT.lsr

[File Description]


[Configuration]
Instrument Name	C0B7VH3-Instrument1
Instrument #	1
Line #	1
# of Detectors	3
Detector ID	DET#1	DET#2	DET#3
Detector Name	FID	PTCD	ECD
# of Channels	1	1	1

[Peak Table(Ch1)]
# of Peaks	3
Peak#	R.Time	I.Time	F.Time	Area	Height	A/H	Conc.	Mark	ID#	Name	k'	Plate #	Plate Ht.	Tailing	Resolution	Sep.Factor	Area Ratio	Height Ratio	Conc. %	Norm Conc.
1	1.468	1.439	1.534	3835	1283	2.989	100.000	   	1	CO	0.000	5506	27.241	0.000	0.000	0.000	0	0	16.667	16.667
2	1.571	1.534	1.644	21137	10578	1.998	100.000	 V 	2	CH4	0.070	11338	13.230	1.136	1.486	0.000	0	0	16.667	16.667
3	1.996	1.945	2.499	2191411	1049207	2.089	400.000	   	3	CO2	0.360	17335	8.653	1.304	7.109	5.143	0	0	66.667	66.667

[Peak Table(Ch2)]
# of Peaks	0

[Peak Table(Ch3)]
# of Peaks	3
Peak#	R.Time	I.Time	F.Time	Area	Height	A/H	Conc.	Mark	ID#	Name	k'	Plate #	Plate Ht.	Tailing	Resolution	Sep.Factor	Area Ratio	Height Ratio	Conc. %	Norm Conc.
1	2.601	2.473	2.642	1055	221	4.766	0.000	   			0.000	4831	31.047	0.654	0.000	0.000	0	0	0.000	0.000
2	2.884	2.664	3.309	68394	16280	4.201	1.000	   	1	N2O	0.109	12305	12.190	1.563	2.226	0.000	0	0	100.000	100.000
3	3.448	3.316	3.965	10365	484	21.402	0.000	   			0.326	416	360.996	2.450	1.447	3.000	0	0	0.000	0.000

[Compound Results(Ch1)]
# of IDs	6
ID#	Name	R.Time	Area	Height	Conc.	Curve	3rd	2nd	1st	Constant	Area Ratio	Height Ratio	Conc. %	Norm Conc.
1	CO	1.468	3835	1283	100.000	Linear	0.000000e+00	0.000000e+00	3.835420e+001	0.000000e+00	0	0	16.667	16.667
2	CH4	1.571	21137	10578	100.000	Linear	0.000000e+00	0.000000e+00	2.113650e+002	0.000000e+00	0	0	16.667	16.667
3	CO2	1.996	2191411	1049207	400.000	Linear	0.000000e+00	0.000000e+00	5.478529e+003	0.000000e+00	0	0	66.667	66.667
4	Ethylene	0.000	0	0	0.000	Linear	0.000000e+00	0.000000e+00	0.000000e+00	0.000000e+00	0	0	0.000	0.000
5	Acetylene	0.000	0	0	0.000	Linear	0.000000e+00	0.000000e+00	0.000000e+00	0.000000e+00	0	0	0.000	0.000
6	Ethane	0.000	0	0	0.000	Linear	0.000000e+00	0.000000e+00	0.000000e+00	0.000000e+00	0	0	0.000	0.000

[Compound Results(Ch2)]
# of IDs	5
ID#	Name	R.Time	Area	Height	Conc.	Curve	3rd	2nd	1st	Constant	Area Ratio	Height Ratio	Conc. %	Norm Conc.
1	Hydrogen	0.000	0	0	0.000	Linear	0.000000e+00	0.000000e+00	0.000000e+00	0.000000e+00	0	0	0.000	0.000
2	Oxygen	0.000	0	0	0.000	Linear	0.000000e+00	0.000000e+00	0.000000e+00	0.000000e+00	0	0	0.000	0.000
3	Nitrogen	0.000	0	0	0.000	Linear	0.000000e+00	0.000000e+00	0.000000e+00	0.000000e+00	0	0	0.000	0.000
4	Methane	0.000	0	0	0.000	Linear	0.000000e+00	0.000000e+00	0.000000e+00	0.000000e+00	0	0	0.000	0.000
5	Carbon Monoxide	0.000	0	0	0.000	Linear	0.000000e+00	0.000000e+00	0.000000e+00	0.000000e+00	0	0	0.000	0.000

[Compound Results(Ch3)]
# of IDs	2
ID#	Name	R.Time	Area	Height	Conc.	Curve	3rd	2nd	1st	Constant	Area Ratio	Height Ratio	Conc. %	Norm Conc.
1	N2O	2.884	68394	16280	1.000	Linear	0.000000e+00	0.000000e+00	6.839361e+004	0.000000e+00	0	0	100.000	100.000
2	SF6	0.000	0	0	0.000	Linear	0.000000e+00	0.000000e+00	0.000000e+00	0.000000e+00	0	0	0.000	0.000

[Group Results(Ch1)]
# of Groups	0

[Group Results(Ch2)]
# of Groups	0

[Group Results(Ch3)]
# of Groups	0

[Chromatogram (Ch1)]
Interval(msec)	220
# of Points	1091
Start Time(min)	0.002
End Time(min)	3.998
R.Time (min)	Intensity
0.00167	6
0.00533	1
0.00900	-7
0.01267	-12
0.01633	-14
0.02000	-14
0.02367	-15
0.02733	-13
0.03100	-8
0.03467	-2
0.03833	1
0.04200	1
0.04567	-4
0.04933	-10
0.05300	-15
0.05667	-17
0.06033	-14
0.06400	-10
0.06767	-4
0.07133	2
0.07500	-1
0.07867	-9
0.08233	-17
0.08600	-19
0.08967	-18
0.09333	-18
0.09700	-17
0.10067	-15
0.10433	-14
0.10800	-16
0.11167	-17
0.11533	-19
0.11900	-22
0.12267	-24
0.12633	-25
0.13000	-27
0.13367	-30
0.13733	-34
0.14100	-37
0.14467	-36
0.14833	-29
0.15200	-19
0.15567	-14
0.15933	-11
0.16300	-9
0.16667	-9
0.17033	-11
0.17400	-12
0.17767	-15
0.18133	-19
0.18500	-26
0.18867	-35
0.19233	-42
0.19600	-44
0.19967	-39
0.20333	-34
0.20700	-30
0.21067	-29
0.21433	-30
0.21800	-30
0.22167	-28
0.22533	-27
0.22900	-27
0.23267	-27
0.23633	-29
0.24000	-34
0.24367	-44
0.24733	-54
0.25100	-60
0.25467	-62
0.25833	-58
0.26200	-51
0.26567	-47
0.26933	-44
0.27300	-40
0.27667	-37
0.28033	-34
0.28400	-29
0.28767	-25
0.29133	-25
0.29500	-28
0.29867	-30
0.30233	-32
0.30600	-34
0.30967	-37
0.31333	-40
0.31700	-40
0.32067	-42
0.32433	-46
0.32800	-49
0.33167	-51
0.33533	-51
0.33900	-47
0.34267	-45
0.34633	-41
0.35000	-37
0.35367	-36
0.35733	-38
0.36100	-40
0.36467	-40
0.36833	-38
0.37200	-35
0.37567	-36
0.37933	-38
0.38300	-39
0.38667	-35
0.39033	-32
0.39400	-31
0.39767	-34
0.40133	-37
0.40500	-39
0.40867	-39
0.41233	-42
0.41600	-46
0.41967	-49
0.42333	-49
0.42700	-45
0.43067	-41
0.43433	-41
0.43800	-43
0.44167	-46
0.44533	-50
0.44900	-55
0.45267	-61
0.45633	-61
0.46000	-58
0.46367	-56
0.46733	-52
0.47100	-46
0.47467	-42
0.47833	-42
0.48200	-43
0.48567	-43
0.48933	-44
0.49300	-49
0.49667	-52
0.50033	-50
0.50400	-44
0.50767	-37
0.51133	-33
0.51500	-33
0.51867	-34
0.52233	-37
0.52600	-39
0.52967	-40
0.53333	-42
0.53700	-42
0.54067	-45
0.54433	-49
0.54800	-51
0.55167	-48
0.55533	-42
0.55900	-38
0.56267	-37
0.56633	-35
0.57000	-32
0.57367	-33
0.57733	-38
0.58100	-40
0.58467	-40
0.58833	-39
0.59200	-36
0.59567	-33
0.59933	-34
0.60300	-39
0.60667	-44
0.61033	-49
0.61400	-53
0.61767	-56
0.62133	-57
0.62500	-59
0.62867	-61
0.63233	-64
0.63600	-66
0.63967	-66
0.64333	-63
0.64700	-58
0.65067	-51
0.65433	-47
0.65800	-47
0.66167	-46
0.66533	-42
0.66900	-39
0.67267	-38
0.67633	-38
0.68000	-40
0.68367	-44
0.68733	-51
0.69100	-54
0.69467	-55
0.69833	-57
0.70200	-58
0.70567	-57
0.70933	-54
0.71300	-52
0.71667	-51
0.72033	-49
0.72400	-44
0.72767	-41
0.73133	-42
0.73500	-45
0.73867	-44
0.74233	-43
0.74600	-47
0.74967	-55
0.75333	-62
0.75700	-67
0.76067	-71
0.76433	-72
0.76800	-67
0.77167	-59
0.77533	-51
0.77900	-45
0.78267	-43
0.78633	-42
0.79000	-40
0.79367	-40
0.79733	-44
0.80100	-54
0.80467	-66
0.80833	-76
0.81200	-80
0.81567	-82
0.81933	-81
0.82300	-81
0.82667	-83
0.83033	-86
0.83400	-88
0.83767	-86
0.84133	-83
0.84500	-78
0.84867	-73
0.85233	-69
0.85600	-66
0.85967	-59
0.86333	-54
0.86700	-51
0.87067	-48
0.87433	-45
0.87800	-42
0.88167	-41
0.88533	-43
0.88900	-48
0.89267	-54
0.89633	-59
0.90000	-64
0.90367	-64
0.90733	-59
0.91100	-52
0.91467	-51
0.91833	-54
0.92200	-56
0.92567	-58
0.92933	-58
0.93300	-58
0.93667	-58
0.94033	-61
0.94400	-67
0.94767	-75
0.95133	-85
0.95500	-92
0.95867	-92
0.96233	-85
0.96600	-77
0.96967	-76
0.97333	-78
0.97700	-82
0.98067	-81
0.98433	-75
0.98800	-66
0.99167	-60
0.99533	-61
0.99900	-66
1.00267	-73
1.00633	-78
1.01000	-80
1.01367	-75
1.01733	-72
1.02100	-72
1.02467	-74
1.02833	-75
1.03200	-76
1.03567	-76
1.03933	-75
1.04300	-75
1.04667	-79
1.05033	-85
1.05400	-92
1.05767	-96
1.06133	-97
1.06500	-93
1.06867	-87
1.07233	-81
1.07600	-75
1.07967	-69
1.08333	-66
1.08700	-64
1.09067	-65
1.09433	-66
1.09800	-68
1.10167	-69
1.10533	-68
1.10900	-68
1.11267	-69
1.11633	-72
1.12000	-76
1.12367	-81
1.12733	-86
1.13100	-92
1.13467	-96
1.13833	-100
1.14200	-101
1.14567	-100
1.14933	-98
1.15300	-95
1.15667	-89
1.16033	-83
1.16400	-79
1.16767	-77
1.17133	-75
1.17500	-79
1.17867	-80
1.18233	-81
1.18600	-79
1.18967	-75
1.19333	-73
1.19700	-72
1.20067	-69
1.20433	-67
1.20800	-69
1.21167	-76
1.21533	-86
1.21900	-97
1.22267	-104
1.22633	-108
1.23000	-108
1.23367	-106
1.23733	-103
1.24100	-96
1.24467	-82
1.24833	-70
1.25200	-66
1.25567	-67
1.25933	-69
1.26300	-72
1.26667	-78
1.27033	-85
1.27400	-94
1.27767	-102
1.28133	-108
1.28500	-109
1.28867	-103
1.29233	-93
1.29600	-87
1.29967	-84
1.30333	-86
1.30700	-91
1.31067	-94
1.31433	-96
1.31800	-97
1.32167	-97
1.32533	-97
1.32900	-97
1.33267	-95
1.33633	-93
1.34000	-88
1.34367	-83
1.34733	-83
1.35100	-90
1.35467	-102
1.35833	-110
1.36200	-114
1.36567	-114
1.36933	-112
1.37300	-110
1.37667	-110
1.38033	-109
1.38400	-107
1.38767	-105
1.39133	-104
1.39500	-103
1.39867	-105
1.40233	-106
1.40600	-105
1.40967	-102
1.41333	-95
1.41700	-90
1.42067	-89
1.42433	-91
1.42800	-95
1.43167	-96
1.43533	-95
1.43900	-78
1.44267	11
1.44633	225
1.45000	513
1.45367	783
1.45733	986
1.46100	1116
1.46467	1182
1.46833	1201
1.47200	1191
1.47567	1164
1.47933	1124
1.48300	1064
1.48667	976
1.49033	858
1.49400	719
1.49767	581
1.50133	455
1.50500	350
1.50867	268
1.51233	203
1.51600	147
1.51967	97
1.52333	55
1.52700	21
1.53067	-6
1.53433	-22
1.53800	16
1.54167	258
1.54533	989
1.54900	2407
1.55267	4348
1.55633	6392
1.56000	8180
1.56367	9530
1.56733	10341
1.57100	10481
1.57467	9852
1.57833	8539
1.58200	6846
1.58567	5134
1.58933	3653
1.59300	2497
1.59667	1651
1.60033	1059
1.60400	658
1.60767	390
1.61133	214
1.61500	100
1.61867	29
1.62233	-16
1.62600	-45
1.62967	-65
1.63333	-79
1.63700	-89
1.64067	-99
1.64433	-107
1.64800	-103
1.65167	-89
1.65533	-77
1.65900	-71
1.66267	-68
1.66633	-67
1.67000	-67
1.67367	-65
1.67733	-61
1.68100	-58
1.68467	-60
1.68833	-67
1.69200	-78
1.69567	-87
1.69933	-94
1.70300	-100
1.70667	-109
1.71033	-117
1.71400	-119
1.71767	-114
1.72133	-105
1.72500	-99
1.72867	-99
1.73233	-101
1.73600	-102
1.73967	-102
1.74333	-100
1.74700	-97
1.75067	-94
1.75433	-92
1.75800	-93
1.76167	-97
1.76533	-99
1.76900	-99
1.77267	-97
1.77633	-92
1.78000	-88
1.78367	-86
1.78733	-88
1.79100	-92
1.79467	-95
1.79833	-96
1.80200	-95
1.80567	-93
1.80933	-91
1.81300	-88
1.81667	-82
1.82033	-77
1.82400	-75
1.82767	-75
1.83133	-76
1.83500	-76
1.83867	-73
1.84233	-70
1.84600	-66
1.84967	-66
1.85333	-68
1.85700	-69
1.86067	-68
1.86433	-64
1.86800	-62
1.87167	-63
1.87533	-70
1.87900	-76
1.88267	-76
1.88633	-72
1.89000	-65
1.89367	-59
1.89733	-55
1.90100	-51
1.90467	-50
1.90833	-53
1.91200	-58
1.91567	-65
1.91933	-68
1.92300	-70
1.92667	-73
1.93033	-74
1.93400	-75
1.93767	-77
1.94133	-78
1.94500	-73
1.94867	-63
1.95233	-37
1.95600	107
1.95967	937
1.96333	4873
1.96700	19097
1.97067	58415
1.97433	142382
1.97800	282405
1.98167	468036
1.98533	669063
1.98900	850075
1.99267	982696
1.99633	1049155
2.00000	1042252
2.00367	966692
2.00733	839242
2.01100	684976
2.01467	529281
2.01833	390835
2.02200	278750
2.02567	194073
2.02933	133202
2.03300	90926
2.03667	62231
2.04033	43018
2.04400	30234
2.04767	21721
2.05133	16016
2.05500	12145
2.05867	9475
2.06233	7597
2.06600	6244
2.06967	5242
2.07333	4480
2.07700	3890
2.08067	3423
2.08433	3048
2.08800	2742
2.09167	2486
2.09533	2269
2.09900	2085
2.10267	1927
2.10633	1787
2.11000	1665
2.11367	1558
2.11733	1465
2.12100	1384
2.12467	1313
2.12833	1251
2.13200	1194
2.13567	1141
2.13933	1091
2.14300	1045
2.14667	998
2.15033	951
2.15400	905
2.15767	860
2.16133	816
2.16500	778
2.16867	748
2.17233	724
2.17600	702
2.17967	676
2.18333	650
2.18700	627
2.19067	609
2.19433	595
2.19800	580
2.20167	561
2.20533	542
2.20900	526
2.21267	515
2.21633	504
2.22000	493
2.22367	485
2.22733	479
2.23100	473
2.23467	462
2.23833	446
2.24200	428
2.24567	408
2.24933	393
2.25300	381
2.25667	372
2.26033	364
2.26400	360
2.26767	356
2.27133	348
2.27500	339
2.27867	332
2.28233	324
2.28600	320
2.28967	320
2.29333	320
2.29700	317
2.30067	312
2.30433	308
2.30800	302
2.31167	299
2.31533	297
2.31900	295
2.32267	292
2.32633	286
2.33000	277
2.33367	269
2.33733	262
2.34100	258
2.34467	256
2.34833	256
2.35200	257
2.35567	251
2.35933	242
2.36300	236
2.36667	235
2.37033	236
2.37400	239
2.37767	240
2.38133	237
2.38500	233
2.38867	227
2.39233	223
2.39600	222
2.39967	221
2.40333	218
2.40700	217
2.41067	218
2.41433	216
2.41800	212
2.42167	207
2.42533	205
2.42900	201
2.43267	198
2.43633	198
2.44000	198
2.44367	195
2.44733	188
2.45100	181
2.45467	178
2.45833	180
2.46200	185
2.46567	191
2.46933	195
2.47300	197
2.47667	197
2.48033	192
2.48400	184
2.48767	175
2.49133	168
2.49500	162
2.49867	157
2.50233	154
2.50600	156
2.50967	159
2.51333	161
2.51700	162
2.52067	163
2.52433	163
2.52800	160
2.53167	157
2.53533	156
2.53900	157
2.54267	155
2.54633	152
2.55000	150
2.55367	151
2.55733	154
2.56100	157
2.56467	160
2.56833	164
2.57200	168
2.57567	169
2.57933	166
2.58300	161
2.58667	156
2.59033	151
2.59400	143
2.59767	136
2.60133	133
2.60500	134
2.60867	137
2.61233	136
2.61600	130
2.61967	125
2.62333	121
2.62700	119
2.63067	122
2.63433	128
2.63800	134
2.64167	138
2.64533	141
2.64900	142
2.65267	141
2.65633	140
2.66000	141
2.66367	142
2.66733	141
2.67100	138
2.67467	134
2.67833	129
2.68200	125
2.68567	120
2.68933	119
2.69300	118
2.69667	122
2.70033	127
2.70400	131
2.70767	135
2.71133	138
2.71500	137
2.71867	137
2.72233	137
2.72600	138
2.72967	139
2.73333	142
2.73700	143
2.74067	141
2.74433	135
2.74800	131
2.75167	130
2.75533	129
2.75900	129
2.76267	131
2.76633	135
2.77000	140
2.77367	142
2.77733	138
2.78100	130
2.78467	122
2.78833	120
2.79200	121
2.79567	122
2.79933	119
2.80300	116
2.80667	118
2.81033	121
2.81400	127
2.81767	131
2.82133	133
2.82500	130
2.82867	127
2.83233	124
2.83600	124
2.83967	125
2.84333	125
2.84700	122
2.85067	118
2.85433	116
2.85800	117
2.86167	118
2.86533	119
2.86900	117
2.87267	114
2.87633	112
2.88000	112
2.88367	114
2.88733	115
2.89100	117
2.89467	118
2.89833	116
2.90200	113
2.90567	113
2.90933	116
2.91300	118
2.91667	118
2.92033	119
2.92400	123
2.92767	125
2.93133	124
2.93500	125
2.93867	128
2.94233	128
2.94600	126
2.94967	122
2.95333	116
2.95700	111
2.96067	109
2.96433	109
2.96800	109
2.97167	106
2.97533	103
2.97900	101
2.98267	102
2.98633	104
2.99000	102
2.99367	99
2.99733	99
3.00100	104
3.00467	110
3.00833	115
3.01200	118
3.01567	119
3.01933	120
3.02300	119
3.02667	119
3.03033	119
3.03400	119
3.03767	118
3.04133	115
3.04500	112
3.04867	111
3.05233	109
3.05600	103
3.05967	97
3.06333	96
3.06700	97
3.07067	98
3.07433	98
3.07800	98
3.08167	97
3.08533	97
3.08900	97
3.09267	97
3.09633	96
3.10000	95
3.10367	96
3.10733	99
3.11100	102
3.11467	102
3.11833	100
3.12200	96
3.12567	91
3.12933	89
3.13300	88
3.13667	87
3.14033	87
3.14400	92
3.14767	98
3.15133	103
3.15500	103
3.15867	103
3.16233	102
3.16600	99
3.16967	94
3.17333	89
3.17700	81
3.18067	79
3.18433	83
3.18800	89
3.19167	94
3.19533	95
3.19900	95
3.20267	93
3.20633	85
3.21000	75
3.21367	68
3.21733	67
3.22100	71
3.22467	76
3.22833	78
3.23200	80
3.23567	81
3.23933	83
3.24300	83
3.24667	83
3.25033	83
3.25400	83
3.25767	84
3.26133	84
3.26500	84
3.26867	82
3.27233	79
3.27600	79
3.27967	81
3.28333	85
3.28700	87
3.29067	85
3.29433	81
3.29800	78
3.30167	79
3.30533	81
3.30900	81
3.31267	81
3.31633	82
3.32000	80
3.32367	78
3.32733	76
3.33100	75
3.33467	80
3.33833	88
3.34200	92
3.34567	90
3.34933	82
3.35300	72
3.35667	68
3.36033	71
3.36400	74
3.36767	74
3.37133	71
3.37500	67
3.37867	64
3.38233	62
3.38600	60
3.38967	60
3.39333	65
3.39700	71
3.40067	75
3.40433	75
3.40800	72
3.41167	69
3.41533	66
3.41900	66
3.42267	69
3.42633	70
3.43000	69
3.43367	70
3.43733	69
3.44100	67
3.44467	62
3.44833	58
3.45200	57
3.45567	59
3.45933	65
3.46300	70
3.46667	72
3.47033	69
3.47400	66
3.47767	62
3.48133	62
3.48500	64
3.48867	66
3.49233	64
3.49600	60
3.49967	56
3.50333	53
3.50700	51
3.51067	52
3.51433	56
3.51800	63
3.52167	66
3.52533	65
3.52900	59
3.53267	54
3.53633	49
3.54000	46
3.54367	44
3.54733	47
3.55100	53
3.55467	59
3.55833	61
3.56200	59
3.56567	57
3.56933	53
3.57300	52
3.57667	52
3.58033	55
3.58400	59
3.58767	59
3.59133	55
3.59500	50
3.59867	43
3.60233	39
3.60600	37
3.60967	40
3.61333	43
3.61700	46
3.62067	49
3.62433	49
3.62800	47
3.63167	44
3.63533	42
3.63900	42
3.64267	42
3.64633	45
3.65000	50
3.65367	56
3.65733	59
3.66100	56
3.66467	50
3.66833	44
3.67200	38
3.67567	36
3.67933	38
3.68300	39
3.68667	39
3.69033	37
3.69400	39
3.69767	43
3.70133	47
3.70500	50
3.70867	55
3.71233	58
3.71600	58
3.71967	53
3.72333	45
3.72700	39
3.73067	38
3.73433	40
3.73800	43
3.74167	46
3.74533	46
3.74900	43
3.75267	36
3.75633	30
3.76000	27
3.76367	28
3.76733	31
3.77100	37
3.77467	44
3.77833	51
3.78200	56
3.78567	54
3.78933	46
3.79300	41
3.79667	45
3.80033	54
3.80400	60
3.80767	60
3.81133	55
3.81500	48
3.81867	41
3.82233	36
3.82600	31
3.82967	25
3.83333	21
3.83700	23
3.84067	30
3.84433	34
3.84800	34
3.85167	33
3.85533	33
3.85900	31
3.86267	26
3.86633	21
3.87000	20
3.87367	22
3.87733	25
3.88100	30
3.88467	36
3.88833	43
3.89200	46
3.89567	44
3.89933	40
3.90300	38
3.90667	39
3.91033	43
3.91400	44
3.91767	43
3.92133	42
3.92500	41
3.92867	40
3.93233	40
3.93600	40
3.93967	40
3.94333	40
3.94700	43
3.95067	48
3.95433	55
3.95800	57
3.96167	51
3.96533	41
3.96900	37
3.97267	38
3.97633	37
3.98000	36
3.98367	32
3.98733	29
3.99100	28
3.99467	31
3.99833	35

[Chromatogram (Ch2)]
Interval(msec)	220
# of Points	1091
Start Time(min)	0.002
End Time(min)	3.998
R.Time (min)	Intensity
0.00167	-1
0.00533	-1
0.00900	-1
0.01267	-1
0.01633	-1
0.02000	-1
0.02367	-1
0.02733	-1
0.03100	-1
0.03467	-1
0.03833	-1
0.04200	-0
0.04567	-0
0.04933	-0
0.05300	-0
0.05667	-0
0.06033	-0
0.06400	-0
0.06767	-0
0.07133	-0
0.07500	0
0.07867	0
0.08233	0
0.08600	0
0.08967	0
0.09333	0
0.09700	0
0.10067	-0
0.10433	-1
0.10800	-1
0.11167	-2
0.11533	-3
0.11900	-3
0.12267	-4
0.12633	-4
0.13000	-4
0.13367	-4
0.13733	-4
0.14100	-3
0.14467	-3
0.14833	-3
0.15200	-2
0.15567	-2
0.15933	-2
0.16300	-2
0.16667	-2
0.17033	-2
0.17400	-2
0.17767	-2
0.18133	-2
0.18500	-2
0.18867	-2
0.19233	-1
0.19600	-1
0.19967	-0
0.20333	0
0.20700	1
0.21067	1
0.21433	1
0.21800	1
0.22167	2
0.22533	2
0.22900	2
0.23267	2
0.23633	2
0.24000	2
0.24367	2
0.24733	2
0.25100	2
0.25467	3
0.25833	3
0.26200	3
0.26567	3
0.26933	3
0.27300	3
0.27667	3
0.28033	3
0.28400	3
0.28767	3
0.29133	3
0.29500	3
0.29867	3
0.30233	3
0.30600	3
0.30967	4
0.31333	4
0.31700	4
0.32067	4
0.32433	4
0.32800	4
0.33167	3
0.33533	3
0.33900	3
0.34267	2
0.34633	2
0.35000	2
0.35367	2
0.35733	2
0.36100	2
0.36467	2
0.36833	2
0.37200	2
0.37567	2
0.37933	2
0.38300	2
0.38667	2
0.39033	2
0.39400	1
0.39767	1
0.40133	1
0.40500	1
0.40867	1
0.41233	1
0.41600	1
0.41967	1
0.42333	0
0.42700	0
0.43067	-0
0.43433	-0
0.43800	-0
0.44167	-0
0.44533	-1
0.44900	-1
0.45267	-1
0.45633	-1
0.46000	-1
0.46367	-1
0.46733	-1
0.47100	-1
0.47467	-1
0.47833	-1
0.48200	-0
0.48567	-0
0.48933	0
0.49300	0
0.49667	1
0.50033	1
0.50400	1
0.50767	1
0.51133	1
0.51500	1
0.51867	1
0.52233	1
0.52600	1
0.52967	1
0.53333	2
0.53700	2
0.54067	2
0.54433	2
0.54800	2
0.55167	2
0.55533	2
0.55900	3
0.56267	2
0.56633	2
0.57000	2
0.57367	2
0.57733	2
0.58100	1
0.58467	1
0.58833	1
0.59200	1
0.59567	1
0.59933	1
0.60300	0
0.60667	0
0.61033	0
0.61400	0
0.61767	1
0.62133	1
0.62500	1
0.62867	1
0.63233	1
0.63600	1
0.63967	2
0.64333	2
0.64700	2
0.65067	2
0.65433	2
0.65800	2
0.66167	1
0.66533	1
0.66900	1
0.67267	1
0.67633	0
0.68000	-0
0.68367	-1
0.68733	-1
0.69100	-1
0.69467	-1
0.69833	-2
0.70200	-2
0.70567	-2
0.70933	-2
0.71300	-2
0.71667	-3
0.72033	-3
0.72400	-3
0.72767	-3
0.73133	-2
0.73500	-2
0.73867	-2
0.74233	-2
0.74600	-1
0.74967	-1
0.75333	-1
0.75700	-1
0.76067	-0
0.76433	-0
0.76800	-0
0.77167	-0
0.77533	-0
0.77900	-0
0.78267	-0
0.78633	0
0.79000	0
0.79367	1
0.79733	1
0.80100	1
0.80467	1
0.80833	1
0.81200	1
0.81567	1
0.81933	1
0.82300	1
0.82667	1
0.83033	1
0.83400	1
0.83767	1
0.84133	1
0.84500	1
0.84867	1
0.85233	1
0.85600	1
0.85967	1
0.86333	1
0.86700	0
0.87067	0
0.87433	0
0.87800	0
0.88167	0
0.88533	0
0.88900	-0
0.89267	-0
0.89633	-0
0.90000	-1
0.90367	-1
0.90733	-2
0.91100	-2
0.91467	-2
0.91833	-2
0.92200	-2
0.92567	-2
0.92933	-2
0.93300	-2
0.93667	-2
0.94033	-1
0.94400	-1
0.94767	-1
0.95133	-0
0.95500	0
0.95867	0
0.96233	1
0.96600	1
0.96967	1
0.97333	1
0.97700	1
0.98067	1
0.98433	1
0.98800	1
0.99167	1
0.99533	1
0.99900	1
1.00267	1
1.00633	1
1.01000	1
1.01367	1
1.01733	1
1.02100	1
1.02467	1
1.02833	1
1.03200	1
1.03567	1
1.03933	1
1.04300	0
1.04667	0
1.05033	1
1.05400	1
1.05767	1
1.06133	1
1.06500	1
1.06867	1
1.07233	1
1.07600	1
1.07967	1
1.08333	1
1.08700	1
1.09067	1
1.09433	1
1.09800	1
1.10167	1
1.10533	1
1.10900	1
1.11267	1
1.11633	1
1.12000	1
1.12367	0
1.12733	0
1.13100	0
1.13467	-0
1.13833	-0
1.14200	-0
1.14567	-0
1.14933	-0
1.15300	-1
1.15667	-1
1.16033	-1
1.16400	-1
1.16767	-1
1.17133	-1
1.17500	-1
1.17867	-1
1.18233	-1
1.18600	-2
1.18967	-2
1.19333	-2
1.19700	-2
1.20067	-3
1.20433	-3
1.20800	-3
1.21167	-3
1.21533	-3
1.21900	-3
1.22267	-3
1.22633	-3
1.23000	-2
1.23367	-2
1.23733	-2
1.24100	-1
1.24467	-1
1.24833	-1
1.25200	-1
1.25567	-1
1.25933	-1
1.26300	-1
1.26667	-1
1.27033	-1
1.27400	-1
1.27767	-1
1.28133	-1
1.28500	-1
1.28867	-1
1.29233	-1
1.29600	-1
1.29967	-1
1.30333	-1
1.30700	-1
1.31067	-1
1.31433	-1
1.31800	-1
1.32167	-1
1.32533	-0
1.32900	-0
1.33267	-0
1.33633	-0
1.34000	-0
1.34367	-0
1.34733	-0
1.35100	-0
1.35467	-0
1.35833	-0
1.36200	-0
1.36567	-0
1.36933	-0
1.37300	-1
1.37667	-1
1.38033	-2
1.38400	-2
1.38767	-3
1.39133	-3
1.39500	-4
1.39867	-4
1.40233	-5
1.40600	-5
1.40967	-5
1.41333	-5
1.41700	-5
1.42067	-5
1.42433	-5
1.42800	-5
1.43167	-5
1.43533	-5
1.43900	-5
1.44267	-4
1.44633	-4
1.45000	-4
1.45367	-3
1.45733	-3
1.46100	-3
1.46467	-2
1.46833	-2
1.47200	-2
1.47567	-3
1.47933	-3
1.48300	-3
1.48667	-3
1.49033	-3
1.49400	-3
1.49767	-3
1.50133	-3
1.50500	-2
1.50867	-2
1.51233	-2
1.51600	-1
1.51967	-0
1.52333	0
1.52700	1
1.53067	1
1.53433	2
1.53800	2
1.54167	3
1.54533	3
1.54900	3
1.55267	3
1.55633	3
1.56000	3
1.56367	3
1.56733	3
1.57100	3
1.57467	2
1.57833	2
1.58200	2
1.58567	2
1.58933	1
1.59300	1
1.59667	0
1.60033	-1
1.60400	-2
1.60767	-3
1.61133	-5
1.61500	-7
1.61867	-9
1.62233	-11
1.62600	-14
1.62967	-17
1.63333	-21
1.63700	-24
1.64067	-28
1.64433	-31
1.64800	-35
1.65167	-39
1.65533	-43
1.65900	-48
1.66267	-53
1.66633	-58
1.67000	-63
1.67367	-69
1.67733	-75
1.68100	-80
1.68467	-85
1.68833	-90
1.69200	-95
1.69567	-98
1.69933	-102
1.70300	-105
1.70667	-107
1.71033	-109
1.71400	-110
1.71767	-111
1.72133	-112
1.72500	-113
1.72867	-114
1.73233	-115
1.73600	-115
1.73967	-115
1.74333	-115
1.74700	-115
1.75067	-114
1.75433	-113
1.75800	-113
1.76167	-112
1.76533	-112
1.76900	-113
1.77267	-114
1.77633	-115
1.78000	-116
1.78367	-118
1.78733	-119
1.79100	-120
1.79467	-120
1.79833	-121
1.80200	-121
1.80567	-122
1.80933	-122
1.81300	-122
1.81667	-122
1.82033	-122
1.82400	-122
1.82767	-122
1.83133	-122
1.83500	-122
1.83867	-123
1.84233	-123
1.84600	-123
1.84967	-123
1.85333	-124
1.85700	-124
1.86067	-124
1.86433	-124
1.86800	-124
1.87167	-123
1.87533	-123
1.87900	-123
1.88267	-123
1.88633	-123
1.89000	-123
1.89367	-124
1.89733	-124
1.90100	-123
1.90467	-123
1.90833	-122
1.91200	-122
1.91567	-121
1.91933	-121
1.92300	-121
1.92667	-121
1.93033	-120
1.93400	-120
1.93767	-120
1.94133	-120
1.94500	-120
1.94867	-120
1.95233	-120
1.95600	-120
1.95967	-120
1.96333	-120
1.96700	-119
1.97067	-118
1.97433	-118
1.97800	-117
1.98167	-116
1.98533	-115
1.98900	-115
1.99267	-115
1.99633	-114
2.00000	-114
2.00367	-114
2.00733	-114
2.01100	-115
2.01467	-115
2.01833	-115
2.02200	-115
2.02567	-115
2.02933	-114
2.03300	-114
2.03667	-113
2.04033	-113
2.04400	-112
2.04767	-112
2.05133	-112
2.05500	-112
2.05867	-112
2.06233	-112
2.06600	-112
2.06967	-111
2.07333	-111
2.07700	-111
2.08067	-111
2.08433	-110
2.08800	-110
2.09167	-110
2.09533	-109
2.09900	-109
2.10267	-108
2.10633	-108
2.11000	-108
2.11367	-108
2.11733	-107
2.12100	-107
2.12467	-106
2.12833	-106
2.13200	-106
2.13567	-105
2.13933	-105
2.14300	-105
2.14667	-104
2.15033	-104
2.15400	-104
2.15767	-104
2.16133	-104
2.16500	-104
2.16867	-104
2.17233	-104
2.17600	-104
2.17967	-103
2.18333	-102
2.18700	-101
2.19067	-100
2.19433	-100
2.19800	-100
2.20167	-100
2.20533	-100
2.20900	-99
2.21267	-99
2.21633	-98
2.22000	-97
2.22367	-97
2.22733	-96
2.23100	-96
2.23467	-96
2.23833	-95
2.24200	-95
2.24567	-94
2.24933	-94
2.25300	-93
2.25667	-93
2.26033	-93
2.26400	-94
2.26767	-94
2.27133	-94
2.27500	-94
2.27867	-94
2.28233	-94
2.28600	-94
2.28967	-93
2.29333	-93
2.29700	-92
2.30067	-92
2.30433	-91
2.30800	-91
2.31167	-91
2.31533	-91
2.31900	-90
2.32267	-90
2.32633	-89
2.33000	-89
2.33367	-88
2.33733	-88
2.34100	-88
2.34467	-89
2.34833	-90
2.35200	-90
2.35567	-91
2.35933	-91
2.36300	-90
2.36667	-89
2.37033	-87
2.37400	-84
2.37767	-81
2.38133	-77
2.38500	-73
2.38867	-69
2.39233	-63
2.39600	-58
2.39967	-53
2.40333	-48
2.40700	-44
2.41067	-39
2.41433	-36
2.41800	-32
2.42167	-28
2.42533	-25
2.42900	-22
2.43267	-19
2.43633	-16
2.44000	-14
2.44367	-11
2.44733	-9
2.45100	-7
2.45467	-6
2.45833	-5
2.46200	-4
2.46567	-3
2.46933	-1
2.47300	-0
2.47667	0
2.48033	1
2.48400	2
2.48767	3
2.49133	4
2.49500	5
2.49867	6
2.50233	7
2.50600	7
2.50967	8
2.51333	9
2.51700	10
2.52067	11
2.52433	11
2.52800	12
2.53167	12
2.53533	12
2.53900	12
2.54267	13
2.54633	13
2.55000	14
2.55367	14
2.55733	14
2.56100	15
2.56467	15
2.56833	15
2.57200	15
2.57567	15
2.57933	15
2.58300	15
2.58667	15
2.59033	15
2.59400	16
2.59767	16
2.60133	16
2.60500	16
2.60867	16
2.61233	17
2.61600	17
2.61967	17
2.62333	18
2.62700	18
2.63067	19
2.63433	19
2.63800	19
2.64167	20
2.64533	20
2.64900	20
2.65267	21
2.65633	21
2.66000	21
2.66367	21
2.66733	21
2.67100	21
2.67467	21
2.67833	21
2.68200	21
2.68567	21
2.68933	21
2.69300	21
2.69667	22
2.70033	22
2.70400	22
2.70767	23
2.71133	23
2.71500	22
2.71867	22
2.72233	21
2.72600	21
2.72967	21
2.73333	21
2.73700	21
2.74067	21
2.74433	22
2.74800	22
2.75167	22
2.75533	23
2.75900	23
2.76267	24
2.76633	24
2.77000	24
2.77367	24
2.77733	25
2.78100	25
2.78467	25
2.78833	26
2.79200	26
2.79567	26
2.79933	26
2.80300	26
2.80667	26
2.81033	26
2.81400	26
2.81767	26
2.82133	26
2.82500	27
2.82867	27
2.83233	27
2.83600	27
2.83967	26
2.84333	26
2.84700	25
2.85067	22
2.85433	18
2.85800	12
2.86167	2
2.86533	-11
2.86900	-29
2.87267	-51
2.87633	-78
2.88000	-110
2.88367	-148
2.88733	-190
2.89100	-238
2.89467	-290
2.89833	-347
2.90200	-407
2.90567	-472
2.90933	-540
2.91300	-610
2.91667	-684
2.92033	-759
2.92400	-837
2.92767	-917
2.93133	-999
2.93500	-1083
2.93867	-1167
2.94233	-1254
2.94600	-1341
2.94967	-1425
2.95333	-1496
2.95700	-1539
2.96067	-1549
2.96433	-1523
2.96800	-1466
2.97167	-1384
2.97533	-1285
2.97900	-1177
2.98267	-1066
2.98633	-955
2.99000	-849
2.99367	-749
2.99733	-657
3.00100	-573
3.00467	-498
3.00833	-431
3.01200	-372
3.01567	-320
3.01933	-275
3.02300	-235
3.02667	-201
3.03033	-171
3.03400	-145
3.03767	-123
3.04133	-104
3.04500	-87
3.04867	-73
3.05233	-61
3.05600	-51
3.05967	-42
3.06333	-34
3.06700	-28
3.07067	-22
3.07433	-17
3.07800	-13
3.08167	-10
3.08533	-7
3.08900	-4
3.09267	-2
3.09633	-0
3.10000	2
3.10367	3
3.10733	4
3.11100	6
3.11467	7
3.11833	8
3.12200	9
3.12567	9
3.12933	10
3.13300	10
3.13667	11
3.14033	12
3.14400	12
3.14767	12
3.15133	13
3.15500	13
3.15867	13
3.16233	14
3.16600	14
3.16967	15
3.17333	15
3.17700	15
3.18067	16
3.18433	16
3.18800	16
3.19167	17
3.19533	17
3.19900	17
3.20267	18
3.20633	18
3.21000	19
3.21367	19
3.21733	20
3.22100	21
3.22467	21
3.22833	22
3.23200	22
3.23567	23
3.23933	23
3.24300	23
3.24667	23
3.25033	23
3.25400	23
3.25767	24
3.26133	24
3.26500	24
3.26867	24
3.27233	24
3.27600	24
3.27967	24
3.28333	24
3.28700	24
3.29067	24
3.29433	24
3.29800	25
3.30167	25
3.30533	25
3.30900	25
3.31267	24
3.31633	24
3.32000	24
3.32367	24
3.32733	24
3.33100	24
3.33467	24
3.33833	24
3.34200	24
3.34567	24
3.34933	24
3.35300	24
3.35667	24
3.36033	24
3.36400	24
3.36767	24
3.37133	25
3.37500	25
3.37867	25
3.38233	25
3.38600	25
3.38967	26
3.39333	26
3.39700	27
3.40067	27
3.40433	27
3.40800	27
3.41167	27
3.41533	27
3.41900	27
3.42267	27
3.42633	27
3.43000	27
3.43367	27
3.43733	27
3.44100	27
3.44467	27
3.44833	27
3.45200	27
3.45567	27
3.45933	27
3.46300	28
3.46667	28
3.47033	28
3.47400	28
3.47767	28
3.48133	28
3.48500	28
3.48867	28
3.49233	28
3.49600	28
3.49967	28
3.50333	28
3.50700	28
3.51067	29
3.51433	29
3.51800	29
3.52167	29
3.52533	29
3.52900	29
3.53267	29
3.53633	28
3.54000	28
3.54367	28
3.54733	28
3.55100	28
3.55467	28
3.55833	28
3.56200	28
3.56567	27
3.56933	27
3.57300	27
3.57667	27
3.58033	27
3.58400	26
3.58767	26
3.59133	27
3.59500	27
3.59867	27
3.60233	27
3.60600	27
3.60967	27
3.61333	27
3.61700	27
3.62067	27
3.62433	27
3.62800	27
3.63167	27
3.63533	27
3.63900	27
3.64267	27
3.64633	27
3.65000	27
3.65367	27
3.65733	27
3.66100	27
3.66467	27
3.66833	27
3.67200	27
3.67567	27
3.67933	27
3.68300	27
3.68667	27
3.69033	27
3.69400	27
3.69767	27
3.70133	27
3.70500	27
3.70867	27
3.71233	27
3.71600	27
3.71967	27
3.72333	26
3.72700	26
3.73067	26
3.73433	26
3.73800	26
3.74167	26
3.74533	26
3.74900	26
3.75267	25
3.75633	25
3.76000	25
3.76367	25
3.76733	25
3.77100	26
3.77467	26
3.77833	26
3.78200	26
3.78567	26
3.78933	26
3.79300	25
3.79667	25
3.80033	25
3.80400	25
3.80767	25
3.81133	25
3.81500	25
3.81867	25
3.82233	25
3.82600	25
3.82967	24
3.83333	24
3.83700	24
3.84067	24
3.84433	24
3.84800	24
3.85167	25
3.85533	25
3.85900	25
3.86267	26
3.86633	26
3.87000	26
3.87367	27
3.87733	27
3.88100	27
3.88467	27
3.88833	27
3.89200	28
3.89567	28
3.89933	28
3.90300	28
3.90667	29
3.91033	29
3.91400	29
3.91767	29
3.92133	29
3.92500	29
3.92867	29
3.93233	30
3.93600	29
3.93967	29
3.94333	29
3.94700	29
3.95067	29
3.95433	29
3.95800	29
3.96167	29
3.96533	29
3.96900	29
3.97267	29
3.97633	28
3.98000	28
3.98367	28
3.98733	28
3.99100	28
3.99467	28
3.99833	28

[Chromatogram (Ch3)]
Interval(msec)	220
# of Points	1091
Start Time(min)	0.002
End Time(min)	3.998
R.Time (min)	Intensity
0.00167	-1
0.00533	-0
0.00900	1
0.01267	2
0.01633	4
0.02000	5
0.02367	5
0.02733	6
0.03100	6
0.03467	5
0.03833	7
0.04200	6
0.04567	5
0.04933	5
0.05300	5
0.05667	3
0.06033	2
0.06400	4
0.06767	7
0.07133	9
0.07500	8
0.07867	7
0.08233	8
0.08600	7
0.08967	7
0.09333	5
0.09700	5
0.10067	4
0.10433	3
0.10800	1
0.11167	2
0.11533	2
0.11900	2
0.12267	2
0.12633	3
0.13000	3
0.13367	4
0.13733	7
0.14100	10
0.14467	11
0.14833	9
0.15200	9
0.15567	9
0.15933	10
0.16300	10
0.16667	10
0.17033	11
0.17400	11
0.17767	10
0.18133	9
0.18500	9
0.18867	11
0.19233	13
0.19600	14
0.19967	15
0.20333	14
0.20700	13
0.21067	12
0.21433	12
0.21800	12
0.22167	12
0.22533	10
0.22900	10
0.23267	11
0.23633	14
0.24000	17
0.24367	17
0.24733	17
0.25100	18
0.25467	17
0.25833	17
0.26200	17
0.26567	16
0.26933	13
0.27300	13
0.27667	11
0.28033	10
0.28400	12
0.28767	14
0.29133	14
0.29500	13
0.29867	13
0.30233	13
0.30600	12
0.30967	14
0.31333	16
0.31700	16
0.32067	16
0.32433	13
0.32800	12
0.33167	14
0.33533	13
0.33900	13
0.34267	12
0.34633	12
0.35000	12
0.35367	11
0.35733	11
0.36100	14
0.36467	14
0.36833	14
0.37200	14
0.37567	13
0.37933	15
0.38300	16
0.38667	16
0.39033	17
0.39400	16
0.39767	13
0.40133	11
0.40500	7
0.40867	7
0.41233	9
0.41600	12
0.41967	16
0.42333	18
0.42700	19
0.43067	19
0.43433	18
0.43800	15
0.44167	12
0.44533	11
0.44900	13
0.45267	16
0.45633	17
0.46000	19
0.46367	21
0.46733	21
0.47100	20
0.47467	21
0.47833	23
0.48200	23
0.48567	22
0.48933	20
0.49300	18
0.49667	18
0.50033	20
0.50400	21
0.50767	18
0.51133	18
0.51500	20
0.51867	20
0.52233	20
0.52600	19
0.52967	20
0.53333	22
0.53700	24
0.54067	26
0.54433	28
0.54800	31
0.55167	33
0.55533	33
0.55900	30
0.56267	28
0.56633	26
0.57000	23
0.57367	22
0.57733	21
0.58100	22
0.58467	26
0.58833	28
0.59200	30
0.59567	32
0.59933	35
0.60300	36
0.60667	35
0.61033	34
0.61400	35
0.61767	35
0.62133	36
0.62500	38
0.62867	37
0.63233	35
0.63600	33
0.63967	32
0.64333	32
0.64700	34
0.65067	35
0.65433	35
0.65800	36
0.66167	37
0.66533	37
0.66900	38
0.67267	40
0.67633	41
0.68000	40
0.68367	39
0.68733	39
0.69100	39
0.69467	39
0.69833	39
0.70200	37
0.70567	36
0.70933	39
0.71300	39
0.71667	39
0.72033	39
0.72400	39
0.72767	39
0.73133	39
0.73500	39
0.73867	40
0.74233	45
0.74600	48
0.74967	47
0.75333	46
0.75700	46
0.76067	43
0.76433	43
0.76800	43
0.77167	42
0.77533	44
0.77900	44
0.78267	42
0.78633	42
0.79000	42
0.79367	43
0.79733	43
0.80100	45
0.80467	47
0.80833	47
0.81200	46
0.81567	46
0.81933	48
0.82300	47
0.82667	43
0.83033	42
0.83400	42
0.83767	42
0.84133	44
0.84500	46
0.84867	46
0.85233	46
0.85600	47
0.85967	48
0.86333	48
0.86700	48
0.87067	48
0.87433	48
0.87800	49
0.88167	51
0.88533	52
0.88900	53
0.89267	54
0.89633	54
0.90000	56
0.90367	54
0.90733	54
0.91100	56
0.91467	55
0.91833	53
0.92200	52
0.92567	52
0.92933	51
0.93300	49
0.93667	47
0.94033	46
0.94400	45
0.94767	46
0.95133	48
0.95500	50
0.95867	51
0.96233	49
0.96600	48
0.96967	48
0.97333	48
0.97700	49
0.98067	49
0.98433	52
0.98800	53
0.99167	52
0.99533	51
0.99900	49
1.00267	49
1.00633	51
1.01000	53
1.01367	52
1.01733	52
1.02100	52
1.02467	54
1.02833	56
1.03200	57
1.03567	58
1.03933	58
1.04300	56
1.04667	55
1.05033	53
1.05400	53
1.05767	53
1.06133	55
1.06500	57
1.06867	57
1.07233	58
1.07600	58
1.07967	57
1.08333	59
1.08700	59
1.09067	59
1.09433	56
1.09800	54
1.10167	54
1.10533	55
1.10900	57
1.11267	57
1.11633	57
1.12000	58
1.12367	59
1.12733	60
1.13100	60
1.13467	60
1.13833	61
1.14200	60
1.14567	59
1.14933	59
1.15300	60
1.15667	62
1.16033	64
1.16400	65
1.16767	63
1.17133	61
1.17500	61
1.17867	65
1.18233	67
1.18600	67
1.18967	67
1.19333	67
1.19700	67
1.20067	66
1.20433	65
1.20800	66
1.21167	63
1.21533	60
1.21900	60
1.22267	61
1.22633	61
1.23000	63
1.23367	62
1.23733	60
1.24100	61
1.24467	61
1.24833	62
1.25200	64
1.25567	64
1.25933	66
1.26300	66
1.26667	67
1.27033	67
1.27400	69
1.27767	70
1.28133	70
1.28500	70
1.28867	69
1.29233	69
1.29600	67
1.29967	66
1.30333	66
1.30700	67
1.31067	68
1.31433	67
1.31800	69
1.32167	73
1.32533	74
1.32900	71
1.33267	68
1.33633	70
1.34000	72
1.34367	73
1.34733	71
1.35100	69
1.35467	68
1.35833	68
1.36200	68
1.36567	68
1.36933	70
1.37300	71
1.37667	71
1.38033	70
1.38400	70
1.38767	71
1.39133	73
1.39500	74
1.39867	74
1.40233	74
1.40600	75
1.40967	76
1.41333	77
1.41700	77
1.42067	76
1.42433	74
1.42800	70
1.43167	67
1.43533	66
1.43900	69
1.44267	73
1.44633	76
1.45000	79
1.45367	80
1.45733	81
1.46100	78
1.46467	75
1.46833	72
1.47200	70
1.47567	70
1.47933	71
1.48300	72
1.48667	75
1.49033	76
1.49400	77
1.49767	77
1.50133	78
1.50500	77
1.50867	76
1.51233	74
1.51600	73
1.51967	74
1.52333	75
1.52700	75
1.53067	73
1.53433	73
1.53800	73
1.54167	71
1.54533	71
1.54900	70
1.55267	70
1.55633	72
1.56000	73
1.56367	71
1.56733	70
1.57100	71
1.57467	72
1.57833	73
1.58200	74
1.58567	76
1.58933	75
1.59300	74
1.59667	75
1.60033	74
1.60400	73
1.60767	72
1.61133	73
1.61500	73
1.61867	74
1.62233	75
1.62600	76
1.62967	76
1.63333	78
1.63700	81
1.64067	84
1.64433	83
1.64800	83
1.65167	83
1.65533	81
1.65900	82
1.66267	82
1.66633	80
1.67000	79
1.67367	81
1.67733	84
1.68100	87
1.68467	88
1.68833	87
1.69200	88
1.69567	91
1.69933	93
1.70300	94
1.70667	96
1.71033	97
1.71400	99
1.71767	101
1.72133	102
1.72500	100
1.72867	101
1.73233	101
1.73600	100
1.73967	97
1.74333	97
1.74700	97
1.75067	96
1.75433	98
1.75800	99
1.76167	98
1.76533	101
1.76900	104
1.77267	106
1.77633	107
1.78000	109
1.78367	112
1.78733	113
1.79100	112
1.79467	110
1.79833	110
1.80200	112
1.80567	113
1.80933	114
1.81300	115
1.81667	117
1.82033	116
1.82400	115
1.82767	113
1.83133	114
1.83500	115
1.83867	117
1.84233	118
1.84600	119
1.84967	119
1.85333	122
1.85700	122
1.86067	121
1.86433	119
1.86800	119
1.87167	119
1.87533	118
1.87900	118
1.88267	119
1.88633	123
1.89000	125
1.89367	125
1.89733	125
1.90100	126
1.90467	125
1.90833	122
1.91200	117
1.91567	117
1.91933	119
1.92300	119
1.92667	119
1.93033	121
1.93400	123
1.93767	124
1.94133	124
1.94500	125
1.94867	127
1.95233	128
1.95600	126
1.95967	125
1.96333	127
1.96700	129
1.97067	129
1.97433	128
1.97800	129
1.98167	131
1.98533	134
1.98900	139
1.99267	141
1.99633	141
2.00000	141
2.00367	143
2.00733	145
2.01100	146
2.01467	148
2.01833	149
2.02200	150
2.02567	151
2.02933	152
2.03300	152
2.03667	152
2.04033	155
2.04400	155
2.04767	158
2.05133	161
2.05500	163
2.05867	163
2.06233	164
2.06600	166
2.06967	165
2.07333	166
2.07700	165
2.08067	164
2.08433	164
2.08800	164
2.09167	166
2.09533	168
2.09900	171
2.10267	171
2.10633	171
2.11000	174
2.11367	177
2.11733	178
2.12100	177
2.12467	176
2.12833	179
2.13200	184
2.13567	186
2.13933	186
2.14300	185
2.14667	184
2.15033	184
2.15400	184
2.15767	184
2.16133	185
2.16500	186
2.16867	186
2.17233	186
2.17600	188
2.17967	189
2.18333	189
2.18700	192
2.19067	193
2.19433	193
2.19800	194
2.20167	195
2.20533	198
2.20900	200
2.21267	202
2.21633	203
2.22000	203
2.22367	204
2.22733	205
2.23100	206
2.23467	208
2.23833	208
2.24200	210
2.24567	208
2.24933	206
2.25300	204
2.25667	205
2.26033	207
2.26400	209
2.26767	210
2.27133	211
2.27500	213
2.27867	213
2.28233	214
2.28600	214
2.28967	214
2.29333	214
2.29700	215
2.30067	215
2.30433	215
2.30800	217
2.31167	218
2.31533	219
2.31900	220
2.32267	221
2.32633	221
2.33000	222
2.33367	225
2.33733	226
2.34100	225
2.34467	225
2.34833	225
2.35200	226
2.35567	227
2.35933	225
2.36300	225
2.36667	228
2.37033	228
2.37400	227
2.37767	225
2.38133	223
2.38500	221
2.38867	223
2.39233	226
2.39600	228
2.39967	230
2.40333	230
2.40700	230
2.41067	231
2.41433	232
2.41800	231
2.42167	230
2.42533	231
2.42900	234
2.43267	235
2.43633	236
2.44000	238
2.44367	243
2.44733	256
2.45100	265
2.45467	269
2.45833	263
2.46200	248
2.46567	230
2.46933	217
2.47300	209
2.47667	203
2.48033	198
2.48400	192
2.48767	184
2.49133	175
2.49500	166
2.49867	160
2.50233	154
2.50600	151
2.50967	149
2.51333	146
2.51700	145
2.52067	144
2.52433	144
2.52800	144
2.53167	142
2.53533	138
2.53900	136
2.54267	134
2.54633	132
2.55000	129
2.55367	125
2.55733	122
2.56100	118
2.56467	117
2.56833	116
2.57200	114
2.57567	111
2.57933	106
2.58300	106
2.58667	108
2.59033	107
2.59400	102
2.59767	97
2.60133	90
2.60500	77
2.60867	56
2.61233	27
2.61600	-7
2.61967	-47
2.62333	-88
2.62700	-127
2.63067	-163
2.63433	-192
2.63800	-218
2.64167	-239
2.64533	-251
2.64900	-256
2.65267	-258
2.65633	-257
2.66000	-253
2.66367	-249
2.66733	-244
2.67100	-238
2.67467	-230
2.67833	-218
2.68200	-205
2.68567	-193
2.68933	-180
2.69300	-170
2.69667	-158
2.70033	-146
2.70400	-133
2.70767	-120
2.71133	-107
2.71500	-97
2.71867	-90
2.72233	-83
2.72600	-75
2.72967	-67
2.73333	-59
2.73700	-51
2.74067	-43
2.74433	-36
2.74800	-29
2.75167	-22
2.75533	-17
2.75900	-13
2.76267	-10
2.76633	-6
2.77000	-2
2.77367	3
2.77733	6
2.78100	10
2.78467	13
2.78833	16
2.79200	21
2.79567	23
2.79933	25
2.80300	27
2.80667	31
2.81033	36
2.81400	40
2.81767	47
2.82133	59
2.82500	85
2.82867	149
2.83233	292
2.83600	567
2.83967	1041
2.84333	1780
2.84700	2827
2.85067	4192
2.85433	5839
2.85800	7690
2.86167	9628
2.86533	11515
2.86900	13210
2.87267	14583
2.87633	15544
2.88000	16056
2.88367	16123
2.88733	15799
2.89100	15157
2.89467	14280
2.89833	13252
2.90200	12147
2.90567	11026
2.90933	9930
2.91300	8883
2.91667	7905
2.92033	7003
2.92400	6180
2.92767	5436
2.93133	4771
2.93500	4180
2.93867	3655
2.94233	3193
2.94600	2786
2.94967	2434
2.95333	2128
2.95700	1857
2.96067	1618
2.96433	1411
2.96800	1232
2.97167	1076
2.97533	942
2.97900	827
2.98267	726
2.98633	638
2.99000	562
2.99367	495
2.99733	440
3.00100	395
3.00467	355
3.00833	320
3.01200	288
3.01567	261
3.01933	237
3.02300	217
3.02667	199
3.03033	183
3.03400	171
3.03767	161
3.04133	154
3.04500	147
3.04867	141
3.05233	134
3.05600	128
3.05967	124
3.06333	121
3.06700	120
3.07067	117
3.07433	113
3.07800	111
3.08167	109
3.08533	108
3.08900	108
3.09267	110
3.09633	109
3.10000	108
3.10367	108
3.10733	106
3.11100	104
3.11467	104
3.11833	105
3.12200	104
3.12567	100
3.12933	98
3.13300	97
3.13667	97
3.14033	99
3.14400	100
3.14767	99
3.15133	101
3.15500	101
3.15867	103
3.16233	105
3.16600	107
3.16967	107
3.17333	107
3.17700	107
3.18067	106
3.18433	107
3.18800	107
3.19167	107
3.19533	106
3.19900	106
3.20267	106
3.20633	105
3.21000	105
3.21367	106
3.21733	106
3.22100	104
3.22467	102
3.22833	98
3.23200	96
3.23567	97
3.23933	97
3.24300	98
3.24667	100
3.25033	101
3.25400	101
3.25767	103
3.26133	105
3.26500	106
3.26867	105
3.27233	105
3.27600	103
3.27967	100
3.28333	100
3.28700	101
3.29067	101
3.29433	103
3.29800	101
3.30167	76
3.30533	43
3.30900	21
3.31267	16
3.31633	24
3.32000	41
3.32367	65
3.32733	89
3.33100	114
3.33467	138
3.33833	162
3.34200	184
3.34567	203
3.34933	220
3.35300	240
3.35667	262
3.36033	282
3.36400	301
3.36767	319
3.37133	336
3.37500	355
3.37867	375
3.38233	395
3.38600	418
3.38967	441
3.39333	462
3.39700	481
3.40067	499
3.40433	517
3.40800	534
3.41167	547
3.41533	557
3.41900	565
3.42267	570
3.42633	576
3.43000	580
3.43367	584
3.43733	586
3.44100	590
3.44467	596
3.44833	600
3.45200	601
3.45567	601
3.45933	602
3.46300	602
3.46667	602
3.47033	601
3.47400	601
3.47767	602
3.48133	600
3.48500	598
3.48867	598
3.49233	598
3.49600	598
3.49967	597
3.50333	596
3.50700	597
3.51067	597
3.51433	596
3.51800	595
3.52167	596
3.52533	594
3.52900	592
3.53267	590
3.53633	590
3.54000	590
3.54367	589
3.54733	587
3.55100	585
3.55467	585
3.55833	584
3.56200	583
3.56567	582
3.56933	582
3.57300	587
3.57667	589
3.58033	587
3.58400	584
3.58767	581
3.59133	578
3.59500	577
3.59867	575
3.60233	574
3.60600	576
3.60967	579
3.61333	580
3.61700	579
3.62067	577
3.62433	577
3.62800	577
3.63167	578
3.63533	579
3.63900	578
3.64267	577
3.64633	577
3.65000	577
3.65367	575
3.65733	573
3.66100	573
3.66467	573
3.66833	574
3.67200	572
3.67567	571
3.67933	568
3.68300	566
3.68667	567
3.69033	569
3.69400	569
3.69767	567
3.70133	564
3.70500	563
3.70867	562
3.71233	562
3.71600	560
3.71967	557
3.72333	555
3.72700	555
3.73067	554
3.73433	552
3.73800	551
3.74167	550
3.74533	550
3.74900	549
3.75267	549
3.75633	549
3.76000	547
3.76367	545
3.76733	543
3.77100	543
3.77467	542
3.77833	541
3.78200	540
3.78567	539
3.78933	537
3.79300	533
3.79667	531
3.80033	528
3.80400	526
3.80767	526
3.81133	526
3.81500	523
3.81867	520
3.82233	518
3.82600	518
3.82967	520
3.83333	520
3.83700	519
3.84067	517
3.84433	513
3.84800	511
3.85167	510
3.85533	509
3.85900	507
3.86267	508
3.86633	508
3.87000	508
3.87367	507
3.87733	505
3.88100	501
3.88467	499
3.88833	499
3.89200	498
3.89567	496
3.89933	494
3.90300	494
3.90667	493
3.91033	492
3.91400	492
3.91767	491
3.92133	489
3.92500	487
3.92867	485
3.93233	487
3.93600	486
3.93967	484
3.94333	481
3.94700	478
3.95067	478
3.95433	478
3.95800	477
3.96167	477
3.96533	474
3.96900	470
3.97267	470
3.97633	469
3.98000	469
3.98367	470
3.98733	469
3.99100	467
3.99467	467
3.99833	467

[Status Trace (Column Oven Temperature)]
Interval(msec)	1000
# of Points	240
Start Time(min)	0.008
End Time(min)	3.991
Intensity Units	
Intensity Multiplier	1
R.Time (min)	Intensity
0.00757	34.98
0.02423	34.99
0.04090	34.99
0.05757	35.00
0.07423	35.00
0.09090	35.00
0.10757	35.02
0.12423	35.03
0.14090	35.03
0.15757	35.03
0.17423	35.03
0.19090	35.03
0.20757	35.03
0.22423	35.02
0.24090	35.01
0.25757	35.00
0.27423	34.99
0.29090	34.99
0.30757	34.97
0.32423	34.96
0.34090	34.97
0.35757	34.96
0.37423	34.96
0.39090	34.96
0.40757	34.97
0.42423	34.98
0.44090	34.98
0.45757	34.99
0.47423	34.99
0.49090	34.99
0.50757	34.98
0.52423	34.98
0.54090	34.98
0.55757	34.96
0.57423	34.96
0.59090	34.97
0.60757	34.97
0.62423	34.97
0.64090	34.96
0.65757	34.96
0.67423	34.97
0.69090	34.99
0.70757	34.99
0.72423	35.00
0.74090	35.01
0.75757	35.00
0.77423	35.01
0.79090	35.01
0.80757	35.00
0.82423	35.00
0.84090	34.99
0.85757	34.99
0.87423	34.98
0.89090	34.97
0.90757	34.99
0.92423	34.99
0.94090	34.99
0.95757	34.99
0.97423	34.98
0.99090	34.98
1.00757	34.98
1.02423	34.98
1.04090	34.97
1.05757	34.97
1.07423	34.97
1.09090	34.97
1.10757	34.97
1.12423	34.97
1.14090	34.96
1.15757	34.97
1.17423	34.97
1.19090	34.98
1.20757	34.99
1.22423	34.99
1.24090	34.99
1.25757	34.99
1.27423	34.99
1.29090	34.99
1.30757	34.99
1.32423	34.99
1.34090	34.99
1.35757	34.99
1.37423	35.00
1.39090	35.01
1.40757	35.03
1.42423	35.04
1.44090	35.04
1.45757	35.03
1.47423	35.05
1.49090	35.06
1.50757	35.04
1.52423	35.03
1.54090	35.01
1.55757	34.99
1.57423	34.98
1.59090	34.99
1.60757	35.04
1.62423	35.16
1.64090	35.32
1.65757	35.58
1.67423	35.93
1.69090	36.31
1.70757	36.67
1.72423	37.01
1.74090	37.33
1.75757	37.62
1.77423	37.96
1.79090	38.29
1.80757	38.62
1.82423	38.94
1.84090	39.29
1.85757	39.63
1.87423	39.95
1.89090	40.29
1.90757	40.62
1.92423	40.93
1.94090	41.27
1.95757	41.61
1.97423	41.92
1.99090	42.23
2.00757	42.57
2.02423	42.87
2.04090	43.19
2.05757	43.53
2.07423	43.86
2.09090	44.19
2.10757	44.52
2.12423	44.84
2.14090	45.17
2.15757	45.51
2.17423	45.83
2.19090	46.17
2.20757	46.49
2.22423	46.81
2.24090	47.13
2.25757	47.46
2.27423	47.80
2.29090	48.13
2.30757	48.46
2.32423	48.79
2.34090	49.12
2.35757	49.45
2.37423	49.63
2.39090	49.67
2.40757	49.68
2.42423	49.68
2.44090	49.66
2.45757	49.69
2.47423	49.71
2.49090	49.72
2.50757	49.72
2.52423	49.74
2.54090	49.75
2.55757	49.76
2.57423	49.78
2.59090	49.79
2.60757	49.81
2.62423	49.82
2.64090	49.83
2.65757	49.83
2.67423	49.85
2.69090	49.85
2.70757	49.86
2.72423	49.88
2.74090	49.88
2.75757	49.87
2.77423	49.87
2.79090	49.86
2.80757	49.87
2.82423	49.87
2.84090	49.89
2.85757	49.90
2.87423	49.92
2.89090	49.93
2.90757	49.96
2.92423	49.96
2.94090	49.97
2.95757	49.98
2.97423	50.00
2.99090	50.02
3.00757	50.04
3.02423	50.04
3.04090	50.04
3.05757	50.03
3.07423	50.04
3.09090	50.04
3.10757	50.05
3.12423	50.06
3.14090	50.08
3.15757	50.09
3.17423	50.10
3.19090	50.10
3.20757	50.10
3.22423	50.09
3.24090	50.07
3.25757	50.07
3.27423	50.07
3.29090	50.07
3.30757	50.08
3.32423	50.08
3.34090	50.09
3.35757	50.10
3.37423	50.10
3.39090	50.10
3.40757	50.09
3.42423	50.07
3.44090	50.07
3.45757	50.06
3.47423	50.06
3.49090	50.05
3.50757	50.04
3.52423	50.04
3.54090	50.04
3.55757	50.04
3.57423	50.05
3.59090	50.05
3.60757	50.05
3.62423	50.06
3.64090	50.05
3.65757	50.05
3.67423	50.06
3.69090	50.05
3.70757	50.05
3.72423	50.05
3.74090	50.06
3.75757	50.06
3.77423	50.07
3.79090	50.08
3.80757	50.09
3.82423	50.11
3.84090	50.11
3.85757	50.10
3.87423	50.10
3.89090	50.08
3.90757	50.06
3.92423	50.04
3.94090	50.05
3.95757	50.04
3.97423	50.03
3.99090	50.02

[Status Trace (Injection Unit Temperature)]
Interval(msec)	1000
# of Points	240
Start Time(min)	0.008
End Time(min)	3.991
Intensity Units	
Intensity Multiplier	1
R.Time (min)	Intensity
0.00757	99.98
0.02423	99.98
0.04090	99.98
0.05757	99.98
0.07423	99.97
0.09090	99.98
0.10757	99.98
0.12423	99.98
0.14090	99.98
0.15757	99.98
0.17423	99.98
0.19090	99.98
0.20757	99.98
0.22423	99.98
0.24090	99.98
0.25757	99.98
0.27423	99.98
0.29090	99.98
0.30757	99.98
0.32423	99.98
0.34090	99.98
0.35757	99.98
0.37423	99.98
0.39090	99.98
0.40757	99.98
0.42423	99.99
0.44090	99.98
0.45757	99.98
0.47423	99.98
0.49090	99.98
0.50757	99.98
0.52423	99.98
0.54090	99.98
0.55757	99.98
0.57423	99.98
0.59090	99.98
0.60757	99.98
0.62423	99.98
0.64090	99.98
0.65757	99.98
0.67423	99.98
0.69090	99.98
0.70757	99.98
0.72423	99.98
0.74090	99.98
0.75757	99.98
0.77423	99.98
0.79090	99.98
0.80757	99.98
0.82423	99.98
0.84090	99.98
0.85757	99.98
0.87423	99.98
0.89090	99.98
0.90757	99.98
0.92423	99.98
0.94090	99.98
0.95757	99.99
0.97423	99.98
0.99090	99.99
1.00757	99.99
1.02423	99.98
1.04090	99.99
1.05757	99.98
1.07423	99.98
1.09090	99.99
1.10757	99.98
1.12423	99.99
1.14090	99.98
1.15757	99.98
1.17423	99.99
1.19090	99.98
1.20757	99.98
1.22423	99.99
1.24090	99.98
1.25757	99.98
1.27423	99.99
1.29090	99.98
1.30757	99.98
1.32423	99.98
1.34090	99.99
1.35757	99.99
1.37423	99.98
1.39090	99.98
1.40757	99.98
1.42423	99.99
1.44090	99.99
1.45757	99.98
1.47423	99.98
1.49090	99.99
1.50757	99.99
1.52423	99.98
1.54090	99.98
1.55757	99.98
1.57423	99.99
1.59090	99.98
1.60757	99.98
1.62423	99.99
1.64090	99.98
1.65757	99.98
1.67423	99.98
1.69090	99.98
1.70757	99.98
1.72423	99.98
1.74090	99.99
1.75757	99.98
1.77423	99.98
1.79090	99.98
1.80757	99.98
1.82423	99.97
1.84090	99.98
1.85757	99.98
1.87423	99.98
1.89090	99.98
1.90757	99.98
1.92423	99.98
1.94090	99.97
1.95757	99.98
1.97423	99.98
1.99090	99.97
2.00757	99.98
2.02423	99.98
2.04090	99.98
2.05757	99.98
2.07423	99.98
2.09090	99.97
2.10757	99.98
2.12423	99.98
2.14090	99.98
2.15757	99.98
2.17423	99.97
2.19090	99.98
2.20757	99.97
2.22423	99.97
2.24090	99.98
2.25757	99.98
2.27423	99.97
2.29090	99.97
2.30757	99.97
2.32423	99.96
2.34090	99.97
2.35757	99.97
2.37423	99.97
2.39090	99.97
2.40757	99.97
2.42423	99.97
2.44090	99.97
2.45757	99.97
2.47423	99.97
2.49090	99.97
2.50757	99.97
2.52423	99.96
2.54090	99.97
2.55757	99.97
2.57423	99.97
2.59090	99.98
2.60757	99.98
2.62423	99.98
2.64090	99.98
2.65757	99.98
2.67423	99.98
2.69090	99.98
2.70757	99.98
2.72423	99.99
2.74090	99.99
2.75757	99.99
2.77423	99.99
2.79090	99.99
2.80757	99.99
2.82423	100.00
2.84090	100.00
2.85757	99.99
2.87423	100.00
2.89090	100.00
2.90757	100.00
2.92423	100.00
2.94090	100.00
2.95757	100.01
2.97423	100.01
2.99090	100.01
3.00757	100.01
3.02423	100.01
3.04090	100.01
3.05757	100.02
3.07423	100.01
3.09090	100.02
3.10757	100.02
3.12423	100.02
3.14090	100.02
3.15757	100.02
3.17423	100.02
3.19090	100.02
3.20757	100.03
3.22423	100.03
3.24090	100.03
3.25757	100.03
3.27423	100.03
3.29090	100.03
3.30757	100.03
3.32423	100.03
3.34090	100.03
3.35757	100.03
3.37423	100.03
3.39090	100.03
3.40757	100.03
3.42423	100.04
3.44090	100.04
3.45757	100.03
3.47423	100.04
3.49090	100.04
3.50757	100.04
3.52423	100.04
3.54090	100.04
3.55757	100.04
3.57423	100.04
3.59090	100.03
3.60757	100.04
3.62423	100.04
3.64090	100.04
3.65757	100.04
3.67423	100.04
3.69090	100.04
3.70757	100.04
3.72423	100.04
3.74090	100.03
3.75757	100.04
3.77423	100.04
3.79090	100.04
3.80757	100.04
3.82423	100.04
3.84090	100.04
3.85757	100.03
3.87423	100.04
3.89090	100.04
3.90757	100.04
3.92423	100.04
3.94090	100.03
3.95757	100.04
3.97423	100.04
3.99090	100.04

[Status Trace (Carrier Gas Pressure)]
Interval(msec)	1000
# of Points	240
Start Time(min)	0.008
End Time(min)	3.991
Intensity Units	
Intensity Multiplier	1
R.Time (min)	Intensity
0.00757	58.00
0.02423	55.41
0.04090	56.96
0.05757	59.14
0.07423	59.52
0.09090	58.08
0.10757	57.98
0.12423	58.01
0.14090	58.01
0.15757	58.01
0.17423	58.00
0.19090	58.00
0.20757	58.00
0.22423	58.00
0.24090	58.00
0.25757	58.00
0.27423	58.00
0.29090	58.00
0.30757	58.00
0.32423	58.00
0.34090	58.00
0.35757	58.00
0.37423	58.00
0.39090	58.00
0.40757	58.00
0.42423	58.00
0.44090	58.00
0.45757	58.00
0.47423	58.00
0.49090	58.00
0.50757	58.00
0.52423	58.00
0.54090	58.00
0.55757	58.00
0.57423	58.00
0.59090	58.00
0.60757	58.00
0.62423	58.00
0.64090	58.00
0.65757	58.00
0.67423	58.00
0.69090	58.00
0.70757	58.00
0.72423	58.00
0.74090	58.00
0.75757	58.00
0.77423	58.00
0.79090	58.00
0.80757	58.00
0.82423	58.00
0.84090	58.00
0.85757	58.00
0.87423	58.00
0.89090	58.00
0.90757	58.00
0.92423	58.00
0.94090	58.00
0.95757	58.00
0.97423	58.00
0.99090	58.00
1.00757	58.00
1.02423	58.00
1.04090	58.00
1.05757	58.00
1.07423	58.00
1.09090	58.00
1.10757	58.00
1.12423	58.00
1.14090	58.00
1.15757	58.00
1.17423	58.00
1.19090	58.00
1.20757	58.00
1.22423	58.00
1.24090	58.00
1.25757	58.00
1.27423	58.00
1.29090	58.00
1.30757	58.00
1.32423	58.00
1.34090	58.00
1.35757	58.00
1.37423	58.00
1.39090	58.00
1.40757	58.00
1.42423	58.00
1.44090	58.00
1.45757	58.00
1.47423	58.00
1.49090	58.00
1.50757	58.00
1.52423	58.00
1.54090	58.00
1.55757	58.00
1.57423	58.00
1.59090	58.00
1.60757	58.00
1.62423	58.00
1.64090	58.00
1.65757	58.01
1.67423	58.01
1.69090	58.00
1.70757	58.00
1.72423	58.00
1.74090	58.00
1.75757	58.00
1.77423	58.00
1.79090	58.00
1.80757	58.00
1.82423	58.00
1.84090	58.00
1.85757	58.00
1.87423	58.00
1.89090	58.00
1.90757	58.00
1.92423	58.00
1.94090	58.00
1.95757	58.00
1.97423	58.00
1.99090	58.00
2.00757	58.00
2.02423	58.00
2.04090	58.00
2.05757	58.00
2.07423	58.00
2.09090	58.00
2.10757	58.00
2.12423	58.00
2.14090	58.00
2.15757	58.00
2.17423	58.00
2.19090	58.00
2.20757	58.00
2.22423	58.00
2.24090	58.00
2.25757	58.00
2.27423	58.00
2.29090	58.00
2.30757	58.00
2.32423	58.00
2.34090	58.00
2.35757	58.00
2.37423	57.99
2.39090	57.99
2.40757	58.00
2.42423	58.00
2.44090	58.00
2.45757	58.00
2.47423	58.00
2.49090	58.00
2.50757	57.99
2.52423	57.98
2.54090	58.00
2.55757	58.00
2.57423	58.00
2.59090	58.00
2.60757	58.00
2.62423	58.00
2.64090	58.00
2.65757	58.00
2.67423	58.00
2.69090	58.00
2.70757	58.00
2.72423	58.00
2.74090	58.00
2.75757	58.00
2.77423	58.00
2.79090	58.00
2.80757	58.00
2.82423	58.00
2.84090	58.00
2.85757	58.00
2.87423	58.00
2.89090	58.00
2.90757	58.00
2.92423	58.00
2.94090	58.00
2.95757	58.00
2.97423	58.00
2.99090	58.00
3.00757	58.00
3.02423	58.00
3.04090	58.00
3.05757	58.00
3.07423	58.00
3.09090	58.00
3.10757	58.00
3.12423	58.00
3.14090	58.00
3.15757	58.00
3.17423	58.00
3.19090	58.00
3.20757	58.00
3.22423	58.00
3.24090	58.00
3.25757	58.00
3.27423	58.00
3.29090	58.00
3.30757	58.00
3.32423	58.00
3.34090	58.00
3.35757	58.00
3.37423	58.00
3.39090	58.00
3.40757	58.00
3.42423	58.00
3.44090	58.00
3.45757	58.00
3.47423	58.00
3.49090	58.00
3.50757	58.00
3.52423	58.00
3.54090	58.00
3.55757	58.00
3.57423	58.00
3.59090	58.00
3.60757	58.00
3.62423	58.00
3.64090	58.00
3.65757	58.00
3.67423	58.00
3.69090	58.00
3.70757	58.00
3.72423	58.00
3.74090	58.00
3.75757	58.00
3.77423	58.00
3.79090	58.00
3.80757	58.00
3.82423	58.00
3.84090	58.00
3.85757	58.00
3.87423	58.00
3.89090	58.00
3.90757	58.00
3.92423	58.00
3.94090	58.00
3.95757	58.00
3.97423	58.00
3.99090	58.00

[Status Trace (Carrier Gas Flow)]
Interval(msec)	1000
# of Points	240
Start Time(min)	0.008
End Time(min)	3.991
Intensity Units	
Intensity Multiplier	1
R.Time (min)	Intensity
0.00757	34.53
0.02423	34.54
0.04090	34.53
0.05757	34.55
0.07423	34.49
0.09090	34.52
0.10757	34.52
0.12423	34.52
0.14090	34.52
0.15757	34.52
0.17423	34.52
0.19090	34.52
0.20757	34.52
0.22423	34.52
0.24090	34.52
0.25757	34.52
0.27423	34.52
0.29090	34.52
0.30757	34.52
0.32423	34.52
0.34090	34.52
0.35757	34.52
0.37423	34.52
0.39090	34.52
0.40757	34.52
0.42423	34.52
0.44090	34.52
0.45757	34.52
0.47423	34.52
0.49090	34.52
0.50757	34.52
0.52423	34.52
0.54090	34.52
0.55757	34.52
0.57423	34.52
0.59090	34.52
0.60757	34.52
0.62423	34.52
0.64090	34.52
0.65757	34.52
0.67423	34.52
0.69090	34.52
0.70757	34.52
0.72423	34.52
0.74090	34.52
0.75757	34.52
0.77423	34.52
0.79090	34.52
0.80757	34.52
0.82423	34.52
0.84090	34.52
0.85757	34.52
0.87423	34.52
0.89090	34.52
0.90757	34.53
0.92423	34.51
0.94090	34.52
0.95757	34.52
0.97423	34.52
0.99090	34.52
1.00757	34.52
1.02423	34.52
1.04090	34.52
1.05757	34.52
1.07423	34.52
1.09090	34.52
1.10757	34.52
1.12423	34.52
1.14090	34.52
1.15757	34.52
1.17423	34.52
1.19090	34.52
1.20757	34.52
1.22423	34.52
1.24090	34.52
1.25757	34.52
1.27423	34.51
1.29090	34.52
1.30757	34.52
1.32423	34.52
1.34090	34.52
1.35757	34.53
1.37423	34.51
1.39090	34.52
1.40757	34.52
1.42423	34.52
1.44090	34.52
1.45757	34.52
1.47423	34.52
1.49090	34.52
1.50757	34.52
1.52423	34.52
1.54090	34.52
1.55757	34.52
1.57423	34.52
1.59090	34.52
1.60757	34.52
1.62423	34.52
1.64090	34.52
1.65757	34.52
1.67423	34.52
1.69090	34.52
1.70757	34.52
1.72423	34.52
1.74090	34.52
1.75757	34.52
1.77423	34.52
1.79090	34.52
1.80757	34.52
1.82423	34.52
1.84090	34.52
1.85757	34.50
1.87423	34.53
1.89090	34.52
1.90757	34.52
1.92423	34.50
1.94090	34.52
1.95757	34.52
1.97423	34.52
1.99090	34.52
2.00757	34.52
2.02423	34.52
2.04090	34.52
2.05757	34.52
2.07423	34.52
2.09090	34.52
2.10757	34.52
2.12423	34.53
2.14090	34.52
2.15757	34.52
2.17423	34.52
2.19090	34.52
2.20757	34.52
2.22423	34.52
2.24090	34.53
2.25757	34.51
2.27423	34.52
2.29090	34.51
2.30757	34.52
2.32423	34.53
2.34090	34.52
2.35757	34.52
2.37423	34.52
2.39090	34.53
2.40757	34.51
2.42423	34.51
2.44090	34.52
2.45757	34.52
2.47423	34.51
2.49090	34.53
2.50757	34.35
2.52423	34.52
2.54090	34.52
2.55757	34.52
2.57423	34.52
2.59090	34.52
2.60757	34.52
2.62423	34.52
2.64090	34.52
2.65757	34.52
2.67423	34.52
2.69090	34.52
2.70757	34.52
2.72423	34.52
2.74090	34.52
2.75757	34.52
2.77423	34.52
2.79090	34.52
2.80757	34.52
2.82423	34.52
2.84090	34.52
2.85757	34.52
2.87423	34.52
2.89090	34.51
2.90757	34.54
2.92423	34.53
2.94090	34.51
2.95757	34.51
2.97423	34.51
2.99090	34.50
3.00757	34.52
3.02423	34.53
3.04090	34.50
3.05757	34.52
3.07423	34.52
3.09090	34.52
3.10757	34.52
3.12423	34.52
3.14090	34.52
3.15757	34.51
3.17423	34.52
3.19090	34.50
3.20757	34.53
3.22423	34.53
3.24090	34.53
3.25757	34.52
3.27423	34.52
3.29090	34.52
3.30757	34.52
3.32423	34.52
3.34090	34.52
3.35757	34.52
3.37423	34.52
3.39090	34.52
3.40757	34.51
3.42423	34.52
3.44090	34.52
3.45757	34.52
3.47423	34.52
3.49090	34.52
3.50757	34.52
3.52423	34.52
3.54090	34.52
3.55757	34.52
3.57423	34.52
3.59090	34.52
3.60757	34.52
3.62423	34.52
3.64090	34.52
3.65757	34.52
3.67423	34.52
3.69090	34.52
3.70757	34.52
3.72423	34.52
3.74090	34.52
3.75757	34.52
3.77423	34.52
3.79090	34.52
3.80757	34.52
3.82423	34.52
3.84090	34.52
3.85757	34.52
3.87423	34.52
3.89090	34.52
3.90757	34.52
3.92423	34.52
3.94090	34.52
3.95757	34.52
3.97423	34.52
3.99090	34.52

[Status Trace (Column Flow)]
Interval(msec)	1000
# of Points	240
Start Time(min)	0.008
End Time(min)	3.991
Intensity Units	
Intensity Multiplier	1
R.Time (min)	Intensity
0.00757	5.56
0.02423	5.26
0.04090	5.44
0.05757	5.69
0.07423	5.74
0.09090	5.57
0.10757	5.56
0.12423	5.56
0.14090	5.56
0.15757	5.56
0.17423	5.56
0.19090	5.56
0.20757	5.56
0.22423	5.56
0.24090	5.56
0.25757	5.56
0.27423	5.56
0.29090	5.56
0.30757	5.56
0.32423	5.56
0.34090	5.56
0.35757	5.56
0.37423	5.56
0.39090	5.56
0.40757	5.56
0.42423	5.56
0.44090	5.56
0.45757	5.56
0.47423	5.56
0.49090	5.56
0.50757	5.56
0.52423	5.56
0.54090	5.56
0.55757	5.56
0.57423	5.56
0.59090	5.56
0.60757	5.56
0.62423	5.56
0.64090	5.56
0.65757	5.56
0.67423	5.56
0.69090	5.56
0.70757	5.56
0.72423	5.56
0.74090	5.56
0.75757	5.56
0.77423	5.56
0.79090	5.56
0.80757	5.56
0.82423	5.56
0.84090	5.56
0.85757	5.56
0.87423	5.56
0.89090	5.56
0.90757	5.56
0.92423	5.56
0.94090	5.56
0.95757	5.56
0.97423	5.56
0.99090	5.56
1.00757	5.56
1.02423	5.56
1.04090	5.56
1.05757	5.56
1.07423	5.56
1.09090	5.56
1.10757	5.56
1.12423	5.56
1.14090	5.56
1.15757	5.56
1.17423	5.56
1.19090	5.56
1.20757	5.56
1.22423	5.56
1.24090	5.56
1.25757	5.56
1.27423	5.56
1.29090	5.56
1.30757	5.56
1.32423	5.56
1.34090	5.56
1.35757	5.56
1.37423	5.56
1.39090	5.56
1.40757	5.56
1.42423	5.56
1.44090	5.56
1.45757	5.56
1.47423	5.56
1.49090	5.56
1.50757	5.56
1.52423	5.56
1.54090	5.56
1.55757	5.56
1.57423	5.56
1.59090	5.56
1.60757	5.56
1.62423	5.55
1.64090	5.55
1.65757	5.54
1.67423	5.53
1.69090	5.52
1.70757	5.51
1.72423	5.50
1.74090	5.49
1.75757	5.48
1.77423	5.47
1.79090	5.46
1.80757	5.45
1.82423	5.44
1.84090	5.43
1.85757	5.41
1.87423	5.40
1.89090	5.39
1.90757	5.38
1.92423	5.37
1.94090	5.36
1.95757	5.35
1.97423	5.35
1.99090	5.34
2.00757	5.33
2.02423	5.32
2.04090	5.31
2.05757	5.30
2.07423	5.29
2.09090	5.28
2.10757	5.27
2.12423	5.26
2.14090	5.25
2.15757	5.24
2.17423	5.23
2.19090	5.22
2.20757	5.21
2.22423	5.20
2.24090	5.19
2.25757	5.18
2.27423	5.17
2.29090	5.17
2.30757	5.16
2.32423	5.15
2.34090	5.14
2.35757	5.13
2.37423	5.12
2.39090	5.12
2.40757	5.12
2.42423	5.12
2.44090	5.12
2.45757	5.12
2.47423	5.12
2.49090	5.12
2.50757	5.12
2.52423	5.12
2.54090	5.12
2.55757	5.12
2.57423	5.12
2.59090	5.12
2.60757	5.12
2.62423	5.12
2.64090	5.12
2.65757	5.12
2.67423	5.12
2.69090	5.12
2.70757	5.12
2.72423	5.12
2.74090	5.12
2.75757	5.12
2.77423	5.12
2.79090	5.12
2.80757	5.12
2.82423	5.12
2.84090	5.12
2.85757	5.12
2.87423	5.11
2.89090	5.11
2.90757	5.11
2.92423	5.11
2.94090	5.11
2.95757	5.11
2.97423	5.11
2.99090	5.11
3.00757	5.11
3.02423	5.11
3.04090	5.11
3.05757	5.11
3.07423	5.11
3.09090	5.11
3.10757	5.11
3.12423	5.11
3.14090	5.11
3.15757	5.11
3.17423	5.11
3.19090	5.11
3.20757	5.11
3.22423	5.11
3.24090	5.11
3.25757	5.11
3.27423	5.11
3.29090	5.11
3.30757	5.11
3.32423	5.11
3.34090	5.11
3.35757	5.11
3.37423	5.11
3.39090	5.11
3.40757	5.11
3.42423	5.11
3.44090	5.11
3.45757	5.11
3.47423	5.11
3.49090	5.11
3.50757	5.11
3.52423	5.11
3.54090	5.11
3.55757	5.11
3.57423	5.11
3.59090	5.11
3.60757	5.11
3.62423	5.11
3.64090	5.11
3.65757	5.11
3.67423	5.11
3.69090	5.11
3.70757	5.11
3.72423	5.11
3.74090	5.11
3.75757	5.11
3.77423	5.11
3.79090	5.11
3.80757	5.11
3.82423	5.11
3.84090	5.11
3.85757	5.11
3.87423	5.11
3.89090	5.11
3.90757	5.11
3.92423	5.11
3.94090	5.11
3.95757	5.11
3.97423	5.11
3.99090	5.11

[Status Trace (Linear Velocity)]
Interval(msec)	1000
# of Points	240
Start Time(min)	0.008
End Time(min)	3.991
Intensity Units	
Intensity Multiplier	1
R.Time (min)	Intensity
0.00757	39.03
0.02423	37.32
0.04090	38.34
0.05757	39.77
0.07423	40.02
0.09090	39.08
0.10757	39.01
0.12423	39.03
0.14090	39.03
0.15757	39.03
0.17423	39.03
0.19090	39.02
0.20757	39.02
0.22423	39.02
0.24090	39.03
0.25757	39.03
0.27423	39.03
0.29090	39.03
0.30757	39.03
0.32423	39.03
0.34090	39.03
0.35757	39.03
0.37423	39.03
0.39090	39.03
0.40757	39.03
0.42423	39.03
0.44090	39.03
0.45757	39.03
0.47423	39.03
0.49090	39.03
0.50757	39.03
0.52423	39.03
0.54090	39.03
0.55757	39.03
0.57423	39.03
0.59090	39.03
0.60757	39.03
0.62423	39.03
0.64090	39.03
0.65757	39.03
0.67423	39.03
0.69090	39.03
0.70757	39.03
0.72423	39.03
0.74090	39.02
0.75757	39.03
0.77423	39.02
0.79090	39.02
0.80757	39.03
0.82423	39.03
0.84090	39.03
0.85757	39.03
0.87423	39.03
0.89090	39.03
0.90757	39.03
0.92423	39.03
0.94090	39.03
0.95757	39.03
0.97423	39.03
0.99090	39.03
1.00757	39.03
1.02423	39.03
1.04090	39.03
1.05757	39.03
1.07423	39.03
1.09090	39.03
1.10757	39.03
1.12423	39.03
1.14090	39.03
1.15757	39.03
1.17423	39.03
1.19090	39.03
1.20757	39.03
1.22423	39.03
1.24090	39.03
1.25757	39.03
1.27423	39.03
1.29090	39.03
1.30757	39.03
1.32423	39.03
1.34090	39.03
1.35757	39.03
1.37423	39.03
1.39090	39.02
1.40757	39.02
1.42423	39.02
1.44090	39.02
1.45757	39.02
1.47423	39.02
1.49090	39.02
1.50757	39.02
1.52423	39.02
1.54090	39.02
1.55757	39.03
1.57423	39.03
1.59090	39.03
1.60757	39.02
1.62423	39.01
1.64090	39.00
1.65757	38.97
1.67423	38.94
1.69090	38.90
1.70757	38.87
1.72423	38.83
1.74090	38.80
1.75757	38.77
1.77423	38.74
1.79090	38.71
1.80757	38.68
1.82423	38.65
1.84090	38.62
1.85757	38.59
1.87423	38.55
1.89090	38.52
1.90757	38.49
1.92423	38.46
1.94090	38.43
1.95757	38.40
1.97423	38.37
1.99090	38.34
2.00757	38.31
2.02423	38.28
2.04090	38.25
2.05757	38.22
2.07423	38.19
2.09090	38.16
2.10757	38.13
2.12423	38.10
2.14090	38.07
2.15757	38.04
2.17423	38.01
2.19090	37.98
2.20757	37.95
2.22423	37.92
2.24090	37.90
2.25757	37.87
2.27423	37.84
2.29090	37.81
2.30757	37.78
2.32423	37.75
2.34090	37.72
2.35757	37.69
2.37423	37.67
2.39090	37.66
2.40757	37.67
2.42423	37.67
2.44090	37.67
2.45757	37.67
2.47423	37.67
2.49090	37.66
2.50757	37.66
2.52423	37.65
2.54090	37.66
2.55757	37.66
2.57423	37.66
2.59090	37.66
2.60757	37.66
2.62423	37.66
2.64090	37.66
2.65757	37.66
2.67423	37.65
2.69090	37.65
2.70757	37.65
2.72423	37.65
2.74090	37.65
2.75757	37.65
2.77423	37.65
2.79090	37.65
2.80757	37.65
2.82423	37.65
2.84090	37.65
2.85757	37.65
2.87423	37.65
2.89090	37.65
2.90757	37.65
2.92423	37.64
2.94090	37.64
2.95757	37.64
2.97423	37.64
2.99090	37.64
3.00757	37.64
3.02423	37.64
3.04090	37.64
3.05757	37.64
3.07423	37.64
3.09090	37.64
3.10757	37.64
3.12423	37.64
3.14090	37.63
3.15757	37.63
3.17423	37.63
3.19090	37.63
3.20757	37.63
3.22423	37.63
3.24090	37.63
3.25757	37.64
3.27423	37.63
3.29090	37.63
3.30757	37.63
3.32423	37.63
3.34090	37.63
3.35757	37.63
3.37423	37.63
3.39090	37.63
3.40757	37.63
3.42423	37.64
3.44090	37.63
3.45757	37.64
3.47423	37.64
3.49090	37.64
3.50757	37.64
3.52423	37.64
3.54090	37.64
3.55757	37.64
3.57423	37.64
3.59090	37.64
3.60757	37.64
3.62423	37.64
3.64090	37.64
3.65757	37.64
3.67423	37.64
3.69090	37.64
3.70757	37.64
3.72423	37.64
3.74090	37.64
3.75757	37.64
3.77423	37.63
3.79090	37.63
3.80757	37.63
3.82423	37.63
3.84090	37.63
3.85757	37.63
3.87423	37.63
3.89090	37.63
3.90757	37.64
3.92423	37.64
3.94090	37.64
3.95757	37.64
3.97423	37.64
3.99090	37.64

