[Header]
Application Name	LabSolutions
Version	5.110
Data File Name	C:\Users\User\Desktop\GC Analyses\Jack\UIC Prairie Sampling\9.2.22\220902_032.gcd
Output Date	10/28/2022
Output Time	1:23:53 PM

[File Information]
Type	Data File
Generated	10/25/2022 2:50:35 PM
Generated by	System Administrator
Modified	10/25/2022 2:55:26 PM
Modified by	System Administrator

[Sample Information]
Operator Name	System Administrator
Acquired	10/25/2022 2:51:26 PM
Sample Type	1:Standard
Level	1
Sample Name	220902_UICPrairie
Sample ID	220902_UICPrairie
ISTD Amount1	1
ISTD Amount2	1
ISTD Amount3	1
ISTD Amount4	1
ISTD Amount5	1
ISTD Amount6	1
ISTD Amount7	1
ISTD Amount8	1
ISTD Amount9	1
ISTD Amount10	1
ISTD Amount11	1
ISTD Amount12	1
ISTD Amount13	1
ISTD Amount14	1
ISTD Amount15	1
ISTD Amount16	1
ISTD Amount17	1
ISTD Amount18	1
ISTD Amount19	1
ISTD Amount20	1
ISTD Amount21	1
ISTD Amount22	1
ISTD Amount23	1
ISTD Amount24	1
ISTD Amount25	1
ISTD Amount26	1
ISTD Amount27	1
ISTD Amount28	1
ISTD Amount29	1
ISTD Amount30	1
ISTD Amount31	1
ISTD Amount32	1
Sample Amount	1
Dilution Factor	1
Vial#	1
Injection Volume	1
Injection Count	1
Bar Code	

[Original Files]
Data File	C:\Users\User\Desktop\GC Analyses\Jack\UIC Prairie Sampling\9.2.22\220902_032.gcd
Method File	C:\LabSolutions\Data\GHG_4min_2022\ghg3_togas_w_acet_4 min_new_int.gcm
Batch File	
Report Format File	c:\LabSolutions\System\DEFAULT.lsr

[File Description]


[Configuration]
Instrument Name	C0B7VH3-Instrument1
Instrument #	1
Line #	1
# of Detectors	3
Detector ID	DET#1	DET#2	DET#3
Detector Name	FID	PTCD	ECD
# of Channels	1	1	1

[Peak Table(Ch1)]
# of Peaks	3
Peak#	R.Time	I.Time	F.Time	Area	Height	A/H	Conc.	Mark	ID#	Name	k'	Plate #	Plate Ht.	Tailing	Resolution	Sep.Factor	Area Ratio	Height Ratio	Conc. %	Norm Conc.
1	1.476	1.435	1.538	13482	6088	2.214	100.000	   	1	CO	0.000	8605	17.433	1.251	0.000	0.000	0	0	16.667	16.667
2	1.571	1.538	1.637	4422	2225	1.987	100.000	 V 	2	CH4	0.065	11532	13.007	1.087	1.561	0.000	0	0	16.667	16.667
3	1.996	1.945	2.363	1930463	948996	2.034	400.000	   	3	CO2	0.353	17981	8.342	1.294	7.205	5.462	0	0	66.667	66.667

[Peak Table(Ch2)]
# of Peaks	0

[Peak Table(Ch3)]
# of Peaks	3
Peak#	R.Time	I.Time	F.Time	Area	Height	A/H	Conc.	Mark	ID#	Name	k'	Plate #	Plate Ht.	Tailing	Resolution	Sep.Factor	Area Ratio	Height Ratio	Conc. %	Norm Conc.
1	2.572	2.440	2.664	8150	860	9.472	0.000	   			0.000	1989	75.405	0.000	0.000	0.000	0	0	0.000	0.000
2	2.752	2.664	2.814	4362	511	8.539	0.154	 V 	1	N2O	0.070	113	1326.186	0.000	0.284	0.000	0	0	15.375	15.375
3	2.884	2.814	3.217	24010	5353	4.485	0.846	 V 	1	N2O	0.121	12037	12.461	0.000	0.232	1.735	0	0	84.625	84.625

[Compound Results(Ch1)]
# of IDs	6
ID#	Name	R.Time	Area	Height	Conc.	Curve	3rd	2nd	1st	Constant	Area Ratio	Height Ratio	Conc. %	Norm Conc.
1	CO	1.476	13482	6088	100.000	Linear	0.000000e+00	0.000000e+00	1.348173e+002	0.000000e+00	0	0	16.667	16.667
2	CH4	1.571	4422	2225	100.000	Linear	0.000000e+00	0.000000e+00	4.422003e+001	0.000000e+00	0	0	16.667	16.667
3	CO2	1.996	1930463	948996	400.000	Linear	0.000000e+00	0.000000e+00	4.826157e+003	0.000000e+00	0	0	66.667	66.667
4	Ethylene	0.000	0	0	0.000	Linear	0.000000e+00	0.000000e+00	0.000000e+00	0.000000e+00	0	0	0.000	0.000
5	Acetylene	0.000	0	0	0.000	Linear	0.000000e+00	0.000000e+00	0.000000e+00	0.000000e+00	0	0	0.000	0.000
6	Ethane	0.000	0	0	0.000	Linear	0.000000e+00	0.000000e+00	0.000000e+00	0.000000e+00	0	0	0.000	0.000

[Compound Results(Ch2)]
# of IDs	5
ID#	Name	R.Time	Area	Height	Conc.	Curve	3rd	2nd	1st	Constant	Area Ratio	Height Ratio	Conc. %	Norm Conc.
1	Hydrogen	0.000	0	0	0.000	Linear	0.000000e+00	0.000000e+00	0.000000e+00	0.000000e+00	0	0	0.000	0.000
2	Oxygen	0.000	0	0	0.000	Linear	0.000000e+00	0.000000e+00	0.000000e+00	0.000000e+00	0	0	0.000	0.000
3	Nitrogen	0.000	0	0	0.000	Linear	0.000000e+00	0.000000e+00	0.000000e+00	0.000000e+00	0	0	0.000	0.000
4	Methane	0.000	0	0	0.000	Linear	0.000000e+00	0.000000e+00	0.000000e+00	0.000000e+00	0	0	0.000	0.000
5	Carbon Monoxide	0.000	0	0	0.000	Linear	0.000000e+00	0.000000e+00	0.000000e+00	0.000000e+00	0	0	0.000	0.000

[Compound Results(Ch3)]
# of IDs	2
ID#	Name	R.Time	Area	Height	Conc.	Curve	3rd	2nd	1st	Constant	Area Ratio	Height Ratio	Conc. %	Norm Conc.
1	N2O	2.884	28373	5864	1.000	Linear	0.000000e+00	0.000000e+00	2.837258e+004	0.000000e+00	0	0	100.000	100.000
2	SF6	0.000	0	0	0.000	Linear	0.000000e+00	0.000000e+00	0.000000e+00	0.000000e+00	0	0	0.000	0.000

[Group Results(Ch1)]
# of Groups	0

[Group Results(Ch2)]
# of Groups	0

[Group Results(Ch3)]
# of Groups	0

[Chromatogram (Ch1)]
Interval(msec)	220
# of Points	1091
Start Time(min)	0.002
End Time(min)	3.998
R.Time (min)	Intensity
0.00167	-7
0.00533	-5
0.00900	-2
0.01267	3
0.01633	8
0.02000	10
0.02367	10
0.02733	11
0.03100	14
0.03467	15
0.03833	14
0.04200	10
0.04567	3
0.04933	-1
0.05300	-2
0.05667	-3
0.06033	-2
0.06400	1
0.06767	6
0.07133	13
0.07500	17
0.07867	14
0.08233	6
0.08600	0
0.08967	-5
0.09333	-7
0.09700	-8
0.10067	-5
0.10433	0
0.10800	5
0.11167	6
0.11533	8
0.11900	9
0.12267	5
0.12633	-2
0.13000	-10
0.13367	-13
0.13733	-15
0.14100	-15
0.14467	-15
0.14833	-16
0.15200	-14
0.15567	-11
0.15933	-12
0.16300	-17
0.16667	-23
0.17033	-30
0.17400	-36
0.17767	-38
0.18133	-37
0.18500	-32
0.18867	-27
0.19233	-21
0.19600	-17
0.19967	-16
0.20333	-19
0.20700	-21
0.21067	-24
0.21433	-22
0.21800	-20
0.22167	-20
0.22533	-19
0.22900	-19
0.23267	-18
0.23633	-18
0.24000	-18
0.24367	-21
0.24733	-26
0.25100	-32
0.25467	-38
0.25833	-41
0.26200	-40
0.26567	-39
0.26933	-40
0.27300	-42
0.27667	-42
0.28033	-38
0.28400	-31
0.28767	-24
0.29133	-19
0.29500	-18
0.29867	-19
0.30233	-18
0.30600	-15
0.30967	-12
0.31333	-12
0.31700	-15
0.32067	-18
0.32433	-17
0.32800	-17
0.33167	-18
0.33533	-21
0.33900	-24
0.34267	-26
0.34633	-24
0.35000	-20
0.35367	-16
0.35733	-9
0.36100	-2
0.36467	3
0.36833	2
0.37200	-3
0.37567	-10
0.37933	-16
0.38300	-23
0.38667	-31
0.39033	-36
0.39400	-38
0.39767	-37
0.40133	-37
0.40500	-39
0.40867	-43
0.41233	-44
0.41600	-43
0.41967	-39
0.42333	-36
0.42700	-34
0.43067	-32
0.43433	-27
0.43800	-23
0.44167	-17
0.44533	-10
0.44900	-4
0.45267	-3
0.45633	-6
0.46000	-11
0.46367	-21
0.46733	-31
0.47100	-40
0.47467	-46
0.47833	-51
0.48200	-52
0.48567	-52
0.48933	-48
0.49300	-41
0.49667	-34
0.50033	-30
0.50400	-29
0.50767	-30
0.51133	-34
0.51500	-36
0.51867	-33
0.52233	-32
0.52600	-32
0.52967	-33
0.53333	-33
0.53700	-31
0.54067	-34
0.54433	-38
0.54800	-39
0.55167	-38
0.55533	-36
0.55900	-40
0.56267	-48
0.56633	-54
0.57000	-58
0.57367	-56
0.57733	-49
0.58100	-35
0.58467	-22
0.58833	-12
0.59200	-11
0.59567	-18
0.59933	-31
0.60300	-43
0.60667	-55
0.61033	-66
0.61400	-71
0.61767	-71
0.62133	-66
0.62500	-59
0.62867	-52
0.63233	-48
0.63600	-47
0.63967	-48
0.64333	-51
0.64700	-51
0.65067	-47
0.65433	-41
0.65800	-35
0.66167	-32
0.66533	-32
0.66900	-31
0.67267	-28
0.67633	-27
0.68000	-29
0.68367	-30
0.68733	-31
0.69100	-32
0.69467	-34
0.69833	-39
0.70200	-45
0.70567	-52
0.70933	-58
0.71300	-61
0.71667	-56
0.72033	-46
0.72400	-39
0.72767	-42
0.73133	-48
0.73500	-54
0.73867	-58
0.74233	-59
0.74600	-58
0.74967	-61
0.75333	-64
0.75700	-63
0.76067	-59
0.76433	-55
0.76800	-50
0.77167	-48
0.77533	-48
0.77900	-47
0.78267	-48
0.78633	-46
0.79000	-43
0.79367	-41
0.79733	-43
0.80100	-45
0.80467	-45
0.80833	-44
0.81200	-45
0.81567	-47
0.81933	-55
0.82300	-67
0.82667	-75
0.83033	-77
0.83400	-75
0.83767	-72
0.84133	-69
0.84500	-65
0.84867	-64
0.85233	-66
0.85600	-67
0.85967	-66
0.86333	-66
0.86700	-65
0.87067	-60
0.87433	-54
0.87800	-49
0.88167	-49
0.88533	-52
0.88900	-57
0.89267	-59
0.89633	-58
0.90000	-55
0.90367	-56
0.90733	-60
0.91100	-65
0.91467	-67
0.91833	-66
0.92200	-63
0.92567	-60
0.92933	-57
0.93300	-56
0.93667	-55
0.94033	-56
0.94400	-56
0.94767	-57
0.95133	-59
0.95500	-59
0.95867	-62
0.96233	-67
0.96600	-69
0.96967	-70
0.97333	-68
0.97700	-64
0.98067	-62
0.98433	-65
0.98800	-69
0.99167	-75
0.99533	-79
0.99900	-81
1.00267	-82
1.00633	-84
1.01000	-86
1.01367	-83
1.01733	-79
1.02100	-79
1.02467	-81
1.02833	-85
1.03200	-92
1.03567	-96
1.03933	-93
1.04300	-86
1.04667	-78
1.05033	-72
1.05400	-71
1.05767	-74
1.06133	-80
1.06500	-83
1.06867	-86
1.07233	-90
1.07600	-92
1.07967	-93
1.08333	-91
1.08700	-86
1.09067	-82
1.09433	-78
1.09800	-77
1.10167	-74
1.10533	-69
1.10900	-64
1.11267	-60
1.11633	-59
1.12000	-64
1.12367	-71
1.12733	-76
1.13100	-78
1.13467	-77
1.13833	-77
1.14200	-77
1.14567	-79
1.14933	-79
1.15300	-78
1.15667	-76
1.16033	-75
1.16400	-74
1.16767	-73
1.17133	-76
1.17500	-79
1.17867	-82
1.18233	-82
1.18600	-81
1.18967	-81
1.19333	-82
1.19700	-85
1.20067	-87
1.20433	-85
1.20800	-81
1.21167	-75
1.21533	-70
1.21900	-69
1.22267	-71
1.22633	-75
1.23000	-77
1.23367	-77
1.23733	-74
1.24100	-71
1.24467	-71
1.24833	-74
1.25200	-80
1.25567	-86
1.25933	-91
1.26300	-92
1.26667	-88
1.27033	-83
1.27400	-82
1.27767	-86
1.28133	-87
1.28500	-86
1.28867	-88
1.29233	-93
1.29600	-97
1.29967	-99
1.30333	-98
1.30700	-92
1.31067	-87
1.31433	-86
1.31800	-88
1.32167	-95
1.32533	-105
1.32900	-112
1.33267	-114
1.33633	-112
1.34000	-108
1.34367	-107
1.34733	-109
1.35100	-111
1.35467	-112
1.35833	-111
1.36200	-107
1.36567	-98
1.36933	-91
1.37300	-88
1.37667	-89
1.38033	-95
1.38400	-98
1.38767	-97
1.39133	-95
1.39500	-94
1.39867	-94
1.40233	-94
1.40600	-95
1.40967	-97
1.41333	-100
1.41700	-103
1.42067	-105
1.42433	-105
1.42800	-105
1.43167	-104
1.43533	-97
1.43900	-68
1.44267	30
1.44633	266
1.45000	683
1.45367	1370
1.45733	2350
1.46100	3461
1.46467	4484
1.46833	5283
1.47200	5797
1.47567	5989
1.47933	5827
1.48300	5317
1.48667	4546
1.49033	3663
1.49400	2812
1.49767	2079
1.50133	1495
1.50500	1056
1.50867	738
1.51233	511
1.51600	351
1.51967	236
1.52333	149
1.52700	82
1.53067	32
1.53433	1
1.53800	-12
1.54167	22
1.54533	160
1.54900	448
1.55267	855
1.55633	1289
1.56000	1669
1.56367	1955
1.56733	2116
1.57100	2120
1.57467	1954
1.57833	1649
1.58200	1279
1.58567	924
1.58933	626
1.59300	400
1.59667	238
1.60033	125
1.60400	49
1.60767	-3
1.61133	-39
1.61500	-64
1.61867	-80
1.62233	-89
1.62600	-95
1.62967	-100
1.63333	-104
1.63700	-109
1.64067	-113
1.64433	-117
1.64800	-120
1.65167	-122
1.65533	-122
1.65900	-120
1.66267	-120
1.66633	-124
1.67000	-127
1.67367	-131
1.67733	-131
1.68100	-130
1.68467	-128
1.68833	-124
1.69200	-118
1.69567	-111
1.69933	-110
1.70300	-114
1.70667	-118
1.71033	-119
1.71400	-119
1.71767	-120
1.72133	-122
1.72500	-123
1.72867	-125
1.73233	-126
1.73600	-126
1.73967	-127
1.74333	-128
1.74700	-126
1.75067	-123
1.75433	-121
1.75800	-122
1.76167	-120
1.76533	-114
1.76900	-108
1.77267	-105
1.77633	-104
1.78000	-104
1.78367	-105
1.78733	-108
1.79100	-108
1.79467	-106
1.79833	-106
1.80200	-107
1.80567	-110
1.80933	-111
1.81300	-108
1.81667	-105
1.82033	-108
1.82400	-113
1.82767	-117
1.83133	-117
1.83500	-115
1.83867	-112
1.84233	-110
1.84600	-112
1.84967	-117
1.85333	-122
1.85700	-125
1.86067	-125
1.86433	-127
1.86800	-126
1.87167	-123
1.87533	-119
1.87900	-114
1.88267	-109
1.88633	-101
1.89000	-94
1.89367	-95
1.89733	-99
1.90100	-102
1.90467	-105
1.90833	-105
1.91200	-105
1.91567	-108
1.91933	-108
1.92300	-107
1.92667	-108
1.93033	-110
1.93400	-112
1.93767	-111
1.94133	-109
1.94500	-104
1.94867	-97
1.95233	-76
1.95600	35
1.95967	697
1.96333	3937
1.96700	15949
1.97067	49892
1.97433	123849
1.97800	249380
1.98167	418292
1.98533	603153
1.98900	770409
1.99267	891808
1.99633	948925
2.00000	935199
2.00367	857498
2.00733	734504
2.01100	591185
2.01467	450906
2.01833	329294
2.02200	232809
2.02567	161037
2.02933	110024
2.03300	74883
2.03667	51158
2.04033	35320
2.04400	24790
2.04767	17773
2.05133	13063
2.05500	9864
2.05867	7656
2.06233	6101
2.06600	4979
2.06967	4148
2.07333	3517
2.07700	3031
2.08067	2654
2.08433	2351
2.08800	2102
2.09167	1895
2.09533	1720
2.09900	1570
2.10267	1442
2.10633	1330
2.11000	1231
2.11367	1142
2.11733	1062
2.12100	988
2.12467	922
2.12833	864
2.13200	818
2.13567	778
2.13933	740
2.14300	704
2.14667	673
2.15033	645
2.15400	621
2.15767	596
2.16133	573
2.16500	548
2.16867	521
2.17233	494
2.17600	475
2.17967	463
2.18333	453
2.18700	441
2.19067	425
2.19433	408
2.19800	394
2.20167	383
2.20533	374
2.20900	369
2.21267	364
2.21633	357
2.22000	344
2.22367	329
2.22733	319
2.23100	315
2.23467	310
2.23833	301
2.24200	289
2.24567	278
2.24933	270
2.25300	266
2.25667	263
2.26033	261
2.26400	260
2.26767	259
2.27133	257
2.27500	255
2.27867	253
2.28233	249
2.28600	244
2.28967	240
2.29333	235
2.29700	228
2.30067	221
2.30433	213
2.30800	207
2.31167	203
2.31533	202
2.31900	201
2.32267	200
2.32633	201
2.33000	204
2.33367	207
2.33733	205
2.34100	199
2.34467	192
2.34833	186
2.35200	180
2.35567	176
2.35933	171
2.36300	164
2.36667	158
2.37033	155
2.37400	156
2.37767	158
2.38133	160
2.38500	163
2.38867	166
2.39233	169
2.39600	167
2.39967	164
2.40333	161
2.40700	160
2.41067	163
2.41433	166
2.41800	170
2.42167	178
2.42533	184
2.42900	184
2.43267	179
2.43633	171
2.44000	161
2.44367	152
2.44733	145
2.45100	141
2.45467	143
2.45833	146
2.46200	148
2.46567	152
2.46933	159
2.47300	164
2.47667	165
2.48033	162
2.48400	158
2.48767	155
2.49133	149
2.49500	141
2.49867	132
2.50233	124
2.50600	118
2.50967	114
2.51333	111
2.51700	111
2.52067	117
2.52433	121
2.52800	126
2.53167	131
2.53533	136
2.53900	139
2.54267	142
2.54633	145
2.55000	147
2.55367	145
2.55733	140
2.56100	135
2.56467	133
2.56833	133
2.57200	135
2.57567	134
2.57933	135
2.58300	134
2.58667	132
2.59033	128
2.59400	126
2.59767	124
2.60133	124
2.60500	122
2.60867	117
2.61233	114
2.61600	116
2.61967	118
2.62333	116
2.62700	110
2.63067	102
2.63433	95
2.63800	94
2.64167	95
2.64533	99
2.64900	104
2.65267	106
2.65633	107
2.66000	107
2.66367	107
2.66733	106
2.67100	101
2.67467	94
2.67833	87
2.68200	84
2.68567	83
2.68933	87
2.69300	92
2.69667	97
2.70033	105
2.70400	113
2.70767	117
2.71133	116
2.71500	114
2.71867	109
2.72233	106
2.72600	104
2.72967	104
2.73333	106
2.73700	106
2.74067	107
2.74433	110
2.74800	113
2.75167	115
2.75533	114
2.75900	110
2.76267	107
2.76633	106
2.77000	106
2.77367	104
2.77733	102
2.78100	101
2.78467	99
2.78833	97
2.79200	94
2.79567	92
2.79933	95
2.80300	100
2.80667	102
2.81033	99
2.81400	96
2.81767	95
2.82133	97
2.82500	100
2.82867	101
2.83233	100
2.83600	98
2.83967	96
2.84333	93
2.84700	89
2.85067	83
2.85433	78
2.85800	77
2.86167	77
2.86533	77
2.86900	77
2.87267	79
2.87633	83
2.88000	87
2.88367	91
2.88733	94
2.89100	94
2.89467	93
2.89833	94
2.90200	95
2.90567	96
2.90933	96
2.91300	98
2.91667	100
2.92033	101
2.92400	100
2.92767	96
2.93133	90
2.93500	86
2.93867	84
2.94233	82
2.94600	82
2.94967	83
2.95333	84
2.95700	85
2.96067	87
2.96433	89
2.96800	91
2.97167	92
2.97533	92
2.97900	94
2.98267	101
2.98633	109
2.99000	114
2.99367	114
2.99733	112
3.00100	111
3.00467	109
3.00833	106
3.01200	102
3.01567	93
3.01933	88
3.02300	89
3.02667	89
3.03033	88
3.03400	85
3.03767	81
3.04133	78
3.04500	76
3.04867	79
3.05233	82
3.05600	84
3.05967	83
3.06333	83
3.06700	85
3.07067	89
3.07433	89
3.07800	83
3.08167	70
3.08533	57
3.08900	47
3.09267	44
3.09633	46
3.10000	51
3.10367	56
3.10733	61
3.11100	65
3.11467	66
3.11833	66
3.12200	63
3.12567	61
3.12933	60
3.13300	57
3.13667	56
3.14033	55
3.14400	59
3.14767	63
3.15133	62
3.15500	60
3.15867	62
3.16233	64
3.16600	66
3.16967	68
3.17333	70
3.17700	73
3.18067	75
3.18433	75
3.18800	72
3.19167	66
3.19533	61
3.19900	57
3.20267	56
3.20633	58
3.21000	61
3.21367	65
3.21733	67
3.22100	66
3.22467	63
3.22833	60
3.23200	53
3.23567	47
3.23933	46
3.24300	50
3.24667	55
3.25033	59
3.25400	58
3.25767	53
3.26133	48
3.26500	46
3.26867	46
3.27233	49
3.27600	51
3.27967	51
3.28333	49
3.28700	47
3.29067	48
3.29433	52
3.29800	55
3.30167	57
3.30533	60
3.30900	60
3.31267	57
3.31633	56
3.32000	58
3.32367	65
3.32733	68
3.33100	66
3.33467	59
3.33833	55
3.34200	51
3.34567	45
3.34933	41
3.35300	40
3.35667	45
3.36033	49
3.36400	52
3.36767	55
3.37133	55
3.37500	52
3.37867	47
3.38233	45
3.38600	46
3.38967	48
3.39333	49
3.39700	47
3.40067	45
3.40433	42
3.40800	40
3.41167	40
3.41533	43
3.41900	43
3.42267	40
3.42633	36
3.43000	35
3.43367	37
3.43733	42
3.44100	44
3.44467	43
3.44833	40
3.45200	33
3.45567	26
3.45933	23
3.46300	24
3.46667	30
3.47033	39
3.47400	45
3.47767	44
3.48133	37
3.48500	28
3.48867	19
3.49233	15
3.49600	15
3.49967	18
3.50333	21
3.50700	24
3.51067	25
3.51433	26
3.51800	28
3.52167	34
3.52533	44
3.52900	52
3.53267	54
3.53633	51
3.54000	45
3.54367	40
3.54733	35
3.55100	35
3.55467	37
3.55833	38
3.56200	37
3.56567	36
3.56933	37
3.57300	37
3.57667	36
3.58033	36
3.58400	34
3.58767	31
3.59133	28
3.59500	24
3.59867	24
3.60233	25
3.60600	28
3.60967	29
3.61333	26
3.61700	21
3.62067	18
3.62433	16
3.62800	12
3.63167	9
3.63533	7
3.63900	6
3.64267	8
3.64633	9
3.65000	12
3.65367	14
3.65733	20
3.66100	26
3.66467	30
3.66833	29
3.67200	24
3.67567	19
3.67933	17
3.68300	20
3.68667	24
3.69033	25
3.69400	25
3.69767	27
3.70133	32
3.70500	36
3.70867	38
3.71233	36
3.71600	35
3.71967	36
3.72333	37
3.72700	35
3.73067	31
3.73433	26
3.73800	20
3.74167	15
3.74533	10
3.74900	6
3.75267	5
3.75633	5
3.76000	6
3.76367	8
3.76733	10
3.77100	11
3.77467	12
3.77833	14
3.78200	15
3.78567	16
3.78933	13
3.79300	9
3.79667	6
3.80033	3
3.80400	3
3.80767	4
3.81133	6
3.81500	7
3.81867	5
3.82233	2
3.82600	1
3.82967	3
3.83333	10
3.83700	20
3.84067	30
3.84433	35
3.84800	33
3.85167	28
3.85533	21
3.85900	13
3.86267	7
3.86633	5
3.87000	4
3.87367	3
3.87733	-2
3.88100	-9
3.88467	-13
3.88833	-14
3.89200	-12
3.89567	-8
3.89933	-3
3.90300	2
3.90667	7
3.91033	12
3.91400	14
3.91767	16
3.92133	19
3.92500	24
3.92867	29
3.93233	34
3.93600	37
3.93967	37
3.94333	33
3.94700	25
3.95067	20
3.95433	19
3.95800	19
3.96167	22
3.96533	27
3.96900	31
3.97267	34
3.97633	35
3.98000	33
3.98367	29
3.98733	23
3.99100	16
3.99467	8
3.99833	2

[Chromatogram (Ch2)]
Interval(msec)	220
# of Points	1091
Start Time(min)	0.002
End Time(min)	3.998
R.Time (min)	Intensity
0.00167	0
0.00533	0
0.00900	0
0.01267	0
0.01633	1
0.02000	1
0.02367	1
0.02733	1
0.03100	1
0.03467	1
0.03833	1
0.04200	1
0.04567	2
0.04933	2
0.05300	3
0.05667	3
0.06033	3
0.06400	4
0.06767	3
0.07133	3
0.07500	3
0.07867	3
0.08233	3
0.08600	3
0.08967	3
0.09333	3
0.09700	3
0.10067	4
0.10433	5
0.10800	5
0.11167	6
0.11533	6
0.11900	7
0.12267	7
0.12633	7
0.13000	7
0.13367	7
0.13733	7
0.14100	8
0.14467	8
0.14833	8
0.15200	8
0.15567	8
0.15933	8
0.16300	8
0.16667	8
0.17033	8
0.17400	9
0.17767	9
0.18133	9
0.18500	9
0.18867	9
0.19233	9
0.19600	8
0.19967	8
0.20333	8
0.20700	8
0.21067	8
0.21433	8
0.21800	8
0.22167	8
0.22533	7
0.22900	7
0.23267	7
0.23633	7
0.24000	7
0.24367	6
0.24733	6
0.25100	6
0.25467	6
0.25833	6
0.26200	6
0.26567	5
0.26933	5
0.27300	5
0.27667	5
0.28033	5
0.28400	5
0.28767	5
0.29133	5
0.29500	4
0.29867	4
0.30233	4
0.30600	4
0.30967	3
0.31333	3
0.31700	3
0.32067	3
0.32433	2
0.32800	2
0.33167	2
0.33533	2
0.33900	2
0.34267	2
0.34633	2
0.35000	2
0.35367	2
0.35733	2
0.36100	2
0.36467	2
0.36833	2
0.37200	2
0.37567	2
0.37933	2
0.38300	2
0.38667	2
0.39033	3
0.39400	3
0.39767	3
0.40133	3
0.40500	3
0.40867	2
0.41233	2
0.41600	2
0.41967	2
0.42333	2
0.42700	2
0.43067	2
0.43433	2
0.43800	2
0.44167	2
0.44533	1
0.44900	1
0.45267	1
0.45633	1
0.46000	2
0.46367	2
0.46733	2
0.47100	3
0.47467	3
0.47833	3
0.48200	4
0.48567	4
0.48933	4
0.49300	5
0.49667	5
0.50033	5
0.50400	5
0.50767	5
0.51133	6
0.51500	6
0.51867	6
0.52233	6
0.52600	6
0.52967	5
0.53333	5
0.53700	5
0.54067	5
0.54433	5
0.54800	5
0.55167	5
0.55533	5
0.55900	6
0.56267	6
0.56633	6
0.57000	6
0.57367	6
0.57733	6
0.58100	5
0.58467	5
0.58833	5
0.59200	4
0.59567	5
0.59933	5
0.60300	4
0.60667	4
0.61033	4
0.61400	4
0.61767	4
0.62133	4
0.62500	3
0.62867	3
0.63233	3
0.63600	2
0.63967	2
0.64333	1
0.64700	1
0.65067	1
0.65433	0
0.65800	0
0.66167	-0
0.66533	-0
0.66900	-0
0.67267	0
0.67633	0
0.68000	1
0.68367	1
0.68733	1
0.69100	1
0.69467	1
0.69833	1
0.70200	1
0.70567	1
0.70933	1
0.71300	1
0.71667	1
0.72033	1
0.72400	1
0.72767	1
0.73133	1
0.73500	1
0.73867	1
0.74233	1
0.74600	2
0.74967	2
0.75333	2
0.75700	2
0.76067	2
0.76433	2
0.76800	2
0.77167	2
0.77533	2
0.77900	2
0.78267	2
0.78633	2
0.79000	1
0.79367	1
0.79733	1
0.80100	1
0.80467	1
0.80833	1
0.81200	1
0.81567	1
0.81933	2
0.82300	2
0.82667	2
0.83033	2
0.83400	2
0.83767	2
0.84133	2
0.84500	2
0.84867	2
0.85233	2
0.85600	2
0.85967	2
0.86333	2
0.86700	2
0.87067	2
0.87433	2
0.87800	2
0.88167	2
0.88533	2
0.88900	2
0.89267	2
0.89633	2
0.90000	2
0.90367	2
0.90733	2
0.91100	2
0.91467	2
0.91833	2
0.92200	3
0.92567	3
0.92933	3
0.93300	3
0.93667	3
0.94033	3
0.94400	3
0.94767	3
0.95133	3
0.95500	3
0.95867	3
0.96233	3
0.96600	3
0.96967	2
0.97333	3
0.97700	3
0.98067	3
0.98433	3
0.98800	3
0.99167	3
0.99533	3
0.99900	3
1.00267	2
1.00633	2
1.01000	2
1.01367	2
1.01733	2
1.02100	1
1.02467	1
1.02833	1
1.03200	1
1.03567	1
1.03933	1
1.04300	1
1.04667	1
1.05033	1
1.05400	1
1.05767	1
1.06133	1
1.06500	1
1.06867	1
1.07233	1
1.07600	1
1.07967	1
1.08333	1
1.08700	1
1.09067	1
1.09433	1
1.09800	1
1.10167	0
1.10533	0
1.10900	0
1.11267	-0
1.11633	-0
1.12000	-0
1.12367	-0
1.12733	-0
1.13100	-1
1.13467	-1
1.13833	-1
1.14200	-1
1.14567	-1
1.14933	-2
1.15300	-2
1.15667	-2
1.16033	-2
1.16400	-2
1.16767	-2
1.17133	-2
1.17500	-2
1.17867	-2
1.18233	-2
1.18600	-2
1.18967	-2
1.19333	-2
1.19700	-2
1.20067	-2
1.20433	-1
1.20800	-1
1.21167	-1
1.21533	-0
1.21900	0
1.22267	1
1.22633	1
1.23000	2
1.23367	2
1.23733	2
1.24100	3
1.24467	3
1.24833	3
1.25200	3
1.25567	4
1.25933	4
1.26300	4
1.26667	4
1.27033	4
1.27400	4
1.27767	4
1.28133	3
1.28500	3
1.28867	3
1.29233	3
1.29600	3
1.29967	3
1.30333	3
1.30700	3
1.31067	4
1.31433	4
1.31800	4
1.32167	4
1.32533	4
1.32900	4
1.33267	4
1.33633	3
1.34000	3
1.34367	3
1.34733	3
1.35100	4
1.35467	4
1.35833	4
1.36200	4
1.36567	3
1.36933	3
1.37300	3
1.37667	3
1.38033	2
1.38400	2
1.38767	2
1.39133	2
1.39500	2
1.39867	1
1.40233	1
1.40600	1
1.40967	0
1.41333	-0
1.41700	-0
1.42067	-1
1.42433	-1
1.42800	-1
1.43167	-1
1.43533	-0
1.43900	-0
1.44267	-0
1.44633	0
1.45000	0
1.45367	0
1.45733	1
1.46100	0
1.46467	0
1.46833	0
1.47200	-0
1.47567	-0
1.47933	-0
1.48300	-0
1.48667	-0
1.49033	-0
1.49400	-0
1.49767	-0
1.50133	0
1.50500	0
1.50867	0
1.51233	0
1.51600	0
1.51967	0
1.52333	0
1.52700	-0
1.53067	0
1.53433	0
1.53800	1
1.54167	1
1.54533	1
1.54900	1
1.55267	0
1.55633	0
1.56000	0
1.56367	0
1.56733	0
1.57100	0
1.57467	0
1.57833	0
1.58200	0
1.58567	0
1.58933	-0
1.59300	-1
1.59667	-1
1.60033	-2
1.60400	-3
1.60767	-4
1.61133	-6
1.61500	-8
1.61867	-10
1.62233	-12
1.62600	-14
1.62967	-17
1.63333	-20
1.63700	-23
1.64067	-27
1.64433	-31
1.64800	-34
1.65167	-38
1.65533	-42
1.65900	-45
1.66267	-49
1.66633	-54
1.67000	-58
1.67367	-63
1.67733	-68
1.68100	-72
1.68467	-77
1.68833	-82
1.69200	-86
1.69567	-90
1.69933	-93
1.70300	-96
1.70667	-98
1.71033	-100
1.71400	-102
1.71767	-103
1.72133	-103
1.72500	-104
1.72867	-105
1.73233	-105
1.73600	-106
1.73967	-108
1.74333	-109
1.74700	-110
1.75067	-112
1.75433	-112
1.75800	-112
1.76167	-112
1.76533	-112
1.76900	-112
1.77267	-112
1.77633	-112
1.78000	-112
1.78367	-112
1.78733	-113
1.79100	-114
1.79467	-114
1.79833	-115
1.80200	-115
1.80567	-116
1.80933	-116
1.81300	-116
1.81667	-117
1.82033	-117
1.82400	-118
1.82767	-118
1.83133	-119
1.83500	-119
1.83867	-119
1.84233	-118
1.84600	-117
1.84967	-116
1.85333	-116
1.85700	-115
1.86067	-115
1.86433	-115
1.86800	-115
1.87167	-115
1.87533	-115
1.87900	-116
1.88267	-116
1.88633	-115
1.89000	-115
1.89367	-115
1.89733	-115
1.90100	-115
1.90467	-116
1.90833	-116
1.91200	-117
1.91567	-117
1.91933	-117
1.92300	-117
1.92667	-117
1.93033	-117
1.93400	-117
1.93767	-116
1.94133	-116
1.94500	-115
1.94867	-114
1.95233	-114
1.95600	-113
1.95967	-113
1.96333	-113
1.96700	-113
1.97067	-113
1.97433	-113
1.97800	-112
1.98167	-112
1.98533	-111
1.98900	-110
1.99267	-109
1.99633	-109
2.00000	-108
2.00367	-108
2.00733	-108
2.01100	-108
2.01467	-108
2.01833	-108
2.02200	-108
2.02567	-108
2.02933	-107
2.03300	-107
2.03667	-106
2.04033	-105
2.04400	-105
2.04767	-104
2.05133	-104
2.05500	-104
2.05867	-104
2.06233	-104
2.06600	-104
2.06967	-104
2.07333	-103
2.07700	-103
2.08067	-103
2.08433	-103
2.08800	-103
2.09167	-103
2.09533	-103
2.09900	-103
2.10267	-103
2.10633	-103
2.11000	-103
2.11367	-103
2.11733	-103
2.12100	-103
2.12467	-102
2.12833	-102
2.13200	-102
2.13567	-101
2.13933	-101
2.14300	-101
2.14667	-101
2.15033	-100
2.15400	-100
2.15767	-100
2.16133	-99
2.16500	-99
2.16867	-99
2.17233	-99
2.17600	-99
2.17967	-98
2.18333	-98
2.18700	-97
2.19067	-97
2.19433	-96
2.19800	-95
2.20167	-94
2.20533	-93
2.20900	-93
2.21267	-92
2.21633	-91
2.22000	-90
2.22367	-90
2.22733	-90
2.23100	-89
2.23467	-89
2.23833	-89
2.24200	-88
2.24567	-88
2.24933	-88
2.25300	-89
2.25667	-89
2.26033	-90
2.26400	-90
2.26767	-90
2.27133	-91
2.27500	-91
2.27867	-91
2.28233	-91
2.28600	-90
2.28967	-89
2.29333	-88
2.29700	-88
2.30067	-88
2.30433	-87
2.30800	-87
2.31167	-87
2.31533	-86
2.31900	-86
2.32267	-85
2.32633	-84
2.33000	-84
2.33367	-83
2.33733	-83
2.34100	-83
2.34467	-83
2.34833	-83
2.35200	-83
2.35567	-83
2.35933	-83
2.36300	-82
2.36667	-81
2.37033	-80
2.37400	-78
2.37767	-76
2.38133	-73
2.38500	-69
2.38867	-65
2.39233	-61
2.39600	-57
2.39967	-52
2.40333	-48
2.40700	-43
2.41067	-39
2.41433	-35
2.41800	-31
2.42167	-27
2.42533	-24
2.42900	-21
2.43267	-19
2.43633	-16
2.44000	-14
2.44367	-11
2.44733	-9
2.45100	-7
2.45467	-5
2.45833	-3
2.46200	-2
2.46567	-0
2.46933	1
2.47300	2
2.47667	3
2.48033	4
2.48400	5
2.48767	6
2.49133	7
2.49500	7
2.49867	7
2.50233	8
2.50600	8
2.50967	9
2.51333	9
2.51700	10
2.52067	10
2.52433	11
2.52800	12
2.53167	13
2.53533	14
2.53900	15
2.54267	15
2.54633	16
2.55000	16
2.55367	17
2.55733	17
2.56100	17
2.56467	17
2.56833	17
2.57200	17
2.57567	16
2.57933	16
2.58300	16
2.58667	15
2.59033	15
2.59400	16
2.59767	16
2.60133	17
2.60500	17
2.60867	18
2.61233	18
2.61600	19
2.61967	20
2.62333	20
2.62700	21
2.63067	21
2.63433	21
2.63800	22
2.64167	22
2.64533	22
2.64900	22
2.65267	22
2.65633	22
2.66000	22
2.66367	22
2.66733	22
2.67100	22
2.67467	22
2.67833	22
2.68200	23
2.68567	23
2.68933	23
2.69300	23
2.69667	23
2.70033	23
2.70400	23
2.70767	23
2.71133	24
2.71500	24
2.71867	25
2.72233	25
2.72600	26
2.72967	26
2.73333	27
2.73700	27
2.74067	26
2.74433	26
2.74800	26
2.75167	25
2.75533	25
2.75900	24
2.76267	24
2.76633	24
2.77000	24
2.77367	24
2.77733	24
2.78100	24
2.78467	25
2.78833	25
2.79200	26
2.79567	26
2.79933	27
2.80300	27
2.80667	27
2.81033	27
2.81400	27
2.81767	27
2.82133	27
2.82500	27
2.82867	27
2.83233	27
2.83600	27
2.83967	27
2.84333	26
2.84700	24
2.85067	22
2.85433	18
2.85800	11
2.86167	2
2.86533	-11
2.86900	-27
2.87267	-48
2.87633	-72
2.88000	-100
2.88367	-132
2.88733	-168
2.89100	-206
2.89467	-248
2.89833	-292
2.90200	-338
2.90567	-386
2.90933	-435
2.91300	-484
2.91667	-534
2.92033	-583
2.92400	-633
2.92767	-682
2.93133	-731
2.93500	-779
2.93867	-830
2.94233	-885
2.94600	-946
2.94967	-1006
2.95333	-1052
2.95700	-1077
2.96067	-1076
2.96433	-1049
2.96800	-1000
2.97167	-936
2.97533	-862
2.97900	-784
2.98267	-704
2.98633	-626
2.99000	-552
2.99367	-484
2.99733	-421
3.00100	-364
3.00467	-314
3.00833	-269
3.01200	-230
3.01567	-195
3.01933	-166
3.02300	-140
3.02667	-117
3.03033	-98
3.03400	-82
3.03767	-68
3.04133	-55
3.04500	-45
3.04867	-36
3.05233	-29
3.05600	-22
3.05967	-17
3.06333	-12
3.06700	-8
3.07067	-5
3.07433	-1
3.07800	1
3.08167	3
3.08533	5
3.08900	7
3.09267	8
3.09633	9
3.10000	10
3.10367	11
3.10733	12
3.11100	13
3.11467	14
3.11833	15
3.12200	15
3.12567	15
3.12933	16
3.13300	16
3.13667	16
3.14033	17
3.14400	17
3.14767	17
3.15133	17
3.15500	18
3.15867	18
3.16233	18
3.16600	18
3.16967	19
3.17333	19
3.17700	19
3.18067	19
3.18433	19
3.18800	19
3.19167	20
3.19533	20
3.19900	20
3.20267	20
3.20633	20
3.21000	21
3.21367	21
3.21733	21
3.22100	21
3.22467	21
3.22833	22
3.23200	22
3.23567	22
3.23933	22
3.24300	22
3.24667	23
3.25033	23
3.25400	24
3.25767	24
3.26133	24
3.26500	24
3.26867	25
3.27233	25
3.27600	25
3.27967	25
3.28333	25
3.28700	25
3.29067	25
3.29433	26
3.29800	26
3.30167	26
3.30533	26
3.30900	26
3.31267	27
3.31633	27
3.32000	27
3.32367	28
3.32733	28
3.33100	28
3.33467	28
3.33833	29
3.34200	29
3.34567	29
3.34933	29
3.35300	29
3.35667	29
3.36033	29
3.36400	30
3.36767	30
3.37133	30
3.37500	30
3.37867	30
3.38233	30
3.38600	30
3.38967	30
3.39333	29
3.39700	29
3.40067	29
3.40433	29
3.40800	29
3.41167	29
3.41533	29
3.41900	29
3.42267	29
3.42633	28
3.43000	28
3.43367	28
3.43733	28
3.44100	28
3.44467	28
3.44833	28
3.45200	28
3.45567	27
3.45933	27
3.46300	27
3.46667	27
3.47033	27
3.47400	27
3.47767	27
3.48133	27
3.48500	27
3.48867	27
3.49233	27
3.49600	28
3.49967	28
3.50333	28
3.50700	28
3.51067	28
3.51433	28
3.51800	28
3.52167	28
3.52533	28
3.52900	28
3.53267	28
3.53633	28
3.54000	28
3.54367	28
3.54733	28
3.55100	28
3.55467	28
3.55833	28
3.56200	28
3.56567	28
3.56933	28
3.57300	28
3.57667	28
3.58033	28
3.58400	28
3.58767	28
3.59133	28
3.59500	27
3.59867	27
3.60233	27
3.60600	27
3.60967	27
3.61333	27
3.61700	27
3.62067	27
3.62433	27
3.62800	27
3.63167	27
3.63533	27
3.63900	27
3.64267	27
3.64633	27
3.65000	27
3.65367	27
3.65733	27
3.66100	28
3.66467	28
3.66833	28
3.67200	28
3.67567	28
3.67933	28
3.68300	28
3.68667	28
3.69033	28
3.69400	28
3.69767	28
3.70133	28
3.70500	28
3.70867	28
3.71233	28
3.71600	28
3.71967	28
3.72333	28
3.72700	28
3.73067	28
3.73433	28
3.73800	28
3.74167	28
3.74533	28
3.74900	27
3.75267	27
3.75633	27
3.76000	27
3.76367	27
3.76733	27
3.77100	27
3.77467	27
3.77833	27
3.78200	27
3.78567	27
3.78933	27
3.79300	27
3.79667	27
3.80033	27
3.80400	27
3.80767	27
3.81133	27
3.81500	27
3.81867	27
3.82233	26
3.82600	26
3.82967	26
3.83333	26
3.83700	26
3.84067	26
3.84433	26
3.84800	26
3.85167	26
3.85533	27
3.85900	27
3.86267	27
3.86633	28
3.87000	28
3.87367	28
3.87733	27
3.88100	28
3.88467	28
3.88833	28
3.89200	28
3.89567	28
3.89933	28
3.90300	28
3.90667	28
3.91033	29
3.91400	29
3.91767	28
3.92133	28
3.92500	28
3.92867	28
3.93233	27
3.93600	27
3.93967	27
3.94333	26
3.94700	26
3.95067	26
3.95433	25
3.95800	25
3.96167	25
3.96533	25
3.96900	25
3.97267	25
3.97633	25
3.98000	25
3.98367	25
3.98733	25
3.99100	26
3.99467	26
3.99833	26

[Chromatogram (Ch3)]
Interval(msec)	220
# of Points	1091
Start Time(min)	0.002
End Time(min)	3.998
R.Time (min)	Intensity
0.00167	-0
0.00533	1
0.00900	2
0.01267	2
0.01633	1
0.02000	1
0.02367	0
0.02733	-1
0.03100	-1
0.03467	0
0.03833	2
0.04200	1
0.04567	0
0.04933	-1
0.05300	-1
0.05667	3
0.06033	5
0.06400	5
0.06767	5
0.07133	6
0.07500	6
0.07867	7
0.08233	8
0.08600	9
0.08967	9
0.09333	8
0.09700	6
0.10067	5
0.10433	5
0.10800	6
0.11167	7
0.11533	9
0.11900	9
0.12267	7
0.12633	7
0.13000	8
0.13367	9
0.13733	8
0.14100	8
0.14467	10
0.14833	10
0.15200	9
0.15567	7
0.15933	9
0.16300	9
0.16667	9
0.17033	10
0.17400	11
0.17767	10
0.18133	9
0.18500	8
0.18867	8
0.19233	9
0.19600	12
0.19967	12
0.20333	12
0.20700	10
0.21067	8
0.21433	10
0.21800	13
0.22167	14
0.22533	15
0.22900	15
0.23267	14
0.23633	14
0.24000	15
0.24367	15
0.24733	12
0.25100	9
0.25467	10
0.25833	13
0.26200	16
0.26567	17
0.26933	17
0.27300	16
0.27667	14
0.28033	15
0.28400	16
0.28767	16
0.29133	16
0.29500	17
0.29867	16
0.30233	15
0.30600	15
0.30967	15
0.31333	13
0.31700	10
0.32067	10
0.32433	12
0.32800	18
0.33167	21
0.33533	20
0.33900	18
0.34267	15
0.34633	13
0.35000	13
0.35367	14
0.35733	13
0.36100	14
0.36467	15
0.36833	16
0.37200	17
0.37567	18
0.37933	20
0.38300	21
0.38667	20
0.39033	20
0.39400	19
0.39767	20
0.40133	20
0.40500	20
0.40867	19
0.41233	19
0.41600	20
0.41967	21
0.42333	22
0.42700	21
0.43067	20
0.43433	20
0.43800	23
0.44167	26
0.44533	26
0.44900	26
0.45267	27
0.45633	27
0.46000	27
0.46367	24
0.46733	23
0.47100	23
0.47467	22
0.47833	23
0.48200	26
0.48567	28
0.48933	27
0.49300	25
0.49667	28
0.50033	30
0.50400	30
0.50767	31
0.51133	30
0.51500	30
0.51867	30
0.52233	32
0.52600	33
0.52967	33
0.53333	34
0.53700	34
0.54067	35
0.54433	36
0.54800	36
0.55167	35
0.55533	34
0.55900	33
0.56267	33
0.56633	34
0.57000	35
0.57367	35
0.57733	35
0.58100	35
0.58467	35
0.58833	36
0.59200	35
0.59567	33
0.59933	31
0.60300	29
0.60667	28
0.61033	32
0.61400	35
0.61767	37
0.62133	38
0.62500	40
0.62867	40
0.63233	39
0.63600	40
0.63967	41
0.64333	43
0.64700	44
0.65067	43
0.65433	43
0.65800	42
0.66167	41
0.66533	39
0.66900	38
0.67267	36
0.67633	35
0.68000	36
0.68367	36
0.68733	35
0.69100	36
0.69467	36
0.69833	37
0.70200	37
0.70567	35
0.70933	35
0.71300	37
0.71667	39
0.72033	39
0.72400	40
0.72767	40
0.73133	41
0.73500	43
0.73867	44
0.74233	43
0.74600	42
0.74967	42
0.75333	41
0.75700	40
0.76067	42
0.76433	42
0.76800	41
0.77167	41
0.77533	41
0.77900	43
0.78267	44
0.78633	45
0.79000	44
0.79367	43
0.79733	41
0.80100	39
0.80467	42
0.80833	44
0.81200	44
0.81567	43
0.81933	41
0.82300	40
0.82667	39
0.83033	39
0.83400	40
0.83767	43
0.84133	45
0.84500	45
0.84867	43
0.85233	41
0.85600	41
0.85967	43
0.86333	43
0.86700	44
0.87067	46
0.87433	46
0.87800	47
0.88167	47
0.88533	47
0.88900	47
0.89267	47
0.89633	46
0.90000	44
0.90367	43
0.90733	42
0.91100	43
0.91467	43
0.91833	43
0.92200	44
0.92567	46
0.92933	48
0.93300	49
0.93667	48
0.94033	46
0.94400	44
0.94767	43
0.95133	43
0.95500	44
0.95867	43
0.96233	41
0.96600	42
0.96967	44
0.97333	49
0.97700	53
0.98067	56
0.98433	57
0.98800	56
0.99167	54
0.99533	52
0.99900	51
1.00267	51
1.00633	51
1.01000	51
1.01367	52
1.01733	53
1.02100	52
1.02467	52
1.02833	55
1.03200	57
1.03567	58
1.03933	56
1.04300	54
1.04667	54
1.05033	53
1.05400	53
1.05767	52
1.06133	50
1.06500	48
1.06867	47
1.07233	51
1.07600	53
1.07967	55
1.08333	55
1.08700	56
1.09067	54
1.09433	52
1.09800	52
1.10167	54
1.10533	55
1.10900	53
1.11267	52
1.11633	50
1.12000	52
1.12367	54
1.12733	54
1.13100	54
1.13467	53
1.13833	54
1.14200	54
1.14567	53
1.14933	51
1.15300	50
1.15667	51
1.16033	55
1.16400	59
1.16767	61
1.17133	60
1.17500	59
1.17867	57
1.18233	55
1.18600	54
1.18967	57
1.19333	59
1.19700	62
1.20067	61
1.20433	60
1.20800	60
1.21167	60
1.21533	59
1.21900	56
1.22267	56
1.22633	59
1.23000	62
1.23367	60
1.23733	56
1.24100	54
1.24467	53
1.24833	54
1.25200	55
1.25567	54
1.25933	54
1.26300	56
1.26667	56
1.27033	56
1.27400	55
1.27767	54
1.28133	55
1.28500	56
1.28867	55
1.29233	53
1.29600	52
1.29967	53
1.30333	56
1.30700	56
1.31067	56
1.31433	56
1.31800	53
1.32167	51
1.32533	52
1.32900	56
1.33267	58
1.33633	59
1.34000	59
1.34367	59
1.34733	61
1.35100	62
1.35467	61
1.35833	61
1.36200	63
1.36567	63
1.36933	60
1.37300	58
1.37667	59
1.38033	62
1.38400	64
1.38767	63
1.39133	61
1.39500	61
1.39867	59
1.40233	57
1.40600	55
1.40967	56
1.41333	56
1.41700	56
1.42067	56
1.42433	56
1.42800	56
1.43167	57
1.43533	56
1.43900	55
1.44267	54
1.44633	55
1.45000	55
1.45367	55
1.45733	57
1.46100	59
1.46467	59
1.46833	58
1.47200	58
1.47567	59
1.47933	58
1.48300	56
1.48667	54
1.49033	55
1.49400	57
1.49767	57
1.50133	58
1.50500	59
1.50867	62
1.51233	65
1.51600	66
1.51967	65
1.52333	63
1.52700	61
1.53067	60
1.53433	59
1.53800	58
1.54167	56
1.54533	57
1.54900	59
1.55267	60
1.55633	61
1.56000	61
1.56367	60
1.56733	59
1.57100	59
1.57467	58
1.57833	59
1.58200	61
1.58567	61
1.58933	59
1.59300	58
1.59667	57
1.60033	58
1.60400	58
1.60767	58
1.61133	57
1.61500	59
1.61867	61
1.62233	61
1.62600	60
1.62967	58
1.63333	60
1.63700	64
1.64067	64
1.64433	65
1.64800	67
1.65167	68
1.65533	67
1.65900	66
1.66267	67
1.66633	67
1.67000	66
1.67367	67
1.67733	69
1.68100	69
1.68467	70
1.68833	73
1.69200	75
1.69567	74
1.69933	74
1.70300	74
1.70667	73
1.71033	73
1.71400	72
1.71767	73
1.72133	73
1.72500	72
1.72867	73
1.73233	72
1.73600	71
1.73967	72
1.74333	72
1.74700	72
1.75067	73
1.75433	75
1.75800	77
1.76167	77
1.76533	79
1.76900	80
1.77267	80
1.77633	81
1.78000	86
1.78367	89
1.78733	89
1.79100	89
1.79467	89
1.79833	90
1.80200	93
1.80567	97
1.80933	98
1.81300	95
1.81667	92
1.82033	90
1.82400	89
1.82767	89
1.83133	91
1.83500	93
1.83867	93
1.84233	94
1.84600	93
1.84967	92
1.85333	92
1.85700	94
1.86067	96
1.86433	96
1.86800	95
1.87167	94
1.87533	94
1.87900	93
1.88267	93
1.88633	93
1.89000	92
1.89367	93
1.89733	96
1.90100	96
1.90467	97
1.90833	99
1.91200	102
1.91567	105
1.91933	104
1.92300	104
1.92667	104
1.93033	104
1.93400	105
1.93767	107
1.94133	106
1.94500	107
1.94867	107
1.95233	107
1.95600	108
1.95967	108
1.96333	109
1.96700	111
1.97067	111
1.97433	109
1.97800	110
1.98167	110
1.98533	111
1.98900	111
1.99267	111
1.99633	110
2.00000	109
2.00367	111
2.00733	114
2.01100	117
2.01467	119
2.01833	122
2.02200	123
2.02567	123
2.02933	122
2.03300	119
2.03667	120
2.04033	121
2.04400	123
2.04767	122
2.05133	124
2.05500	127
2.05867	130
2.06233	134
2.06600	138
2.06967	140
2.07333	140
2.07700	140
2.08067	141
2.08433	142
2.08800	142
2.09167	142
2.09533	145
2.09900	147
2.10267	149
2.10633	147
2.11000	147
2.11367	146
2.11733	148
2.12100	149
2.12467	147
2.12833	144
2.13200	142
2.13567	145
2.13933	149
2.14300	152
2.14667	154
2.15033	157
2.15400	155
2.15767	154
2.16133	155
2.16500	156
2.16867	157
2.17233	159
2.17600	159
2.17967	159
2.18333	161
2.18700	162
2.19067	164
2.19433	165
2.19800	166
2.20167	167
2.20533	168
2.20900	168
2.21267	168
2.21633	168
2.22000	168
2.22367	168
2.22733	170
2.23100	170
2.23467	170
2.23833	172
2.24200	173
2.24567	173
2.24933	174
2.25300	176
2.25667	178
2.26033	180
2.26400	180
2.26767	178
2.27133	178
2.27500	180
2.27867	182
2.28233	182
2.28600	181
2.28967	181
2.29333	183
2.29700	185
2.30067	187
2.30433	189
2.30800	189
2.31167	187
2.31533	188
2.31900	190
2.32267	187
2.32633	185
2.33000	185
2.33367	186
2.33733	187
2.34100	189
2.34467	191
2.34833	194
2.35200	196
2.35567	196
2.35933	195
2.36300	195
2.36667	196
2.37033	195
2.37400	196
2.37767	196
2.38133	196
2.38500	197
2.38867	198
2.39233	200
2.39600	199
2.39967	196
2.40333	193
2.40700	193
2.41067	193
2.41433	197
2.41800	200
2.42167	200
2.42533	201
2.42900	204
2.43267	209
2.43633	213
2.44000	212
2.44367	218
2.44733	228
2.45100	242
2.45467	264
2.45833	297
2.46200	347
2.46567	405
2.46933	468
2.47300	530
2.47667	593
2.48033	656
2.48400	720
2.48767	778
2.49133	831
2.49500	880
2.49867	923
2.50233	960
2.50600	992
2.50967	1019
2.51333	1038
2.51700	1053
2.52067	1067
2.52433	1078
2.52800	1086
2.53167	1094
2.53533	1103
2.53900	1113
2.54267	1120
2.54633	1121
2.55000	1125
2.55367	1130
2.55733	1135
2.56100	1139
2.56467	1142
2.56833	1143
2.57200	1146
2.57567	1145
2.57933	1143
2.58300	1140
2.58667	1134
2.59033	1127
2.59400	1119
2.59767	1111
2.60133	1102
2.60500	1091
2.60867	1072
2.61233	1045
2.61600	1013
2.61967	976
2.62333	937
2.62700	898
2.63067	862
2.63433	830
2.63800	804
2.64167	781
2.64533	764
2.64900	755
2.65267	753
2.65633	752
2.66000	754
2.66367	755
2.66733	757
2.67100	763
2.67467	771
2.67833	779
2.68200	787
2.68567	796
2.68933	805
2.69300	813
2.69667	821
2.70033	830
2.70400	838
2.70767	845
2.71133	851
2.71500	856
2.71867	861
2.72233	864
2.72600	867
2.72967	870
2.73333	871
2.73700	875
2.74067	882
2.74433	889
2.74800	894
2.75167	897
2.75533	898
2.75900	899
2.76267	898
2.76633	897
2.77000	899
2.77367	900
2.77733	901
2.78100	903
2.78467	906
2.78833	908
2.79200	908
2.79567	907
2.79933	906
2.80300	905
2.80667	905
2.81033	904
2.81400	905
2.81767	908
2.82133	910
2.82500	913
2.82867	925
2.83233	946
2.83600	991
2.83967	1080
2.84333	1239
2.84700	1489
2.85067	1846
2.85433	2311
2.85800	2865
2.86167	3474
2.86533	4095
2.86900	4674
2.87267	5167
2.87633	5532
2.88000	5749
2.88367	5813
2.88733	5740
2.89100	5552
2.89467	5279
2.89833	4952
2.90200	4595
2.90567	4228
2.90933	3866
2.91300	3521
2.91667	3203
2.92033	2912
2.92400	2646
2.92767	2408
2.93133	2196
2.93500	2009
2.93867	1847
2.94233	1703
2.94600	1579
2.94967	1472
2.95333	1379
2.95700	1296
2.96067	1226
2.96433	1164
2.96800	1112
2.97167	1067
2.97533	1027
2.97900	993
2.98267	963
2.98633	937
2.99000	915
2.99367	893
2.99733	873
3.00100	855
3.00467	841
3.00833	827
3.01200	815
3.01567	805
3.01933	797
3.02300	791
3.02667	782
3.03033	775
3.03400	772
3.03767	772
3.04133	769
3.04500	765
3.04867	763
3.05233	759
3.05600	754
3.05967	748
3.06333	743
3.06700	739
3.07067	734
3.07433	733
3.07800	732
3.08167	729
3.08533	727
3.08900	728
3.09267	728
3.09633	727
3.10000	723
3.10367	718
3.10733	714
3.11100	711
3.11467	707
3.11833	704
3.12200	704
3.12567	703
3.12933	700
3.13300	698
3.13667	698
3.14033	695
3.14400	691
3.14767	686
3.15133	683
3.15500	680
3.15867	676
3.16233	673
3.16600	671
3.16967	669
3.17333	667
3.17700	666
3.18067	667
3.18433	666
3.18800	665
3.19167	664
3.19533	663
3.19900	660
3.20267	657
3.20633	655
3.21000	653
3.21367	650
3.21733	646
3.22100	642
3.22467	638
3.22833	635
3.23200	633
3.23567	632
3.23933	632
3.24300	629
3.24667	625
3.25033	620
3.25400	617
3.25767	617
3.26133	615
3.26500	615
3.26867	615
3.27233	613
3.27600	609
3.27967	604
3.28333	600
3.28700	598
3.29067	596
3.29433	591
3.29800	586
3.30167	583
3.30533	581
3.30900	579
3.31267	576
3.31633	572
3.32000	568
3.32367	564
3.32733	563
3.33100	562
3.33467	557
3.33833	553
3.34200	551
3.34567	551
3.34933	552
3.35300	550
3.35667	547
3.36033	543
3.36400	539
3.36767	534
3.37133	532
3.37500	530
3.37867	528
3.38233	525
3.38600	523
3.38967	521
3.39333	519
3.39700	517
3.40067	514
3.40433	508
3.40800	506
3.41167	502
3.41533	496
3.41900	492
3.42267	490
3.42633	491
3.43000	490
3.43367	486
3.43733	484
3.44100	484
3.44467	482
3.44833	479
3.45200	478
3.45567	475
3.45933	472
3.46300	469
3.46667	466
3.47033	462
3.47400	459
3.47767	459
3.48133	459
3.48500	457
3.48867	453
3.49233	450
3.49600	446
3.49967	445
3.50333	443
3.50700	439
3.51067	435
3.51433	432
3.51800	431
3.52167	429
3.52533	428
3.52900	430
3.53267	430
3.53633	425
3.54000	419
3.54367	417
3.54733	417
3.55100	417
3.55467	415
3.55833	414
3.56200	413
3.56567	413
3.56933	412
3.57300	412
3.57667	410
3.58033	407
3.58400	404
3.58767	401
3.59133	400
3.59500	399
3.59867	396
3.60233	394
3.60600	394
3.60967	393
3.61333	391
3.61700	387
3.62067	382
3.62433	378
3.62800	376
3.63167	377
3.63533	377
3.63900	376
3.64267	375
3.64633	371
3.65000	369
3.65367	368
3.65733	367
3.66100	366
3.66467	365
3.66833	365
3.67200	365
3.67567	362
3.67933	362
3.68300	362
3.68667	362
3.69033	361
3.69400	359
3.69767	357
3.70133	356
3.70500	356
3.70867	354
3.71233	352
3.71600	347
3.71967	344
3.72333	341
3.72700	338
3.73067	336
3.73433	334
3.73800	331
3.74167	328
3.74533	327
3.74900	328
3.75267	330
3.75633	329
3.76000	327
3.76367	326
3.76733	326
3.77100	324
3.77467	323
3.77833	323
3.78200	323
3.78567	320
3.78933	318
3.79300	318
3.79667	317
3.80033	317
3.80400	316
3.80767	312
3.81133	308
3.81500	306
3.81867	306
3.82233	307
3.82600	308
3.82967	307
3.83333	308
3.83700	310
3.84067	311
3.84433	310
3.84800	310
3.85167	309
3.85533	308
3.85900	306
3.86267	302
3.86633	300
3.87000	298
3.87367	298
3.87733	299
3.88100	298
3.88467	296
3.88833	292
3.89200	289
3.89567	288
3.89933	289
3.90300	287
3.90667	285
3.91033	285
3.91400	285
3.91767	284
3.92133	284
3.92500	282
3.92867	278
3.93233	274
3.93600	273
3.93967	274
3.94333	273
3.94700	272
3.95067	273
3.95433	272
3.95800	271
3.96167	271
3.96533	269
3.96900	267
3.97267	266
3.97633	264
3.98000	263
3.98367	263
3.98733	266
3.99100	268
3.99467	267
3.99833	268

[Status Trace (Column Oven Temperature)]
Interval(msec)	1000
# of Points	240
Start Time(min)	0.009
End Time(min)	3.992
Intensity Units	
Intensity Multiplier	1
R.Time (min)	Intensity
0.00903	35.08
0.02570	35.07
0.04237	35.07
0.05903	35.07
0.07570	35.07
0.09237	35.06
0.10903	35.04
0.12570	35.03
0.14237	35.02
0.15903	35.00
0.17570	34.99
0.19237	34.98
0.20903	34.97
0.22570	34.97
0.24237	34.97
0.25903	34.97
0.27570	34.96
0.29237	34.97
0.30903	34.97
0.32570	34.98
0.34237	34.99
0.35903	35.00
0.37570	35.00
0.39237	35.00
0.40903	35.00
0.42570	35.02
0.44237	35.02
0.45903	35.02
0.47570	35.00
0.49237	34.99
0.50903	34.97
0.52570	34.97
0.54237	34.97
0.55903	34.96
0.57570	34.95
0.59237	34.95
0.60903	34.96
0.62570	34.96
0.64237	34.98
0.65903	34.97
0.67570	34.97
0.69237	34.97
0.70903	34.98
0.72570	34.98
0.74237	34.98
0.75903	34.98
0.77570	34.98
0.79237	34.99
0.80903	34.99
0.82570	34.99
0.84237	34.99
0.85903	34.98
0.87570	34.99
0.89237	34.98
0.90903	34.98
0.92570	34.98
0.94237	34.98
0.95903	34.98
0.97570	34.97
0.99237	34.97
1.00903	34.97
1.02570	34.98
1.04237	34.98
1.05903	34.98
1.07570	34.98
1.09237	34.99
1.10903	34.99
1.12570	35.00
1.14237	35.01
1.15903	35.03
1.17570	35.04
1.19237	35.04
1.20903	35.04
1.22570	35.02
1.24237	35.01
1.25903	35.00
1.27570	34.99
1.29237	34.98
1.30903	34.98
1.32570	34.97
1.34237	34.97
1.35903	34.97
1.37570	34.96
1.39237	34.97
1.40903	34.97
1.42570	34.97
1.44237	34.97
1.45903	34.97
1.47570	34.98
1.49237	34.99
1.50903	34.99
1.52570	34.99
1.54237	34.99
1.55903	35.00
1.57570	35.00
1.59237	35.01
1.60903	35.07
1.62570	35.20
1.64237	35.40
1.65903	35.65
1.67570	35.99
1.69237	36.36
1.70903	36.71
1.72570	37.04
1.74237	37.39
1.75903	37.71
1.77570	38.03
1.79237	38.38
1.80903	38.71
1.82570	39.06
1.84237	39.37
1.85903	39.70
1.87570	40.03
1.89237	40.35
1.90903	40.69
1.92570	41.02
1.94237	41.34
1.95903	41.67
1.97570	42.00
1.99237	42.31
2.00903	42.64
2.02570	42.97
2.04237	43.28
2.05903	43.61
2.07570	43.92
2.09237	44.26
2.10903	44.58
2.12570	44.92
2.14237	45.25
2.15903	45.57
2.17570	45.90
2.19237	46.23
2.20903	46.55
2.22570	46.88
2.24237	47.20
2.25903	47.55
2.27570	47.88
2.29237	48.20
2.30903	48.53
2.32570	48.85
2.34237	49.18
2.35903	49.48
2.37570	49.66
2.39237	49.71
2.40903	49.70
2.42570	49.72
2.44237	49.71
2.45903	49.72
2.47570	49.73
2.49237	49.74
2.50903	49.77
2.52570	49.77
2.54237	49.78
2.55903	49.79
2.57570	49.82
2.59237	49.83
2.60903	49.83
2.62570	49.83
2.64237	49.83
2.65903	49.85
2.67570	49.85
2.69237	49.85
2.70903	49.86
2.72570	49.84
2.74237	49.86
2.75903	49.89
2.77570	49.88
2.79237	49.87
2.80903	49.87
2.82570	49.89
2.84237	49.90
2.85903	49.91
2.87570	49.93
2.89237	49.93
2.90903	49.93
2.92570	49.94
2.94237	49.95
2.95903	49.96
2.97570	49.96
2.99237	49.97
3.00903	49.99
3.02570	50.00
3.04237	50.01
3.05903	50.01
3.07570	50.02
3.09237	50.03
3.10903	50.03
3.12570	50.04
3.14237	50.05
3.15903	50.05
3.17570	50.07
3.19237	50.07
3.20903	50.08
3.22570	50.10
3.24237	50.10
3.25903	50.10
3.27570	50.10
3.29237	50.10
3.30903	50.09
3.32570	50.08
3.34237	50.08
3.35903	50.07
3.37570	50.05
3.39237	50.04
3.40903	50.04
3.42570	50.04
3.44237	50.05
3.45903	50.05
3.47570	50.04
3.49237	50.04
3.50903	50.04
3.52570	50.03
3.54237	50.03
3.55903	50.03
3.57570	50.03
3.59237	50.04
3.60903	50.04
3.62570	50.04
3.64237	50.04
3.65903	50.05
3.67570	50.05
3.69237	50.04
3.70903	50.06
3.72570	50.05
3.74237	50.05
3.75903	50.05
3.77570	50.05
3.79237	50.06
3.80903	50.05
3.82570	50.07
3.84237	50.08
3.85903	50.07
3.87570	50.07
3.89237	50.06
3.90903	50.06
3.92570	50.07
3.94237	50.08
3.95903	50.10
3.97570	50.11
3.99237	50.11

[Status Trace (Injection Unit Temperature)]
Interval(msec)	1000
# of Points	240
Start Time(min)	0.009
End Time(min)	3.992
Intensity Units	
Intensity Multiplier	1
R.Time (min)	Intensity
0.00903	99.98
0.02570	99.98
0.04237	99.98
0.05903	99.99
0.07570	99.98
0.09237	99.98
0.10903	99.98
0.12570	99.97
0.14237	99.98
0.15903	99.98
0.17570	99.98
0.19237	99.98
0.20903	99.98
0.22570	99.98
0.24237	99.98
0.25903	99.98
0.27570	99.99
0.29237	99.99
0.30903	99.98
0.32570	99.99
0.34237	99.98
0.35903	99.98
0.37570	99.98
0.39237	99.98
0.40903	99.98
0.42570	99.98
0.44237	99.98
0.45903	99.98
0.47570	99.98
0.49237	99.98
0.50903	99.99
0.52570	99.98
0.54237	99.98
0.55903	99.98
0.57570	99.98
0.59237	99.98
0.60903	99.98
0.62570	99.98
0.64237	99.98
0.65903	99.98
0.67570	99.98
0.69237	99.99
0.70903	99.99
0.72570	99.99
0.74237	99.98
0.75903	99.99
0.77570	99.99
0.79237	99.98
0.80903	99.99
0.82570	99.98
0.84237	99.99
0.85903	99.98
0.87570	99.99
0.89237	99.99
0.90903	99.98
0.92570	99.99
0.94237	99.98
0.95903	99.99
0.97570	99.98
0.99237	99.99
1.00903	99.99
1.02570	99.99
1.04237	99.99
1.05903	99.99
1.07570	99.99
1.09237	99.98
1.10903	99.99
1.12570	99.99
1.14237	99.99
1.15903	99.99
1.17570	99.99
1.19237	99.98
1.20903	99.99
1.22570	99.99
1.24237	99.99
1.25903	99.99
1.27570	99.99
1.29237	99.99
1.30903	99.99
1.32570	99.99
1.34237	99.99
1.35903	99.99
1.37570	99.99
1.39237	99.98
1.40903	99.99
1.42570	99.99
1.44237	99.99
1.45903	99.99
1.47570	99.99
1.49237	99.99
1.50903	99.99
1.52570	100.00
1.54237	99.99
1.55903	100.00
1.57570	99.99
1.59237	99.99
1.60903	100.00
1.62570	99.99
1.64237	100.00
1.65903	99.99
1.67570	99.99
1.69237	99.99
1.70903	100.00
1.72570	99.99
1.74237	100.00
1.75903	100.00
1.77570	99.99
1.79237	99.99
1.80903	99.99
1.82570	99.99
1.84237	99.99
1.85903	99.99
1.87570	99.99
1.89237	99.99
1.90903	99.99
1.92570	99.99
1.94237	99.99
1.95903	99.98
1.97570	99.99
1.99237	99.99
2.00903	99.99
2.02570	99.98
2.04237	99.99
2.05903	99.99
2.07570	99.98
2.09237	99.98
2.10903	99.98
2.12570	99.98
2.14237	99.98
2.15903	99.98
2.17570	99.98
2.19237	99.98
2.20903	99.98
2.22570	99.98
2.24237	99.98
2.25903	99.98
2.27570	99.98
2.29237	99.98
2.30903	99.97
2.32570	99.98
2.34237	99.97
2.35903	99.98
2.37570	99.98
2.39237	99.98
2.40903	99.98
2.42570	99.98
2.44237	99.97
2.45903	99.98
2.47570	99.98
2.49237	99.98
2.50903	99.98
2.52570	99.98
2.54237	99.98
2.55903	99.98
2.57570	99.98
2.59237	99.98
2.60903	99.98
2.62570	99.98
2.64237	99.98
2.65903	99.98
2.67570	99.98
2.69237	99.99
2.70903	99.99
2.72570	99.98
2.74237	99.99
2.75903	99.98
2.77570	99.98
2.79237	99.99
2.80903	100.00
2.82570	99.99
2.84237	99.99
2.85903	99.99
2.87570	100.00
2.89237	100.00
2.90903	100.00
2.92570	100.00
2.94237	100.01
2.95903	100.00
2.97570	100.00
2.99237	100.00
3.00903	100.01
3.02570	100.01
3.04237	100.00
3.05903	100.01
3.07570	100.01
3.09237	100.01
3.10903	100.01
3.12570	100.02
3.14237	100.02
3.15903	100.02
3.17570	100.01
3.19237	100.02
3.20903	100.02
3.22570	100.02
3.24237	100.02
3.25903	100.02
3.27570	100.03
3.29237	100.03
3.30903	100.03
3.32570	100.03
3.34237	100.02
3.35903	100.02
3.37570	100.03
3.39237	100.03
3.40903	100.03
3.42570	100.03
3.44237	100.03
3.45903	100.03
3.47570	100.03
3.49237	100.03
3.50903	100.04
3.52570	100.03
3.54237	100.04
3.55903	100.04
3.57570	100.03
3.59237	100.04
3.60903	100.04
3.62570	100.04
3.64237	100.04
3.65903	100.03
3.67570	100.04
3.69237	100.04
3.70903	100.04
3.72570	100.05
3.74237	100.04
3.75903	100.04
3.77570	100.05
3.79237	100.05
3.80903	100.05
3.82570	100.05
3.84237	100.05
3.85903	100.05
3.87570	100.05
3.89237	100.05
3.90903	100.05
3.92570	100.05
3.94237	100.05
3.95903	100.05
3.97570	100.05
3.99237	100.05

[Status Trace (Carrier Gas Pressure)]
Interval(msec)	1000
# of Points	240
Start Time(min)	0.009
End Time(min)	3.992
Intensity Units	
Intensity Multiplier	1
R.Time (min)	Intensity
0.00903	58.00
0.02570	55.23
0.04237	57.28
0.05903	59.30
0.07570	59.36
0.09237	58.04
0.10903	57.98
0.12570	58.01
0.14237	58.01
0.15903	58.01
0.17570	58.00
0.19237	58.00
0.20903	58.00
0.22570	58.00
0.24237	58.00
0.25903	58.00
0.27570	58.00
0.29237	58.00
0.30903	58.00
0.32570	58.00
0.34237	58.00
0.35903	58.00
0.37570	58.00
0.39237	58.00
0.40903	58.00
0.42570	58.00
0.44237	58.00
0.45903	58.00
0.47570	58.00
0.49237	58.00
0.50903	58.00
0.52570	58.00
0.54237	58.00
0.55903	58.00
0.57570	58.00
0.59237	58.00
0.60903	58.00
0.62570	58.00
0.64237	58.00
0.65903	58.00
0.67570	58.00
0.69237	58.00
0.70903	58.00
0.72570	58.00
0.74237	58.00
0.75903	58.00
0.77570	58.00
0.79237	58.00
0.80903	58.00
0.82570	58.00
0.84237	58.00
0.85903	58.00
0.87570	58.00
0.89237	58.00
0.90903	58.00
0.92570	58.00
0.94237	58.00
0.95903	58.00
0.97570	58.00
0.99237	58.00
1.00903	58.00
1.02570	58.00
1.04237	58.00
1.05903	58.00
1.07570	58.00
1.09237	58.00
1.10903	58.00
1.12570	58.00
1.14237	58.00
1.15903	58.00
1.17570	58.00
1.19237	58.00
1.20903	58.00
1.22570	58.00
1.24237	58.00
1.25903	58.00
1.27570	58.00
1.29237	58.00
1.30903	58.00
1.32570	58.00
1.34237	58.00
1.35903	58.00
1.37570	58.00
1.39237	58.00
1.40903	58.00
1.42570	58.00
1.44237	58.00
1.45903	58.00
1.47570	58.00
1.49237	58.00
1.50903	58.00
1.52570	58.00
1.54237	58.00
1.55903	58.00
1.57570	58.00
1.59237	58.00
1.60903	58.00
1.62570	58.00
1.64237	58.00
1.65903	58.00
1.67570	58.01
1.69237	58.00
1.70903	58.00
1.72570	58.00
1.74237	58.00
1.75903	58.00
1.77570	58.00
1.79237	58.00
1.80903	58.00
1.82570	58.00
1.84237	58.00
1.85903	58.00
1.87570	58.00
1.89237	58.00
1.90903	58.00
1.92570	58.00
1.94237	58.00
1.95903	58.00
1.97570	58.00
1.99237	58.00
2.00903	58.00
2.02570	58.00
2.04237	58.00
2.05903	58.00
2.07570	58.00
2.09237	58.00
2.10903	58.00
2.12570	58.00
2.14237	58.00
2.15903	58.00
2.17570	58.00
2.19237	58.00
2.20903	58.00
2.22570	58.00
2.24237	58.00
2.25903	58.00
2.27570	58.00
2.29237	58.00
2.30903	58.00
2.32570	58.00
2.34237	58.00
2.35903	58.00
2.37570	57.99
2.39237	57.99
2.40903	57.99
2.42570	58.00
2.44237	58.00
2.45903	58.00
2.47570	58.00
2.49237	58.00
2.50903	58.00
2.52570	57.98
2.54237	58.00
2.55903	58.00
2.57570	58.00
2.59237	58.00
2.60903	58.00
2.62570	58.00
2.64237	58.00
2.65903	58.00
2.67570	58.00
2.69237	58.00
2.70903	58.00
2.72570	58.00
2.74237	58.00
2.75903	58.00
2.77570	58.00
2.79237	58.00
2.80903	58.00
2.82570	58.00
2.84237	58.00
2.85903	58.00
2.87570	58.00
2.89237	58.00
2.90903	58.00
2.92570	58.00
2.94237	58.00
2.95903	58.00
2.97570	58.00
2.99237	58.00
3.00903	58.00
3.02570	58.00
3.04237	58.00
3.05903	58.00
3.07570	58.00
3.09237	58.00
3.10903	58.00
3.12570	58.00
3.14237	58.00
3.15903	58.00
3.17570	58.00
3.19237	58.00
3.20903	58.00
3.22570	58.00
3.24237	58.00
3.25903	58.00
3.27570	58.00
3.29237	58.00
3.30903	58.00
3.32570	58.00
3.34237	58.00
3.35903	58.00
3.37570	58.00
3.39237	58.00
3.40903	58.00
3.42570	58.00
3.44237	58.00
3.45903	58.00
3.47570	58.00
3.49237	58.00
3.50903	58.00
3.52570	58.00
3.54237	58.00
3.55903	58.00
3.57570	58.00
3.59237	58.00
3.60903	58.00
3.62570	58.00
3.64237	58.00
3.65903	58.00
3.67570	58.00
3.69237	58.00
3.70903	58.00
3.72570	58.00
3.74237	58.00
3.75903	58.00
3.77570	58.00
3.79237	58.00
3.80903	58.00
3.82570	58.00
3.84237	58.00
3.85903	58.00
3.87570	58.00
3.89237	58.00
3.90903	58.00
3.92570	58.00
3.94237	58.00
3.95903	58.00
3.97570	58.00
3.99237	58.00

[Status Trace (Carrier Gas Flow)]
Interval(msec)	1000
# of Points	240
Start Time(min)	0.009
End Time(min)	3.992
Intensity Units	
Intensity Multiplier	1
R.Time (min)	Intensity
0.00903	34.52
0.02570	34.54
0.04237	34.53
0.05903	34.55
0.07570	34.49
0.09237	34.50
0.10903	34.52
0.12570	34.52
0.14237	34.52
0.15903	34.51
0.17570	34.53
0.19237	34.52
0.20903	34.52
0.22570	34.52
0.24237	34.52
0.25903	34.52
0.27570	34.52
0.29237	34.52
0.30903	34.52
0.32570	34.52
0.34237	34.52
0.35903	34.52
0.37570	34.52
0.39237	34.52
0.40903	34.52
0.42570	34.52
0.44237	34.52
0.45903	34.52
0.47570	34.52
0.49237	34.52
0.50903	34.52
0.52570	34.52
0.54237	34.52
0.55903	34.52
0.57570	34.52
0.59237	34.52
0.60903	34.52
0.62570	34.52
0.64237	34.52
0.65903	34.52
0.67570	34.52
0.69237	34.52
0.70903	34.52
0.72570	34.52
0.74237	34.52
0.75903	34.52
0.77570	34.52
0.79237	34.52
0.80903	34.52
0.82570	34.52
0.84237	34.52
0.85903	34.52
0.87570	34.52
0.89237	34.52
0.90903	34.52
0.92570	34.52
0.94237	34.52
0.95903	34.52
0.97570	34.52
0.99237	34.52
1.00903	34.52
1.02570	34.52
1.04237	34.52
1.05903	34.52
1.07570	34.52
1.09237	34.52
1.10903	34.52
1.12570	34.52
1.14237	34.52
1.15903	34.52
1.17570	34.52
1.19237	34.52
1.20903	34.52
1.22570	34.52
1.24237	34.52
1.25903	34.52
1.27570	34.52
1.29237	34.52
1.30903	34.52
1.32570	34.52
1.34237	34.52
1.35903	34.52
1.37570	34.52
1.39237	34.52
1.40903	34.52
1.42570	34.52
1.44237	34.52
1.45903	34.52
1.47570	34.52
1.49237	34.52
1.50903	34.52
1.52570	34.52
1.54237	34.52
1.55903	34.52
1.57570	34.52
1.59237	34.52
1.60903	34.52
1.62570	34.52
1.64237	34.52
1.65903	34.52
1.67570	34.52
1.69237	34.52
1.70903	34.52
1.72570	34.52
1.74237	34.52
1.75903	34.52
1.77570	34.52
1.79237	34.52
1.80903	34.52
1.82570	34.52
1.84237	34.52
1.85903	34.52
1.87570	34.52
1.89237	34.52
1.90903	34.52
1.92570	34.52
1.94237	34.52
1.95903	34.52
1.97570	34.52
1.99237	34.52
2.00903	34.52
2.02570	34.52
2.04237	34.52
2.05903	34.52
2.07570	34.52
2.09237	34.52
2.10903	34.52
2.12570	34.52
2.14237	34.52
2.15903	34.52
2.17570	34.52
2.19237	34.52
2.20903	34.52
2.22570	34.52
2.24237	34.52
2.25903	34.52
2.27570	34.52
2.29237	34.52
2.30903	34.52
2.32570	34.52
2.34237	34.52
2.35903	34.52
2.37570	34.52
2.39237	34.52
2.40903	34.52
2.42570	34.51
2.44237	34.53
2.45903	34.51
2.47570	34.52
2.49237	34.52
2.50903	34.47
2.52570	34.52
2.54237	34.52
2.55903	34.52
2.57570	34.52
2.59237	34.52
2.60903	34.52
2.62570	34.52
2.64237	34.52
2.65903	34.52
2.67570	34.52
2.69237	34.52
2.70903	34.52
2.72570	34.52
2.74237	34.52
2.75903	34.52
2.77570	34.52
2.79237	34.52
2.80903	34.52
2.82570	34.52
2.84237	34.52
2.85903	34.52
2.87570	34.52
2.89237	34.52
2.90903	34.52
2.92570	34.52
2.94237	34.52
2.95903	34.52
2.97570	34.52
2.99237	34.52
3.00903	34.52
3.02570	34.52
3.04237	34.52
3.05903	34.52
3.07570	34.52
3.09237	34.52
3.10903	34.51
3.12570	34.53
3.14237	34.52
3.15903	34.52
3.17570	34.52
3.19237	34.52
3.20903	34.51
3.22570	34.53
3.24237	34.52
3.25903	34.52
3.27570	34.52
3.29237	34.52
3.30903	34.52
3.32570	34.52
3.34237	34.52
3.35903	34.52
3.37570	34.52
3.39237	34.52
3.40903	34.52
3.42570	34.52
3.44237	34.51
3.45903	34.51
3.47570	34.52
3.49237	34.51
3.50903	34.52
3.52570	34.52
3.54237	34.52
3.55903	34.52
3.57570	34.52
3.59237	34.52
3.60903	34.52
3.62570	34.52
3.64237	34.52
3.65903	34.52
3.67570	34.52
3.69237	34.52
3.70903	34.52
3.72570	34.52
3.74237	34.52
3.75903	34.52
3.77570	34.52
3.79237	34.52
3.80903	34.52
3.82570	34.52
3.84237	34.52
3.85903	34.52
3.87570	34.52
3.89237	34.52
3.90903	34.51
3.92570	34.53
3.94237	34.52
3.95903	34.52
3.97570	34.52
3.99237	34.52

[Status Trace (Column Flow)]
Interval(msec)	1000
# of Points	240
Start Time(min)	0.009
End Time(min)	3.992
Intensity Units	
Intensity Multiplier	1
R.Time (min)	Intensity
0.00903	5.45
0.02570	5.13
0.04237	5.37
0.05903	5.60
0.07570	5.61
0.09237	5.46
0.10903	5.45
0.12570	5.45
0.14237	5.45
0.15903	5.45
0.17570	5.45
0.19237	5.45
0.20903	5.45
0.22570	5.45
0.24237	5.45
0.25903	5.45
0.27570	5.45
0.29237	5.45
0.30903	5.45
0.32570	5.45
0.34237	5.45
0.35903	5.45
0.37570	5.45
0.39237	5.45
0.40903	5.45
0.42570	5.45
0.44237	5.45
0.45903	5.45
0.47570	5.45
0.49237	5.45
0.50903	5.45
0.52570	5.45
0.54237	5.45
0.55903	5.45
0.57570	5.46
0.59237	5.45
0.60903	5.45
0.62570	5.45
0.64237	5.45
0.65903	5.45
0.67570	5.45
0.69237	5.45
0.70903	5.45
0.72570	5.45
0.74237	5.45
0.75903	5.45
0.77570	5.45
0.79237	5.45
0.80903	5.45
0.82570	5.45
0.84237	5.45
0.85903	5.45
0.87570	5.45
0.89237	5.45
0.90903	5.45
0.92570	5.45
0.94237	5.45
0.95903	5.45
0.97570	5.45
0.99237	5.45
1.00903	5.45
1.02570	5.45
1.04237	5.45
1.05903	5.45
1.07570	5.45
1.09237	5.45
1.10903	5.45
1.12570	5.45
1.14237	5.45
1.15903	5.45
1.17570	5.45
1.19237	5.45
1.20903	5.45
1.22570	5.45
1.24237	5.45
1.25903	5.45
1.27570	5.45
1.29237	5.45
1.30903	5.45
1.32570	5.45
1.34237	5.45
1.35903	5.45
1.37570	5.45
1.39237	5.45
1.40903	5.45
1.42570	5.45
1.44237	5.45
1.45903	5.45
1.47570	5.45
1.49237	5.45
1.50903	5.45
1.52570	5.45
1.54237	5.45
1.55903	5.45
1.57570	5.45
1.59237	5.45
1.60903	5.45
1.62570	5.45
1.64237	5.44
1.65903	5.43
1.67570	5.42
1.69237	5.41
1.70903	5.40
1.72570	5.39
1.74237	5.38
1.75903	5.37
1.77570	5.36
1.79237	5.35
1.80903	5.34
1.82570	5.33
1.84237	5.32
1.85903	5.31
1.87570	5.30
1.89237	5.29
1.90903	5.28
1.92570	5.27
1.94237	5.26
1.95903	5.25
1.97570	5.24
1.99237	5.23
2.00903	5.22
2.02570	5.21
2.04237	5.20
2.05903	5.20
2.07570	5.19
2.09237	5.18
2.10903	5.17
2.12570	5.16
2.14237	5.15
2.15903	5.14
2.17570	5.13
2.19237	5.12
2.20903	5.11
2.22570	5.10
2.24237	5.09
2.25903	5.08
2.27570	5.07
2.29237	5.06
2.30903	5.06
2.32570	5.05
2.34237	5.04
2.35903	5.03
2.37570	5.02
2.39237	5.02
2.40903	5.02
2.42570	5.02
2.44237	5.02
2.45903	5.02
2.47570	5.02
2.49237	5.02
2.50903	5.02
2.52570	5.02
2.54237	5.02
2.55903	5.02
2.57570	5.02
2.59237	5.02
2.60903	5.02
2.62570	5.02
2.64237	5.02
2.65903	5.02
2.67570	5.02
2.69237	5.02
2.70903	5.02
2.72570	5.02
2.74237	5.02
2.75903	5.02
2.77570	5.02
2.79237	5.02
2.80903	5.02
2.82570	5.02
2.84237	5.02
2.85903	5.02
2.87570	5.02
2.89237	5.02
2.90903	5.02
2.92570	5.02
2.94237	5.02
2.95903	5.02
2.97570	5.02
2.99237	5.02
3.00903	5.02
3.02570	5.02
3.04237	5.01
3.05903	5.01
3.07570	5.01
3.09237	5.01
3.10903	5.01
3.12570	5.01
3.14237	5.01
3.15903	5.01
3.17570	5.01
3.19237	5.01
3.20903	5.01
3.22570	5.01
3.24237	5.01
3.25903	5.01
3.27570	5.01
3.29237	5.01
3.30903	5.01
3.32570	5.01
3.34237	5.01
3.35903	5.01
3.37570	5.01
3.39237	5.01
3.40903	5.01
3.42570	5.01
3.44237	5.01
3.45903	5.01
3.47570	5.01
3.49237	5.01
3.50903	5.01
3.52570	5.01
3.54237	5.01
3.55903	5.01
3.57570	5.01
3.59237	5.01
3.60903	5.01
3.62570	5.01
3.64237	5.01
3.65903	5.01
3.67570	5.01
3.69237	5.01
3.70903	5.01
3.72570	5.01
3.74237	5.01
3.75903	5.01
3.77570	5.01
3.79237	5.01
3.80903	5.01
3.82570	5.01
3.84237	5.01
3.85903	5.01
3.87570	5.01
3.89237	5.01
3.90903	5.01
3.92570	5.01
3.94237	5.01
3.95903	5.01
3.97570	5.01
3.99237	5.01

[Status Trace (Linear Velocity)]
Interval(msec)	1000
# of Points	240
Start Time(min)	0.009
End Time(min)	3.992
Intensity Units	
Intensity Multiplier	1
R.Time (min)	Intensity
0.00903	38.99
0.02570	37.18
0.04237	38.52
0.05903	39.85
0.07570	39.89
0.09237	39.02
0.10903	38.98
0.12570	39.00
0.14237	39.01
0.15903	39.00
0.17570	39.00
0.19237	39.00
0.20903	39.00
0.22570	39.01
0.24237	39.00
0.25903	39.00
0.27570	39.00
0.29237	39.00
0.30903	39.00
0.32570	39.00
0.34237	39.00
0.35903	39.00
0.37570	39.00
0.39237	39.00
0.40903	39.00
0.42570	39.00
0.44237	39.00
0.45903	39.00
0.47570	39.00
0.49237	39.00
0.50903	39.00
0.52570	39.00
0.54237	39.00
0.55903	39.00
0.57570	39.01
0.59237	39.01
0.60903	39.00
0.62570	39.00
0.64237	39.00
0.65903	39.00
0.67570	39.00
0.69237	39.00
0.70903	39.00
0.72570	39.00
0.74237	39.00
0.75903	39.00
0.77570	39.00
0.79237	39.00
0.80903	39.00
0.82570	39.00
0.84237	39.00
0.85903	39.00
0.87570	39.00
0.89237	39.00
0.90903	39.00
0.92570	39.00
0.94237	39.00
0.95903	39.00
0.97570	39.00
0.99237	39.00
1.00903	39.00
1.02570	39.00
1.04237	39.00
1.05903	39.00
1.07570	39.00
1.09237	39.00
1.10903	39.00
1.12570	39.00
1.14237	39.00
1.15903	39.00
1.17570	39.00
1.19237	39.00
1.20903	39.00
1.22570	39.00
1.24237	39.00
1.25903	39.00
1.27570	39.00
1.29237	39.00
1.30903	39.00
1.32570	39.00
1.34237	39.00
1.35903	39.00
1.37570	39.00
1.39237	39.00
1.40903	39.00
1.42570	39.00
1.44237	39.00
1.45903	39.00
1.47570	39.00
1.49237	39.00
1.50903	39.00
1.52570	39.00
1.54237	39.00
1.55903	39.00
1.57570	39.00
1.59237	39.00
1.60903	39.00
1.62570	38.99
1.64237	38.97
1.65903	38.94
1.67570	38.91
1.69237	38.87
1.70903	38.84
1.72570	38.81
1.74237	38.77
1.75903	38.74
1.77570	38.71
1.79237	38.68
1.80903	38.65
1.82570	38.62
1.84237	38.58
1.85903	38.56
1.87570	38.53
1.89237	38.49
1.90903	38.47
1.92570	38.43
1.94237	38.40
1.95903	38.37
1.97570	38.34
1.99237	38.31
2.00903	38.28
2.02570	38.25
2.04237	38.22
2.05903	38.19
2.07570	38.17
2.09237	38.13
2.10903	38.11
2.12570	38.08
2.14237	38.04
2.15903	38.02
2.17570	37.99
2.19237	37.95
2.20903	37.93
2.22570	37.90
2.24237	37.87
2.25903	37.84
2.27570	37.81
2.29237	37.78
2.30903	37.75
2.32570	37.72
2.34237	37.69
2.35903	37.66
2.37570	37.65
2.39237	37.64
2.40903	37.64
2.42570	37.64
2.44237	37.64
2.45903	37.64
2.47570	37.64
2.49237	37.64
2.50903	37.64
2.52570	37.63
2.54237	37.64
2.55903	37.64
2.57570	37.63
2.59237	37.63
2.60903	37.63
2.62570	37.63
2.64237	37.63
2.65903	37.63
2.67570	37.63
2.69237	37.63
2.70903	37.63
2.72570	37.63
2.74237	37.63
2.75903	37.63
2.77570	37.63
2.79237	37.63
2.80903	37.63
2.82570	37.63
2.84237	37.63
2.85903	37.62
2.87570	37.62
2.89237	37.62
2.90903	37.62
2.92570	37.62
2.94237	37.62
2.95903	37.62
2.97570	37.62
2.99237	37.62
3.00903	37.62
3.02570	37.62
3.04237	37.62
3.05903	37.62
3.07570	37.62
3.09237	37.61
3.10903	37.61
3.12570	37.61
3.14237	37.61
3.15903	37.61
3.17570	37.61
3.19237	37.61
3.20903	37.61
3.22570	37.61
3.24237	37.61
3.25903	37.61
3.27570	37.61
3.29237	37.61
3.30903	37.61
3.32570	37.61
3.34237	37.61
3.35903	37.61
3.37570	37.61
3.39237	37.61
3.40903	37.61
3.42570	37.61
3.44237	37.61
3.45903	37.61
3.47570	37.61
3.49237	37.61
3.50903	37.61
3.52570	37.61
3.54237	37.61
3.55903	37.61
3.57570	37.61
3.59237	37.61
3.60903	37.61
3.62570	37.61
3.64237	37.61
3.65903	37.61
3.67570	37.61
3.69237	37.61
3.70903	37.61
3.72570	37.61
3.74237	37.61
3.75903	37.61
3.77570	37.61
3.79237	37.61
3.80903	37.61
3.82570	37.61
3.84237	37.61
3.85903	37.61
3.87570	37.61
3.89237	37.61
3.90903	37.61
3.92570	37.61
3.94237	37.61
3.95903	37.61
3.97570	37.61
3.99237	37.61

