[Header]
Application Name	LabSolutions
Version	5.110
Data File Name	C:\Users\User\Desktop\GC Analyses\Jack\UIC Prairie Sampling\9.2.22\220902_071.gcd
Output Date	10/28/2022
Output Time	1:23:56 PM

[File Information]
Type	Data File
Generated	10/27/2022 12:20:34 PM
Generated by	System Administrator
Modified	10/27/2022 12:24:56 PM
Modified by	System Administrator

[Sample Information]
Operator Name	System Administrator
Acquired	10/27/2022 12:20:55 PM
Sample Type	1:Standard
Level	1
Sample Name	220902_UICPrairie
Sample ID	220902_UICPrairie
ISTD Amount1	1
ISTD Amount2	1
ISTD Amount3	1
ISTD Amount4	1
ISTD Amount5	1
ISTD Amount6	1
ISTD Amount7	1
ISTD Amount8	1
ISTD Amount9	1
ISTD Amount10	1
ISTD Amount11	1
ISTD Amount12	1
ISTD Amount13	1
ISTD Amount14	1
ISTD Amount15	1
ISTD Amount16	1
ISTD Amount17	1
ISTD Amount18	1
ISTD Amount19	1
ISTD Amount20	1
ISTD Amount21	1
ISTD Amount22	1
ISTD Amount23	1
ISTD Amount24	1
ISTD Amount25	1
ISTD Amount26	1
ISTD Amount27	1
ISTD Amount28	1
ISTD Amount29	1
ISTD Amount30	1
ISTD Amount31	1
ISTD Amount32	1
Sample Amount	1
Dilution Factor	1
Vial#	1
Injection Volume	1
Injection Count	1
Bar Code	

[Original Files]
Data File	C:\Users\User\Desktop\GC Analyses\Jack\UIC Prairie Sampling\9.2.22\220902_071.gcd
Method File	C:\LabSolutions\Data\GHG_4min_2022\ghg3_togas_w_acet_4 min_new_int.gcm
Batch File	
Report Format File	c:\LabSolutions\System\DEFAULT.lsr

[File Description]


[Configuration]
Instrument Name	C0B7VH3-Instrument1
Instrument #	1
Line #	1
# of Detectors	3
Detector ID	DET#1	DET#2	DET#3
Detector Name	FID	PTCD	ECD
# of Channels	1	1	1

[Peak Table(Ch1)]
# of Peaks	3
Peak#	R.Time	I.Time	F.Time	Area	Height	A/H	Conc.	Mark	ID#	Name	k'	Plate #	Plate Ht.	Tailing	Resolution	Sep.Factor	Area Ratio	Height Ratio	Conc. %	Norm Conc.
1	1.483	1.446	1.534	2041	1118	1.825	100.000	   	1	CO	0.000	11383	13.178	1.351	0.000	0.000	0	0	16.667	16.667
2	1.578	1.556	1.619	1512	1060	1.427	100.000	   	2	CH4	0.064	21210	7.072	1.344	1.927	0.000	0	0	16.667	16.667
3	2.007	1.956	2.165	253725	152541	1.663	400.000	   	3	CO2	0.354	26597	5.640	1.292	9.267	5.500	0	0	66.667	66.667

[Peak Table(Ch2)]
# of Peaks	0

[Peak Table(Ch3)]
# of Peaks	4
Peak#	R.Time	I.Time	F.Time	Area	Height	A/H	Conc.	Mark	ID#	Name	k'	Plate #	Plate Ht.	Tailing	Resolution	Sep.Factor	Area Ratio	Height Ratio	Conc. %	Norm Conc.
1	2.458	2.330	2.594	1197	171	7.002	0.000	   			0.000	5431	27.620	0.000	0.000	0.000	0	0	0.000	0.000
2	2.616	2.594	2.653	214	82	2.614	0.000	 V 			0.064	3274	45.810	0.000	0.997	0.000	0	0	0.000	0.000
3	2.891	2.836	3.056	6398	1888	3.389	1.000	   	1	N2O	0.176	16279	9.214	1.600	2.011	2.744	0	0	50.000	50.000
4	3.474	3.342	3.965	9516	470	20.264	1.000	   	2	SF6	0.413	577	259.802	2.327	1.743	2.347	0	0	50.000	50.000

[Compound Results(Ch1)]
# of IDs	6
ID#	Name	R.Time	Area	Height	Conc.	Curve	3rd	2nd	1st	Constant	Area Ratio	Height Ratio	Conc. %	Norm Conc.
1	CO	1.483	2041	1118	100.000	Linear	0.000000e+00	0.000000e+00	2.040817e+001	0.000000e+00	0	0	16.667	16.667
2	CH4	1.578	1512	1060	100.000	Linear	0.000000e+00	0.000000e+00	1.512337e+001	0.000000e+00	0	0	16.667	16.667
3	CO2	2.007	253725	152541	400.000	Linear	0.000000e+00	0.000000e+00	6.343115e+002	0.000000e+00	0	0	66.667	66.667
4	Ethylene	0.000	0	0	0.000	Linear	0.000000e+00	0.000000e+00	0.000000e+00	0.000000e+00	0	0	0.000	0.000
5	Acetylene	0.000	0	0	0.000	Linear	0.000000e+00	0.000000e+00	0.000000e+00	0.000000e+00	0	0	0.000	0.000
6	Ethane	0.000	0	0	0.000	Linear	0.000000e+00	0.000000e+00	0.000000e+00	0.000000e+00	0	0	0.000	0.000

[Compound Results(Ch2)]
# of IDs	5
ID#	Name	R.Time	Area	Height	Conc.	Curve	3rd	2nd	1st	Constant	Area Ratio	Height Ratio	Conc. %	Norm Conc.
1	Hydrogen	0.000	0	0	0.000	Linear	0.000000e+00	0.000000e+00	0.000000e+00	0.000000e+00	0	0	0.000	0.000
2	Oxygen	0.000	0	0	0.000	Linear	0.000000e+00	0.000000e+00	0.000000e+00	0.000000e+00	0	0	0.000	0.000
3	Nitrogen	0.000	0	0	0.000	Linear	0.000000e+00	0.000000e+00	0.000000e+00	0.000000e+00	0	0	0.000	0.000
4	Methane	0.000	0	0	0.000	Linear	0.000000e+00	0.000000e+00	0.000000e+00	0.000000e+00	0	0	0.000	0.000
5	Carbon Monoxide	0.000	0	0	0.000	Linear	0.000000e+00	0.000000e+00	0.000000e+00	0.000000e+00	0	0	0.000	0.000

[Compound Results(Ch3)]
# of IDs	2
ID#	Name	R.Time	Area	Height	Conc.	Curve	3rd	2nd	1st	Constant	Area Ratio	Height Ratio	Conc. %	Norm Conc.
1	N2O	2.891	6398	1888	1.000	Linear	0.000000e+00	0.000000e+00	6.397851e+003	0.000000e+00	0	0	50.000	50.000
2	SF6	3.474	9516	470	1.000	Linear	0.000000e+00	0.000000e+00	9.516467e+003	0.000000e+00	0	0	50.000	50.000

[Group Results(Ch1)]
# of Groups	0

[Group Results(Ch2)]
# of Groups	0

[Group Results(Ch3)]
# of Groups	0

[Chromatogram (Ch1)]
Interval(msec)	220
# of Points	1091
Start Time(min)	0.002
End Time(min)	3.998
R.Time (min)	Intensity
0.00167	4
0.00533	-1
0.00900	-4
0.01267	-3
0.01633	-2
0.02000	-6
0.02367	-12
0.02733	-20
0.03100	-24
0.03467	-22
0.03833	-17
0.04200	-12
0.04567	-11
0.04933	-15
0.05300	-23
0.05667	-29
0.06033	-35
0.06400	-36
0.06767	-30
0.07133	-21
0.07500	-12
0.07867	-7
0.08233	-8
0.08600	-13
0.08967	-17
0.09333	-18
0.09700	-17
0.10067	-14
0.10433	-13
0.10800	-15
0.11167	-19
0.11533	-24
0.11900	-26
0.12267	-27
0.12633	-27
0.13000	-25
0.13367	-22
0.13733	-21
0.14100	-23
0.14467	-25
0.14833	-26
0.15200	-25
0.15567	-19
0.15933	-12
0.16300	-7
0.16667	-6
0.17033	-9
0.17400	-15
0.17767	-21
0.18133	-24
0.18500	-25
0.18867	-25
0.19233	-24
0.19600	-23
0.19967	-24
0.20333	-27
0.20700	-31
0.21067	-36
0.21433	-43
0.21800	-48
0.22167	-47
0.22533	-41
0.22900	-36
0.23267	-31
0.23633	-29
0.24000	-31
0.24367	-36
0.24733	-40
0.25100	-41
0.25467	-39
0.25833	-35
0.26200	-33
0.26567	-33
0.26933	-32
0.27300	-35
0.27667	-42
0.28033	-49
0.28400	-52
0.28767	-54
0.29133	-54
0.29500	-54
0.29867	-51
0.30233	-47
0.30600	-41
0.30967	-35
0.31333	-26
0.31700	-17
0.32067	-13
0.32433	-16
0.32800	-22
0.33167	-28
0.33533	-34
0.33900	-39
0.34267	-40
0.34633	-39
0.35000	-38
0.35367	-38
0.35733	-39
0.36100	-40
0.36467	-36
0.36833	-28
0.37200	-24
0.37567	-28
0.37933	-38
0.38300	-49
0.38667	-58
0.39033	-62
0.39400	-61
0.39767	-59
0.40133	-59
0.40500	-60
0.40867	-57
0.41233	-50
0.41600	-44
0.41967	-39
0.42333	-35
0.42700	-34
0.43067	-36
0.43433	-40
0.43800	-43
0.44167	-44
0.44533	-43
0.44900	-38
0.45267	-32
0.45633	-30
0.46000	-32
0.46367	-35
0.46733	-39
0.47100	-42
0.47467	-41
0.47833	-39
0.48200	-35
0.48567	-27
0.48933	-19
0.49300	-15
0.49667	-14
0.50033	-16
0.50400	-25
0.50767	-39
0.51133	-51
0.51500	-58
0.51867	-58
0.52233	-54
0.52600	-49
0.52967	-46
0.53333	-45
0.53700	-43
0.54067	-39
0.54433	-35
0.54800	-33
0.55167	-36
0.55533	-41
0.55900	-47
0.56267	-49
0.56633	-46
0.57000	-40
0.57367	-35
0.57733	-32
0.58100	-31
0.58467	-32
0.58833	-36
0.59200	-44
0.59567	-52
0.59933	-58
0.60300	-61
0.60667	-59
0.61033	-58
0.61400	-56
0.61767	-53
0.62133	-48
0.62500	-46
0.62867	-50
0.63233	-55
0.63600	-60
0.63967	-61
0.64333	-59
0.64700	-52
0.65067	-43
0.65433	-37
0.65800	-32
0.66167	-31
0.66533	-33
0.66900	-38
0.67267	-40
0.67633	-45
0.68000	-52
0.68367	-58
0.68733	-60
0.69100	-56
0.69467	-55
0.69833	-56
0.70200	-56
0.70567	-57
0.70933	-55
0.71300	-48
0.71667	-40
0.72033	-37
0.72400	-42
0.72767	-49
0.73133	-58
0.73500	-67
0.73867	-75
0.74233	-80
0.74600	-80
0.74967	-78
0.75333	-74
0.75700	-69
0.76067	-67
0.76433	-65
0.76800	-64
0.77167	-65
0.77533	-66
0.77900	-67
0.78267	-67
0.78633	-66
0.79000	-61
0.79367	-53
0.79733	-45
0.80100	-39
0.80467	-39
0.80833	-45
0.81200	-52
0.81567	-60
0.81933	-65
0.82300	-65
0.82667	-62
0.83033	-58
0.83400	-56
0.83767	-58
0.84133	-61
0.84500	-65
0.84867	-70
0.85233	-76
0.85600	-80
0.85967	-83
0.86333	-85
0.86700	-86
0.87067	-85
0.87433	-81
0.87800	-76
0.88167	-71
0.88533	-66
0.88900	-65
0.89267	-65
0.89633	-65
0.90000	-66
0.90367	-65
0.90733	-64
0.91100	-64
0.91467	-64
0.91833	-66
0.92200	-67
0.92567	-70
0.92933	-72
0.93300	-74
0.93667	-74
0.94033	-72
0.94400	-67
0.94767	-65
0.95133	-68
0.95500	-68
0.95867	-64
0.96233	-58
0.96600	-54
0.96967	-53
0.97333	-54
0.97700	-57
0.98067	-58
0.98433	-56
0.98800	-53
0.99167	-54
0.99533	-58
0.99900	-61
1.00267	-66
1.00633	-73
1.01000	-83
1.01367	-93
1.01733	-101
1.02100	-108
1.02467	-112
1.02833	-110
1.03200	-102
1.03567	-93
1.03933	-87
1.04300	-84
1.04667	-82
1.05033	-79
1.05400	-77
1.05767	-77
1.06133	-78
1.06500	-82
1.06867	-87
1.07233	-90
1.07600	-86
1.07967	-78
1.08333	-68
1.08700	-58
1.09067	-48
1.09433	-38
1.09800	-29
1.10167	-24
1.10533	-28
1.10900	-42
1.11267	-64
1.11633	-87
1.12000	-106
1.12367	-118
1.12733	-122
1.13100	-119
1.13467	-112
1.13833	-104
1.14200	-99
1.14567	-94
1.14933	-86
1.15300	-80
1.15667	-78
1.16033	-79
1.16400	-82
1.16767	-87
1.17133	-94
1.17500	-98
1.17867	-101
1.18233	-106
1.18600	-110
1.18967	-111
1.19333	-110
1.19700	-106
1.20067	-101
1.20433	-95
1.20800	-89
1.21167	-85
1.21533	-82
1.21900	-82
1.22267	-82
1.22633	-81
1.23000	-80
1.23367	-81
1.23733	-80
1.24100	-76
1.24467	-73
1.24833	-75
1.25200	-85
1.25567	-94
1.25933	-99
1.26300	-103
1.26667	-107
1.27033	-115
1.27400	-121
1.27767	-123
1.28133	-120
1.28500	-115
1.28867	-110
1.29233	-108
1.29600	-107
1.29967	-105
1.30333	-101
1.30700	-99
1.31067	-97
1.31433	-94
1.31800	-91
1.32167	-89
1.32533	-87
1.32900	-86
1.33267	-87
1.33633	-87
1.34000	-89
1.34367	-92
1.34733	-93
1.35100	-91
1.35467	-88
1.35833	-87
1.36200	-87
1.36567	-91
1.36933	-99
1.37300	-104
1.37667	-105
1.38033	-101
1.38400	-94
1.38767	-87
1.39133	-84
1.39500	-84
1.39867	-86
1.40233	-92
1.40600	-97
1.40967	-98
1.41333	-94
1.41700	-90
1.42067	-90
1.42433	-95
1.42800	-102
1.43167	-106
1.43533	-107
1.43900	-105
1.44267	-101
1.44633	-97
1.45000	-94
1.45367	-90
1.45733	-78
1.46100	-26
1.46467	114
1.46833	336
1.47200	579
1.47567	796
1.47933	956
1.48300	1026
1.48667	988
1.49033	861
1.49400	688
1.49767	510
1.50133	354
1.50500	228
1.50867	134
1.51233	66
1.51600	20
1.51967	-13
1.52333	-40
1.52700	-60
1.53067	-73
1.53433	-85
1.53800	-93
1.54167	-98
1.54533	-101
1.54900	-102
1.55267	-99
1.55633	-87
1.56000	-36
1.56367	111
1.56733	383
1.57100	704
1.57467	928
1.57833	969
1.58200	851
1.58567	656
1.58933	457
1.59300	291
1.59667	167
1.60033	80
1.60400	17
1.60767	-28
1.61133	-61
1.61500	-84
1.61867	-97
1.62233	-104
1.62600	-107
1.62967	-104
1.63333	-100
1.63700	-101
1.64067	-107
1.64433	-117
1.64800	-126
1.65167	-131
1.65533	-130
1.65900	-125
1.66267	-123
1.66633	-124
1.67000	-130
1.67367	-137
1.67733	-140
1.68100	-138
1.68467	-137
1.68833	-136
1.69200	-136
1.69567	-134
1.69933	-129
1.70300	-124
1.70667	-120
1.71033	-118
1.71400	-116
1.71767	-115
1.72133	-116
1.72500	-118
1.72867	-122
1.73233	-125
1.73600	-125
1.73967	-123
1.74333	-119
1.74700	-118
1.75067	-118
1.75433	-118
1.75800	-115
1.76167	-112
1.76533	-108
1.76900	-104
1.77267	-103
1.77633	-101
1.78000	-100
1.78367	-103
1.78733	-107
1.79100	-113
1.79467	-118
1.79833	-123
1.80200	-128
1.80567	-133
1.80933	-135
1.81300	-137
1.81667	-135
1.82033	-130
1.82400	-125
1.82767	-121
1.83133	-118
1.83500	-113
1.83867	-112
1.84233	-114
1.84600	-118
1.84967	-120
1.85333	-119
1.85700	-116
1.86067	-112
1.86433	-112
1.86800	-110
1.87167	-105
1.87533	-99
1.87900	-96
1.88267	-98
1.88633	-101
1.89000	-106
1.89367	-109
1.89733	-109
1.90100	-103
1.90467	-95
1.90833	-91
1.91200	-94
1.91567	-100
1.91933	-104
1.92300	-107
1.92667	-108
1.93033	-112
1.93400	-115
1.93767	-115
1.94133	-112
1.94500	-107
1.94867	-99
1.95233	-93
1.95600	-87
1.95967	-76
1.96333	-58
1.96700	-29
1.97067	30
1.97433	183
1.97800	707
1.98167	2565
1.98533	8230
1.98900	21877
1.99267	47155
1.99633	82665
2.00000	119495
2.00367	145424
2.00733	152508
2.01100	141214
2.01467	118288
2.01833	91699
2.02200	67122
2.02567	47185
2.02933	32301
2.03300	21779
2.03667	14601
2.04033	9817
2.04400	6674
2.04767	4626
2.05133	3288
2.05500	2405
2.05867	1813
2.06233	1409
2.06600	1131
2.06967	933
2.07333	788
2.07700	677
2.08067	587
2.08433	516
2.08800	458
2.09167	414
2.09533	381
2.09900	357
2.10267	338
2.10633	315
2.11000	287
2.11367	258
2.11733	235
2.12100	218
2.12467	203
2.12833	194
2.13200	185
2.13567	173
2.13933	161
2.14300	151
2.14667	146
2.15033	143
2.15400	137
2.15767	131
2.16133	128
2.16500	131
2.16867	135
2.17233	133
2.17600	127
2.17967	123
2.18333	120
2.18700	117
2.19067	113
2.19433	113
2.19800	117
2.20167	122
2.20533	123
2.20900	120
2.21267	118
2.21633	112
2.22000	102
2.22367	90
2.22733	81
2.23100	75
2.23467	74
2.23833	72
2.24200	73
2.24567	74
2.24933	75
2.25300	76
2.25667	77
2.26033	74
2.26400	71
2.26767	67
2.27133	59
2.27500	49
2.27867	40
2.28233	37
2.28600	40
2.28967	44
2.29333	49
2.29700	52
2.30067	51
2.30433	53
2.30800	56
2.31167	61
2.31533	66
2.31900	71
2.32267	74
2.32633	75
2.33000	75
2.33367	74
2.33733	74
2.34100	74
2.34467	76
2.34833	75
2.35200	72
2.35567	68
2.35933	65
2.36300	64
2.36667	65
2.37033	70
2.37400	75
2.37767	78
2.38133	78
2.38500	78
2.38867	76
2.39233	70
2.39600	66
2.39967	63
2.40333	63
2.40700	64
2.41067	70
2.41433	79
2.41800	87
2.42167	92
2.42533	92
2.42900	91
2.43267	91
2.43633	90
2.44000	87
2.44367	82
2.44733	76
2.45100	71
2.45467	71
2.45833	74
2.46200	77
2.46567	78
2.46933	77
2.47300	73
2.47667	71
2.48033	72
2.48400	75
2.48767	76
2.49133	78
2.49500	78
2.49867	74
2.50233	69
2.50600	64
2.50967	60
2.51333	59
2.51700	60
2.52067	64
2.52433	66
2.52800	69
2.53167	75
2.53533	83
2.53900	87
2.54267	88
2.54633	85
2.55000	82
2.55367	82
2.55733	86
2.56100	86
2.56467	82
2.56833	77
2.57200	77
2.57567	79
2.57933	81
2.58300	81
2.58667	79
2.59033	81
2.59400	83
2.59767	83
2.60133	78
2.60500	70
2.60867	65
2.61233	63
2.61600	64
2.61967	67
2.62333	71
2.62700	72
2.63067	69
2.63433	67
2.63800	66
2.64167	66
2.64533	66
2.64900	68
2.65267	70
2.65633	73
2.66000	77
2.66367	83
2.66733	90
2.67100	93
2.67467	89
2.67833	83
2.68200	79
2.68567	73
2.68933	66
2.69300	63
2.69667	66
2.70033	70
2.70400	73
2.70767	75
2.71133	77
2.71500	81
2.71867	85
2.72233	91
2.72600	95
2.72967	97
2.73333	96
2.73700	93
2.74067	89
2.74433	86
2.74800	84
2.75167	83
2.75533	85
2.75900	89
2.76267	93
2.76633	95
2.77000	95
2.77367	96
2.77733	94
2.78100	90
2.78467	86
2.78833	83
2.79200	80
2.79567	76
2.79933	71
2.80300	68
2.80667	68
2.81033	68
2.81400	68
2.81767	66
2.82133	62
2.82500	59
2.82867	61
2.83233	65
2.83600	67
2.83967	67
2.84333	68
2.84700	70
2.85067	74
2.85433	79
2.85800	85
2.86167	87
2.86533	88
2.86900	88
2.87267	86
2.87633	82
2.88000	80
2.88367	77
2.88733	74
2.89100	70
2.89467	66
2.89833	66
2.90200	68
2.90567	69
2.90933	72
2.91300	77
2.91667	83
2.92033	92
2.92400	100
2.92767	100
2.93133	92
2.93500	85
2.93867	84
2.94233	85
2.94600	84
2.94967	82
2.95333	80
2.95700	77
2.96067	75
2.96433	76
2.96800	78
2.97167	79
2.97533	77
2.97900	73
2.98267	69
2.98633	69
2.99000	71
2.99367	72
2.99733	76
3.00100	82
3.00467	89
3.00833	89
3.01200	86
3.01567	83
3.01933	88
3.02300	97
3.02667	102
3.03033	105
3.03400	105
3.03767	103
3.04133	98
3.04500	95
3.04867	87
3.05233	81
3.05600	80
3.05967	80
3.06333	81
3.06700	84
3.07067	88
3.07433	91
3.07800	90
3.08167	85
3.08533	80
3.08900	75
3.09267	71
3.09633	72
3.10000	77
3.10367	78
3.10733	77
3.11100	76
3.11467	76
3.11833	77
3.12200	78
3.12567	78
3.12933	81
3.13300	85
3.13667	90
3.14033	98
3.14400	102
3.14767	98
3.15133	87
3.15500	72
3.15867	58
3.16233	52
3.16600	55
3.16967	60
3.17333	65
3.17700	69
3.18067	73
3.18433	77
3.18800	78
3.19167	79
3.19533	81
3.19900	86
3.20267	89
3.20633	89
3.21000	92
3.21367	96
3.21733	99
3.22100	97
3.22467	91
3.22833	84
3.23200	77
3.23567	71
3.23933	65
3.24300	62
3.24667	62
3.25033	65
3.25400	67
3.25767	66
3.26133	66
3.26500	69
3.26867	72
3.27233	76
3.27600	80
3.27967	80
3.28333	77
3.28700	74
3.29067	74
3.29433	80
3.29800	87
3.30167	90
3.30533	84
3.30900	78
3.31267	76
3.31633	76
3.32000	77
3.32367	81
3.32733	87
3.33100	88
3.33467	86
3.33833	82
3.34200	76
3.34567	70
3.34933	66
3.35300	65
3.35667	65
3.36033	67
3.36400	69
3.36767	72
3.37133	75
3.37500	79
3.37867	79
3.38233	78
3.38600	74
3.38967	70
3.39333	65
3.39700	62
3.40067	64
3.40433	68
3.40800	71
3.41167	71
3.41533	72
3.41900	72
3.42267	73
3.42633	73
3.43000	73
3.43367	73
3.43733	68
3.44100	63
3.44467	62
3.44833	61
3.45200	59
3.45567	61
3.45933	64
3.46300	66
3.46667	63
3.47033	58
3.47400	57
3.47767	62
3.48133	67
3.48500	68
3.48867	66
3.49233	63
3.49600	60
3.49967	55
3.50333	50
3.50700	46
3.51067	47
3.51433	51
3.51800	54
3.52167	51
3.52533	46
3.52900	43
3.53267	41
3.53633	43
3.54000	46
3.54367	48
3.54733	52
3.55100	56
3.55467	57
3.55833	56
3.56200	53
3.56567	51
3.56933	51
3.57300	51
3.57667	51
3.58033	51
3.58400	48
3.58767	46
3.59133	45
3.59500	43
3.59867	43
3.60233	46
3.60600	50
3.60967	58
3.61333	68
3.61700	77
3.62067	77
3.62433	68
3.62800	56
3.63167	46
3.63533	41
3.63900	41
3.64267	42
3.64633	42
3.65000	41
3.65367	40
3.65733	40
3.66100	42
3.66467	45
3.66833	49
3.67200	55
3.67567	60
3.67933	60
3.68300	56
3.68667	53
3.69033	54
3.69400	55
3.69767	55
3.70133	54
3.70500	52
3.70867	47
3.71233	42
3.71600	40
3.71967	41
3.72333	44
3.72700	45
3.73067	47
3.73433	46
3.73800	48
3.74167	48
3.74533	45
3.74900	42
3.75267	40
3.75633	39
3.76000	39
3.76367	40
3.76733	42
3.77100	43
3.77467	42
3.77833	40
3.78200	43
3.78567	50
3.78933	55
3.79300	55
3.79667	51
3.80033	48
3.80400	51
3.80767	58
3.81133	62
3.81500	63
3.81867	62
3.82233	59
3.82600	54
3.82967	49
3.83333	46
3.83700	43
3.84067	43
3.84433	42
3.84800	44
3.85167	45
3.85533	43
3.85900	38
3.86267	30
3.86633	28
3.87000	29
3.87367	32
3.87733	34
3.88100	35
3.88467	35
3.88833	36
3.89200	38
3.89567	41
3.89933	44
3.90300	46
3.90667	48
3.91033	47
3.91400	45
3.91767	43
3.92133	40
3.92500	36
3.92867	35
3.93233	39
3.93600	45
3.93967	49
3.94333	51
3.94700	52
3.95067	51
3.95433	48
3.95800	45
3.96167	41
3.96533	40
3.96900	43
3.97267	45
3.97633	45
3.98000	46
3.98367	46
3.98733	47
3.99100	48
3.99467	51
3.99833	50

[Chromatogram (Ch2)]
Interval(msec)	220
# of Points	1091
Start Time(min)	0.002
End Time(min)	3.998
R.Time (min)	Intensity
0.00167	-1
0.00533	-1
0.00900	-1
0.01267	-1
0.01633	-1
0.02000	-1
0.02367	-1
0.02733	-1
0.03100	-1
0.03467	-1
0.03833	-1
0.04200	-1
0.04567	-0
0.04933	-0
0.05300	0
0.05667	0
0.06033	1
0.06400	1
0.06767	1
0.07133	2
0.07500	2
0.07867	2
0.08233	2
0.08600	3
0.08967	3
0.09333	3
0.09700	4
0.10067	4
0.10433	4
0.10800	4
0.11167	4
0.11533	4
0.11900	3
0.12267	3
0.12633	3
0.13000	2
0.13367	2
0.13733	2
0.14100	1
0.14467	1
0.14833	1
0.15200	1
0.15567	0
0.15933	-0
0.16300	-1
0.16667	-1
0.17033	-1
0.17400	-1
0.17767	-1
0.18133	-1
0.18500	-1
0.18867	-1
0.19233	-1
0.19600	-0
0.19967	0
0.20333	1
0.20700	1
0.21067	2
0.21433	2
0.21800	2
0.22167	2
0.22533	2
0.22900	2
0.23267	2
0.23633	1
0.24000	1
0.24367	1
0.24733	1
0.25100	1
0.25467	1
0.25833	1
0.26200	1
0.26567	1
0.26933	1
0.27300	2
0.27667	2
0.28033	2
0.28400	2
0.28767	3
0.29133	3
0.29500	3
0.29867	3
0.30233	4
0.30600	4
0.30967	4
0.31333	4
0.31700	4
0.32067	4
0.32433	5
0.32800	5
0.33167	5
0.33533	6
0.33900	6
0.34267	6
0.34633	6
0.35000	6
0.35367	6
0.35733	6
0.36100	6
0.36467	6
0.36833	6
0.37200	6
0.37567	6
0.37933	6
0.38300	5
0.38667	5
0.39033	5
0.39400	5
0.39767	4
0.40133	4
0.40500	4
0.40867	4
0.41233	4
0.41600	3
0.41967	3
0.42333	3
0.42700	3
0.43067	3
0.43433	3
0.43800	3
0.44167	3
0.44533	3
0.44900	3
0.45267	3
0.45633	3
0.46000	4
0.46367	4
0.46733	4
0.47100	4
0.47467	5
0.47833	5
0.48200	5
0.48567	5
0.48933	4
0.49300	4
0.49667	4
0.50033	4
0.50400	4
0.50767	3
0.51133	3
0.51500	3
0.51867	2
0.52233	2
0.52600	2
0.52967	2
0.53333	1
0.53700	1
0.54067	1
0.54433	1
0.54800	1
0.55167	1
0.55533	1
0.55900	1
0.56267	1
0.56633	0
0.57000	0
0.57367	-0
0.57733	-0
0.58100	-1
0.58467	-1
0.58833	-1
0.59200	-0
0.59567	-0
0.59933	-0
0.60300	-0
0.60667	-0
0.61033	-0
0.61400	-0
0.61767	0
0.62133	0
0.62500	1
0.62867	1
0.63233	1
0.63600	2
0.63967	2
0.64333	2
0.64700	2
0.65067	1
0.65433	1
0.65800	1
0.66167	2
0.66533	2
0.66900	2
0.67267	2
0.67633	2
0.68000	2
0.68367	2
0.68733	2
0.69100	2
0.69467	2
0.69833	2
0.70200	2
0.70567	2
0.70933	2
0.71300	1
0.71667	1
0.72033	1
0.72400	2
0.72767	2
0.73133	2
0.73500	2
0.73867	2
0.74233	2
0.74600	2
0.74967	2
0.75333	2
0.75700	2
0.76067	2
0.76433	2
0.76800	2
0.77167	1
0.77533	1
0.77900	1
0.78267	1
0.78633	1
0.79000	1
0.79367	1
0.79733	1
0.80100	1
0.80467	1
0.80833	1
0.81200	1
0.81567	1
0.81933	1
0.82300	1
0.82667	0
0.83033	-0
0.83400	-0
0.83767	-1
0.84133	-1
0.84500	-1
0.84867	-1
0.85233	-2
0.85600	-2
0.85967	-2
0.86333	-3
0.86700	-3
0.87067	-3
0.87433	-3
0.87800	-3
0.88167	-3
0.88533	-3
0.88900	-2
0.89267	-2
0.89633	-1
0.90000	-1
0.90367	-1
0.90733	-0
0.91100	-0
0.91467	0
0.91833	0
0.92200	0
0.92567	0
0.92933	1
0.93300	1
0.93667	1
0.94033	1
0.94400	1
0.94767	1
0.95133	1
0.95500	1
0.95867	1
0.96233	1
0.96600	1
0.96967	0
0.97333	0
0.97700	-0
0.98067	-0
0.98433	-1
0.98800	-1
0.99167	-1
0.99533	-1
0.99900	-1
1.00267	-2
1.00633	-2
1.01000	-2
1.01367	-2
1.01733	-2
1.02100	-2
1.02467	-3
1.02833	-3
1.03200	-2
1.03567	-2
1.03933	-2
1.04300	-2
1.04667	-1
1.05033	-0
1.05400	0
1.05767	1
1.06133	1
1.06500	1
1.06867	2
1.07233	2
1.07600	2
1.07967	2
1.08333	2
1.08700	2
1.09067	1
1.09433	1
1.09800	1
1.10167	1
1.10533	1
1.10900	1
1.11267	2
1.11633	2
1.12000	2
1.12367	2
1.12733	2
1.13100	2
1.13467	2
1.13833	1
1.14200	2
1.14567	1
1.14933	1
1.15300	1
1.15667	1
1.16033	1
1.16400	1
1.16767	1
1.17133	0
1.17500	0
1.17867	-0
1.18233	-0
1.18600	-0
1.18967	-0
1.19333	-1
1.19700	-1
1.20067	-1
1.20433	-1
1.20800	-1
1.21167	-1
1.21533	-2
1.21900	-2
1.22267	-1
1.22633	-1
1.23000	-1
1.23367	-1
1.23733	-0
1.24100	0
1.24467	0
1.24833	0
1.25200	0
1.25567	0
1.25933	0
1.26300	0
1.26667	-0
1.27033	-0
1.27400	-0
1.27767	-1
1.28133	-1
1.28500	-1
1.28867	-1
1.29233	-1
1.29600	-1
1.29967	-1
1.30333	-2
1.30700	-2
1.31067	-2
1.31433	-2
1.31800	-2
1.32167	-2
1.32533	-2
1.32900	-2
1.33267	-2
1.33633	-2
1.34000	-2
1.34367	-2
1.34733	-3
1.35100	-3
1.35467	-3
1.35833	-3
1.36200	-2
1.36567	-2
1.36933	-2
1.37300	-2
1.37667	-2
1.38033	-2
1.38400	-1
1.38767	-1
1.39133	-1
1.39500	-0
1.39867	0
1.40233	1
1.40600	1
1.40967	1
1.41333	1
1.41700	1
1.42067	1
1.42433	1
1.42800	1
1.43167	1
1.43533	0
1.43900	-0
1.44267	-0
1.44633	-1
1.45000	-1
1.45367	-1
1.45733	-1
1.46100	-1
1.46467	-1
1.46833	-1
1.47200	-1
1.47567	-1
1.47933	-1
1.48300	-1
1.48667	-1
1.49033	-1
1.49400	-1
1.49767	-0
1.50133	-0
1.50500	-0
1.50867	-0
1.51233	-0
1.51600	-0
1.51967	-0
1.52333	-0
1.52700	-0
1.53067	-0
1.53433	-0
1.53800	-1
1.54167	-1
1.54533	-1
1.54900	-2
1.55267	-3
1.55633	-3
1.56000	-4
1.56367	-4
1.56733	-4
1.57100	-5
1.57467	-5
1.57833	-5
1.58200	-6
1.58567	-6
1.58933	-6
1.59300	-6
1.59667	-7
1.60033	-7
1.60400	-8
1.60767	-8
1.61133	-9
1.61500	-11
1.61867	-12
1.62233	-14
1.62600	-16
1.62967	-19
1.63333	-22
1.63700	-25
1.64067	-29
1.64433	-32
1.64800	-36
1.65167	-40
1.65533	-43
1.65900	-47
1.66267	-51
1.66633	-55
1.67000	-59
1.67367	-64
1.67733	-69
1.68100	-74
1.68467	-80
1.68833	-85
1.69200	-90
1.69567	-94
1.69933	-98
1.70300	-101
1.70667	-104
1.71033	-106
1.71400	-108
1.71767	-109
1.72133	-110
1.72500	-111
1.72867	-111
1.73233	-111
1.73600	-111
1.73967	-112
1.74333	-112
1.74700	-113
1.75067	-114
1.75433	-115
1.75800	-116
1.76167	-117
1.76533	-118
1.76900	-118
1.77267	-118
1.77633	-118
1.78000	-118
1.78367	-118
1.78733	-118
1.79100	-118
1.79467	-119
1.79833	-120
1.80200	-120
1.80567	-121
1.80933	-122
1.81300	-122
1.81667	-123
1.82033	-123
1.82400	-124
1.82767	-124
1.83133	-124
1.83500	-124
1.83867	-124
1.84233	-123
1.84600	-123
1.84967	-123
1.85333	-122
1.85700	-123
1.86067	-123
1.86433	-124
1.86800	-124
1.87167	-124
1.87533	-123
1.87900	-122
1.88267	-122
1.88633	-121
1.89000	-121
1.89367	-121
1.89733	-121
1.90100	-122
1.90467	-122
1.90833	-122
1.91200	-122
1.91567	-121
1.91933	-121
1.92300	-120
1.92667	-120
1.93033	-120
1.93400	-120
1.93767	-121
1.94133	-121
1.94500	-121
1.94867	-121
1.95233	-121
1.95600	-121
1.95967	-120
1.96333	-120
1.96700	-119
1.97067	-118
1.97433	-118
1.97800	-117
1.98167	-117
1.98533	-117
1.98900	-117
1.99267	-116
1.99633	-116
2.00000	-116
2.00367	-115
2.00733	-115
2.01100	-113
2.01467	-112
2.01833	-111
2.02200	-111
2.02567	-110
2.02933	-110
2.03300	-110
2.03667	-110
2.04033	-111
2.04400	-110
2.04767	-110
2.05133	-110
2.05500	-109
2.05867	-109
2.06233	-108
2.06600	-107
2.06967	-106
2.07333	-106
2.07700	-106
2.08067	-105
2.08433	-105
2.08800	-105
2.09167	-105
2.09533	-105
2.09900	-105
2.10267	-105
2.10633	-105
2.11000	-105
2.11367	-105
2.11733	-104
2.12100	-104
2.12467	-103
2.12833	-103
2.13200	-102
2.13567	-102
2.13933	-102
2.14300	-102
2.14667	-102
2.15033	-102
2.15400	-102
2.15767	-102
2.16133	-101
2.16500	-101
2.16867	-100
2.17233	-100
2.17600	-99
2.17967	-99
2.18333	-99
2.18700	-99
2.19067	-99
2.19433	-99
2.19800	-99
2.20167	-99
2.20533	-98
2.20900	-97
2.21267	-97
2.21633	-96
2.22000	-95
2.22367	-95
2.22733	-95
2.23100	-96
2.23467	-96
2.23833	-97
2.24200	-97
2.24567	-97
2.24933	-97
2.25300	-96
2.25667	-95
2.26033	-94
2.26400	-94
2.26767	-94
2.27133	-94
2.27500	-94
2.27867	-94
2.28233	-94
2.28600	-93
2.28967	-92
2.29333	-91
2.29700	-90
2.30067	-89
2.30433	-89
2.30800	-88
2.31167	-88
2.31533	-87
2.31900	-87
2.32267	-86
2.32633	-85
2.33000	-85
2.33367	-85
2.33733	-84
2.34100	-84
2.34467	-84
2.34833	-83
2.35200	-83
2.35567	-83
2.35933	-83
2.36300	-83
2.36667	-82
2.37033	-81
2.37400	-79
2.37767	-77
2.38133	-73
2.38500	-69
2.38867	-65
2.39233	-61
2.39600	-56
2.39967	-51
2.40333	-45
2.40700	-40
2.41067	-35
2.41433	-31
2.41800	-27
2.42167	-23
2.42533	-20
2.42900	-17
2.43267	-14
2.43633	-11
2.44000	-9
2.44367	-7
2.44733	-6
2.45100	-5
2.45467	-3
2.45833	-2
2.46200	-1
2.46567	0
2.46933	1
2.47300	2
2.47667	3
2.48033	4
2.48400	5
2.48767	6
2.49133	7
2.49500	8
2.49867	9
2.50233	9
2.50600	10
2.50967	10
2.51333	11
2.51700	12
2.52067	12
2.52433	13
2.52800	14
2.53167	15
2.53533	16
2.53900	17
2.54267	17
2.54633	18
2.55000	18
2.55367	18
2.55733	18
2.56100	19
2.56467	19
2.56833	19
2.57200	19
2.57567	19
2.57933	20
2.58300	20
2.58667	20
2.59033	21
2.59400	21
2.59767	21
2.60133	21
2.60500	21
2.60867	22
2.61233	22
2.61600	22
2.61967	22
2.62333	22
2.62700	22
2.63067	22
2.63433	23
2.63800	23
2.64167	23
2.64533	23
2.64900	23
2.65267	23
2.65633	24
2.66000	24
2.66367	24
2.66733	24
2.67100	24
2.67467	24
2.67833	24
2.68200	24
2.68567	23
2.68933	24
2.69300	24
2.69667	24
2.70033	24
2.70400	24
2.70767	25
2.71133	25
2.71500	26
2.71867	26
2.72233	26
2.72600	26
2.72967	26
2.73333	26
2.73700	26
2.74067	26
2.74433	26
2.74800	26
2.75167	25
2.75533	25
2.75900	25
2.76267	24
2.76633	24
2.77000	24
2.77367	24
2.77733	23
2.78100	23
2.78467	23
2.78833	23
2.79200	23
2.79567	23
2.79933	23
2.80300	23
2.80667	24
2.81033	24
2.81400	24
2.81767	24
2.82133	25
2.82500	25
2.82867	25
2.83233	26
2.83600	26
2.83967	27
2.84333	27
2.84700	27
2.85067	28
2.85433	28
2.85800	28
2.86167	29
2.86533	29
2.86900	30
2.87267	29
2.87633	29
2.88000	26
2.88367	23
2.88733	17
2.89100	9
2.89467	-2
2.89833	-16
2.90200	-33
2.90567	-52
2.90933	-75
2.91300	-100
2.91667	-128
2.92033	-157
2.92400	-185
2.92767	-211
2.93133	-231
2.93500	-244
2.93867	-250
2.94233	-248
2.94600	-241
2.94967	-228
2.95333	-212
2.95700	-195
2.96067	-176
2.96433	-156
2.96800	-138
2.97167	-120
2.97533	-103
2.97900	-87
2.98267	-73
2.98633	-61
2.99000	-50
2.99367	-40
2.99733	-31
3.00100	-23
3.00467	-17
3.00833	-11
3.01200	-6
3.01567	-1
3.01933	2
3.02300	5
3.02667	8
3.03033	10
3.03400	12
3.03767	14
3.04133	15
3.04500	16
3.04867	17
3.05233	18
3.05600	19
3.05967	20
3.06333	21
3.06700	21
3.07067	22
3.07433	23
3.07800	23
3.08167	23
3.08533	24
3.08900	24
3.09267	24
3.09633	25
3.10000	25
3.10367	25
3.10733	25
3.11100	25
3.11467	25
3.11833	25
3.12200	25
3.12567	25
3.12933	25
3.13300	25
3.13667	25
3.14033	24
3.14400	25
3.14767	25
3.15133	25
3.15500	25
3.15867	25
3.16233	26
3.16600	26
3.16967	26
3.17333	26
3.17700	26
3.18067	27
3.18433	27
3.18800	27
3.19167	27
3.19533	27
3.19900	27
3.20267	28
3.20633	28
3.21000	28
3.21367	28
3.21733	28
3.22100	28
3.22467	28
3.22833	28
3.23200	28
3.23567	29
3.23933	29
3.24300	29
3.24667	29
3.25033	29
3.25400	29
3.25767	29
3.26133	29
3.26500	29
3.26867	29
3.27233	29
3.27600	29
3.27967	29
3.28333	29
3.28700	29
3.29067	29
3.29433	30
3.29800	30
3.30167	30
3.30533	30
3.30900	30
3.31267	30
3.31633	30
3.32000	29
3.32367	29
3.32733	29
3.33100	29
3.33467	29
3.33833	29
3.34200	29
3.34567	29
3.34933	29
3.35300	29
3.35667	29
3.36033	29
3.36400	29
3.36767	29
3.37133	29
3.37500	29
3.37867	29
3.38233	29
3.38600	29
3.38967	29
3.39333	29
3.39700	29
3.40067	29
3.40433	29
3.40800	29
3.41167	29
3.41533	29
3.41900	29
3.42267	28
3.42633	28
3.43000	28
3.43367	28
3.43733	28
3.44100	28
3.44467	29
3.44833	29
3.45200	29
3.45567	29
3.45933	29
3.46300	29
3.46667	29
3.47033	29
3.47400	29
3.47767	29
3.48133	29
3.48500	29
3.48867	29
3.49233	29
3.49600	29
3.49967	29
3.50333	29
3.50700	29
3.51067	29
3.51433	29
3.51800	29
3.52167	29
3.52533	29
3.52900	29
3.53267	29
3.53633	29
3.54000	29
3.54367	29
3.54733	29
3.55100	29
3.55467	29
3.55833	29
3.56200	29
3.56567	29
3.56933	29
3.57300	29
3.57667	29
3.58033	29
3.58400	29
3.58767	29
3.59133	29
3.59500	29
3.59867	28
3.60233	28
3.60600	28
3.60967	28
3.61333	28
3.61700	28
3.62067	28
3.62433	28
3.62800	28
3.63167	28
3.63533	28
3.63900	28
3.64267	28
3.64633	28
3.65000	29
3.65367	29
3.65733	29
3.66100	29
3.66467	29
3.66833	29
3.67200	28
3.67567	28
3.67933	28
3.68300	28
3.68667	28
3.69033	28
3.69400	28
3.69767	28
3.70133	28
3.70500	28
3.70867	28
3.71233	29
3.71600	29
3.71967	29
3.72333	28
3.72700	28
3.73067	28
3.73433	28
3.73800	28
3.74167	28
3.74533	28
3.74900	28
3.75267	28
3.75633	28
3.76000	28
3.76367	28
3.76733	28
3.77100	28
3.77467	28
3.77833	28
3.78200	28
3.78567	28
3.78933	28
3.79300	28
3.79667	28
3.80033	27
3.80400	27
3.80767	27
3.81133	27
3.81500	28
3.81867	28
3.82233	28
3.82600	28
3.82967	29
3.83333	29
3.83700	29
3.84067	30
3.84433	30
3.84800	30
3.85167	31
3.85533	31
3.85900	31
3.86267	31
3.86633	31
3.87000	32
3.87367	32
3.87733	32
3.88100	32
3.88467	33
3.88833	33
3.89200	33
3.89567	33
3.89933	33
3.90300	33
3.90667	33
3.91033	33
3.91400	32
3.91767	32
3.92133	32
3.92500	32
3.92867	31
3.93233	31
3.93600	31
3.93967	31
3.94333	31
3.94700	31
3.95067	30
3.95433	30
3.95800	30
3.96167	30
3.96533	30
3.96900	30
3.97267	29
3.97633	29
3.98000	29
3.98367	29
3.98733	29
3.99100	29
3.99467	29
3.99833	29

[Chromatogram (Ch3)]
Interval(msec)	220
# of Points	1091
Start Time(min)	0.002
End Time(min)	3.998
R.Time (min)	Intensity
0.00167	-2
0.00533	-4
0.00900	-4
0.01267	-3
0.01633	-1
0.02000	1
0.02367	2
0.02733	1
0.03100	-2
0.03467	-2
0.03833	-2
0.04200	-1
0.04567	-2
0.04933	1
0.05300	-0
0.05667	-0
0.06033	0
0.06400	1
0.06767	3
0.07133	3
0.07500	2
0.07867	0
0.08233	-0
0.08600	1
0.08967	3
0.09333	5
0.09700	5
0.10067	4
0.10433	5
0.10800	5
0.11167	4
0.11533	1
0.11900	-3
0.12267	-3
0.12633	0
0.13000	4
0.13367	5
0.13733	6
0.14100	6
0.14467	7
0.14833	6
0.15200	5
0.15567	4
0.15933	3
0.16300	3
0.16667	6
0.17033	8
0.17400	7
0.17767	5
0.18133	4
0.18500	5
0.18867	6
0.19233	6
0.19600	6
0.19967	5
0.20333	2
0.20700	4
0.21067	7
0.21433	9
0.21800	10
0.22167	11
0.22533	9
0.22900	7
0.23267	5
0.23633	7
0.24000	8
0.24367	9
0.24733	9
0.25100	10
0.25467	13
0.25833	15
0.26200	16
0.26567	15
0.26933	15
0.27300	14
0.27667	12
0.28033	10
0.28400	10
0.28767	9
0.29133	8
0.29500	7
0.29867	7
0.30233	8
0.30600	9
0.30967	9
0.31333	9
0.31700	9
0.32067	11
0.32433	11
0.32800	10
0.33167	9
0.33533	7
0.33900	7
0.34267	9
0.34633	10
0.35000	8
0.35367	9
0.35733	10
0.36100	10
0.36467	12
0.36833	14
0.37200	15
0.37567	15
0.37933	15
0.38300	14
0.38667	15
0.39033	17
0.39400	19
0.39767	20
0.40133	21
0.40500	22
0.40867	22
0.41233	23
0.41600	24
0.41967	24
0.42333	26
0.42700	27
0.43067	26
0.43433	24
0.43800	22
0.44167	22
0.44533	19
0.44900	18
0.45267	17
0.45633	18
0.46000	17
0.46367	16
0.46733	17
0.47100	18
0.47467	18
0.47833	21
0.48200	22
0.48567	21
0.48933	19
0.49300	19
0.49667	20
0.50033	23
0.50400	25
0.50767	25
0.51133	25
0.51500	26
0.51867	26
0.52233	25
0.52600	26
0.52967	25
0.53333	24
0.53700	24
0.54067	22
0.54433	21
0.54800	21
0.55167	22
0.55533	24
0.55900	24
0.56267	24
0.56633	26
0.57000	27
0.57367	27
0.57733	27
0.58100	27
0.58467	27
0.58833	26
0.59200	25
0.59567	23
0.59933	21
0.60300	23
0.60667	25
0.61033	27
0.61400	29
0.61767	29
0.62133	28
0.62500	28
0.62867	28
0.63233	29
0.63600	28
0.63967	27
0.64333	28
0.64700	28
0.65067	27
0.65433	27
0.65800	26
0.66167	27
0.66533	28
0.66900	29
0.67267	31
0.67633	32
0.68000	31
0.68367	30
0.68733	31
0.69100	32
0.69467	34
0.69833	35
0.70200	35
0.70567	37
0.70933	38
0.71300	39
0.71667	41
0.72033	42
0.72400	41
0.72767	41
0.73133	41
0.73500	43
0.73867	43
0.74233	42
0.74600	39
0.74967	36
0.75333	37
0.75700	37
0.76067	38
0.76433	39
0.76800	40
0.77167	40
0.77533	40
0.77900	37
0.78267	36
0.78633	36
0.79000	36
0.79367	35
0.79733	34
0.80100	35
0.80467	35
0.80833	36
0.81200	38
0.81567	39
0.81933	38
0.82300	36
0.82667	36
0.83033	38
0.83400	40
0.83767	41
0.84133	39
0.84500	38
0.84867	38
0.85233	40
0.85600	42
0.85967	43
0.86333	44
0.86700	43
0.87067	42
0.87433	41
0.87800	43
0.88167	43
0.88533	42
0.88900	41
0.89267	41
0.89633	40
0.90000	41
0.90367	43
0.90733	43
0.91100	43
0.91467	44
0.91833	46
0.92200	47
0.92567	46
0.92933	45
0.93300	43
0.93667	41
0.94033	41
0.94400	43
0.94767	44
0.95133	44
0.95500	41
0.95867	39
0.96233	37
0.96600	36
0.96967	36
0.97333	38
0.97700	42
0.98067	47
0.98433	50
0.98800	49
0.99167	48
0.99533	47
0.99900	48
1.00267	46
1.00633	46
1.01000	47
1.01367	48
1.01733	47
1.02100	48
1.02467	50
1.02833	51
1.03200	51
1.03567	51
1.03933	52
1.04300	51
1.04667	48
1.05033	47
1.05400	47
1.05767	49
1.06133	50
1.06500	50
1.06867	50
1.07233	49
1.07600	49
1.07967	49
1.08333	50
1.08700	51
1.09067	54
1.09433	56
1.09800	57
1.10167	58
1.10533	58
1.10900	57
1.11267	58
1.11633	57
1.12000	56
1.12367	54
1.12733	52
1.13100	47
1.13467	46
1.13833	47
1.14200	51
1.14567	52
1.14933	54
1.15300	57
1.15667	60
1.16033	60
1.16400	57
1.16767	52
1.17133	52
1.17500	52
1.17867	53
1.18233	54
1.18600	54
1.18967	56
1.19333	57
1.19700	61
1.20067	62
1.20433	60
1.20800	60
1.21167	60
1.21533	61
1.21900	59
1.22267	59
1.22633	59
1.23000	58
1.23367	58
1.23733	57
1.24100	57
1.24467	56
1.24833	56
1.25200	58
1.25567	62
1.25933	63
1.26300	61
1.26667	61
1.27033	62
1.27400	62
1.27767	61
1.28133	60
1.28500	59
1.28867	58
1.29233	61
1.29600	64
1.29967	63
1.30333	59
1.30700	59
1.31067	61
1.31433	63
1.31800	65
1.32167	66
1.32533	66
1.32900	65
1.33267	63
1.33633	61
1.34000	61
1.34367	62
1.34733	64
1.35100	66
1.35467	64
1.35833	64
1.36200	64
1.36567	64
1.36933	66
1.37300	67
1.37667	65
1.38033	64
1.38400	63
1.38767	63
1.39133	62
1.39500	63
1.39867	63
1.40233	64
1.40600	65
1.40967	66
1.41333	67
1.41700	66
1.42067	65
1.42433	65
1.42800	67
1.43167	68
1.43533	67
1.43900	65
1.44267	62
1.44633	61
1.45000	63
1.45367	66
1.45733	67
1.46100	68
1.46467	68
1.46833	65
1.47200	63
1.47567	64
1.47933	65
1.48300	69
1.48667	73
1.49033	74
1.49400	73
1.49767	73
1.50133	72
1.50500	71
1.50867	72
1.51233	73
1.51600	73
1.51967	70
1.52333	70
1.52700	69
1.53067	69
1.53433	66
1.53800	63
1.54167	61
1.54533	63
1.54900	63
1.55267	62
1.55633	64
1.56000	65
1.56367	66
1.56733	65
1.57100	63
1.57467	63
1.57833	65
1.58200	67
1.58567	67
1.58933	63
1.59300	62
1.59667	62
1.60033	63
1.60400	63
1.60767	64
1.61133	66
1.61500	71
1.61867	73
1.62233	75
1.62600	78
1.62967	82
1.63333	82
1.63700	80
1.64067	80
1.64433	78
1.64800	76
1.65167	73
1.65533	71
1.65900	70
1.66267	69
1.66633	67
1.67000	66
1.67367	67
1.67733	68
1.68100	71
1.68467	73
1.68833	73
1.69200	73
1.69567	75
1.69933	78
1.70300	79
1.70667	78
1.71033	79
1.71400	80
1.71767	81
1.72133	83
1.72500	83
1.72867	86
1.73233	87
1.73600	89
1.73967	89
1.74333	90
1.74700	89
1.75067	89
1.75433	89
1.75800	89
1.76167	88
1.76533	88
1.76900	88
1.77267	88
1.77633	90
1.78000	90
1.78367	90
1.78733	92
1.79100	95
1.79467	97
1.79833	100
1.80200	101
1.80567	102
1.80933	102
1.81300	104
1.81667	105
1.82033	107
1.82400	107
1.82767	106
1.83133	105
1.83500	104
1.83867	104
1.84233	104
1.84600	105
1.84967	107
1.85333	108
1.85700	110
1.86067	109
1.86433	108
1.86800	108
1.87167	109
1.87533	108
1.87900	108
1.88267	109
1.88633	110
1.89000	109
1.89367	108
1.89733	108
1.90100	108
1.90467	109
1.90833	109
1.91200	107
1.91567	108
1.91933	111
1.92300	114
1.92667	114
1.93033	114
1.93400	116
1.93767	118
1.94133	122
1.94500	123
1.94867	121
1.95233	122
1.95600	123
1.95967	124
1.96333	125
1.96700	125
1.97067	125
1.97433	127
1.97800	127
1.98167	128
1.98533	127
1.98900	127
1.99267	128
1.99633	130
2.00000	133
2.00367	135
2.00733	136
2.01100	137
2.01467	137
2.01833	138
2.02200	138
2.02567	137
2.02933	136
2.03300	138
2.03667	142
2.04033	144
2.04400	145
2.04767	145
2.05133	145
2.05500	147
2.05867	148
2.06233	150
2.06600	152
2.06967	153
2.07333	151
2.07700	151
2.08067	151
2.08433	150
2.08800	148
2.09167	148
2.09533	151
2.09900	153
2.10267	156
2.10633	157
2.11000	156
2.11367	159
2.11733	163
2.12100	164
2.12467	165
2.12833	167
2.13200	167
2.13567	169
2.13933	172
2.14300	173
2.14667	174
2.15033	176
2.15400	178
2.15767	177
2.16133	176
2.16500	178
2.16867	180
2.17233	181
2.17600	183
2.17967	184
2.18333	187
2.18700	187
2.19067	188
2.19433	190
2.19800	191
2.20167	192
2.20533	190
2.20900	188
2.21267	187
2.21633	185
2.22000	184
2.22367	185
2.22733	186
2.23100	188
2.23467	190
2.23833	192
2.24200	194
2.24567	195
2.24933	195
2.25300	195
2.25667	195
2.26033	197
2.26400	200
2.26767	200
2.27133	199
2.27500	200
2.27867	200
2.28233	201
2.28600	202
2.28967	204
2.29333	204
2.29700	206
2.30067	205
2.30433	206
2.30800	209
2.31167	210
2.31533	209
2.31900	208
2.32267	206
2.32633	207
2.33000	205
2.33367	206
2.33733	207
2.34100	207
2.34467	209
2.34833	211
2.35200	212
2.35567	215
2.35933	214
2.36300	213
2.36667	214
2.37033	215
2.37400	216
2.37767	219
2.38133	222
2.38500	221
2.38867	219
2.39233	217
2.39600	216
2.39967	215
2.40333	215
2.40700	215
2.41067	216
2.41433	217
2.41800	217
2.42167	218
2.42533	222
2.42900	227
2.43267	229
2.43633	230
2.44000	231
2.44367	238
2.44733	259
2.45100	284
2.45467	304
2.45833	308
2.46200	298
2.46567	285
2.46933	274
2.47300	266
2.47667	261
2.48033	253
2.48400	244
2.48767	235
2.49133	225
2.49500	216
2.49867	210
2.50233	206
2.50600	204
2.50967	203
2.51333	203
2.51700	202
2.52067	199
2.52433	196
2.52800	193
2.53167	188
2.53533	182
2.53900	179
2.54267	178
2.54633	173
2.55000	168
2.55367	164
2.55733	160
2.56100	155
2.56467	152
2.56833	149
2.57200	148
2.57567	146
2.57933	145
2.58300	141
2.58667	138
2.59033	138
2.59400	136
2.59767	134
2.60133	132
2.60500	133
2.60867	135
2.61233	135
2.61600	134
2.61967	131
2.62333	129
2.62700	124
2.63067	116
2.63433	103
2.63800	89
2.64167	72
2.64533	54
2.64900	41
2.65267	33
2.65633	28
2.66000	25
2.66367	23
2.66733	24
2.67100	24
2.67467	27
2.67833	30
2.68200	33
2.68567	33
2.68933	32
2.69300	33
2.69667	37
2.70033	40
2.70400	43
2.70767	46
2.71133	47
2.71500	48
2.71867	48
2.72233	50
2.72600	53
2.72967	58
2.73333	63
2.73700	65
2.74067	65
2.74433	66
2.74800	69
2.75167	69
2.75533	70
2.75900	70
2.76267	69
2.76633	69
2.77000	70
2.77367	72
2.77733	74
2.78100	78
2.78467	81
2.78833	81
2.79200	80
2.79567	78
2.79933	80
2.80300	82
2.80667	84
2.81033	85
2.81400	84
2.81767	85
2.82133	87
2.82500	86
2.82867	85
2.83233	85
2.83600	85
2.83967	90
2.84333	98
2.84700	116
2.85067	149
2.85433	215
2.85800	329
2.86167	500
2.86533	727
2.86900	997
2.87267	1279
2.87633	1541
2.88000	1755
2.88367	1900
2.88733	1970
2.89100	1970
2.89467	1912
2.89833	1809
2.90200	1678
2.90567	1536
2.90933	1389
2.91300	1244
2.91667	1106
2.92033	978
2.92400	863
2.92767	763
2.93133	673
2.93500	594
2.93867	525
2.94233	463
2.94600	411
2.94967	366
2.95333	326
2.95700	291
2.96067	262
2.96433	235
2.96800	211
2.97167	192
2.97533	175
2.97900	161
2.98267	149
2.98633	138
2.99000	129
2.99367	121
2.99733	115
3.00100	109
3.00467	106
3.00833	100
3.01200	93
3.01567	89
3.01933	88
3.02300	86
3.02667	83
3.03033	82
3.03400	80
3.03767	80
3.04133	79
3.04500	77
3.04867	76
3.05233	75
3.05600	73
3.05967	73
3.06333	73
3.06700	73
3.07067	73
3.07433	70
3.07800	67
3.08167	65
3.08533	64
3.08900	63
3.09267	64
3.09633	68
3.10000	67
3.10367	64
3.10733	61
3.11100	61
3.11467	60
3.11833	59
3.12200	59
3.12567	59
3.12933	60
3.13300	60
3.13667	61
3.14033	64
3.14400	63
3.14767	61
3.15133	59
3.15500	59
3.15867	60
3.16233	60
3.16600	62
3.16967	62
3.17333	60
3.17700	59
3.18067	61
3.18433	61
3.18800	61
3.19167	62
3.19533	62
3.19900	61
3.20267	62
3.20633	62
3.21000	61
3.21367	57
3.21733	54
3.22100	53
3.22467	55
3.22833	57
3.23200	58
3.23567	57
3.23933	57
3.24300	57
3.24667	59
3.25033	58
3.25400	56
3.25767	55
3.26133	56
3.26500	56
3.26867	57
3.27233	58
3.27600	57
3.27967	56
3.28333	53
3.28700	50
3.29067	50
3.29433	50
3.29800	51
3.30167	50
3.30533	48
3.30900	49
3.31267	51
3.31633	51
3.32000	52
3.32367	52
3.32733	35
3.33100	-7
3.33467	-45
3.33833	-60
3.34200	-54
3.34567	-37
3.34933	-15
3.35300	6
3.35667	28
3.36033	51
3.36400	77
3.36767	103
3.37133	126
3.37500	147
3.37867	165
3.38233	182
3.38600	200
3.38967	217
3.39333	236
3.39700	257
3.40067	279
3.40433	300
3.40800	322
3.41167	342
3.41533	363
3.41900	381
3.42267	400
3.42633	416
3.43000	431
3.43367	446
3.43733	458
3.44100	467
3.44467	475
3.44833	484
3.45200	491
3.45567	498
3.45933	500
3.46300	502
3.46667	505
3.47033	509
3.47400	513
3.47767	515
3.48133	513
3.48500	512
3.48867	513
3.49233	512
3.49600	510
3.49967	510
3.50333	512
3.50700	512
3.51067	511
3.51433	510
3.51800	509
3.52167	505
3.52533	504
3.52900	505
3.53267	506
3.53633	507
3.54000	506
3.54367	504
3.54733	501
3.55100	496
3.55467	495
3.55833	496
3.56200	498
3.56567	499
3.56933	498
3.57300	496
3.57667	494
3.58033	494
3.58400	492
3.58767	491
3.59133	491
3.59500	491
3.59867	493
3.60233	493
3.60600	494
3.60967	497
3.61333	498
3.61700	496
3.62067	492
3.62433	490
3.62800	489
3.63167	489
3.63533	490
3.63900	491
3.64267	492
3.64633	493
3.65000	493
3.65367	493
3.65733	494
3.66100	496
3.66467	497
3.66833	495
3.67200	489
3.67567	486
3.67933	485
3.68300	485
3.68667	486
3.69033	486
3.69400	484
3.69767	484
3.70133	484
3.70500	484
3.70867	485
3.71233	485
3.71600	485
3.71967	483
3.72333	480
3.72700	478
3.73067	477
3.73433	476
3.73800	475
3.74167	474
3.74533	473
3.74900	473
3.75267	472
3.75633	469
3.76000	466
3.76367	465
3.76733	463
3.77100	462
3.77467	460
3.77833	457
3.78200	455
3.78567	455
3.78933	453
3.79300	452
3.79667	452
3.80033	451
3.80400	451
3.80767	452
3.81133	454
3.81500	453
3.81867	450
3.82233	448
3.82600	447
3.82967	448
3.83333	448
3.83700	449
3.84067	446
3.84433	442
3.84800	443
3.85167	445
3.85533	446
3.85900	445
3.86267	444
3.86633	441
3.87000	438
3.87367	435
3.87733	429
3.88100	425
3.88467	422
3.88833	423
3.89200	422
3.89567	421
3.89933	419
3.90300	419
3.90667	419
3.91033	420
3.91400	419
3.91767	417
3.92133	416
3.92500	414
3.92867	412
3.93233	411
3.93600	411
3.93967	410
3.94333	408
3.94700	407
3.95067	407
3.95433	407
3.95800	408
3.96167	409
3.96533	409
3.96900	407
3.97267	404
3.97633	400
3.98000	398
3.98367	397
3.98733	397
3.99100	397
3.99467	396
3.99833	393

[Status Trace (Column Oven Temperature)]
Interval(msec)	1000
# of Points	240
Start Time(min)	0.012
End Time(min)	3.995
Intensity Units	
Intensity Multiplier	1
R.Time (min)	Intensity
0.01173	35.04
0.02840	35.05
0.04507	35.05
0.06173	35.05
0.07840	35.04
0.09507	35.03
0.11173	35.03
0.12840	35.03
0.14507	35.05
0.16173	35.07
0.17840	35.08
0.19507	35.07
0.21173	35.06
0.22840	35.06
0.24507	35.07
0.26173	35.07
0.27840	35.05
0.29507	35.03
0.31173	35.02
0.32840	35.01
0.34507	35.00
0.36173	34.98
0.37840	34.98
0.39507	34.98
0.41173	34.97
0.42840	34.98
0.44507	34.97
0.46173	34.96
0.47840	34.96
0.49507	34.96
0.51173	34.96
0.52840	34.96
0.54507	34.96
0.56173	34.97
0.57840	34.98
0.59507	34.98
0.61173	34.98
0.62840	34.98
0.64507	34.98
0.66173	34.98
0.67840	34.98
0.69507	34.98
0.71173	34.99
0.72840	34.98
0.74507	34.97
0.76173	34.97
0.77840	34.98
0.79507	34.98
0.81173	34.98
0.82840	34.98
0.84507	34.99
0.86173	35.00
0.87840	35.01
0.89507	35.00
0.91173	35.00
0.92840	34.99
0.94507	34.98
0.96173	34.98
0.97840	34.99
0.99507	35.00
1.01173	35.01
1.02840	35.01
1.04507	34.99
1.06173	34.97
1.07840	34.97
1.09507	34.96
1.11173	34.96
1.12840	34.96
1.14507	34.96
1.16173	34.97
1.17840	34.97
1.19507	34.98
1.21173	34.99
1.22840	34.98
1.24507	34.98
1.26173	34.98
1.27840	34.98
1.29507	34.98
1.31173	34.99
1.32840	34.99
1.34507	35.00
1.36173	35.00
1.37840	34.99
1.39507	34.98
1.41173	34.97
1.42840	34.97
1.44507	34.98
1.46173	34.98
1.47840	34.97
1.49507	34.97
1.51173	34.97
1.52840	34.98
1.54507	35.00
1.56173	35.01
1.57840	35.03
1.59507	35.06
1.61173	35.12
1.62840	35.24
1.64507	35.43
1.66173	35.68
1.67840	36.03
1.69507	36.39
1.71173	36.76
1.72840	37.07
1.74507	37.41
1.76173	37.75
1.77840	38.05
1.79507	38.38
1.81173	38.73
1.82840	39.07
1.84507	39.40
1.86173	39.75
1.87840	40.04
1.89507	40.39
1.91173	40.71
1.92840	41.03
1.94507	41.38
1.96173	41.70
1.97840	42.03
1.99507	42.36
2.01173	42.67
2.02840	42.99
2.04507	43.33
2.06173	43.64
2.07840	43.97
2.09507	44.31
2.11173	44.63
2.12840	44.94
2.14507	45.27
2.16173	45.58
2.17840	45.90
2.19507	46.24
2.21173	46.54
2.22840	46.92
2.24507	47.26
2.26173	47.57
2.27840	47.92
2.29507	48.24
2.31173	48.57
2.32840	48.89
2.34507	49.20
2.36173	49.52
2.37840	49.71
2.39507	49.76
2.41173	49.75
2.42840	49.74
2.44507	49.76
2.46173	49.77
2.47840	49.79
2.49507	49.78
2.51173	49.80
2.52840	49.79
2.54507	49.81
2.56173	49.81
2.57840	49.81
2.59507	49.82
2.61173	49.83
2.62840	49.83
2.64507	49.84
2.66173	49.84
2.67840	49.86
2.69507	49.86
2.71173	49.85
2.72840	49.85
2.74507	49.85
2.76173	49.89
2.77840	49.92
2.79507	49.94
2.81173	49.94
2.82840	49.94
2.84507	49.93
2.86173	49.92
2.87840	49.92
2.89507	49.93
2.91173	49.94
2.92840	49.95
2.94507	49.96
2.96173	49.97
2.97840	49.99
2.99507	50.00
3.01173	50.02
3.02840	50.04
3.04507	50.05
3.06173	50.05
3.07840	50.06
3.09507	50.06
3.11173	50.07
3.12840	50.09
3.14507	50.10
3.16173	50.10
3.17840	50.10
3.19507	50.10
3.21173	50.10
3.22840	50.09
3.24507	50.08
3.26173	50.08
3.27840	50.08
3.29507	50.08
3.31173	50.08
3.32840	50.08
3.34507	50.07
3.36173	50.08
3.37840	50.07
3.39507	50.07
3.41173	50.08
3.42840	50.09
3.44507	50.09
3.46173	50.08
3.47840	50.08
3.49507	50.08
3.51173	50.08
3.52840	50.08
3.54507	50.08
3.56173	50.09
3.57840	50.08
3.59507	50.09
3.61173	50.10
3.62840	50.09
3.64507	50.08
3.66173	50.09
3.67840	50.10
3.69507	50.10
3.71173	50.10
3.72840	50.10
3.74507	50.10
3.76173	50.10
3.77840	50.09
3.79507	50.11
3.81173	50.11
3.82840	50.10
3.84507	50.08
3.86173	50.06
3.87840	50.04
3.89507	50.03
3.91173	50.02
3.92840	50.01
3.94507	50.01
3.96173	50.02
3.97840	50.01
3.99507	50.02

[Status Trace (Injection Unit Temperature)]
Interval(msec)	1000
# of Points	240
Start Time(min)	0.012
End Time(min)	3.995
Intensity Units	
Intensity Multiplier	1
R.Time (min)	Intensity
0.01173	99.98
0.02840	99.98
0.04507	99.99
0.06173	99.98
0.07840	99.98
0.09507	99.99
0.11173	99.99
0.12840	99.98
0.14507	99.99
0.16173	99.99
0.17840	99.99
0.19507	99.99
0.21173	99.99
0.22840	99.99
0.24507	99.98
0.26173	99.99
0.27840	99.99
0.29507	99.99
0.31173	99.99
0.32840	99.99
0.34507	99.99
0.36173	99.99
0.37840	99.99
0.39507	99.99
0.41173	99.99
0.42840	99.99
0.44507	99.99
0.46173	99.99
0.47840	99.98
0.49507	99.98
0.51173	99.99
0.52840	99.99
0.54507	99.99
0.56173	99.99
0.57840	99.99
0.59507	99.99
0.61173	99.98
0.62840	99.99
0.64507	99.99
0.66173	99.98
0.67840	99.97
0.69507	99.97
0.71173	99.98
0.72840	99.98
0.74507	99.98
0.76173	99.98
0.77840	99.98
0.79507	99.98
0.81173	99.98
0.82840	99.98
0.84507	99.97
0.86173	99.98
0.87840	99.98
0.89507	99.98
0.91173	99.98
0.92840	99.98
0.94507	99.98
0.96173	99.97
0.97840	99.98
0.99507	99.97
1.01173	99.98
1.02840	99.97
1.04507	99.98
1.06173	99.98
1.07840	99.97
1.09507	99.98
1.11173	99.98
1.12840	99.97
1.14507	99.98
1.16173	99.98
1.17840	99.98
1.19507	99.98
1.21173	99.98
1.22840	99.97
1.24507	99.98
1.26173	99.98
1.27840	99.98
1.29507	99.98
1.31173	99.98
1.32840	99.98
1.34507	99.98
1.36173	99.98
1.37840	99.98
1.39507	99.98
1.41173	99.97
1.42840	99.98
1.44507	99.98
1.46173	99.98
1.47840	99.98
1.49507	99.98
1.51173	99.98
1.52840	99.99
1.54507	99.98
1.56173	99.98
1.57840	99.98
1.59507	99.98
1.61173	99.98
1.62840	99.98
1.64507	99.98
1.66173	99.99
1.67840	99.99
1.69507	99.99
1.71173	99.98
1.72840	99.98
1.74507	99.98
1.76173	99.98
1.77840	99.98
1.79507	99.98
1.81173	99.99
1.82840	99.98
1.84507	99.98
1.86173	99.98
1.87840	99.98
1.89507	99.98
1.91173	99.98
1.92840	99.98
1.94507	99.97
1.96173	99.98
1.97840	99.98
1.99507	99.98
2.01173	99.98
2.02840	99.98
2.04507	99.98
2.06173	99.98
2.07840	99.98
2.09507	99.98
2.11173	99.98
2.12840	99.98
2.14507	99.97
2.16173	99.97
2.17840	99.98
2.19507	99.98
2.21173	99.97
2.22840	99.97
2.24507	99.97
2.26173	99.97
2.27840	99.97
2.29507	99.98
2.31173	99.97
2.32840	99.97
2.34507	99.98
2.36173	99.97
2.37840	99.98
2.39507	99.98
2.41173	99.97
2.42840	99.97
2.44507	99.97
2.46173	99.97
2.47840	99.97
2.49507	99.98
2.51173	99.98
2.52840	99.97
2.54507	99.98
2.56173	99.98
2.57840	99.97
2.59507	99.98
2.61173	99.98
2.62840	99.98
2.64507	99.98
2.66173	99.98
2.67840	99.98
2.69507	99.98
2.71173	99.98
2.72840	99.98
2.74507	99.99
2.76173	99.98
2.77840	99.99
2.79507	99.99
2.81173	99.99
2.82840	99.99
2.84507	99.99
2.86173	99.99
2.87840	100.00
2.89507	100.00
2.91173	100.00
2.92840	99.99
2.94507	100.00
2.96173	100.00
2.97840	100.00
2.99507	100.00
3.01173	100.00
3.02840	100.00
3.04507	100.01
3.06173	100.00
3.07840	100.01
3.09507	100.01
3.11173	100.01
3.12840	100.02
3.14507	100.01
3.16173	100.02
3.17840	100.02
3.19507	100.02
3.21173	100.02
3.22840	100.02
3.24507	100.02
3.26173	100.02
3.27840	100.03
3.29507	100.03
3.31173	100.02
3.32840	100.03
3.34507	100.03
3.36173	100.03
3.37840	100.03
3.39507	100.03
3.41173	100.03
3.42840	100.03
3.44507	100.04
3.46173	100.04
3.47840	100.04
3.49507	100.04
3.51173	100.04
3.52840	100.04
3.54507	100.05
3.56173	100.04
3.57840	100.04
3.59507	100.04
3.61173	100.04
3.62840	100.04
3.64507	100.05
3.66173	100.05
3.67840	100.04
3.69507	100.05
3.71173	100.05
3.72840	100.05
3.74507	100.05
3.76173	100.05
3.77840	100.05
3.79507	100.05
3.81173	100.04
3.82840	100.05
3.84507	100.05
3.86173	100.04
3.87840	100.05
3.89507	100.05
3.91173	100.05
3.92840	100.05
3.94507	100.04
3.96173	100.04
3.97840	100.05
3.99507	100.05

[Status Trace (Carrier Gas Pressure)]
Interval(msec)	1000
# of Points	240
Start Time(min)	0.012
End Time(min)	3.995
Intensity Units	
Intensity Multiplier	1
R.Time (min)	Intensity
0.01173	58.00
0.02840	54.99
0.04507	57.57
0.06173	59.64
0.07840	59.11
0.09507	58.01
0.11173	57.99
0.12840	58.01
0.14507	58.01
0.16173	58.00
0.17840	58.00
0.19507	58.00
0.21173	58.00
0.22840	58.00
0.24507	58.00
0.26173	58.00
0.27840	58.00
0.29507	58.00
0.31173	58.00
0.32840	58.00
0.34507	58.00
0.36173	58.00
0.37840	58.00
0.39507	58.00
0.41173	58.00
0.42840	58.00
0.44507	58.00
0.46173	58.00
0.47840	58.00
0.49507	58.00
0.51173	58.00
0.52840	58.00
0.54507	58.00
0.56173	58.00
0.57840	58.00
0.59507	58.00
0.61173	58.00
0.62840	58.00
0.64507	58.00
0.66173	58.00
0.67840	58.00
0.69507	58.00
0.71173	58.00
0.72840	58.00
0.74507	58.00
0.76173	58.00
0.77840	58.00
0.79507	58.00
0.81173	58.00
0.82840	58.00
0.84507	58.00
0.86173	58.00
0.87840	58.00
0.89507	58.00
0.91173	58.00
0.92840	58.00
0.94507	58.00
0.96173	58.00
0.97840	58.00
0.99507	58.00
1.01173	58.00
1.02840	58.00
1.04507	58.00
1.06173	58.00
1.07840	58.00
1.09507	58.00
1.11173	58.00
1.12840	58.00
1.14507	58.00
1.16173	58.00
1.17840	58.00
1.19507	58.00
1.21173	58.00
1.22840	58.00
1.24507	58.00
1.26173	58.00
1.27840	58.00
1.29507	58.00
1.31173	58.00
1.32840	58.00
1.34507	58.00
1.36173	58.00
1.37840	58.00
1.39507	58.00
1.41173	58.00
1.42840	58.00
1.44507	58.00
1.46173	58.00
1.47840	58.00
1.49507	58.00
1.51173	58.00
1.52840	58.00
1.54507	58.00
1.56173	58.00
1.57840	58.00
1.59507	58.00
1.61173	58.00
1.62840	58.00
1.64507	58.01
1.66173	58.00
1.67840	58.01
1.69507	58.00
1.71173	58.00
1.72840	58.00
1.74507	58.00
1.76173	58.00
1.77840	58.00
1.79507	58.00
1.81173	58.00
1.82840	58.00
1.84507	58.00
1.86173	58.00
1.87840	58.00
1.89507	58.00
1.91173	58.00
1.92840	58.00
1.94507	58.00
1.96173	58.00
1.97840	58.00
1.99507	58.00
2.01173	58.00
2.02840	58.00
2.04507	58.00
2.06173	58.00
2.07840	58.00
2.09507	58.00
2.11173	58.00
2.12840	58.00
2.14507	58.00
2.16173	58.00
2.17840	58.00
2.19507	58.00
2.21173	58.00
2.22840	58.00
2.24507	58.00
2.26173	58.00
2.27840	58.00
2.29507	58.00
2.31173	58.00
2.32840	58.00
2.34507	58.00
2.36173	58.00
2.37840	58.00
2.39507	57.99
2.41173	57.99
2.42840	58.00
2.44507	58.00
2.46173	58.00
2.47840	58.00
2.49507	58.00
2.51173	57.99
2.52840	57.98
2.54507	58.00
2.56173	58.00
2.57840	58.00
2.59507	58.00
2.61173	58.00
2.62840	58.00
2.64507	58.00
2.66173	58.00
2.67840	58.00
2.69507	58.00
2.71173	58.00
2.72840	58.00
2.74507	58.00
2.76173	58.00
2.77840	58.00
2.79507	58.00
2.81173	58.00
2.82840	58.00
2.84507	58.00
2.86173	58.00
2.87840	58.00
2.89507	58.00
2.91173	58.00
2.92840	58.00
2.94507	58.00
2.96173	58.00
2.97840	58.00
2.99507	58.00
3.01173	58.00
3.02840	58.00
3.04507	58.00
3.06173	58.00
3.07840	58.00
3.09507	58.00
3.11173	58.00
3.12840	58.00
3.14507	58.00
3.16173	58.00
3.17840	58.00
3.19507	58.00
3.21173	58.00
3.22840	58.00
3.24507	58.00
3.26173	58.00
3.27840	58.00
3.29507	58.00
3.31173	58.00
3.32840	58.00
3.34507	58.00
3.36173	58.00
3.37840	58.00
3.39507	58.00
3.41173	58.00
3.42840	58.00
3.44507	58.00
3.46173	58.00
3.47840	58.00
3.49507	58.00
3.51173	58.00
3.52840	58.00
3.54507	58.00
3.56173	58.00
3.57840	58.00
3.59507	58.00
3.61173	58.00
3.62840	58.00
3.64507	58.00
3.66173	58.00
3.67840	58.00
3.69507	58.00
3.71173	58.00
3.72840	58.00
3.74507	58.00
3.76173	58.00
3.77840	58.00
3.79507	58.00
3.81173	58.00
3.82840	58.00
3.84507	58.00
3.86173	58.00
3.87840	58.00
3.89507	58.00
3.91173	58.00
3.92840	58.00
3.94507	58.00
3.96173	58.00
3.97840	58.00
3.99507	58.00

[Status Trace (Carrier Gas Flow)]
Interval(msec)	1000
# of Points	240
Start Time(min)	0.012
End Time(min)	3.995
Intensity Units	
Intensity Multiplier	1
R.Time (min)	Intensity
0.01173	34.52
0.02840	34.54
0.04507	34.54
0.06173	34.55
0.07840	34.49
0.09507	34.52
0.11173	34.52
0.12840	34.53
0.14507	34.51
0.16173	34.52
0.17840	34.52
0.19507	34.52
0.21173	34.52
0.22840	34.52
0.24507	34.52
0.26173	34.52
0.27840	34.52
0.29507	34.52
0.31173	34.52
0.32840	34.52
0.34507	34.52
0.36173	34.52
0.37840	34.52
0.39507	34.52
0.41173	34.52
0.42840	34.52
0.44507	34.52
0.46173	34.52
0.47840	34.52
0.49507	34.52
0.51173	34.52
0.52840	34.52
0.54507	34.52
0.56173	34.52
0.57840	34.52
0.59507	34.52
0.61173	34.52
0.62840	34.52
0.64507	34.52
0.66173	34.52
0.67840	34.52
0.69507	34.52
0.71173	34.52
0.72840	34.52
0.74507	34.52
0.76173	34.52
0.77840	34.52
0.79507	34.52
0.81173	34.52
0.82840	34.52
0.84507	34.52
0.86173	34.52
0.87840	34.52
0.89507	34.52
0.91173	34.52
0.92840	34.52
0.94507	34.52
0.96173	34.52
0.97840	34.52
0.99507	34.52
1.01173	34.52
1.02840	34.52
1.04507	34.52
1.06173	34.52
1.07840	34.52
1.09507	34.52
1.11173	34.52
1.12840	34.52
1.14507	34.52
1.16173	34.52
1.17840	34.52
1.19507	34.52
1.21173	34.52
1.22840	34.52
1.24507	34.52
1.26173	34.52
1.27840	34.52
1.29507	34.52
1.31173	34.52
1.32840	34.52
1.34507	34.52
1.36173	34.52
1.37840	34.52
1.39507	34.52
1.41173	34.52
1.42840	34.52
1.44507	34.52
1.46173	34.52
1.47840	34.52
1.49507	34.52
1.51173	34.52
1.52840	34.52
1.54507	34.52
1.56173	34.52
1.57840	34.52
1.59507	34.52
1.61173	34.52
1.62840	34.52
1.64507	34.52
1.66173	34.52
1.67840	34.52
1.69507	34.52
1.71173	34.52
1.72840	34.52
1.74507	34.52
1.76173	34.52
1.77840	34.52
1.79507	34.52
1.81173	34.52
1.82840	34.52
1.84507	34.52
1.86173	34.52
1.87840	34.52
1.89507	34.52
1.91173	34.52
1.92840	34.52
1.94507	34.52
1.96173	34.52
1.97840	34.52
1.99507	34.52
2.01173	34.52
2.02840	34.52
2.04507	34.52
2.06173	34.52
2.07840	34.52
2.09507	34.52
2.11173	34.52
2.12840	34.52
2.14507	34.52
2.16173	34.52
2.17840	34.52
2.19507	34.52
2.21173	34.53
2.22840	34.52
2.24507	34.52
2.26173	34.52
2.27840	34.52
2.29507	34.52
2.31173	34.52
2.32840	34.52
2.34507	34.52
2.36173	34.52
2.37840	34.52
2.39507	34.52
2.41173	34.52
2.42840	34.51
2.44507	34.53
2.46173	34.51
2.47840	34.50
2.49507	34.52
2.51173	34.52
2.52840	34.52
2.54507	34.52
2.56173	34.52
2.57840	34.52
2.59507	34.52
2.61173	34.52
2.62840	34.52
2.64507	34.52
2.66173	34.52
2.67840	34.52
2.69507	34.52
2.71173	34.52
2.72840	34.52
2.74507	34.52
2.76173	34.52
2.77840	34.52
2.79507	34.52
2.81173	34.52
2.82840	34.52
2.84507	34.52
2.86173	34.52
2.87840	34.52
2.89507	34.52
2.91173	34.52
2.92840	34.52
2.94507	34.52
2.96173	34.52
2.97840	34.52
2.99507	34.52
3.01173	34.52
3.02840	34.52
3.04507	34.52
3.06173	34.52
3.07840	34.52
3.09507	34.52
3.11173	34.52
3.12840	34.51
3.14507	34.52
3.16173	34.52
3.17840	34.52
3.19507	34.52
3.21173	34.52
3.22840	34.52
3.24507	34.52
3.26173	34.52
3.27840	34.52
3.29507	34.52
3.31173	34.52
3.32840	34.52
3.34507	34.51
3.36173	34.52
3.37840	34.52
3.39507	34.53
3.41173	34.53
3.42840	34.52
3.44507	34.52
3.46173	34.52
3.47840	34.52
3.49507	34.52
3.51173	34.52
3.52840	34.52
3.54507	34.52
3.56173	34.52
3.57840	34.51
3.59507	34.52
3.61173	34.52
3.62840	34.52
3.64507	34.51
3.66173	34.52
3.67840	34.52
3.69507	34.52
3.71173	34.52
3.72840	34.52
3.74507	34.52
3.76173	34.52
3.77840	34.52
3.79507	34.52
3.81173	34.52
3.82840	34.52
3.84507	34.52
3.86173	34.52
3.87840	34.52
3.89507	34.52
3.91173	34.52
3.92840	34.52
3.94507	34.52
3.96173	34.52
3.97840	34.52
3.99507	34.52

[Status Trace (Column Flow)]
Interval(msec)	1000
# of Points	240
Start Time(min)	0.012
End Time(min)	3.995
Intensity Units	
Intensity Multiplier	1
R.Time (min)	Intensity
0.01173	5.56
0.02840	5.21
0.04507	5.51
0.06173	5.75
0.07840	5.69
0.09507	5.56
0.11173	5.56
0.12840	5.56
0.14507	5.56
0.16173	5.56
0.17840	5.56
0.19507	5.56
0.21173	5.56
0.22840	5.56
0.24507	5.56
0.26173	5.56
0.27840	5.56
0.29507	5.56
0.31173	5.56
0.32840	5.56
0.34507	5.56
0.36173	5.56
0.37840	5.56
0.39507	5.56
0.41173	5.56
0.42840	5.56
0.44507	5.56
0.46173	5.56
0.47840	5.56
0.49507	5.56
0.51173	5.56
0.52840	5.56
0.54507	5.56
0.56173	5.56
0.57840	5.56
0.59507	5.56
0.61173	5.56
0.62840	5.56
0.64507	5.56
0.66173	5.56
0.67840	5.56
0.69507	5.56
0.71173	5.56
0.72840	5.56
0.74507	5.56
0.76173	5.56
0.77840	5.56
0.79507	5.56
0.81173	5.56
0.82840	5.56
0.84507	5.56
0.86173	5.56
0.87840	5.56
0.89507	5.56
0.91173	5.56
0.92840	5.56
0.94507	5.56
0.96173	5.56
0.97840	5.56
0.99507	5.56
1.01173	5.56
1.02840	5.56
1.04507	5.56
1.06173	5.56
1.07840	5.56
1.09507	5.56
1.11173	5.56
1.12840	5.56
1.14507	5.56
1.16173	5.56
1.17840	5.56
1.19507	5.56
1.21173	5.56
1.22840	5.56
1.24507	5.56
1.26173	5.56
1.27840	5.56
1.29507	5.56
1.31173	5.56
1.32840	5.56
1.34507	5.56
1.36173	5.56
1.37840	5.56
1.39507	5.56
1.41173	5.56
1.42840	5.56
1.44507	5.56
1.46173	5.56
1.47840	5.56
1.49507	5.56
1.51173	5.56
1.52840	5.56
1.54507	5.56
1.56173	5.56
1.57840	5.56
1.59507	5.56
1.61173	5.55
1.62840	5.55
1.64507	5.54
1.66173	5.54
1.67840	5.53
1.69507	5.51
1.71173	5.50
1.72840	5.49
1.74507	5.48
1.76173	5.47
1.77840	5.46
1.79507	5.45
1.81173	5.44
1.82840	5.43
1.84507	5.42
1.86173	5.41
1.87840	5.40
1.89507	5.39
1.91173	5.38
1.92840	5.37
1.94507	5.36
1.96173	5.35
1.97840	5.34
1.99507	5.33
2.01173	5.32
2.02840	5.31
2.04507	5.30
2.06173	5.29
2.07840	5.28
2.09507	5.27
2.11173	5.26
2.12840	5.26
2.14507	5.25
2.16173	5.24
2.17840	5.23
2.19507	5.22
2.21173	5.21
2.22840	5.20
2.24507	5.19
2.26173	5.18
2.27840	5.17
2.29507	5.16
2.31173	5.15
2.32840	5.14
2.34507	5.13
2.36173	5.13
2.37840	5.12
2.39507	5.12
2.41173	5.12
2.42840	5.12
2.44507	5.12
2.46173	5.12
2.47840	5.12
2.49507	5.12
2.51173	5.12
2.52840	5.12
2.54507	5.12
2.56173	5.12
2.57840	5.12
2.59507	5.12
2.61173	5.12
2.62840	5.12
2.64507	5.12
2.66173	5.12
2.67840	5.12
2.69507	5.12
2.71173	5.12
2.72840	5.12
2.74507	5.12
2.76173	5.12
2.77840	5.11
2.79507	5.11
2.81173	5.11
2.82840	5.11
2.84507	5.11
2.86173	5.11
2.87840	5.11
2.89507	5.11
2.91173	5.11
2.92840	5.11
2.94507	5.11
2.96173	5.11
2.97840	5.11
2.99507	5.11
3.01173	5.11
3.02840	5.11
3.04507	5.11
3.06173	5.11
3.07840	5.11
3.09507	5.11
3.11173	5.11
3.12840	5.11
3.14507	5.11
3.16173	5.11
3.17840	5.11
3.19507	5.11
3.21173	5.11
3.22840	5.11
3.24507	5.11
3.26173	5.11
3.27840	5.11
3.29507	5.11
3.31173	5.11
3.32840	5.11
3.34507	5.11
3.36173	5.11
3.37840	5.11
3.39507	5.11
3.41173	5.11
3.42840	5.11
3.44507	5.11
3.46173	5.11
3.47840	5.11
3.49507	5.11
3.51173	5.11
3.52840	5.11
3.54507	5.11
3.56173	5.11
3.57840	5.11
3.59507	5.11
3.61173	5.11
3.62840	5.11
3.64507	5.11
3.66173	5.11
3.67840	5.11
3.69507	5.11
3.71173	5.11
3.72840	5.11
3.74507	5.11
3.76173	5.11
3.77840	5.11
3.79507	5.11
3.81173	5.11
3.82840	5.11
3.84507	5.11
3.86173	5.11
3.87840	5.11
3.89507	5.11
3.91173	5.11
3.92840	5.11
3.94507	5.11
3.96173	5.11
3.97840	5.11
3.99507	5.11

[Status Trace (Linear Velocity)]
Interval(msec)	1000
# of Points	240
Start Time(min)	0.012
End Time(min)	3.995
Intensity Units	
Intensity Multiplier	1
R.Time (min)	Intensity
0.01173	39.02
0.02840	37.04
0.04507	38.74
0.06173	40.09
0.07840	39.75
0.09507	39.03
0.11173	39.02
0.12840	39.03
0.14507	39.03
0.16173	39.02
0.17840	39.02
0.19507	39.02
0.21173	39.02
0.22840	39.02
0.24507	39.02
0.26173	39.02
0.27840	39.02
0.29507	39.02
0.31173	39.02
0.32840	39.02
0.34507	39.03
0.36173	39.03
0.37840	39.03
0.39507	39.03
0.41173	39.03
0.42840	39.03
0.44507	39.03
0.46173	39.03
0.47840	39.03
0.49507	39.03
0.51173	39.03
0.52840	39.03
0.54507	39.03
0.56173	39.03
0.57840	39.03
0.59507	39.03
0.61173	39.03
0.62840	39.03
0.64507	39.03
0.66173	39.03
0.67840	39.03
0.69507	39.03
0.71173	39.03
0.72840	39.03
0.74507	39.03
0.76173	39.03
0.77840	39.03
0.79507	39.03
0.81173	39.03
0.82840	39.03
0.84507	39.03
0.86173	39.03
0.87840	39.02
0.89507	39.02
0.91173	39.03
0.92840	39.03
0.94507	39.03
0.96173	39.03
0.97840	39.03
0.99507	39.03
1.01173	39.02
1.02840	39.02
1.04507	39.03
1.06173	39.03
1.07840	39.03
1.09507	39.03
1.11173	39.03
1.12840	39.03
1.14507	39.03
1.16173	39.03
1.17840	39.03
1.19507	39.03
1.21173	39.03
1.22840	39.03
1.24507	39.03
1.26173	39.03
1.27840	39.03
1.29507	39.03
1.31173	39.03
1.32840	39.03
1.34507	39.03
1.36173	39.03
1.37840	39.03
1.39507	39.03
1.41173	39.03
1.42840	39.03
1.44507	39.03
1.46173	39.03
1.47840	39.03
1.49507	39.03
1.51173	39.03
1.52840	39.03
1.54507	39.03
1.56173	39.02
1.57840	39.02
1.59507	39.02
1.61173	39.02
1.62840	39.00
1.64507	38.99
1.66173	38.96
1.67840	38.93
1.69507	38.89
1.71173	38.86
1.72840	38.83
1.74507	38.80
1.76173	38.76
1.77840	38.73
1.79507	38.70
1.81173	38.67
1.82840	38.64
1.84507	38.61
1.86173	38.57
1.87840	38.55
1.89507	38.51
1.91173	38.48
1.92840	38.45
1.94507	38.42
1.96173	38.39
1.97840	38.36
1.99507	38.33
2.01173	38.30
2.02840	38.27
2.04507	38.24
2.06173	38.21
2.07840	38.18
2.09507	38.15
2.11173	38.12
2.12840	38.09
2.14507	38.07
2.16173	38.04
2.17840	38.01
2.19507	37.98
2.21173	37.95
2.22840	37.92
2.24507	37.88
2.26173	37.86
2.27840	37.83
2.29507	37.80
2.31173	37.77
2.32840	37.74
2.34507	37.71
2.36173	37.68
2.37840	37.66
2.39507	37.66
2.41173	37.66
2.42840	37.66
2.44507	37.66
2.46173	37.66
2.47840	37.66
2.49507	37.66
2.51173	37.65
2.52840	37.65
2.54507	37.66
2.56173	37.66
2.57840	37.66
2.59507	37.66
2.61173	37.66
2.62840	37.66
2.64507	37.65
2.66173	37.65
2.67840	37.65
2.69507	37.65
2.71173	37.65
2.72840	37.65
2.74507	37.65
2.76173	37.65
2.77840	37.65
2.79507	37.65
2.81173	37.65
2.82840	37.65
2.84507	37.65
2.86173	37.65
2.87840	37.65
2.89507	37.65
2.91173	37.65
2.92840	37.65
2.94507	37.64
2.96173	37.64
2.97840	37.64
2.99507	37.64
3.01173	37.64
3.02840	37.64
3.04507	37.64
3.06173	37.64
3.07840	37.64
3.09507	37.64
3.11173	37.63
3.12840	37.63
3.14507	37.63
3.16173	37.63
3.17840	37.63
3.19507	37.63
3.21173	37.63
3.22840	37.63
3.24507	37.63
3.26173	37.63
3.27840	37.63
3.29507	37.63
3.31173	37.63
3.32840	37.63
3.34507	37.63
3.36173	37.63
3.37840	37.63
3.39507	37.63
3.41173	37.63
3.42840	37.63
3.44507	37.63
3.46173	37.63
3.47840	37.63
3.49507	37.63
3.51173	37.63
3.52840	37.63
3.54507	37.63
3.56173	37.63
3.57840	37.63
3.59507	37.63
3.61173	37.63
3.62840	37.63
3.64507	37.63
3.66173	37.63
3.67840	37.63
3.69507	37.63
3.71173	37.63
3.72840	37.63
3.74507	37.63
3.76173	37.63
3.77840	37.63
3.79507	37.63
3.81173	37.63
3.82840	37.63
3.84507	37.63
3.86173	37.64
3.87840	37.64
3.89507	37.64
3.91173	37.64
3.92840	37.64
3.94507	37.64
3.96173	37.64
3.97840	37.64
3.99507	37.64

