[Header]
Application Name	LabSolutions
Version	5.110
Data File Name	C:\Users\User\Desktop\GC Analyses\Jack\UIC Prairie Sampling\9.2.22\220902_029.gcd
Output Date	10/28/2022
Output Time	1:23:53 PM

[File Information]
Type	Data File
Generated	10/25/2022 2:26:05 PM
Generated by	System Administrator
Modified	10/25/2022 2:30:36 PM
Modified by	System Administrator

[Sample Information]
Operator Name	System Administrator
Acquired	10/25/2022 2:26:35 PM
Sample Type	1:Standard
Level	1
Sample Name	220902_UICPrairie
Sample ID	220902_UICPrairie
ISTD Amount1	1
ISTD Amount2	1
ISTD Amount3	1
ISTD Amount4	1
ISTD Amount5	1
ISTD Amount6	1
ISTD Amount7	1
ISTD Amount8	1
ISTD Amount9	1
ISTD Amount10	1
ISTD Amount11	1
ISTD Amount12	1
ISTD Amount13	1
ISTD Amount14	1
ISTD Amount15	1
ISTD Amount16	1
ISTD Amount17	1
ISTD Amount18	1
ISTD Amount19	1
ISTD Amount20	1
ISTD Amount21	1
ISTD Amount22	1
ISTD Amount23	1
ISTD Amount24	1
ISTD Amount25	1
ISTD Amount26	1
ISTD Amount27	1
ISTD Amount28	1
ISTD Amount29	1
ISTD Amount30	1
ISTD Amount31	1
ISTD Amount32	1
Sample Amount	1
Dilution Factor	1
Vial#	1
Injection Volume	1
Injection Count	1
Bar Code	

[Original Files]
Data File	C:\Users\User\Desktop\GC Analyses\Jack\UIC Prairie Sampling\9.2.22\220902_029.gcd
Method File	C:\LabSolutions\Data\GHG_4min_2022\ghg3_togas_w_acet_4 min_new_int.gcm
Batch File	
Report Format File	c:\LabSolutions\System\DEFAULT.lsr

[File Description]


[Configuration]
Instrument Name	C0B7VH3-Instrument1
Instrument #	1
Line #	1
# of Detectors	3
Detector ID	DET#1	DET#2	DET#3
Detector Name	FID	PTCD	ECD
# of Channels	1	1	1

[Peak Table(Ch1)]
# of Peaks	3
Peak#	R.Time	I.Time	F.Time	Area	Height	A/H	Conc.	Mark	ID#	Name	k'	Plate #	Plate Ht.	Tailing	Resolution	Sep.Factor	Area Ratio	Height Ratio	Conc. %	Norm Conc.
1	1.472	1.435	1.534	4280	1501	2.851	100.000	   	1	CO	0.000	5807	25.831	0.000	0.000	0.000	0	0	16.667	16.667
2	1.571	1.534	1.641	19989	10152	1.969	100.000	 V 	2	CH4	0.067	11698	12.822	1.133	1.463	0.000	0	0	16.667	16.667
3	1.996	1.952	2.326	2111626	1032180	2.046	400.000	   	3	CO2	0.356	17861	8.398	1.305	7.218	5.296	0	0	66.667	66.667

[Peak Table(Ch2)]
# of Peaks	0

[Peak Table(Ch3)]
# of Peaks	2
Peak#	R.Time	I.Time	F.Time	Area	Height	A/H	Conc.	Mark	ID#	Name	k'	Plate #	Plate Ht.	Tailing	Resolution	Sep.Factor	Area Ratio	Height Ratio	Conc. %	Norm Conc.
1	2.594	1.901	2.656	8255	675	12.234	0.000	   			0.000	1975	75.931	0.000	0.000	0.000	0	0	0.000	0.000
2	2.884	2.656	3.874	81884	16091	5.089	1.000	 V 	1	N2O	0.112	12149	12.347	1.706	1.713	0.000	0	0	100.000	100.000

[Compound Results(Ch1)]
# of IDs	6
ID#	Name	R.Time	Area	Height	Conc.	Curve	3rd	2nd	1st	Constant	Area Ratio	Height Ratio	Conc. %	Norm Conc.
1	CO	1.472	4280	1501	100.000	Linear	0.000000e+00	0.000000e+00	4.280239e+001	0.000000e+00	0	0	16.667	16.667
2	CH4	1.571	19989	10152	100.000	Linear	0.000000e+00	0.000000e+00	1.998935e+002	0.000000e+00	0	0	16.667	16.667
3	CO2	1.996	2111626	1032180	400.000	Linear	0.000000e+00	0.000000e+00	5.279064e+003	0.000000e+00	0	0	66.667	66.667
4	Ethylene	0.000	0	0	0.000	Linear	0.000000e+00	0.000000e+00	0.000000e+00	0.000000e+00	0	0	0.000	0.000
5	Acetylene	0.000	0	0	0.000	Linear	0.000000e+00	0.000000e+00	0.000000e+00	0.000000e+00	0	0	0.000	0.000
6	Ethane	0.000	0	0	0.000	Linear	0.000000e+00	0.000000e+00	0.000000e+00	0.000000e+00	0	0	0.000	0.000

[Compound Results(Ch2)]
# of IDs	5
ID#	Name	R.Time	Area	Height	Conc.	Curve	3rd	2nd	1st	Constant	Area Ratio	Height Ratio	Conc. %	Norm Conc.
1	Hydrogen	0.000	0	0	0.000	Linear	0.000000e+00	0.000000e+00	0.000000e+00	0.000000e+00	0	0	0.000	0.000
2	Oxygen	0.000	0	0	0.000	Linear	0.000000e+00	0.000000e+00	0.000000e+00	0.000000e+00	0	0	0.000	0.000
3	Nitrogen	0.000	0	0	0.000	Linear	0.000000e+00	0.000000e+00	0.000000e+00	0.000000e+00	0	0	0.000	0.000
4	Methane	0.000	0	0	0.000	Linear	0.000000e+00	0.000000e+00	0.000000e+00	0.000000e+00	0	0	0.000	0.000
5	Carbon Monoxide	0.000	0	0	0.000	Linear	0.000000e+00	0.000000e+00	0.000000e+00	0.000000e+00	0	0	0.000	0.000

[Compound Results(Ch3)]
# of IDs	2
ID#	Name	R.Time	Area	Height	Conc.	Curve	3rd	2nd	1st	Constant	Area Ratio	Height Ratio	Conc. %	Norm Conc.
1	N2O	2.884	81884	16091	1.000	Linear	0.000000e+00	0.000000e+00	8.188380e+004	0.000000e+00	0	0	100.000	100.000
2	SF6	0.000	0	0	0.000	Linear	0.000000e+00	0.000000e+00	0.000000e+00	0.000000e+00	0	0	0.000	0.000

[Group Results(Ch1)]
# of Groups	0

[Group Results(Ch2)]
# of Groups	0

[Group Results(Ch3)]
# of Groups	0

[Chromatogram (Ch1)]
Interval(msec)	220
# of Points	1091
Start Time(min)	0.002
End Time(min)	3.998
R.Time (min)	Intensity
0.00167	-42
0.00533	-56
0.00900	-63
0.01267	-65
0.01633	-65
0.02000	-59
0.02367	-54
0.02733	-53
0.03100	-54
0.03467	-53
0.03833	-52
0.04200	-49
0.04567	-45
0.04933	-40
0.05300	-35
0.05667	-31
0.06033	-31
0.06400	-32
0.06767	-35
0.07133	-39
0.07500	-44
0.07867	-44
0.08233	-37
0.08600	-29
0.08967	-23
0.09333	-21
0.09700	-23
0.10067	-26
0.10433	-31
0.10800	-36
0.11167	-41
0.11533	-45
0.11900	-48
0.12267	-51
0.12633	-51
0.13000	-49
0.13367	-46
0.13733	-43
0.14100	-41
0.14467	-42
0.14833	-46
0.15200	-50
0.15567	-50
0.15933	-46
0.16300	-42
0.16667	-40
0.17033	-39
0.17400	-42
0.17767	-48
0.18133	-56
0.18500	-64
0.18867	-70
0.19233	-73
0.19600	-69
0.19967	-62
0.20333	-56
0.20700	-52
0.21067	-47
0.21433	-42
0.21800	-36
0.22167	-30
0.22533	-26
0.22900	-25
0.23267	-28
0.23633	-36
0.24000	-47
0.24367	-56
0.24733	-59
0.25100	-57
0.25467	-53
0.25833	-50
0.26200	-49
0.26567	-51
0.26933	-55
0.27300	-55
0.27667	-50
0.28033	-48
0.28400	-53
0.28767	-61
0.29133	-67
0.29500	-70
0.29867	-70
0.30233	-69
0.30600	-64
0.30967	-58
0.31333	-53
0.31700	-52
0.32067	-53
0.32433	-51
0.32800	-47
0.33167	-44
0.33533	-43
0.33900	-44
0.34267	-48
0.34633	-54
0.35000	-60
0.35367	-63
0.35733	-61
0.36100	-59
0.36467	-58
0.36833	-59
0.37200	-62
0.37567	-66
0.37933	-70
0.38300	-77
0.38667	-81
0.39033	-82
0.39400	-79
0.39767	-75
0.40133	-70
0.40500	-61
0.40867	-53
0.41233	-49
0.41600	-50
0.41967	-55
0.42333	-58
0.42700	-58
0.43067	-57
0.43433	-57
0.43800	-57
0.44167	-57
0.44533	-55
0.44900	-52
0.45267	-50
0.45633	-49
0.46000	-49
0.46367	-49
0.46733	-48
0.47100	-48
0.47467	-48
0.47833	-48
0.48200	-49
0.48567	-49
0.48933	-50
0.49300	-50
0.49667	-49
0.50033	-50
0.50400	-54
0.50767	-60
0.51133	-65
0.51500	-71
0.51867	-78
0.52233	-82
0.52600	-86
0.52967	-90
0.53333	-95
0.53700	-98
0.54067	-98
0.54433	-94
0.54800	-87
0.55167	-80
0.55533	-75
0.55900	-70
0.56267	-69
0.56633	-69
0.57000	-66
0.57367	-61
0.57733	-59
0.58100	-62
0.58467	-68
0.58833	-73
0.59200	-76
0.59567	-75
0.59933	-67
0.60300	-59
0.60667	-54
0.61033	-52
0.61400	-55
0.61767	-60
0.62133	-67
0.62500	-76
0.62867	-85
0.63233	-91
0.63600	-94
0.63967	-96
0.64333	-95
0.64700	-93
0.65067	-93
0.65433	-92
0.65800	-90
0.66167	-88
0.66533	-85
0.66900	-81
0.67267	-78
0.67633	-79
0.68000	-80
0.68367	-77
0.68733	-73
0.69100	-73
0.69467	-76
0.69833	-77
0.70200	-78
0.70567	-81
0.70933	-85
0.71300	-90
0.71667	-94
0.72033	-96
0.72400	-94
0.72767	-90
0.73133	-86
0.73500	-83
0.73867	-79
0.74233	-74
0.74600	-70
0.74967	-74
0.75333	-83
0.75700	-93
0.76067	-97
0.76433	-98
0.76800	-99
0.77167	-100
0.77533	-99
0.77900	-98
0.78267	-98
0.78633	-100
0.79000	-101
0.79367	-102
0.79733	-101
0.80100	-96
0.80467	-92
0.80833	-89
0.81200	-89
0.81567	-92
0.81933	-94
0.82300	-97
0.82667	-99
0.83033	-100
0.83400	-99
0.83767	-97
0.84133	-95
0.84500	-95
0.84867	-93
0.85233	-87
0.85600	-80
0.85967	-77
0.86333	-78
0.86700	-83
0.87067	-90
0.87433	-97
0.87800	-101
0.88167	-102
0.88533	-100
0.88900	-96
0.89267	-90
0.89633	-86
0.90000	-86
0.90367	-89
0.90733	-94
0.91100	-98
0.91467	-103
0.91833	-108
0.92200	-113
0.92567	-115
0.92933	-113
0.93300	-112
0.93667	-113
0.94033	-114
0.94400	-115
0.94767	-115
0.95133	-114
0.95500	-116
0.95867	-117
0.96233	-116
0.96600	-112
0.96967	-107
0.97333	-100
0.97700	-95
0.98067	-92
0.98433	-93
0.98800	-96
0.99167	-98
0.99533	-99
0.99900	-97
1.00267	-97
1.00633	-102
1.01000	-105
1.01367	-104
1.01733	-104
1.02100	-107
1.02467	-111
1.02833	-110
1.03200	-108
1.03567	-105
1.03933	-104
1.04300	-105
1.04667	-107
1.05033	-112
1.05400	-116
1.05767	-117
1.06133	-119
1.06500	-119
1.06867	-115
1.07233	-109
1.07600	-102
1.07967	-100
1.08333	-103
1.08700	-108
1.09067	-114
1.09433	-121
1.09800	-127
1.10167	-131
1.10533	-131
1.10900	-126
1.11267	-120
1.11633	-114
1.12000	-110
1.12367	-107
1.12733	-110
1.13100	-109
1.13467	-110
1.13833	-115
1.14200	-122
1.14567	-127
1.14933	-130
1.15300	-129
1.15667	-124
1.16033	-116
1.16400	-106
1.16767	-100
1.17133	-102
1.17500	-106
1.17867	-111
1.18233	-114
1.18600	-116
1.18967	-116
1.19333	-119
1.19700	-120
1.20067	-119
1.20433	-119
1.20800	-121
1.21167	-123
1.21533	-122
1.21900	-119
1.22267	-118
1.22633	-119
1.23000	-123
1.23367	-128
1.23733	-130
1.24100	-132
1.24467	-135
1.24833	-136
1.25200	-133
1.25567	-131
1.25933	-134
1.26300	-137
1.26667	-136
1.27033	-132
1.27400	-129
1.27767	-125
1.28133	-121
1.28500	-118
1.28867	-121
1.29233	-123
1.29600	-125
1.29967	-127
1.30333	-128
1.30700	-129
1.31067	-127
1.31433	-123
1.31800	-118
1.32167	-115
1.32533	-116
1.32900	-120
1.33267	-123
1.33633	-123
1.34000	-122
1.34367	-120
1.34733	-121
1.35100	-119
1.35467	-117
1.35833	-116
1.36200	-116
1.36567	-114
1.36933	-112
1.37300	-115
1.37667	-120
1.38033	-125
1.38400	-127
1.38767	-127
1.39133	-129
1.39500	-133
1.39867	-139
1.40233	-143
1.40600	-144
1.40967	-141
1.41333	-137
1.41700	-135
1.42067	-139
1.42433	-141
1.42800	-140
1.43167	-139
1.43533	-136
1.43900	-118
1.44267	-31
1.44633	183
1.45000	492
1.45367	797
1.45733	1040
1.46100	1207
1.46467	1309
1.46833	1357
1.47200	1367
1.47567	1345
1.47933	1297
1.48300	1214
1.48667	1086
1.49033	923
1.49400	747
1.49767	579
1.50133	432
1.50500	309
1.50867	211
1.51233	135
1.51600	77
1.51967	33
1.52333	1
1.52700	-24
1.53067	-44
1.53433	-53
1.53800	-19
1.54167	188
1.54533	845
1.54900	2176
1.55267	4050
1.55633	6060
1.56000	7831
1.56367	9165
1.56733	9942
1.57100	10021
1.57467	9324
1.57833	7981
1.58200	6322
1.58567	4693
1.58933	3308
1.59300	2236
1.59667	1458
1.60033	917
1.60400	557
1.60767	322
1.61133	169
1.61500	71
1.61867	6
1.62233	-41
1.62600	-74
1.62967	-97
1.63333	-112
1.63700	-122
1.64067	-128
1.64433	-128
1.64800	-131
1.65167	-137
1.65533	-145
1.65900	-149
1.66267	-149
1.66633	-148
1.67000	-145
1.67367	-144
1.67733	-144
1.68100	-143
1.68467	-145
1.68833	-151
1.69200	-158
1.69567	-163
1.69933	-165
1.70300	-163
1.70667	-161
1.71033	-161
1.71400	-161
1.71767	-158
1.72133	-155
1.72500	-152
1.72867	-145
1.73233	-138
1.73600	-136
1.73967	-137
1.74333	-136
1.74700	-133
1.75067	-132
1.75433	-134
1.75800	-138
1.76167	-144
1.76533	-148
1.76900	-153
1.77267	-155
1.77633	-155
1.78000	-153
1.78367	-148
1.78733	-141
1.79100	-135
1.79467	-130
1.79833	-130
1.80200	-132
1.80567	-138
1.80933	-144
1.81300	-147
1.81667	-148
1.82033	-148
1.82400	-147
1.82767	-144
1.83133	-141
1.83500	-140
1.83867	-139
1.84233	-139
1.84600	-138
1.84967	-139
1.85333	-141
1.85700	-143
1.86067	-145
1.86433	-146
1.86800	-146
1.87167	-144
1.87533	-141
1.87900	-137
1.88267	-133
1.88633	-127
1.89000	-121
1.89367	-118
1.89733	-120
1.90100	-128
1.90467	-137
1.90833	-142
1.91200	-143
1.91567	-140
1.91933	-138
1.92300	-139
1.92667	-142
1.93033	-144
1.93400	-143
1.93767	-139
1.94133	-134
1.94500	-133
1.94867	-133
1.95233	-119
1.95600	-10
1.95967	668
1.96333	4028
1.96700	16625
1.97067	52636
1.97433	131869
1.97800	267188
1.98167	450103
1.98533	650962
1.98900	833210
1.99267	966728
1.99633	1032093
2.00000	1021725
2.00367	941580
2.00733	810735
2.01100	655816
2.01467	502408
2.01833	368186
2.02200	260928
2.02567	180708
2.02933	123479
2.03300	83959
2.03667	57243
2.04033	39409
2.04400	27568
2.04767	19695
2.05133	14424
2.05500	10854
2.05867	8398
2.06233	6672
2.06600	5428
2.06967	4509
2.07333	3817
2.07700	3283
2.08067	2861
2.08433	2526
2.08800	2256
2.09167	2030
2.09533	1839
2.09900	1676
2.10267	1536
2.10633	1415
2.11000	1313
2.11367	1224
2.11733	1145
2.12100	1070
2.12467	1000
2.12833	939
2.13200	886
2.13567	838
2.13933	795
2.14300	755
2.14667	719
2.15033	686
2.15400	654
2.15767	624
2.16133	598
2.16500	574
2.16867	550
2.17233	527
2.17600	504
2.17967	482
2.18333	460
2.18700	441
2.19067	427
2.19433	415
2.19800	405
2.20167	396
2.20533	388
2.20900	379
2.21267	370
2.21633	360
2.22000	346
2.22367	332
2.22733	319
2.23100	307
2.23467	295
2.23833	286
2.24200	281
2.24567	277
2.24933	270
2.25300	261
2.25667	253
2.26033	247
2.26400	246
2.26767	247
2.27133	245
2.27500	243
2.27867	243
2.28233	240
2.28600	233
2.28967	224
2.29333	213
2.29700	200
2.30067	188
2.30433	178
2.30800	172
2.31167	168
2.31533	163
2.31900	159
2.32267	155
2.32633	152
2.33000	149
2.33367	148
2.33733	146
2.34100	146
2.34467	148
2.34833	153
2.35200	157
2.35567	161
2.35933	165
2.36300	165
2.36667	164
2.37033	158
2.37400	152
2.37767	148
2.38133	143
2.38500	136
2.38867	131
2.39233	130
2.39600	133
2.39967	138
2.40333	146
2.40700	153
2.41067	158
2.41433	158
2.41800	153
2.42167	147
2.42533	143
2.42900	141
2.43267	141
2.43633	144
2.44000	146
2.44367	144
2.44733	139
2.45100	135
2.45467	134
2.45833	133
2.46200	131
2.46567	127
2.46933	125
2.47300	126
2.47667	126
2.48033	125
2.48400	126
2.48767	130
2.49133	133
2.49500	132
2.49867	132
2.50233	132
2.50600	133
2.50967	133
2.51333	126
2.51700	119
2.52067	116
2.52433	120
2.52800	126
2.53167	132
2.53533	135
2.53900	132
2.54267	126
2.54633	119
2.55000	115
2.55367	114
2.55733	112
2.56100	110
2.56467	108
2.56833	105
2.57200	104
2.57567	102
2.57933	99
2.58300	95
2.58667	91
2.59033	88
2.59400	89
2.59767	91
2.60133	93
2.60500	92
2.60867	91
2.61233	93
2.61600	99
2.61967	108
2.62333	115
2.62700	119
2.63067	119
2.63433	118
2.63800	114
2.64167	108
2.64533	101
2.64900	97
2.65267	96
2.65633	98
2.66000	101
2.66367	104
2.66733	108
2.67100	111
2.67467	113
2.67833	112
2.68200	107
2.68567	103
2.68933	101
2.69300	101
2.69667	102
2.70033	107
2.70400	111
2.70767	111
2.71133	108
2.71500	106
2.71867	109
2.72233	113
2.72600	116
2.72967	113
2.73333	107
2.73700	101
2.74067	98
2.74433	102
2.74800	107
2.75167	112
2.75533	112
2.75900	105
2.76267	97
2.76633	92
2.77000	92
2.77367	98
2.77733	103
2.78100	104
2.78467	104
2.78833	102
2.79200	102
2.79567	101
2.79933	101
2.80300	99
2.80667	93
2.81033	88
2.81400	87
2.81767	90
2.82133	90
2.82500	89
2.82867	89
2.83233	94
2.83600	104
2.83967	114
2.84333	121
2.84700	123
2.85067	121
2.85433	115
2.85800	109
2.86167	107
2.86533	107
2.86900	109
2.87267	111
2.87633	113
2.88000	115
2.88367	116
2.88733	113
2.89100	110
2.89467	107
2.89833	106
2.90200	107
2.90567	105
2.90933	107
2.91300	116
2.91667	128
2.92033	134
2.92400	134
2.92767	127
2.93133	117
2.93500	106
2.93867	99
2.94233	97
2.94600	100
2.94967	104
2.95333	107
2.95700	107
2.96067	109
2.96433	112
2.96800	114
2.97167	116
2.97533	119
2.97900	120
2.98267	118
2.98633	115
2.99000	112
2.99367	112
2.99733	115
3.00100	119
3.00467	124
3.00833	127
3.01200	126
3.01567	122
3.01933	118
3.02300	117
3.02667	117
3.03033	116
3.03400	112
3.03767	108
3.04133	104
3.04500	98
3.04867	92
3.05233	87
3.05600	86
3.05967	89
3.06333	94
3.06700	97
3.07067	97
3.07433	96
3.07800	96
3.08167	100
3.08533	108
3.08900	111
3.09267	101
3.09633	102
3.10000	106
3.10367	110
3.10733	111
3.11100	110
3.11467	108
3.11833	106
3.12200	105
3.12567	109
3.12933	113
3.13300	113
3.13667	109
3.14033	101
3.14400	94
3.14767	88
3.15133	86
3.15500	90
3.15867	90
3.16233	87
3.16600	85
3.16967	84
3.17333	86
3.17700	88
3.18067	89
3.18433	90
3.18800	95
3.19167	102
3.19533	108
3.19900	110
3.20267	110
3.20633	105
3.21000	99
3.21367	92
3.21733	84
3.22100	93
3.22467	95
3.22833	92
3.23200	98
3.23567	101
3.23933	102
3.24300	106
3.24667	109
3.25033	112
3.25400	109
3.25767	111
3.26133	109
3.26500	104
3.26867	100
3.27233	99
3.27600	100
3.27967	100
3.28333	95
3.28700	89
3.29067	84
3.29433	84
3.29800	88
3.30167	95
3.30533	102
3.30900	104
3.31267	103
3.31633	104
3.32000	105
3.32367	106
3.32733	105
3.33100	104
3.33467	101
3.33833	99
3.34200	100
3.34567	99
3.34933	99
3.35300	94
3.35667	89
3.36033	89
3.36400	101
3.36767	105
3.37133	102
3.37500	97
3.37867	93
3.38233	93
3.38600	97
3.38967	102
3.39333	105
3.39700	105
3.40067	102
3.40433	93
3.40800	83
3.41167	80
3.41533	83
3.41900	90
3.42267	101
3.42633	111
3.43000	117
3.43367	114
3.43733	109
3.44100	108
3.44467	109
3.44833	107
3.45200	105
3.45567	103
3.45933	102
3.46300	99
3.46667	95
3.47033	93
3.47400	95
3.47767	99
3.48133	100
3.48500	99
3.48867	97
3.49233	96
3.49600	95
3.49967	96
3.50333	98
3.50700	100
3.51067	101
3.51433	100
3.51800	98
3.52167	98
3.52533	100
3.52900	105
3.53267	111
3.53633	116
3.54000	120
3.54367	123
3.54733	122
3.55100	116
3.55467	110
3.55833	108
3.56200	106
3.56567	102
3.56933	99
3.57300	99
3.57667	100
3.58033	104
3.58400	107
3.58767	106
3.59133	107
3.59500	105
3.59867	105
3.60233	104
3.60600	103
3.60967	103
3.61333	103
3.61700	103
3.62067	107
3.62433	112
3.62800	115
3.63167	118
3.63533	118
3.63900	115
3.64267	110
3.64633	106
3.65000	100
3.65367	94
3.65733	93
3.66100	93
3.66467	93
3.66833	93
3.67200	95
3.67567	100
3.67933	107
3.68300	114
3.68667	119
3.69033	123
3.69400	126
3.69767	125
3.70133	121
3.70500	116
3.70867	111
3.71233	104
3.71600	96
3.71967	92
3.72333	93
3.72700	98
3.73067	104
3.73433	108
3.73800	110
3.74167	112
3.74533	113
3.74900	112
3.75267	109
3.75633	102
3.76000	95
3.76367	87
3.76733	84
3.77100	86
3.77467	88
3.77833	89
3.78200	92
3.78567	96
3.78933	102
3.79300	107
3.79667	110
3.80033	113
3.80400	113
3.80767	109
3.81133	102
3.81500	94
3.81867	90
3.82233	91
3.82600	92
3.82967	92
3.83333	93
3.83700	95
3.84067	98
3.84433	102
3.84800	104
3.85167	103
3.85533	105
3.85900	107
3.86267	109
3.86633	107
3.87000	100
3.87367	95
3.87733	104
3.88100	112
3.88467	115
3.88833	115
3.89200	110
3.89567	102
3.89933	96
3.90300	92
3.90667	91
3.91033	91
3.91400	91
3.91767	90
3.92133	90
3.92500	92
3.92867	91
3.93233	89
3.93600	89
3.93967	93
3.94333	100
3.94700	103
3.95067	102
3.95433	97
3.95800	90
3.96167	87
3.96533	88
3.96900	92
3.97267	95
3.97633	97
3.98000	93
3.98367	84
3.98733	73
3.99100	64
3.99467	63
3.99833	64

[Chromatogram (Ch2)]
Interval(msec)	220
# of Points	1091
Start Time(min)	0.002
End Time(min)	3.998
R.Time (min)	Intensity
0.00167	-0
0.00533	-0
0.00900	-0
0.01267	-0
0.01633	-0
0.02000	-0
0.02367	-0
0.02733	-0
0.03100	-0
0.03467	-0
0.03833	-1
0.04200	-1
0.04567	-1
0.04933	-1
0.05300	-1
0.05667	-1
0.06033	-1
0.06400	-1
0.06767	-2
0.07133	-2
0.07500	-2
0.07867	-3
0.08233	-3
0.08600	-3
0.08967	-3
0.09333	-3
0.09700	-3
0.10067	-3
0.10433	-3
0.10800	-4
0.11167	-4
0.11533	-4
0.11900	-4
0.12267	-4
0.12633	-4
0.13000	-4
0.13367	-4
0.13733	-3
0.14100	-4
0.14467	-4
0.14833	-4
0.15200	-4
0.15567	-3
0.15933	-3
0.16300	-3
0.16667	-2
0.17033	-2
0.17400	-1
0.17767	-1
0.18133	-1
0.18500	-1
0.18867	-1
0.19233	-2
0.19600	-2
0.19967	-2
0.20333	-2
0.20700	-2
0.21067	-3
0.21433	-3
0.21800	-3
0.22167	-3
0.22533	-3
0.22900	-2
0.23267	-2
0.23633	-2
0.24000	-1
0.24367	-1
0.24733	-1
0.25100	-1
0.25467	-1
0.25833	-1
0.26200	-1
0.26567	-1
0.26933	-1
0.27300	-1
0.27667	-1
0.28033	-1
0.28400	-1
0.28767	-1
0.29133	-1
0.29500	-1
0.29867	-1
0.30233	-1
0.30600	-1
0.30967	-1
0.31333	-1
0.31700	-1
0.32067	-2
0.32433	-2
0.32800	-2
0.33167	-2
0.33533	-2
0.33900	-2
0.34267	-2
0.34633	-2
0.35000	-3
0.35367	-3
0.35733	-3
0.36100	-3
0.36467	-3
0.36833	-3
0.37200	-3
0.37567	-3
0.37933	-3
0.38300	-2
0.38667	-2
0.39033	-2
0.39400	-2
0.39767	-2
0.40133	-2
0.40500	-2
0.40867	-2
0.41233	-2
0.41600	-2
0.41967	-2
0.42333	-3
0.42700	-3
0.43067	-3
0.43433	-3
0.43800	-3
0.44167	-3
0.44533	-3
0.44900	-3
0.45267	-3
0.45633	-3
0.46000	-3
0.46367	-3
0.46733	-3
0.47100	-3
0.47467	-2
0.47833	-2
0.48200	-3
0.48567	-3
0.48933	-3
0.49300	-3
0.49667	-3
0.50033	-3
0.50400	-3
0.50767	-3
0.51133	-3
0.51500	-3
0.51867	-3
0.52233	-3
0.52600	-2
0.52967	-2
0.53333	-2
0.53700	-2
0.54067	-2
0.54433	-2
0.54800	-3
0.55167	-3
0.55533	-3
0.55900	-4
0.56267	-4
0.56633	-4
0.57000	-4
0.57367	-3
0.57733	-3
0.58100	-3
0.58467	-4
0.58833	-4
0.59200	-4
0.59567	-4
0.59933	-4
0.60300	-4
0.60667	-4
0.61033	-4
0.61400	-4
0.61767	-4
0.62133	-4
0.62500	-4
0.62867	-4
0.63233	-4
0.63600	-4
0.63967	-4
0.64333	-4
0.64700	-4
0.65067	-4
0.65433	-4
0.65800	-4
0.66167	-4
0.66533	-4
0.66900	-4
0.67267	-4
0.67633	-3
0.68000	-3
0.68367	-4
0.68733	-4
0.69100	-3
0.69467	-3
0.69833	-3
0.70200	-3
0.70567	-3
0.70933	-3
0.71300	-3
0.71667	-3
0.72033	-3
0.72400	-3
0.72767	-3
0.73133	-3
0.73500	-3
0.73867	-3
0.74233	-3
0.74600	-3
0.74967	-4
0.75333	-4
0.75700	-4
0.76067	-4
0.76433	-5
0.76800	-5
0.77167	-5
0.77533	-4
0.77900	-4
0.78267	-4
0.78633	-4
0.79000	-3
0.79367	-3
0.79733	-3
0.80100	-3
0.80467	-3
0.80833	-3
0.81200	-3
0.81567	-4
0.81933	-4
0.82300	-4
0.82667	-4
0.83033	-4
0.83400	-4
0.83767	-4
0.84133	-4
0.84500	-4
0.84867	-4
0.85233	-4
0.85600	-4
0.85967	-4
0.86333	-4
0.86700	-4
0.87067	-4
0.87433	-4
0.87800	-4
0.88167	-4
0.88533	-4
0.88900	-4
0.89267	-4
0.89633	-4
0.90000	-4
0.90367	-4
0.90733	-4
0.91100	-4
0.91467	-5
0.91833	-5
0.92200	-5
0.92567	-5
0.92933	-5
0.93300	-5
0.93667	-5
0.94033	-5
0.94400	-5
0.94767	-5
0.95133	-5
0.95500	-4
0.95867	-4
0.96233	-4
0.96600	-4
0.96967	-4
0.97333	-4
0.97700	-4
0.98067	-4
0.98433	-4
0.98800	-4
0.99167	-4
0.99533	-4
0.99900	-4
1.00267	-4
1.00633	-5
1.01000	-5
1.01367	-5
1.01733	-5
1.02100	-5
1.02467	-4
1.02833	-4
1.03200	-4
1.03567	-4
1.03933	-5
1.04300	-5
1.04667	-5
1.05033	-5
1.05400	-5
1.05767	-4
1.06133	-4
1.06500	-5
1.06867	-5
1.07233	-5
1.07600	-5
1.07967	-5
1.08333	-5
1.08700	-5
1.09067	-5
1.09433	-5
1.09800	-5
1.10167	-5
1.10533	-5
1.10900	-5
1.11267	-5
1.11633	-5
1.12000	-5
1.12367	-5
1.12733	-5
1.13100	-5
1.13467	-5
1.13833	-5
1.14200	-5
1.14567	-6
1.14933	-6
1.15300	-6
1.15667	-7
1.16033	-7
1.16400	-7
1.16767	-7
1.17133	-7
1.17500	-7
1.17867	-7
1.18233	-7
1.18600	-7
1.18967	-6
1.19333	-6
1.19700	-6
1.20067	-6
1.20433	-5
1.20800	-5
1.21167	-5
1.21533	-5
1.21900	-6
1.22267	-6
1.22633	-6
1.23000	-6
1.23367	-6
1.23733	-6
1.24100	-5
1.24467	-5
1.24833	-5
1.25200	-4
1.25567	-4
1.25933	-4
1.26300	-4
1.26667	-4
1.27033	-4
1.27400	-3
1.27767	-3
1.28133	-3
1.28500	-3
1.28867	-3
1.29233	-3
1.29600	-3
1.29967	-3
1.30333	-4
1.30700	-4
1.31067	-4
1.31433	-4
1.31800	-4
1.32167	-5
1.32533	-5
1.32900	-5
1.33267	-5
1.33633	-5
1.34000	-5
1.34367	-6
1.34733	-6
1.35100	-6
1.35467	-6
1.35833	-6
1.36200	-6
1.36567	-6
1.36933	-6
1.37300	-6
1.37667	-7
1.38033	-7
1.38400	-7
1.38767	-7
1.39133	-7
1.39500	-7
1.39867	-7
1.40233	-7
1.40600	-7
1.40967	-6
1.41333	-6
1.41700	-6
1.42067	-6
1.42433	-6
1.42800	-6
1.43167	-6
1.43533	-5
1.43900	-5
1.44267	-5
1.44633	-5
1.45000	-5
1.45367	-6
1.45733	-6
1.46100	-6
1.46467	-6
1.46833	-6
1.47200	-6
1.47567	-6
1.47933	-6
1.48300	-6
1.48667	-6
1.49033	-6
1.49400	-6
1.49767	-6
1.50133	-6
1.50500	-6
1.50867	-6
1.51233	-6
1.51600	-6
1.51967	-5
1.52333	-5
1.52700	-5
1.53067	-5
1.53433	-5
1.53800	-6
1.54167	-6
1.54533	-6
1.54900	-5
1.55267	-5
1.55633	-5
1.56000	-5
1.56367	-5
1.56733	-5
1.57100	-6
1.57467	-6
1.57833	-6
1.58200	-7
1.58567	-7
1.58933	-8
1.59300	-8
1.59667	-9
1.60033	-10
1.60400	-11
1.60767	-12
1.61133	-13
1.61500	-15
1.61867	-17
1.62233	-20
1.62600	-22
1.62967	-25
1.63333	-28
1.63700	-31
1.64067	-35
1.64433	-38
1.64800	-42
1.65167	-46
1.65533	-50
1.65900	-53
1.66267	-57
1.66633	-61
1.67000	-66
1.67367	-70
1.67733	-75
1.68100	-80
1.68467	-85
1.68833	-89
1.69200	-93
1.69567	-96
1.69933	-99
1.70300	-102
1.70667	-104
1.71033	-106
1.71400	-108
1.71767	-109
1.72133	-110
1.72500	-111
1.72867	-111
1.73233	-112
1.73600	-112
1.73967	-112
1.74333	-112
1.74700	-112
1.75067	-112
1.75433	-112
1.75800	-113
1.76167	-114
1.76533	-115
1.76900	-116
1.77267	-117
1.77633	-117
1.78000	-118
1.78367	-119
1.78733	-120
1.79100	-121
1.79467	-121
1.79833	-122
1.80200	-123
1.80567	-123
1.80933	-124
1.81300	-124
1.81667	-124
1.82033	-124
1.82400	-124
1.82767	-125
1.83133	-125
1.83500	-125
1.83867	-125
1.84233	-125
1.84600	-125
1.84967	-125
1.85333	-124
1.85700	-124
1.86067	-123
1.86433	-122
1.86800	-122
1.87167	-121
1.87533	-121
1.87900	-121
1.88267	-121
1.88633	-120
1.89000	-120
1.89367	-120
1.89733	-119
1.90100	-118
1.90467	-118
1.90833	-117
1.91200	-117
1.91567	-117
1.91933	-117
1.92300	-117
1.92667	-118
1.93033	-119
1.93400	-120
1.93767	-120
1.94133	-121
1.94500	-121
1.94867	-121
1.95233	-121
1.95600	-121
1.95967	-120
1.96333	-120
1.96700	-120
1.97067	-120
1.97433	-119
1.97800	-119
1.98167	-119
1.98533	-118
1.98900	-118
1.99267	-118
1.99633	-117
2.00000	-116
2.00367	-116
2.00733	-116
2.01100	-116
2.01467	-116
2.01833	-115
2.02200	-114
2.02567	-113
2.02933	-113
2.03300	-112
2.03667	-111
2.04033	-111
2.04400	-111
2.04767	-110
2.05133	-110
2.05500	-111
2.05867	-111
2.06233	-111
2.06600	-112
2.06967	-112
2.07333	-112
2.07700	-112
2.08067	-111
2.08433	-111
2.08800	-110
2.09167	-109
2.09533	-108
2.09900	-108
2.10267	-108
2.10633	-108
2.11000	-108
2.11367	-108
2.11733	-108
2.12100	-108
2.12467	-109
2.12833	-109
2.13200	-108
2.13567	-108
2.13933	-107
2.14300	-106
2.14667	-106
2.15033	-105
2.15400	-104
2.15767	-103
2.16133	-102
2.16500	-102
2.16867	-102
2.17233	-102
2.17600	-102
2.17967	-103
2.18333	-103
2.18700	-103
2.19067	-103
2.19433	-102
2.19800	-102
2.20167	-101
2.20533	-100
2.20900	-99
2.21267	-99
2.21633	-98
2.22000	-98
2.22367	-97
2.22733	-96
2.23100	-95
2.23467	-94
2.23833	-93
2.24200	-93
2.24567	-93
2.24933	-93
2.25300	-93
2.25667	-93
2.26033	-94
2.26400	-94
2.26767	-94
2.27133	-94
2.27500	-93
2.27867	-93
2.28233	-92
2.28600	-92
2.28967	-92
2.29333	-92
2.29700	-92
2.30067	-92
2.30433	-92
2.30800	-91
2.31167	-91
2.31533	-91
2.31900	-90
2.32267	-90
2.32633	-89
2.33000	-89
2.33367	-88
2.33733	-88
2.34100	-87
2.34467	-86
2.34833	-86
2.35200	-86
2.35567	-86
2.35933	-87
2.36300	-87
2.36667	-87
2.37033	-87
2.37400	-86
2.37767	-84
2.38133	-82
2.38500	-79
2.38867	-76
2.39233	-72
2.39600	-67
2.39967	-63
2.40333	-58
2.40700	-53
2.41067	-48
2.41433	-44
2.41800	-39
2.42167	-36
2.42533	-32
2.42900	-29
2.43267	-27
2.43633	-24
2.44000	-21
2.44367	-19
2.44733	-17
2.45100	-15
2.45467	-13
2.45833	-12
2.46200	-10
2.46567	-8
2.46933	-6
2.47300	-4
2.47667	-2
2.48033	-1
2.48400	1
2.48767	2
2.49133	3
2.49500	3
2.49867	4
2.50233	4
2.50600	4
2.50967	5
2.51333	5
2.51700	5
2.52067	6
2.52433	6
2.52800	7
2.53167	8
2.53533	8
2.53900	9
2.54267	10
2.54633	10
2.55000	11
2.55367	12
2.55733	12
2.56100	12
2.56467	13
2.56833	12
2.57200	12
2.57567	12
2.57933	12
2.58300	12
2.58667	12
2.59033	13
2.59400	14
2.59767	14
2.60133	15
2.60500	16
2.60867	16
2.61233	17
2.61600	17
2.61967	17
2.62333	17
2.62700	17
2.63067	17
2.63433	18
2.63800	17
2.64167	17
2.64533	18
2.64900	17
2.65267	17
2.65633	18
2.66000	18
2.66367	18
2.66733	18
2.67100	18
2.67467	18
2.67833	18
2.68200	18
2.68567	18
2.68933	18
2.69300	19
2.69667	19
2.70033	19
2.70400	19
2.70767	20
2.71133	20
2.71500	21
2.71867	21
2.72233	21
2.72600	21
2.72967	21
2.73333	21
2.73700	21
2.74067	21
2.74433	21
2.74800	21
2.75167	21
2.75533	21
2.75900	21
2.76267	21
2.76633	21
2.77000	21
2.77367	21
2.77733	21
2.78100	21
2.78467	21
2.78833	21
2.79200	21
2.79567	21
2.79933	20
2.80300	20
2.80667	20
2.81033	20
2.81400	21
2.81767	21
2.82133	21
2.82500	21
2.82867	21
2.83233	21
2.83600	21
2.83967	20
2.84333	19
2.84700	18
2.85067	15
2.85433	10
2.85800	2
2.86167	-9
2.86533	-24
2.86900	-44
2.87267	-69
2.87633	-98
2.88000	-134
2.88367	-174
2.88733	-219
2.89100	-269
2.89467	-324
2.89833	-383
2.90200	-445
2.90567	-511
2.90933	-580
2.91300	-652
2.91667	-726
2.92033	-802
2.92400	-881
2.92767	-961
2.93133	-1044
2.93500	-1127
2.93867	-1212
2.94233	-1299
2.94600	-1384
2.94967	-1456
2.95333	-1504
2.95700	-1519
2.96067	-1499
2.96433	-1447
2.96800	-1369
2.97167	-1274
2.97533	-1168
2.97900	-1058
2.98267	-948
2.98633	-843
2.99000	-743
2.99367	-651
2.99733	-568
3.00100	-493
3.00467	-426
3.00833	-367
3.01200	-315
3.01567	-270
3.01933	-230
3.02300	-196
3.02667	-167
3.03033	-142
3.03400	-120
3.03767	-102
3.04133	-86
3.04500	-72
3.04867	-60
3.05233	-50
3.05600	-42
3.05967	-35
3.06333	-29
3.06700	-23
3.07067	-19
3.07433	-15
3.07800	-12
3.08167	-9
3.08533	-7
3.08900	-5
3.09267	-3
3.09633	-1
3.10000	-0
3.10367	1
3.10733	2
3.11100	3
3.11467	4
3.11833	4
3.12200	5
3.12567	6
3.12933	6
3.13300	7
3.13667	7
3.14033	7
3.14400	8
3.14767	8
3.15133	9
3.15500	10
3.15867	11
3.16233	12
3.16600	13
3.16967	13
3.17333	14
3.17700	14
3.18067	15
3.18433	16
3.18800	16
3.19167	17
3.19533	17
3.19900	18
3.20267	18
3.20633	19
3.21000	19
3.21367	20
3.21733	20
3.22100	21
3.22467	21
3.22833	22
3.23200	22
3.23567	23
3.23933	23
3.24300	23
3.24667	23
3.25033	23
3.25400	23
3.25767	23
3.26133	23
3.26500	23
3.26867	23
3.27233	23
3.27600	23
3.27967	23
3.28333	23
3.28700	23
3.29067	24
3.29433	24
3.29800	24
3.30167	24
3.30533	23
3.30900	23
3.31267	23
3.31633	23
3.32000	23
3.32367	23
3.32733	22
3.33100	22
3.33467	22
3.33833	22
3.34200	22
3.34567	22
3.34933	22
3.35300	22
3.35667	22
3.36033	22
3.36400	22
3.36767	22
3.37133	22
3.37500	22
3.37867	22
3.38233	22
3.38600	22
3.38967	22
3.39333	22
3.39700	22
3.40067	22
3.40433	22
3.40800	22
3.41167	23
3.41533	23
3.41900	23
3.42267	24
3.42633	24
3.43000	24
3.43367	24
3.43733	24
3.44100	24
3.44467	23
3.44833	23
3.45200	23
3.45567	23
3.45933	22
3.46300	22
3.46667	22
3.47033	22
3.47400	22
3.47767	22
3.48133	22
3.48500	22
3.48867	22
3.49233	22
3.49600	22
3.49967	22
3.50333	22
3.50700	22
3.51067	22
3.51433	22
3.51800	22
3.52167	22
3.52533	22
3.52900	22
3.53267	22
3.53633	23
3.54000	23
3.54367	23
3.54733	23
3.55100	24
3.55467	24
3.55833	24
3.56200	24
3.56567	24
3.56933	24
3.57300	24
3.57667	24
3.58033	24
3.58400	24
3.58767	24
3.59133	24
3.59500	24
3.59867	24
3.60233	25
3.60600	25
3.60967	25
3.61333	25
3.61700	25
3.62067	25
3.62433	25
3.62800	25
3.63167	25
3.63533	25
3.63900	25
3.64267	24
3.64633	24
3.65000	24
3.65367	24
3.65733	24
3.66100	24
3.66467	24
3.66833	24
3.67200	24
3.67567	24
3.67933	24
3.68300	23
3.68667	23
3.69033	23
3.69400	23
3.69767	23
3.70133	23
3.70500	23
3.70867	23
3.71233	23
3.71600	23
3.71967	23
3.72333	23
3.72700	23
3.73067	23
3.73433	23
3.73800	23
3.74167	24
3.74533	24
3.74900	24
3.75267	24
3.75633	24
3.76000	24
3.76367	24
3.76733	24
3.77100	25
3.77467	25
3.77833	25
3.78200	25
3.78567	25
3.78933	25
3.79300	25
3.79667	25
3.80033	25
3.80400	25
3.80767	25
3.81133	25
3.81500	25
3.81867	25
3.82233	25
3.82600	25
3.82967	25
3.83333	25
3.83700	25
3.84067	25
3.84433	24
3.84800	24
3.85167	24
3.85533	24
3.85900	24
3.86267	24
3.86633	24
3.87000	24
3.87367	24
3.87733	24
3.88100	24
3.88467	24
3.88833	24
3.89200	24
3.89567	24
3.89933	24
3.90300	23
3.90667	23
3.91033	23
3.91400	23
3.91767	23
3.92133	24
3.92500	24
3.92867	24
3.93233	24
3.93600	25
3.93967	25
3.94333	25
3.94700	25
3.95067	25
3.95433	25
3.95800	25
3.96167	25
3.96533	25
3.96900	25
3.97267	25
3.97633	25
3.98000	24
3.98367	24
3.98733	24
3.99100	24
3.99467	24
3.99833	24

[Chromatogram (Ch3)]
Interval(msec)	220
# of Points	1091
Start Time(min)	0.002
End Time(min)	3.998
R.Time (min)	Intensity
0.00167	0
0.00533	1
0.00900	1
0.01267	1
0.01633	1
0.02000	3
0.02367	3
0.02733	4
0.03100	2
0.03467	-0
0.03833	1
0.04200	2
0.04567	3
0.04933	3
0.05300	4
0.05667	5
0.06033	6
0.06400	7
0.06767	10
0.07133	10
0.07500	8
0.07867	7
0.08233	7
0.08600	6
0.08967	4
0.09333	4
0.09700	8
0.10067	10
0.10433	10
0.10800	12
0.11167	13
0.11533	13
0.11900	11
0.12267	9
0.12633	8
0.13000	7
0.13367	8
0.13733	11
0.14100	13
0.14467	14
0.14833	13
0.15200	12
0.15567	10
0.15933	9
0.16300	7
0.16667	6
0.17033	6
0.17400	6
0.17767	6
0.18133	10
0.18500	15
0.18867	15
0.19233	12
0.19600	9
0.19967	8
0.20333	8
0.20700	10
0.21067	12
0.21433	15
0.21800	17
0.22167	18
0.22533	18
0.22900	18
0.23267	17
0.23633	14
0.24000	13
0.24367	13
0.24733	14
0.25100	14
0.25467	11
0.25833	11
0.26200	11
0.26567	10
0.26933	10
0.27300	10
0.27667	10
0.28033	10
0.28400	11
0.28767	11
0.29133	11
0.29500	13
0.29867	16
0.30233	17
0.30600	15
0.30967	15
0.31333	14
0.31700	14
0.32067	14
0.32433	14
0.32800	15
0.33167	14
0.33533	13
0.33900	13
0.34267	13
0.34633	12
0.35000	10
0.35367	8
0.35733	8
0.36100	7
0.36467	6
0.36833	5
0.37200	5
0.37567	7
0.37933	9
0.38300	11
0.38667	11
0.39033	9
0.39400	7
0.39767	7
0.40133	10
0.40500	11
0.40867	13
0.41233	14
0.41600	13
0.41967	11
0.42333	10
0.42700	12
0.43067	11
0.43433	11
0.43800	10
0.44167	11
0.44533	14
0.44900	17
0.45267	18
0.45633	17
0.46000	15
0.46367	12
0.46733	12
0.47100	13
0.47467	11
0.47833	11
0.48200	12
0.48567	13
0.48933	12
0.49300	13
0.49667	13
0.50033	15
0.50400	14
0.50767	12
0.51133	13
0.51500	13
0.51867	11
0.52233	11
0.52600	11
0.52967	14
0.53333	15
0.53700	17
0.54067	16
0.54433	16
0.54800	16
0.55167	17
0.55533	17
0.55900	18
0.56267	17
0.56633	17
0.57000	17
0.57367	15
0.57733	13
0.58100	13
0.58467	13
0.58833	15
0.59200	16
0.59567	17
0.59933	17
0.60300	17
0.60667	17
0.61033	16
0.61400	16
0.61767	17
0.62133	18
0.62500	18
0.62867	20
0.63233	21
0.63600	20
0.63967	18
0.64333	15
0.64700	16
0.65067	16
0.65433	16
0.65800	15
0.66167	15
0.66533	14
0.66900	13
0.67267	17
0.67633	19
0.68000	20
0.68367	17
0.68733	16
0.69100	15
0.69467	14
0.69833	17
0.70200	19
0.70567	21
0.70933	22
0.71300	20
0.71667	19
0.72033	19
0.72400	18
0.72767	19
0.73133	20
0.73500	19
0.73867	18
0.74233	17
0.74600	15
0.74967	15
0.75333	19
0.75700	19
0.76067	20
0.76433	20
0.76800	22
0.77167	23
0.77533	23
0.77900	22
0.78267	20
0.78633	18
0.79000	18
0.79367	19
0.79733	21
0.80100	19
0.80467	18
0.80833	16
0.81200	16
0.81567	17
0.81933	18
0.82300	21
0.82667	25
0.83033	26
0.83400	25
0.83767	23
0.84133	22
0.84500	21
0.84867	19
0.85233	20
0.85600	21
0.85967	17
0.86333	13
0.86700	13
0.87067	15
0.87433	15
0.87800	13
0.88167	14
0.88533	18
0.88900	18
0.89267	17
0.89633	15
0.90000	14
0.90367	14
0.90733	14
0.91100	15
0.91467	16
0.91833	16
0.92200	14
0.92567	12
0.92933	13
0.93300	15
0.93667	17
0.94033	18
0.94400	17
0.94767	16
0.95133	15
0.95500	15
0.95867	13
0.96233	12
0.96600	14
0.96967	15
0.97333	16
0.97700	17
0.98067	19
0.98433	20
0.98800	19
0.99167	17
0.99533	16
0.99900	16
1.00267	18
1.00633	20
1.01000	22
1.01367	21
1.01733	19
1.02100	17
1.02467	16
1.02833	16
1.03200	16
1.03567	15
1.03933	14
1.04300	16
1.04667	17
1.05033	14
1.05400	12
1.05767	13
1.06133	14
1.06500	15
1.06867	17
1.07233	19
1.07600	19
1.07967	17
1.08333	17
1.08700	17
1.09067	18
1.09433	15
1.09800	14
1.10167	13
1.10533	11
1.10900	12
1.11267	13
1.11633	14
1.12000	13
1.12367	13
1.12733	13
1.13100	15
1.13467	16
1.13833	16
1.14200	16
1.14567	14
1.14933	14
1.15300	13
1.15667	12
1.16033	11
1.16400	10
1.16767	8
1.17133	9
1.17500	11
1.17867	12
1.18233	13
1.18600	13
1.18967	12
1.19333	11
1.19700	11
1.20067	11
1.20433	14
1.20800	15
1.21167	15
1.21533	13
1.21900	13
1.22267	13
1.22633	12
1.23000	13
1.23367	11
1.23733	10
1.24100	13
1.24467	14
1.24833	14
1.25200	14
1.25567	14
1.25933	13
1.26300	12
1.26667	12
1.27033	11
1.27400	10
1.27767	9
1.28133	9
1.28500	8
1.28867	5
1.29233	6
1.29600	6
1.29967	7
1.30333	8
1.30700	10
1.31067	10
1.31433	13
1.31800	16
1.32167	16
1.32533	16
1.32900	14
1.33267	12
1.33633	10
1.34000	8
1.34367	5
1.34733	5
1.35100	7
1.35467	8
1.35833	6
1.36200	4
1.36567	3
1.36933	3
1.37300	5
1.37667	7
1.38033	9
1.38400	12
1.38767	12
1.39133	10
1.39500	9
1.39867	10
1.40233	11
1.40600	12
1.40967	12
1.41333	12
1.41700	14
1.42067	14
1.42433	12
1.42800	8
1.43167	9
1.43533	10
1.43900	9
1.44267	7
1.44633	8
1.45000	10
1.45367	13
1.45733	12
1.46100	8
1.46467	6
1.46833	7
1.47200	5
1.47567	4
1.47933	3
1.48300	2
1.48667	5
1.49033	8
1.49400	9
1.49767	10
1.50133	11
1.50500	10
1.50867	8
1.51233	5
1.51600	6
1.51967	8
1.52333	8
1.52700	5
1.53067	4
1.53433	6
1.53800	4
1.54167	4
1.54533	6
1.54900	9
1.55267	8
1.55633	6
1.56000	7
1.56367	5
1.56733	4
1.57100	7
1.57467	7
1.57833	4
1.58200	2
1.58567	2
1.58933	3
1.59300	4
1.59667	4
1.60033	4
1.60400	5
1.60767	5
1.61133	3
1.61500	3
1.61867	5
1.62233	6
1.62600	9
1.62967	10
1.63333	11
1.63700	13
1.64067	14
1.64433	14
1.64800	13
1.65167	12
1.65533	11
1.65900	10
1.66267	7
1.66633	6
1.67000	7
1.67367	10
1.67733	13
1.68100	13
1.68467	14
1.68833	14
1.69200	15
1.69567	18
1.69933	19
1.70300	19
1.70667	20
1.71033	21
1.71400	19
1.71767	20
1.72133	21
1.72500	21
1.72867	22
1.73233	21
1.73600	21
1.73967	21
1.74333	21
1.74700	21
1.75067	23
1.75433	25
1.75800	27
1.76167	27
1.76533	28
1.76900	31
1.77267	34
1.77633	35
1.78000	36
1.78367	37
1.78733	38
1.79100	39
1.79467	37
1.79833	35
1.80200	35
1.80567	34
1.80933	33
1.81300	33
1.81667	32
1.82033	35
1.82400	37
1.82767	39
1.83133	38
1.83500	35
1.83867	34
1.84233	33
1.84600	31
1.84967	30
1.85333	28
1.85700	28
1.86067	30
1.86433	33
1.86800	37
1.87167	37
1.87533	38
1.87900	39
1.88267	40
1.88633	39
1.89000	39
1.89367	37
1.89733	34
1.90100	33
1.90467	36
1.90833	40
1.91200	43
1.91567	46
1.91933	44
1.92300	42
1.92667	42
1.93033	45
1.93400	46
1.93767	47
1.94133	48
1.94500	47
1.94867	48
1.95233	51
1.95600	53
1.95967	55
1.96333	57
1.96700	60
1.97067	60
1.97433	61
1.97800	60
1.98167	58
1.98533	56
1.98900	56
1.99267	56
1.99633	57
2.00000	58
2.00367	61
2.00733	64
2.01100	64
2.01467	64
2.01833	65
2.02200	66
2.02567	65
2.02933	64
2.03300	65
2.03667	66
2.04033	66
2.04400	68
2.04767	72
2.05133	75
2.05500	73
2.05867	71
2.06233	69
2.06600	70
2.06967	70
2.07333	70
2.07700	72
2.08067	74
2.08433	78
2.08800	79
2.09167	78
2.09533	80
2.09900	82
2.10267	83
2.10633	86
2.11000	85
2.11367	85
2.11733	86
2.12100	86
2.12467	84
2.12833	83
2.13200	84
2.13567	86
2.13933	88
2.14300	89
2.14667	88
2.15033	90
2.15400	91
2.15767	92
2.16133	93
2.16500	96
2.16867	98
2.17233	99
2.17600	99
2.17967	100
2.18333	103
2.18700	106
2.19067	107
2.19433	106
2.19800	104
2.20167	103
2.20533	104
2.20900	106
2.21267	110
2.21633	111
2.22000	113
2.22367	112
2.22733	110
2.23100	111
2.23467	113
2.23833	114
2.24200	114
2.24567	114
2.24933	114
2.25300	115
2.25667	117
2.26033	118
2.26400	120
2.26767	120
2.27133	118
2.27500	117
2.27867	118
2.28233	120
2.28600	122
2.28967	123
2.29333	122
2.29700	123
2.30067	122
2.30433	123
2.30800	124
2.31167	128
2.31533	131
2.31900	133
2.32267	135
2.32633	134
2.33000	132
2.33367	131
2.33733	135
2.34100	137
2.34467	139
2.34833	140
2.35200	141
2.35567	144
2.35933	148
2.36300	149
2.36667	149
2.37033	147
2.37400	146
2.37767	146
2.38133	147
2.38500	148
2.38867	150
2.39233	151
2.39600	151
2.39967	148
2.40333	148
2.40700	149
2.41067	151
2.41433	153
2.41800	156
2.42167	158
2.42533	161
2.42900	163
2.43267	165
2.43633	165
2.44000	165
2.44367	171
2.44733	188
2.45100	201
2.45467	208
2.45833	215
2.46200	227
2.46567	246
2.46933	270
2.47300	297
2.47667	324
2.48033	352
2.48400	380
2.48767	410
2.49133	438
2.49500	465
2.49867	491
2.50233	515
2.50600	537
2.50967	556
2.51333	571
2.51700	585
2.52067	597
2.52433	607
2.52800	614
2.53167	621
2.53533	630
2.53900	640
2.54267	646
2.54633	651
2.55000	659
2.55367	668
2.55733	675
2.56100	683
2.56467	690
2.56833	696
2.57200	702
2.57567	706
2.57933	707
2.58300	707
2.58667	708
2.59033	709
2.59400	710
2.59767	708
2.60133	700
2.60500	687
2.60867	666
2.61233	636
2.61600	602
2.61967	564
2.62333	521
2.62700	480
2.63067	445
2.63433	411
2.63800	383
2.64167	361
2.64533	343
2.64900	329
2.65267	322
2.65633	321
2.66000	324
2.66367	328
2.66733	334
2.67100	343
2.67467	352
2.67833	359
2.68200	363
2.68567	372
2.68933	383
2.69300	392
2.69667	400
2.70033	411
2.70400	421
2.70767	430
2.71133	438
2.71500	444
2.71867	449
2.72233	455
2.72600	461
2.72967	465
2.73333	471
2.73700	477
2.74067	480
2.74433	483
2.74800	488
2.75167	493
2.75533	498
2.75900	505
2.76267	508
2.76633	511
2.77000	514
2.77367	518
2.77733	517
2.78100	515
2.78467	516
2.78833	517
2.79200	517
2.79567	518
2.79933	520
2.80300	523
2.80667	524
2.81033	524
2.81400	522
2.81767	521
2.82133	524
2.82500	536
2.82867	570
2.83233	649
2.83600	814
2.83967	1127
2.84333	1659
2.84700	2472
2.85067	3600
2.85433	5041
2.85800	6748
2.86167	8621
2.86533	10528
2.86900	12324
2.87267	13873
2.87633	15061
2.88000	15820
2.88367	16127
2.88733	16003
2.89100	15528
2.89467	14780
2.89833	13844
2.90200	12795
2.90567	11699
2.90933	10609
2.91300	9555
2.91667	8559
2.92033	7634
2.92400	6790
2.92767	6028
2.93133	5342
2.93500	4731
2.93867	4186
2.94233	3706
2.94600	3284
2.94967	2913
2.95333	2586
2.95700	2304
2.96067	2058
2.96433	1843
2.96800	1655
2.97167	1493
2.97533	1355
2.97900	1239
2.98267	1137
2.98633	1048
2.99000	973
2.99367	906
2.99733	848
3.00100	797
3.00467	750
3.00833	709
3.01200	674
3.01567	647
3.01933	624
3.02300	602
3.02667	581
3.03033	565
3.03400	551
3.03767	540
3.04133	529
3.04500	520
3.04867	512
3.05233	506
3.05600	500
3.05967	495
3.06333	489
3.06700	486
3.07067	483
3.07433	477
3.07800	474
3.08167	471
3.08533	468
3.08900	464
3.09267	463
3.09633	464
3.10000	464
3.10367	463
3.10733	465
3.11100	462
3.11467	458
3.11833	456
3.12200	453
3.12567	449
3.12933	449
3.13300	449
3.13667	450
3.14033	448
3.14400	447
3.14767	444
3.15133	443
3.15500	441
3.15867	439
3.16233	437
3.16600	436
3.16967	437
3.17333	437
3.17700	434
3.18067	432
3.18433	429
3.18800	427
3.19167	424
3.19533	422
3.19900	421
3.20267	420
3.20633	420
3.21000	417
3.21367	414
3.21733	414
3.22100	415
3.22467	415
3.22833	414
3.23200	411
3.23567	408
3.23933	404
3.24300	400
3.24667	398
3.25033	394
3.25400	393
3.25767	394
3.26133	396
3.26500	396
3.26867	394
3.27233	391
3.27600	389
3.27967	387
3.28333	384
3.28700	382
3.29067	380
3.29433	377
3.29800	376
3.30167	373
3.30533	371
3.30900	369
3.31267	368
3.31633	368
3.32000	366
3.32367	365
3.32733	364
3.33100	362
3.33467	361
3.33833	360
3.34200	359
3.34567	356
3.34933	355
3.35300	354
3.35667	355
3.36033	353
3.36400	351
3.36767	348
3.37133	345
3.37500	340
3.37867	337
3.38233	332
3.38600	328
3.38967	325
3.39333	324
3.39700	321
3.40067	319
3.40433	316
3.40800	314
3.41167	313
3.41533	310
3.41900	306
3.42267	302
3.42633	301
3.43000	301
3.43367	298
3.43733	298
3.44100	299
3.44467	296
3.44833	293
3.45200	290
3.45567	288
3.45933	286
3.46300	284
3.46667	280
3.47033	277
3.47400	276
3.47767	274
3.48133	271
3.48500	271
3.48867	271
3.49233	272
3.49600	270
3.49967	266
3.50333	260
3.50700	256
3.51067	254
3.51433	252
3.51800	251
3.52167	248
3.52533	242
3.52900	239
3.53267	236
3.53633	236
3.54000	236
3.54367	236
3.54733	235
3.55100	233
3.55467	229
3.55833	225
3.56200	223
3.56567	222
3.56933	221
3.57300	220
3.57667	218
3.58033	215
3.58400	213
3.58767	212
3.59133	210
3.59500	208
3.59867	204
3.60233	201
3.60600	200
3.60967	200
3.61333	201
3.61700	199
3.62067	195
3.62433	192
3.62800	189
3.63167	187
3.63533	184
3.63900	184
3.64267	182
3.64633	181
3.65000	179
3.65367	173
3.65733	168
3.66100	163
3.66467	159
3.66833	158
3.67200	155
3.67567	153
3.67933	150
3.68300	148
3.68667	151
3.69033	150
3.69400	145
3.69767	142
3.70133	136
3.70500	133
3.70867	132
3.71233	131
3.71600	129
3.71967	127
3.72333	124
3.72700	120
3.73067	117
3.73433	116
3.73800	116
3.74167	111
3.74533	107
3.74900	105
3.75267	102
3.75633	100
3.76000	100
3.76367	98
3.76733	94
3.77100	91
3.77467	87
3.77833	83
3.78200	79
3.78567	77
3.78933	76
3.79300	73
3.79667	71
3.80033	69
3.80400	67
3.80767	68
3.81133	68
3.81500	68
3.81867	68
3.82233	70
3.82600	69
3.82967	66
3.83333	59
3.83700	54
3.84067	53
3.84433	52
3.84800	49
3.85167	45
3.85533	43
3.85900	44
3.86267	44
3.86633	41
3.87000	39
3.87367	38
3.87733	39
3.88100	39
3.88467	38
3.88833	34
3.89200	29
3.89567	27
3.89933	25
3.90300	24
3.90667	23
3.91033	21
3.91400	19
3.91767	20
3.92133	20
3.92500	19
3.92867	18
3.93233	17
3.93600	18
3.93967	18
3.94333	16
3.94700	14
3.95067	13
3.95433	12
3.95800	14
3.96167	14
3.96533	15
3.96900	13
3.97267	11
3.97633	10
3.98000	13
3.98367	16
3.98733	18
3.99100	19
3.99467	19
3.99833	22

[Status Trace (Column Oven Temperature)]
Interval(msec)	1000
# of Points	240
Start Time(min)	0.012
End Time(min)	3.996
Intensity Units	
Intensity Multiplier	1
R.Time (min)	Intensity
0.01243	34.97
0.02910	34.96
0.04577	34.96
0.06243	34.97
0.07910	34.97
0.09577	34.99
0.11243	35.00
0.12910	35.01
0.14577	35.01
0.16243	35.00
0.17910	35.00
0.19577	35.00
0.21243	35.01
0.22910	35.00
0.24577	35.00
0.26243	34.99
0.27910	34.99
0.29577	34.98
0.31243	34.97
0.32910	34.97
0.34577	34.97
0.36243	34.97
0.37910	34.97
0.39577	34.97
0.41243	34.97
0.42910	34.96
0.44577	34.97
0.46243	34.97
0.47910	34.98
0.49577	34.98
0.51243	34.97
0.52910	34.97
0.54577	34.97
0.56243	34.97
0.57910	34.98
0.59577	34.98
0.61243	34.97
0.62910	34.97
0.64577	34.97
0.66243	34.97
0.67910	34.96
0.69577	34.96
0.71243	34.96
0.72910	34.96
0.74577	34.97
0.76243	34.97
0.77910	34.98
0.79577	34.98
0.81243	34.97
0.82910	34.97
0.84577	34.96
0.86243	34.96
0.87910	34.98
0.89577	34.98
0.91243	34.98
0.92910	34.98
0.94577	34.98
0.96243	34.99
0.97910	34.98
0.99577	34.98
1.01243	34.99
1.02910	34.98
1.04577	34.98
1.06243	34.98
1.07910	34.98
1.09577	34.98
1.11243	34.98
1.12910	34.99
1.14577	34.99
1.16243	35.00
1.17910	35.00
1.19577	35.01
1.21243	35.01
1.22910	35.01
1.24577	35.01
1.26243	35.00
1.27910	34.99
1.29577	34.98
1.31243	34.98
1.32910	34.98
1.34577	34.99
1.36243	34.99
1.37910	34.99
1.39577	34.99
1.41243	34.99
1.42910	35.00
1.44577	34.99
1.46243	34.99
1.47910	35.00
1.49577	35.00
1.51243	35.00
1.52910	34.99
1.54577	34.98
1.56243	34.99
1.57910	34.99
1.59577	35.03
1.61243	35.11
1.62910	35.26
1.64577	35.47
1.66243	35.74
1.67910	36.09
1.69577	36.45
1.71243	36.79
1.72910	37.12
1.74577	37.44
1.76243	37.77
1.77910	38.11
1.79577	38.45
1.81243	38.78
1.82910	39.11
1.84577	39.44
1.86243	39.77
1.87910	40.11
1.89577	40.42
1.91243	40.75
1.92910	41.09
1.94577	41.43
1.96243	41.75
1.97910	42.07
1.99577	42.39
2.01243	42.73
2.02910	43.04
2.04577	43.36
2.06243	43.69
2.07910	44.02
2.09577	44.34
2.11243	44.68
2.12910	45.02
2.14577	45.35
2.16243	45.67
2.17910	46.00
2.19577	46.33
2.21243	46.67
2.22910	46.97
2.24577	47.29
2.26243	47.62
2.27910	47.94
2.29577	48.28
2.31243	48.60
2.32910	48.93
2.34577	49.22
2.36243	49.55
2.37910	49.74
2.39577	49.79
2.41243	49.78
2.42910	49.80
2.44577	49.80
2.46243	49.81
2.47910	49.79
2.49577	49.80
2.51243	49.82
2.52910	49.83
2.54577	49.82
2.56243	49.83
2.57910	49.85
2.59577	49.83
2.61243	49.83
2.62910	49.84
2.64577	49.85
2.66243	49.85
2.67910	49.86
2.69577	49.86
2.71243	49.85
2.72910	49.85
2.74577	49.86
2.76243	49.87
2.77910	49.89
2.79577	49.89
2.81243	49.91
2.82910	49.92
2.84577	49.93
2.86243	49.95
2.87910	49.96
2.89577	49.97
2.91243	49.98
2.92910	50.00
2.94577	50.01
2.96243	50.02
2.97910	50.03
2.99577	50.03
3.01243	50.04
3.02910	50.04
3.04577	50.05
3.06243	50.06
3.07910	50.06
3.09577	50.08
3.11243	50.10
3.12910	50.11
3.14577	50.12
3.16243	50.11
3.17910	50.10
3.19577	50.08
3.21243	50.06
3.22910	50.04
3.24577	50.03
3.26243	50.03
3.27910	50.03
3.29577	50.02
3.31243	50.02
3.32910	50.02
3.34577	50.03
3.36243	50.04
3.37910	50.04
3.39577	50.05
3.41243	50.04
3.42910	50.04
3.44577	50.04
3.46243	50.07
3.47910	50.07
3.49577	50.08
3.51243	50.08
3.52910	50.08
3.54577	50.07
3.56243	50.07
3.57910	50.07
3.59577	50.06
3.61243	50.06
3.62910	50.06
3.64577	50.06
3.66243	50.07
3.67910	50.08
3.69577	50.09
3.71243	50.10
3.72910	50.09
3.74577	50.09
3.76243	50.08
3.77910	50.07
3.79577	50.06
3.81243	50.06
3.82910	50.05
3.84577	50.05
3.86243	50.05
3.87910	50.05
3.89577	50.05
3.91243	50.06
3.92910	50.05
3.94577	50.04
3.96243	50.04
3.97910	50.04
3.99577	50.04

[Status Trace (Injection Unit Temperature)]
Interval(msec)	1000
# of Points	240
Start Time(min)	0.012
End Time(min)	3.996
Intensity Units	
Intensity Multiplier	1
R.Time (min)	Intensity
0.01243	99.99
0.02910	99.99
0.04577	99.99
0.06243	99.99
0.07910	99.99
0.09577	99.99
0.11243	99.99
0.12910	99.99
0.14577	99.99
0.16243	99.99
0.17910	99.99
0.19577	99.99
0.21243	99.99
0.22910	99.98
0.24577	99.99
0.26243	99.99
0.27910	99.99
0.29577	99.98
0.31243	99.99
0.32910	99.99
0.34577	99.99
0.36243	99.99
0.37910	99.99
0.39577	99.99
0.41243	99.99
0.42910	99.99
0.44577	99.99
0.46243	99.98
0.47910	99.99
0.49577	99.98
0.51243	99.99
0.52910	99.99
0.54577	99.99
0.56243	99.98
0.57910	99.99
0.59577	99.98
0.61243	99.98
0.62910	99.98
0.64577	99.99
0.66243	99.99
0.67910	99.98
0.69577	99.98
0.71243	99.98
0.72910	99.99
0.74577	99.98
0.76243	99.98
0.77910	99.99
0.79577	99.98
0.81243	99.99
0.82910	99.98
0.84577	99.99
0.86243	99.99
0.87910	99.98
0.89577	99.98
0.91243	99.99
0.92910	99.99
0.94577	99.99
0.96243	99.99
0.97910	99.99
0.99577	99.98
1.01243	99.99
1.02910	99.98
1.04577	99.99
1.06243	99.98
1.07910	99.99
1.09577	99.99
1.11243	99.99
1.12910	99.99
1.14577	99.97
1.16243	99.99
1.17910	99.98
1.19577	99.99
1.21243	99.98
1.22910	99.99
1.24577	99.99
1.26243	99.99
1.27910	99.99
1.29577	99.99
1.31243	99.99
1.32910	99.99
1.34577	99.99
1.36243	99.99
1.37910	99.99
1.39577	99.99
1.41243	99.99
1.42910	99.99
1.44577	99.99
1.46243	99.99
1.47910	99.99
1.49577	99.98
1.51243	99.99
1.52910	99.99
1.54577	99.99
1.56243	99.99
1.57910	99.99
1.59577	99.99
1.61243	99.99
1.62910	99.99
1.64577	99.99
1.66243	99.99
1.67910	99.99
1.69577	99.99
1.71243	99.99
1.72910	99.99
1.74577	99.99
1.76243	99.99
1.77910	99.99
1.79577	99.98
1.81243	99.98
1.82910	99.99
1.84577	99.98
1.86243	99.99
1.87910	99.98
1.89577	99.99
1.91243	99.98
1.92910	99.98
1.94577	99.98
1.96243	99.98
1.97910	99.98
1.99577	99.98
2.01243	99.97
2.02910	99.98
2.04577	99.98
2.06243	99.98
2.07910	99.98
2.09577	99.98
2.11243	99.98
2.12910	99.97
2.14577	99.98
2.16243	99.97
2.17910	99.97
2.19577	99.98
2.21243	99.97
2.22910	99.98
2.24577	99.97
2.26243	99.98
2.27910	99.98
2.29577	99.97
2.31243	99.97
2.32910	99.97
2.34577	99.98
2.36243	99.97
2.37910	99.97
2.39577	99.98
2.41243	99.98
2.42910	99.97
2.44577	99.97
2.46243	99.98
2.47910	99.98
2.49577	99.98
2.51243	99.98
2.52910	99.97
2.54577	99.98
2.56243	99.98
2.57910	99.98
2.59577	99.98
2.61243	99.98
2.62910	99.98
2.64577	99.98
2.66243	99.98
2.67910	99.99
2.69577	99.98
2.71243	99.98
2.72910	99.99
2.74577	99.99
2.76243	99.99
2.77910	99.99
2.79577	99.99
2.81243	99.99
2.82910	100.00
2.84577	100.00
2.86243	100.00
2.87910	100.01
2.89577	100.00
2.91243	100.01
2.92910	100.01
2.94577	100.01
2.96243	100.01
2.97910	100.01
2.99577	100.01
3.01243	100.01
3.02910	100.01
3.04577	100.02
3.06243	100.02
3.07910	100.02
3.09577	100.02
3.11243	100.02
3.12910	100.02
3.14577	100.03
3.16243	100.03
3.17910	100.03
3.19577	100.02
3.21243	100.03
3.22910	100.03
3.24577	100.03
3.26243	100.03
3.27910	100.03
3.29577	100.03
3.31243	100.03
3.32910	100.04
3.34577	100.04
3.36243	100.04
3.37910	100.04
3.39577	100.04
3.41243	100.04
3.42910	100.05
3.44577	100.04
3.46243	100.05
3.47910	100.04
3.49577	100.04
3.51243	100.04
3.52910	100.05
3.54577	100.05
3.56243	100.05
3.57910	100.05
3.59577	100.05
3.61243	100.05
3.62910	100.05
3.64577	100.05
3.66243	100.05
3.67910	100.05
3.69577	100.06
3.71243	100.06
3.72910	100.06
3.74577	100.05
3.76243	100.05
3.77910	100.05
3.79577	100.05
3.81243	100.06
3.82910	100.05
3.84577	100.05
3.86243	100.06
3.87910	100.06
3.89577	100.05
3.91243	100.05
3.92910	100.05
3.94577	100.06
3.96243	100.05
3.97910	100.06
3.99577	100.05

[Status Trace (Carrier Gas Pressure)]
Interval(msec)	1000
# of Points	240
Start Time(min)	0.012
End Time(min)	3.996
Intensity Units	
Intensity Multiplier	1
R.Time (min)	Intensity
0.01243	57.98
0.02910	54.99
0.04577	57.65
0.06243	59.71
0.07910	58.89
0.09577	58.00
0.11243	57.99
0.12910	58.01
0.14577	58.01
0.16243	58.00
0.17910	58.00
0.19577	58.00
0.21243	58.00
0.22910	58.00
0.24577	58.00
0.26243	58.00
0.27910	58.00
0.29577	58.00
0.31243	58.00
0.32910	58.00
0.34577	58.00
0.36243	58.00
0.37910	58.00
0.39577	58.00
0.41243	58.00
0.42910	58.00
0.44577	58.00
0.46243	58.00
0.47910	58.00
0.49577	58.00
0.51243	58.00
0.52910	58.00
0.54577	58.00
0.56243	58.00
0.57910	58.00
0.59577	58.00
0.61243	58.00
0.62910	58.00
0.64577	58.00
0.66243	58.00
0.67910	58.00
0.69577	58.00
0.71243	58.00
0.72910	58.00
0.74577	58.00
0.76243	58.00
0.77910	58.00
0.79577	58.00
0.81243	58.00
0.82910	58.00
0.84577	58.00
0.86243	58.00
0.87910	58.00
0.89577	58.00
0.91243	58.00
0.92910	58.00
0.94577	58.00
0.96243	58.00
0.97910	58.00
0.99577	58.00
1.01243	58.00
1.02910	58.00
1.04577	58.00
1.06243	58.00
1.07910	58.00
1.09577	58.00
1.11243	58.00
1.12910	58.00
1.14577	58.00
1.16243	58.00
1.17910	58.00
1.19577	58.00
1.21243	58.00
1.22910	58.00
1.24577	58.00
1.26243	58.00
1.27910	58.00
1.29577	58.00
1.31243	58.00
1.32910	58.00
1.34577	58.00
1.36243	58.00
1.37910	58.00
1.39577	58.00
1.41243	58.00
1.42910	58.00
1.44577	58.00
1.46243	58.00
1.47910	58.00
1.49577	58.00
1.51243	58.00
1.52910	58.00
1.54577	58.00
1.56243	58.00
1.57910	58.00
1.59577	58.00
1.61243	58.00
1.62910	58.00
1.64577	58.00
1.66243	58.00
1.67910	58.01
1.69577	58.00
1.71243	58.00
1.72910	58.00
1.74577	58.00
1.76243	58.00
1.77910	58.00
1.79577	58.00
1.81243	58.00
1.82910	58.00
1.84577	58.00
1.86243	58.00
1.87910	58.00
1.89577	58.00
1.91243	58.00
1.92910	58.00
1.94577	58.00
1.96243	58.00
1.97910	58.00
1.99577	58.00
2.01243	58.00
2.02910	58.00
2.04577	58.00
2.06243	58.00
2.07910	58.00
2.09577	58.00
2.11243	58.00
2.12910	58.00
2.14577	58.00
2.16243	58.00
2.17910	58.00
2.19577	58.00
2.21243	58.00
2.22910	58.00
2.24577	58.00
2.26243	58.00
2.27910	58.00
2.29577	58.00
2.31243	58.00
2.32910	58.00
2.34577	58.00
2.36243	58.00
2.37910	58.00
2.39577	57.99
2.41243	57.99
2.42910	58.00
2.44577	58.00
2.46243	58.00
2.47910	58.00
2.49577	58.00
2.51243	58.00
2.52910	57.99
2.54577	58.00
2.56243	58.00
2.57910	58.00
2.59577	58.00
2.61243	58.00
2.62910	58.00
2.64577	58.00
2.66243	58.00
2.67910	58.00
2.69577	58.00
2.71243	58.00
2.72910	58.00
2.74577	58.00
2.76243	58.00
2.77910	58.00
2.79577	58.00
2.81243	58.00
2.82910	58.00
2.84577	58.00
2.86243	58.00
2.87910	58.00
2.89577	58.00
2.91243	58.00
2.92910	58.00
2.94577	58.00
2.96243	58.00
2.97910	58.00
2.99577	58.00
3.01243	58.00
3.02910	58.00
3.04577	58.00
3.06243	58.00
3.07910	58.00
3.09577	58.00
3.11243	58.00
3.12910	58.00
3.14577	58.00
3.16243	58.00
3.17910	58.00
3.19577	58.00
3.21243	58.00
3.22910	58.00
3.24577	58.00
3.26243	58.00
3.27910	58.00
3.29577	58.00
3.31243	58.00
3.32910	58.00
3.34577	58.00
3.36243	58.00
3.37910	58.00
3.39577	58.00
3.41243	58.00
3.42910	58.00
3.44577	58.00
3.46243	58.00
3.47910	58.00
3.49577	58.00
3.51243	58.00
3.52910	58.00
3.54577	58.00
3.56243	58.00
3.57910	58.00
3.59577	58.00
3.61243	58.00
3.62910	58.00
3.64577	58.00
3.66243	58.00
3.67910	58.00
3.69577	58.00
3.71243	58.00
3.72910	58.00
3.74577	58.00
3.76243	58.00
3.77910	58.00
3.79577	58.00
3.81243	58.00
3.82910	58.00
3.84577	58.00
3.86243	58.00
3.87910	58.00
3.89577	58.00
3.91243	58.00
3.92910	58.00
3.94577	58.00
3.96243	58.00
3.97910	58.00
3.99577	58.00

[Status Trace (Carrier Gas Flow)]
Interval(msec)	1000
# of Points	240
Start Time(min)	0.012
End Time(min)	3.996
Intensity Units	
Intensity Multiplier	1
R.Time (min)	Intensity
0.01243	34.57
0.02910	34.54
0.04577	34.55
0.06243	34.54
0.07910	34.50
0.09577	34.52
0.11243	34.52
0.12910	34.52
0.14577	34.52
0.16243	34.52
0.17910	34.51
0.19577	34.52
0.21243	34.52
0.22910	34.52
0.24577	34.52
0.26243	34.52
0.27910	34.52
0.29577	34.52
0.31243	34.53
0.32910	34.52
0.34577	34.53
0.36243	34.52
0.37910	34.53
0.39577	34.52
0.41243	34.51
0.42910	34.51
0.44577	34.52
0.46243	34.52
0.47910	34.52
0.49577	34.52
0.51243	34.52
0.52910	34.52
0.54577	34.52
0.56243	34.52
0.57910	34.52
0.59577	34.51
0.61243	34.52
0.62910	34.52
0.64577	34.52
0.66243	34.52
0.67910	34.52
0.69577	34.52
0.71243	34.52
0.72910	34.53
0.74577	34.52
0.76243	34.52
0.77910	34.52
0.79577	34.52
0.81243	34.52
0.82910	34.52
0.84577	34.52
0.86243	34.52
0.87910	34.52
0.89577	34.52
0.91243	34.52
0.92910	34.52
0.94577	34.52
0.96243	34.52
0.97910	34.52
0.99577	34.52
1.01243	34.52
1.02910	34.52
1.04577	34.52
1.06243	34.52
1.07910	34.52
1.09577	34.52
1.11243	34.52
1.12910	34.52
1.14577	34.52
1.16243	34.52
1.17910	34.52
1.19577	34.52
1.21243	34.52
1.22910	34.52
1.24577	34.52
1.26243	34.52
1.27910	34.52
1.29577	34.52
1.31243	34.52
1.32910	34.52
1.34577	34.52
1.36243	34.52
1.37910	34.52
1.39577	34.52
1.41243	34.52
1.42910	34.52
1.44577	34.52
1.46243	34.52
1.47910	34.52
1.49577	34.52
1.51243	34.52
1.52910	34.52
1.54577	34.52
1.56243	34.52
1.57910	34.52
1.59577	34.52
1.61243	34.52
1.62910	34.52
1.64577	34.52
1.66243	34.52
1.67910	34.52
1.69577	34.52
1.71243	34.52
1.72910	34.52
1.74577	34.52
1.76243	34.52
1.77910	34.52
1.79577	34.52
1.81243	34.52
1.82910	34.52
1.84577	34.52
1.86243	34.52
1.87910	34.52
1.89577	34.52
1.91243	34.52
1.92910	34.52
1.94577	34.52
1.96243	34.52
1.97910	34.52
1.99577	34.52
2.01243	34.52
2.02910	34.52
2.04577	34.52
2.06243	34.52
2.07910	34.52
2.09577	34.52
2.11243	34.52
2.12910	34.52
2.14577	34.52
2.16243	34.52
2.17910	34.52
2.19577	34.52
2.21243	34.52
2.22910	34.52
2.24577	34.52
2.26243	34.52
2.27910	34.52
2.29577	34.52
2.31243	34.52
2.32910	34.52
2.34577	34.52
2.36243	34.52
2.37910	34.52
2.39577	34.52
2.41243	34.52
2.42910	34.52
2.44577	34.52
2.46243	34.52
2.47910	34.52
2.49577	34.52
2.51243	34.52
2.52910	34.52
2.54577	34.53
2.56243	34.52
2.57910	34.52
2.59577	34.52
2.61243	34.52
2.62910	34.52
2.64577	34.52
2.66243	34.52
2.67910	34.52
2.69577	34.52
2.71243	34.53
2.72910	34.52
2.74577	34.52
2.76243	34.52
2.77910	34.52
2.79577	34.52
2.81243	34.52
2.82910	34.52
2.84577	34.52
2.86243	34.50
2.87910	34.52
2.89577	34.51
2.91243	34.52
2.92910	34.53
2.94577	34.52
2.96243	34.53
2.97910	34.54
2.99577	34.52
3.01243	34.52
3.02910	34.53
3.04577	34.51
3.06243	34.52
3.07910	34.52
3.09577	34.52
3.11243	34.52
3.12910	34.51
3.14577	34.53
3.16243	34.52
3.17910	34.52
3.19577	34.52
3.21243	34.53
3.22910	34.52
3.24577	34.50
3.26243	34.52
3.27910	34.52
3.29577	34.52
3.31243	34.51
3.32910	34.52
3.34577	34.52
3.36243	34.52
3.37910	34.52
3.39577	34.52
3.41243	34.52
3.42910	34.52
3.44577	34.52
3.46243	34.52
3.47910	34.52
3.49577	34.52
3.51243	34.52
3.52910	34.52
3.54577	34.52
3.56243	34.52
3.57910	34.52
3.59577	34.52
3.61243	34.52
3.62910	34.52
3.64577	34.52
3.66243	34.52
3.67910	34.52
3.69577	34.52
3.71243	34.52
3.72910	34.52
3.74577	34.52
3.76243	34.52
3.77910	34.52
3.79577	34.52
3.81243	34.52
3.82910	34.52
3.84577	34.52
3.86243	34.52
3.87910	34.52
3.89577	34.52
3.91243	34.52
3.92910	34.52
3.94577	34.52
3.96243	34.52
3.97910	34.52
3.99577	34.52

[Status Trace (Column Flow)]
Interval(msec)	1000
# of Points	240
Start Time(min)	0.012
End Time(min)	3.996
Intensity Units	
Intensity Multiplier	1
R.Time (min)	Intensity
0.01243	5.45
0.02910	5.11
0.04577	5.42
0.06243	5.65
0.07910	5.56
0.09577	5.45
0.11243	5.45
0.12910	5.46
0.14577	5.46
0.16243	5.46
0.17910	5.46
0.19577	5.46
0.21243	5.45
0.22910	5.45
0.24577	5.45
0.26243	5.45
0.27910	5.46
0.29577	5.46
0.31243	5.46
0.32910	5.46
0.34577	5.46
0.36243	5.46
0.37910	5.46
0.39577	5.46
0.41243	5.46
0.42910	5.46
0.44577	5.46
0.46243	5.46
0.47910	5.46
0.49577	5.46
0.51243	5.46
0.52910	5.46
0.54577	5.46
0.56243	5.46
0.57910	5.46
0.59577	5.46
0.61243	5.46
0.62910	5.46
0.64577	5.46
0.66243	5.46
0.67910	5.46
0.69577	5.46
0.71243	5.46
0.72910	5.46
0.74577	5.46
0.76243	5.46
0.77910	5.46
0.79577	5.46
0.81243	5.46
0.82910	5.46
0.84577	5.46
0.86243	5.46
0.87910	5.46
0.89577	5.46
0.91243	5.45
0.92910	5.45
0.94577	5.45
0.96243	5.45
0.97910	5.46
0.99577	5.46
1.01243	5.46
1.02910	5.46
1.04577	5.46
1.06243	5.46
1.07910	5.46
1.09577	5.46
1.11243	5.46
1.12910	5.46
1.14577	5.45
1.16243	5.45
1.17910	5.45
1.19577	5.45
1.21243	5.45
1.22910	5.45
1.24577	5.45
1.26243	5.45
1.27910	5.45
1.29577	5.46
1.31243	5.46
1.32910	5.46
1.34577	5.46
1.36243	5.46
1.37910	5.46
1.39577	5.45
1.41243	5.45
1.42910	5.45
1.44577	5.46
1.46243	5.46
1.47910	5.45
1.49577	5.45
1.51243	5.45
1.52910	5.46
1.54577	5.46
1.56243	5.45
1.57910	5.45
1.59577	5.45
1.61243	5.45
1.62910	5.45
1.64577	5.44
1.66243	5.43
1.67910	5.42
1.69577	5.41
1.71243	5.40
1.72910	5.39
1.74577	5.38
1.76243	5.37
1.77910	5.36
1.79577	5.35
1.81243	5.34
1.82910	5.33
1.84577	5.32
1.86243	5.31
1.87910	5.30
1.89577	5.29
1.91243	5.28
1.92910	5.27
1.94577	5.26
1.96243	5.25
1.97910	5.24
1.99577	5.23
2.01243	5.22
2.02910	5.21
2.04577	5.20
2.06243	5.19
2.07910	5.18
2.09577	5.18
2.11243	5.17
2.12910	5.16
2.14577	5.15
2.16243	5.14
2.17910	5.13
2.19577	5.12
2.21243	5.11
2.22910	5.10
2.24577	5.09
2.26243	5.08
2.27910	5.07
2.29577	5.06
2.31243	5.06
2.32910	5.05
2.34577	5.04
2.36243	5.03
2.37910	5.02
2.39577	5.02
2.41243	5.02
2.42910	5.02
2.44577	5.02
2.46243	5.02
2.47910	5.02
2.49577	5.02
2.51243	5.02
2.52910	5.02
2.54577	5.02
2.56243	5.02
2.57910	5.02
2.59577	5.02
2.61243	5.02
2.62910	5.02
2.64577	5.02
2.66243	5.02
2.67910	5.02
2.69577	5.02
2.71243	5.02
2.72910	5.02
2.74577	5.02
2.76243	5.02
2.77910	5.02
2.79577	5.02
2.81243	5.02
2.82910	5.02
2.84577	5.02
2.86243	5.02
2.87910	5.02
2.89577	5.02
2.91243	5.02
2.92910	5.02
2.94577	5.02
2.96243	5.02
2.97910	5.02
2.99577	5.02
3.01243	5.02
3.02910	5.02
3.04577	5.02
3.06243	5.02
3.07910	5.01
3.09577	5.01
3.11243	5.01
3.12910	5.01
3.14577	5.01
3.16243	5.01
3.17910	5.01
3.19577	5.01
3.21243	5.01
3.22910	5.02
3.24577	5.02
3.26243	5.02
3.27910	5.02
3.29577	5.02
3.31243	5.02
3.32910	5.02
3.34577	5.02
3.36243	5.02
3.37910	5.02
3.39577	5.02
3.41243	5.02
3.42910	5.02
3.44577	5.02
3.46243	5.01
3.47910	5.01
3.49577	5.01
3.51243	5.01
3.52910	5.01
3.54577	5.01
3.56243	5.01
3.57910	5.01
3.59577	5.01
3.61243	5.01
3.62910	5.01
3.64577	5.01
3.66243	5.01
3.67910	5.01
3.69577	5.01
3.71243	5.01
3.72910	5.01
3.74577	5.01
3.76243	5.01
3.77910	5.01
3.79577	5.01
3.81243	5.01
3.82910	5.01
3.84577	5.01
3.86243	5.01
3.87910	5.02
3.89577	5.01
3.91243	5.01
3.92910	5.02
3.94577	5.02
3.96243	5.02
3.97910	5.02
3.99577	5.02

[Status Trace (Linear Velocity)]
Interval(msec)	1000
# of Points	240
Start Time(min)	0.012
End Time(min)	3.996
Intensity Units	
Intensity Multiplier	1
R.Time (min)	Intensity
0.01243	38.99
0.02910	37.03
0.04577	38.77
0.06243	40.12
0.07910	39.59
0.09577	39.00
0.11243	39.00
0.12910	39.01
0.14577	39.01
0.16243	39.00
0.17910	39.00
0.19577	39.00
0.21243	39.00
0.22910	39.00
0.24577	39.00
0.26243	39.00
0.27910	39.00
0.29577	39.00
0.31243	39.00
0.32910	39.00
0.34577	39.00
0.36243	39.00
0.37910	39.00
0.39577	39.00
0.41243	39.00
0.42910	39.01
0.44577	39.00
0.46243	39.00
0.47910	39.00
0.49577	39.00
0.51243	39.00
0.52910	39.00
0.54577	39.00
0.56243	39.00
0.57910	39.00
0.59577	39.00
0.61243	39.00
0.62910	39.00
0.64577	39.00
0.66243	39.00
0.67910	39.00
0.69577	39.00
0.71243	39.00
0.72910	39.00
0.74577	39.00
0.76243	39.00
0.77910	39.00
0.79577	39.00
0.81243	39.00
0.82910	39.00
0.84577	39.00
0.86243	39.00
0.87910	39.00
0.89577	39.00
0.91243	39.00
0.92910	39.00
0.94577	39.00
0.96243	39.00
0.97910	39.00
0.99577	39.00
1.01243	39.00
1.02910	39.00
1.04577	39.00
1.06243	39.00
1.07910	39.00
1.09577	39.00
1.11243	39.00
1.12910	39.00
1.14577	39.00
1.16243	39.00
1.17910	39.00
1.19577	39.00
1.21243	39.00
1.22910	39.00
1.24577	39.00
1.26243	39.00
1.27910	39.00
1.29577	39.00
1.31243	39.00
1.32910	39.00
1.34577	39.00
1.36243	39.00
1.37910	39.00
1.39577	39.00
1.41243	39.00
1.42910	39.00
1.44577	39.00
1.46243	39.00
1.47910	39.00
1.49577	39.00
1.51243	39.00
1.52910	39.00
1.54577	39.00
1.56243	39.00
1.57910	39.00
1.59577	39.00
1.61243	38.99
1.62910	38.98
1.64577	38.96
1.66243	38.94
1.67910	38.90
1.69577	38.87
1.71243	38.83
1.72910	38.80
1.74577	38.77
1.76243	38.74
1.77910	38.70
1.79577	38.68
1.81243	38.64
1.82910	38.61
1.84577	38.58
1.86243	38.55
1.87910	38.52
1.89577	38.49
1.91243	38.46
1.92910	38.43
1.94577	38.40
1.96243	38.37
1.97910	38.33
1.99577	38.31
2.01243	38.28
2.02910	38.24
2.04577	38.22
2.06243	38.19
2.07910	38.15
2.09577	38.13
2.11243	38.10
2.12910	38.06
2.14577	38.04
2.16243	38.01
2.17910	37.98
2.19577	37.95
2.21243	37.92
2.22910	37.89
2.24577	37.86
2.26243	37.83
2.27910	37.80
2.29577	37.77
2.31243	37.74
2.32910	37.71
2.34577	37.69
2.36243	37.66
2.37910	37.64
2.39577	37.63
2.41243	37.63
2.42910	37.63
2.44577	37.63
2.46243	37.63
2.47910	37.63
2.49577	37.64
2.51243	37.63
2.52910	37.62
2.54577	37.63
2.56243	37.63
2.57910	37.63
2.59577	37.63
2.61243	37.63
2.62910	37.63
2.64577	37.63
2.66243	37.63
2.67910	37.63
2.69577	37.63
2.71243	37.63
2.72910	37.63
2.74577	37.63
2.76243	37.63
2.77910	37.63
2.79577	37.63
2.81243	37.63
2.82910	37.62
2.84577	37.62
2.86243	37.62
2.87910	37.62
2.89577	37.62
2.91243	37.62
2.92910	37.62
2.94577	37.62
2.96243	37.62
2.97910	37.61
2.99577	37.61
3.01243	37.61
3.02910	37.61
3.04577	37.61
3.06243	37.61
3.07910	37.61
3.09577	37.61
3.11243	37.61
3.12910	37.61
3.14577	37.61
3.16243	37.61
3.17910	37.61
3.19577	37.61
3.21243	37.61
3.22910	37.61
3.24577	37.61
3.26243	37.61
3.27910	37.61
3.29577	37.61
3.31243	37.62
3.32910	37.62
3.34577	37.61
3.36243	37.61
3.37910	37.61
3.39577	37.61
3.41243	37.61
3.42910	37.61
3.44577	37.61
3.46243	37.61
3.47910	37.61
3.49577	37.61
3.51243	37.61
3.52910	37.61
3.54577	37.61
3.56243	37.61
3.57910	37.61
3.59577	37.61
3.61243	37.61
3.62910	37.61
3.64577	37.61
3.66243	37.61
3.67910	37.61
3.69577	37.61
3.71243	37.61
3.72910	37.61
3.74577	37.61
3.76243	37.61
3.77910	37.61
3.79577	37.61
3.81243	37.61
3.82910	37.61
3.84577	37.61
3.86243	37.61
3.87910	37.61
3.89577	37.61
3.91243	37.61
3.92910	37.61
3.94577	37.61
3.96243	37.61
3.97910	37.61
3.99577	37.61

