[Header]
Application Name	LabSolutions
Version	5.110
Data File Name	C:\Users\User\Desktop\GC Analyses\Jack\UIC Prairie Sampling\9.2.22\220902_034.gcd
Output Date	10/28/2022
Output Time	1:23:53 PM

[File Information]
Type	Data File
Generated	10/25/2022 3:06:21 PM
Generated by	System Administrator
Modified	10/25/2022 3:11:23 PM
Modified by	System Administrator

[Sample Information]
Operator Name	System Administrator
Acquired	10/25/2022 3:07:21 PM
Sample Type	1:Standard
Level	1
Sample Name	220902_UICPrairie
Sample ID	220902_UICPrairie
ISTD Amount1	1
ISTD Amount2	1
ISTD Amount3	1
ISTD Amount4	1
ISTD Amount5	1
ISTD Amount6	1
ISTD Amount7	1
ISTD Amount8	1
ISTD Amount9	1
ISTD Amount10	1
ISTD Amount11	1
ISTD Amount12	1
ISTD Amount13	1
ISTD Amount14	1
ISTD Amount15	1
ISTD Amount16	1
ISTD Amount17	1
ISTD Amount18	1
ISTD Amount19	1
ISTD Amount20	1
ISTD Amount21	1
ISTD Amount22	1
ISTD Amount23	1
ISTD Amount24	1
ISTD Amount25	1
ISTD Amount26	1
ISTD Amount27	1
ISTD Amount28	1
ISTD Amount29	1
ISTD Amount30	1
ISTD Amount31	1
ISTD Amount32	1
Sample Amount	1
Dilution Factor	1
Vial#	1
Injection Volume	1
Injection Count	1
Bar Code	

[Original Files]
Data File	C:\Users\User\Desktop\GC Analyses\Jack\UIC Prairie Sampling\9.2.22\220902_034.gcd
Method File	C:\LabSolutions\Data\GHG_4min_2022\ghg3_togas_w_acet_4 min_new_int.gcm
Batch File	
Report Format File	c:\LabSolutions\System\DEFAULT.lsr

[File Description]


[Configuration]
Instrument Name	C0B7VH3-Instrument1
Instrument #	1
Line #	1
# of Detectors	3
Detector ID	DET#1	DET#2	DET#3
Detector Name	FID	PTCD	ECD
# of Channels	1	1	1

[Peak Table(Ch1)]
# of Peaks	3
Peak#	R.Time	I.Time	F.Time	Area	Height	A/H	Conc.	Mark	ID#	Name	k'	Plate #	Plate Ht.	Tailing	Resolution	Sep.Factor	Area Ratio	Height Ratio	Conc. %	Norm Conc.
1	1.476	1.435	1.538	11788	5289	2.229	100.000	   	1	CO	0.000	8493	17.662	1.240	0.000	0.000	0	0	16.667	16.667
2	1.571	1.538	1.615	3867	1995	1.938	100.000	 V 	2	CH4	0.065	11827	12.683	1.028	1.565	0.000	0	0	16.667	16.667
3	1.996	1.945	2.385	3145113	1546732	2.033	400.000	   	3	CO2	0.353	17861	8.398	1.292	7.238	5.462	0	0	66.667	66.667

[Peak Table(Ch2)]
# of Peaks	0

[Peak Table(Ch3)]
# of Peaks	2
Peak#	R.Time	I.Time	F.Time	Area	Height	A/H	Conc.	Mark	ID#	Name	k'	Plate #	Plate Ht.	Tailing	Resolution	Sep.Factor	Area Ratio	Height Ratio	Conc. %	Norm Conc.
1	2.590	1.886	2.653	6399	606	10.552	0.000	   			0.000	2581	58.118	0.000	0.000	0.000	0	0	0.000	0.000
2	2.884	2.653	3.866	34255	5376	6.372	1.000	 V 	1	N2O	0.113	12095	12.402	1.556	1.900	0.000	0	0	100.000	100.000

[Compound Results(Ch1)]
# of IDs	6
ID#	Name	R.Time	Area	Height	Conc.	Curve	3rd	2nd	1st	Constant	Area Ratio	Height Ratio	Conc. %	Norm Conc.
1	CO	1.476	11788	5289	100.000	Linear	0.000000e+00	0.000000e+00	1.178820e+002	0.000000e+00	0	0	16.667	16.667
2	CH4	1.571	3867	1995	100.000	Linear	0.000000e+00	0.000000e+00	3.867159e+001	0.000000e+00	0	0	16.667	16.667
3	CO2	1.996	3145113	1546732	400.000	Linear	0.000000e+00	0.000000e+00	7.862782e+003	0.000000e+00	0	0	66.667	66.667
4	Ethylene	0.000	0	0	0.000	Linear	0.000000e+00	0.000000e+00	0.000000e+00	0.000000e+00	0	0	0.000	0.000
5	Acetylene	0.000	0	0	0.000	Linear	0.000000e+00	0.000000e+00	0.000000e+00	0.000000e+00	0	0	0.000	0.000
6	Ethane	0.000	0	0	0.000	Linear	0.000000e+00	0.000000e+00	0.000000e+00	0.000000e+00	0	0	0.000	0.000

[Compound Results(Ch2)]
# of IDs	5
ID#	Name	R.Time	Area	Height	Conc.	Curve	3rd	2nd	1st	Constant	Area Ratio	Height Ratio	Conc. %	Norm Conc.
1	Hydrogen	0.000	0	0	0.000	Linear	0.000000e+00	0.000000e+00	0.000000e+00	0.000000e+00	0	0	0.000	0.000
2	Oxygen	0.000	0	0	0.000	Linear	0.000000e+00	0.000000e+00	0.000000e+00	0.000000e+00	0	0	0.000	0.000
3	Nitrogen	0.000	0	0	0.000	Linear	0.000000e+00	0.000000e+00	0.000000e+00	0.000000e+00	0	0	0.000	0.000
4	Methane	0.000	0	0	0.000	Linear	0.000000e+00	0.000000e+00	0.000000e+00	0.000000e+00	0	0	0.000	0.000
5	Carbon Monoxide	0.000	0	0	0.000	Linear	0.000000e+00	0.000000e+00	0.000000e+00	0.000000e+00	0	0	0.000	0.000

[Compound Results(Ch3)]
# of IDs	2
ID#	Name	R.Time	Area	Height	Conc.	Curve	3rd	2nd	1st	Constant	Area Ratio	Height Ratio	Conc. %	Norm Conc.
1	N2O	2.884	34255	5376	1.000	Linear	0.000000e+00	0.000000e+00	3.425503e+004	0.000000e+00	0	0	100.000	100.000
2	SF6	0.000	0	0	0.000	Linear	0.000000e+00	0.000000e+00	0.000000e+00	0.000000e+00	0	0	0.000	0.000

[Group Results(Ch1)]
# of Groups	0

[Group Results(Ch2)]
# of Groups	0

[Group Results(Ch3)]
# of Groups	0

[Chromatogram (Ch1)]
Interval(msec)	220
# of Points	1091
Start Time(min)	0.002
End Time(min)	3.998
R.Time (min)	Intensity
0.00167	8
0.00533	7
0.00900	5
0.01267	3
0.01633	4
0.02000	7
0.02367	10
0.02733	9
0.03100	7
0.03467	6
0.03833	7
0.04200	10
0.04567	11
0.04933	12
0.05300	14
0.05667	16
0.06033	16
0.06400	15
0.06767	14
0.07133	15
0.07500	15
0.07867	17
0.08233	18
0.08600	20
0.08967	20
0.09333	15
0.09700	9
0.10067	4
0.10433	-0
0.10800	-3
0.11167	-5
0.11533	-5
0.11900	-3
0.12267	2
0.12633	6
0.13000	8
0.13367	8
0.13733	6
0.14100	3
0.14467	1
0.14833	-1
0.15200	-3
0.15567	-0
0.15933	6
0.16300	11
0.16667	14
0.17033	12
0.17400	10
0.17767	8
0.18133	6
0.18500	4
0.18867	4
0.19233	6
0.19600	8
0.19967	8
0.20333	7
0.20700	6
0.21067	3
0.21433	-4
0.21800	-11
0.22167	-15
0.22533	-18
0.22900	-19
0.23267	-21
0.23633	-24
0.24000	-27
0.24367	-26
0.24733	-22
0.25100	-18
0.25467	-12
0.25833	-6
0.26200	-7
0.26567	-12
0.26933	-17
0.27300	-17
0.27667	-16
0.28033	-14
0.28400	-11
0.28767	-10
0.29133	-11
0.29500	-12
0.29867	-12
0.30233	-10
0.30600	-9
0.30967	-9
0.31333	-10
0.31700	-8
0.32067	-6
0.32433	-6
0.32800	-6
0.33167	-3
0.33533	-0
0.33900	1
0.34267	-0
0.34633	-2
0.35000	-5
0.35367	-6
0.35733	-6
0.36100	-7
0.36467	-10
0.36833	-12
0.37200	-11
0.37567	-6
0.37933	-1
0.38300	-1
0.38667	-3
0.39033	-5
0.39400	-9
0.39767	-11
0.40133	-12
0.40500	-14
0.40867	-20
0.41233	-27
0.41600	-33
0.41967	-36
0.42333	-34
0.42700	-29
0.43067	-24
0.43433	-20
0.43800	-18
0.44167	-20
0.44533	-23
0.44900	-24
0.45267	-22
0.45633	-20
0.46000	-17
0.46367	-12
0.46733	-9
0.47100	-7
0.47467	-5
0.47833	-2
0.48200	-1
0.48567	-2
0.48933	-4
0.49300	-3
0.49667	2
0.50033	12
0.50400	23
0.50767	31
0.51133	33
0.51500	27
0.51867	11
0.52233	-11
0.52600	-33
0.52967	-51
0.53333	-65
0.53700	-71
0.54067	-73
0.54433	-70
0.54800	-63
0.55167	-55
0.55533	-49
0.55900	-46
0.56267	-42
0.56633	-39
0.57000	-36
0.57367	-36
0.57733	-37
0.58100	-37
0.58467	-35
0.58833	-31
0.59200	-26
0.59567	-18
0.59933	-11
0.60300	-8
0.60667	-8
0.61033	-10
0.61400	-14
0.61767	-20
0.62133	-23
0.62500	-24
0.62867	-23
0.63233	-21
0.63600	-19
0.63967	-17
0.64333	-15
0.64700	-15
0.65067	-16
0.65433	-18
0.65800	-19
0.66167	-22
0.66533	-23
0.66900	-25
0.67267	-24
0.67633	-24
0.68000	-25
0.68367	-26
0.68733	-29
0.69100	-32
0.69467	-35
0.69833	-37
0.70200	-42
0.70567	-44
0.70933	-46
0.71300	-47
0.71667	-47
0.72033	-46
0.72400	-46
0.72767	-43
0.73133	-40
0.73500	-39
0.73867	-38
0.74233	-37
0.74600	-39
0.74967	-43
0.75333	-45
0.75700	-46
0.76067	-47
0.76433	-46
0.76800	-44
0.77167	-40
0.77533	-34
0.77900	-28
0.78267	-26
0.78633	-29
0.79000	-36
0.79367	-44
0.79733	-51
0.80100	-55
0.80467	-50
0.80833	-40
0.81200	-36
0.81567	-39
0.81933	-40
0.82300	-38
0.82667	-39
0.83033	-43
0.83400	-52
0.83767	-60
0.84133	-66
0.84500	-67
0.84867	-62
0.85233	-52
0.85600	-44
0.85967	-42
0.86333	-46
0.86700	-54
0.87067	-65
0.87433	-70
0.87800	-70
0.88167	-68
0.88533	-66
0.88900	-62
0.89267	-61
0.89633	-62
0.90000	-63
0.90367	-65
0.90733	-65
0.91100	-65
0.91467	-67
0.91833	-70
0.92200	-73
0.92567	-72
0.92933	-69
0.93300	-65
0.93667	-62
0.94033	-63
0.94400	-66
0.94767	-66
0.95133	-67
0.95500	-67
0.95867	-64
0.96233	-59
0.96600	-57
0.96967	-59
0.97333	-62
0.97700	-63
0.98067	-61
0.98433	-59
0.98800	-59
0.99167	-61
0.99533	-62
0.99900	-63
1.00267	-63
1.00633	-65
1.01000	-67
1.01367	-67
1.01733	-67
1.02100	-68
1.02467	-71
1.02833	-71
1.03200	-67
1.03567	-60
1.03933	-54
1.04300	-51
1.04667	-54
1.05033	-58
1.05400	-60
1.05767	-61
1.06133	-61
1.06500	-60
1.06867	-62
1.07233	-65
1.07600	-66
1.07967	-64
1.08333	-61
1.08700	-57
1.09067	-53
1.09433	-52
1.09800	-57
1.10167	-63
1.10533	-70
1.10900	-77
1.11267	-81
1.11633	-81
1.12000	-75
1.12367	-72
1.12733	-73
1.13100	-76
1.13467	-80
1.13833	-82
1.14200	-85
1.14567	-85
1.14933	-82
1.15300	-76
1.15667	-72
1.16033	-73
1.16400	-75
1.16767	-77
1.17133	-77
1.17500	-74
1.17867	-72
1.18233	-74
1.18600	-76
1.18967	-78
1.19333	-81
1.19700	-83
1.20067	-82
1.20433	-82
1.20800	-82
1.21167	-82
1.21533	-83
1.21900	-84
1.22267	-86
1.22633	-88
1.23000	-89
1.23367	-88
1.23733	-82
1.24100	-76
1.24467	-72
1.24833	-71
1.25200	-73
1.25567	-79
1.25933	-87
1.26300	-93
1.26667	-95
1.27033	-94
1.27400	-91
1.27767	-79
1.28133	-66
1.28500	-63
1.28867	-70
1.29233	-80
1.29600	-88
1.29967	-92
1.30333	-94
1.30700	-95
1.31067	-94
1.31433	-91
1.31800	-89
1.32167	-91
1.32533	-94
1.32900	-96
1.33267	-93
1.33633	-87
1.34000	-81
1.34367	-77
1.34733	-78
1.35100	-81
1.35467	-80
1.35833	-76
1.36200	-73
1.36567	-74
1.36933	-79
1.37300	-83
1.37667	-82
1.38033	-78
1.38400	-73
1.38767	-70
1.39133	-71
1.39500	-73
1.39867	-76
1.40233	-82
1.40600	-88
1.40967	-92
1.41333	-94
1.41700	-94
1.42067	-95
1.42433	-98
1.42800	-102
1.43167	-102
1.43533	-100
1.43900	-78
1.44267	15
1.44633	246
1.45000	642
1.45367	1250
1.45733	2088
1.46100	3031
1.46467	3903
1.46833	4587
1.47200	5028
1.47567	5194
1.47933	5054
1.48300	4612
1.48667	3941
1.49033	3175
1.49400	2440
1.49767	1811
1.50133	1309
1.50500	928
1.50867	648
1.51233	446
1.51600	302
1.51967	202
1.52333	129
1.52700	74
1.53067	35
1.53433	9
1.53800	-2
1.54167	28
1.54533	150
1.54900	405
1.55267	766
1.55633	1156
1.56000	1502
1.56367	1761
1.56733	1908
1.57100	1912
1.57467	1760
1.57833	1480
1.58200	1142
1.58567	818
1.58933	548
1.59300	342
1.59667	193
1.60033	88
1.60400	19
1.60767	-26
1.61133	-58
1.61500	-77
1.61867	-85
1.62233	-86
1.62600	-86
1.62967	-92
1.63333	-103
1.63700	-110
1.64067	-109
1.64433	-106
1.64800	-106
1.65167	-111
1.65533	-116
1.65900	-118
1.66267	-119
1.66633	-119
1.67000	-118
1.67367	-121
1.67733	-122
1.68100	-123
1.68467	-122
1.68833	-118
1.69200	-113
1.69567	-109
1.69933	-107
1.70300	-107
1.70667	-106
1.71033	-107
1.71400	-106
1.71767	-106
1.72133	-109
1.72500	-113
1.72867	-117
1.73233	-119
1.73600	-121
1.73967	-123
1.74333	-125
1.74700	-127
1.75067	-126
1.75433	-122
1.75800	-119
1.76167	-115
1.76533	-111
1.76900	-108
1.77267	-105
1.77633	-104
1.78000	-103
1.78367	-102
1.78733	-101
1.79100	-103
1.79467	-105
1.79833	-107
1.80200	-109
1.80567	-110
1.80933	-107
1.81300	-103
1.81667	-101
1.82033	-102
1.82400	-107
1.82767	-113
1.83133	-118
1.83500	-120
1.83867	-120
1.84233	-118
1.84600	-115
1.84967	-114
1.85333	-113
1.85700	-110
1.86067	-106
1.86433	-101
1.86800	-99
1.87167	-100
1.87533	-100
1.87900	-98
1.88267	-95
1.88633	-93
1.89000	-92
1.89367	-93
1.89733	-96
1.90100	-99
1.90467	-101
1.90833	-103
1.91200	-104
1.91567	-105
1.91933	-104
1.92300	-100
1.92667	-96
1.93033	-93
1.93400	-92
1.93767	-92
1.94133	-91
1.94500	-88
1.94867	-81
1.95233	-59
1.95600	89
1.95967	1059
1.96333	6020
1.96700	25096
1.97067	80866
1.97433	205229
1.97800	417892
1.98167	702594
1.98533	1009087
1.98900	1278842
1.99267	1466669
1.99633	1546676
2.00000	1512952
2.00367	1380223
2.00733	1179327
2.01100	948845
2.01467	724261
2.01833	529499
2.02200	374716
2.02567	259352
2.02933	177213
2.03300	120542
2.03667	82238
2.04033	56654
2.04400	39649
2.04767	28328
2.05133	20741
2.05500	15598
2.05867	12055
2.06233	9566
2.06600	7780
2.06967	6470
2.07333	5484
2.07700	4723
2.08067	4123
2.08433	3642
2.08800	3255
2.09167	2937
2.09533	2666
2.09900	2434
2.10267	2235
2.10633	2059
2.11000	1904
2.11367	1765
2.11733	1642
2.12100	1534
2.12467	1440
2.12833	1354
2.13200	1273
2.13567	1196
2.13933	1129
2.14300	1071
2.14667	1021
2.15033	981
2.15400	945
2.15767	911
2.16133	875
2.16500	837
2.16867	799
2.17233	761
2.17600	729
2.17967	702
2.18333	679
2.18700	657
2.19067	635
2.19433	614
2.19800	593
2.20167	573
2.20533	551
2.20900	530
2.21267	509
2.21633	494
2.22000	482
2.22367	472
2.22733	464
2.23100	458
2.23467	451
2.23833	442
2.24200	429
2.24567	412
2.24933	398
2.25300	390
2.25667	383
2.26033	376
2.26400	368
2.26767	360
2.27133	351
2.27500	341
2.27867	330
2.28233	323
2.28600	319
2.28967	317
2.29333	313
2.29700	306
2.30067	297
2.30433	286
2.30800	275
2.31167	264
2.31533	255
2.31900	249
2.32267	244
2.32633	240
2.33000	234
2.33367	226
2.33733	219
2.34100	215
2.34467	218
2.34833	221
2.35200	222
2.35567	220
2.35933	218
2.36300	214
2.36667	211
2.37033	210
2.37400	206
2.37767	200
2.38133	195
2.38500	191
2.38867	191
2.39233	190
2.39600	189
2.39967	189
2.40333	191
2.40700	193
2.41067	197
2.41433	201
2.41800	205
2.42167	208
2.42533	208
2.42900	203
2.43267	194
2.43633	182
2.44000	174
2.44367	169
2.44733	165
2.45100	157
2.45467	151
2.45833	150
2.46200	149
2.46567	147
2.46933	146
2.47300	145
2.47667	145
2.48033	147
2.48400	149
2.48767	150
2.49133	147
2.49500	142
2.49867	139
2.50233	138
2.50600	136
2.50967	136
2.51333	137
2.51700	139
2.52067	143
2.52433	144
2.52800	145
2.53167	146
2.53533	146
2.53900	146
2.54267	145
2.54633	142
2.55000	135
2.55367	128
2.55733	123
2.56100	120
2.56467	122
2.56833	129
2.57200	139
2.57567	145
2.57933	141
2.58300	128
2.58667	115
2.59033	105
2.59400	98
2.59767	95
2.60133	93
2.60500	95
2.60867	100
2.61233	99
2.61600	95
2.61967	90
2.62333	89
2.62700	90
2.63067	94
2.63433	96
2.63800	98
2.64167	100
2.64533	102
2.64900	101
2.65267	98
2.65633	95
2.66000	95
2.66367	100
2.66733	105
2.67100	109
2.67467	111
2.67833	112
2.68200	112
2.68567	110
2.68933	106
2.69300	100
2.69667	95
2.70033	89
2.70400	84
2.70767	81
2.71133	81
2.71500	86
2.71867	93
2.72233	98
2.72600	100
2.72967	99
2.73333	93
2.73700	86
2.74067	79
2.74433	77
2.74800	77
2.75167	78
2.75533	80
2.75900	81
2.76267	82
2.76633	82
2.77000	82
2.77367	83
2.77733	84
2.78100	85
2.78467	84
2.78833	83
2.79200	84
2.79567	87
2.79933	90
2.80300	92
2.80667	92
2.81033	90
2.81400	89
2.81767	92
2.82133	97
2.82500	99
2.82867	97
2.83233	92
2.83600	89
2.83967	90
2.84333	89
2.84700	88
2.85067	86
2.85433	82
2.85800	78
2.86167	74
2.86533	75
2.86900	80
2.87267	83
2.87633	86
2.88000	89
2.88367	90
2.88733	87
2.89100	82
2.89467	76
2.89833	70
2.90200	64
2.90567	61
2.90933	63
2.91300	69
2.91667	78
2.92033	84
2.92400	85
2.92767	85
2.93133	87
2.93500	95
2.93867	104
2.94233	106
2.94600	99
2.94967	89
2.95333	82
2.95700	74
2.96067	62
2.96433	51
2.96800	44
2.97167	40
2.97533	42
2.97900	49
2.98267	57
2.98633	63
2.99000	65
2.99367	64
2.99733	63
3.00100	63
3.00467	63
3.00833	64
3.01200	65
3.01567	65
3.01933	65
3.02300	65
3.02667	66
3.03033	65
3.03400	65
3.03767	65
3.04133	66
3.04500	68
3.04867	70
3.05233	72
3.05600	74
3.05967	76
3.06333	77
3.06700	74
3.07067	70
3.07433	65
3.07800	59
3.08167	58
3.08533	60
3.08900	63
3.09267	64
3.09633	62
3.10000	59
3.10367	58
3.10733	58
3.11100	58
3.11467	57
3.11833	58
3.12200	62
3.12567	64
3.12933	64
3.13300	60
3.13667	56
3.14033	55
3.14400	59
3.14767	63
3.15133	64
3.15500	62
3.15867	58
3.16233	56
3.16600	54
3.16967	52
3.17333	50
3.17700	49
3.18067	51
3.18433	56
3.18800	60
3.19167	60
3.19533	57
3.19900	57
3.20267	57
3.20633	58
3.21000	57
3.21367	56
3.21733	56
3.22100	57
3.22467	56
3.22833	53
3.23200	49
3.23567	49
3.23933	51
3.24300	55
3.24667	60
3.25033	65
3.25400	68
3.25767	65
3.26133	60
3.26500	54
3.26867	48
3.27233	43
3.27600	40
3.27967	38
3.28333	39
3.28700	42
3.29067	43
3.29433	41
3.29800	37
3.30167	35
3.30533	35
3.30900	38
3.31267	41
3.31633	48
3.32000	57
3.32367	65
3.32733	70
3.33100	70
3.33467	66
3.33833	60
3.34200	54
3.34567	49
3.34933	46
3.35300	40
3.35667	33
3.36033	32
3.36400	34
3.36767	39
3.37133	43
3.37500	45
3.37867	46
3.38233	45
3.38600	43
3.38967	44
3.39333	46
3.39700	48
3.40067	49
3.40433	51
3.40800	52
3.41167	52
3.41533	53
3.41900	55
3.42267	56
3.42633	53
3.43000	47
3.43367	41
3.43733	39
3.44100	42
3.44467	45
3.44833	45
3.45200	44
3.45567	46
3.45933	49
3.46300	50
3.46667	50
3.47033	47
3.47400	46
3.47767	45
3.48133	45
3.48500	46
3.48867	50
3.49233	54
3.49600	55
3.49967	56
3.50333	57
3.50700	56
3.51067	54
3.51433	52
3.51800	51
3.52167	50
3.52533	47
3.52900	39
3.53267	33
3.53633	29
3.54000	27
3.54367	26
3.54733	26
3.55100	28
3.55467	31
3.55833	34
3.56200	37
3.56567	41
3.56933	42
3.57300	41
3.57667	40
3.58033	39
3.58400	38
3.58767	37
3.59133	37
3.59500	37
3.59867	38
3.60233	40
3.60600	42
3.60967	43
3.61333	41
3.61700	37
3.62067	35
3.62433	34
3.62800	31
3.63167	27
3.63533	29
3.63900	35
3.64267	41
3.64633	45
3.65000	48
3.65367	48
3.65733	47
3.66100	45
3.66467	44
3.66833	43
3.67200	41
3.67567	38
3.67933	35
3.68300	31
3.68667	27
3.69033	24
3.69400	24
3.69767	28
3.70133	35
3.70500	40
3.70867	41
3.71233	39
3.71600	36
3.71967	31
3.72333	25
3.72700	19
3.73067	15
3.73433	16
3.73800	21
3.74167	27
3.74533	33
3.74900	36
3.75267	37
3.75633	36
3.76000	36
3.76367	37
3.76733	35
3.77100	32
3.77467	28
3.77833	24
3.78200	22
3.78567	23
3.78933	24
3.79300	25
3.79667	27
3.80033	31
3.80400	31
3.80767	30
3.81133	31
3.81500	33
3.81867	31
3.82233	26
3.82600	21
3.82967	17
3.83333	12
3.83700	9
3.84067	10
3.84433	12
3.84800	12
3.85167	13
3.85533	14
3.85900	18
3.86267	21
3.86633	19
3.87000	13
3.87367	9
3.87733	6
3.88100	5
3.88467	5
3.88833	6
3.89200	7
3.89567	5
3.89933	3
3.90300	3
3.90667	6
3.91033	11
3.91400	15
3.91767	18
3.92133	19
3.92500	17
3.92867	13
3.93233	7
3.93600	2
3.93967	1
3.94333	4
3.94700	11
3.95067	19
3.95433	25
3.95800	26
3.96167	28
3.96533	33
3.96900	35
3.97267	31
3.97633	23
3.98000	18
3.98367	15
3.98733	13
3.99100	14
3.99467	13
3.99833	11

[Chromatogram (Ch2)]
Interval(msec)	220
# of Points	1091
Start Time(min)	0.002
End Time(min)	3.998
R.Time (min)	Intensity
0.00167	0
0.00533	-0
0.00900	-1
0.01267	-1
0.01633	-2
0.02000	-2
0.02367	-3
0.02733	-3
0.03100	-3
0.03467	-3
0.03833	-4
0.04200	-4
0.04567	-4
0.04933	-4
0.05300	-4
0.05667	-4
0.06033	-4
0.06400	-3
0.06767	-3
0.07133	-3
0.07500	-2
0.07867	-2
0.08233	-2
0.08600	-2
0.08967	-2
0.09333	-2
0.09700	-2
0.10067	-2
0.10433	-2
0.10800	-2
0.11167	-1
0.11533	-1
0.11900	-1
0.12267	-1
0.12633	-1
0.13000	-1
0.13367	-1
0.13733	-1
0.14100	-1
0.14467	-1
0.14833	-1
0.15200	-1
0.15567	-1
0.15933	-1
0.16300	-0
0.16667	-1
0.17033	-1
0.17400	-1
0.17767	-1
0.18133	-1
0.18500	-2
0.18867	-2
0.19233	-2
0.19600	-2
0.19967	-2
0.20333	-2
0.20700	-2
0.21067	-2
0.21433	-2
0.21800	-2
0.22167	-2
0.22533	-2
0.22900	-1
0.23267	-1
0.23633	-1
0.24000	-1
0.24367	-1
0.24733	-1
0.25100	-1
0.25467	-1
0.25833	-2
0.26200	-2
0.26567	-2
0.26933	-2
0.27300	-2
0.27667	-2
0.28033	-2
0.28400	-2
0.28767	-2
0.29133	-2
0.29500	-2
0.29867	-3
0.30233	-3
0.30600	-3
0.30967	-3
0.31333	-3
0.31700	-3
0.32067	-3
0.32433	-3
0.32800	-4
0.33167	-4
0.33533	-4
0.33900	-4
0.34267	-4
0.34633	-4
0.35000	-4
0.35367	-4
0.35733	-5
0.36100	-5
0.36467	-5
0.36833	-6
0.37200	-6
0.37567	-6
0.37933	-6
0.38300	-7
0.38667	-7
0.39033	-7
0.39400	-8
0.39767	-8
0.40133	-8
0.40500	-8
0.40867	-8
0.41233	-8
0.41600	-8
0.41967	-7
0.42333	-7
0.42700	-6
0.43067	-6
0.43433	-6
0.43800	-6
0.44167	-5
0.44533	-5
0.44900	-5
0.45267	-4
0.45633	-4
0.46000	-4
0.46367	-4
0.46733	-4
0.47100	-4
0.47467	-4
0.47833	-4
0.48200	-4
0.48567	-4
0.48933	-4
0.49300	-4
0.49667	-4
0.50033	-3
0.50400	-3
0.50767	-3
0.51133	-3
0.51500	-4
0.51867	-4
0.52233	-4
0.52600	-4
0.52967	-4
0.53333	-4
0.53700	-4
0.54067	-4
0.54433	-3
0.54800	-3
0.55167	-3
0.55533	-3
0.55900	-4
0.56267	-4
0.56633	-4
0.57000	-4
0.57367	-4
0.57733	-4
0.58100	-4
0.58467	-4
0.58833	-4
0.59200	-4
0.59567	-4
0.59933	-4
0.60300	-4
0.60667	-4
0.61033	-4
0.61400	-4
0.61767	-4
0.62133	-4
0.62500	-4
0.62867	-4
0.63233	-3
0.63600	-3
0.63967	-3
0.64333	-3
0.64700	-3
0.65067	-3
0.65433	-3
0.65800	-3
0.66167	-3
0.66533	-3
0.66900	-4
0.67267	-4
0.67633	-4
0.68000	-4
0.68367	-4
0.68733	-4
0.69100	-4
0.69467	-4
0.69833	-4
0.70200	-5
0.70567	-5
0.70933	-5
0.71300	-5
0.71667	-5
0.72033	-5
0.72400	-5
0.72767	-5
0.73133	-6
0.73500	-6
0.73867	-6
0.74233	-6
0.74600	-5
0.74967	-5
0.75333	-5
0.75700	-5
0.76067	-5
0.76433	-5
0.76800	-6
0.77167	-6
0.77533	-6
0.77900	-6
0.78267	-6
0.78633	-6
0.79000	-6
0.79367	-6
0.79733	-6
0.80100	-6
0.80467	-7
0.80833	-7
0.81200	-7
0.81567	-6
0.81933	-6
0.82300	-6
0.82667	-6
0.83033	-6
0.83400	-6
0.83767	-5
0.84133	-5
0.84500	-5
0.84867	-6
0.85233	-5
0.85600	-5
0.85967	-5
0.86333	-5
0.86700	-5
0.87067	-4
0.87433	-4
0.87800	-4
0.88167	-4
0.88533	-4
0.88900	-4
0.89267	-4
0.89633	-5
0.90000	-5
0.90367	-5
0.90733	-5
0.91100	-5
0.91467	-5
0.91833	-6
0.92200	-6
0.92567	-6
0.92933	-6
0.93300	-6
0.93667	-6
0.94033	-6
0.94400	-6
0.94767	-6
0.95133	-6
0.95500	-6
0.95867	-6
0.96233	-5
0.96600	-5
0.96967	-5
0.97333	-5
0.97700	-5
0.98067	-5
0.98433	-5
0.98800	-5
0.99167	-5
0.99533	-5
0.99900	-5
1.00267	-5
1.00633	-4
1.01000	-4
1.01367	-4
1.01733	-4
1.02100	-4
1.02467	-4
1.02833	-4
1.03200	-4
1.03567	-4
1.03933	-4
1.04300	-4
1.04667	-5
1.05033	-5
1.05400	-5
1.05767	-5
1.06133	-5
1.06500	-6
1.06867	-6
1.07233	-6
1.07600	-7
1.07967	-6
1.08333	-6
1.08700	-6
1.09067	-6
1.09433	-6
1.09800	-6
1.10167	-6
1.10533	-6
1.10900	-6
1.11267	-6
1.11633	-6
1.12000	-6
1.12367	-5
1.12733	-5
1.13100	-5
1.13467	-5
1.13833	-5
1.14200	-5
1.14567	-5
1.14933	-5
1.15300	-5
1.15667	-5
1.16033	-5
1.16400	-4
1.16767	-5
1.17133	-5
1.17500	-5
1.17867	-5
1.18233	-5
1.18600	-5
1.18967	-5
1.19333	-5
1.19700	-5
1.20067	-5
1.20433	-5
1.20800	-5
1.21167	-5
1.21533	-5
1.21900	-5
1.22267	-5
1.22633	-5
1.23000	-5
1.23367	-5
1.23733	-5
1.24100	-5
1.24467	-5
1.24833	-4
1.25200	-4
1.25567	-4
1.25933	-4
1.26300	-4
1.26667	-4
1.27033	-5
1.27400	-5
1.27767	-5
1.28133	-4
1.28500	-4
1.28867	-4
1.29233	-4
1.29600	-5
1.29967	-5
1.30333	-5
1.30700	-5
1.31067	-6
1.31433	-6
1.31800	-6
1.32167	-6
1.32533	-6
1.32900	-6
1.33267	-6
1.33633	-6
1.34000	-6
1.34367	-6
1.34733	-6
1.35100	-6
1.35467	-6
1.35833	-6
1.36200	-6
1.36567	-7
1.36933	-6
1.37300	-6
1.37667	-6
1.38033	-6
1.38400	-6
1.38767	-6
1.39133	-6
1.39500	-6
1.39867	-5
1.40233	-5
1.40600	-5
1.40967	-5
1.41333	-5
1.41700	-5
1.42067	-5
1.42433	-5
1.42800	-5
1.43167	-5
1.43533	-5
1.43900	-4
1.44267	-4
1.44633	-4
1.45000	-4
1.45367	-4
1.45733	-4
1.46100	-4
1.46467	-4
1.46833	-4
1.47200	-4
1.47567	-4
1.47933	-4
1.48300	-4
1.48667	-4
1.49033	-4
1.49400	-4
1.49767	-5
1.50133	-5
1.50500	-5
1.50867	-5
1.51233	-5
1.51600	-5
1.51967	-5
1.52333	-5
1.52700	-6
1.53067	-6
1.53433	-6
1.53800	-7
1.54167	-7
1.54533	-7
1.54900	-8
1.55267	-8
1.55633	-8
1.56000	-8
1.56367	-8
1.56733	-8
1.57100	-7
1.57467	-7
1.57833	-7
1.58200	-7
1.58567	-7
1.58933	-7
1.59300	-7
1.59667	-8
1.60033	-8
1.60400	-9
1.60767	-11
1.61133	-12
1.61500	-15
1.61867	-17
1.62233	-20
1.62600	-23
1.62967	-27
1.63333	-30
1.63700	-33
1.64067	-37
1.64433	-40
1.64800	-44
1.65167	-47
1.65533	-50
1.65900	-53
1.66267	-57
1.66633	-60
1.67000	-64
1.67367	-69
1.67733	-73
1.68100	-78
1.68467	-82
1.68833	-87
1.69200	-91
1.69567	-95
1.69933	-98
1.70300	-101
1.70667	-104
1.71033	-107
1.71400	-109
1.71767	-110
1.72133	-111
1.72500	-112
1.72867	-113
1.73233	-113
1.73600	-114
1.73967	-114
1.74333	-114
1.74700	-114
1.75067	-114
1.75433	-114
1.75800	-114
1.76167	-114
1.76533	-115
1.76900	-116
1.77267	-117
1.77633	-118
1.78000	-119
1.78367	-119
1.78733	-120
1.79100	-121
1.79467	-121
1.79833	-122
1.80200	-122
1.80567	-122
1.80933	-123
1.81300	-123
1.81667	-123
1.82033	-124
1.82400	-124
1.82767	-124
1.83133	-124
1.83500	-124
1.83867	-124
1.84233	-124
1.84600	-124
1.84967	-124
1.85333	-124
1.85700	-124
1.86067	-123
1.86433	-123
1.86800	-122
1.87167	-122
1.87533	-121
1.87900	-121
1.88267	-121
1.88633	-121
1.89000	-121
1.89367	-122
1.89733	-122
1.90100	-122
1.90467	-123
1.90833	-123
1.91200	-123
1.91567	-123
1.91933	-123
1.92300	-123
1.92667	-122
1.93033	-122
1.93400	-122
1.93767	-121
1.94133	-121
1.94500	-120
1.94867	-120
1.95233	-120
1.95600	-121
1.95967	-121
1.96333	-120
1.96700	-120
1.97067	-120
1.97433	-120
1.97800	-119
1.98167	-119
1.98533	-119
1.98900	-119
1.99267	-119
1.99633	-119
2.00000	-118
2.00367	-118
2.00733	-117
2.01100	-117
2.01467	-117
2.01833	-117
2.02200	-117
2.02567	-116
2.02933	-116
2.03300	-116
2.03667	-115
2.04033	-115
2.04400	-114
2.04767	-113
2.05133	-113
2.05500	-112
2.05867	-111
2.06233	-111
2.06600	-110
2.06967	-109
2.07333	-109
2.07700	-108
2.08067	-108
2.08433	-108
2.08800	-108
2.09167	-109
2.09533	-109
2.09900	-109
2.10267	-109
2.10633	-109
2.11000	-109
2.11367	-109
2.11733	-109
2.12100	-108
2.12467	-108
2.12833	-107
2.13200	-107
2.13567	-107
2.13933	-106
2.14300	-106
2.14667	-106
2.15033	-105
2.15400	-104
2.15767	-103
2.16133	-103
2.16500	-102
2.16867	-102
2.17233	-102
2.17600	-102
2.17967	-102
2.18333	-102
2.18700	-102
2.19067	-101
2.19433	-101
2.19800	-101
2.20167	-101
2.20533	-101
2.20900	-101
2.21267	-100
2.21633	-100
2.22000	-99
2.22367	-98
2.22733	-98
2.23100	-97
2.23467	-97
2.23833	-97
2.24200	-97
2.24567	-97
2.24933	-97
2.25300	-96
2.25667	-96
2.26033	-96
2.26400	-96
2.26767	-95
2.27133	-95
2.27500	-95
2.27867	-95
2.28233	-96
2.28600	-96
2.28967	-96
2.29333	-95
2.29700	-95
2.30067	-94
2.30433	-94
2.30800	-93
2.31167	-92
2.31533	-91
2.31900	-91
2.32267	-90
2.32633	-90
2.33000	-89
2.33367	-89
2.33733	-89
2.34100	-89
2.34467	-89
2.34833	-89
2.35200	-89
2.35567	-89
2.35933	-88
2.36300	-88
2.36667	-87
2.37033	-85
2.37400	-83
2.37767	-81
2.38133	-78
2.38500	-74
2.38867	-71
2.39233	-67
2.39600	-62
2.39967	-58
2.40333	-54
2.40700	-49
2.41067	-45
2.41433	-40
2.41800	-35
2.42167	-31
2.42533	-28
2.42900	-25
2.43267	-23
2.43633	-20
2.44000	-18
2.44367	-17
2.44733	-15
2.45100	-13
2.45467	-11
2.45833	-9
2.46200	-8
2.46567	-7
2.46933	-6
2.47300	-6
2.47667	-5
2.48033	-5
2.48400	-4
2.48767	-3
2.49133	-3
2.49500	-2
2.49867	-1
2.50233	1
2.50600	1
2.50967	2
2.51333	2
2.51700	3
2.52067	3
2.52433	3
2.52800	4
2.53167	5
2.53533	5
2.53900	6
2.54267	7
2.54633	7
2.55000	7
2.55367	8
2.55733	8
2.56100	8
2.56467	9
2.56833	9
2.57200	9
2.57567	9
2.57933	9
2.58300	8
2.58667	8
2.59033	8
2.59400	9
2.59767	9
2.60133	10
2.60500	10
2.60867	11
2.61233	11
2.61600	11
2.61967	11
2.62333	10
2.62700	10
2.63067	10
2.63433	9
2.63800	9
2.64167	10
2.64533	10
2.64900	11
2.65267	12
2.65633	12
2.66000	13
2.66367	14
2.66733	15
2.67100	16
2.67467	17
2.67833	17
2.68200	18
2.68567	18
2.68933	18
2.69300	17
2.69667	17
2.70033	17
2.70400	17
2.70767	17
2.71133	17
2.71500	17
2.71867	17
2.72233	18
2.72600	18
2.72967	18
2.73333	18
2.73700	18
2.74067	19
2.74433	19
2.74800	19
2.75167	20
2.75533	20
2.75900	20
2.76267	20
2.76633	20
2.77000	19
2.77367	19
2.77733	18
2.78100	18
2.78467	17
2.78833	17
2.79200	17
2.79567	16
2.79933	16
2.80300	16
2.80667	16
2.81033	16
2.81400	16
2.81767	16
2.82133	17
2.82500	17
2.82867	18
2.83233	18
2.83600	19
2.83967	19
2.84333	19
2.84700	17
2.85067	15
2.85433	11
2.85800	5
2.86167	-5
2.86533	-17
2.86900	-34
2.87267	-55
2.87633	-79
2.88000	-107
2.88367	-140
2.88733	-175
2.89100	-214
2.89467	-255
2.89833	-299
2.90200	-344
2.90567	-392
2.90933	-440
2.91300	-489
2.91667	-538
2.92033	-588
2.92400	-637
2.92767	-685
2.93133	-733
2.93500	-781
2.93867	-832
2.94233	-886
2.94600	-947
2.94967	-1006
2.95333	-1053
2.95700	-1078
2.96067	-1076
2.96433	-1050
2.96800	-1002
2.97167	-939
2.97533	-866
2.97900	-787
2.98267	-708
2.98633	-630
2.99000	-557
2.99367	-488
2.99733	-425
3.00100	-369
3.00467	-318
3.00833	-274
3.01200	-234
3.01567	-200
3.01933	-170
3.02300	-144
3.02667	-122
3.03033	-104
3.03400	-87
3.03767	-74
3.04133	-62
3.04500	-52
3.04867	-43
3.05233	-36
3.05600	-30
3.05967	-24
3.06333	-19
3.06700	-15
3.07067	-12
3.07433	-9
3.07800	-7
3.08167	-5
3.08533	-3
3.08900	-1
3.09267	-0
3.09633	1
3.10000	2
3.10367	3
3.10733	4
3.11100	4
3.11467	5
3.11833	6
3.12200	6
3.12567	7
3.12933	8
3.13300	8
3.13667	9
3.14033	9
3.14400	10
3.14767	10
3.15133	10
3.15500	11
3.15867	11
3.16233	11
3.16600	11
3.16967	12
3.17333	12
3.17700	12
3.18067	12
3.18433	12
3.18800	12
3.19167	12
3.19533	13
3.19900	13
3.20267	13
3.20633	13
3.21000	14
3.21367	14
3.21733	15
3.22100	15
3.22467	15
3.22833	16
3.23200	16
3.23567	16
3.23933	16
3.24300	16
3.24667	16
3.25033	16
3.25400	17
3.25767	17
3.26133	17
3.26500	17
3.26867	17
3.27233	17
3.27600	17
3.27967	17
3.28333	17
3.28700	17
3.29067	17
3.29433	17
3.29800	17
3.30167	17
3.30533	17
3.30900	17
3.31267	18
3.31633	18
3.32000	18
3.32367	19
3.32733	19
3.33100	20
3.33467	21
3.33833	21
3.34200	21
3.34567	22
3.34933	22
3.35300	22
3.35667	22
3.36033	23
3.36400	23
3.36767	23
3.37133	24
3.37500	24
3.37867	24
3.38233	24
3.38600	25
3.38967	25
3.39333	25
3.39700	25
3.40067	25
3.40433	25
3.40800	25
3.41167	25
3.41533	25
3.41900	25
3.42267	24
3.42633	24
3.43000	24
3.43367	24
3.43733	24
3.44100	24
3.44467	24
3.44833	24
3.45200	23
3.45567	23
3.45933	23
3.46300	23
3.46667	23
3.47033	23
3.47400	23
3.47767	23
3.48133	22
3.48500	22
3.48867	22
3.49233	21
3.49600	21
3.49967	21
3.50333	20
3.50700	20
3.51067	20
3.51433	20
3.51800	20
3.52167	20
3.52533	20
3.52900	20
3.53267	20
3.53633	20
3.54000	20
3.54367	20
3.54733	21
3.55100	21
3.55467	21
3.55833	21
3.56200	21
3.56567	21
3.56933	20
3.57300	20
3.57667	20
3.58033	20
3.58400	20
3.58767	20
3.59133	20
3.59500	20
3.59867	20
3.60233	20
3.60600	20
3.60967	20
3.61333	20
3.61700	20
3.62067	19
3.62433	19
3.62800	19
3.63167	19
3.63533	19
3.63900	19
3.64267	20
3.64633	20
3.65000	20
3.65367	21
3.65733	21
3.66100	21
3.66467	21
3.66833	21
3.67200	20
3.67567	20
3.67933	20
3.68300	20
3.68667	20
3.69033	20
3.69400	20
3.69767	20
3.70133	20
3.70500	20
3.70867	20
3.71233	20
3.71600	20
3.71967	20
3.72333	21
3.72700	21
3.73067	21
3.73433	22
3.73800	22
3.74167	22
3.74533	22
3.74900	22
3.75267	22
3.75633	22
3.76000	22
3.76367	22
3.76733	21
3.77100	21
3.77467	20
3.77833	20
3.78200	20
3.78567	20
3.78933	20
3.79300	20
3.79667	20
3.80033	21
3.80400	21
3.80767	21
3.81133	21
3.81500	21
3.81867	21
3.82233	21
3.82600	21
3.82967	21
3.83333	21
3.83700	21
3.84067	21
3.84433	21
3.84800	21
3.85167	21
3.85533	21
3.85900	21
3.86267	21
3.86633	21
3.87000	21
3.87367	21
3.87733	21
3.88100	20
3.88467	20
3.88833	21
3.89200	21
3.89567	21
3.89933	21
3.90300	21
3.90667	21
3.91033	21
3.91400	21
3.91767	21
3.92133	21
3.92500	21
3.92867	21
3.93233	21
3.93600	21
3.93967	21
3.94333	21
3.94700	20
3.95067	20
3.95433	20
3.95800	20
3.96167	20
3.96533	20
3.96900	20
3.97267	20
3.97633	20
3.98000	20
3.98367	20
3.98733	20
3.99100	20
3.99467	20
3.99833	20

[Chromatogram (Ch3)]
Interval(msec)	220
# of Points	1091
Start Time(min)	0.002
End Time(min)	3.998
R.Time (min)	Intensity
0.00167	-1
0.00533	-4
0.00900	-3
0.01267	-3
0.01633	-5
0.02000	-6
0.02367	-7
0.02733	-5
0.03100	-2
0.03467	1
0.03833	-0
0.04200	-1
0.04567	-2
0.04933	-4
0.05300	-4
0.05667	-3
0.06033	-0
0.06400	3
0.06767	4
0.07133	4
0.07500	4
0.07867	3
0.08233	4
0.08600	6
0.08967	7
0.09333	6
0.09700	7
0.10067	7
0.10433	5
0.10800	5
0.11167	6
0.11533	6
0.11900	5
0.12267	4
0.12633	4
0.13000	3
0.13367	4
0.13733	5
0.14100	5
0.14467	6
0.14833	6
0.15200	8
0.15567	12
0.15933	14
0.16300	13
0.16667	10
0.17033	8
0.17400	8
0.17767	8
0.18133	8
0.18500	8
0.18867	8
0.19233	9
0.19600	9
0.19967	8
0.20333	9
0.20700	10
0.21067	10
0.21433	10
0.21800	13
0.22167	12
0.22533	8
0.22900	7
0.23267	7
0.23633	9
0.24000	10
0.24367	10
0.24733	10
0.25100	8
0.25467	9
0.25833	9
0.26200	7
0.26567	4
0.26933	3
0.27300	4
0.27667	6
0.28033	8
0.28400	8
0.28767	8
0.29133	9
0.29500	10
0.29867	12
0.30233	12
0.30600	12
0.30967	11
0.31333	13
0.31700	14
0.32067	14
0.32433	11
0.32800	10
0.33167	10
0.33533	11
0.33900	10
0.34267	8
0.34633	7
0.35000	6
0.35367	5
0.35733	5
0.36100	9
0.36467	13
0.36833	13
0.37200	11
0.37567	12
0.37933	10
0.38300	12
0.38667	13
0.39033	11
0.39400	10
0.39767	11
0.40133	13
0.40500	14
0.40867	15
0.41233	17
0.41600	17
0.41967	16
0.42333	17
0.42700	17
0.43067	14
0.43433	13
0.43800	14
0.44167	15
0.44533	15
0.44900	12
0.45267	12
0.45633	12
0.46000	14
0.46367	15
0.46733	14
0.47100	14
0.47467	15
0.47833	16
0.48200	15
0.48567	13
0.48933	12
0.49300	12
0.49667	11
0.50033	9
0.50400	8
0.50767	10
0.51133	12
0.51500	12
0.51867	13
0.52233	14
0.52600	15
0.52967	14
0.53333	13
0.53700	13
0.54067	14
0.54433	16
0.54800	19
0.55167	19
0.55533	21
0.55900	23
0.56267	21
0.56633	17
0.57000	15
0.57367	14
0.57733	15
0.58100	14
0.58467	14
0.58833	14
0.59200	14
0.59567	16
0.59933	19
0.60300	20
0.60667	20
0.61033	19
0.61400	19
0.61767	19
0.62133	20
0.62500	21
0.62867	21
0.63233	17
0.63600	14
0.63967	14
0.64333	15
0.64700	17
0.65067	18
0.65433	21
0.65800	22
0.66167	21
0.66533	19
0.66900	15
0.67267	11
0.67633	10
0.68000	10
0.68367	11
0.68733	13
0.69100	13
0.69467	11
0.69833	11
0.70200	14
0.70567	16
0.70933	18
0.71300	20
0.71667	22
0.72033	23
0.72400	23
0.72767	25
0.73133	27
0.73500	27
0.73867	27
0.74233	26
0.74600	25
0.74967	25
0.75333	24
0.75700	22
0.76067	21
0.76433	19
0.76800	20
0.77167	20
0.77533	18
0.77900	16
0.78267	17
0.78633	20
0.79000	20
0.79367	21
0.79733	20
0.80100	20
0.80467	20
0.80833	18
0.81200	17
0.81567	18
0.81933	19
0.82300	21
0.82667	22
0.83033	21
0.83400	18
0.83767	17
0.84133	17
0.84500	19
0.84867	22
0.85233	24
0.85600	23
0.85967	21
0.86333	19
0.86700	21
0.87067	21
0.87433	22
0.87800	23
0.88167	22
0.88533	23
0.88900	22
0.89267	21
0.89633	20
0.90000	20
0.90367	21
0.90733	20
0.91100	19
0.91467	19
0.91833	18
0.92200	17
0.92567	17
0.92933	19
0.93300	18
0.93667	16
0.94033	17
0.94400	18
0.94767	18
0.95133	18
0.95500	17
0.95867	16
0.96233	15
0.96600	15
0.96967	16
0.97333	16
0.97700	17
0.98067	18
0.98433	18
0.98800	17
0.99167	16
0.99533	14
0.99900	14
1.00267	15
1.00633	15
1.01000	15
1.01367	14
1.01733	13
1.02100	13
1.02467	12
1.02833	10
1.03200	10
1.03567	11
1.03933	16
1.04300	18
1.04667	17
1.05033	16
1.05400	15
1.05767	15
1.06133	16
1.06500	19
1.06867	22
1.07233	22
1.07600	22
1.07967	19
1.08333	20
1.08700	20
1.09067	19
1.09433	20
1.09800	22
1.10167	21
1.10533	20
1.10900	20
1.11267	23
1.11633	23
1.12000	23
1.12367	22
1.12733	19
1.13100	20
1.13467	21
1.13833	20
1.14200	18
1.14567	16
1.14933	16
1.15300	16
1.15667	14
1.16033	14
1.16400	14
1.16767	14
1.17133	15
1.17500	16
1.17867	15
1.18233	15
1.18600	14
1.18967	14
1.19333	15
1.19700	16
1.20067	16
1.20433	15
1.20800	11
1.21167	9
1.21533	9
1.21900	8
1.22267	9
1.22633	12
1.23000	12
1.23367	11
1.23733	8
1.24100	7
1.24467	7
1.24833	9
1.25200	12
1.25567	13
1.25933	13
1.26300	11
1.26667	11
1.27033	12
1.27400	15
1.27767	19
1.28133	20
1.28500	19
1.28867	20
1.29233	19
1.29600	17
1.29967	17
1.30333	16
1.30700	15
1.31067	13
1.31433	13
1.31800	11
1.32167	13
1.32533	15
1.32900	15
1.33267	13
1.33633	12
1.34000	12
1.34367	13
1.34733	12
1.35100	11
1.35467	12
1.35833	12
1.36200	14
1.36567	13
1.36933	14
1.37300	14
1.37667	14
1.38033	14
1.38400	12
1.38767	12
1.39133	12
1.39500	12
1.39867	11
1.40233	10
1.40600	10
1.40967	8
1.41333	6
1.41700	6
1.42067	4
1.42433	3
1.42800	4
1.43167	4
1.43533	4
1.43900	7
1.44267	11
1.44633	11
1.45000	9
1.45367	7
1.45733	7
1.46100	6
1.46467	6
1.46833	7
1.47200	7
1.47567	7
1.47933	6
1.48300	5
1.48667	4
1.49033	6
1.49400	6
1.49767	6
1.50133	6
1.50500	7
1.50867	7
1.51233	7
1.51600	5
1.51967	4
1.52333	2
1.52700	-0
1.53067	0
1.53433	0
1.53800	-0
1.54167	1
1.54533	2
1.54900	1
1.55267	2
1.55633	4
1.56000	3
1.56367	0
1.56733	1
1.57100	0
1.57467	2
1.57833	4
1.58200	4
1.58567	4
1.58933	2
1.59300	1
1.59667	2
1.60033	4
1.60400	6
1.60767	8
1.61133	8
1.61500	7
1.61867	8
1.62233	11
1.62600	12
1.62967	10
1.63333	9
1.63700	8
1.64067	8
1.64433	9
1.64800	9
1.65167	9
1.65533	9
1.65900	10
1.66267	10
1.66633	9
1.67000	9
1.67367	8
1.67733	8
1.68100	10
1.68467	11
1.68833	11
1.69200	13
1.69567	17
1.69933	19
1.70300	22
1.70667	23
1.71033	20
1.71400	20
1.71767	20
1.72133	21
1.72500	21
1.72867	21
1.73233	24
1.73600	24
1.73967	23
1.74333	22
1.74700	21
1.75067	22
1.75433	23
1.75800	24
1.76167	25
1.76533	24
1.76900	23
1.77267	23
1.77633	24
1.78000	26
1.78367	29
1.78733	32
1.79100	33
1.79467	35
1.79833	36
1.80200	35
1.80567	34
1.80933	35
1.81300	35
1.81667	35
1.82033	36
1.82400	37
1.82767	36
1.83133	36
1.83500	33
1.83867	29
1.84233	30
1.84600	31
1.84967	32
1.85333	33
1.85700	35
1.86067	36
1.86433	37
1.86800	39
1.87167	37
1.87533	36
1.87900	36
1.88267	37
1.88633	35
1.89000	36
1.89367	40
1.89733	42
1.90100	41
1.90467	39
1.90833	38
1.91200	38
1.91567	39
1.91933	41
1.92300	44
1.92667	44
1.93033	46
1.93400	45
1.93767	43
1.94133	41
1.94500	42
1.94867	43
1.95233	46
1.95600	46
1.95967	45
1.96333	44
1.96700	45
1.97067	45
1.97433	45
1.97800	46
1.98167	48
1.98533	53
1.98900	55
1.99267	56
1.99633	55
2.00000	55
2.00367	55
2.00733	57
2.01100	57
2.01467	57
2.01833	58
2.02200	58
2.02567	59
2.02933	59
2.03300	56
2.03667	57
2.04033	60
2.04400	63
2.04767	66
2.05133	66
2.05500	65
2.05867	65
2.06233	67
2.06600	69
2.06967	71
2.07333	72
2.07700	74
2.08067	76
2.08433	76
2.08800	77
2.09167	80
2.09533	81
2.09900	81
2.10267	83
2.10633	82
2.11000	83
2.11367	88
2.11733	90
2.12100	89
2.12467	86
2.12833	85
2.13200	87
2.13567	88
2.13933	87
2.14300	87
2.14667	89
2.15033	91
2.15400	91
2.15767	91
2.16133	89
2.16500	91
2.16867	92
2.17233	93
2.17600	96
2.17967	95
2.18333	93
2.18700	93
2.19067	95
2.19433	96
2.19800	97
2.20167	96
2.20533	94
2.20900	95
2.21267	96
2.21633	95
2.22000	95
2.22367	96
2.22733	100
2.23100	104
2.23467	105
2.23833	106
2.24200	106
2.24567	105
2.24933	107
2.25300	108
2.25667	111
2.26033	113
2.26400	116
2.26767	118
2.27133	119
2.27500	118
2.27867	118
2.28233	118
2.28600	118
2.28967	117
2.29333	116
2.29700	116
2.30067	118
2.30433	119
2.30800	119
2.31167	118
2.31533	118
2.31900	119
2.32267	120
2.32633	122
2.33000	123
2.33367	125
2.33733	125
2.34100	125
2.34467	125
2.34833	123
2.35200	122
2.35567	124
2.35933	127
2.36300	129
2.36667	132
2.37033	132
2.37400	131
2.37767	128
2.38133	125
2.38500	125
2.38867	128
2.39233	131
2.39600	134
2.39967	135
2.40333	134
2.40700	134
2.41067	134
2.41433	135
2.41800	137
2.42167	138
2.42533	136
2.42900	135
2.43267	135
2.43633	135
2.44000	136
2.44367	145
2.44733	161
2.45100	171
2.45467	174
2.45833	176
2.46200	185
2.46567	202
2.46933	225
2.47300	250
2.47667	276
2.48033	301
2.48400	328
2.48767	357
2.49133	390
2.49500	418
2.49867	446
2.50233	470
2.50600	492
2.50967	511
2.51333	527
2.51700	540
2.52067	551
2.52433	562
2.52800	573
2.53167	586
2.53533	597
2.53900	603
2.54267	611
2.54633	619
2.55000	628
2.55367	636
2.55733	642
2.56100	648
2.56467	654
2.56833	659
2.57200	663
2.57567	666
2.57933	668
2.58300	671
2.58667	673
2.59033	674
2.59400	670
2.59767	663
2.60133	650
2.60500	630
2.60867	601
2.61233	563
2.61600	518
2.61967	471
2.62333	420
2.62700	373
2.63067	332
2.63433	297
2.63800	269
2.64167	245
2.64533	226
2.64900	213
2.65267	206
2.65633	207
2.66000	210
2.66367	214
2.66733	222
2.67100	232
2.67467	243
2.67833	256
2.68200	270
2.68567	280
2.68933	287
2.69300	298
2.69667	309
2.70033	320
2.70400	332
2.70767	343
2.71133	354
2.71500	364
2.71867	370
2.72233	375
2.72600	382
2.72967	390
2.73333	396
2.73700	399
2.74067	406
2.74433	413
2.74800	419
2.75167	424
2.75533	428
2.75900	433
2.76267	436
2.76633	440
2.77000	443
2.77367	445
2.77733	447
2.78100	449
2.78467	450
2.78833	451
2.79200	451
2.79567	451
2.79933	451
2.80300	453
2.80667	455
2.81033	458
2.81400	461
2.81767	461
2.82133	462
2.82500	463
2.82867	472
2.83233	496
2.83600	547
2.83967	641
2.84333	805
2.84700	1064
2.85067	1431
2.85433	1906
2.85800	2471
2.86167	3092
2.86533	3721
2.86900	4306
2.87267	4802
2.87633	5169
2.88000	5389
2.88367	5456
2.88733	5385
2.89100	5198
2.89467	4923
2.89833	4592
2.90200	4232
2.90567	3863
2.90933	3501
2.91300	3155
2.91667	2831
2.92033	2538
2.92400	2273
2.92767	2037
2.93133	1828
2.93500	1642
2.93867	1479
2.94233	1337
2.94600	1214
2.94967	1105
2.95333	1012
2.95700	934
2.96067	866
2.96433	808
2.96800	758
2.97167	713
2.97533	674
2.97900	642
2.98267	614
2.98633	591
2.99000	568
2.99367	546
2.99733	526
3.00100	510
3.00467	498
3.00833	489
3.01200	481
3.01567	473
3.01933	465
3.02300	457
3.02667	451
3.03033	447
3.03400	443
3.03767	440
3.04133	436
3.04500	432
3.04867	428
3.05233	425
3.05600	421
3.05967	419
3.06333	420
3.06700	419
3.07067	416
3.07433	413
3.07800	411
3.08167	409
3.08533	408
3.08900	406
3.09267	406
3.09633	404
3.10000	403
3.10367	401
3.10733	398
3.11100	397
3.11467	396
3.11833	395
3.12200	395
3.12567	395
3.12933	395
3.13300	394
3.13667	395
3.14033	395
3.14400	393
3.14767	392
3.15133	391
3.15500	390
3.15867	389
3.16233	387
3.16600	384
3.16967	381
3.17333	380
3.17700	380
3.18067	382
3.18433	381
3.18800	378
3.19167	377
3.19533	376
3.19900	377
3.20267	377
3.20633	377
3.21000	379
3.21367	382
3.21733	384
3.22100	383
3.22467	381
3.22833	379
3.23200	377
3.23567	376
3.23933	374
3.24300	372
3.24667	371
3.25033	370
3.25400	367
3.25767	366
3.26133	367
3.26500	365
3.26867	362
3.27233	359
3.27600	358
3.27967	355
3.28333	354
3.28700	354
3.29067	351
3.29433	348
3.29800	348
3.30167	347
3.30533	345
3.30900	339
3.31267	333
3.31633	330
3.32000	329
3.32367	327
3.32733	325
3.33100	322
3.33467	320
3.33833	319
3.34200	317
3.34567	316
3.34933	315
3.35300	313
3.35667	311
3.36033	308
3.36400	305
3.36767	300
3.37133	297
3.37500	296
3.37867	295
3.38233	293
3.38600	291
3.38967	289
3.39333	288
3.39700	286
3.40067	284
3.40433	282
3.40800	280
3.41167	276
3.41533	271
3.41900	269
3.42267	267
3.42633	267
3.43000	269
3.43367	269
3.43733	267
3.44100	269
3.44467	270
3.44833	266
3.45200	262
3.45567	259
3.45933	259
3.46300	256
3.46667	254
3.47033	252
3.47400	248
3.47767	245
3.48133	244
3.48500	243
3.48867	242
3.49233	241
3.49600	239
3.49967	235
3.50333	234
3.50700	233
3.51067	232
3.51433	230
3.51800	228
3.52167	227
3.52533	229
3.52900	229
3.53267	227
3.53633	224
3.54000	221
3.54367	221
3.54733	221
3.55100	221
3.55467	219
3.55833	218
3.56200	215
3.56567	214
3.56933	212
3.57300	209
3.57667	207
3.58033	208
3.58400	209
3.58767	210
3.59133	210
3.59500	208
3.59867	202
3.60233	197
3.60600	195
3.60967	196
3.61333	196
3.61700	194
3.62067	194
3.62433	194
3.62800	193
3.63167	193
3.63533	192
3.63900	190
3.64267	189
3.64633	186
3.65000	184
3.65367	183
3.65733	183
3.66100	180
3.66467	178
3.66833	179
3.67200	178
3.67567	176
3.67933	173
3.68300	170
3.68667	171
3.69033	172
3.69400	171
3.69767	171
3.70133	171
3.70500	172
3.70867	172
3.71233	168
3.71600	164
3.71967	161
3.72333	160
3.72700	157
3.73067	155
3.73433	155
3.73800	153
3.74167	151
3.74533	152
3.74900	153
3.75267	152
3.75633	152
3.76000	152
3.76367	152
3.76733	152
3.77100	151
3.77467	148
3.77833	146
3.78200	145
3.78567	146
3.78933	144
3.79300	142
3.79667	142
3.80033	141
3.80400	140
3.80767	139
3.81133	139
3.81500	138
3.81867	137
3.82233	136
3.82600	135
3.82967	134
3.83333	134
3.83700	134
3.84067	135
3.84433	136
3.84800	134
3.85167	135
3.85533	134
3.85900	130
3.86267	127
3.86633	125
3.87000	124
3.87367	126
3.87733	126
3.88100	125
3.88467	125
3.88833	126
3.89200	124
3.89567	123
3.89933	122
3.90300	120
3.90667	119
3.91033	117
3.91400	116
3.91767	115
3.92133	117
3.92500	119
3.92867	119
3.93233	116
3.93600	115
3.93967	112
3.94333	111
3.94700	109
3.95067	106
3.95433	106
3.95800	105
3.96167	104
3.96533	103
3.96900	103
3.97267	104
3.97633	106
3.98000	106
3.98367	106
3.98733	105
3.99100	105
3.99467	103
3.99833	101

[Status Trace (Column Oven Temperature)]
Interval(msec)	1000
# of Points	240
Start Time(min)	0.007
End Time(min)	3.991
Intensity Units	
Intensity Multiplier	1
R.Time (min)	Intensity
0.00723	35.01
0.02390	35.03
0.04057	35.03
0.05723	35.02
0.07390	35.01
0.09057	35.01
0.10723	35.01
0.12390	34.99
0.14057	34.99
0.15723	34.98
0.17390	34.97
0.19057	34.97
0.20723	34.96
0.22390	34.96
0.24057	34.95
0.25723	34.95
0.27390	34.94
0.29057	34.96
0.30723	34.95
0.32390	34.95
0.34057	34.95
0.35723	34.95
0.37390	34.97
0.39057	34.99
0.40723	35.01
0.42390	35.01
0.44057	35.01
0.45723	35.00
0.47390	34.99
0.49057	34.99
0.50723	34.98
0.52390	34.97
0.54057	34.97
0.55723	34.97
0.57390	34.97
0.59057	34.98
0.60723	34.98
0.62390	34.97
0.64057	34.97
0.65723	34.97
0.67390	34.97
0.69057	34.98
0.70723	34.98
0.72390	34.98
0.74057	34.97
0.75723	34.98
0.77390	34.98
0.79057	34.98
0.80723	34.99
0.82390	34.99
0.84057	34.99
0.85723	34.98
0.87390	34.98
0.89057	34.98
0.90723	34.99
0.92390	35.00
0.94057	34.99
0.95723	34.99
0.97390	34.99
0.99057	34.99
1.00723	34.99
1.02390	34.98
1.04057	34.99
1.05723	35.00
1.07390	35.00
1.09057	34.99
1.10723	35.00
1.12390	34.99
1.14057	34.99
1.15723	34.99
1.17390	34.98
1.19057	34.98
1.20723	34.99
1.22390	34.98
1.24057	34.97
1.25723	34.98
1.27390	34.98
1.29057	34.99
1.30723	34.99
1.32390	35.00
1.34057	35.00
1.35723	34.99
1.37390	35.00
1.39057	35.00
1.40723	34.99
1.42390	34.99
1.44057	34.97
1.45723	34.97
1.47390	34.96
1.49057	34.96
1.50723	34.96
1.52390	34.96
1.54057	34.98
1.55723	34.98
1.57390	34.98
1.59057	35.00
1.60723	35.06
1.62390	35.19
1.64057	35.39
1.65723	35.64
1.67390	35.96
1.69057	36.32
1.70723	36.69
1.72390	37.03
1.74057	37.34
1.75723	37.66
1.77390	38.00
1.79057	38.33
1.80723	38.67
1.82390	39.00
1.84057	39.35
1.85723	39.65
1.87390	39.97
1.89057	40.31
1.90723	40.65
1.92390	40.98
1.94057	41.31
1.95723	41.64
1.97390	41.96
1.99057	42.29
2.00723	42.63
2.02390	42.94
2.04057	43.26
2.05723	43.58
2.07390	43.90
2.09057	44.23
2.10723	44.57
2.12390	44.90
2.14057	45.24
2.15723	45.55
2.17390	45.89
2.19057	46.23
2.20723	46.57
2.22390	46.86
2.24057	47.20
2.25723	47.54
2.27390	47.87
2.29057	48.20
2.30723	48.52
2.32390	48.84
2.34057	49.16
2.35723	49.45
2.37390	49.63
2.39057	49.70
2.40723	49.69
2.42390	49.68
2.44057	49.70
2.45723	49.69
2.47390	49.72
2.49057	49.72
2.50723	49.74
2.52390	49.76
2.54057	49.76
2.55723	49.77
2.57390	49.78
2.59057	49.80
2.60723	49.80
2.62390	49.85
2.64057	49.87
2.65723	49.85
2.67390	49.84
2.69057	49.86
2.70723	49.87
2.72390	49.86
2.74057	49.85
2.75723	49.84
2.77390	49.87
2.79057	49.90
2.80723	49.92
2.82390	49.92
2.84057	49.93
2.85723	49.93
2.87390	49.93
2.89057	49.94
2.90723	49.94
2.92390	49.94
2.94057	49.95
2.95723	49.95
2.97390	49.95
2.99057	49.96
3.00723	49.96
3.02390	49.98
3.04057	49.99
3.05723	50.00
3.07390	50.02
3.09057	50.03
3.10723	50.04
3.12390	50.04
3.14057	50.05
3.15723	50.07
3.17390	50.07
3.19057	50.08
3.20723	50.08
3.22390	50.09
3.24057	50.09
3.25723	50.10
3.27390	50.11
3.29057	50.12
3.30723	50.12
3.32390	50.10
3.34057	50.09
3.35723	50.07
3.37390	50.04
3.39057	50.02
3.40723	50.02
3.42390	50.00
3.44057	49.99
3.45723	49.98
3.47390	49.99
3.49057	49.99
3.50723	49.99
3.52390	50.00
3.54057	50.00
3.55723	50.00
3.57390	50.01
3.59057	50.02
3.60723	50.01
3.62390	50.02
3.64057	50.02
3.65723	50.03
3.67390	50.03
3.69057	50.03
3.70723	50.02
3.72390	50.02
3.74057	50.02
3.75723	50.02
3.77390	50.02
3.79057	50.03
3.80723	50.03
3.82390	50.03
3.84057	50.04
3.85723	50.03
3.87390	50.04
3.89057	50.04
3.90723	50.04
3.92390	50.03
3.94057	50.03
3.95723	50.04
3.97390	50.05
3.99057	50.06

[Status Trace (Injection Unit Temperature)]
Interval(msec)	1000
# of Points	240
Start Time(min)	0.007
End Time(min)	3.991
Intensity Units	
Intensity Multiplier	1
R.Time (min)	Intensity
0.00723	99.98
0.02390	99.98
0.04057	99.98
0.05723	99.98
0.07390	99.98
0.09057	99.98
0.10723	99.98
0.12390	99.99
0.14057	99.98
0.15723	99.98
0.17390	99.99
0.19057	99.97
0.20723	99.98
0.22390	99.98
0.24057	99.98
0.25723	99.98
0.27390	99.98
0.29057	99.98
0.30723	99.99
0.32390	99.98
0.34057	99.98
0.35723	99.99
0.37390	99.99
0.39057	99.98
0.40723	99.98
0.42390	99.98
0.44057	99.99
0.45723	99.99
0.47390	99.99
0.49057	99.99
0.50723	99.99
0.52390	99.99
0.54057	99.99
0.55723	99.99
0.57390	99.98
0.59057	99.99
0.60723	99.99
0.62390	99.99
0.64057	99.99
0.65723	99.99
0.67390	99.99
0.69057	99.99
0.70723	99.99
0.72390	99.98
0.74057	99.99
0.75723	99.99
0.77390	99.99
0.79057	99.99
0.80723	99.99
0.82390	100.00
0.84057	99.99
0.85723	99.99
0.87390	99.99
0.89057	99.99
0.90723	99.99
0.92390	99.99
0.94057	99.99
0.95723	99.99
0.97390	99.99
0.99057	99.99
1.00723	99.99
1.02390	99.99
1.04057	99.99
1.05723	99.99
1.07390	99.99
1.09057	99.99
1.10723	99.99
1.12390	99.98
1.14057	99.99
1.15723	99.99
1.17390	99.99
1.19057	99.99
1.20723	99.99
1.22390	99.99
1.24057	99.99
1.25723	99.99
1.27390	99.99
1.29057	99.99
1.30723	99.99
1.32390	99.99
1.34057	99.98
1.35723	99.99
1.37390	99.99
1.39057	100.00
1.40723	99.99
1.42390	99.99
1.44057	99.98
1.45723	99.99
1.47390	99.99
1.49057	99.99
1.50723	99.98
1.52390	99.99
1.54057	99.99
1.55723	99.99
1.57390	99.99
1.59057	99.99
1.60723	99.99
1.62390	99.99
1.64057	99.98
1.65723	99.99
1.67390	99.99
1.69057	99.99
1.70723	99.99
1.72390	99.99
1.74057	99.99
1.75723	99.99
1.77390	99.99
1.79057	99.98
1.80723	99.99
1.82390	99.99
1.84057	99.99
1.85723	99.99
1.87390	99.98
1.89057	99.98
1.90723	99.99
1.92390	99.98
1.94057	99.99
1.95723	99.98
1.97390	99.98
1.99057	99.98
2.00723	99.98
2.02390	99.98
2.04057	99.98
2.05723	99.98
2.07390	99.98
2.09057	99.97
2.10723	99.98
2.12390	99.98
2.14057	99.98
2.15723	99.97
2.17390	99.97
2.19057	99.97
2.20723	99.97
2.22390	99.97
2.24057	99.97
2.25723	99.97
2.27390	99.97
2.29057	99.97
2.30723	99.98
2.32390	99.97
2.34057	99.98
2.35723	99.98
2.37390	99.98
2.39057	99.97
2.40723	99.98
2.42390	99.98
2.44057	99.97
2.45723	99.98
2.47390	99.98
2.49057	99.98
2.50723	99.98
2.52390	99.98
2.54057	99.98
2.55723	99.99
2.57390	99.99
2.59057	99.99
2.60723	99.98
2.62390	99.99
2.64057	99.99
2.65723	99.99
2.67390	99.99
2.69057	99.99
2.70723	100.00
2.72390	99.99
2.74057	100.00
2.75723	99.99
2.77390	100.00
2.79057	100.00
2.80723	100.00
2.82390	100.00
2.84057	100.00
2.85723	100.01
2.87390	100.00
2.89057	100.01
2.90723	100.01
2.92390	100.01
2.94057	100.02
2.95723	100.01
2.97390	100.02
2.99057	100.02
3.00723	100.02
3.02390	100.02
3.04057	100.02
3.05723	100.03
3.07390	100.03
3.09057	100.03
3.10723	100.02
3.12390	100.03
3.14057	100.03
3.15723	100.03
3.17390	100.03
3.19057	100.03
3.20723	100.03
3.22390	100.03
3.24057	100.03
3.25723	100.04
3.27390	100.04
3.29057	100.04
3.30723	100.04
3.32390	100.04
3.34057	100.04
3.35723	100.04
3.37390	100.04
3.39057	100.04
3.40723	100.05
3.42390	100.04
3.44057	100.04
3.45723	100.05
3.47390	100.05
3.49057	100.05
3.50723	100.05
3.52390	100.05
3.54057	100.05
3.55723	100.04
3.57390	100.05
3.59057	100.05
3.60723	100.05
3.62390	100.05
3.64057	100.05
3.65723	100.05
3.67390	100.05
3.69057	100.06
3.70723	100.05
3.72390	100.05
3.74057	100.06
3.75723	100.05
3.77390	100.06
3.79057	100.06
3.80723	100.06
3.82390	100.05
3.84057	100.06
3.85723	100.06
3.87390	100.05
3.89057	100.05
3.90723	100.05
3.92390	100.05
3.94057	100.05
3.95723	100.06
3.97390	100.06
3.99057	100.06

[Status Trace (Carrier Gas Pressure)]
Interval(msec)	1000
# of Points	240
Start Time(min)	0.007
End Time(min)	3.991
Intensity Units	
Intensity Multiplier	1
R.Time (min)	Intensity
0.00723	58.00
0.02390	55.52
0.04057	56.98
0.05723	59.16
0.07390	59.61
0.09057	58.10
0.10723	57.98
0.12390	58.01
0.14057	58.01
0.15723	58.01
0.17390	58.00
0.19057	58.00
0.20723	58.00
0.22390	58.00
0.24057	58.00
0.25723	58.00
0.27390	58.00
0.29057	58.00
0.30723	58.00
0.32390	58.00
0.34057	58.00
0.35723	58.00
0.37390	58.00
0.39057	58.00
0.40723	58.00
0.42390	58.00
0.44057	58.00
0.45723	58.00
0.47390	58.00
0.49057	58.00
0.50723	58.00
0.52390	58.00
0.54057	58.00
0.55723	58.00
0.57390	58.00
0.59057	58.00
0.60723	58.00
0.62390	58.00
0.64057	58.00
0.65723	58.00
0.67390	58.00
0.69057	58.00
0.70723	58.00
0.72390	58.00
0.74057	58.00
0.75723	58.00
0.77390	58.00
0.79057	58.00
0.80723	58.00
0.82390	58.00
0.84057	58.00
0.85723	58.00
0.87390	58.00
0.89057	58.00
0.90723	58.00
0.92390	58.00
0.94057	58.00
0.95723	58.00
0.97390	58.00
0.99057	58.00
1.00723	58.00
1.02390	58.00
1.04057	58.00
1.05723	58.00
1.07390	58.00
1.09057	58.00
1.10723	58.00
1.12390	58.00
1.14057	58.00
1.15723	58.00
1.17390	58.00
1.19057	58.00
1.20723	58.00
1.22390	58.00
1.24057	58.00
1.25723	58.00
1.27390	58.00
1.29057	58.00
1.30723	58.00
1.32390	58.00
1.34057	58.00
1.35723	58.00
1.37390	58.00
1.39057	58.00
1.40723	58.00
1.42390	58.00
1.44057	58.00
1.45723	58.00
1.47390	58.00
1.49057	58.00
1.50723	58.00
1.52390	58.00
1.54057	58.00
1.55723	58.00
1.57390	58.00
1.59057	58.00
1.60723	58.00
1.62390	58.01
1.64057	58.00
1.65723	58.00
1.67390	58.01
1.69057	58.00
1.70723	58.00
1.72390	58.00
1.74057	58.00
1.75723	58.00
1.77390	58.00
1.79057	58.00
1.80723	58.00
1.82390	58.00
1.84057	58.00
1.85723	58.00
1.87390	58.00
1.89057	58.00
1.90723	58.00
1.92390	58.00
1.94057	58.00
1.95723	58.00
1.97390	58.00
1.99057	58.00
2.00723	58.00
2.02390	58.00
2.04057	58.00
2.05723	58.00
2.07390	58.00
2.09057	58.00
2.10723	58.00
2.12390	58.00
2.14057	58.00
2.15723	58.00
2.17390	58.00
2.19057	58.00
2.20723	58.00
2.22390	58.00
2.24057	58.00
2.25723	58.00
2.27390	58.00
2.29057	58.00
2.30723	58.00
2.32390	58.00
2.34057	58.00
2.35723	58.00
2.37390	58.00
2.39057	57.99
2.40723	57.99
2.42390	58.00
2.44057	58.00
2.45723	58.00
2.47390	58.00
2.49057	58.00
2.50723	58.00
2.52390	57.99
2.54057	58.00
2.55723	58.00
2.57390	58.00
2.59057	58.00
2.60723	58.00
2.62390	58.00
2.64057	58.00
2.65723	58.00
2.67390	58.00
2.69057	58.00
2.70723	58.00
2.72390	58.00
2.74057	58.00
2.75723	58.00
2.77390	58.00
2.79057	58.00
2.80723	58.00
2.82390	58.00
2.84057	58.00
2.85723	58.00
2.87390	58.00
2.89057	58.00
2.90723	58.00
2.92390	58.00
2.94057	58.00
2.95723	58.00
2.97390	58.00
2.99057	58.00
3.00723	58.00
3.02390	58.00
3.04057	58.00
3.05723	58.00
3.07390	58.00
3.09057	58.00
3.10723	58.00
3.12390	58.00
3.14057	58.00
3.15723	58.00
3.17390	58.00
3.19057	58.00
3.20723	58.00
3.22390	58.00
3.24057	58.00
3.25723	58.00
3.27390	58.00
3.29057	58.00
3.30723	58.00
3.32390	58.00
3.34057	58.00
3.35723	58.00
3.37390	58.00
3.39057	58.00
3.40723	58.00
3.42390	58.00
3.44057	58.00
3.45723	58.00
3.47390	58.00
3.49057	58.00
3.50723	58.00
3.52390	58.00
3.54057	58.00
3.55723	58.00
3.57390	58.00
3.59057	58.00
3.60723	58.00
3.62390	58.00
3.64057	58.00
3.65723	58.00
3.67390	58.00
3.69057	58.00
3.70723	58.00
3.72390	58.00
3.74057	58.00
3.75723	58.00
3.77390	58.00
3.79057	58.00
3.80723	58.00
3.82390	58.00
3.84057	58.00
3.85723	58.00
3.87390	58.00
3.89057	58.00
3.90723	58.00
3.92390	58.00
3.94057	58.00
3.95723	58.00
3.97390	58.00
3.99057	58.00

[Status Trace (Carrier Gas Flow)]
Interval(msec)	1000
# of Points	240
Start Time(min)	0.007
End Time(min)	3.991
Intensity Units	
Intensity Multiplier	1
R.Time (min)	Intensity
0.00723	34.52
0.02390	34.54
0.04057	34.55
0.05723	34.55
0.07390	34.49
0.09057	34.52
0.10723	34.52
0.12390	34.52
0.14057	34.52
0.15723	34.52
0.17390	34.52
0.19057	34.52
0.20723	34.52
0.22390	34.52
0.24057	34.52
0.25723	34.52
0.27390	34.52
0.29057	34.52
0.30723	34.52
0.32390	34.52
0.34057	34.52
0.35723	34.52
0.37390	34.52
0.39057	34.52
0.40723	34.52
0.42390	34.52
0.44057	34.52
0.45723	34.52
0.47390	34.52
0.49057	34.52
0.50723	34.52
0.52390	34.52
0.54057	34.52
0.55723	34.52
0.57390	34.52
0.59057	34.52
0.60723	34.52
0.62390	34.52
0.64057	34.52
0.65723	34.52
0.67390	34.52
0.69057	34.52
0.70723	34.52
0.72390	34.52
0.74057	34.52
0.75723	34.52
0.77390	34.52
0.79057	34.52
0.80723	34.52
0.82390	34.52
0.84057	34.52
0.85723	34.52
0.87390	34.52
0.89057	34.52
0.90723	34.52
0.92390	34.52
0.94057	34.52
0.95723	34.52
0.97390	34.52
0.99057	34.52
1.00723	34.52
1.02390	34.52
1.04057	34.52
1.05723	34.52
1.07390	34.52
1.09057	34.52
1.10723	34.52
1.12390	34.52
1.14057	34.52
1.15723	34.52
1.17390	34.52
1.19057	34.52
1.20723	34.52
1.22390	34.52
1.24057	34.52
1.25723	34.52
1.27390	34.52
1.29057	34.52
1.30723	34.52
1.32390	34.52
1.34057	34.52
1.35723	34.52
1.37390	34.52
1.39057	34.52
1.40723	34.52
1.42390	34.52
1.44057	34.52
1.45723	34.52
1.47390	34.52
1.49057	34.52
1.50723	34.52
1.52390	34.52
1.54057	34.52
1.55723	34.52
1.57390	34.52
1.59057	34.52
1.60723	34.52
1.62390	34.52
1.64057	34.52
1.65723	34.52
1.67390	34.52
1.69057	34.52
1.70723	34.52
1.72390	34.52
1.74057	34.52
1.75723	34.52
1.77390	34.52
1.79057	34.52
1.80723	34.52
1.82390	34.52
1.84057	34.52
1.85723	34.52
1.87390	34.52
1.89057	34.52
1.90723	34.52
1.92390	34.52
1.94057	34.52
1.95723	34.52
1.97390	34.52
1.99057	34.52
2.00723	34.52
2.02390	34.52
2.04057	34.52
2.05723	34.52
2.07390	34.52
2.09057	34.52
2.10723	34.52
2.12390	34.52
2.14057	34.52
2.15723	34.52
2.17390	34.52
2.19057	34.52
2.20723	34.52
2.22390	34.52
2.24057	34.52
2.25723	34.52
2.27390	34.52
2.29057	34.52
2.30723	34.52
2.32390	34.52
2.34057	34.52
2.35723	34.52
2.37390	34.52
2.39057	34.52
2.40723	34.52
2.42390	34.52
2.44057	34.52
2.45723	34.52
2.47390	34.52
2.49057	34.52
2.50723	34.36
2.52390	34.53
2.54057	34.52
2.55723	34.51
2.57390	34.51
2.59057	34.52
2.60723	34.51
2.62390	34.52
2.64057	34.53
2.65723	34.52
2.67390	34.51
2.69057	34.52
2.70723	34.52
2.72390	34.53
2.74057	34.53
2.75723	34.51
2.77390	34.52
2.79057	34.52
2.80723	34.53
2.82390	34.52
2.84057	34.52
2.85723	34.52
2.87390	34.52
2.89057	34.52
2.90723	34.52
2.92390	34.52
2.94057	34.52
2.95723	34.52
2.97390	34.52
2.99057	34.52
3.00723	34.52
3.02390	34.52
3.04057	34.52
3.05723	34.52
3.07390	34.52
3.09057	34.52
3.10723	34.52
3.12390	34.52
3.14057	34.52
3.15723	34.51
3.17390	34.52
3.19057	34.52
3.20723	34.52
3.22390	34.52
3.24057	34.52
3.25723	34.52
3.27390	34.52
3.29057	34.52
3.30723	34.52
3.32390	34.52
3.34057	34.52
3.35723	34.52
3.37390	34.52
3.39057	34.52
3.40723	34.52
3.42390	34.52
3.44057	34.52
3.45723	34.52
3.47390	34.52
3.49057	34.52
3.50723	34.52
3.52390	34.52
3.54057	34.52
3.55723	34.52
3.57390	34.52
3.59057	34.52
3.60723	34.52
3.62390	34.52
3.64057	34.52
3.65723	34.52
3.67390	34.52
3.69057	34.52
3.70723	34.52
3.72390	34.52
3.74057	34.52
3.75723	34.52
3.77390	34.52
3.79057	34.52
3.80723	34.52
3.82390	34.52
3.84057	34.52
3.85723	34.52
3.87390	34.52
3.89057	34.52
3.90723	34.52
3.92390	34.52
3.94057	34.52
3.95723	34.52
3.97390	34.52
3.99057	34.52

[Status Trace (Column Flow)]
Interval(msec)	1000
# of Points	240
Start Time(min)	0.007
End Time(min)	3.991
Intensity Units	
Intensity Multiplier	1
R.Time (min)	Intensity
0.00723	5.45
0.02390	5.17
0.04057	5.33
0.05723	5.59
0.07390	5.64
0.09057	5.46
0.10723	5.45
0.12390	5.45
0.14057	5.45
0.15723	5.45
0.17390	5.45
0.19057	5.45
0.20723	5.45
0.22390	5.45
0.24057	5.45
0.25723	5.45
0.27390	5.45
0.29057	5.45
0.30723	5.45
0.32390	5.45
0.34057	5.45
0.35723	5.45
0.37390	5.45
0.39057	5.45
0.40723	5.45
0.42390	5.45
0.44057	5.45
0.45723	5.45
0.47390	5.45
0.49057	5.45
0.50723	5.45
0.52390	5.45
0.54057	5.45
0.55723	5.45
0.57390	5.45
0.59057	5.45
0.60723	5.45
0.62390	5.45
0.64057	5.45
0.65723	5.45
0.67390	5.45
0.69057	5.45
0.70723	5.45
0.72390	5.45
0.74057	5.45
0.75723	5.45
0.77390	5.45
0.79057	5.45
0.80723	5.45
0.82390	5.45
0.84057	5.45
0.85723	5.45
0.87390	5.45
0.89057	5.45
0.90723	5.45
0.92390	5.45
0.94057	5.45
0.95723	5.45
0.97390	5.45
0.99057	5.45
1.00723	5.45
1.02390	5.45
1.04057	5.45
1.05723	5.45
1.07390	5.45
1.09057	5.45
1.10723	5.45
1.12390	5.45
1.14057	5.45
1.15723	5.45
1.17390	5.45
1.19057	5.45
1.20723	5.45
1.22390	5.45
1.24057	5.45
1.25723	5.45
1.27390	5.45
1.29057	5.45
1.30723	5.45
1.32390	5.45
1.34057	5.45
1.35723	5.45
1.37390	5.45
1.39057	5.45
1.40723	5.45
1.42390	5.45
1.44057	5.45
1.45723	5.45
1.47390	5.45
1.49057	5.45
1.50723	5.45
1.52390	5.45
1.54057	5.45
1.55723	5.45
1.57390	5.45
1.59057	5.45
1.60723	5.45
1.62390	5.45
1.64057	5.44
1.65723	5.43
1.67390	5.42
1.69057	5.41
1.70723	5.40
1.72390	5.39
1.74057	5.38
1.75723	5.37
1.77390	5.36
1.79057	5.35
1.80723	5.34
1.82390	5.33
1.84057	5.32
1.85723	5.31
1.87390	5.30
1.89057	5.29
1.90723	5.28
1.92390	5.27
1.94057	5.26
1.95723	5.25
1.97390	5.24
1.99057	5.23
2.00723	5.22
2.02390	5.21
2.04057	5.20
2.05723	5.19
2.07390	5.19
2.09057	5.18
2.10723	5.17
2.12390	5.16
2.14057	5.15
2.15723	5.14
2.17390	5.13
2.19057	5.12
2.20723	5.11
2.22390	5.10
2.24057	5.09
2.25723	5.08
2.27390	5.07
2.29057	5.06
2.30723	5.06
2.32390	5.05
2.34057	5.04
2.35723	5.03
2.37390	5.02
2.39057	5.02
2.40723	5.02
2.42390	5.02
2.44057	5.02
2.45723	5.02
2.47390	5.02
2.49057	5.02
2.50723	5.02
2.52390	5.02
2.54057	5.02
2.55723	5.02
2.57390	5.02
2.59057	5.02
2.60723	5.02
2.62390	5.02
2.64057	5.02
2.65723	5.02
2.67390	5.02
2.69057	5.02
2.70723	5.02
2.72390	5.02
2.74057	5.02
2.75723	5.02
2.77390	5.02
2.79057	5.02
2.80723	5.02
2.82390	5.02
2.84057	5.02
2.85723	5.02
2.87390	5.02
2.89057	5.02
2.90723	5.02
2.92390	5.02
2.94057	5.02
2.95723	5.02
2.97390	5.02
2.99057	5.02
3.00723	5.02
3.02390	5.02
3.04057	5.02
3.05723	5.01
3.07390	5.01
3.09057	5.01
3.10723	5.01
3.12390	5.01
3.14057	5.01
3.15723	5.01
3.17390	5.01
3.19057	5.01
3.20723	5.01
3.22390	5.01
3.24057	5.01
3.25723	5.01
3.27390	5.01
3.29057	5.01
3.30723	5.01
3.32390	5.01
3.34057	5.01
3.35723	5.01
3.37390	5.01
3.39057	5.01
3.40723	5.01
3.42390	5.01
3.44057	5.02
3.45723	5.02
3.47390	5.02
3.49057	5.02
3.50723	5.02
3.52390	5.02
3.54057	5.01
3.55723	5.01
3.57390	5.01
3.59057	5.01
3.60723	5.01
3.62390	5.01
3.64057	5.01
3.65723	5.01
3.67390	5.01
3.69057	5.01
3.70723	5.01
3.72390	5.01
3.74057	5.01
3.75723	5.01
3.77390	5.01
3.79057	5.01
3.80723	5.01
3.82390	5.01
3.84057	5.01
3.85723	5.01
3.87390	5.01
3.89057	5.01
3.90723	5.01
3.92390	5.01
3.94057	5.01
3.95723	5.01
3.97390	5.01
3.99057	5.01

[Status Trace (Linear Velocity)]
Interval(msec)	1000
# of Points	240
Start Time(min)	0.007
End Time(min)	3.991
Intensity Units	
Intensity Multiplier	1
R.Time (min)	Intensity
0.00723	39.00
0.02390	37.37
0.04057	38.33
0.05723	39.76
0.07390	40.05
0.09057	39.06
0.10723	38.98
0.12390	39.01
0.14057	39.01
0.15723	39.01
0.17390	39.01
0.19057	39.00
0.20723	39.01
0.22390	39.01
0.24057	39.01
0.25723	39.01
0.27390	39.01
0.29057	39.00
0.30723	39.01
0.32390	39.01
0.34057	39.01
0.35723	39.00
0.37390	39.00
0.39057	39.00
0.40723	39.00
0.42390	39.00
0.44057	39.00
0.45723	39.00
0.47390	39.00
0.49057	39.00
0.50723	39.00
0.52390	39.00
0.54057	39.00
0.55723	39.00
0.57390	39.00
0.59057	39.00
0.60723	39.00
0.62390	39.00
0.64057	39.00
0.65723	39.00
0.67390	39.00
0.69057	39.00
0.70723	39.00
0.72390	39.00
0.74057	39.00
0.75723	39.00
0.77390	39.00
0.79057	39.00
0.80723	39.00
0.82390	39.00
0.84057	39.00
0.85723	39.00
0.87390	39.00
0.89057	39.00
0.90723	39.00
0.92390	39.00
0.94057	39.00
0.95723	39.00
0.97390	39.00
0.99057	39.00
1.00723	39.00
1.02390	39.00
1.04057	39.00
1.05723	39.00
1.07390	39.00
1.09057	39.00
1.10723	39.00
1.12390	39.00
1.14057	39.00
1.15723	39.00
1.17390	39.00
1.19057	39.00
1.20723	39.00
1.22390	39.00
1.24057	39.00
1.25723	39.00
1.27390	39.00
1.29057	39.00
1.30723	39.00
1.32390	39.00
1.34057	39.00
1.35723	39.00
1.37390	39.00
1.39057	39.00
1.40723	39.00
1.42390	39.00
1.44057	39.00
1.45723	39.00
1.47390	39.00
1.49057	39.00
1.50723	39.00
1.52390	39.00
1.54057	39.00
1.55723	39.00
1.57390	39.00
1.59057	39.00
1.60723	39.00
1.62390	38.99
1.64057	38.97
1.65723	38.94
1.67390	38.91
1.69057	38.88
1.70723	38.84
1.72390	38.81
1.74057	38.78
1.75723	38.75
1.77390	38.72
1.79057	38.69
1.80723	38.65
1.82390	38.62
1.84057	38.59
1.85723	38.56
1.87390	38.53
1.89057	38.50
1.90723	38.47
1.92390	38.44
1.94057	38.41
1.95723	38.37
1.97390	38.35
1.99057	38.32
2.00723	38.28
2.02390	38.26
2.04057	38.23
2.05723	38.19
2.07390	38.17
2.09057	38.14
2.10723	38.10
2.12390	38.08
2.14057	38.05
2.15723	38.01
2.17390	37.99
2.19057	37.96
2.20723	37.92
2.22390	37.90
2.24057	37.87
2.25723	37.84
2.27390	37.81
2.29057	37.78
2.30723	37.75
2.32390	37.72
2.34057	37.69
2.35723	37.67
2.37390	37.65
2.39057	37.64
2.40723	37.64
2.42390	37.64
2.44057	37.64
2.45723	37.64
2.47390	37.64
2.49057	37.64
2.50723	37.64
2.52390	37.63
2.54057	37.64
2.55723	37.64
2.57390	37.64
2.59057	37.63
2.60723	37.63
2.62390	37.63
2.64057	37.63
2.65723	37.63
2.67390	37.63
2.69057	37.63
2.70723	37.63
2.72390	37.63
2.74057	37.63
2.75723	37.63
2.77390	37.63
2.79057	37.63
2.80723	37.62
2.82390	37.62
2.84057	37.62
2.85723	37.62
2.87390	37.62
2.89057	37.62
2.90723	37.62
2.92390	37.62
2.94057	37.62
2.95723	37.62
2.97390	37.62
2.99057	37.62
3.00723	37.62
3.02390	37.62
3.04057	37.62
3.05723	37.62
3.07390	37.62
3.09057	37.61
3.10723	37.61
3.12390	37.61
3.14057	37.61
3.15723	37.61
3.17390	37.61
3.19057	37.61
3.20723	37.61
3.22390	37.61
3.24057	37.61
3.25723	37.61
3.27390	37.61
3.29057	37.61
3.30723	37.61
3.32390	37.61
3.34057	37.61
3.35723	37.61
3.37390	37.61
3.39057	37.61
3.40723	37.62
3.42390	37.62
3.44057	37.62
3.45723	37.62
3.47390	37.62
3.49057	37.62
3.50723	37.62
3.52390	37.62
3.54057	37.62
3.55723	37.62
3.57390	37.62
3.59057	37.62
3.60723	37.62
3.62390	37.61
3.64057	37.61
3.65723	37.61
3.67390	37.61
3.69057	37.61
3.70723	37.61
3.72390	37.61
3.74057	37.61
3.75723	37.62
3.77390	37.61
3.79057	37.61
3.80723	37.61
3.82390	37.61
3.84057	37.61
3.85723	37.61
3.87390	37.61
3.89057	37.61
3.90723	37.61
3.92390	37.61
3.94057	37.61
3.95723	37.61
3.97390	37.61
3.99057	37.61

