[Header]
Application Name	LabSolutions
Version	5.110
Data File Name	C:\Users\User\Desktop\GC Analyses\Jack\UIC Prairie Sampling\9.2.22\220902_024.gcd
Output Date	10/28/2022
Output Time	1:23:52 PM

[File Information]
Type	Data File
Generated	10/25/2022 1:48:14 PM
Generated by	System Administrator
Modified	10/25/2022 1:52:30 PM
Modified by	System Administrator

[Sample Information]
Operator Name	System Administrator
Acquired	10/25/2022 1:48:29 PM
Sample Type	1:Standard
Level	1
Sample Name	220902_UICPrairie
Sample ID	220902_UICPrairie
ISTD Amount1	1
ISTD Amount2	1
ISTD Amount3	1
ISTD Amount4	1
ISTD Amount5	1
ISTD Amount6	1
ISTD Amount7	1
ISTD Amount8	1
ISTD Amount9	1
ISTD Amount10	1
ISTD Amount11	1
ISTD Amount12	1
ISTD Amount13	1
ISTD Amount14	1
ISTD Amount15	1
ISTD Amount16	1
ISTD Amount17	1
ISTD Amount18	1
ISTD Amount19	1
ISTD Amount20	1
ISTD Amount21	1
ISTD Amount22	1
ISTD Amount23	1
ISTD Amount24	1
ISTD Amount25	1
ISTD Amount26	1
ISTD Amount27	1
ISTD Amount28	1
ISTD Amount29	1
ISTD Amount30	1
ISTD Amount31	1
ISTD Amount32	1
Sample Amount	1
Dilution Factor	1
Vial#	1
Injection Volume	1
Injection Count	1
Bar Code	

[Original Files]
Data File	C:\Users\User\Desktop\GC Analyses\Jack\UIC Prairie Sampling\9.2.22\220902_024.gcd
Method File	C:\LabSolutions\Data\GHG_4min_2022\ghg3_togas_w_acet_4 min_new_int.gcm
Batch File	
Report Format File	c:\LabSolutions\System\DEFAULT.lsr

[File Description]


[Configuration]
Instrument Name	C0B7VH3-Instrument1
Instrument #	1
Line #	1
# of Detectors	3
Detector ID	DET#1	DET#2	DET#3
Detector Name	FID	PTCD	ECD
# of Channels	1	1	1

[Peak Table(Ch1)]
# of Peaks	3
Peak#	R.Time	I.Time	F.Time	Area	Height	A/H	Conc.	Mark	ID#	Name	k'	Plate #	Plate Ht.	Tailing	Resolution	Sep.Factor	Area Ratio	Height Ratio	Conc. %	Norm Conc.
1	1.476	1.432	1.538	11557	5122	2.256	100.000	   	1	CO	0.000	8371	17.920	1.271	0.000	0.000	0	0	16.667	16.667
2	1.571	1.538	1.637	4641	2324	1.997	100.000	 V 	2	CH4	0.065	11460	13.089	1.149	1.547	0.000	0	0	16.667	16.667
3	2.000	1.952	2.282	1099228	539717	2.037	400.000	   	3	CO2	0.355	18149	8.265	1.174	7.266	5.500	0	0	66.667	66.667

[Peak Table(Ch2)]
# of Peaks	0

[Peak Table(Ch3)]
# of Peaks	3
Peak#	R.Time	I.Time	F.Time	Area	Height	A/H	Conc.	Mark	ID#	Name	k'	Plate #	Plate Ht.	Tailing	Resolution	Sep.Factor	Area Ratio	Height Ratio	Conc. %	Norm Conc.
1	2.462	1.593	2.649	9367	364	25.725	0.000	   			0.000	114	1321.169	0.615	0.000	0.000	0	0	0.000	0.000
2	2.884	2.664	2.964	18942	5018	3.775	1.000	   	1	N2O	0.171	13358	11.229	0.000	0.824	0.000	0	0	100.000	100.000
3	3.096	2.964	3.995	32619	968	33.710	0.000	 V 			0.258	191	785.741	0.000	0.427	1.504	0	0	0.000	0.000

[Compound Results(Ch1)]
# of IDs	6
ID#	Name	R.Time	Area	Height	Conc.	Curve	3rd	2nd	1st	Constant	Area Ratio	Height Ratio	Conc. %	Norm Conc.
1	CO	1.476	11557	5122	100.000	Linear	0.000000e+00	0.000000e+00	1.155716e+002	0.000000e+00	0	0	16.667	16.667
2	CH4	1.571	4641	2324	100.000	Linear	0.000000e+00	0.000000e+00	4.641317e+001	0.000000e+00	0	0	16.667	16.667
3	CO2	2.000	1099228	539717	400.000	Linear	0.000000e+00	0.000000e+00	2.748070e+003	0.000000e+00	0	0	66.667	66.667
4	Ethylene	0.000	0	0	0.000	Linear	0.000000e+00	0.000000e+00	0.000000e+00	0.000000e+00	0	0	0.000	0.000
5	Acetylene	0.000	0	0	0.000	Linear	0.000000e+00	0.000000e+00	0.000000e+00	0.000000e+00	0	0	0.000	0.000
6	Ethane	0.000	0	0	0.000	Linear	0.000000e+00	0.000000e+00	0.000000e+00	0.000000e+00	0	0	0.000	0.000

[Compound Results(Ch2)]
# of IDs	5
ID#	Name	R.Time	Area	Height	Conc.	Curve	3rd	2nd	1st	Constant	Area Ratio	Height Ratio	Conc. %	Norm Conc.
1	Hydrogen	0.000	0	0	0.000	Linear	0.000000e+00	0.000000e+00	0.000000e+00	0.000000e+00	0	0	0.000	0.000
2	Oxygen	0.000	0	0	0.000	Linear	0.000000e+00	0.000000e+00	0.000000e+00	0.000000e+00	0	0	0.000	0.000
3	Nitrogen	0.000	0	0	0.000	Linear	0.000000e+00	0.000000e+00	0.000000e+00	0.000000e+00	0	0	0.000	0.000
4	Methane	0.000	0	0	0.000	Linear	0.000000e+00	0.000000e+00	0.000000e+00	0.000000e+00	0	0	0.000	0.000
5	Carbon Monoxide	0.000	0	0	0.000	Linear	0.000000e+00	0.000000e+00	0.000000e+00	0.000000e+00	0	0	0.000	0.000

[Compound Results(Ch3)]
# of IDs	2
ID#	Name	R.Time	Area	Height	Conc.	Curve	3rd	2nd	1st	Constant	Area Ratio	Height Ratio	Conc. %	Norm Conc.
1	N2O	2.884	18942	5018	1.000	Linear	0.000000e+00	0.000000e+00	1.894240e+004	0.000000e+00	0	0	100.000	100.000
2	SF6	0.000	0	0	0.000	Linear	0.000000e+00	0.000000e+00	0.000000e+00	0.000000e+00	0	0	0.000	0.000

[Group Results(Ch1)]
# of Groups	0

[Group Results(Ch2)]
# of Groups	0

[Group Results(Ch3)]
# of Groups	0

[Chromatogram (Ch1)]
Interval(msec)	220
# of Points	1091
Start Time(min)	0.002
End Time(min)	3.998
R.Time (min)	Intensity
0.00167	-0
0.00533	-1
0.00900	1
0.01267	3
0.01633	2
0.02000	-1
0.02367	-4
0.02733	-6
0.03100	-11
0.03467	-14
0.03833	-12
0.04200	-4
0.04567	4
0.04933	11
0.05300	14
0.05667	13
0.06033	10
0.06400	6
0.06767	2
0.07133	-1
0.07500	1
0.07867	7
0.08233	12
0.08600	10
0.08967	2
0.09333	-8
0.09700	-14
0.10067	-14
0.10433	-9
0.10800	-2
0.11167	2
0.11533	2
0.11900	0
0.12267	-4
0.12633	-5
0.13000	-3
0.13367	1
0.13733	-1
0.14100	-4
0.14467	-5
0.14833	-4
0.15200	-3
0.15567	-5
0.15933	-6
0.16300	-3
0.16667	6
0.17033	16
0.17400	22
0.17767	20
0.18133	18
0.18500	16
0.18867	15
0.19233	16
0.19600	18
0.19967	18
0.20333	20
0.20700	20
0.21067	20
0.21433	21
0.21800	22
0.22167	23
0.22533	25
0.22900	27
0.23267	26
0.23633	22
0.24000	16
0.24367	9
0.24733	5
0.25100	2
0.25467	-0
0.25833	0
0.26200	2
0.26567	5
0.26933	8
0.27300	10
0.27667	12
0.28033	11
0.28400	8
0.28767	6
0.29133	4
0.29500	2
0.29867	-1
0.30233	-7
0.30600	-15
0.30967	-22
0.31333	-25
0.31700	-25
0.32067	-21
0.32433	-17
0.32800	-16
0.33167	-14
0.33533	-14
0.33900	-19
0.34267	-25
0.34633	-25
0.35000	-18
0.35367	-10
0.35733	-0
0.36100	11
0.36467	22
0.36833	29
0.37200	34
0.37567	38
0.37933	44
0.38300	48
0.38667	45
0.39033	38
0.39400	34
0.39767	32
0.40133	30
0.40500	30
0.40867	31
0.41233	30
0.41600	27
0.41967	25
0.42333	24
0.42700	25
0.43067	26
0.43433	28
0.43800	27
0.44167	28
0.44533	28
0.44900	26
0.45267	24
0.45633	26
0.46000	31
0.46367	36
0.46733	38
0.47100	40
0.47467	44
0.47833	46
0.48200	44
0.48567	41
0.48933	41
0.49300	43
0.49667	46
0.50033	51
0.50400	56
0.50767	57
0.51133	57
0.51500	58
0.51867	57
0.52233	54
0.52600	53
0.52967	53
0.53333	53
0.53700	51
0.54067	50
0.54433	48
0.54800	47
0.55167	47
0.55533	52
0.55900	59
0.56267	64
0.56633	61
0.57000	54
0.57367	45
0.57733	37
0.58100	33
0.58467	31
0.58833	31
0.59200	34
0.59567	37
0.59933	39
0.60300	38
0.60667	32
0.61033	24
0.61400	15
0.61767	12
0.62133	16
0.62500	22
0.62867	28
0.63233	32
0.63600	33
0.63967	31
0.64333	26
0.64700	22
0.65067	20
0.65433	18
0.65800	14
0.66167	10
0.66533	9
0.66900	10
0.67267	11
0.67633	13
0.68000	16
0.68367	19
0.68733	25
0.69100	29
0.69467	28
0.69833	23
0.70200	17
0.70567	10
0.70933	5
0.71300	1
0.71667	-1
0.72033	-3
0.72400	-3
0.72767	-3
0.73133	-2
0.73500	-0
0.73867	1
0.74233	2
0.74600	1
0.74967	2
0.75333	7
0.75700	12
0.76067	16
0.76433	17
0.76800	12
0.77167	5
0.77533	-4
0.77900	-14
0.78267	-21
0.78633	-21
0.79000	-16
0.79367	-12
0.79733	-12
0.80100	-11
0.80467	-7
0.80833	-4
0.81200	-2
0.81567	1
0.81933	3
0.82300	1
0.82667	-3
0.83033	-13
0.83400	-23
0.83767	-31
0.84133	-34
0.84500	-36
0.84867	-36
0.85233	-33
0.85600	-33
0.85967	-33
0.86333	-34
0.86700	-31
0.87067	-27
0.87433	-21
0.87800	-14
0.88167	-11
0.88533	-10
0.88900	-11
0.89267	-14
0.89633	-17
0.90000	-20
0.90367	-20
0.90733	-17
0.91100	-14
0.91467	-8
0.91833	-1
0.92200	1
0.92567	-1
0.92933	-5
0.93300	-11
0.93667	-16
0.94033	-19
0.94400	-20
0.94767	-20
0.95133	-20
0.95500	-20
0.95867	-21
0.96233	-21
0.96600	-23
0.96967	-27
0.97333	-31
0.97700	-31
0.98067	-29
0.98433	-29
0.98800	-31
0.99167	-31
0.99533	-29
0.99900	-26
1.00267	-22
1.00633	-21
1.01000	-25
1.01367	-30
1.01733	-32
1.02100	-33
1.02467	-33
1.02833	-31
1.03200	-24
1.03567	-16
1.03933	-12
1.04300	-13
1.04667	-17
1.05033	-21
1.05400	-21
1.05767	-18
1.06133	-14
1.06500	-13
1.06867	-18
1.07233	-28
1.07600	-38
1.07967	-48
1.08333	-54
1.08700	-55
1.09067	-56
1.09433	-56
1.09800	-56
1.10167	-56
1.10533	-54
1.10900	-49
1.11267	-44
1.11633	-41
1.12000	-38
1.12367	-36
1.12733	-36
1.13100	-37
1.13467	-39
1.13833	-41
1.14200	-45
1.14567	-47
1.14933	-46
1.15300	-43
1.15667	-39
1.16033	-36
1.16400	-35
1.16767	-36
1.17133	-37
1.17500	-36
1.17867	-36
1.18233	-36
1.18600	-36
1.18967	-35
1.19333	-36
1.19700	-38
1.20067	-40
1.20433	-45
1.20800	-52
1.21167	-59
1.21533	-64
1.21900	-65
1.22267	-63
1.22633	-59
1.23000	-57
1.23367	-55
1.23733	-52
1.24100	-47
1.24467	-41
1.24833	-38
1.25200	-37
1.25567	-39
1.25933	-42
1.26300	-46
1.26667	-50
1.27033	-56
1.27400	-61
1.27767	-66
1.28133	-71
1.28500	-73
1.28867	-73
1.29233	-71
1.29600	-68
1.29967	-64
1.30333	-60
1.30700	-56
1.31067	-53
1.31433	-51
1.31800	-48
1.32167	-45
1.32533	-43
1.32900	-43
1.33267	-44
1.33633	-43
1.34000	-43
1.34367	-42
1.34733	-43
1.35100	-47
1.35467	-55
1.35833	-66
1.36200	-74
1.36567	-79
1.36933	-78
1.37300	-72
1.37667	-69
1.38033	-68
1.38400	-70
1.38767	-73
1.39133	-76
1.39500	-78
1.39867	-77
1.40233	-74
1.40600	-71
1.40967	-70
1.41333	-72
1.41700	-76
1.42067	-80
1.42433	-83
1.42800	-83
1.43167	-79
1.43533	-73
1.43900	-55
1.44267	21
1.44633	226
1.45000	593
1.45367	1164
1.45733	1962
1.46100	2877
1.46467	3732
1.46833	4408
1.47200	4852
1.47567	5038
1.47933	4940
1.48300	4555
1.48667	3940
1.49033	3211
1.49400	2490
1.49767	1861
1.50133	1358
1.50500	975
1.50867	691
1.51233	483
1.51600	334
1.51967	224
1.52333	142
1.52700	85
1.53067	44
1.53433	14
1.53800	-1
1.54167	21
1.54533	138
1.54900	408
1.55267	817
1.55633	1272
1.56000	1683
1.56367	2000
1.56733	2192
1.57100	2229
1.57467	2091
1.57833	1802
1.58200	1430
1.58567	1055
1.58933	730
1.59300	480
1.59667	300
1.60033	173
1.60400	86
1.60767	30
1.61133	-7
1.61500	-35
1.61867	-55
1.62233	-67
1.62600	-75
1.62967	-84
1.63333	-94
1.63700	-103
1.64067	-106
1.64433	-106
1.64800	-106
1.65167	-108
1.65533	-113
1.65900	-116
1.66267	-113
1.66633	-110
1.67000	-109
1.67367	-110
1.67733	-111
1.68100	-111
1.68467	-111
1.68833	-111
1.69200	-112
1.69567	-112
1.69933	-112
1.70300	-111
1.70667	-111
1.71033	-113
1.71400	-115
1.71767	-114
1.72133	-108
1.72500	-100
1.72867	-96
1.73233	-98
1.73600	-103
1.73967	-106
1.74333	-107
1.74700	-107
1.75067	-107
1.75433	-106
1.75800	-102
1.76167	-98
1.76533	-95
1.76900	-92
1.77267	-90
1.77633	-86
1.78000	-84
1.78367	-87
1.78733	-90
1.79100	-94
1.79467	-96
1.79833	-93
1.80200	-87
1.80567	-83
1.80933	-84
1.81300	-85
1.81667	-89
1.82033	-95
1.82400	-103
1.82767	-108
1.83133	-106
1.83500	-100
1.83867	-96
1.84233	-94
1.84600	-94
1.84967	-92
1.85333	-87
1.85700	-82
1.86067	-78
1.86433	-78
1.86800	-80
1.87167	-85
1.87533	-91
1.87900	-98
1.88267	-105
1.88633	-110
1.89000	-111
1.89367	-109
1.89733	-102
1.90100	-92
1.90467	-85
1.90833	-86
1.91200	-90
1.91567	-93
1.91933	-93
1.92300	-92
1.92667	-89
1.93033	-85
1.93400	-79
1.93767	-76
1.94133	-75
1.94500	-77
1.94867	-82
1.95233	-81
1.95600	-41
1.95967	219
1.96333	1534
1.96700	6638
1.97067	21711
1.97433	56215
1.97800	118164
1.98167	206791
1.98533	310008
1.98900	409569
1.99267	488296
1.99633	533834
2.00000	539665
2.00367	506335
2.00733	442407
2.01100	361998
2.01467	279743
2.01833	206355
2.02200	146991
2.02567	102253
2.02933	70171
2.03300	47926
2.03667	32835
2.04033	22722
2.04400	15980
2.04767	11481
2.05133	8458
2.05500	6403
2.05867	4983
2.06233	3982
2.06600	3258
2.06967	2722
2.07333	2314
2.07700	1996
2.08067	1745
2.08433	1539
2.08800	1369
2.09167	1227
2.09533	1109
2.09900	1010
2.10267	928
2.10633	858
2.11000	797
2.11367	742
2.11733	693
2.12100	646
2.12467	601
2.12833	558
2.13200	521
2.13567	489
2.13933	461
2.14300	438
2.14667	421
2.15033	406
2.15400	389
2.15767	371
2.16133	353
2.16500	335
2.16867	319
2.17233	307
2.17600	298
2.17967	289
2.18333	283
2.18700	279
2.19067	277
2.19433	276
2.19800	272
2.20167	263
2.20533	250
2.20900	237
2.21267	226
2.21633	214
2.22000	204
2.22367	197
2.22733	193
2.23100	190
2.23467	185
2.23833	180
2.24200	175
2.24567	168
2.24933	159
2.25300	148
2.25667	140
2.26033	138
2.26400	141
2.26767	145
2.27133	145
2.27500	140
2.27867	132
2.28233	126
2.28600	121
2.28967	120
2.29333	121
2.29700	126
2.30067	130
2.30433	131
2.30800	127
2.31167	122
2.31533	115
2.31900	108
2.32267	101
2.32633	98
2.33000	98
2.33367	100
2.33733	101
2.34100	101
2.34467	100
2.34833	95
2.35200	91
2.35567	88
2.35933	87
2.36300	88
2.36667	91
2.37033	95
2.37400	99
2.37767	100
2.38133	99
2.38500	98
2.38867	97
2.39233	96
2.39600	96
2.39967	98
2.40333	100
2.40700	101
2.41067	101
2.41433	100
2.41800	97
2.42167	96
2.42533	97
2.42900	97
2.43267	97
2.43633	98
2.44000	97
2.44367	93
2.44733	89
2.45100	88
2.45467	93
2.45833	100
2.46200	104
2.46567	104
2.46933	103
2.47300	102
2.47667	102
2.48033	103
2.48400	105
2.48767	105
2.49133	100
2.49500	92
2.49867	87
2.50233	83
2.50600	83
2.50967	82
2.51333	83
2.51700	88
2.52067	95
2.52433	102
2.52800	103
2.53167	99
2.53533	93
2.53900	89
2.54267	86
2.54633	85
2.55000	86
2.55367	87
2.55733	90
2.56100	93
2.56467	95
2.56833	95
2.57200	95
2.57567	96
2.57933	98
2.58300	99
2.58667	97
2.59033	93
2.59400	87
2.59767	82
2.60133	77
2.60500	76
2.60867	76
2.61233	79
2.61600	84
2.61967	91
2.62333	98
2.62700	102
2.63067	103
2.63433	100
2.63800	93
2.64167	88
2.64533	83
2.64900	81
2.65267	80
2.65633	79
2.66000	78
2.66367	77
2.66733	79
2.67100	80
2.67467	80
2.67833	80
2.68200	80
2.68567	78
2.68933	78
2.69300	78
2.69667	79
2.70033	80
2.70400	80
2.70767	81
2.71133	82
2.71500	84
2.71867	89
2.72233	94
2.72600	95
2.72967	93
2.73333	89
2.73700	84
2.74067	80
2.74433	80
2.74800	81
2.75167	83
2.75533	84
2.75900	87
2.76267	89
2.76633	89
2.77000	88
2.77367	90
2.77733	94
2.78100	98
2.78467	102
2.78833	104
2.79200	105
2.79567	104
2.79933	103
2.80300	101
2.80667	101
2.81033	104
2.81400	105
2.81767	103
2.82133	100
2.82500	96
2.82867	94
2.83233	94
2.83600	95
2.83967	96
2.84333	96
2.84700	96
2.85067	99
2.85433	102
2.85800	102
2.86167	98
2.86533	88
2.86900	77
2.87267	69
2.87633	63
2.88000	64
2.88367	69
2.88733	75
2.89100	78
2.89467	80
2.89833	81
2.90200	83
2.90567	86
2.90933	88
2.91300	90
2.91667	92
2.92033	94
2.92400	95
2.92767	97
2.93133	97
2.93500	99
2.93867	104
2.94233	109
2.94600	111
2.94967	113
2.95333	115
2.95700	114
2.96067	111
2.96433	107
2.96800	101
2.97167	99
2.97533	99
2.97900	98
2.98267	98
2.98633	100
2.99000	105
2.99367	109
2.99733	109
3.00100	110
3.00467	113
3.00833	117
3.01200	118
3.01567	114
3.01933	107
3.02300	102
3.02667	100
3.03033	99
3.03400	100
3.03767	102
3.04133	105
3.04500	106
3.04867	108
3.05233	110
3.05600	109
3.05967	107
3.06333	105
3.06700	102
3.07067	97
3.07433	92
3.07800	85
3.08167	81
3.08533	79
3.08900	81
3.09267	86
3.09633	93
3.10000	97
3.10367	98
3.10733	97
3.11100	98
3.11467	100
3.11833	103
3.12200	105
3.12567	106
3.12933	104
3.13300	100
3.13667	97
3.14033	99
3.14400	102
3.14767	100
3.15133	97
3.15500	96
3.15867	96
3.16233	95
3.16600	94
3.16967	89
3.17333	87
3.17700	91
3.18067	93
3.18433	91
3.18800	87
3.19167	85
3.19533	80
3.19900	76
3.20267	72
3.20633	68
3.21000	65
3.21367	67
3.21733	75
3.22100	84
3.22467	89
3.22833	92
3.23200	93
3.23567	89
3.23933	87
3.24300	89
3.24667	89
3.25033	87
3.25400	86
3.25767	89
3.26133	95
3.26500	99
3.26867	98
3.27233	98
3.27600	100
3.27967	103
3.28333	108
3.28700	112
3.29067	112
3.29433	108
3.29800	102
3.30167	99
3.30533	102
3.30900	105
3.31267	105
3.31633	103
3.32000	101
3.32367	99
3.32733	98
3.33100	99
3.33467	99
3.33833	100
3.34200	102
3.34567	104
3.34933	103
3.35300	100
3.35667	99
3.36033	98
3.36400	98
3.36767	102
3.37133	106
3.37500	107
3.37867	105
3.38233	102
3.38600	97
3.38967	89
3.39333	80
3.39700	76
3.40067	78
3.40433	82
3.40800	86
3.41167	90
3.41533	91
3.41900	91
3.42267	92
3.42633	91
3.43000	91
3.43367	90
3.43733	86
3.44100	82
3.44467	75
3.44833	68
3.45200	69
3.45567	77
3.45933	84
3.46300	84
3.46667	79
3.47033	72
3.47400	68
3.47767	66
3.48133	65
3.48500	64
3.48867	64
3.49233	67
3.49600	72
3.49967	75
3.50333	71
3.50700	67
3.51067	67
3.51433	67
3.51800	69
3.52167	69
3.52533	70
3.52900	71
3.53267	73
3.53633	76
3.54000	79
3.54367	78
3.54733	73
3.55100	66
3.55467	63
3.55833	64
3.56200	68
3.56567	74
3.56933	75
3.57300	74
3.57667	73
3.58033	76
3.58400	78
3.58767	77
3.59133	74
3.59500	72
3.59867	70
3.60233	66
3.60600	63
3.60967	64
3.61333	65
3.61700	64
3.62067	61
3.62433	56
3.62800	51
3.63167	48
3.63533	51
3.63900	57
3.64267	62
3.64633	63
3.65000	63
3.65367	66
3.65733	67
3.66100	65
3.66467	58
3.66833	53
3.67200	51
3.67567	51
3.67933	54
3.68300	57
3.68667	57
3.69033	52
3.69400	49
3.69767	52
3.70133	57
3.70500	62
3.70867	64
3.71233	65
3.71600	65
3.71967	64
3.72333	62
3.72700	58
3.73067	52
3.73433	46
3.73800	41
3.74167	38
3.74533	40
3.74900	48
3.75267	59
3.75633	68
3.76000	72
3.76367	70
3.76733	65
3.77100	58
3.77467	52
3.77833	46
3.78200	44
3.78567	44
3.78933	43
3.79300	42
3.79667	41
3.80033	38
3.80400	32
3.80767	27
3.81133	28
3.81500	35
3.81867	43
3.82233	48
3.82600	52
3.82967	57
3.83333	60
3.83700	59
3.84067	56
3.84433	54
3.84800	51
3.85167	50
3.85533	48
3.85900	46
3.86267	45
3.86633	46
3.87000	48
3.87367	49
3.87733	53
3.88100	59
3.88467	66
3.88833	67
3.89200	63
3.89567	56
3.89933	50
3.90300	45
3.90667	42
3.91033	39
3.91400	34
3.91767	29
3.92133	29
3.92500	32
3.92867	33
3.93233	31
3.93600	23
3.93967	15
3.94333	10
3.94700	8
3.95067	9
3.95433	9
3.95800	11
3.96167	13
3.96533	16
3.96900	19
3.97267	21
3.97633	24
3.98000	27
3.98367	28
3.98733	29
3.99100	32
3.99467	36
3.99833	39

[Chromatogram (Ch2)]
Interval(msec)	220
# of Points	1091
Start Time(min)	0.002
End Time(min)	3.998
R.Time (min)	Intensity
0.00167	-0
0.00533	-1
0.00900	-1
0.01267	-1
0.01633	-1
0.02000	-1
0.02367	-2
0.02733	-2
0.03100	-2
0.03467	-2
0.03833	-2
0.04200	-2
0.04567	-2
0.04933	-2
0.05300	-1
0.05667	-1
0.06033	-1
0.06400	-1
0.06767	-1
0.07133	-2
0.07500	-2
0.07867	-2
0.08233	-2
0.08600	-2
0.08967	-2
0.09333	-3
0.09700	-3
0.10067	-3
0.10433	-4
0.10800	-4
0.11167	-4
0.11533	-4
0.11900	-4
0.12267	-4
0.12633	-4
0.13000	-4
0.13367	-4
0.13733	-3
0.14100	-3
0.14467	-3
0.14833	-3
0.15200	-3
0.15567	-4
0.15933	-4
0.16300	-4
0.16667	-4
0.17033	-3
0.17400	-3
0.17767	-3
0.18133	-3
0.18500	-3
0.18867	-3
0.19233	-3
0.19600	-3
0.19967	-3
0.20333	-2
0.20700	-2
0.21067	-2
0.21433	-2
0.21800	-2
0.22167	-2
0.22533	-1
0.22900	-1
0.23267	-1
0.23633	-1
0.24000	-1
0.24367	-1
0.24733	-1
0.25100	-1
0.25467	-1
0.25833	-1
0.26200	-1
0.26567	-1
0.26933	-1
0.27300	-1
0.27667	-1
0.28033	-1
0.28400	-1
0.28767	-2
0.29133	-2
0.29500	-3
0.29867	-3
0.30233	-3
0.30600	-4
0.30967	-4
0.31333	-4
0.31700	-4
0.32067	-3
0.32433	-3
0.32800	-3
0.33167	-2
0.33533	-2
0.33900	-2
0.34267	-2
0.34633	-1
0.35000	-1
0.35367	-1
0.35733	-1
0.36100	-0
0.36467	-0
0.36833	-0
0.37200	-0
0.37567	0
0.37933	0
0.38300	0
0.38667	0
0.39033	0
0.39400	-0
0.39767	-0
0.40133	-0
0.40500	-1
0.40867	-1
0.41233	-1
0.41600	-1
0.41967	-1
0.42333	-1
0.42700	-1
0.43067	-1
0.43433	-1
0.43800	-1
0.44167	-1
0.44533	-1
0.44900	-1
0.45267	-1
0.45633	-1
0.46000	-2
0.46367	-2
0.46733	-2
0.47100	-2
0.47467	-2
0.47833	-2
0.48200	-2
0.48567	-2
0.48933	-2
0.49300	-2
0.49667	-3
0.50033	-3
0.50400	-3
0.50767	-4
0.51133	-4
0.51500	-5
0.51867	-5
0.52233	-5
0.52600	-5
0.52967	-5
0.53333	-5
0.53700	-5
0.54067	-4
0.54433	-4
0.54800	-4
0.55167	-3
0.55533	-3
0.55900	-3
0.56267	-3
0.56633	-3
0.57000	-2
0.57367	-2
0.57733	-3
0.58100	-3
0.58467	-3
0.58833	-3
0.59200	-3
0.59567	-3
0.59933	-3
0.60300	-3
0.60667	-3
0.61033	-3
0.61400	-3
0.61767	-3
0.62133	-3
0.62500	-3
0.62867	-3
0.63233	-3
0.63600	-3
0.63967	-3
0.64333	-3
0.64700	-3
0.65067	-3
0.65433	-3
0.65800	-3
0.66167	-3
0.66533	-3
0.66900	-3
0.67267	-3
0.67633	-4
0.68000	-4
0.68367	-4
0.68733	-4
0.69100	-4
0.69467	-4
0.69833	-4
0.70200	-4
0.70567	-4
0.70933	-4
0.71300	-4
0.71667	-4
0.72033	-4
0.72400	-4
0.72767	-3
0.73133	-3
0.73500	-3
0.73867	-3
0.74233	-3
0.74600	-4
0.74967	-3
0.75333	-3
0.75700	-3
0.76067	-3
0.76433	-3
0.76800	-3
0.77167	-3
0.77533	-3
0.77900	-3
0.78267	-4
0.78633	-4
0.79000	-4
0.79367	-5
0.79733	-5
0.80100	-5
0.80467	-5
0.80833	-5
0.81200	-5
0.81567	-5
0.81933	-4
0.82300	-4
0.82667	-4
0.83033	-4
0.83400	-4
0.83767	-4
0.84133	-4
0.84500	-4
0.84867	-3
0.85233	-3
0.85600	-3
0.85967	-4
0.86333	-4
0.86700	-4
0.87067	-4
0.87433	-4
0.87800	-4
0.88167	-4
0.88533	-4
0.88900	-4
0.89267	-4
0.89633	-4
0.90000	-5
0.90367	-5
0.90733	-5
0.91100	-5
0.91467	-5
0.91833	-5
0.92200	-5
0.92567	-5
0.92933	-5
0.93300	-5
0.93667	-5
0.94033	-5
0.94400	-5
0.94767	-5
0.95133	-4
0.95500	-4
0.95867	-5
0.96233	-5
0.96600	-5
0.96967	-4
0.97333	-4
0.97700	-4
0.98067	-4
0.98433	-4
0.98800	-4
0.99167	-5
0.99533	-5
0.99900	-5
1.00267	-5
1.00633	-5
1.01000	-5
1.01367	-5
1.01733	-5
1.02100	-5
1.02467	-5
1.02833	-5
1.03200	-5
1.03567	-5
1.03933	-5
1.04300	-5
1.04667	-5
1.05033	-5
1.05400	-5
1.05767	-5
1.06133	-5
1.06500	-5
1.06867	-4
1.07233	-4
1.07600	-4
1.07967	-4
1.08333	-4
1.08700	-4
1.09067	-4
1.09433	-4
1.09800	-4
1.10167	-4
1.10533	-3
1.10900	-3
1.11267	-3
1.11633	-3
1.12000	-3
1.12367	-3
1.12733	-3
1.13100	-3
1.13467	-3
1.13833	-3
1.14200	-3
1.14567	-4
1.14933	-4
1.15300	-4
1.15667	-4
1.16033	-4
1.16400	-4
1.16767	-4
1.17133	-4
1.17500	-4
1.17867	-4
1.18233	-4
1.18600	-4
1.18967	-4
1.19333	-4
1.19700	-4
1.20067	-4
1.20433	-4
1.20800	-5
1.21167	-5
1.21533	-5
1.21900	-5
1.22267	-5
1.22633	-5
1.23000	-5
1.23367	-4
1.23733	-4
1.24100	-4
1.24467	-5
1.24833	-5
1.25200	-5
1.25567	-5
1.25933	-5
1.26300	-5
1.26667	-5
1.27033	-5
1.27400	-5
1.27767	-5
1.28133	-5
1.28500	-5
1.28867	-5
1.29233	-5
1.29600	-5
1.29967	-5
1.30333	-5
1.30700	-5
1.31067	-5
1.31433	-5
1.31800	-5
1.32167	-5
1.32533	-5
1.32900	-6
1.33267	-6
1.33633	-6
1.34000	-6
1.34367	-6
1.34733	-6
1.35100	-6
1.35467	-6
1.35833	-6
1.36200	-6
1.36567	-5
1.36933	-5
1.37300	-5
1.37667	-5
1.38033	-5
1.38400	-5
1.38767	-5
1.39133	-5
1.39500	-5
1.39867	-5
1.40233	-5
1.40600	-5
1.40967	-5
1.41333	-6
1.41700	-6
1.42067	-6
1.42433	-6
1.42800	-6
1.43167	-6
1.43533	-6
1.43900	-7
1.44267	-7
1.44633	-7
1.45000	-8
1.45367	-7
1.45733	-7
1.46100	-7
1.46467	-7
1.46833	-7
1.47200	-6
1.47567	-6
1.47933	-6
1.48300	-6
1.48667	-6
1.49033	-6
1.49400	-5
1.49767	-5
1.50133	-5
1.50500	-5
1.50867	-5
1.51233	-5
1.51600	-5
1.51967	-5
1.52333	-5
1.52700	-4
1.53067	-5
1.53433	-5
1.53800	-5
1.54167	-5
1.54533	-5
1.54900	-5
1.55267	-4
1.55633	-4
1.56000	-4
1.56367	-4
1.56733	-5
1.57100	-5
1.57467	-5
1.57833	-5
1.58200	-5
1.58567	-5
1.58933	-5
1.59300	-6
1.59667	-6
1.60033	-7
1.60400	-8
1.60767	-9
1.61133	-11
1.61500	-13
1.61867	-16
1.62233	-18
1.62600	-21
1.62967	-23
1.63333	-26
1.63700	-29
1.64067	-33
1.64433	-36
1.64800	-40
1.65167	-44
1.65533	-47
1.65900	-51
1.66267	-55
1.66633	-60
1.67000	-65
1.67367	-70
1.67733	-75
1.68100	-81
1.68467	-86
1.68833	-90
1.69200	-94
1.69567	-97
1.69933	-100
1.70300	-103
1.70667	-105
1.71033	-106
1.71400	-108
1.71767	-109
1.72133	-110
1.72500	-111
1.72867	-112
1.73233	-112
1.73600	-113
1.73967	-113
1.74333	-114
1.74700	-114
1.75067	-115
1.75433	-115
1.75800	-116
1.76167	-117
1.76533	-118
1.76900	-119
1.77267	-120
1.77633	-121
1.78000	-122
1.78367	-123
1.78733	-123
1.79100	-123
1.79467	-122
1.79833	-122
1.80200	-121
1.80567	-120
1.80933	-119
1.81300	-119
1.81667	-119
1.82033	-119
1.82400	-119
1.82767	-120
1.83133	-120
1.83500	-121
1.83867	-121
1.84233	-121
1.84600	-120
1.84967	-120
1.85333	-119
1.85700	-119
1.86067	-119
1.86433	-119
1.86800	-119
1.87167	-119
1.87533	-119
1.87900	-119
1.88267	-119
1.88633	-119
1.89000	-119
1.89367	-120
1.89733	-120
1.90100	-120
1.90467	-120
1.90833	-120
1.91200	-121
1.91567	-121
1.91933	-121
1.92300	-122
1.92667	-122
1.93033	-122
1.93400	-122
1.93767	-121
1.94133	-120
1.94500	-120
1.94867	-120
1.95233	-119
1.95600	-120
1.95967	-120
1.96333	-121
1.96700	-121
1.97067	-121
1.97433	-121
1.97800	-121
1.98167	-120
1.98533	-120
1.98900	-120
1.99267	-119
1.99633	-119
2.00000	-118
2.00367	-117
2.00733	-116
2.01100	-115
2.01467	-115
2.01833	-114
2.02200	-114
2.02567	-115
2.02933	-115
2.03300	-115
2.03667	-114
2.04033	-114
2.04400	-113
2.04767	-113
2.05133	-113
2.05500	-112
2.05867	-112
2.06233	-111
2.06600	-111
2.06967	-111
2.07333	-111
2.07700	-111
2.08067	-111
2.08433	-112
2.08800	-112
2.09167	-112
2.09533	-112
2.09900	-112
2.10267	-112
2.10633	-112
2.11000	-112
2.11367	-111
2.11733	-110
2.12100	-109
2.12467	-108
2.12833	-107
2.13200	-106
2.13567	-105
2.13933	-104
2.14300	-104
2.14667	-104
2.15033	-104
2.15400	-105
2.15767	-105
2.16133	-105
2.16500	-106
2.16867	-106
2.17233	-106
2.17600	-106
2.17967	-105
2.18333	-105
2.18700	-105
2.19067	-104
2.19433	-104
2.19800	-103
2.20167	-102
2.20533	-101
2.20900	-100
2.21267	-99
2.21633	-99
2.22000	-99
2.22367	-99
2.22733	-100
2.23100	-100
2.23467	-99
2.23833	-99
2.24200	-99
2.24567	-98
2.24933	-98
2.25300	-97
2.25667	-97
2.26033	-97
2.26400	-97
2.26767	-97
2.27133	-97
2.27500	-97
2.27867	-97
2.28233	-96
2.28600	-96
2.28967	-95
2.29333	-95
2.29700	-94
2.30067	-93
2.30433	-93
2.30800	-92
2.31167	-92
2.31533	-92
2.31900	-91
2.32267	-91
2.32633	-90
2.33000	-90
2.33367	-91
2.33733	-92
2.34100	-92
2.34467	-93
2.34833	-94
2.35200	-94
2.35567	-93
2.35933	-92
2.36300	-91
2.36667	-89
2.37033	-87
2.37400	-84
2.37767	-81
2.38133	-78
2.38500	-74
2.38867	-70
2.39233	-66
2.39600	-61
2.39967	-57
2.40333	-52
2.40700	-47
2.41067	-43
2.41433	-39
2.41800	-35
2.42167	-32
2.42533	-29
2.42900	-26
2.43267	-24
2.43633	-22
2.44000	-19
2.44367	-17
2.44733	-14
2.45100	-12
2.45467	-10
2.45833	-8
2.46200	-7
2.46567	-6
2.46933	-5
2.47300	-4
2.47667	-4
2.48033	-3
2.48400	-2
2.48767	-1
2.49133	-0
2.49500	1
2.49867	2
2.50233	2
2.50600	3
2.50967	3
2.51333	3
2.51700	3
2.52067	3
2.52433	4
2.52800	4
2.53167	5
2.53533	6
2.53900	7
2.54267	7
2.54633	8
2.55000	8
2.55367	8
2.55733	9
2.56100	9
2.56467	9
2.56833	9
2.57200	9
2.57567	9
2.57933	9
2.58300	8
2.58667	8
2.59033	8
2.59400	8
2.59767	8
2.60133	8
2.60500	9
2.60867	10
2.61233	10
2.61600	11
2.61967	11
2.62333	12
2.62700	13
2.63067	13
2.63433	14
2.63800	14
2.64167	14
2.64533	14
2.64900	14
2.65267	15
2.65633	15
2.66000	15
2.66367	16
2.66733	16
2.67100	16
2.67467	17
2.67833	17
2.68200	17
2.68567	17
2.68933	17
2.69300	17
2.69667	17
2.70033	17
2.70400	17
2.70767	17
2.71133	17
2.71500	17
2.71867	17
2.72233	17
2.72600	17
2.72967	17
2.73333	18
2.73700	18
2.74067	18
2.74433	18
2.74800	19
2.75167	19
2.75533	19
2.75900	20
2.76267	20
2.76633	20
2.77000	20
2.77367	20
2.77733	20
2.78100	19
2.78467	19
2.78833	19
2.79200	18
2.79567	18
2.79933	17
2.80300	17
2.80667	17
2.81033	17
2.81400	17
2.81767	17
2.82133	18
2.82500	18
2.82867	18
2.83233	19
2.83600	19
2.83967	19
2.84333	19
2.84700	18
2.85067	16
2.85433	12
2.85800	7
2.86167	-2
2.86533	-14
2.86900	-30
2.87267	-49
2.87633	-73
2.88000	-100
2.88367	-131
2.88733	-166
2.89100	-205
2.89467	-246
2.89833	-289
2.90200	-335
2.90567	-382
2.90933	-431
2.91300	-481
2.91667	-530
2.92033	-580
2.92400	-630
2.92767	-680
2.93133	-729
2.93500	-777
2.93867	-827
2.94233	-881
2.94600	-941
2.94967	-1002
2.95333	-1054
2.95700	-1086
2.96067	-1093
2.96433	-1073
2.96800	-1031
2.97167	-971
2.97533	-899
2.97900	-821
2.98267	-740
2.98633	-661
2.99000	-586
2.99367	-515
2.99733	-450
3.00100	-391
3.00467	-338
3.00833	-291
3.01200	-250
3.01567	-214
3.01933	-182
3.02300	-155
3.02667	-131
3.03033	-111
3.03400	-94
3.03767	-79
3.04133	-66
3.04500	-55
3.04867	-46
3.05233	-38
3.05600	-31
3.05967	-25
3.06333	-21
3.06700	-16
3.07067	-13
3.07433	-10
3.07800	-7
3.08167	-4
3.08533	-2
3.08900	-0
3.09267	1
3.09633	3
3.10000	4
3.10367	5
3.10733	6
3.11100	7
3.11467	8
3.11833	8
3.12200	9
3.12567	9
3.12933	10
3.13300	10
3.13667	10
3.14033	10
3.14400	11
3.14767	11
3.15133	11
3.15500	12
3.15867	12
3.16233	12
3.16600	13
3.16967	13
3.17333	13
3.17700	13
3.18067	13
3.18433	13
3.18800	13
3.19167	14
3.19533	14
3.19900	14
3.20267	15
3.20633	15
3.21000	15
3.21367	15
3.21733	16
3.22100	16
3.22467	16
3.22833	16
3.23200	16
3.23567	16
3.23933	16
3.24300	16
3.24667	17
3.25033	17
3.25400	17
3.25767	17
3.26133	18
3.26500	18
3.26867	18
3.27233	19
3.27600	19
3.27967	19
3.28333	20
3.28700	20
3.29067	20
3.29433	20
3.29800	20
3.30167	21
3.30533	21
3.30900	21
3.31267	21
3.31633	21
3.32000	21
3.32367	21
3.32733	21
3.33100	21
3.33467	21
3.33833	21
3.34200	21
3.34567	22
3.34933	22
3.35300	22
3.35667	22
3.36033	22
3.36400	22
3.36767	22
3.37133	22
3.37500	22
3.37867	22
3.38233	21
3.38600	21
3.38967	21
3.39333	22
3.39700	22
3.40067	22
3.40433	22
3.40800	21
3.41167	21
3.41533	21
3.41900	21
3.42267	21
3.42633	21
3.43000	21
3.43367	21
3.43733	21
3.44100	21
3.44467	21
3.44833	21
3.45200	21
3.45567	21
3.45933	21
3.46300	21
3.46667	21
3.47033	21
3.47400	21
3.47767	22
3.48133	21
3.48500	21
3.48867	21
3.49233	21
3.49600	21
3.49967	20
3.50333	20
3.50700	20
3.51067	20
3.51433	20
3.51800	20
3.52167	19
3.52533	19
3.52900	20
3.53267	20
3.53633	20
3.54000	20
3.54367	20
3.54733	20
3.55100	20
3.55467	20
3.55833	19
3.56200	19
3.56567	19
3.56933	19
3.57300	19
3.57667	19
3.58033	19
3.58400	20
3.58767	20
3.59133	20
3.59500	21
3.59867	21
3.60233	22
3.60600	22
3.60967	23
3.61333	23
3.61700	23
3.62067	23
3.62433	24
3.62800	24
3.63167	24
3.63533	24
3.63900	25
3.64267	25
3.64633	25
3.65000	25
3.65367	25
3.65733	25
3.66100	25
3.66467	25
3.66833	25
3.67200	25
3.67567	25
3.67933	25
3.68300	26
3.68667	26
3.69033	26
3.69400	26
3.69767	26
3.70133	25
3.70500	25
3.70867	25
3.71233	25
3.71600	24
3.71967	24
3.72333	23
3.72700	23
3.73067	23
3.73433	23
3.73800	22
3.74167	22
3.74533	22
3.74900	22
3.75267	22
3.75633	22
3.76000	22
3.76367	22
3.76733	22
3.77100	22
3.77467	22
3.77833	22
3.78200	21
3.78567	21
3.78933	21
3.79300	21
3.79667	21
3.80033	21
3.80400	22
3.80767	22
3.81133	22
3.81500	22
3.81867	22
3.82233	22
3.82600	22
3.82967	22
3.83333	22
3.83700	22
3.84067	21
3.84433	21
3.84800	21
3.85167	21
3.85533	21
3.85900	21
3.86267	21
3.86633	22
3.87000	22
3.87367	22
3.87733	22
3.88100	22
3.88467	22
3.88833	21
3.89200	21
3.89567	21
3.89933	21
3.90300	21
3.90667	21
3.91033	21
3.91400	22
3.91767	22
3.92133	22
3.92500	22
3.92867	22
3.93233	22
3.93600	22
3.93967	22
3.94333	22
3.94700	22
3.95067	21
3.95433	21
3.95800	21
3.96167	21
3.96533	21
3.96900	21
3.97267	21
3.97633	21
3.98000	21
3.98367	21
3.98733	21
3.99100	21
3.99467	21
3.99833	21

[Chromatogram (Ch3)]
Interval(msec)	220
# of Points	1091
Start Time(min)	0.002
End Time(min)	3.998
R.Time (min)	Intensity
0.00167	-0
0.00533	-1
0.00900	-2
0.01267	-2
0.01633	-1
0.02000	-1
0.02367	-1
0.02733	-1
0.03100	-0
0.03467	-1
0.03833	-2
0.04200	-1
0.04567	-0
0.04933	1
0.05300	1
0.05667	-1
0.06033	-2
0.06400	-3
0.06767	-2
0.07133	-2
0.07500	-3
0.07867	-2
0.08233	-0
0.08600	2
0.08967	3
0.09333	5
0.09700	7
0.10067	5
0.10433	2
0.10800	1
0.11167	0
0.11533	1
0.11900	1
0.12267	-1
0.12633	-2
0.13000	-1
0.13367	2
0.13733	4
0.14100	6
0.14467	7
0.14833	7
0.15200	5
0.15567	3
0.15933	0
0.16300	1
0.16667	3
0.17033	3
0.17400	4
0.17767	7
0.18133	8
0.18500	10
0.18867	12
0.19233	12
0.19600	12
0.19967	11
0.20333	11
0.20700	13
0.21067	13
0.21433	14
0.21800	16
0.22167	15
0.22533	14
0.22900	14
0.23267	12
0.23633	11
0.24000	10
0.24367	10
0.24733	9
0.25100	9
0.25467	9
0.25833	10
0.26200	10
0.26567	11
0.26933	12
0.27300	13
0.27667	12
0.28033	13
0.28400	15
0.28767	15
0.29133	15
0.29500	14
0.29867	13
0.30233	11
0.30600	12
0.30967	14
0.31333	14
0.31700	14
0.32067	13
0.32433	12
0.32800	11
0.33167	13
0.33533	13
0.33900	12
0.34267	15
0.34633	19
0.35000	22
0.35367	23
0.35733	24
0.36100	24
0.36467	24
0.36833	23
0.37200	23
0.37567	23
0.37933	23
0.38300	22
0.38667	21
0.39033	21
0.39400	23
0.39767	23
0.40133	23
0.40500	23
0.40867	23
0.41233	22
0.41600	22
0.41967	24
0.42333	25
0.42700	25
0.43067	25
0.43433	23
0.43800	21
0.44167	20
0.44533	19
0.44900	19
0.45267	19
0.45633	21
0.46000	24
0.46367	25
0.46733	25
0.47100	25
0.47467	25
0.47833	25
0.48200	23
0.48567	24
0.48933	25
0.49300	26
0.49667	24
0.50033	23
0.50400	23
0.50767	24
0.51133	25
0.51500	25
0.51867	26
0.52233	27
0.52600	28
0.52967	29
0.53333	29
0.53700	29
0.54067	28
0.54433	31
0.54800	33
0.55167	33
0.55533	31
0.55900	31
0.56267	32
0.56633	30
0.57000	28
0.57367	27
0.57733	28
0.58100	32
0.58467	36
0.58833	39
0.59200	42
0.59567	42
0.59933	42
0.60300	42
0.60667	40
0.61033	39
0.61400	39
0.61767	39
0.62133	41
0.62500	40
0.62867	38
0.63233	35
0.63600	34
0.63967	34
0.64333	34
0.64700	36
0.65067	37
0.65433	37
0.65800	39
0.66167	39
0.66533	39
0.66900	40
0.67267	40
0.67633	39
0.68000	36
0.68367	35
0.68733	39
0.69100	40
0.69467	40
0.69833	40
0.70200	41
0.70567	40
0.70933	40
0.71300	40
0.71667	40
0.72033	40
0.72400	38
0.72767	41
0.73133	42
0.73500	44
0.73867	45
0.74233	43
0.74600	41
0.74967	40
0.75333	40
0.75700	41
0.76067	41
0.76433	40
0.76800	40
0.77167	40
0.77533	42
0.77900	41
0.78267	40
0.78633	39
0.79000	41
0.79367	42
0.79733	43
0.80100	44
0.80467	46
0.80833	46
0.81200	46
0.81567	47
0.81933	48
0.82300	48
0.82667	47
0.83033	47
0.83400	47
0.83767	50
0.84133	50
0.84500	48
0.84867	47
0.85233	46
0.85600	46
0.85967	46
0.86333	51
0.86700	53
0.87067	50
0.87433	49
0.87800	49
0.88167	47
0.88533	47
0.88900	47
0.89267	48
0.89633	50
0.90000	51
0.90367	51
0.90733	50
0.91100	51
0.91467	52
0.91833	53
0.92200	52
0.92567	51
0.92933	52
0.93300	54
0.93667	56
0.94033	55
0.94400	57
0.94767	59
0.95133	60
0.95500	57
0.95867	53
0.96233	52
0.96600	53
0.96967	55
0.97333	55
0.97700	55
0.98067	56
0.98433	55
0.98800	56
0.99167	55
0.99533	55
0.99900	58
1.00267	58
1.00633	57
1.01000	57
1.01367	57
1.01733	57
1.02100	58
1.02467	57
1.02833	58
1.03200	59
1.03567	59
1.03933	58
1.04300	58
1.04667	59
1.05033	59
1.05400	60
1.05767	59
1.06133	61
1.06500	62
1.06867	64
1.07233	65
1.07600	66
1.07967	63
1.08333	61
1.08700	61
1.09067	61
1.09433	62
1.09800	64
1.10167	64
1.10533	65
1.10900	66
1.11267	65
1.11633	63
1.12000	63
1.12367	62
1.12733	62
1.13100	62
1.13467	60
1.13833	59
1.14200	60
1.14567	62
1.14933	64
1.15300	66
1.15667	68
1.16033	69
1.16400	70
1.16767	71
1.17133	70
1.17500	71
1.17867	69
1.18233	69
1.18600	69
1.18967	67
1.19333	68
1.19700	67
1.20067	66
1.20433	67
1.20800	67
1.21167	68
1.21533	68
1.21900	67
1.22267	67
1.22633	67
1.23000	67
1.23367	66
1.23733	68
1.24100	69
1.24467	71
1.24833	72
1.25200	73
1.25567	71
1.25933	72
1.26300	73
1.26667	75
1.27033	74
1.27400	71
1.27767	71
1.28133	70
1.28500	67
1.28867	66
1.29233	68
1.29600	71
1.29967	75
1.30333	79
1.30700	80
1.31067	77
1.31433	75
1.31800	76
1.32167	77
1.32533	78
1.32900	78
1.33267	76
1.33633	73
1.34000	73
1.34367	74
1.34733	74
1.35100	73
1.35467	75
1.35833	76
1.36200	78
1.36567	81
1.36933	83
1.37300	82
1.37667	82
1.38033	81
1.38400	80
1.38767	78
1.39133	79
1.39500	78
1.39867	79
1.40233	81
1.40600	82
1.40967	83
1.41333	81
1.41700	80
1.42067	79
1.42433	78
1.42800	79
1.43167	81
1.43533	84
1.43900	84
1.44267	83
1.44633	82
1.45000	80
1.45367	82
1.45733	84
1.46100	85
1.46467	86
1.46833	86
1.47200	86
1.47567	84
1.47933	82
1.48300	80
1.48667	80
1.49033	81
1.49400	82
1.49767	83
1.50133	82
1.50500	82
1.50867	79
1.51233	78
1.51600	81
1.51967	83
1.52333	85
1.52700	86
1.53067	86
1.53433	87
1.53800	89
1.54167	92
1.54533	93
1.54900	91
1.55267	90
1.55633	90
1.56000	91
1.56367	89
1.56733	87
1.57100	82
1.57467	79
1.57833	80
1.58200	81
1.58567	82
1.58933	83
1.59300	84
1.59667	87
1.60033	89
1.60400	92
1.60767	95
1.61133	96
1.61500	95
1.61867	93
1.62233	91
1.62600	91
1.62967	91
1.63333	93
1.63700	94
1.64067	96
1.64433	95
1.64800	91
1.65167	89
1.65533	91
1.65900	93
1.66267	96
1.66633	95
1.67000	93
1.67367	95
1.67733	96
1.68100	100
1.68467	102
1.68833	104
1.69200	103
1.69567	102
1.69933	102
1.70300	103
1.70667	105
1.71033	106
1.71400	106
1.71767	108
1.72133	111
1.72500	111
1.72867	110
1.73233	109
1.73600	111
1.73967	113
1.74333	115
1.74700	115
1.75067	118
1.75433	120
1.75800	121
1.76167	119
1.76533	118
1.76900	119
1.77267	121
1.77633	123
1.78000	124
1.78367	125
1.78733	126
1.79100	125
1.79467	126
1.79833	125
1.80200	125
1.80567	127
1.80933	129
1.81300	132
1.81667	133
1.82033	135
1.82400	137
1.82767	136
1.83133	135
1.83500	135
1.83867	137
1.84233	139
1.84600	141
1.84967	139
1.85333	137
1.85700	135
1.86067	134
1.86433	132
1.86800	131
1.87167	132
1.87533	133
1.87900	136
1.88267	138
1.88633	141
1.89000	142
1.89367	142
1.89733	142
1.90100	143
1.90467	144
1.90833	143
1.91200	142
1.91567	143
1.91933	147
1.92300	148
1.92667	148
1.93033	146
1.93400	144
1.93767	144
1.94133	147
1.94500	149
1.94867	151
1.95233	151
1.95600	149
1.95967	148
1.96333	149
1.96700	150
1.97067	151
1.97433	153
1.97800	156
1.98167	157
1.98533	156
1.98900	156
1.99267	156
1.99633	158
2.00000	161
2.00367	164
2.00733	165
2.01100	165
2.01467	168
2.01833	168
2.02200	167
2.02567	166
2.02933	168
2.03300	173
2.03667	176
2.04033	177
2.04400	176
2.04767	177
2.05133	180
2.05500	182
2.05867	184
2.06233	186
2.06600	186
2.06967	186
2.07333	186
2.07700	188
2.08067	191
2.08433	192
2.08800	190
2.09167	189
2.09533	189
2.09900	190
2.10267	192
2.10633	196
2.11000	198
2.11367	199
2.11733	198
2.12100	198
2.12467	200
2.12833	202
2.13200	205
2.13567	209
2.13933	212
2.14300	213
2.14667	216
2.15033	218
2.15400	218
2.15767	218
2.16133	217
2.16500	217
2.16867	217
2.17233	216
2.17600	218
2.17967	218
2.18333	217
2.18700	218
2.19067	219
2.19433	221
2.19800	223
2.20167	227
2.20533	231
2.20900	233
2.21267	231
2.21633	228
2.22000	228
2.22367	231
2.22733	236
2.23100	240
2.23467	242
2.23833	243
2.24200	242
2.24567	240
2.24933	239
2.25300	237
2.25667	237
2.26033	237
2.26400	238
2.26767	240
2.27133	241
2.27500	243
2.27867	243
2.28233	245
2.28600	247
2.28967	248
2.29333	250
2.29700	252
2.30067	251
2.30433	251
2.30800	253
2.31167	257
2.31533	257
2.31900	257
2.32267	258
2.32633	258
2.33000	258
2.33367	257
2.33733	257
2.34100	257
2.34467	258
2.34833	260
2.35200	261
2.35567	264
2.35933	264
2.36300	263
2.36667	264
2.37033	263
2.37400	262
2.37767	262
2.38133	262
2.38500	258
2.38867	256
2.39233	255
2.39600	255
2.39967	255
2.40333	255
2.40700	256
2.41067	255
2.41433	257
2.41800	262
2.42167	267
2.42533	269
2.42900	271
2.43267	271
2.43633	272
2.44000	272
2.44367	278
2.44733	305
2.45100	342
2.45467	372
2.45833	386
2.46200	390
2.46567	389
2.46933	387
2.47300	385
2.47667	383
2.48033	378
2.48400	373
2.48767	369
2.49133	364
2.49500	357
2.49867	349
2.50233	342
2.50600	334
2.50967	329
2.51333	329
2.51700	331
2.52067	331
2.52433	329
2.52800	324
2.53167	319
2.53533	315
2.53900	310
2.54267	303
2.54633	297
2.55000	292
2.55367	286
2.55733	282
2.56100	278
2.56467	276
2.56833	275
2.57200	272
2.57567	271
2.57933	269
2.58300	268
2.58667	268
2.59033	265
2.59400	262
2.59767	261
2.60133	257
2.60500	248
2.60867	239
2.61233	225
2.61600	204
2.61967	176
2.62333	145
2.62700	117
2.63067	92
2.63433	71
2.63800	51
2.64167	36
2.64533	23
2.64900	13
2.65267	6
2.65633	6
2.66000	8
2.66367	12
2.66733	16
2.67100	20
2.67467	26
2.67833	30
2.68200	37
2.68567	43
2.68933	50
2.69300	59
2.69667	68
2.70033	76
2.70400	85
2.70767	93
2.71133	98
2.71500	104
2.71867	109
2.72233	113
2.72600	117
2.72967	123
2.73333	127
2.73700	130
2.74067	133
2.74433	137
2.74800	142
2.75167	145
2.75533	148
2.75900	148
2.76267	146
2.76633	145
2.77000	148
2.77367	151
2.77733	153
2.78100	155
2.78467	157
2.78833	160
2.79200	162
2.79567	162
2.79933	164
2.80300	164
2.80667	165
2.81033	165
2.81400	166
2.81767	169
2.82133	174
2.82500	177
2.82867	187
2.83233	207
2.83600	254
2.83967	345
2.84333	502
2.84700	747
2.85067	1095
2.85433	1550
2.85800	2098
2.86167	2707
2.86533	3330
2.86900	3918
2.87267	4420
2.87633	4799
2.88000	5030
2.88367	5112
2.88733	5055
2.89100	4880
2.89467	4619
2.89833	4297
2.90200	3943
2.90567	3580
2.90933	3221
2.91300	2880
2.91667	2562
2.92033	2270
2.92400	2004
2.92767	1767
2.93133	1558
2.93500	1372
2.93867	1207
2.94233	1063
2.94600	938
2.94967	813
2.95333	685
2.95700	591
2.96067	545
2.96433	535
2.96800	548
2.97167	576
2.97533	609
2.97900	649
2.98267	695
2.98633	742
2.99000	790
2.99367	839
2.99733	885
3.00100	928
3.00467	967
3.00833	1000
3.01200	1028
3.01567	1049
3.01933	1061
3.02300	1070
3.02667	1074
3.03033	1077
3.03400	1084
3.03767	1089
3.04133	1094
3.04500	1102
3.04867	1109
3.05233	1115
3.05600	1121
3.05967	1126
3.06333	1128
3.06700	1130
3.07067	1132
3.07433	1131
3.07800	1131
3.08167	1132
3.08533	1134
3.08900	1136
3.09267	1139
3.09633	1142
3.10000	1142
3.10367	1141
3.10733	1140
3.11100	1139
3.11467	1136
3.11833	1133
3.12200	1131
3.12567	1128
3.12933	1128
3.13300	1129
3.13667	1127
3.14033	1125
3.14400	1122
3.14767	1121
3.15133	1121
3.15500	1120
3.15867	1117
3.16233	1112
3.16600	1110
3.16967	1111
3.17333	1112
3.17700	1112
3.18067	1113
3.18433	1114
3.18800	1115
3.19167	1116
3.19533	1115
3.19900	1113
3.20267	1110
3.20633	1106
3.21000	1104
3.21367	1100
3.21733	1097
3.22100	1098
3.22467	1102
3.22833	1103
3.23200	1101
3.23567	1098
3.23933	1098
3.24300	1096
3.24667	1095
3.25033	1094
3.25400	1093
3.25767	1094
3.26133	1093
3.26500	1090
3.26867	1087
3.27233	1082
3.27600	1077
3.27967	1075
3.28333	1073
3.28700	1070
3.29067	1067
3.29433	1067
3.29800	1066
3.30167	1063
3.30533	1062
3.30900	1058
3.31267	1052
3.31633	1044
3.32000	1036
3.32367	1030
3.32733	1028
3.33100	1028
3.33467	1026
3.33833	1020
3.34200	1014
3.34567	1009
3.34933	1003
3.35300	996
3.35667	990
3.36033	986
3.36400	983
3.36767	978
3.37133	973
3.37500	968
3.37867	962
3.38233	959
3.38600	955
3.38967	949
3.39333	946
3.39700	943
3.40067	939
3.40433	933
3.40800	928
3.41167	922
3.41533	915
3.41900	910
3.42267	909
3.42633	908
3.43000	910
3.43367	909
3.43733	903
3.44100	896
3.44467	893
3.44833	891
3.45200	886
3.45567	882
3.45933	878
3.46300	875
3.46667	872
3.47033	866
3.47400	860
3.47767	855
3.48133	851
3.48500	848
3.48867	845
3.49233	841
3.49600	840
3.49967	838
3.50333	834
3.50700	831
3.51067	826
3.51433	823
3.51800	820
3.52167	818
3.52533	818
3.52900	820
3.53267	817
3.53633	813
3.54000	811
3.54367	809
3.54733	806
3.55100	801
3.55467	795
3.55833	792
3.56200	789
3.56567	785
3.56933	781
3.57300	778
3.57667	774
3.58033	772
3.58400	770
3.58767	768
3.59133	762
3.59500	759
3.59867	760
3.60233	760
3.60600	759
3.60967	754
3.61333	748
3.61700	745
3.62067	741
3.62433	738
3.62800	740
3.63167	738
3.63533	734
3.63900	732
3.64267	728
3.64633	724
3.65000	719
3.65367	718
3.65733	716
3.66100	713
3.66467	710
3.66833	707
3.67200	704
3.67567	702
3.67933	697
3.68300	694
3.68667	692
3.69033	689
3.69400	684
3.69767	681
3.70133	681
3.70500	680
3.70867	678
3.71233	675
3.71600	672
3.71967	669
3.72333	666
3.72700	662
3.73067	662
3.73433	660
3.73800	658
3.74167	656
3.74533	652
3.74900	647
3.75267	646
3.75633	646
3.76000	644
3.76367	639
3.76733	634
3.77100	633
3.77467	634
3.77833	633
3.78200	633
3.78567	631
3.78933	628
3.79300	626
3.79667	624
3.80033	623
3.80400	622
3.80767	622
3.81133	621
3.81500	620
3.81867	616
3.82233	610
3.82600	606
3.82967	604
3.83333	603
3.83700	602
3.84067	601
3.84433	599
3.84800	596
3.85167	594
3.85533	592
3.85900	590
3.86267	586
3.86633	585
3.87000	583
3.87367	583
3.87733	581
3.88100	576
3.88467	572
3.88833	570
3.89200	567
3.89567	565
3.89933	563
3.90300	563
3.90667	561
3.91033	558
3.91400	555
3.91767	552
3.92133	550
3.92500	547
3.92867	547
3.93233	546
3.93600	542
3.93967	538
3.94333	536
3.94700	538
3.95067	537
3.95433	534
3.95800	530
3.96167	529
3.96533	529
3.96900	527
3.97267	525
3.97633	523
3.98000	524
3.98367	523
3.98733	518
3.99100	514
3.99467	512
3.99833	511

[Status Trace (Column Oven Temperature)]
Interval(msec)	1000
# of Points	240
Start Time(min)	0.010
End Time(min)	3.993
Intensity Units	
Intensity Multiplier	1
R.Time (min)	Intensity
0.00990	35.02
0.02657	35.01
0.04323	35.01
0.05990	35.00
0.07657	35.01
0.09323	35.02
0.10990	35.04
0.12657	35.04
0.14323	35.05
0.15990	35.06
0.17657	35.06
0.19323	35.05
0.20990	35.03
0.22657	35.03
0.24323	35.03
0.25990	35.02
0.27657	35.02
0.29323	35.03
0.30990	35.03
0.32657	35.02
0.34323	35.01
0.35990	35.00
0.37657	34.99
0.39323	34.99
0.40990	34.98
0.42657	34.98
0.44323	34.98
0.45990	34.98
0.47657	34.98
0.49323	34.99
0.50990	34.99
0.52657	34.99
0.54323	34.99
0.55990	34.98
0.57657	34.97
0.59323	34.97
0.60990	34.96
0.62657	34.97
0.64323	34.96
0.65990	34.97
0.67657	34.96
0.69323	34.96
0.70990	34.97
0.72657	34.96
0.74323	34.97
0.75990	34.97
0.77657	34.97
0.79323	34.97
0.80990	34.97
0.82657	34.97
0.84323	34.98
0.85990	34.97
0.87657	34.97
0.89323	34.98
0.90990	34.98
0.92657	34.98
0.94323	34.99
0.95990	34.99
0.97657	34.99
0.99323	34.99
1.00990	34.99
1.02657	35.00
1.04323	35.01
1.05990	35.00
1.07657	34.99
1.09323	34.99
1.10990	34.98
1.12657	34.98
1.14323	34.98
1.15990	34.98
1.17657	34.99
1.19323	34.98
1.20990	34.97
1.22657	34.98
1.24323	34.98
1.25990	34.98
1.27657	34.98
1.29323	34.98
1.30990	34.98
1.32657	34.98
1.34323	34.99
1.35990	34.99
1.37657	34.99
1.39323	35.00
1.40990	34.99
1.42657	35.00
1.44323	35.00
1.45990	35.00
1.47657	35.00
1.49323	35.00
1.50990	35.00
1.52657	35.00
1.54323	34.99
1.55990	34.98
1.57657	34.98
1.59323	34.99
1.60990	35.06
1.62657	35.19
1.64323	35.39
1.65990	35.66
1.67657	36.03
1.69323	36.39
1.70990	36.73
1.72657	37.07
1.74323	37.39
1.75990	37.73
1.77657	38.08
1.79323	38.39
1.80990	38.70
1.82657	39.04
1.84323	39.36
1.85990	39.67
1.87657	40.00
1.89323	40.33
1.90990	40.66
1.92657	41.01
1.94323	41.33
1.95990	41.67
1.97657	42.00
1.99323	42.32
2.00990	42.63
2.02657	42.96
2.04323	43.28
2.05990	43.61
2.07657	43.95
2.09323	44.28
2.10990	44.61
2.12657	44.92
2.14323	45.24
2.15990	45.57
2.17657	45.91
2.19323	46.24
2.20990	46.57
2.22657	46.91
2.24323	47.23
2.25990	47.57
2.27657	47.88
2.29323	48.22
2.30990	48.55
2.32657	48.87
2.34323	49.25
2.35990	49.53
2.37657	49.67
2.39323	49.70
2.40990	49.67
2.42657	49.70
2.44323	49.70
2.45990	49.70
2.47657	49.73
2.49323	49.72
2.50990	49.75
2.52657	49.75
2.54323	49.76
2.55990	49.77
2.57657	49.80
2.59323	49.81
2.60990	49.81
2.62657	49.82
2.64323	49.83
2.65990	49.83
2.67657	49.84
2.69323	49.85
2.70990	49.86
2.72657	49.86
2.74323	49.86
2.75990	49.84
2.77657	49.86
2.79323	49.89
2.80990	49.90
2.82657	49.91
2.84323	49.92
2.85990	49.92
2.87657	49.92
2.89323	49.92
2.90990	49.93
2.92657	49.94
2.94323	49.95
2.95990	49.97
2.97657	49.97
2.99323	49.98
3.00990	50.00
3.02657	50.01
3.04323	50.02
3.05990	50.03
3.07657	50.04
3.09323	50.04
3.10990	50.04
3.12657	50.04
3.14323	50.05
3.15990	50.06
3.17657	50.07
3.19323	50.07
3.20990	50.09
3.22657	50.09
3.24323	50.11
3.25990	50.10
3.27657	50.09
3.29323	50.09
3.30990	50.09
3.32657	50.08
3.34323	50.07
3.35990	50.06
3.37657	50.06
3.39323	50.06
3.40990	50.06
3.42657	50.05
3.44323	50.06
3.45990	50.07
3.47657	50.06
3.49323	50.07
3.50990	50.08
3.52657	50.09
3.54323	50.10
3.55990	50.12
3.57657	50.11
3.59323	50.11
3.60990	50.09
3.62657	50.08
3.64323	50.06
3.65990	50.04
3.67657	50.02
3.69323	50.01
3.70990	50.01
3.72657	50.02
3.74323	50.02
3.75990	50.02
3.77657	50.01
3.79323	50.01
3.80990	50.01
3.82657	50.01
3.84323	50.01
3.85990	50.01
3.87657	50.01
3.89323	50.01
3.90990	50.01
3.92657	50.01
3.94323	50.01
3.95990	50.01
3.97657	50.02
3.99323	50.01

[Status Trace (Injection Unit Temperature)]
Interval(msec)	1000
# of Points	240
Start Time(min)	0.010
End Time(min)	3.993
Intensity Units	
Intensity Multiplier	1
R.Time (min)	Intensity
0.00990	99.98
0.02657	99.98
0.04323	99.98
0.05990	99.98
0.07657	99.98
0.09323	99.99
0.10990	99.98
0.12657	99.99
0.14323	99.99
0.15990	99.98
0.17657	99.98
0.19323	99.99
0.20990	99.99
0.22657	99.98
0.24323	99.99
0.25990	99.98
0.27657	99.99
0.29323	99.98
0.30990	99.98
0.32657	99.99
0.34323	99.99
0.35990	99.98
0.37657	99.98
0.39323	99.99
0.40990	99.98
0.42657	99.99
0.44323	99.98
0.45990	99.99
0.47657	99.99
0.49323	99.98
0.50990	99.98
0.52657	99.99
0.54323	99.98
0.55990	99.99
0.57657	99.98
0.59323	99.99
0.60990	99.98
0.62657	99.98
0.64323	99.98
0.65990	99.98
0.67657	99.99
0.69323	99.98
0.70990	99.98
0.72657	99.99
0.74323	99.98
0.75990	99.98
0.77657	99.98
0.79323	99.98
0.80990	99.98
0.82657	99.98
0.84323	99.99
0.85990	99.98
0.87657	99.98
0.89323	99.98
0.90990	99.98
0.92657	99.98
0.94323	99.98
0.95990	99.98
0.97657	99.98
0.99323	99.98
1.00990	99.98
1.02657	99.98
1.04323	99.98
1.05990	99.98
1.07657	99.99
1.09323	99.98
1.10990	99.98
1.12657	99.98
1.14323	99.99
1.15990	99.98
1.17657	99.98
1.19323	99.99
1.20990	99.98
1.22657	99.98
1.24323	99.98
1.25990	99.99
1.27657	99.98
1.29323	99.99
1.30990	99.99
1.32657	99.98
1.34323	99.99
1.35990	99.99
1.37657	99.98
1.39323	99.99
1.40990	99.99
1.42657	99.98
1.44323	99.99
1.45990	99.99
1.47657	99.98
1.49323	99.99
1.50990	99.99
1.52657	99.99
1.54323	99.99
1.55990	99.99
1.57657	99.99
1.59323	99.99
1.60990	99.98
1.62657	99.98
1.64323	99.99
1.65990	99.98
1.67657	99.98
1.69323	99.98
1.70990	99.98
1.72657	99.99
1.74323	99.99
1.75990	99.99
1.77657	99.98
1.79323	99.98
1.80990	99.98
1.82657	99.98
1.84323	99.98
1.85990	99.98
1.87657	99.98
1.89323	99.98
1.90990	99.98
1.92657	99.98
1.94323	99.98
1.95990	99.98
1.97657	99.98
1.99323	99.98
2.00990	99.98
2.02657	99.98
2.04323	99.98
2.05990	99.98
2.07657	99.98
2.09323	99.97
2.10990	99.97
2.12657	99.98
2.14323	99.98
2.15990	99.97
2.17657	99.97
2.19323	99.97
2.20990	99.97
2.22657	99.97
2.24323	99.97
2.25990	99.97
2.27657	99.97
2.29323	99.97
2.30990	99.97
2.32657	99.97
2.34323	99.97
2.35990	99.97
2.37657	99.96
2.39323	99.97
2.40990	99.97
2.42657	99.97
2.44323	99.97
2.45990	99.97
2.47657	99.97
2.49323	99.97
2.50990	99.97
2.52657	99.97
2.54323	99.97
2.55990	99.98
2.57657	99.98
2.59323	99.98
2.60990	99.97
2.62657	99.98
2.64323	99.98
2.65990	99.98
2.67657	99.98
2.69323	99.98
2.70990	99.98
2.72657	99.99
2.74323	99.98
2.75990	99.99
2.77657	100.00
2.79323	99.99
2.80990	100.00
2.82657	100.00
2.84323	100.00
2.85990	100.00
2.87657	100.01
2.89323	100.01
2.90990	100.00
2.92657	100.01
2.94323	100.01
2.95990	100.01
2.97657	100.01
2.99323	100.01
3.00990	100.01
3.02657	100.02
3.04323	100.01
3.05990	100.02
3.07657	100.01
3.09323	100.02
3.10990	100.02
3.12657	100.02
3.14323	100.02
3.15990	100.02
3.17657	100.03
3.19323	100.03
3.20990	100.03
3.22657	100.03
3.24323	100.03
3.25990	100.03
3.27657	100.03
3.29323	100.03
3.30990	100.03
3.32657	100.03
3.34323	100.03
3.35990	100.03
3.37657	100.03
3.39323	100.03
3.40990	100.03
3.42657	100.04
3.44323	100.04
3.45990	100.04
3.47657	100.04
3.49323	100.04
3.50990	100.05
3.52657	100.04
3.54323	100.05
3.55990	100.04
3.57657	100.05
3.59323	100.04
3.60990	100.05
3.62657	100.05
3.64323	100.05
3.65990	100.05
3.67657	100.05
3.69323	100.05
3.70990	100.05
3.72657	100.05
3.74323	100.05
3.75990	100.05
3.77657	100.06
3.79323	100.06
3.80990	100.06
3.82657	100.06
3.84323	100.06
3.85990	100.05
3.87657	100.06
3.89323	100.05
3.90990	100.06
3.92657	100.06
3.94323	100.06
3.95990	100.05
3.97657	100.06
3.99323	100.06

[Status Trace (Carrier Gas Pressure)]
Interval(msec)	1000
# of Points	240
Start Time(min)	0.010
End Time(min)	3.993
Intensity Units	
Intensity Multiplier	1
R.Time (min)	Intensity
0.00990	58.00
0.02657	55.09
0.04323	57.31
0.05990	59.45
0.07657	59.22
0.09323	58.03
0.10990	57.98
0.12657	58.01
0.14323	58.01
0.15990	58.00
0.17657	58.00
0.19323	58.00
0.20990	58.00
0.22657	58.00
0.24323	58.00
0.25990	58.00
0.27657	58.00
0.29323	58.00
0.30990	58.00
0.32657	58.00
0.34323	58.00
0.35990	58.00
0.37657	58.00
0.39323	58.00
0.40990	58.00
0.42657	58.00
0.44323	58.00
0.45990	58.00
0.47657	58.00
0.49323	58.00
0.50990	58.00
0.52657	58.00
0.54323	58.00
0.55990	58.00
0.57657	58.00
0.59323	58.00
0.60990	58.00
0.62657	58.00
0.64323	58.00
0.65990	58.00
0.67657	58.00
0.69323	58.00
0.70990	58.00
0.72657	58.00
0.74323	58.00
0.75990	58.00
0.77657	58.00
0.79323	58.00
0.80990	58.00
0.82657	58.00
0.84323	58.00
0.85990	58.00
0.87657	58.00
0.89323	58.00
0.90990	58.00
0.92657	58.00
0.94323	58.00
0.95990	58.00
0.97657	58.00
0.99323	58.00
1.00990	58.00
1.02657	58.00
1.04323	58.00
1.05990	58.00
1.07657	58.00
1.09323	58.00
1.10990	58.00
1.12657	58.00
1.14323	58.00
1.15990	58.00
1.17657	58.00
1.19323	58.00
1.20990	58.00
1.22657	58.00
1.24323	58.00
1.25990	58.00
1.27657	58.00
1.29323	58.00
1.30990	58.00
1.32657	58.00
1.34323	58.00
1.35990	58.00
1.37657	58.00
1.39323	58.00
1.40990	58.00
1.42657	58.00
1.44323	58.00
1.45990	58.00
1.47657	58.00
1.49323	58.00
1.50990	58.00
1.52657	58.00
1.54323	58.00
1.55990	58.00
1.57657	58.00
1.59323	58.00
1.60990	58.00
1.62657	58.00
1.64323	58.01
1.65990	58.00
1.67657	58.01
1.69323	58.00
1.70990	58.00
1.72657	58.00
1.74323	58.00
1.75990	58.00
1.77657	58.00
1.79323	58.00
1.80990	58.00
1.82657	58.00
1.84323	58.00
1.85990	58.00
1.87657	58.00
1.89323	58.00
1.90990	58.00
1.92657	58.00
1.94323	58.00
1.95990	58.00
1.97657	58.00
1.99323	58.00
2.00990	58.00
2.02657	58.00
2.04323	58.00
2.05990	58.00
2.07657	58.00
2.09323	58.00
2.10990	58.00
2.12657	58.00
2.14323	58.00
2.15990	58.00
2.17657	58.00
2.19323	58.00
2.20990	58.00
2.22657	58.00
2.24323	58.00
2.25990	58.00
2.27657	58.00
2.29323	58.00
2.30990	58.00
2.32657	58.00
2.34323	58.00
2.35990	58.00
2.37657	57.99
2.39323	57.99
2.40990	57.99
2.42657	58.00
2.44323	58.00
2.45990	58.00
2.47657	58.00
2.49323	58.00
2.50990	58.00
2.52657	57.98
2.54323	58.00
2.55990	58.00
2.57657	58.00
2.59323	58.00
2.60990	58.00
2.62657	58.00
2.64323	58.00
2.65990	58.00
2.67657	58.00
2.69323	58.00
2.70990	58.00
2.72657	58.00
2.74323	58.00
2.75990	58.00
2.77657	58.00
2.79323	58.00
2.80990	58.00
2.82657	58.00
2.84323	58.00
2.85990	58.00
2.87657	58.00
2.89323	58.00
2.90990	58.00
2.92657	58.00
2.94323	58.00
2.95990	58.00
2.97657	58.00
2.99323	58.00
3.00990	58.00
3.02657	58.00
3.04323	58.00
3.05990	58.00
3.07657	58.00
3.09323	58.00
3.10990	58.00
3.12657	58.00
3.14323	58.00
3.15990	58.00
3.17657	58.00
3.19323	58.00
3.20990	58.00
3.22657	58.00
3.24323	58.00
3.25990	58.00
3.27657	58.00
3.29323	58.00
3.30990	58.00
3.32657	58.00
3.34323	58.00
3.35990	58.00
3.37657	58.00
3.39323	58.00
3.40990	58.00
3.42657	58.00
3.44323	58.00
3.45990	58.00
3.47657	58.00
3.49323	58.00
3.50990	58.00
3.52657	58.00
3.54323	58.00
3.55990	58.00
3.57657	58.00
3.59323	58.00
3.60990	58.00
3.62657	58.00
3.64323	58.00
3.65990	58.00
3.67657	58.00
3.69323	58.00
3.70990	58.00
3.72657	58.00
3.74323	58.00
3.75990	58.00
3.77657	58.00
3.79323	58.00
3.80990	58.00
3.82657	58.00
3.84323	58.00
3.85990	58.00
3.87657	58.00
3.89323	58.00
3.90990	58.00
3.92657	58.00
3.94323	58.00
3.95990	58.00
3.97657	58.00
3.99323	58.00

[Status Trace (Carrier Gas Flow)]
Interval(msec)	1000
# of Points	240
Start Time(min)	0.010
End Time(min)	3.993
Intensity Units	
Intensity Multiplier	1
R.Time (min)	Intensity
0.00990	34.52
0.02657	34.54
0.04323	34.55
0.05990	34.55
0.07657	34.50
0.09323	34.52
0.10990	34.52
0.12657	34.52
0.14323	34.53
0.15990	34.52
0.17657	34.52
0.19323	34.51
0.20990	34.53
0.22657	34.50
0.24323	34.52
0.25990	34.52
0.27657	34.52
0.29323	34.52
0.30990	34.52
0.32657	34.52
0.34323	34.52
0.35990	34.52
0.37657	34.52
0.39323	34.52
0.40990	34.52
0.42657	34.52
0.44323	34.52
0.45990	34.52
0.47657	34.52
0.49323	34.52
0.50990	34.52
0.52657	34.52
0.54323	34.52
0.55990	34.52
0.57657	34.52
0.59323	34.52
0.60990	34.52
0.62657	34.52
0.64323	34.52
0.65990	34.52
0.67657	34.52
0.69323	34.52
0.70990	34.52
0.72657	34.52
0.74323	34.52
0.75990	34.52
0.77657	34.52
0.79323	34.52
0.80990	34.52
0.82657	34.52
0.84323	34.52
0.85990	34.52
0.87657	34.52
0.89323	34.52
0.90990	34.52
0.92657	34.52
0.94323	34.52
0.95990	34.52
0.97657	34.52
0.99323	34.52
1.00990	34.52
1.02657	34.52
1.04323	34.52
1.05990	34.52
1.07657	34.52
1.09323	34.52
1.10990	34.52
1.12657	34.52
1.14323	34.52
1.15990	34.52
1.17657	34.52
1.19323	34.52
1.20990	34.52
1.22657	34.52
1.24323	34.52
1.25990	34.52
1.27657	34.52
1.29323	34.52
1.30990	34.52
1.32657	34.52
1.34323	34.52
1.35990	34.52
1.37657	34.52
1.39323	34.52
1.40990	34.52
1.42657	34.52
1.44323	34.52
1.45990	34.52
1.47657	34.52
1.49323	34.52
1.50990	34.52
1.52657	34.52
1.54323	34.52
1.55990	34.52
1.57657	34.52
1.59323	34.52
1.60990	34.52
1.62657	34.52
1.64323	34.52
1.65990	34.52
1.67657	34.52
1.69323	34.52
1.70990	34.52
1.72657	34.52
1.74323	34.52
1.75990	34.52
1.77657	34.52
1.79323	34.52
1.80990	34.52
1.82657	34.52
1.84323	34.52
1.85990	34.52
1.87657	34.52
1.89323	34.52
1.90990	34.52
1.92657	34.52
1.94323	34.53
1.95990	34.52
1.97657	34.52
1.99323	34.52
2.00990	34.52
2.02657	34.52
2.04323	34.52
2.05990	34.52
2.07657	34.52
2.09323	34.52
2.10990	34.52
2.12657	34.52
2.14323	34.52
2.15990	34.51
2.17657	34.52
2.19323	34.52
2.20990	34.52
2.22657	34.52
2.24323	34.52
2.25990	34.52
2.27657	34.51
2.29323	34.52
2.30990	34.52
2.32657	34.52
2.34323	34.52
2.35990	34.52
2.37657	34.52
2.39323	34.52
2.40990	34.52
2.42657	34.52
2.44323	34.52
2.45990	34.52
2.47657	34.52
2.49323	34.52
2.50990	34.52
2.52657	34.52
2.54323	34.52
2.55990	34.52
2.57657	34.52
2.59323	34.52
2.60990	34.52
2.62657	34.52
2.64323	34.52
2.65990	34.52
2.67657	34.52
2.69323	34.52
2.70990	34.52
2.72657	34.52
2.74323	34.52
2.75990	34.52
2.77657	34.52
2.79323	34.52
2.80990	34.52
2.82657	34.52
2.84323	34.52
2.85990	34.52
2.87657	34.52
2.89323	34.52
2.90990	34.52
2.92657	34.52
2.94323	34.52
2.95990	34.52
2.97657	34.52
2.99323	34.52
3.00990	34.52
3.02657	34.52
3.04323	34.52
3.05990	34.52
3.07657	34.52
3.09323	34.52
3.10990	34.52
3.12657	34.52
3.14323	34.52
3.15990	34.52
3.17657	34.52
3.19323	34.52
3.20990	34.52
3.22657	34.52
3.24323	34.52
3.25990	34.51
3.27657	34.52
3.29323	34.52
3.30990	34.52
3.32657	34.52
3.34323	34.52
3.35990	34.52
3.37657	34.52
3.39323	34.51
3.40990	34.51
3.42657	34.52
3.44323	34.52
3.45990	34.52
3.47657	34.52
3.49323	34.52
3.50990	34.51
3.52657	34.51
3.54323	34.51
3.55990	34.52
3.57657	34.50
3.59323	34.52
3.60990	34.54
3.62657	34.52
3.64323	34.52
3.65990	34.51
3.67657	34.52
3.69323	34.52
3.70990	34.52
3.72657	34.52
3.74323	34.52
3.75990	34.52
3.77657	34.52
3.79323	34.52
3.80990	34.52
3.82657	34.52
3.84323	34.52
3.85990	34.51
3.87657	34.51
3.89323	34.52
3.90990	34.52
3.92657	34.52
3.94323	34.52
3.95990	34.52
3.97657	34.52
3.99323	34.52

[Status Trace (Column Flow)]
Interval(msec)	1000
# of Points	240
Start Time(min)	0.010
End Time(min)	3.993
Intensity Units	
Intensity Multiplier	1
R.Time (min)	Intensity
0.00990	5.46
0.02657	5.12
0.04323	5.38
0.05990	5.63
0.07657	5.60
0.09323	5.46
0.10990	5.45
0.12657	5.46
0.14323	5.46
0.15990	5.46
0.17657	5.46
0.19323	5.46
0.20990	5.46
0.22657	5.46
0.24323	5.46
0.25990	5.46
0.27657	5.46
0.29323	5.46
0.30990	5.46
0.32657	5.46
0.34323	5.46
0.35990	5.46
0.37657	5.46
0.39323	5.46
0.40990	5.46
0.42657	5.46
0.44323	5.46
0.45990	5.46
0.47657	5.46
0.49323	5.46
0.50990	5.46
0.52657	5.46
0.54323	5.46
0.55990	5.46
0.57657	5.46
0.59323	5.46
0.60990	5.46
0.62657	5.46
0.64323	5.46
0.65990	5.46
0.67657	5.46
0.69323	5.46
0.70990	5.46
0.72657	5.46
0.74323	5.46
0.75990	5.46
0.77657	5.46
0.79323	5.46
0.80990	5.46
0.82657	5.46
0.84323	5.46
0.85990	5.46
0.87657	5.46
0.89323	5.46
0.90990	5.46
0.92657	5.46
0.94323	5.46
0.95990	5.46
0.97657	5.46
0.99323	5.46
1.00990	5.46
1.02657	5.46
1.04323	5.46
1.05990	5.46
1.07657	5.46
1.09323	5.46
1.10990	5.46
1.12657	5.46
1.14323	5.46
1.15990	5.46
1.17657	5.46
1.19323	5.46
1.20990	5.46
1.22657	5.46
1.24323	5.46
1.25990	5.46
1.27657	5.46
1.29323	5.46
1.30990	5.46
1.32657	5.46
1.34323	5.46
1.35990	5.46
1.37657	5.46
1.39323	5.46
1.40990	5.46
1.42657	5.46
1.44323	5.46
1.45990	5.46
1.47657	5.46
1.49323	5.46
1.50990	5.46
1.52657	5.46
1.54323	5.46
1.55990	5.46
1.57657	5.46
1.59323	5.46
1.60990	5.46
1.62657	5.45
1.64323	5.45
1.65990	5.44
1.67657	5.43
1.69323	5.42
1.70990	5.41
1.72657	5.39
1.74323	5.39
1.75990	5.37
1.77657	5.36
1.79323	5.35
1.80990	5.35
1.82657	5.33
1.84323	5.33
1.85990	5.32
1.87657	5.31
1.89323	5.30
1.90990	5.29
1.92657	5.28
1.94323	5.27
1.95990	5.26
1.97657	5.25
1.99323	5.24
2.00990	5.23
2.02657	5.22
2.04323	5.21
2.05990	5.20
2.07657	5.19
2.09323	5.18
2.10990	5.17
2.12657	5.16
2.14323	5.15
2.15990	5.14
2.17657	5.13
2.19323	5.12
2.20990	5.12
2.22657	5.11
2.24323	5.10
2.25990	5.09
2.27657	5.08
2.29323	5.07
2.30990	5.06
2.32657	5.05
2.34323	5.04
2.35990	5.03
2.37657	5.03
2.39323	5.03
2.40990	5.03
2.42657	5.03
2.44323	5.03
2.45990	5.03
2.47657	5.03
2.49323	5.03
2.50990	5.03
2.52657	5.02
2.54323	5.03
2.55990	5.03
2.57657	5.03
2.59323	5.02
2.60990	5.02
2.62657	5.02
2.64323	5.02
2.65990	5.02
2.67657	5.02
2.69323	5.02
2.70990	5.02
2.72657	5.02
2.74323	5.02
2.75990	5.02
2.77657	5.02
2.79323	5.02
2.80990	5.02
2.82657	5.02
2.84323	5.02
2.85990	5.02
2.87657	5.02
2.89323	5.02
2.90990	5.02
2.92657	5.02
2.94323	5.02
2.95990	5.02
2.97657	5.02
2.99323	5.02
3.00990	5.02
3.02657	5.02
3.04323	5.02
3.05990	5.02
3.07657	5.02
3.09323	5.02
3.10990	5.02
3.12657	5.02
3.14323	5.02
3.15990	5.02
3.17657	5.02
3.19323	5.02
3.20990	5.02
3.22657	5.02
3.24323	5.02
3.25990	5.02
3.27657	5.02
3.29323	5.02
3.30990	5.02
3.32657	5.02
3.34323	5.02
3.35990	5.02
3.37657	5.02
3.39323	5.02
3.40990	5.02
3.42657	5.02
3.44323	5.02
3.45990	5.02
3.47657	5.02
3.49323	5.02
3.50990	5.02
3.52657	5.02
3.54323	5.02
3.55990	5.02
3.57657	5.02
3.59323	5.02
3.60990	5.02
3.62657	5.02
3.64323	5.02
3.65990	5.02
3.67657	5.02
3.69323	5.02
3.70990	5.02
3.72657	5.02
3.74323	5.02
3.75990	5.02
3.77657	5.02
3.79323	5.02
3.80990	5.02
3.82657	5.02
3.84323	5.02
3.85990	5.02
3.87657	5.02
3.89323	5.02
3.90990	5.02
3.92657	5.02
3.94323	5.02
3.95990	5.02
3.97657	5.02
3.99323	5.02

[Status Trace (Linear Velocity)]
Interval(msec)	1000
# of Points	240
Start Time(min)	0.010
End Time(min)	3.993
Intensity Units	
Intensity Multiplier	1
R.Time (min)	Intensity
0.00990	39.00
0.02657	37.09
0.04323	38.55
0.05990	39.95
0.07657	39.80
0.09323	39.02
0.10990	38.99
0.12657	39.01
0.14323	39.00
0.15990	39.00
0.17657	39.00
0.19323	39.00
0.20990	39.00
0.22657	39.00
0.24323	39.00
0.25990	39.00
0.27657	39.00
0.29323	39.00
0.30990	39.00
0.32657	39.00
0.34323	39.00
0.35990	39.00
0.37657	39.00
0.39323	39.00
0.40990	39.00
0.42657	39.00
0.44323	39.00
0.45990	39.00
0.47657	39.00
0.49323	39.00
0.50990	39.00
0.52657	39.00
0.54323	39.00
0.55990	39.00
0.57657	39.00
0.59323	39.01
0.60990	39.00
0.62657	39.00
0.64323	39.01
0.65990	39.00
0.67657	39.01
0.69323	39.01
0.70990	39.00
0.72657	39.01
0.74323	39.00
0.75990	39.00
0.77657	39.00
0.79323	39.00
0.80990	39.00
0.82657	39.00
0.84323	39.00
0.85990	39.00
0.87657	39.00
0.89323	39.00
0.90990	39.00
0.92657	39.00
0.94323	39.00
0.95990	39.00
0.97657	39.00
0.99323	39.00
1.00990	39.00
1.02657	39.00
1.04323	39.00
1.05990	39.00
1.07657	39.00
1.09323	39.00
1.10990	39.00
1.12657	39.00
1.14323	39.00
1.15990	39.00
1.17657	39.00
1.19323	39.00
1.20990	39.00
1.22657	39.00
1.24323	39.00
1.25990	39.00
1.27657	39.00
1.29323	39.00
1.30990	39.00
1.32657	39.00
1.34323	39.00
1.35990	39.00
1.37657	39.00
1.39323	39.00
1.40990	39.00
1.42657	39.00
1.44323	39.00
1.45990	39.00
1.47657	39.00
1.49323	39.00
1.50990	39.00
1.52657	39.00
1.54323	39.00
1.55990	39.00
1.57657	39.00
1.59323	39.00
1.60990	39.00
1.62657	38.99
1.64323	38.97
1.65990	38.94
1.67657	38.91
1.69323	38.87
1.70990	38.84
1.72657	38.80
1.74323	38.78
1.75990	38.74
1.77657	38.71
1.79323	38.68
1.80990	38.65
1.82657	38.62
1.84323	38.59
1.85990	38.56
1.87657	38.53
1.89323	38.50
1.90990	38.47
1.92657	38.43
1.94323	38.41
1.95990	38.37
1.97657	38.34
1.99323	38.31
2.00990	38.29
2.02657	38.25
2.04323	38.23
2.05990	38.20
2.07657	38.16
2.09323	38.13
2.10990	38.10
2.12657	38.07
2.14323	38.05
2.15990	38.02
2.17657	37.98
2.19323	37.96
2.20990	37.93
2.22657	37.89
2.24323	37.87
2.25990	37.84
2.27657	37.81
2.29323	37.78
2.30990	37.75
2.32657	37.72
2.34323	37.69
2.35990	37.66
2.37657	37.64
2.39323	37.64
2.40990	37.64
2.42657	37.64
2.44323	37.64
2.45990	37.64
2.47657	37.64
2.49323	37.64
2.50990	37.64
2.52657	37.63
2.54323	37.64
2.55990	37.64
2.57657	37.64
2.59323	37.63
2.60990	37.63
2.62657	37.63
2.64323	37.63
2.65990	37.63
2.67657	37.63
2.69323	37.63
2.70990	37.63
2.72657	37.63
2.74323	37.63
2.75990	37.63
2.77657	37.63
2.79323	37.63
2.80990	37.63
2.82657	37.63
2.84323	37.62
2.85990	37.63
2.87657	37.62
2.89323	37.63
2.90990	37.62
2.92657	37.62
2.94323	37.62
2.95990	37.62
2.97657	37.62
2.99323	37.62
3.00990	37.62
3.02657	37.62
3.04323	37.62
3.05990	37.62
3.07657	37.61
3.09323	37.61
3.10990	37.61
3.12657	37.61
3.14323	37.61
3.15990	37.61
3.17657	37.61
3.19323	37.61
3.20990	37.61
3.22657	37.61
3.24323	37.61
3.25990	37.61
3.27657	37.61
3.29323	37.61
3.30990	37.61
3.32657	37.61
3.34323	37.61
3.35990	37.61
3.37657	37.61
3.39323	37.61
3.40990	37.61
3.42657	37.61
3.44323	37.61
3.45990	37.61
3.47657	37.61
3.49323	37.61
3.50990	37.61
3.52657	37.61
3.54323	37.61
3.55990	37.61
3.57657	37.61
3.59323	37.61
3.60990	37.61
3.62657	37.61
3.64323	37.61
3.65990	37.61
3.67657	37.62
3.69323	37.62
3.70990	37.62
3.72657	37.62
3.74323	37.62
3.75990	37.62
3.77657	37.62
3.79323	37.62
3.80990	37.62
3.82657	37.62
3.84323	37.62
3.85990	37.62
3.87657	37.62
3.89323	37.62
3.90990	37.62
3.92657	37.62
3.94323	37.62
3.95990	37.62
3.97657	37.62
3.99323	37.62

