[Header]
Application Name	LabSolutions
Version	5.110
Data File Name	C:\Users\User\Desktop\GC Analyses\Jack\UIC Prairie Sampling\9.2.22\220902_042.gcd
Output Date	10/28/2022
Output Time	1:23:54 PM

[File Information]
Type	Data File
Generated	10/26/2022 11:48:51 AM
Generated by	System Administrator
Modified	10/26/2022 11:53:12 AM
Modified by	System Administrator

[Sample Information]
Operator Name	System Administrator
Acquired	10/26/2022 11:49:10 AM
Sample Type	1:Standard
Level	1
Sample Name	220902_UICPrairie
Sample ID	220902_UICPrairie
ISTD Amount1	1
ISTD Amount2	1
ISTD Amount3	1
ISTD Amount4	1
ISTD Amount5	1
ISTD Amount6	1
ISTD Amount7	1
ISTD Amount8	1
ISTD Amount9	1
ISTD Amount10	1
ISTD Amount11	1
ISTD Amount12	1
ISTD Amount13	1
ISTD Amount14	1
ISTD Amount15	1
ISTD Amount16	1
ISTD Amount17	1
ISTD Amount18	1
ISTD Amount19	1
ISTD Amount20	1
ISTD Amount21	1
ISTD Amount22	1
ISTD Amount23	1
ISTD Amount24	1
ISTD Amount25	1
ISTD Amount26	1
ISTD Amount27	1
ISTD Amount28	1
ISTD Amount29	1
ISTD Amount30	1
ISTD Amount31	1
ISTD Amount32	1
Sample Amount	1
Dilution Factor	1
Vial#	1
Injection Volume	1
Injection Count	1
Bar Code	

[Original Files]
Data File	C:\Users\User\Desktop\GC Analyses\Jack\UIC Prairie Sampling\9.2.22\220902_042.gcd
Method File	C:\LabSolutions\Data\GHG_4min_2022\ghg3_togas_w_acet_4 min_new_int.gcm
Batch File	
Report Format File	c:\LabSolutions\System\DEFAULT.lsr

[File Description]


[Configuration]
Instrument Name	C0B7VH3-Instrument1
Instrument #	1
Line #	1
# of Detectors	3
Detector ID	DET#1	DET#2	DET#3
Detector Name	FID	PTCD	ECD
# of Channels	1	1	1

[Peak Table(Ch1)]
# of Peaks	3
Peak#	R.Time	I.Time	F.Time	Area	Height	A/H	Conc.	Mark	ID#	Name	k'	Plate #	Plate Ht.	Tailing	Resolution	Sep.Factor	Area Ratio	Height Ratio	Conc. %	Norm Conc.
1	1.468	1.439	1.534	3982	1400	2.844	100.000	   	1	CO	0.000	5892	25.459	1.618	0.000	0.000	0	0	16.667	16.667
2	1.571	1.534	1.644	20618	10406	1.981	100.000	 V 	2	CH4	0.070	11532	13.007	1.146	1.521	0.000	0	0	16.667	16.667
3	2.000	1.949	2.363	2141052	1030330	2.078	400.000	   	3	CO2	0.362	17631	8.508	1.162	7.224	5.179	0	0	66.667	66.667

[Peak Table(Ch2)]
# of Peaks	0

[Peak Table(Ch3)]
# of Peaks	4
Peak#	R.Time	I.Time	F.Time	Area	Height	A/H	Conc.	Mark	ID#	Name	k'	Plate #	Plate Ht.	Tailing	Resolution	Sep.Factor	Area Ratio	Height Ratio	Conc. %	Norm Conc.
1	2.462	1.292	2.649	15124	442	34.200	0.000	   			0.000	132	1138.508	0.584	0.000	0.000	0	0	0.000	0.000
2	2.777	2.664	2.810	1111	183	6.061	0.017	   	1	N2O	0.128	211	711.214	0.000	0.389	0.000	0	0	1.690	1.690
3	2.884	2.810	3.995	64600	15900	4.063	0.983	SV 	1	N2O	0.171	12476	12.023	1.574	0.245	1.337	0	0	98.310	98.310
4	3.379	3.276	3.995	9700	431	22.491	0.000	T  			0.372	495	303.158	3.527	1.393	2.174	0	0	0.000	0.000

[Compound Results(Ch1)]
# of IDs	6
ID#	Name	R.Time	Area	Height	Conc.	Curve	3rd	2nd	1st	Constant	Area Ratio	Height Ratio	Conc. %	Norm Conc.
1	CO	1.468	3982	1400	100.000	Linear	0.000000e+00	0.000000e+00	3.981932e+001	0.000000e+00	0	0	16.667	16.667
2	CH4	1.571	20618	10406	100.000	Linear	0.000000e+00	0.000000e+00	2.061818e+002	0.000000e+00	0	0	16.667	16.667
3	CO2	2.000	2141052	1030330	400.000	Linear	0.000000e+00	0.000000e+00	5.352631e+003	0.000000e+00	0	0	66.667	66.667
4	Ethylene	0.000	0	0	0.000	Linear	0.000000e+00	0.000000e+00	0.000000e+00	0.000000e+00	0	0	0.000	0.000
5	Acetylene	0.000	0	0	0.000	Linear	0.000000e+00	0.000000e+00	0.000000e+00	0.000000e+00	0	0	0.000	0.000
6	Ethane	0.000	0	0	0.000	Linear	0.000000e+00	0.000000e+00	0.000000e+00	0.000000e+00	0	0	0.000	0.000

[Compound Results(Ch2)]
# of IDs	5
ID#	Name	R.Time	Area	Height	Conc.	Curve	3rd	2nd	1st	Constant	Area Ratio	Height Ratio	Conc. %	Norm Conc.
1	Hydrogen	0.000	0	0	0.000	Linear	0.000000e+00	0.000000e+00	0.000000e+00	0.000000e+00	0	0	0.000	0.000
2	Oxygen	0.000	0	0	0.000	Linear	0.000000e+00	0.000000e+00	0.000000e+00	0.000000e+00	0	0	0.000	0.000
3	Nitrogen	0.000	0	0	0.000	Linear	0.000000e+00	0.000000e+00	0.000000e+00	0.000000e+00	0	0	0.000	0.000
4	Methane	0.000	0	0	0.000	Linear	0.000000e+00	0.000000e+00	0.000000e+00	0.000000e+00	0	0	0.000	0.000
5	Carbon Monoxide	0.000	0	0	0.000	Linear	0.000000e+00	0.000000e+00	0.000000e+00	0.000000e+00	0	0	0.000	0.000

[Compound Results(Ch3)]
# of IDs	2
ID#	Name	R.Time	Area	Height	Conc.	Curve	3rd	2nd	1st	Constant	Area Ratio	Height Ratio	Conc. %	Norm Conc.
1	N2O	2.884	65711	16084	1.000	Linear	0.000000e+00	0.000000e+00	6.571100e+004	0.000000e+00	0	0	100.000	100.000
2	SF6	0.000	0	0	0.000	Linear	0.000000e+00	0.000000e+00	0.000000e+00	0.000000e+00	0	0	0.000	0.000

[Group Results(Ch1)]
# of Groups	0

[Group Results(Ch2)]
# of Groups	0

[Group Results(Ch3)]
# of Groups	0

[Chromatogram (Ch1)]
Interval(msec)	220
# of Points	1091
Start Time(min)	0.002
End Time(min)	3.998
R.Time (min)	Intensity
0.00167	9
0.00533	3
0.00900	1
0.01267	4
0.01633	9
0.02000	12
0.02367	16
0.02733	21
0.03100	23
0.03467	20
0.03833	21
0.04200	23
0.04567	24
0.04933	23
0.05300	23
0.05667	27
0.06033	31
0.06400	34
0.06767	35
0.07133	36
0.07500	38
0.07867	42
0.08233	43
0.08600	38
0.08967	33
0.09333	29
0.09700	23
0.10067	20
0.10433	17
0.10800	17
0.11167	20
0.11533	24
0.11900	28
0.12267	34
0.12633	41
0.13000	45
0.13367	42
0.13733	36
0.14100	31
0.14467	26
0.14833	22
0.15200	20
0.15567	18
0.15933	20
0.16300	23
0.16667	25
0.17033	23
0.17400	22
0.17767	25
0.18133	31
0.18500	34
0.18867	35
0.19233	33
0.19600	30
0.19967	30
0.20333	29
0.20700	27
0.21067	25
0.21433	24
0.21800	27
0.22167	30
0.22533	32
0.22900	37
0.23267	41
0.23633	39
0.24000	31
0.24367	20
0.24733	9
0.25100	4
0.25467	9
0.25833	17
0.26200	25
0.26567	25
0.26933	16
0.27300	4
0.27667	-7
0.28033	-11
0.28400	-6
0.28767	-0
0.29133	6
0.29500	14
0.29867	20
0.30233	25
0.30600	27
0.30967	27
0.31333	26
0.31700	25
0.32067	23
0.32433	23
0.32800	24
0.33167	23
0.33533	19
0.33900	14
0.34267	10
0.34633	10
0.35000	15
0.35367	23
0.35733	32
0.36100	40
0.36467	45
0.36833	47
0.37200	47
0.37567	43
0.37933	39
0.38300	32
0.38667	22
0.39033	11
0.39400	3
0.39767	-2
0.40133	-8
0.40500	-11
0.40867	-10
0.41233	-8
0.41600	-5
0.41967	-3
0.42333	-1
0.42700	3
0.43067	8
0.43433	9
0.43800	7
0.44167	8
0.44533	13
0.44900	16
0.45267	17
0.45633	17
0.46000	15
0.46367	7
0.46733	1
0.47100	-2
0.47467	-3
0.47833	-3
0.48200	-2
0.48567	-1
0.48933	0
0.49300	5
0.49667	12
0.50033	18
0.50400	19
0.50767	15
0.51133	8
0.51500	3
0.51867	2
0.52233	3
0.52600	2
0.52967	0
0.53333	0
0.53700	3
0.54067	7
0.54433	8
0.54800	7
0.55167	8
0.55533	8
0.55900	6
0.56267	2
0.56633	-2
0.57000	-3
0.57367	-6
0.57733	-11
0.58100	-16
0.58467	-20
0.58833	-20
0.59200	-16
0.59567	-11
0.59933	-8
0.60300	-5
0.60667	-2
0.61033	1
0.61400	1
0.61767	3
0.62133	2
0.62500	2
0.62867	3
0.63233	4
0.63600	3
0.63967	1
0.64333	-3
0.64700	-7
0.65067	-9
0.65433	-9
0.65800	-8
0.66167	-9
0.66533	-8
0.66900	-8
0.67267	-10
0.67633	-14
0.68000	-18
0.68367	-22
0.68733	-24
0.69100	-25
0.69467	-25
0.69833	-23
0.70200	-24
0.70567	-28
0.70933	-34
0.71300	-38
0.71667	-39
0.72033	-36
0.72400	-28
0.72767	-16
0.73133	-9
0.73500	-9
0.73867	-12
0.74233	-14
0.74600	-17
0.74967	-23
0.75333	-28
0.75700	-32
0.76067	-35
0.76433	-38
0.76800	-35
0.77167	-28
0.77533	-23
0.77900	-19
0.78267	-17
0.78633	-16
0.79000	-15
0.79367	-10
0.79733	-4
0.80100	-4
0.80467	-7
0.80833	-15
0.81200	-27
0.81567	-40
0.81933	-48
0.82300	-52
0.82667	-51
0.83033	-46
0.83400	-38
0.83767	-33
0.84133	-29
0.84500	-25
0.84867	-20
0.85233	-18
0.85600	-18
0.85967	-18
0.86333	-12
0.86700	-7
0.87067	-4
0.87433	-6
0.87800	-13
0.88167	-22
0.88533	-30
0.88900	-39
0.89267	-45
0.89633	-46
0.90000	-45
0.90367	-43
0.90733	-37
0.91100	-30
0.91467	-27
0.91833	-27
0.92200	-29
0.92567	-31
0.92933	-31
0.93300	-27
0.93667	-27
0.94033	-28
0.94400	-30
0.94767	-32
0.95133	-31
0.95500	-30
0.95867	-28
0.96233	-30
0.96600	-35
0.96967	-36
0.97333	-35
0.97700	-35
0.98067	-37
0.98433	-39
0.98800	-41
0.99167	-42
0.99533	-43
0.99900	-44
1.00267	-46
1.00633	-47
1.01000	-42
1.01367	-35
1.01733	-29
1.02100	-28
1.02467	-34
1.02833	-42
1.03200	-48
1.03567	-46
1.03933	-38
1.04300	-27
1.04667	-21
1.05033	-20
1.05400	-24
1.05767	-27
1.06133	-30
1.06500	-31
1.06867	-31
1.07233	-30
1.07600	-28
1.07967	-24
1.08333	-21
1.08700	-23
1.09067	-29
1.09433	-33
1.09800	-35
1.10167	-30
1.10533	-20
1.10900	-13
1.11267	-13
1.11633	-19
1.12000	-26
1.12367	-32
1.12733	-39
1.13100	-48
1.13467	-55
1.13833	-59
1.14200	-62
1.14567	-60
1.14933	-57
1.15300	-50
1.15667	-43
1.16033	-42
1.16400	-47
1.16767	-55
1.17133	-62
1.17500	-64
1.17867	-62
1.18233	-61
1.18600	-63
1.18967	-65
1.19333	-65
1.19700	-64
1.20067	-60
1.20433	-56
1.20800	-56
1.21167	-59
1.21533	-61
1.21900	-59
1.22267	-56
1.22633	-55
1.23000	-52
1.23367	-47
1.23733	-42
1.24100	-36
1.24467	-36
1.24833	-41
1.25200	-45
1.25567	-48
1.25933	-49
1.26300	-53
1.26667	-58
1.27033	-64
1.27400	-67
1.27767	-69
1.28133	-69
1.28500	-68
1.28867	-68
1.29233	-67
1.29600	-65
1.29967	-62
1.30333	-62
1.30700	-59
1.31067	-55
1.31433	-53
1.31800	-55
1.32167	-59
1.32533	-63
1.32900	-66
1.33267	-71
1.33633	-74
1.34000	-73
1.34367	-73
1.34733	-73
1.35100	-70
1.35467	-66
1.35833	-63
1.36200	-61
1.36567	-64
1.36933	-67
1.37300	-68
1.37667	-69
1.38033	-70
1.38400	-69
1.38767	-66
1.39133	-63
1.39500	-60
1.39867	-56
1.40233	-52
1.40600	-52
1.40967	-54
1.41333	-56
1.41700	-57
1.42067	-57
1.42433	-57
1.42800	-60
1.43167	-66
1.43533	-67
1.43900	-52
1.44267	28
1.44633	236
1.45000	540
1.45367	841
1.45733	1077
1.46100	1232
1.46467	1316
1.46833	1347
1.47200	1343
1.47567	1314
1.47933	1261
1.48300	1180
1.48667	1067
1.49033	927
1.49400	774
1.49767	626
1.50133	493
1.50500	378
1.50867	281
1.51233	205
1.51600	144
1.51967	91
1.52333	46
1.52700	14
1.53067	-7
1.53433	-16
1.53800	22
1.54167	241
1.54533	922
1.54900	2283
1.55267	4192
1.55633	6235
1.56000	8037
1.56367	9399
1.56733	10213
1.57100	10351
1.57467	9714
1.57833	8400
1.58200	6723
1.58567	5040
1.58933	3592
1.59300	2465
1.59667	1648
1.60033	1079
1.60400	695
1.60767	441
1.61133	273
1.61500	160
1.61867	86
1.62233	35
1.62600	-0
1.62967	-23
1.63333	-37
1.63700	-45
1.64067	-50
1.64433	-57
1.64800	-64
1.65167	-70
1.65533	-74
1.65900	-78
1.66267	-82
1.66633	-83
1.67000	-80
1.67367	-79
1.67733	-80
1.68100	-82
1.68467	-82
1.68833	-82
1.69200	-83
1.69567	-83
1.69933	-81
1.70300	-76
1.70667	-70
1.71033	-67
1.71400	-72
1.71767	-82
1.72133	-94
1.72500	-104
1.72867	-110
1.73233	-111
1.73600	-107
1.73967	-101
1.74333	-93
1.74700	-83
1.75067	-77
1.75433	-75
1.75800	-77
1.76167	-85
1.76533	-95
1.76900	-100
1.77267	-99
1.77633	-96
1.78000	-90
1.78367	-87
1.78733	-84
1.79100	-80
1.79467	-76
1.79833	-75
1.80200	-78
1.80567	-83
1.80933	-86
1.81300	-85
1.81667	-85
1.82033	-82
1.82400	-77
1.82767	-68
1.83133	-60
1.83500	-58
1.83867	-62
1.84233	-70
1.84600	-79
1.84967	-85
1.85333	-87
1.85700	-89
1.86067	-91
1.86433	-91
1.86800	-91
1.87167	-92
1.87533	-92
1.87900	-88
1.88267	-82
1.88633	-73
1.89000	-67
1.89367	-62
1.89733	-57
1.90100	-52
1.90467	-49
1.90833	-51
1.91200	-56
1.91567	-59
1.91933	-62
1.92300	-66
1.92667	-67
1.93033	-67
1.93400	-70
1.93767	-74
1.94133	-79
1.94500	-84
1.94867	-80
1.95233	-60
1.95600	48
1.95967	669
1.96333	3752
1.96700	15476
1.97067	49446
1.97433	125131
1.97800	256233
1.98167	435739
1.98533	635093
1.98900	818500
1.99267	956520
1.99633	1030082
2.00000	1030286
2.00367	960595
2.00733	837427
2.01100	685700
2.01467	531081
2.01833	392759
2.02200	280342
2.02567	195205
2.02933	133915
2.03300	91312
2.03667	62379
2.04033	42999
2.04400	30099
2.04767	21514
2.05133	15770
2.05500	11878
2.05867	9195
2.06233	7310
2.06600	5958
2.06967	4968
2.07333	4228
2.07700	3665
2.08067	3217
2.08433	2850
2.08800	2543
2.09167	2287
2.09533	2076
2.09900	1901
2.10267	1754
2.10633	1627
2.11000	1515
2.11367	1415
2.11733	1328
2.12100	1250
2.12467	1182
2.12833	1120
2.13200	1062
2.13567	1007
2.13933	957
2.14300	913
2.14667	874
2.15033	840
2.15400	807
2.15767	776
2.16133	748
2.16500	721
2.16867	697
2.17233	674
2.17600	651
2.17967	627
2.18333	602
2.18700	579
2.19067	556
2.19433	533
2.19800	509
2.20167	488
2.20533	473
2.20900	463
2.21267	455
2.21633	445
2.22000	431
2.22367	416
2.22733	402
2.23100	391
2.23467	382
2.23833	373
2.24200	366
2.24567	358
2.24933	352
2.25300	349
2.25667	349
2.26033	347
2.26400	338
2.26767	327
2.27133	313
2.27500	299
2.27867	286
2.28233	278
2.28600	271
2.28967	266
2.29333	266
2.29700	268
2.30067	269
2.30433	268
2.30800	265
2.31167	263
2.31533	260
2.31900	254
2.32267	248
2.32633	242
2.33000	238
2.33367	237
2.33733	237
2.34100	236
2.34467	235
2.34833	233
2.35200	231
2.35567	224
2.35933	217
2.36300	210
2.36667	205
2.37033	203
2.37400	205
2.37767	209
2.38133	211
2.38500	210
2.38867	208
2.39233	207
2.39600	205
2.39967	202
2.40333	198
2.40700	198
2.41067	202
2.41433	206
2.41800	207
2.42167	203
2.42533	196
2.42900	189
2.43267	183
2.43633	181
2.44000	181
2.44367	178
2.44733	171
2.45100	167
2.45467	167
2.45833	170
2.46200	174
2.46567	178
2.46933	183
2.47300	186
2.47667	183
2.48033	176
2.48400	167
2.48767	159
2.49133	150
2.49500	144
2.49867	144
2.50233	147
2.50600	153
2.50967	158
2.51333	163
2.51700	165
2.52067	165
2.52433	162
2.52800	155
2.53167	145
2.53533	139
2.53900	135
2.54267	134
2.54633	132
2.55000	129
2.55367	128
2.55733	127
2.56100	126
2.56467	124
2.56833	123
2.57200	126
2.57567	134
2.57933	143
2.58300	149
2.58667	152
2.59033	157
2.59400	163
2.59767	161
2.60133	153
2.60500	143
2.60867	132
2.61233	122
2.61600	109
2.61967	101
2.62333	99
2.62700	101
2.63067	103
2.63433	104
2.63800	108
2.64167	117
2.64533	124
2.64900	126
2.65267	124
2.65633	120
2.66000	115
2.66367	116
2.66733	120
2.67100	124
2.67467	129
2.67833	133
2.68200	134
2.68567	135
2.68933	135
2.69300	133
2.69667	130
2.70033	129
2.70400	128
2.70767	125
2.71133	120
2.71500	115
2.71867	112
2.72233	108
2.72600	107
2.72967	108
2.73333	110
2.73700	111
2.74067	114
2.74433	117
2.74800	117
2.75167	116
2.75533	112
2.75900	108
2.76267	108
2.76633	110
2.77000	112
2.77367	109
2.77733	108
2.78100	111
2.78467	116
2.78833	120
2.79200	122
2.79567	122
2.79933	121
2.80300	120
2.80667	119
2.81033	121
2.81400	119
2.81767	115
2.82133	114
2.82500	115
2.82867	115
2.83233	113
2.83600	111
2.83967	111
2.84333	110
2.84700	108
2.85067	109
2.85433	111
2.85800	114
2.86167	119
2.86533	127
2.86900	134
2.87267	133
2.87633	126
2.88000	116
2.88367	106
2.88733	101
2.89100	100
2.89467	102
2.89833	107
2.90200	109
2.90567	109
2.90933	110
2.91300	111
2.91667	110
2.92033	112
2.92400	120
2.92767	129
2.93133	133
2.93500	127
2.93867	115
2.94233	102
2.94600	91
2.94967	84
2.95333	81
2.95700	83
2.96067	88
2.96433	95
2.96800	104
2.97167	111
2.97533	115
2.97900	115
2.98267	113
2.98633	110
2.99000	106
2.99367	97
2.99733	88
3.00100	83
3.00467	86
3.00833	95
3.01200	104
3.01567	108
3.01933	107
3.02300	100
3.02667	96
3.03033	97
3.03400	98
3.03767	99
3.04133	99
3.04500	94
3.04867	85
3.05233	77
3.05600	74
3.05967	75
3.06333	79
3.06700	85
3.07067	94
3.07433	103
3.07800	107
3.08167	106
3.08533	101
3.08900	93
3.09267	88
3.09633	87
3.10000	88
3.10367	89
3.10733	88
3.11100	86
3.11467	88
3.11833	94
3.12200	98
3.12567	96
3.12933	92
3.13300	87
3.13667	82
3.14033	78
3.14400	76
3.14767	77
3.15133	81
3.15500	85
3.15867	86
3.16233	86
3.16600	89
3.16967	93
3.17333	96
3.17700	99
3.18067	104
3.18433	107
3.18800	107
3.19167	103
3.19533	99
3.19900	97
3.20267	96
3.20633	95
3.21000	92
3.21367	88
3.21733	82
3.22100	78
3.22467	76
3.22833	78
3.23200	84
3.23567	93
3.23933	101
3.24300	106
3.24667	106
3.25033	106
3.25400	105
3.25767	103
3.26133	100
3.26500	97
3.26867	92
3.27233	83
3.27600	70
3.27967	62
3.28333	61
3.28700	62
3.29067	61
3.29433	57
3.29800	52
3.30167	51
3.30533	52
3.30900	50
3.31267	48
3.31633	49
3.32000	53
3.32367	60
3.32733	67
3.33100	72
3.33467	76
3.33833	80
3.34200	82
3.34567	82
3.34933	84
3.35300	86
3.35667	89
3.36033	90
3.36400	86
3.36767	75
3.37133	65
3.37500	61
3.37867	64
3.38233	70
3.38600	70
3.38967	65
3.39333	62
3.39700	62
3.40067	62
3.40433	62
3.40800	61
3.41167	63
3.41533	68
3.41900	74
3.42267	80
3.42633	83
3.43000	82
3.43367	77
3.43733	70
3.44100	68
3.44467	73
3.44833	80
3.45200	84
3.45567	83
3.45933	78
3.46300	72
3.46667	68
3.47033	65
3.47400	63
3.47767	63
3.48133	66
3.48500	68
3.48867	65
3.49233	61
3.49600	57
3.49967	54
3.50333	52
3.50700	52
3.51067	54
3.51433	56
3.51800	59
3.52167	63
3.52533	66
3.52900	67
3.53267	68
3.53633	65
3.54000	60
3.54367	56
3.54733	55
3.55100	57
3.55467	60
3.55833	62
3.56200	62
3.56567	60
3.56933	61
3.57300	60
3.57667	56
3.58033	49
3.58400	45
3.58767	48
3.59133	57
3.59500	61
3.59867	61
3.60233	56
3.60600	49
3.60967	38
3.61333	28
3.61700	23
3.62067	21
3.62433	20
3.62800	20
3.63167	19
3.63533	22
3.63900	26
3.64267	33
3.64633	37
3.65000	42
3.65367	49
3.65733	56
3.66100	61
3.66467	61
3.66833	56
3.67200	48
3.67567	40
3.67933	35
3.68300	32
3.68667	32
3.69033	31
3.69400	29
3.69767	28
3.70133	31
3.70500	37
3.70867	42
3.71233	43
3.71600	41
3.71967	38
3.72333	36
3.72700	34
3.73067	33
3.73433	31
3.73800	27
3.74167	24
3.74533	25
3.74900	26
3.75267	26
3.75633	27
3.76000	27
3.76367	27
3.76733	28
3.77100	28
3.77467	27
3.77833	25
3.78200	25
3.78567	27
3.78933	29
3.79300	29
3.79667	28
3.80033	26
3.80400	24
3.80767	22
3.81133	23
3.81500	25
3.81867	28
3.82233	31
3.82600	36
3.82967	40
3.83333	40
3.83700	40
3.84067	37
3.84433	33
3.84800	26
3.85167	19
3.85533	17
3.85900	18
3.86267	16
3.86633	11
3.87000	5
3.87367	-1
3.87733	-3
3.88100	-1
3.88467	1
3.88833	4
3.89200	9
3.89567	14
3.89933	17
3.90300	21
3.90667	25
3.91033	26
3.91400	23
3.91767	17
3.92133	12
3.92500	11
3.92867	11
3.93233	11
3.93600	11
3.93967	12
3.94333	12
3.94700	9
3.95067	4
3.95433	3
3.95800	3
3.96167	5
3.96533	4
3.96900	4
3.97267	7
3.97633	11
3.98000	14
3.98367	12
3.98733	4
3.99100	-8
3.99467	-21
3.99833	-31

[Chromatogram (Ch2)]
Interval(msec)	220
# of Points	1091
Start Time(min)	0.002
End Time(min)	3.998
R.Time (min)	Intensity
0.00167	-2
0.00533	-3
0.00900	-3
0.01267	-3
0.01633	-4
0.02000	-4
0.02367	-4
0.02733	-4
0.03100	-4
0.03467	-4
0.03833	-4
0.04200	-4
0.04567	-3
0.04933	-3
0.05300	-3
0.05667	-3
0.06033	-3
0.06400	-3
0.06767	-2
0.07133	-2
0.07500	-1
0.07867	-1
0.08233	0
0.08600	1
0.08967	1
0.09333	2
0.09700	2
0.10067	3
0.10433	3
0.10800	4
0.11167	4
0.11533	4
0.11900	4
0.12267	4
0.12633	4
0.13000	4
0.13367	4
0.13733	3
0.14100	3
0.14467	3
0.14833	3
0.15200	3
0.15567	2
0.15933	2
0.16300	2
0.16667	1
0.17033	1
0.17400	1
0.17767	0
0.18133	-0
0.18500	-1
0.18867	-1
0.19233	-1
0.19600	-1
0.19967	-1
0.20333	-1
0.20700	-1
0.21067	-1
0.21433	-1
0.21800	-1
0.22167	-0
0.22533	0
0.22900	0
0.23267	1
0.23633	1
0.24000	1
0.24367	1
0.24733	2
0.25100	2
0.25467	2
0.25833	3
0.26200	3
0.26567	3
0.26933	3
0.27300	3
0.27667	3
0.28033	3
0.28400	3
0.28767	3
0.29133	3
0.29500	3
0.29867	3
0.30233	3
0.30600	3
0.30967	3
0.31333	2
0.31700	2
0.32067	2
0.32433	2
0.32800	2
0.33167	2
0.33533	2
0.33900	2
0.34267	2
0.34633	1
0.35000	1
0.35367	1
0.35733	1
0.36100	1
0.36467	1
0.36833	1
0.37200	1
0.37567	1
0.37933	1
0.38300	1
0.38667	0
0.39033	-0
0.39400	-1
0.39767	-1
0.40133	-2
0.40500	-2
0.40867	-3
0.41233	-3
0.41600	-3
0.41967	-4
0.42333	-4
0.42700	-4
0.43067	-4
0.43433	-5
0.43800	-5
0.44167	-5
0.44533	-5
0.44900	-4
0.45267	-4
0.45633	-3
0.46000	-3
0.46367	-3
0.46733	-2
0.47100	-2
0.47467	-2
0.47833	-1
0.48200	-1
0.48567	-1
0.48933	-1
0.49300	-1
0.49667	-1
0.50033	-1
0.50400	-1
0.50767	-1
0.51133	-1
0.51500	-1
0.51867	-1
0.52233	-1
0.52600	-0
0.52967	-0
0.53333	0
0.53700	1
0.54067	1
0.54433	1
0.54800	2
0.55167	2
0.55533	2
0.55900	3
0.56267	3
0.56633	3
0.57000	4
0.57367	4
0.57733	4
0.58100	4
0.58467	4
0.58833	3
0.59200	3
0.59567	2
0.59933	2
0.60300	1
0.60667	1
0.61033	1
0.61400	1
0.61767	0
0.62133	0
0.62500	-0
0.62867	-0
0.63233	-0
0.63600	0
0.63967	0
0.64333	0
0.64700	0
0.65067	0
0.65433	0
0.65800	-0
0.66167	-1
0.66533	-1
0.66900	-1
0.67267	-1
0.67633	-1
0.68000	-1
0.68367	-1
0.68733	-0
0.69100	-1
0.69467	-1
0.69833	-1
0.70200	-1
0.70567	-1
0.70933	-2
0.71300	-2
0.71667	-3
0.72033	-3
0.72400	-3
0.72767	-3
0.73133	-3
0.73500	-3
0.73867	-3
0.74233	-3
0.74600	-3
0.74967	-3
0.75333	-2
0.75700	-2
0.76067	-2
0.76433	-2
0.76800	-2
0.77167	-2
0.77533	-2
0.77900	-1
0.78267	-1
0.78633	-1
0.79000	-1
0.79367	-1
0.79733	-1
0.80100	-1
0.80467	-1
0.80833	-0
0.81200	-0
0.81567	-0
0.81933	-0
0.82300	-0
0.82667	-0
0.83033	-1
0.83400	-1
0.83767	-1
0.84133	-1
0.84500	-2
0.84867	-2
0.85233	-2
0.85600	-2
0.85967	-2
0.86333	-2
0.86700	-3
0.87067	-3
0.87433	-3
0.87800	-3
0.88167	-3
0.88533	-3
0.88900	-3
0.89267	-3
0.89633	-3
0.90000	-3
0.90367	-2
0.90733	-2
0.91100	-2
0.91467	-2
0.91833	-2
0.92200	-2
0.92567	-1
0.92933	-1
0.93300	-1
0.93667	-1
0.94033	-1
0.94400	-1
0.94767	-1
0.95133	-2
0.95500	-2
0.95867	-2
0.96233	-2
0.96600	-2
0.96967	-2
0.97333	-2
0.97700	-2
0.98067	-2
0.98433	-2
0.98800	-2
0.99167	-2
0.99533	-1
0.99900	-1
1.00267	-1
1.00633	-0
1.01000	-0
1.01367	-0
1.01733	-0
1.02100	-1
1.02467	-1
1.02833	-1
1.03200	-1
1.03567	-1
1.03933	-2
1.04300	-2
1.04667	-2
1.05033	-3
1.05400	-3
1.05767	-3
1.06133	-3
1.06500	-4
1.06867	-4
1.07233	-4
1.07600	-4
1.07967	-5
1.08333	-5
1.08700	-5
1.09067	-5
1.09433	-4
1.09800	-4
1.10167	-4
1.10533	-4
1.10900	-3
1.11267	-3
1.11633	-3
1.12000	-3
1.12367	-3
1.12733	-3
1.13100	-3
1.13467	-2
1.13833	-2
1.14200	-2
1.14567	-1
1.14933	-1
1.15300	-1
1.15667	-1
1.16033	-0
1.16400	-0
1.16767	-0
1.17133	-0
1.17500	0
1.17867	0
1.18233	0
1.18600	-0
1.18967	-0
1.19333	-0
1.19700	-0
1.20067	-0
1.20433	-0
1.20800	-0
1.21167	-0
1.21533	-0
1.21900	0
1.22267	-0
1.22633	-0
1.23000	-0
1.23367	-1
1.23733	-1
1.24100	-0
1.24467	-0
1.24833	-0
1.25200	-0
1.25567	-0
1.25933	-0
1.26300	-0
1.26667	-0
1.27033	-0
1.27400	-0
1.27767	-0
1.28133	-0
1.28500	-0
1.28867	-0
1.29233	-0
1.29600	-0
1.29967	-0
1.30333	0
1.30700	0
1.31067	-0
1.31433	-0
1.31800	-0
1.32167	-1
1.32533	-1
1.32900	-1
1.33267	-1
1.33633	-2
1.34000	-2
1.34367	-2
1.34733	-2
1.35100	-2
1.35467	-3
1.35833	-3
1.36200	-3
1.36567	-3
1.36933	-3
1.37300	-3
1.37667	-2
1.38033	-2
1.38400	-2
1.38767	-2
1.39133	-2
1.39500	-2
1.39867	-2
1.40233	-1
1.40600	-1
1.40967	-1
1.41333	-2
1.41700	-2
1.42067	-2
1.42433	-2
1.42800	-2
1.43167	-2
1.43533	-3
1.43900	-3
1.44267	-3
1.44633	-3
1.45000	-3
1.45367	-3
1.45733	-3
1.46100	-3
1.46467	-3
1.46833	-3
1.47200	-3
1.47567	-3
1.47933	-3
1.48300	-3
1.48667	-3
1.49033	-3
1.49400	-3
1.49767	-3
1.50133	-3
1.50500	-3
1.50867	-2
1.51233	-2
1.51600	-2
1.51967	-2
1.52333	-2
1.52700	-1
1.53067	-1
1.53433	-1
1.53800	-1
1.54167	-1
1.54533	-1
1.54900	-1
1.55267	-1
1.55633	-1
1.56000	-1
1.56367	-1
1.56733	-1
1.57100	-1
1.57467	-1
1.57833	-2
1.58200	-2
1.58567	-2
1.58933	-2
1.59300	-2
1.59667	-2
1.60033	-3
1.60400	-4
1.60767	-6
1.61133	-7
1.61500	-9
1.61867	-11
1.62233	-14
1.62600	-17
1.62967	-20
1.63333	-24
1.63700	-28
1.64067	-32
1.64433	-36
1.64800	-40
1.65167	-44
1.65533	-48
1.65900	-52
1.66267	-56
1.66633	-61
1.67000	-65
1.67367	-71
1.67733	-76
1.68100	-81
1.68467	-85
1.68833	-90
1.69200	-94
1.69567	-97
1.69933	-100
1.70300	-102
1.70667	-104
1.71033	-106
1.71400	-107
1.71767	-108
1.72133	-109
1.72500	-110
1.72867	-110
1.73233	-110
1.73600	-111
1.73967	-111
1.74333	-112
1.74700	-113
1.75067	-114
1.75433	-115
1.75800	-116
1.76167	-116
1.76533	-117
1.76900	-117
1.77267	-118
1.77633	-118
1.78000	-118
1.78367	-119
1.78733	-119
1.79100	-120
1.79467	-120
1.79833	-121
1.80200	-122
1.80567	-122
1.80933	-122
1.81300	-122
1.81667	-122
1.82033	-121
1.82400	-121
1.82767	-121
1.83133	-120
1.83500	-121
1.83867	-121
1.84233	-121
1.84600	-121
1.84967	-122
1.85333	-122
1.85700	-122
1.86067	-122
1.86433	-122
1.86800	-123
1.87167	-123
1.87533	-122
1.87900	-122
1.88267	-121
1.88633	-120
1.89000	-120
1.89367	-119
1.89733	-119
1.90100	-119
1.90467	-119
1.90833	-119
1.91200	-119
1.91567	-118
1.91933	-118
1.92300	-117
1.92667	-117
1.93033	-117
1.93400	-118
1.93767	-118
1.94133	-118
1.94500	-118
1.94867	-118
1.95233	-118
1.95600	-118
1.95967	-118
1.96333	-118
1.96700	-118
1.97067	-118
1.97433	-117
1.97800	-117
1.98167	-117
1.98533	-117
1.98900	-117
1.99267	-116
1.99633	-116
2.00000	-116
2.00367	-116
2.00733	-116
2.01100	-115
2.01467	-114
2.01833	-114
2.02200	-113
2.02567	-113
2.02933	-113
2.03300	-112
2.03667	-112
2.04033	-112
2.04400	-112
2.04767	-112
2.05133	-112
2.05500	-111
2.05867	-111
2.06233	-111
2.06600	-111
2.06967	-111
2.07333	-111
2.07700	-110
2.08067	-110
2.08433	-109
2.08800	-108
2.09167	-107
2.09533	-106
2.09900	-106
2.10267	-105
2.10633	-105
2.11000	-105
2.11367	-105
2.11733	-106
2.12100	-106
2.12467	-105
2.12833	-105
2.13200	-105
2.13567	-104
2.13933	-104
2.14300	-103
2.14667	-103
2.15033	-102
2.15400	-102
2.15767	-101
2.16133	-100
2.16500	-100
2.16867	-99
2.17233	-99
2.17600	-99
2.17967	-99
2.18333	-98
2.18700	-97
2.19067	-97
2.19433	-96
2.19800	-95
2.20167	-95
2.20533	-95
2.20900	-95
2.21267	-95
2.21633	-95
2.22000	-95
2.22367	-95
2.22733	-95
2.23100	-95
2.23467	-94
2.23833	-93
2.24200	-92
2.24567	-92
2.24933	-91
2.25300	-91
2.25667	-91
2.26033	-92
2.26400	-93
2.26767	-93
2.27133	-94
2.27500	-94
2.27867	-94
2.28233	-94
2.28600	-94
2.28967	-93
2.29333	-92
2.29700	-92
2.30067	-92
2.30433	-91
2.30800	-91
2.31167	-90
2.31533	-90
2.31900	-89
2.32267	-89
2.32633	-88
2.33000	-88
2.33367	-87
2.33733	-87
2.34100	-87
2.34467	-86
2.34833	-86
2.35200	-86
2.35567	-85
2.35933	-85
2.36300	-84
2.36667	-83
2.37033	-82
2.37400	-80
2.37767	-77
2.38133	-74
2.38500	-71
2.38867	-67
2.39233	-63
2.39600	-58
2.39967	-54
2.40333	-49
2.40700	-44
2.41067	-39
2.41433	-34
2.41800	-30
2.42167	-27
2.42533	-24
2.42900	-22
2.43267	-20
2.43633	-18
2.44000	-16
2.44367	-14
2.44733	-12
2.45100	-9
2.45467	-7
2.45833	-5
2.46200	-4
2.46567	-3
2.46933	-1
2.47300	-0
2.47667	1
2.48033	2
2.48400	3
2.48767	3
2.49133	3
2.49500	3
2.49867	4
2.50233	4
2.50600	5
2.50967	6
2.51333	7
2.51700	8
2.52067	9
2.52433	10
2.52800	11
2.53167	12
2.53533	12
2.53900	13
2.54267	14
2.54633	14
2.55000	15
2.55367	15
2.55733	15
2.56100	15
2.56467	15
2.56833	15
2.57200	15
2.57567	16
2.57933	16
2.58300	16
2.58667	17
2.59033	17
2.59400	17
2.59767	18
2.60133	18
2.60500	17
2.60867	17
2.61233	18
2.61600	18
2.61967	18
2.62333	18
2.62700	18
2.63067	18
2.63433	18
2.63800	18
2.64167	18
2.64533	18
2.64900	19
2.65267	19
2.65633	19
2.66000	19
2.66367	19
2.66733	20
2.67100	20
2.67467	20
2.67833	20
2.68200	21
2.68567	21
2.68933	21
2.69300	21
2.69667	22
2.70033	22
2.70400	22
2.70767	22
2.71133	22
2.71500	22
2.71867	22
2.72233	22
2.72600	23
2.72967	22
2.73333	23
2.73700	23
2.74067	23
2.74433	23
2.74800	23
2.75167	23
2.75533	23
2.75900	23
2.76267	22
2.76633	21
2.77000	21
2.77367	21
2.77733	21
2.78100	21
2.78467	22
2.78833	22
2.79200	23
2.79567	23
2.79933	24
2.80300	24
2.80667	24
2.81033	24
2.81400	24
2.81767	24
2.82133	24
2.82500	24
2.82867	24
2.83233	24
2.83600	24
2.83967	24
2.84333	24
2.84700	22
2.85067	20
2.85433	15
2.85800	8
2.86167	-2
2.86533	-16
2.86900	-34
2.87267	-58
2.87633	-86
2.88000	-120
2.88367	-158
2.88733	-202
2.89100	-250
2.89467	-303
2.89833	-361
2.90200	-422
2.90567	-487
2.90933	-555
2.91300	-625
2.91667	-699
2.92033	-774
2.92400	-852
2.92767	-933
2.93133	-1015
2.93500	-1098
2.93867	-1183
2.94233	-1270
2.94600	-1357
2.94967	-1438
2.95333	-1501
2.95700	-1535
2.96067	-1533
2.96433	-1496
2.96800	-1431
2.97167	-1343
2.97533	-1241
2.97900	-1132
2.98267	-1021
2.98633	-912
2.99000	-808
2.99367	-711
2.99733	-622
3.00100	-542
3.00467	-470
3.00833	-406
3.01200	-350
3.01567	-300
3.01933	-258
3.02300	-221
3.02667	-189
3.03033	-161
3.03400	-137
3.03767	-116
3.04133	-98
3.04500	-83
3.04867	-70
3.05233	-59
3.05600	-49
3.05967	-41
3.06333	-34
3.06700	-28
3.07067	-23
3.07433	-19
3.07800	-15
3.08167	-12
3.08533	-9
3.08900	-6
3.09267	-4
3.09633	-2
3.10000	-1
3.10367	1
3.10733	2
3.11100	3
3.11467	4
3.11833	5
3.12200	6
3.12567	7
3.12933	8
3.13300	8
3.13667	9
3.14033	9
3.14400	9
3.14767	10
3.15133	10
3.15500	11
3.15867	11
3.16233	11
3.16600	12
3.16967	12
3.17333	13
3.17700	13
3.18067	13
3.18433	14
3.18800	14
3.19167	15
3.19533	15
3.19900	15
3.20267	16
3.20633	16
3.21000	16
3.21367	16
3.21733	16
3.22100	16
3.22467	16
3.22833	16
3.23200	17
3.23567	17
3.23933	18
3.24300	19
3.24667	20
3.25033	21
3.25400	21
3.25767	22
3.26133	22
3.26500	23
3.26867	23
3.27233	24
3.27600	24
3.27967	24
3.28333	24
3.28700	24
3.29067	24
3.29433	24
3.29800	24
3.30167	24
3.30533	24
3.30900	24
3.31267	24
3.31633	24
3.32000	24
3.32367	24
3.32733	25
3.33100	25
3.33467	25
3.33833	25
3.34200	25
3.34567	25
3.34933	25
3.35300	25
3.35667	25
3.36033	25
3.36400	25
3.36767	25
3.37133	25
3.37500	25
3.37867	25
3.38233	25
3.38600	25
3.38967	25
3.39333	25
3.39700	25
3.40067	25
3.40433	25
3.40800	25
3.41167	25
3.41533	25
3.41900	25
3.42267	25
3.42633	25
3.43000	25
3.43367	24
3.43733	24
3.44100	24
3.44467	24
3.44833	24
3.45200	24
3.45567	24
3.45933	24
3.46300	24
3.46667	24
3.47033	24
3.47400	24
3.47767	24
3.48133	24
3.48500	24
3.48867	24
3.49233	24
3.49600	24
3.49967	24
3.50333	24
3.50700	24
3.51067	24
3.51433	24
3.51800	24
3.52167	24
3.52533	24
3.52900	24
3.53267	24
3.53633	24
3.54000	24
3.54367	24
3.54733	24
3.55100	23
3.55467	24
3.55833	24
3.56200	24
3.56567	24
3.56933	24
3.57300	24
3.57667	24
3.58033	24
3.58400	24
3.58767	24
3.59133	24
3.59500	24
3.59867	24
3.60233	24
3.60600	24
3.60967	24
3.61333	24
3.61700	24
3.62067	24
3.62433	24
3.62800	24
3.63167	24
3.63533	24
3.63900	24
3.64267	24
3.64633	23
3.65000	23
3.65367	23
3.65733	24
3.66100	24
3.66467	24
3.66833	24
3.67200	24
3.67567	24
3.67933	24
3.68300	24
3.68667	25
3.69033	25
3.69400	25
3.69767	25
3.70133	25
3.70500	25
3.70867	25
3.71233	25
3.71600	25
3.71967	25
3.72333	25
3.72700	25
3.73067	25
3.73433	25
3.73800	25
3.74167	25
3.74533	25
3.74900	25
3.75267	26
3.75633	26
3.76000	26
3.76367	26
3.76733	26
3.77100	26
3.77467	26
3.77833	26
3.78200	26
3.78567	26
3.78933	26
3.79300	26
3.79667	26
3.80033	26
3.80400	26
3.80767	26
3.81133	25
3.81500	25
3.81867	25
3.82233	25
3.82600	25
3.82967	25
3.83333	25
3.83700	25
3.84067	25
3.84433	24
3.84800	24
3.85167	24
3.85533	24
3.85900	25
3.86267	25
3.86633	25
3.87000	25
3.87367	25
3.87733	25
3.88100	26
3.88467	26
3.88833	26
3.89200	26
3.89567	26
3.89933	26
3.90300	25
3.90667	25
3.91033	25
3.91400	25
3.91767	25
3.92133	25
3.92500	25
3.92867	25
3.93233	25
3.93600	25
3.93967	25
3.94333	25
3.94700	25
3.95067	25
3.95433	24
3.95800	24
3.96167	24
3.96533	24
3.96900	24
3.97267	24
3.97633	24
3.98000	24
3.98367	24
3.98733	24
3.99100	24
3.99467	24
3.99833	24

[Chromatogram (Ch3)]
Interval(msec)	220
# of Points	1091
Start Time(min)	0.002
End Time(min)	3.998
R.Time (min)	Intensity
0.00167	0
0.00533	3
0.00900	5
0.01267	5
0.01633	5
0.02000	3
0.02367	1
0.02733	1
0.03100	3
0.03467	4
0.03833	3
0.04200	3
0.04567	1
0.04933	1
0.05300	2
0.05667	1
0.06033	-0
0.06400	-0
0.06767	-0
0.07133	-1
0.07500	1
0.07867	3
0.08233	4
0.08600	5
0.08967	5
0.09333	5
0.09700	6
0.10067	6
0.10433	4
0.10800	1
0.11167	1
0.11533	1
0.11900	1
0.12267	3
0.12633	5
0.13000	8
0.13367	10
0.13733	12
0.14100	11
0.14467	10
0.14833	9
0.15200	7
0.15567	6
0.15933	8
0.16300	7
0.16667	6
0.17033	8
0.17400	9
0.17767	9
0.18133	11
0.18500	11
0.18867	10
0.19233	8
0.19600	7
0.19967	7
0.20333	8
0.20700	8
0.21067	8
0.21433	7
0.21800	8
0.22167	8
0.22533	8
0.22900	9
0.23267	9
0.23633	9
0.24000	8
0.24367	8
0.24733	6
0.25100	7
0.25467	8
0.25833	10
0.26200	11
0.26567	11
0.26933	13
0.27300	12
0.27667	10
0.28033	9
0.28400	8
0.28767	9
0.29133	12
0.29500	14
0.29867	13
0.30233	12
0.30600	12
0.30967	9
0.31333	7
0.31700	10
0.32067	15
0.32433	17
0.32800	19
0.33167	17
0.33533	13
0.33900	11
0.34267	12
0.34633	13
0.35000	13
0.35367	13
0.35733	14
0.36100	15
0.36467	15
0.36833	15
0.37200	15
0.37567	15
0.37933	14
0.38300	14
0.38667	15
0.39033	16
0.39400	17
0.39767	19
0.40133	22
0.40500	23
0.40867	23
0.41233	22
0.41600	21
0.41967	21
0.42333	20
0.42700	20
0.43067	20
0.43433	19
0.43800	17
0.44167	15
0.44533	15
0.44900	16
0.45267	17
0.45633	18
0.46000	18
0.46367	16
0.46733	17
0.47100	20
0.47467	20
0.47833	18
0.48200	17
0.48567	16
0.48933	16
0.49300	17
0.49667	18
0.50033	17
0.50400	15
0.50767	14
0.51133	15
0.51500	16
0.51867	17
0.52233	18
0.52600	19
0.52967	19
0.53333	17
0.53700	15
0.54067	17
0.54433	19
0.54800	20
0.55167	22
0.55533	20
0.55900	19
0.56267	19
0.56633	18
0.57000	18
0.57367	17
0.57733	18
0.58100	20
0.58467	19
0.58833	20
0.59200	20
0.59567	22
0.59933	21
0.60300	21
0.60667	22
0.61033	23
0.61400	24
0.61767	25
0.62133	26
0.62500	25
0.62867	24
0.63233	22
0.63600	19
0.63967	18
0.64333	19
0.64700	20
0.65067	22
0.65433	23
0.65800	23
0.66167	24
0.66533	24
0.66900	23
0.67267	22
0.67633	23
0.68000	23
0.68367	22
0.68733	20
0.69100	20
0.69467	20
0.69833	18
0.70200	17
0.70567	17
0.70933	17
0.71300	17
0.71667	19
0.72033	21
0.72400	20
0.72767	19
0.73133	19
0.73500	18
0.73867	18
0.74233	20
0.74600	22
0.74967	23
0.75333	21
0.75700	19
0.76067	20
0.76433	21
0.76800	22
0.77167	21
0.77533	20
0.77900	18
0.78267	18
0.78633	19
0.79000	20
0.79367	22
0.79733	23
0.80100	24
0.80467	24
0.80833	23
0.81200	22
0.81567	19
0.81933	19
0.82300	19
0.82667	20
0.83033	22
0.83400	23
0.83767	24
0.84133	26
0.84500	25
0.84867	24
0.85233	23
0.85600	23
0.85967	24
0.86333	26
0.86700	29
0.87067	32
0.87433	33
0.87800	32
0.88167	29
0.88533	27
0.88900	26
0.89267	25
0.89633	22
0.90000	20
0.90367	20
0.90733	23
0.91100	27
0.91467	28
0.91833	29
0.92200	31
0.92567	33
0.92933	31
0.93300	29
0.93667	29
0.94033	31
0.94400	32
0.94767	30
0.95133	28
0.95500	29
0.95867	28
0.96233	28
0.96600	30
0.96967	31
0.97333	31
0.97700	30
0.98067	30
0.98433	32
0.98800	33
0.99167	34
0.99533	36
0.99900	36
1.00267	33
1.00633	31
1.01000	30
1.01367	29
1.01733	31
1.02100	31
1.02467	29
1.02833	28
1.03200	28
1.03567	31
1.03933	33
1.04300	32
1.04667	31
1.05033	30
1.05400	28
1.05767	29
1.06133	30
1.06500	32
1.06867	31
1.07233	29
1.07600	28
1.07967	28
1.08333	28
1.08700	30
1.09067	33
1.09433	36
1.09800	37
1.10167	36
1.10533	34
1.10900	33
1.11267	32
1.11633	34
1.12000	36
1.12367	36
1.12733	33
1.13100	30
1.13467	29
1.13833	29
1.14200	30
1.14567	31
1.14933	31
1.15300	30
1.15667	31
1.16033	32
1.16400	32
1.16767	30
1.17133	30
1.17500	30
1.17867	31
1.18233	34
1.18600	38
1.18967	39
1.19333	38
1.19700	34
1.20067	33
1.20433	33
1.20800	31
1.21167	30
1.21533	31
1.21900	32
1.22267	30
1.22633	31
1.23000	33
1.23367	35
1.23733	34
1.24100	34
1.24467	34
1.24833	34
1.25200	34
1.25567	32
1.25933	34
1.26300	35
1.26667	35
1.27033	35
1.27400	34
1.27767	34
1.28133	35
1.28500	33
1.28867	31
1.29233	29
1.29600	30
1.29967	31
1.30333	31
1.30700	29
1.31067	29
1.31433	31
1.31800	33
1.32167	34
1.32533	35
1.32900	36
1.33267	34
1.33633	30
1.34000	29
1.34367	28
1.34733	27
1.35100	29
1.35467	33
1.35833	34
1.36200	32
1.36567	29
1.36933	27
1.37300	26
1.37667	27
1.38033	29
1.38400	32
1.38767	32
1.39133	32
1.39500	32
1.39867	31
1.40233	34
1.40600	34
1.40967	32
1.41333	34
1.41700	36
1.42067	35
1.42433	33
1.42800	32
1.43167	30
1.43533	31
1.43900	33
1.44267	32
1.44633	30
1.45000	30
1.45367	30
1.45733	32
1.46100	32
1.46467	32
1.46833	32
1.47200	35
1.47567	36
1.47933	35
1.48300	33
1.48667	32
1.49033	34
1.49400	33
1.49767	32
1.50133	31
1.50500	34
1.50867	35
1.51233	35
1.51600	33
1.51967	34
1.52333	35
1.52700	37
1.53067	36
1.53433	34
1.53800	34
1.54167	35
1.54533	37
1.54900	37
1.55267	36
1.55633	33
1.56000	32
1.56367	33
1.56733	31
1.57100	31
1.57467	31
1.57833	30
1.58200	29
1.58567	29
1.58933	31
1.59300	32
1.59667	31
1.60033	31
1.60400	32
1.60767	35
1.61133	36
1.61500	35
1.61867	33
1.62233	32
1.62600	34
1.62967	34
1.63333	35
1.63700	34
1.64067	33
1.64433	34
1.64800	37
1.65167	37
1.65533	39
1.65900	41
1.66267	41
1.66633	41
1.67000	40
1.67367	38
1.67733	38
1.68100	38
1.68467	36
1.68833	37
1.69200	39
1.69567	40
1.69933	40
1.70300	40
1.70667	41
1.71033	41
1.71400	43
1.71767	45
1.72133	48
1.72500	48
1.72867	47
1.73233	48
1.73600	47
1.73967	47
1.74333	49
1.74700	52
1.75067	54
1.75433	51
1.75800	49
1.76167	48
1.76533	50
1.76900	52
1.77267	54
1.77633	56
1.78000	55
1.78367	54
1.78733	53
1.79100	53
1.79467	55
1.79833	57
1.80200	59
1.80567	60
1.80933	64
1.81300	66
1.81667	66
1.82033	64
1.82400	64
1.82767	66
1.83133	69
1.83500	71
1.83867	70
1.84233	69
1.84600	68
1.84967	66
1.85333	66
1.85700	63
1.86067	61
1.86433	60
1.86800	61
1.87167	64
1.87533	66
1.87900	67
1.88267	69
1.88633	71
1.89000	71
1.89367	71
1.89733	72
1.90100	75
1.90467	76
1.90833	78
1.91200	78
1.91567	79
1.91933	80
1.92300	79
1.92667	77
1.93033	75
1.93400	77
1.93767	80
1.94133	82
1.94500	84
1.94867	86
1.95233	86
1.95600	86
1.95967	87
1.96333	87
1.96700	87
1.97067	88
1.97433	88
1.97800	88
1.98167	88
1.98533	90
1.98900	92
1.99267	94
1.99633	97
2.00000	98
2.00367	98
2.00733	97
2.01100	98
2.01467	100
2.01833	102
2.02200	102
2.02567	103
2.02933	105
2.03300	106
2.03667	108
2.04033	109
2.04400	109
2.04767	109
2.05133	108
2.05500	107
2.05867	106
2.06233	107
2.06600	107
2.06967	106
2.07333	106
2.07700	105
2.08067	105
2.08433	106
2.08800	107
2.09167	109
2.09533	110
2.09900	111
2.10267	112
2.10633	115
2.11000	115
2.11367	116
2.11733	119
2.12100	121
2.12467	121
2.12833	121
2.13200	121
2.13567	122
2.13933	123
2.14300	121
2.14667	119
2.15033	118
2.15400	118
2.15767	119
2.16133	122
2.16500	123
2.16867	125
2.17233	129
2.17600	131
2.17967	131
2.18333	130
2.18700	129
2.19067	129
2.19433	129
2.19800	130
2.20167	131
2.20533	134
2.20900	134
2.21267	135
2.21633	139
2.22000	142
2.22367	141
2.22733	139
2.23100	140
2.23467	142
2.23833	142
2.24200	141
2.24567	143
2.24933	145
2.25300	147
2.25667	148
2.26033	149
2.26400	151
2.26767	152
2.27133	151
2.27500	152
2.27867	154
2.28233	156
2.28600	158
2.28967	159
2.29333	158
2.29700	159
2.30067	161
2.30433	165
2.30800	167
2.31167	168
2.31533	167
2.31900	166
2.32267	167
2.32633	169
2.33000	168
2.33367	168
2.33733	171
2.34100	173
2.34467	174
2.34833	175
2.35200	176
2.35567	178
2.35933	178
2.36300	177
2.36667	177
2.37033	175
2.37400	175
2.37767	177
2.38133	180
2.38500	178
2.38867	177
2.39233	177
2.39600	177
2.39967	177
2.40333	176
2.40700	177
2.41067	179
2.41433	183
2.41800	183
2.42167	184
2.42533	183
2.42900	184
2.43267	185
2.43633	187
2.44000	188
2.44367	193
2.44733	210
2.45100	231
2.45467	249
2.45833	257
2.46200	259
2.46567	258
2.46933	256
2.47300	254
2.47667	251
2.48033	247
2.48400	241
2.48767	235
2.49133	230
2.49500	223
2.49867	216
2.50233	211
2.50600	209
2.50967	207
2.51333	206
2.51700	204
2.52067	202
2.52433	199
2.52800	195
2.53167	190
2.53533	186
2.53900	182
2.54267	179
2.54633	174
2.55000	171
2.55367	168
2.55733	166
2.56100	164
2.56467	162
2.56833	161
2.57200	159
2.57567	155
2.57933	152
2.58300	150
2.58667	150
2.59033	147
2.59400	143
2.59767	138
2.60133	130
2.60500	117
2.60867	96
2.61233	67
2.61600	32
2.61967	-6
2.62333	-45
2.62700	-82
2.63067	-117
2.63433	-149
2.63800	-178
2.64167	-199
2.64533	-211
2.64900	-217
2.65267	-220
2.65633	-218
2.66000	-215
2.66367	-210
2.66733	-205
2.67100	-199
2.67467	-189
2.67833	-178
2.68200	-168
2.68567	-158
2.68933	-145
2.69300	-131
2.69667	-117
2.70033	-105
2.70400	-99
2.70767	-91
2.71133	-82
2.71500	-75
2.71867	-68
2.72233	-62
2.72600	-55
2.72967	-48
2.73333	-41
2.73700	-33
2.74067	-26
2.74433	-22
2.74800	-18
2.75167	-13
2.75533	-9
2.75900	-5
2.76267	0
2.76633	5
2.77000	9
2.77367	14
2.77733	17
2.78100	18
2.78467	18
2.78833	19
2.79200	20
2.79567	23
2.79933	24
2.80300	24
2.80667	24
2.81033	25
2.81400	27
2.81767	29
2.82133	36
2.82500	58
2.82867	110
2.83233	221
2.83600	441
2.83967	839
2.84333	1481
2.84700	2421
2.85067	3681
2.85433	5238
2.85800	7023
2.86167	8930
2.86533	10816
2.86900	12541
2.87267	13976
2.87633	15019
2.88000	15619
2.88367	15776
2.88733	15532
2.89100	14959
2.89467	14138
2.89833	13153
2.90200	12077
2.90567	10972
2.90933	9883
2.91300	8837
2.91667	7858
2.92033	6956
2.92400	6134
2.92767	5390
2.93133	4722
2.93500	4127
2.93867	3601
2.94233	3138
2.94600	2733
2.94967	2382
2.95333	2076
2.95700	1807
2.96067	1572
2.96433	1369
2.96800	1191
2.97167	1037
2.97533	904
2.97900	788
2.98267	689
2.98633	603
2.99000	527
2.99367	461
2.99733	406
3.00100	359
3.00467	318
3.00833	283
3.01200	257
3.01567	233
3.01933	211
3.02300	190
3.02667	172
3.03033	158
3.03400	146
3.03767	135
3.04133	126
3.04500	121
3.04867	119
3.05233	117
3.05600	113
3.05967	108
3.06333	104
3.06700	100
3.07067	97
3.07433	96
3.07800	94
3.08167	91
3.08533	89
3.08900	87
3.09267	85
3.09633	84
3.10000	84
3.10367	84
3.10733	85
3.11100	86
3.11467	87
3.11833	87
3.12200	86
3.12567	86
3.12933	86
3.13300	87
3.13667	88
3.14033	88
3.14400	86
3.14767	84
3.15133	85
3.15500	88
3.15867	90
3.16233	90
3.16600	90
3.16967	91
3.17333	91
3.17700	90
3.18067	89
3.18433	87
3.18800	87
3.19167	87
3.19533	88
3.19900	89
3.20267	89
3.20633	90
3.21000	89
3.21367	88
3.21733	90
3.22100	90
3.22467	90
3.22833	89
3.23200	89
3.23567	89
3.23933	88
3.24300	84
3.24667	79
3.25033	75
3.25400	73
3.25767	72
3.26133	66
3.26500	60
3.26867	57
3.27233	58
3.27600	64
3.27967	73
3.28333	88
3.28700	105
3.29067	126
3.29433	147
3.29800	171
3.30167	193
3.30533	216
3.30900	237
3.31267	257
3.31633	277
3.32000	299
3.32367	321
3.32733	341
3.33100	362
3.33467	385
3.33833	407
3.34200	427
3.34567	442
3.34933	457
3.35300	471
3.35667	482
3.36033	493
3.36400	502
3.36767	511
3.37133	518
3.37500	525
3.37867	530
3.38233	531
3.38600	531
3.38967	531
3.39333	529
3.39700	528
3.40067	527
3.40433	524
3.40800	523
3.41167	522
3.41533	519
3.41900	517
3.42267	514
3.42633	512
3.43000	511
3.43367	510
3.43733	508
3.44100	509
3.44467	509
3.44833	512
3.45200	513
3.45567	514
3.45933	512
3.46300	511
3.46667	508
3.47033	507
3.47400	506
3.47767	504
3.48133	503
3.48500	504
3.48867	506
3.49233	504
3.49600	501
3.49967	500
3.50333	499
3.50700	499
3.51067	496
3.51433	494
3.51800	493
3.52167	492
3.52533	494
3.52900	496
3.53267	494
3.53633	493
3.54000	494
3.54367	494
3.54733	495
3.55100	496
3.55467	495
3.55833	492
3.56200	490
3.56567	488
3.56933	485
3.57300	484
3.57667	483
3.58033	480
3.58400	480
3.58767	481
3.59133	480
3.59500	478
3.59867	475
3.60233	472
3.60600	470
3.60967	468
3.61333	466
3.61700	464
3.62067	463
3.62433	460
3.62800	457
3.63167	453
3.63533	450
3.63900	448
3.64267	448
3.64633	447
3.65000	445
3.65367	443
3.65733	445
3.66100	446
3.66467	446
3.66833	444
3.67200	442
3.67567	440
3.67933	440
3.68300	440
3.68667	436
3.69033	431
3.69400	427
3.69767	425
3.70133	425
3.70500	424
3.70867	423
3.71233	422
3.71600	418
3.71967	414
3.72333	413
3.72700	412
3.73067	412
3.73433	413
3.73800	412
3.74167	411
3.74533	410
3.74900	407
3.75267	406
3.75633	403
3.76000	401
3.76367	401
3.76733	400
3.77100	397
3.77467	394
3.77833	392
3.78200	389
3.78567	386
3.78933	384
3.79300	386
3.79667	385
3.80033	381
3.80400	377
3.80767	373
3.81133	370
3.81500	369
3.81867	367
3.82233	367
3.82600	365
3.82967	366
3.83333	367
3.83700	364
3.84067	361
3.84433	359
3.84800	358
3.85167	357
3.85533	357
3.85900	359
3.86267	359
3.86633	354
3.87000	350
3.87367	347
3.87733	345
3.88100	342
3.88467	342
3.88833	342
3.89200	342
3.89567	339
3.89933	336
3.90300	334
3.90667	335
3.91033	336
3.91400	336
3.91767	336
3.92133	332
3.92500	328
3.92867	325
3.93233	324
3.93600	325
3.93967	325
3.94333	324
3.94700	325
3.95067	323
3.95433	320
3.95800	319
3.96167	318
3.96533	316
3.96900	313
3.97267	312
3.97633	311
3.98000	309
3.98367	309
3.98733	311
3.99100	312
3.99467	312
3.99833	309

[Status Trace (Column Oven Temperature)]
Interval(msec)	1000
# of Points	240
Start Time(min)	0.008
End Time(min)	3.991
Intensity Units	
Intensity Multiplier	1
R.Time (min)	Intensity
0.00762	35.02
0.02428	35.03
0.04095	35.04
0.05762	35.04
0.07428	35.04
0.09095	35.02
0.10762	35.00
0.12428	34.98
0.14095	34.99
0.15762	34.99
0.17428	35.00
0.19095	35.01
0.20762	35.02
0.22428	35.02
0.24095	35.00
0.25762	34.99
0.27428	34.97
0.29095	34.95
0.30762	34.95
0.32428	34.94
0.34095	34.94
0.35762	34.95
0.37428	34.95
0.39095	34.96
0.40762	34.99
0.42428	35.00
0.44095	35.00
0.45762	35.00
0.47428	35.00
0.49095	34.99
0.50762	35.00
0.52428	34.99
0.54095	34.97
0.55762	34.96
0.57428	34.95
0.59095	34.95
0.60762	34.94
0.62428	34.94
0.64095	34.95
0.65762	34.96
0.67428	34.97
0.69095	34.97
0.70762	34.98
0.72428	34.99
0.74095	34.99
0.75762	34.98
0.77428	34.98
0.79095	34.98
0.80762	34.98
0.82428	34.98
0.84095	34.98
0.85762	34.98
0.87428	34.98
0.89095	34.99
0.90762	34.99
0.92428	34.99
0.94095	34.99
0.95762	34.99
0.97428	34.99
0.99095	34.98
1.00762	34.98
1.02428	34.99
1.04095	35.00
1.05762	35.02
1.07428	35.02
1.09095	35.03
1.10762	35.03
1.12428	35.03
1.14095	35.02
1.15762	35.01
1.17428	35.00
1.19095	35.00
1.20762	35.00
1.22428	34.99
1.24095	34.98
1.25762	34.98
1.27428	34.98
1.29095	34.97
1.30762	34.97
1.32428	34.98
1.34095	34.99
1.35762	34.99
1.37428	34.99
1.39095	34.98
1.40762	34.97
1.42428	34.98
1.44095	34.98
1.45762	34.98
1.47428	34.98
1.49095	34.99
1.50762	34.98
1.52428	34.97
1.54095	34.97
1.55762	34.97
1.57428	34.97
1.59095	34.98
1.60762	35.04
1.62428	35.15
1.64095	35.35
1.65762	35.61
1.67428	35.96
1.69095	36.32
1.70762	36.67
1.72428	36.99
1.74095	37.33
1.75762	37.66
1.77428	37.99
1.79095	38.34
1.80762	38.67
1.82428	38.98
1.84095	39.32
1.85762	39.65
1.87428	39.98
1.89095	40.31
1.90762	40.64
1.92428	40.96
1.94095	41.30
1.95762	41.63
1.97428	41.97
1.99095	42.29
2.00762	42.60
2.02428	42.92
2.04095	43.26
2.05762	43.58
2.07428	43.92
2.09095	44.23
2.10762	44.55
2.12428	44.89
2.14095	45.21
2.15762	45.51
2.17428	45.84
2.19095	46.16
2.20762	46.49
2.22428	46.83
2.24095	47.13
2.25762	47.49
2.27428	47.84
2.29095	48.15
2.30762	48.49
2.32428	48.80
2.34095	49.14
2.35762	49.44
2.37428	49.62
2.39095	49.70
2.40762	49.69
2.42428	49.71
2.44095	49.72
2.45762	49.72
2.47428	49.72
2.49095	49.76
2.50762	49.77
2.52428	49.78
2.54095	49.78
2.55762	49.82
2.57428	49.81
2.59095	49.81
2.60762	49.82
2.62428	49.83
2.64095	49.84
2.65762	49.84
2.67428	49.85
2.69095	49.85
2.70762	49.85
2.72428	49.86
2.74095	49.84
2.75762	49.87
2.77428	49.90
2.79095	49.89
2.80762	49.88
2.82428	49.89
2.84095	49.89
2.85762	49.90
2.87428	49.91
2.89095	49.92
2.90762	49.92
2.92428	49.93
2.94095	49.95
2.95762	49.96
2.97428	49.97
2.99095	49.97
3.00762	49.99
3.02428	50.00
3.04095	50.01
3.05762	50.02
3.07428	50.03
3.09095	50.04
3.10762	50.06
3.12428	50.06
3.14095	50.07
3.15762	50.08
3.17428	50.08
3.19095	50.09
3.20762	50.11
3.22428	50.11
3.24095	50.10
3.25762	50.09
3.27428	50.08
3.29095	50.08
3.30762	50.07
3.32428	50.06
3.34095	50.04
3.35762	50.03
3.37428	50.03
3.39095	50.03
3.40762	50.03
3.42428	50.03
3.44095	50.04
3.45762	50.04
3.47428	50.04
3.49095	50.04
3.50762	50.05
3.52428	50.05
3.54095	50.06
3.55762	50.05
3.57428	50.05
3.59095	50.05
3.60762	50.06
3.62428	50.06
3.64095	50.06
3.65762	50.07
3.67428	50.06
3.69095	50.07
3.70762	50.07
3.72428	50.08
3.74095	50.08
3.75762	50.08
3.77428	50.06
3.79095	50.06
3.80762	50.07
3.82428	50.07
3.84095	50.08
3.85762	50.09
3.87428	50.08
3.89095	50.08
3.90762	50.08
3.92428	50.06
3.94095	50.07
3.95762	50.07
3.97428	50.07
3.99095	50.07

[Status Trace (Injection Unit Temperature)]
Interval(msec)	1000
# of Points	240
Start Time(min)	0.008
End Time(min)	3.991
Intensity Units	
Intensity Multiplier	1
R.Time (min)	Intensity
0.00762	99.97
0.02428	99.98
0.04095	99.98
0.05762	99.98
0.07428	99.98
0.09095	99.98
0.10762	99.98
0.12428	99.98
0.14095	99.98
0.15762	99.98
0.17428	99.98
0.19095	99.98
0.20762	99.98
0.22428	99.98
0.24095	99.98
0.25762	99.98
0.27428	99.98
0.29095	99.98
0.30762	99.98
0.32428	99.98
0.34095	99.98
0.35762	99.98
0.37428	99.98
0.39095	99.98
0.40762	99.98
0.42428	99.98
0.44095	99.98
0.45762	99.98
0.47428	99.98
0.49095	99.98
0.50762	99.98
0.52428	99.98
0.54095	99.98
0.55762	99.98
0.57428	99.98
0.59095	99.98
0.60762	99.98
0.62428	99.98
0.64095	99.98
0.65762	99.98
0.67428	99.98
0.69095	99.98
0.70762	99.99
0.72428	99.98
0.74095	99.98
0.75762	99.98
0.77428	99.98
0.79095	99.98
0.80762	99.98
0.82428	99.98
0.84095	99.98
0.85762	99.98
0.87428	99.98
0.89095	99.98
0.90762	99.98
0.92428	99.98
0.94095	99.98
0.95762	99.98
0.97428	99.98
0.99095	99.99
1.00762	99.98
1.02428	99.98
1.04095	99.98
1.05762	99.98
1.07428	99.99
1.09095	99.98
1.10762	99.98
1.12428	99.98
1.14095	99.98
1.15762	99.98
1.17428	99.98
1.19095	99.98
1.20762	99.99
1.22428	99.98
1.24095	99.98
1.25762	99.99
1.27428	99.98
1.29095	99.99
1.30762	99.98
1.32428	99.99
1.34095	99.99
1.35762	99.98
1.37428	99.99
1.39095	99.98
1.40762	99.98
1.42428	99.99
1.44095	99.99
1.45762	99.98
1.47428	99.98
1.49095	99.98
1.50762	99.98
1.52428	99.99
1.54095	99.98
1.55762	99.98
1.57428	99.98
1.59095	99.99
1.60762	99.98
1.62428	99.98
1.64095	99.98
1.65762	99.98
1.67428	99.99
1.69095	99.98
1.70762	99.98
1.72428	99.98
1.74095	99.98
1.75762	99.99
1.77428	99.98
1.79095	99.98
1.80762	99.98
1.82428	99.98
1.84095	99.98
1.85762	99.98
1.87428	99.98
1.89095	99.98
1.90762	99.98
1.92428	99.98
1.94095	99.99
1.95762	99.98
1.97428	99.98
1.99095	99.99
2.00762	99.98
2.02428	99.98
2.04095	99.98
2.05762	99.97
2.07428	99.98
2.09095	99.98
2.10762	99.98
2.12428	99.98
2.14095	99.97
2.15762	99.98
2.17428	99.98
2.19095	99.98
2.20762	99.97
2.22428	99.97
2.24095	99.97
2.25762	99.98
2.27428	99.97
2.29095	99.97
2.30762	99.97
2.32428	99.97
2.34095	99.97
2.35762	99.97
2.37428	99.97
2.39095	99.97
2.40762	99.97
2.42428	99.97
2.44095	99.97
2.45762	99.97
2.47428	99.97
2.49095	99.97
2.50762	99.97
2.52428	99.97
2.54095	99.97
2.55762	99.97
2.57428	99.97
2.59095	99.97
2.60762	99.98
2.62428	99.97
2.64095	99.98
2.65762	99.98
2.67428	99.98
2.69095	99.98
2.70762	99.98
2.72428	99.98
2.74095	99.98
2.75762	99.98
2.77428	99.98
2.79095	99.98
2.80762	99.98
2.82428	99.99
2.84095	99.98
2.85762	99.99
2.87428	99.99
2.89095	99.99
2.90762	99.99
2.92428	99.99
2.94095	99.99
2.95762	100.00
2.97428	100.00
2.99095	100.00
3.00762	100.00
3.02428	100.01
3.04095	100.01
3.05762	100.01
3.07428	100.00
3.09095	100.01
3.10762	100.01
3.12428	100.01
3.14095	100.02
3.15762	100.02
3.17428	100.02
3.19095	100.02
3.20762	100.02
3.22428	100.02
3.24095	100.02
3.25762	100.02
3.27428	100.02
3.29095	100.02
3.30762	100.02
3.32428	100.02
3.34095	100.02
3.35762	100.02
3.37428	100.03
3.39095	100.03
3.40762	100.03
3.42428	100.03
3.44095	100.03
3.45762	100.03
3.47428	100.03
3.49095	100.03
3.50762	100.02
3.52428	100.03
3.54095	100.03
3.55762	100.03
3.57428	100.03
3.59095	100.03
3.60762	100.04
3.62428	100.03
3.64095	100.04
3.65762	100.04
3.67428	100.04
3.69095	100.04
3.70762	100.04
3.72428	100.04
3.74095	100.04
3.75762	100.04
3.77428	100.04
3.79095	100.04
3.80762	100.05
3.82428	100.04
3.84095	100.04
3.85762	100.04
3.87428	100.04
3.89095	100.04
3.90762	100.05
3.92428	100.05
3.94095	100.05
3.95762	100.04
3.97428	100.05
3.99095	100.05

[Status Trace (Carrier Gas Pressure)]
Interval(msec)	1000
# of Points	240
Start Time(min)	0.008
End Time(min)	3.991
Intensity Units	
Intensity Multiplier	1
R.Time (min)	Intensity
0.00762	58.00
0.02428	55.47
0.04095	57.03
0.05762	59.22
0.07428	59.54
0.09095	58.08
0.10762	57.98
0.12428	58.01
0.14095	58.01
0.15762	58.01
0.17428	58.00
0.19095	58.00
0.20762	58.00
0.22428	58.00
0.24095	58.00
0.25762	58.00
0.27428	58.00
0.29095	58.00
0.30762	58.00
0.32428	58.00
0.34095	58.00
0.35762	58.00
0.37428	58.00
0.39095	58.00
0.40762	58.00
0.42428	58.00
0.44095	58.00
0.45762	58.00
0.47428	58.00
0.49095	58.00
0.50762	58.00
0.52428	58.00
0.54095	58.00
0.55762	58.00
0.57428	58.00
0.59095	58.00
0.60762	58.00
0.62428	58.00
0.64095	58.00
0.65762	58.00
0.67428	58.00
0.69095	58.00
0.70762	58.00
0.72428	58.00
0.74095	58.00
0.75762	58.00
0.77428	58.00
0.79095	58.00
0.80762	58.00
0.82428	58.00
0.84095	58.00
0.85762	58.00
0.87428	58.00
0.89095	58.00
0.90762	58.00
0.92428	58.00
0.94095	58.00
0.95762	58.00
0.97428	58.00
0.99095	58.00
1.00762	58.00
1.02428	58.00
1.04095	58.00
1.05762	58.00
1.07428	58.00
1.09095	58.00
1.10762	58.00
1.12428	58.00
1.14095	58.00
1.15762	58.00
1.17428	58.00
1.19095	58.00
1.20762	58.00
1.22428	58.00
1.24095	58.00
1.25762	58.00
1.27428	58.00
1.29095	58.00
1.30762	58.00
1.32428	58.00
1.34095	58.00
1.35762	58.00
1.37428	58.00
1.39095	58.00
1.40762	58.00
1.42428	58.00
1.44095	58.00
1.45762	58.00
1.47428	58.00
1.49095	58.00
1.50762	58.00
1.52428	58.00
1.54095	58.00
1.55762	58.00
1.57428	58.00
1.59095	58.00
1.60762	58.00
1.62428	58.00
1.64095	58.01
1.65762	58.00
1.67428	58.01
1.69095	58.00
1.70762	58.00
1.72428	58.00
1.74095	58.00
1.75762	58.00
1.77428	58.00
1.79095	58.00
1.80762	58.00
1.82428	58.00
1.84095	58.00
1.85762	58.00
1.87428	58.00
1.89095	58.00
1.90762	58.00
1.92428	58.00
1.94095	58.00
1.95762	58.00
1.97428	58.00
1.99095	58.00
2.00762	58.00
2.02428	58.00
2.04095	58.00
2.05762	58.00
2.07428	58.00
2.09095	58.00
2.10762	58.00
2.12428	58.00
2.14095	58.00
2.15762	58.00
2.17428	58.00
2.19095	58.00
2.20762	58.00
2.22428	58.00
2.24095	58.00
2.25762	58.00
2.27428	58.00
2.29095	58.00
2.30762	58.00
2.32428	58.00
2.34095	58.00
2.35762	58.00
2.37428	58.00
2.39095	57.99
2.40762	57.99
2.42428	58.00
2.44095	58.00
2.45762	58.00
2.47428	58.00
2.49095	58.00
2.50762	57.99
2.52428	57.98
2.54095	58.00
2.55762	58.00
2.57428	58.00
2.59095	58.00
2.60762	58.00
2.62428	58.00
2.64095	58.00
2.65762	58.00
2.67428	58.00
2.69095	58.00
2.70762	58.00
2.72428	58.00
2.74095	58.00
2.75762	58.00
2.77428	58.00
2.79095	58.00
2.80762	58.00
2.82428	58.00
2.84095	58.00
2.85762	58.00
2.87428	58.00
2.89095	58.00
2.90762	58.00
2.92428	58.00
2.94095	58.00
2.95762	58.00
2.97428	58.00
2.99095	58.00
3.00762	58.00
3.02428	58.00
3.04095	58.00
3.05762	58.00
3.07428	58.00
3.09095	58.00
3.10762	58.00
3.12428	58.00
3.14095	58.00
3.15762	58.00
3.17428	58.00
3.19095	58.00
3.20762	58.00
3.22428	58.00
3.24095	58.00
3.25762	58.00
3.27428	58.00
3.29095	58.00
3.30762	58.00
3.32428	58.00
3.34095	58.00
3.35762	58.00
3.37428	58.00
3.39095	58.00
3.40762	58.00
3.42428	58.00
3.44095	58.00
3.45762	58.00
3.47428	58.00
3.49095	58.00
3.50762	58.00
3.52428	58.00
3.54095	58.00
3.55762	58.00
3.57428	58.00
3.59095	58.00
3.60762	58.00
3.62428	58.00
3.64095	58.00
3.65762	58.00
3.67428	58.00
3.69095	58.00
3.70762	58.00
3.72428	58.00
3.74095	58.00
3.75762	58.00
3.77428	58.00
3.79095	58.00
3.80762	58.00
3.82428	58.00
3.84095	58.00
3.85762	58.00
3.87428	58.00
3.89095	58.00
3.90762	58.00
3.92428	58.00
3.94095	58.00
3.95762	58.00
3.97428	58.00
3.99095	58.00

[Status Trace (Carrier Gas Flow)]
Interval(msec)	1000
# of Points	240
Start Time(min)	0.008
End Time(min)	3.991
Intensity Units	
Intensity Multiplier	1
R.Time (min)	Intensity
0.00762	34.51
0.02428	34.54
0.04095	34.55
0.05762	34.55
0.07428	34.49
0.09095	34.51
0.10762	34.52
0.12428	34.52
0.14095	34.52
0.15762	34.52
0.17428	34.52
0.19095	34.51
0.20762	34.51
0.22428	34.52
0.24095	34.52
0.25762	34.52
0.27428	34.52
0.29095	34.52
0.30762	34.52
0.32428	34.52
0.34095	34.52
0.35762	34.52
0.37428	34.52
0.39095	34.52
0.40762	34.52
0.42428	34.52
0.44095	34.52
0.45762	34.52
0.47428	34.52
0.49095	34.52
0.50762	34.52
0.52428	34.52
0.54095	34.52
0.55762	34.52
0.57428	34.52
0.59095	34.52
0.60762	34.52
0.62428	34.52
0.64095	34.52
0.65762	34.52
0.67428	34.52
0.69095	34.52
0.70762	34.52
0.72428	34.52
0.74095	34.52
0.75762	34.52
0.77428	34.52
0.79095	34.52
0.80762	34.52
0.82428	34.52
0.84095	34.52
0.85762	34.52
0.87428	34.52
0.89095	34.52
0.90762	34.52
0.92428	34.52
0.94095	34.52
0.95762	34.52
0.97428	34.52
0.99095	34.52
1.00762	34.52
1.02428	34.52
1.04095	34.52
1.05762	34.52
1.07428	34.52
1.09095	34.52
1.10762	34.52
1.12428	34.52
1.14095	34.52
1.15762	34.52
1.17428	34.52
1.19095	34.52
1.20762	34.52
1.22428	34.52
1.24095	34.52
1.25762	34.52
1.27428	34.52
1.29095	34.52
1.30762	34.52
1.32428	34.52
1.34095	34.52
1.35762	34.52
1.37428	34.52
1.39095	34.52
1.40762	34.52
1.42428	34.52
1.44095	34.52
1.45762	34.52
1.47428	34.52
1.49095	34.52
1.50762	34.52
1.52428	34.52
1.54095	34.52
1.55762	34.52
1.57428	34.52
1.59095	34.52
1.60762	34.52
1.62428	34.52
1.64095	34.52
1.65762	34.52
1.67428	34.52
1.69095	34.52
1.70762	34.52
1.72428	34.52
1.74095	34.52
1.75762	34.52
1.77428	34.52
1.79095	34.52
1.80762	34.52
1.82428	34.52
1.84095	34.52
1.85762	34.52
1.87428	34.52
1.89095	34.52
1.90762	34.52
1.92428	34.52
1.94095	34.52
1.95762	34.52
1.97428	34.52
1.99095	34.52
2.00762	34.52
2.02428	34.52
2.04095	34.52
2.05762	34.52
2.07428	34.52
2.09095	34.52
2.10762	34.52
2.12428	34.52
2.14095	34.52
2.15762	34.52
2.17428	34.52
2.19095	34.52
2.20762	34.52
2.22428	34.52
2.24095	34.52
2.25762	34.52
2.27428	34.52
2.29095	34.52
2.30762	34.52
2.32428	34.52
2.34095	34.52
2.35762	34.52
2.37428	34.52
2.39095	34.53
2.40762	34.52
2.42428	34.52
2.44095	34.52
2.45762	34.52
2.47428	34.52
2.49095	34.52
2.50762	34.39
2.52428	34.52
2.54095	34.52
2.55762	34.52
2.57428	34.52
2.59095	34.52
2.60762	34.52
2.62428	34.52
2.64095	34.52
2.65762	34.52
2.67428	34.52
2.69095	34.52
2.70762	34.52
2.72428	34.52
2.74095	34.52
2.75762	34.52
2.77428	34.52
2.79095	34.52
2.80762	34.52
2.82428	34.52
2.84095	34.52
2.85762	34.52
2.87428	34.52
2.89095	34.52
2.90762	34.52
2.92428	34.52
2.94095	34.52
2.95762	34.52
2.97428	34.51
2.99095	34.51
3.00762	34.52
3.02428	34.52
3.04095	34.52
3.05762	34.52
3.07428	34.52
3.09095	34.52
3.10762	34.52
3.12428	34.51
3.14095	34.52
3.15762	34.52
3.17428	34.52
3.19095	34.52
3.20762	34.52
3.22428	34.52
3.24095	34.52
3.25762	34.52
3.27428	34.52
3.29095	34.52
3.30762	34.52
3.32428	34.52
3.34095	34.52
3.35762	34.52
3.37428	34.52
3.39095	34.52
3.40762	34.52
3.42428	34.52
3.44095	34.52
3.45762	34.52
3.47428	34.52
3.49095	34.52
3.50762	34.52
3.52428	34.52
3.54095	34.52
3.55762	34.52
3.57428	34.52
3.59095	34.52
3.60762	34.52
3.62428	34.52
3.64095	34.52
3.65762	34.52
3.67428	34.52
3.69095	34.52
3.70762	34.52
3.72428	34.52
3.74095	34.52
3.75762	34.52
3.77428	34.52
3.79095	34.52
3.80762	34.52
3.82428	34.52
3.84095	34.52
3.85762	34.52
3.87428	34.52
3.89095	34.51
3.90762	34.52
3.92428	34.52
3.94095	34.52
3.95762	34.51
3.97428	34.52
3.99095	34.52

[Status Trace (Column Flow)]
Interval(msec)	1000
# of Points	240
Start Time(min)	0.008
End Time(min)	3.991
Intensity Units	
Intensity Multiplier	1
R.Time (min)	Intensity
0.00762	5.50
0.02428	5.21
0.04095	5.39
0.05762	5.64
0.07428	5.68
0.09095	5.51
0.10762	5.50
0.12428	5.51
0.14095	5.50
0.15762	5.50
0.17428	5.50
0.19095	5.50
0.20762	5.50
0.22428	5.50
0.24095	5.50
0.25762	5.50
0.27428	5.50
0.29095	5.50
0.30762	5.51
0.32428	5.51
0.34095	5.51
0.35762	5.50
0.37428	5.50
0.39095	5.50
0.40762	5.50
0.42428	5.50
0.44095	5.50
0.45762	5.50
0.47428	5.50
0.49095	5.50
0.50762	5.50
0.52428	5.50
0.54095	5.50
0.55762	5.50
0.57428	5.50
0.59095	5.51
0.60762	5.51
0.62428	5.51
0.64095	5.50
0.65762	5.50
0.67428	5.50
0.69095	5.50
0.70762	5.50
0.72428	5.50
0.74095	5.50
0.75762	5.50
0.77428	5.50
0.79095	5.50
0.80762	5.50
0.82428	5.50
0.84095	5.50
0.85762	5.50
0.87428	5.50
0.89095	5.50
0.90762	5.50
0.92428	5.50
0.94095	5.50
0.95762	5.50
0.97428	5.50
0.99095	5.50
1.00762	5.50
1.02428	5.50
1.04095	5.50
1.05762	5.50
1.07428	5.50
1.09095	5.50
1.10762	5.50
1.12428	5.50
1.14095	5.50
1.15762	5.50
1.17428	5.50
1.19095	5.50
1.20762	5.50
1.22428	5.50
1.24095	5.50
1.25762	5.50
1.27428	5.50
1.29095	5.50
1.30762	5.50
1.32428	5.50
1.34095	5.50
1.35762	5.50
1.37428	5.50
1.39095	5.50
1.40762	5.50
1.42428	5.50
1.44095	5.50
1.45762	5.50
1.47428	5.50
1.49095	5.50
1.50762	5.50
1.52428	5.50
1.54095	5.50
1.55762	5.50
1.57428	5.50
1.59095	5.50
1.60762	5.50
1.62428	5.50
1.64095	5.49
1.65762	5.48
1.67428	5.47
1.69095	5.46
1.70762	5.45
1.72428	5.44
1.74095	5.43
1.75762	5.42
1.77428	5.41
1.79095	5.40
1.80762	5.39
1.82428	5.38
1.84095	5.37
1.85762	5.36
1.87428	5.35
1.89095	5.34
1.90762	5.33
1.92428	5.32
1.94095	5.31
1.95762	5.30
1.97428	5.29
1.99095	5.28
2.00762	5.27
2.02428	5.26
2.04095	5.25
2.05762	5.24
2.07428	5.23
2.09095	5.22
2.10762	5.22
2.12428	5.21
2.14095	5.20
2.15762	5.19
2.17428	5.18
2.19095	5.17
2.20762	5.16
2.22428	5.15
2.24095	5.14
2.25762	5.13
2.27428	5.12
2.29095	5.11
2.30762	5.10
2.32428	5.09
2.34095	5.09
2.35762	5.08
2.37428	5.07
2.39095	5.07
2.40762	5.07
2.42428	5.07
2.44095	5.07
2.45762	5.07
2.47428	5.07
2.49095	5.07
2.50762	5.07
2.52428	5.07
2.54095	5.07
2.55762	5.07
2.57428	5.07
2.59095	5.07
2.60762	5.07
2.62428	5.07
2.64095	5.07
2.65762	5.07
2.67428	5.07
2.69095	5.07
2.70762	5.07
2.72428	5.07
2.74095	5.07
2.75762	5.07
2.77428	5.06
2.79095	5.06
2.80762	5.06
2.82428	5.06
2.84095	5.06
2.85762	5.06
2.87428	5.06
2.89095	5.06
2.90762	5.06
2.92428	5.06
2.94095	5.06
2.95762	5.06
2.97428	5.06
2.99095	5.06
3.00762	5.06
3.02428	5.06
3.04095	5.06
3.05762	5.06
3.07428	5.06
3.09095	5.06
3.10762	5.06
3.12428	5.06
3.14095	5.06
3.15762	5.06
3.17428	5.06
3.19095	5.06
3.20762	5.06
3.22428	5.06
3.24095	5.06
3.25762	5.06
3.27428	5.06
3.29095	5.06
3.30762	5.06
3.32428	5.06
3.34095	5.06
3.35762	5.06
3.37428	5.06
3.39095	5.06
3.40762	5.06
3.42428	5.06
3.44095	5.06
3.45762	5.06
3.47428	5.06
3.49095	5.06
3.50762	5.06
3.52428	5.06
3.54095	5.06
3.55762	5.06
3.57428	5.06
3.59095	5.06
3.60762	5.06
3.62428	5.06
3.64095	5.06
3.65762	5.06
3.67428	5.06
3.69095	5.06
3.70762	5.06
3.72428	5.06
3.74095	5.06
3.75762	5.06
3.77428	5.06
3.79095	5.06
3.80762	5.06
3.82428	5.06
3.84095	5.06
3.85762	5.06
3.87428	5.06
3.89095	5.06
3.90762	5.06
3.92428	5.06
3.94095	5.06
3.95762	5.06
3.97428	5.06
3.99095	5.06

[Status Trace (Linear Velocity)]
Interval(msec)	1000
# of Points	240
Start Time(min)	0.008
End Time(min)	3.991
Intensity Units	
Intensity Multiplier	1
R.Time (min)	Intensity
0.00762	39.01
0.02428	37.35
0.04095	38.37
0.05762	39.81
0.07428	40.01
0.09095	39.06
0.10762	39.00
0.12428	39.02
0.14095	39.02
0.15762	39.02
0.17428	39.01
0.19095	39.01
0.20762	39.01
0.22428	39.01
0.24095	39.01
0.25762	39.01
0.27428	39.02
0.29095	39.02
0.30762	39.02
0.32428	39.02
0.34095	39.02
0.35762	39.02
0.37428	39.02
0.39095	39.02
0.40762	39.01
0.42428	39.01
0.44095	39.01
0.45762	39.01
0.47428	39.01
0.49095	39.01
0.50762	39.01
0.52428	39.01
0.54095	39.01
0.55762	39.02
0.57428	39.02
0.59095	39.02
0.60762	39.02
0.62428	39.02
0.64095	39.02
0.65762	39.02
0.67428	39.02
0.69095	39.02
0.70762	39.01
0.72428	39.01
0.74095	39.01
0.75762	39.01
0.77428	39.01
0.79095	39.01
0.80762	39.01
0.82428	39.01
0.84095	39.01
0.85762	39.01
0.87428	39.01
0.89095	39.01
0.90762	39.01
0.92428	39.01
0.94095	39.01
0.95762	39.01
0.97428	39.01
0.99095	39.01
1.00762	39.01
1.02428	39.01
1.04095	39.01
1.05762	39.01
1.07428	39.01
1.09095	39.01
1.10762	39.01
1.12428	39.01
1.14095	39.01
1.15762	39.01
1.17428	39.01
1.19095	39.01
1.20762	39.01
1.22428	39.01
1.24095	39.01
1.25762	39.01
1.27428	39.01
1.29095	39.02
1.30762	39.02
1.32428	39.01
1.34095	39.01
1.35762	39.01
1.37428	39.01
1.39095	39.01
1.40762	39.02
1.42428	39.01
1.44095	39.01
1.45762	39.01
1.47428	39.01
1.49095	39.01
1.50762	39.01
1.52428	39.02
1.54095	39.01
1.55762	39.02
1.57428	39.02
1.59095	39.02
1.60762	39.01
1.62428	39.00
1.64095	38.98
1.65762	38.96
1.67428	38.92
1.69095	38.89
1.70762	38.85
1.72428	38.82
1.74095	38.79
1.75762	38.76
1.77428	38.73
1.79095	38.69
1.80762	38.66
1.82428	38.63
1.84095	38.60
1.85762	38.57
1.87428	38.54
1.89095	38.51
1.90762	38.48
1.92428	38.45
1.94095	38.42
1.95762	38.39
1.97428	38.35
1.99095	38.32
2.00762	38.30
2.02428	38.27
2.04095	38.24
2.05762	38.21
2.07428	38.17
2.09095	38.15
2.10762	38.12
2.12428	38.09
2.14095	38.06
2.15762	38.03
2.17428	38.00
2.19095	37.97
2.20762	37.94
2.22428	37.91
2.24095	37.88
2.25762	37.85
2.27428	37.82
2.29095	37.79
2.30762	37.76
2.32428	37.73
2.34095	37.71
2.35762	37.68
2.37428	37.66
2.39095	37.65
2.40762	37.65
2.42428	37.65
2.44095	37.65
2.45762	37.65
2.47428	37.65
2.49095	37.65
2.50762	37.64
2.52428	37.63
2.54095	37.65
2.55762	37.65
2.57428	37.64
2.59095	37.64
2.60762	37.64
2.62428	37.64
2.64095	37.64
2.65762	37.64
2.67428	37.64
2.69095	37.64
2.70762	37.64
2.72428	37.64
2.74095	37.64
2.75762	37.64
2.77428	37.64
2.79095	37.64
2.80762	37.64
2.82428	37.64
2.84095	37.64
2.85762	37.64
2.87428	37.64
2.89095	37.64
2.90762	37.64
2.92428	37.63
2.94095	37.63
2.95762	37.63
2.97428	37.63
2.99095	37.63
3.00762	37.63
3.02428	37.63
3.04095	37.63
3.05762	37.63
3.07428	37.63
3.09095	37.62
3.10762	37.62
3.12428	37.62
3.14095	37.62
3.15762	37.62
3.17428	37.62
3.19095	37.62
3.20762	37.62
3.22428	37.62
3.24095	37.62
3.25762	37.62
3.27428	37.62
3.29095	37.62
3.30762	37.62
3.32428	37.62
3.34095	37.62
3.35762	37.63
3.37428	37.63
3.39095	37.63
3.40762	37.63
3.42428	37.63
3.44095	37.63
3.45762	37.62
3.47428	37.63
3.49095	37.62
3.50762	37.62
3.52428	37.62
3.54095	37.62
3.55762	37.62
3.57428	37.62
3.59095	37.62
3.60762	37.62
3.62428	37.62
3.64095	37.62
3.65762	37.62
3.67428	37.62
3.69095	37.62
3.70762	37.62
3.72428	37.62
3.74095	37.62
3.75762	37.62
3.77428	37.62
3.79095	37.62
3.80762	37.62
3.82428	37.62
3.84095	37.62
3.85762	37.62
3.87428	37.62
3.89095	37.62
3.90762	37.62
3.92428	37.62
3.94095	37.62
3.95762	37.62
3.97428	37.62
3.99095	37.62

