[Header]
Application Name	LabSolutions
Version	5.110
Data File Name	C:\Users\User\Desktop\GC Analyses\Jack\UIC Prairie Sampling\9.2.22\220902_077.gcd
Output Date	10/28/2022
Output Time	1:23:56 PM

[File Information]
Type	Data File
Generated	10/27/2022 1:04:52 PM
Generated by	System Administrator
Modified	10/27/2022 1:09:30 PM
Modified by	System Administrator

[Sample Information]
Operator Name	System Administrator
Acquired	10/27/2022 1:05:30 PM
Sample Type	1:Standard
Level	1
Sample Name	220902_UICPrairie
Sample ID	220902_UICPrairie
ISTD Amount1	1
ISTD Amount2	1
ISTD Amount3	1
ISTD Amount4	1
ISTD Amount5	1
ISTD Amount6	1
ISTD Amount7	1
ISTD Amount8	1
ISTD Amount9	1
ISTD Amount10	1
ISTD Amount11	1
ISTD Amount12	1
ISTD Amount13	1
ISTD Amount14	1
ISTD Amount15	1
ISTD Amount16	1
ISTD Amount17	1
ISTD Amount18	1
ISTD Amount19	1
ISTD Amount20	1
ISTD Amount21	1
ISTD Amount22	1
ISTD Amount23	1
ISTD Amount24	1
ISTD Amount25	1
ISTD Amount26	1
ISTD Amount27	1
ISTD Amount28	1
ISTD Amount29	1
ISTD Amount30	1
ISTD Amount31	1
ISTD Amount32	1
Sample Amount	1
Dilution Factor	1
Vial#	1
Injection Volume	1
Injection Count	1
Bar Code	

[Original Files]
Data File	C:\Users\User\Desktop\GC Analyses\Jack\UIC Prairie Sampling\9.2.22\220902_077.gcd
Method File	C:\LabSolutions\Data\GHG_4min_2022\ghg3_togas_w_acet_4 min_new_int.gcm
Batch File	
Report Format File	c:\LabSolutions\System\DEFAULT.lsr

[File Description]


[Configuration]
Instrument Name	C0B7VH3-Instrument1
Instrument #	1
Line #	1
# of Detectors	3
Detector ID	DET#1	DET#2	DET#3
Detector Name	FID	PTCD	ECD
# of Channels	1	1	1

[Peak Table(Ch1)]
# of Peaks	3
Peak#	R.Time	I.Time	F.Time	Area	Height	A/H	Conc.	Mark	ID#	Name	k'	Plate #	Plate Ht.	Tailing	Resolution	Sep.Factor	Area Ratio	Height Ratio	Conc. %	Norm Conc.
1	1.476	1.435	1.538	12953	5722	2.264	100.000	   	1	CO	0.000	8315	18.041	1.253	0.000	0.000	0	0	16.667	16.667
2	1.571	1.538	1.622	4580	2280	2.008	100.000	 V 	2	CH4	0.065	11098	13.516	1.058	1.533	0.000	0	0	16.667	16.667
3	1.996	1.949	2.352	1804098	869957	2.074	400.000	   	3	CO2	0.353	17537	8.553	1.303	7.092	5.462	0	0	66.667	66.667

[Peak Table(Ch2)]
# of Peaks	0

[Peak Table(Ch3)]
# of Peaks	3
Peak#	R.Time	I.Time	F.Time	Area	Height	A/H	Conc.	Mark	ID#	Name	k'	Plate #	Plate Ht.	Tailing	Resolution	Sep.Factor	Area Ratio	Height Ratio	Conc. %	Norm Conc.
1	2.458	2.136	2.572	5072	376	13.487	0.000	   			0.000	156	963.013	0.000	0.000	0.000	0	0	0.000	0.000
2	2.594	2.572	2.649	879	288	3.053	0.000	 V 			0.055	96	1559.808	0.000	0.147	0.000	0	0	0.000	0.000
3	2.884	2.660	3.965	38611	5310	7.271	1.000	   	1	N2O	0.173	12014	12.485	5.938	0.498	3.135	0	0	100.000	100.000

[Compound Results(Ch1)]
# of IDs	6
ID#	Name	R.Time	Area	Height	Conc.	Curve	3rd	2nd	1st	Constant	Area Ratio	Height Ratio	Conc. %	Norm Conc.
1	CO	1.476	12953	5722	100.000	Linear	0.000000e+00	0.000000e+00	1.295308e+002	0.000000e+00	0	0	16.667	16.667
2	CH4	1.571	4580	2280	100.000	Linear	0.000000e+00	0.000000e+00	4.580051e+001	0.000000e+00	0	0	16.667	16.667
3	CO2	1.996	1804098	869957	400.000	Linear	0.000000e+00	0.000000e+00	4.510245e+003	0.000000e+00	0	0	66.667	66.667
4	Ethylene	0.000	0	0	0.000	Linear	0.000000e+00	0.000000e+00	0.000000e+00	0.000000e+00	0	0	0.000	0.000
5	Acetylene	0.000	0	0	0.000	Linear	0.000000e+00	0.000000e+00	0.000000e+00	0.000000e+00	0	0	0.000	0.000
6	Ethane	0.000	0	0	0.000	Linear	0.000000e+00	0.000000e+00	0.000000e+00	0.000000e+00	0	0	0.000	0.000

[Compound Results(Ch2)]
# of IDs	5
ID#	Name	R.Time	Area	Height	Conc.	Curve	3rd	2nd	1st	Constant	Area Ratio	Height Ratio	Conc. %	Norm Conc.
1	Hydrogen	0.000	0	0	0.000	Linear	0.000000e+00	0.000000e+00	0.000000e+00	0.000000e+00	0	0	0.000	0.000
2	Oxygen	0.000	0	0	0.000	Linear	0.000000e+00	0.000000e+00	0.000000e+00	0.000000e+00	0	0	0.000	0.000
3	Nitrogen	0.000	0	0	0.000	Linear	0.000000e+00	0.000000e+00	0.000000e+00	0.000000e+00	0	0	0.000	0.000
4	Methane	0.000	0	0	0.000	Linear	0.000000e+00	0.000000e+00	0.000000e+00	0.000000e+00	0	0	0.000	0.000
5	Carbon Monoxide	0.000	0	0	0.000	Linear	0.000000e+00	0.000000e+00	0.000000e+00	0.000000e+00	0	0	0.000	0.000

[Compound Results(Ch3)]
# of IDs	2
ID#	Name	R.Time	Area	Height	Conc.	Curve	3rd	2nd	1st	Constant	Area Ratio	Height Ratio	Conc. %	Norm Conc.
1	N2O	2.884	38611	5310	1.000	Linear	0.000000e+00	0.000000e+00	3.861108e+004	0.000000e+00	0	0	100.000	100.000
2	SF6	0.000	0	0	0.000	Linear	0.000000e+00	0.000000e+00	0.000000e+00	0.000000e+00	0	0	0.000	0.000

[Group Results(Ch1)]
# of Groups	0

[Group Results(Ch2)]
# of Groups	0

[Group Results(Ch3)]
# of Groups	0

[Chromatogram (Ch1)]
Interval(msec)	220
# of Points	1091
Start Time(min)	0.002
End Time(min)	3.998
R.Time (min)	Intensity
0.00167	25
0.00533	28
0.00900	27
0.01267	20
0.01633	7
0.02000	-8
0.02367	-23
0.02733	-33
0.03100	-42
0.03467	-48
0.03833	-49
0.04200	-43
0.04567	-35
0.04933	-27
0.05300	-22
0.05667	-19
0.06033	-19
0.06400	-19
0.06767	-20
0.07133	-20
0.07500	-17
0.07867	-13
0.08233	-9
0.08600	-4
0.08967	-3
0.09333	-6
0.09700	-9
0.10067	-10
0.10433	-11
0.10800	-14
0.11167	-18
0.11533	-23
0.11900	-25
0.12267	-26
0.12633	-26
0.13000	-25
0.13367	-26
0.13733	-29
0.14100	-30
0.14467	-31
0.14833	-28
0.15200	-18
0.15567	-6
0.15933	-4
0.16300	-11
0.16667	-19
0.17033	-28
0.17400	-37
0.17767	-43
0.18133	-46
0.18500	-45
0.18867	-42
0.19233	-41
0.19600	-39
0.19967	-31
0.20333	-22
0.20700	-17
0.21067	-17
0.21433	-21
0.21800	-23
0.22167	-26
0.22533	-29
0.22900	-32
0.23267	-32
0.23633	-33
0.24000	-35
0.24367	-34
0.24733	-30
0.25100	-23
0.25467	-18
0.25833	-19
0.26200	-22
0.26567	-25
0.26933	-27
0.27300	-33
0.27667	-40
0.28033	-45
0.28400	-47
0.28767	-45
0.29133	-39
0.29500	-32
0.29867	-28
0.30233	-25
0.30600	-23
0.30967	-20
0.31333	-19
0.31700	-22
0.32067	-27
0.32433	-32
0.32800	-34
0.33167	-34
0.33533	-31
0.33900	-26
0.34267	-23
0.34633	-22
0.35000	-25
0.35367	-35
0.35733	-49
0.36100	-60
0.36467	-62
0.36833	-59
0.37200	-56
0.37567	-56
0.37933	-55
0.38300	-51
0.38667	-46
0.39033	-42
0.39400	-38
0.39767	-33
0.40133	-30
0.40500	-29
0.40867	-32
0.41233	-37
0.41600	-41
0.41967	-45
0.42333	-46
0.42700	-45
0.43067	-48
0.43433	-50
0.43800	-53
0.44167	-54
0.44533	-52
0.44900	-48
0.45267	-44
0.45633	-40
0.46000	-35
0.46367	-28
0.46733	-20
0.47100	-16
0.47467	-18
0.47833	-24
0.48200	-30
0.48567	-34
0.48933	-38
0.49300	-40
0.49667	-43
0.50033	-41
0.50400	-38
0.50767	-37
0.51133	-42
0.51500	-47
0.51867	-50
0.52233	-52
0.52600	-54
0.52967	-56
0.53333	-61
0.53700	-66
0.54067	-69
0.54433	-67
0.54800	-61
0.55167	-56
0.55533	-55
0.55900	-55
0.56267	-53
0.56633	-51
0.57000	-53
0.57367	-55
0.57733	-55
0.58100	-56
0.58467	-56
0.58833	-56
0.59200	-57
0.59567	-57
0.59933	-56
0.60300	-58
0.60667	-60
0.61033	-58
0.61400	-53
0.61767	-46
0.62133	-43
0.62500	-43
0.62867	-44
0.63233	-49
0.63600	-54
0.63967	-58
0.64333	-60
0.64700	-62
0.65067	-63
0.65433	-65
0.65800	-66
0.66167	-67
0.66533	-67
0.66900	-66
0.67267	-65
0.67633	-62
0.68000	-60
0.68367	-56
0.68733	-50
0.69100	-44
0.69467	-41
0.69833	-41
0.70200	-42
0.70567	-44
0.70933	-48
0.71300	-50
0.71667	-52
0.72033	-55
0.72400	-59
0.72767	-61
0.73133	-60
0.73500	-59
0.73867	-57
0.74233	-53
0.74600	-48
0.74967	-43
0.75333	-39
0.75700	-36
0.76067	-37
0.76433	-39
0.76800	-41
0.77167	-48
0.77533	-55
0.77900	-62
0.78267	-67
0.78633	-72
0.79000	-78
0.79367	-82
0.79733	-85
0.80100	-86
0.80467	-82
0.80833	-74
0.81200	-67
0.81567	-65
0.81933	-66
0.82300	-71
0.82667	-78
0.83033	-81
0.83400	-78
0.83767	-72
0.84133	-65
0.84500	-59
0.84867	-55
0.85233	-53
0.85600	-54
0.85967	-57
0.86333	-59
0.86700	-61
0.87067	-64
0.87433	-67
0.87800	-74
0.88167	-81
0.88533	-89
0.88900	-92
0.89267	-91
0.89633	-87
0.90000	-82
0.90367	-78
0.90733	-75
0.91100	-73
0.91467	-74
0.91833	-75
0.92200	-77
0.92567	-76
0.92933	-72
0.93300	-70
0.93667	-66
0.94033	-61
0.94400	-57
0.94767	-55
0.95133	-56
0.95500	-62
0.95867	-65
0.96233	-66
0.96600	-70
0.96967	-78
0.97333	-86
0.97700	-85
0.98067	-80
0.98433	-79
0.98800	-73
0.99167	-70
0.99533	-71
0.99900	-73
1.00267	-72
1.00633	-71
1.01000	-73
1.01367	-78
1.01733	-85
1.02100	-88
1.02467	-88
1.02833	-86
1.03200	-83
1.03567	-79
1.03933	-77
1.04300	-77
1.04667	-80
1.05033	-85
1.05400	-90
1.05767	-90
1.06133	-86
1.06500	-84
1.06867	-82
1.07233	-82
1.07600	-84
1.07967	-86
1.08333	-87
1.08700	-88
1.09067	-86
1.09433	-81
1.09800	-79
1.10167	-79
1.10533	-78
1.10900	-74
1.11267	-73
1.11633	-76
1.12000	-80
1.12367	-85
1.12733	-89
1.13100	-95
1.13467	-100
1.13833	-103
1.14200	-102
1.14567	-99
1.14933	-97
1.15300	-97
1.15667	-96
1.16033	-94
1.16400	-93
1.16767	-93
1.17133	-96
1.17500	-99
1.17867	-101
1.18233	-102
1.18600	-102
1.18967	-105
1.19333	-108
1.19700	-112
1.20067	-114
1.20433	-110
1.20800	-99
1.21167	-87
1.21533	-79
1.21900	-77
1.22267	-83
1.22633	-89
1.23000	-93
1.23367	-93
1.23733	-91
1.24100	-93
1.24467	-100
1.24833	-106
1.25200	-107
1.25567	-105
1.25933	-101
1.26300	-98
1.26667	-97
1.27033	-98
1.27400	-98
1.27767	-97
1.28133	-93
1.28500	-89
1.28867	-86
1.29233	-86
1.29600	-88
1.29967	-88
1.30333	-87
1.30700	-87
1.31067	-88
1.31433	-94
1.31800	-103
1.32167	-112
1.32533	-118
1.32900	-122
1.33267	-126
1.33633	-129
1.34000	-128
1.34367	-122
1.34733	-114
1.35100	-107
1.35467	-100
1.35833	-94
1.36200	-92
1.36567	-94
1.36933	-101
1.37300	-110
1.37667	-116
1.38033	-112
1.38400	-102
1.38767	-94
1.39133	-92
1.39500	-94
1.39867	-98
1.40233	-101
1.40600	-104
1.40967	-104
1.41333	-103
1.41700	-102
1.42067	-102
1.42433	-99
1.42800	-96
1.43167	-95
1.43533	-94
1.43900	-73
1.44267	25
1.44633	268
1.45000	684
1.45367	1342
1.45733	2254
1.46100	3273
1.46467	4204
1.46833	4933
1.47200	5415
1.47567	5624
1.47933	5526
1.48300	5106
1.48667	4422
1.49033	3601
1.49400	2786
1.49767	2073
1.50133	1501
1.50500	1071
1.50867	752
1.51233	519
1.51600	351
1.51967	230
1.52333	141
1.52700	78
1.53067	34
1.53433	5
1.53800	-2
1.54167	41
1.54533	191
1.54900	487
1.55267	893
1.55633	1322
1.56000	1698
1.56367	1982
1.56733	2150
1.57100	2173
1.57467	2024
1.57833	1731
1.58200	1365
1.58567	1001
1.58933	688
1.59300	443
1.59667	263
1.60033	135
1.60400	47
1.60767	-12
1.61133	-55
1.61500	-85
1.61867	-103
1.62233	-113
1.62600	-119
1.62967	-120
1.63333	-117
1.63700	-114
1.64067	-113
1.64433	-115
1.64800	-119
1.65167	-125
1.65533	-131
1.65900	-135
1.66267	-137
1.66633	-135
1.67000	-128
1.67367	-119
1.67733	-112
1.68100	-112
1.68467	-116
1.68833	-122
1.69200	-123
1.69567	-124
1.69933	-128
1.70300	-133
1.70667	-135
1.71033	-134
1.71400	-131
1.71767	-130
1.72133	-131
1.72500	-136
1.72867	-144
1.73233	-150
1.73600	-152
1.73967	-149
1.74333	-143
1.74700	-136
1.75067	-128
1.75433	-121
1.75800	-119
1.76167	-122
1.76533	-123
1.76900	-122
1.77267	-123
1.77633	-124
1.78000	-123
1.78367	-124
1.78733	-129
1.79100	-136
1.79467	-141
1.79833	-143
1.80200	-144
1.80567	-143
1.80933	-137
1.81300	-129
1.81667	-121
1.82033	-114
1.82400	-108
1.82767	-105
1.83133	-104
1.83500	-104
1.83867	-104
1.84233	-105
1.84600	-107
1.84967	-109
1.85333	-112
1.85700	-115
1.86067	-116
1.86433	-115
1.86800	-113
1.87167	-111
1.87533	-112
1.87900	-115
1.88267	-118
1.88633	-119
1.89000	-117
1.89367	-116
1.89733	-117
1.90100	-119
1.90467	-122
1.90833	-125
1.91200	-127
1.91567	-126
1.91933	-125
1.92300	-124
1.92667	-122
1.93033	-118
1.93400	-114
1.93767	-110
1.94133	-109
1.94500	-109
1.94867	-104
1.95233	-83
1.95600	36
1.95967	717
1.96333	3953
1.96700	15617
1.97067	47803
1.97433	116563
1.97800	231472
1.98167	384646
1.98533	551334
1.98900	702277
1.99267	813803
1.99633	869881
2.00000	863953
2.00367	799841
2.00733	692258
2.01100	562772
2.01467	433049
2.01833	318604
2.02200	226621
2.02567	157532
2.02933	108084
2.03300	73852
2.03667	50657
2.04033	35131
2.04400	24784
2.04767	17876
2.05133	13233
2.05500	10070
2.05867	7877
2.06233	6324
2.06600	5195
2.06967	4356
2.07333	3721
2.07700	3227
2.08067	2831
2.08433	2510
2.08800	2246
2.09167	2027
2.09533	1841
2.09900	1683
2.10267	1549
2.10633	1434
2.11000	1333
2.11367	1241
2.11733	1159
2.12100	1088
2.12467	1026
2.12833	970
2.13200	918
2.13567	868
2.13933	819
2.14300	772
2.14667	732
2.15033	699
2.15400	672
2.15767	651
2.16133	634
2.16500	614
2.16867	588
2.17233	563
2.17600	539
2.17967	515
2.18333	492
2.18700	469
2.19067	448
2.19433	428
2.19800	412
2.20167	400
2.20533	393
2.20900	386
2.21267	380
2.21633	374
2.22000	366
2.22367	357
2.22733	347
2.23100	338
2.23467	326
2.23833	313
2.24200	299
2.24567	288
2.24933	281
2.25300	276
2.25667	275
2.26033	274
2.26400	267
2.26767	255
2.27133	241
2.27500	230
2.27867	224
2.28233	219
2.28600	214
2.28967	206
2.29333	199
2.29700	195
2.30067	194
2.30433	193
2.30800	190
2.31167	187
2.31533	181
2.31900	174
2.32267	170
2.32633	168
2.33000	168
2.33367	164
2.33733	157
2.34100	151
2.34467	146
2.34833	141
2.35200	135
2.35567	129
2.35933	127
2.36300	131
2.36667	135
2.37033	138
2.37400	141
2.37767	141
2.38133	142
2.38500	140
2.38867	136
2.39233	130
2.39600	121
2.39967	114
2.40333	113
2.40700	118
2.41067	126
2.41433	130
2.41800	129
2.42167	126
2.42533	125
2.42900	124
2.43267	120
2.43633	117
2.44000	114
2.44367	110
2.44733	105
2.45100	102
2.45467	101
2.45833	100
2.46200	98
2.46567	96
2.46933	97
2.47300	100
2.47667	103
2.48033	104
2.48400	103
2.48767	98
2.49133	94
2.49500	91
2.49867	90
2.50233	90
2.50600	91
2.50967	94
2.51333	99
2.51700	103
2.52067	106
2.52433	110
2.52800	110
2.53167	103
2.53533	96
2.53900	91
2.54267	86
2.54633	84
2.55000	86
2.55367	89
2.55733	91
2.56100	92
2.56467	91
2.56833	90
2.57200	91
2.57567	91
2.57933	90
2.58300	87
2.58667	83
2.59033	78
2.59400	72
2.59767	69
2.60133	70
2.60500	75
2.60867	81
2.61233	84
2.61600	85
2.61967	84
2.62333	81
2.62700	78
2.63067	76
2.63433	75
2.63800	73
2.64167	75
2.64533	78
2.64900	78
2.65267	78
2.65633	78
2.66000	78
2.66367	77
2.66733	77
2.67100	76
2.67467	75
2.67833	75
2.68200	75
2.68567	78
2.68933	83
2.69300	86
2.69667	88
2.70033	89
2.70400	87
2.70767	85
2.71133	84
2.71500	81
2.71867	77
2.72233	75
2.72600	75
2.72967	78
2.73333	84
2.73700	89
2.74067	91
2.74433	90
2.74800	90
2.75167	87
2.75533	80
2.75900	77
2.76267	81
2.76633	88
2.77000	95
2.77367	97
2.77733	94
2.78100	87
2.78467	83
2.78833	82
2.79200	83
2.79567	84
2.79933	85
2.80300	84
2.80667	79
2.81033	73
2.81400	71
2.81767	69
2.82133	67
2.82500	67
2.82867	71
2.83233	80
2.83600	88
2.83967	94
2.84333	99
2.84700	100
2.85067	95
2.85433	89
2.85800	85
2.86167	83
2.86533	79
2.86900	77
2.87267	75
2.87633	71
2.88000	65
2.88367	64
2.88733	66
2.89100	70
2.89467	74
2.89833	79
2.90200	84
2.90567	88
2.90933	89
2.91300	89
2.91667	87
2.92033	80
2.92400	74
2.92767	71
2.93133	72
2.93500	75
2.93867	80
2.94233	82
2.94600	83
2.94967	82
2.95333	81
2.95700	79
2.96067	77
2.96433	77
2.96800	78
2.97167	79
2.97533	82
2.97900	88
2.98267	93
2.98633	97
2.99000	99
2.99367	98
2.99733	96
3.00100	93
3.00467	89
3.00833	85
3.01200	81
3.01567	80
3.01933	86
3.02300	92
3.02667	95
3.03033	96
3.03400	96
3.03767	96
3.04133	93
3.04500	89
3.04867	86
3.05233	83
3.05600	81
3.05967	81
3.06333	79
3.06700	77
3.07067	77
3.07433	76
3.07800	76
3.08167	77
3.08533	81
3.08900	85
3.09267	89
3.09633	93
3.10000	94
3.10367	95
3.10733	95
3.11100	92
3.11467	86
3.11833	81
3.12200	76
3.12567	74
3.12933	77
3.13300	83
3.13667	86
3.14033	85
3.14400	81
3.14767	76
3.15133	75
3.15500	76
3.15867	75
3.16233	73
3.16600	70
3.16967	68
3.17333	68
3.17700	71
3.18067	76
3.18433	77
3.18800	75
3.19167	75
3.19533	75
3.19900	73
3.20267	71
3.20633	74
3.21000	83
3.21367	92
3.21733	97
3.22100	98
3.22467	97
3.22833	93
3.23200	89
3.23567	85
3.23933	80
3.24300	74
3.24667	69
3.25033	67
3.25400	68
3.25767	72
3.26133	77
3.26500	82
3.26867	83
3.27233	82
3.27600	80
3.27967	80
3.28333	81
3.28700	81
3.29067	80
3.29433	80
3.29800	81
3.30167	82
3.30533	83
3.30900	85
3.31267	87
3.31633	89
3.32000	88
3.32367	88
3.32733	89
3.33100	89
3.33467	88
3.33833	83
3.34200	77
3.34567	74
3.34933	70
3.35300	64
3.35667	60
3.36033	60
3.36400	64
3.36767	72
3.37133	81
3.37500	87
3.37867	90
3.38233	91
3.38600	94
3.38967	98
3.39333	99
3.39700	95
3.40067	89
3.40433	84
3.40800	80
3.41167	81
3.41533	84
3.41900	83
3.42267	77
3.42633	71
3.43000	71
3.43367	78
3.43733	82
3.44100	81
3.44467	79
3.44833	75
3.45200	76
3.45567	81
3.45933	84
3.46300	83
3.46667	80
3.47033	82
3.47400	88
3.47767	93
3.48133	93
3.48500	87
3.48867	77
3.49233	67
3.49600	61
3.49967	60
3.50333	58
3.50700	58
3.51067	59
3.51433	62
3.51800	64
3.52167	68
3.52533	72
3.52900	77
3.53267	82
3.53633	85
3.54000	86
3.54367	84
3.54733	79
3.55100	78
3.55467	81
3.55833	86
3.56200	90
3.56567	91
3.56933	94
3.57300	93
3.57667	91
3.58033	89
3.58400	86
3.58767	82
3.59133	77
3.59500	72
3.59867	66
3.60233	62
3.60600	64
3.60967	71
3.61333	78
3.61700	83
3.62067	83
3.62433	81
3.62800	76
3.63167	73
3.63533	73
3.63900	77
3.64267	84
3.64633	93
3.65000	101
3.65367	104
3.65733	104
3.66100	101
3.66467	95
3.66833	85
3.67200	77
3.67567	74
3.67933	74
3.68300	76
3.68667	79
3.69033	80
3.69400	77
3.69767	74
3.70133	72
3.70500	71
3.70867	70
3.71233	69
3.71600	71
3.71967	76
3.72333	81
3.72700	83
3.73067	82
3.73433	84
3.73800	91
3.74167	101
3.74533	105
3.74900	102
3.75267	97
3.75633	94
3.76000	91
3.76367	87
3.76733	86
3.77100	90
3.77467	96
3.77833	98
3.78200	94
3.78567	84
3.78933	73
3.79300	67
3.79667	69
3.80033	76
3.80400	83
3.80767	89
3.81133	91
3.81500	88
3.81867	81
3.82233	77
3.82600	73
3.82967	73
3.83333	78
3.83700	88
3.84067	95
3.84433	97
3.84800	95
3.85167	92
3.85533	87
3.85900	79
3.86267	72
3.86633	69
3.87000	67
3.87367	66
3.87733	66
3.88100	69
3.88467	73
3.88833	79
3.89200	85
3.89567	88
3.89933	90
3.90300	89
3.90667	85
3.91033	81
3.91400	78
3.91767	78
3.92133	80
3.92500	85
3.92867	91
3.93233	94
3.93600	93
3.93967	90
3.94333	89
3.94700	88
3.95067	86
3.95433	81
3.95800	77
3.96167	75
3.96533	78
3.96900	82
3.97267	84
3.97633	85
3.98000	86
3.98367	91
3.98733	98
3.99100	103
3.99467	106
3.99833	108

[Chromatogram (Ch2)]
Interval(msec)	220
# of Points	1091
Start Time(min)	0.002
End Time(min)	3.998
R.Time (min)	Intensity
0.00167	-1
0.00533	-2
0.00900	-3
0.01267	-3
0.01633	-4
0.02000	-4
0.02367	-5
0.02733	-6
0.03100	-6
0.03467	-7
0.03833	-7
0.04200	-6
0.04567	-6
0.04933	-6
0.05300	-6
0.05667	-6
0.06033	-6
0.06400	-6
0.06767	-6
0.07133	-6
0.07500	-6
0.07867	-6
0.08233	-6
0.08600	-6
0.08967	-6
0.09333	-6
0.09700	-6
0.10067	-6
0.10433	-6
0.10800	-6
0.11167	-6
0.11533	-6
0.11900	-6
0.12267	-5
0.12633	-5
0.13000	-5
0.13367	-5
0.13733	-5
0.14100	-4
0.14467	-4
0.14833	-4
0.15200	-4
0.15567	-4
0.15933	-4
0.16300	-3
0.16667	-3
0.17033	-3
0.17400	-3
0.17767	-2
0.18133	-2
0.18500	-2
0.18867	-1
0.19233	-1
0.19600	0
0.19967	1
0.20333	1
0.20700	1
0.21067	2
0.21433	2
0.21800	2
0.22167	2
0.22533	1
0.22900	1
0.23267	1
0.23633	2
0.24000	2
0.24367	1
0.24733	1
0.25100	1
0.25467	0
0.25833	-0
0.26200	-1
0.26567	-1
0.26933	-2
0.27300	-2
0.27667	-2
0.28033	-3
0.28400	-3
0.28767	-3
0.29133	-3
0.29500	-3
0.29867	-3
0.30233	-3
0.30600	-3
0.30967	-3
0.31333	-3
0.31700	-3
0.32067	-3
0.32433	-3
0.32800	-3
0.33167	-3
0.33533	-3
0.33900	-3
0.34267	-3
0.34633	-3
0.35000	-3
0.35367	-4
0.35733	-4
0.36100	-4
0.36467	-4
0.36833	-4
0.37200	-4
0.37567	-4
0.37933	-4
0.38300	-4
0.38667	-5
0.39033	-5
0.39400	-5
0.39767	-5
0.40133	-5
0.40500	-5
0.40867	-5
0.41233	-5
0.41600	-5
0.41967	-5
0.42333	-5
0.42700	-5
0.43067	-5
0.43433	-5
0.43800	-5
0.44167	-5
0.44533	-6
0.44900	-6
0.45267	-6
0.45633	-6
0.46000	-7
0.46367	-7
0.46733	-7
0.47100	-8
0.47467	-8
0.47833	-8
0.48200	-8
0.48567	-7
0.48933	-7
0.49300	-7
0.49667	-6
0.50033	-6
0.50400	-6
0.50767	-6
0.51133	-6
0.51500	-6
0.51867	-5
0.52233	-5
0.52600	-5
0.52967	-5
0.53333	-5
0.53700	-4
0.54067	-4
0.54433	-4
0.54800	-4
0.55167	-3
0.55533	-3
0.55900	-3
0.56267	-3
0.56633	-2
0.57000	-2
0.57367	-2
0.57733	-2
0.58100	-2
0.58467	-3
0.58833	-3
0.59200	-3
0.59567	-3
0.59933	-3
0.60300	-3
0.60667	-4
0.61033	-4
0.61400	-4
0.61767	-4
0.62133	-5
0.62500	-5
0.62867	-5
0.63233	-5
0.63600	-5
0.63967	-5
0.64333	-5
0.64700	-5
0.65067	-5
0.65433	-6
0.65800	-6
0.66167	-6
0.66533	-6
0.66900	-6
0.67267	-7
0.67633	-7
0.68000	-7
0.68367	-7
0.68733	-7
0.69100	-7
0.69467	-7
0.69833	-6
0.70200	-6
0.70567	-6
0.70933	-6
0.71300	-6
0.71667	-6
0.72033	-5
0.72400	-5
0.72767	-5
0.73133	-5
0.73500	-5
0.73867	-5
0.74233	-5
0.74600	-5
0.74967	-5
0.75333	-5
0.75700	-5
0.76067	-5
0.76433	-5
0.76800	-4
0.77167	-4
0.77533	-4
0.77900	-3
0.78267	-3
0.78633	-3
0.79000	-2
0.79367	-2
0.79733	-2
0.80100	-2
0.80467	-2
0.80833	-2
0.81200	-2
0.81567	-2
0.81933	-2
0.82300	-2
0.82667	-2
0.83033	-2
0.83400	-2
0.83767	-3
0.84133	-3
0.84500	-3
0.84867	-3
0.85233	-3
0.85600	-3
0.85967	-3
0.86333	-3
0.86700	-3
0.87067	-4
0.87433	-4
0.87800	-4
0.88167	-4
0.88533	-4
0.88900	-4
0.89267	-4
0.89633	-4
0.90000	-4
0.90367	-4
0.90733	-3
0.91100	-3
0.91467	-3
0.91833	-3
0.92200	-3
0.92567	-3
0.92933	-3
0.93300	-4
0.93667	-4
0.94033	-4
0.94400	-4
0.94767	-4
0.95133	-3
0.95500	-3
0.95867	-3
0.96233	-3
0.96600	-3
0.96967	-4
0.97333	-4
0.97700	-4
0.98067	-4
0.98433	-4
0.98800	-4
0.99167	-4
0.99533	-4
0.99900	-5
1.00267	-5
1.00633	-6
1.01000	-6
1.01367	-6
1.01733	-6
1.02100	-6
1.02467	-7
1.02833	-7
1.03200	-7
1.03567	-8
1.03933	-8
1.04300	-8
1.04667	-8
1.05033	-9
1.05400	-9
1.05767	-9
1.06133	-9
1.06500	-9
1.06867	-9
1.07233	-9
1.07600	-9
1.07967	-9
1.08333	-9
1.08700	-9
1.09067	-9
1.09433	-9
1.09800	-9
1.10167	-9
1.10533	-8
1.10900	-8
1.11267	-8
1.11633	-7
1.12000	-7
1.12367	-6
1.12733	-6
1.13100	-5
1.13467	-5
1.13833	-4
1.14200	-4
1.14567	-4
1.14933	-4
1.15300	-3
1.15667	-3
1.16033	-4
1.16400	-4
1.16767	-4
1.17133	-4
1.17500	-4
1.17867	-3
1.18233	-3
1.18600	-3
1.18967	-3
1.19333	-3
1.19700	-3
1.20067	-3
1.20433	-3
1.20800	-3
1.21167	-3
1.21533	-3
1.21900	-3
1.22267	-3
1.22633	-3
1.23000	-3
1.23367	-4
1.23733	-4
1.24100	-4
1.24467	-4
1.24833	-4
1.25200	-5
1.25567	-5
1.25933	-5
1.26300	-5
1.26667	-5
1.27033	-5
1.27400	-6
1.27767	-6
1.28133	-6
1.28500	-6
1.28867	-6
1.29233	-7
1.29600	-7
1.29967	-8
1.30333	-8
1.30700	-8
1.31067	-8
1.31433	-8
1.31800	-8
1.32167	-8
1.32533	-8
1.32900	-8
1.33267	-8
1.33633	-8
1.34000	-8
1.34367	-8
1.34733	-7
1.35100	-7
1.35467	-7
1.35833	-7
1.36200	-6
1.36567	-6
1.36933	-6
1.37300	-6
1.37667	-5
1.38033	-5
1.38400	-5
1.38767	-5
1.39133	-5
1.39500	-5
1.39867	-5
1.40233	-5
1.40600	-5
1.40967	-5
1.41333	-5
1.41700	-5
1.42067	-5
1.42433	-6
1.42800	-6
1.43167	-6
1.43533	-6
1.43900	-7
1.44267	-7
1.44633	-7
1.45000	-7
1.45367	-7
1.45733	-7
1.46100	-7
1.46467	-7
1.46833	-6
1.47200	-6
1.47567	-6
1.47933	-6
1.48300	-6
1.48667	-6
1.49033	-6
1.49400	-6
1.49767	-6
1.50133	-6
1.50500	-6
1.50867	-6
1.51233	-7
1.51600	-7
1.51967	-7
1.52333	-7
1.52700	-7
1.53067	-7
1.53433	-7
1.53800	-7
1.54167	-7
1.54533	-7
1.54900	-7
1.55267	-7
1.55633	-7
1.56000	-7
1.56367	-7
1.56733	-7
1.57100	-7
1.57467	-6
1.57833	-7
1.58200	-7
1.58567	-7
1.58933	-7
1.59300	-8
1.59667	-8
1.60033	-9
1.60400	-10
1.60767	-11
1.61133	-13
1.61500	-15
1.61867	-17
1.62233	-20
1.62600	-23
1.62967	-26
1.63333	-30
1.63700	-34
1.64067	-37
1.64433	-41
1.64800	-45
1.65167	-49
1.65533	-53
1.65900	-57
1.66267	-61
1.66633	-65
1.67000	-70
1.67367	-75
1.67733	-80
1.68100	-85
1.68467	-90
1.68833	-95
1.69200	-100
1.69567	-104
1.69933	-107
1.70300	-110
1.70667	-112
1.71033	-114
1.71400	-115
1.71767	-116
1.72133	-117
1.72500	-117
1.72867	-118
1.73233	-118
1.73600	-118
1.73967	-118
1.74333	-119
1.74700	-119
1.75067	-120
1.75433	-121
1.75800	-122
1.76167	-123
1.76533	-124
1.76900	-125
1.77267	-126
1.77633	-126
1.78000	-127
1.78367	-127
1.78733	-126
1.79100	-126
1.79467	-125
1.79833	-125
1.80200	-125
1.80567	-125
1.80933	-126
1.81300	-127
1.81667	-129
1.82033	-130
1.82400	-130
1.82767	-131
1.83133	-131
1.83500	-130
1.83867	-129
1.84233	-129
1.84600	-127
1.84967	-126
1.85333	-126
1.85700	-125
1.86067	-125
1.86433	-125
1.86800	-126
1.87167	-126
1.87533	-127
1.87900	-127
1.88267	-127
1.88633	-127
1.89000	-127
1.89367	-127
1.89733	-127
1.90100	-127
1.90467	-127
1.90833	-127
1.91200	-126
1.91567	-125
1.91933	-125
1.92300	-124
1.92667	-124
1.93033	-124
1.93400	-124
1.93767	-124
1.94133	-124
1.94500	-124
1.94867	-124
1.95233	-124
1.95600	-124
1.95967	-124
1.96333	-124
1.96700	-124
1.97067	-124
1.97433	-123
1.97800	-123
1.98167	-122
1.98533	-122
1.98900	-121
1.99267	-120
1.99633	-120
2.00000	-119
2.00367	-119
2.00733	-119
2.01100	-119
2.01467	-119
2.01833	-119
2.02200	-119
2.02567	-120
2.02933	-119
2.03300	-119
2.03667	-118
2.04033	-118
2.04400	-117
2.04767	-117
2.05133	-116
2.05500	-116
2.05867	-115
2.06233	-115
2.06600	-114
2.06967	-114
2.07333	-114
2.07700	-114
2.08067	-114
2.08433	-114
2.08800	-114
2.09167	-113
2.09533	-113
2.09900	-112
2.10267	-111
2.10633	-111
2.11000	-111
2.11367	-110
2.11733	-110
2.12100	-109
2.12467	-109
2.12833	-108
2.13200	-108
2.13567	-107
2.13933	-107
2.14300	-106
2.14667	-106
2.15033	-106
2.15400	-106
2.15767	-106
2.16133	-106
2.16500	-106
2.16867	-105
2.17233	-105
2.17600	-105
2.17967	-105
2.18333	-104
2.18700	-104
2.19067	-104
2.19433	-104
2.19800	-104
2.20167	-104
2.20533	-104
2.20900	-104
2.21267	-103
2.21633	-102
2.22000	-102
2.22367	-101
2.22733	-100
2.23100	-100
2.23467	-100
2.23833	-100
2.24200	-100
2.24567	-100
2.24933	-100
2.25300	-100
2.25667	-100
2.26033	-99
2.26400	-99
2.26767	-100
2.27133	-100
2.27500	-101
2.27867	-101
2.28233	-101
2.28600	-100
2.28967	-100
2.29333	-99
2.29700	-98
2.30067	-97
2.30433	-96
2.30800	-96
2.31167	-95
2.31533	-95
2.31900	-95
2.32267	-96
2.32633	-96
2.33000	-96
2.33367	-95
2.33733	-94
2.34100	-93
2.34467	-91
2.34833	-90
2.35200	-89
2.35567	-88
2.35933	-87
2.36300	-86
2.36667	-86
2.37033	-85
2.37400	-84
2.37767	-82
2.38133	-79
2.38500	-76
2.38867	-73
2.39233	-69
2.39600	-65
2.39967	-60
2.40333	-56
2.40700	-51
2.41067	-46
2.41433	-41
2.41800	-37
2.42167	-33
2.42533	-29
2.42900	-25
2.43267	-22
2.43633	-19
2.44000	-17
2.44367	-15
2.44733	-14
2.45100	-12
2.45467	-10
2.45833	-8
2.46200	-7
2.46567	-6
2.46933	-5
2.47300	-4
2.47667	-3
2.48033	-2
2.48400	-1
2.48767	-1
2.49133	0
2.49500	1
2.49867	2
2.50233	3
2.50600	4
2.50967	4
2.51333	5
2.51700	5
2.52067	6
2.52433	7
2.52800	8
2.53167	8
2.53533	9
2.53900	9
2.54267	9
2.54633	9
2.55000	9
2.55367	9
2.55733	9
2.56100	9
2.56467	9
2.56833	10
2.57200	10
2.57567	10
2.57933	11
2.58300	11
2.58667	12
2.59033	12
2.59400	12
2.59767	12
2.60133	12
2.60500	12
2.60867	12
2.61233	13
2.61600	13
2.61967	13
2.62333	13
2.62700	13
2.63067	14
2.63433	14
2.63800	14
2.64167	15
2.64533	15
2.64900	15
2.65267	15
2.65633	15
2.66000	15
2.66367	15
2.66733	15
2.67100	16
2.67467	16
2.67833	17
2.68200	17
2.68567	18
2.68933	18
2.69300	18
2.69667	19
2.70033	20
2.70400	20
2.70767	20
2.71133	20
2.71500	20
2.71867	20
2.72233	20
2.72600	20
2.72967	20
2.73333	21
2.73700	21
2.74067	20
2.74433	20
2.74800	20
2.75167	19
2.75533	19
2.75900	19
2.76267	18
2.76633	18
2.77000	18
2.77367	18
2.77733	18
2.78100	18
2.78467	19
2.78833	19
2.79200	19
2.79567	19
2.79933	20
2.80300	20
2.80667	20
2.81033	20
2.81400	20
2.81767	21
2.82133	21
2.82500	21
2.82867	22
2.83233	22
2.83600	22
2.83967	22
2.84333	22
2.84700	21
2.85067	20
2.85433	17
2.85800	12
2.86167	4
2.86533	-7
2.86900	-21
2.87267	-39
2.87633	-61
2.88000	-87
2.88367	-117
2.88733	-150
2.89100	-187
2.89467	-226
2.89833	-269
2.90200	-314
2.90567	-360
2.90933	-409
2.91300	-458
2.91667	-508
2.92033	-557
2.92400	-607
2.92767	-657
2.93133	-706
2.93500	-755
2.93867	-803
2.94233	-854
2.94600	-909
2.94967	-970
2.95333	-1029
2.95700	-1075
2.96067	-1099
2.96433	-1097
2.96800	-1069
2.97167	-1020
2.97533	-956
2.97900	-882
2.98267	-802
2.98633	-722
2.99000	-644
2.99367	-569
2.99733	-500
3.00100	-436
3.00467	-379
3.00833	-327
3.01200	-282
3.01567	-242
3.01933	-207
3.02300	-177
3.02667	-150
3.03033	-127
3.03400	-108
3.03767	-91
3.04133	-76
3.04500	-64
3.04867	-53
3.05233	-44
3.05600	-36
3.05967	-30
3.06333	-24
3.06700	-20
3.07067	-16
3.07433	-12
3.07800	-9
3.08167	-7
3.08533	-5
3.08900	-3
3.09267	-2
3.09633	-0
3.10000	1
3.10367	2
3.10733	4
3.11100	5
3.11467	6
3.11833	7
3.12200	8
3.12567	9
3.12933	9
3.13300	10
3.13667	11
3.14033	12
3.14400	13
3.14767	14
3.15133	15
3.15500	15
3.15867	16
3.16233	17
3.16600	17
3.16967	18
3.17333	18
3.17700	19
3.18067	20
3.18433	20
3.18800	21
3.19167	21
3.19533	22
3.19900	22
3.20267	22
3.20633	23
3.21000	23
3.21367	23
3.21733	23
3.22100	23
3.22467	24
3.22833	24
3.23200	24
3.23567	24
3.23933	24
3.24300	24
3.24667	23
3.25033	23
3.25400	23
3.25767	23
3.26133	24
3.26500	24
3.26867	24
3.27233	24
3.27600	24
3.27967	24
3.28333	24
3.28700	24
3.29067	24
3.29433	24
3.29800	24
3.30167	24
3.30533	23
3.30900	23
3.31267	23
3.31633	23
3.32000	23
3.32367	23
3.32733	23
3.33100	23
3.33467	23
3.33833	23
3.34200	23
3.34567	23
3.34933	23
3.35300	23
3.35667	22
3.36033	22
3.36400	22
3.36767	21
3.37133	21
3.37500	21
3.37867	20
3.38233	20
3.38600	20
3.38967	19
3.39333	19
3.39700	19
3.40067	19
3.40433	19
3.40800	19
3.41167	20
3.41533	20
3.41900	20
3.42267	21
3.42633	21
3.43000	21
3.43367	21
3.43733	21
3.44100	22
3.44467	22
3.44833	22
3.45200	22
3.45567	22
3.45933	22
3.46300	22
3.46667	22
3.47033	22
3.47400	22
3.47767	22
3.48133	22
3.48500	22
3.48867	21
3.49233	21
3.49600	21
3.49967	21
3.50333	21
3.50700	21
3.51067	21
3.51433	21
3.51800	21
3.52167	21
3.52533	22
3.52900	22
3.53267	22
3.53633	23
3.54000	23
3.54367	23
3.54733	23
3.55100	23
3.55467	23
3.55833	23
3.56200	23
3.56567	22
3.56933	22
3.57300	22
3.57667	22
3.58033	23
3.58400	23
3.58767	23
3.59133	23
3.59500	23
3.59867	23
3.60233	24
3.60600	24
3.60967	24
3.61333	24
3.61700	24
3.62067	24
3.62433	24
3.62800	24
3.63167	24
3.63533	24
3.63900	24
3.64267	24
3.64633	23
3.65000	23
3.65367	23
3.65733	23
3.66100	23
3.66467	24
3.66833	24
3.67200	24
3.67567	24
3.67933	25
3.68300	25
3.68667	25
3.69033	25
3.69400	25
3.69767	25
3.70133	25
3.70500	24
3.70867	24
3.71233	24
3.71600	24
3.71967	23
3.72333	23
3.72700	23
3.73067	23
3.73433	22
3.73800	22
3.74167	22
3.74533	22
3.74900	22
3.75267	22
3.75633	22
3.76000	23
3.76367	23
3.76733	23
3.77100	23
3.77467	22
3.77833	22
3.78200	22
3.78567	22
3.78933	22
3.79300	22
3.79667	22
3.80033	23
3.80400	23
3.80767	23
3.81133	23
3.81500	24
3.81867	24
3.82233	24
3.82600	24
3.82967	24
3.83333	24
3.83700	24
3.84067	24
3.84433	24
3.84800	24
3.85167	23
3.85533	23
3.85900	24
3.86267	23
3.86633	23
3.87000	23
3.87367	23
3.87733	23
3.88100	23
3.88467	23
3.88833	23
3.89200	23
3.89567	23
3.89933	23
3.90300	22
3.90667	22
3.91033	22
3.91400	22
3.91767	22
3.92133	22
3.92500	22
3.92867	22
3.93233	23
3.93600	23
3.93967	23
3.94333	23
3.94700	24
3.95067	24
3.95433	24
3.95800	24
3.96167	24
3.96533	25
3.96900	25
3.97267	25
3.97633	25
3.98000	24
3.98367	24
3.98733	24
3.99100	24
3.99467	24
3.99833	24

[Chromatogram (Ch3)]
Interval(msec)	220
# of Points	1091
Start Time(min)	0.002
End Time(min)	3.998
R.Time (min)	Intensity
0.00167	0
0.00533	2
0.00900	2
0.01267	3
0.01633	4
0.02000	4
0.02367	4
0.02733	5
0.03100	6
0.03467	5
0.03833	6
0.04200	6
0.04567	6
0.04933	7
0.05300	8
0.05667	7
0.06033	5
0.06400	2
0.06767	-1
0.07133	-2
0.07500	-1
0.07867	1
0.08233	2
0.08600	3
0.08967	6
0.09333	7
0.09700	8
0.10067	7
0.10433	6
0.10800	7
0.11167	10
0.11533	9
0.11900	9
0.12267	7
0.12633	7
0.13000	10
0.13367	10
0.13733	12
0.14100	11
0.14467	11
0.14833	11
0.15200	13
0.15567	14
0.15933	15
0.16300	16
0.16667	15
0.17033	13
0.17400	12
0.17767	10
0.18133	7
0.18500	3
0.18867	1
0.19233	0
0.19600	1
0.19967	-2
0.20333	-2
0.20700	-0
0.21067	1
0.21433	3
0.21800	4
0.22167	5
0.22533	4
0.22900	4
0.23267	7
0.23633	10
0.24000	12
0.24367	11
0.24733	11
0.25100	10
0.25467	10
0.25833	9
0.26200	9
0.26567	9
0.26933	9
0.27300	10
0.27667	8
0.28033	6
0.28400	5
0.28767	5
0.29133	6
0.29500	9
0.29867	11
0.30233	12
0.30600	11
0.30967	11
0.31333	12
0.31700	12
0.32067	9
0.32433	6
0.32800	4
0.33167	3
0.33533	2
0.33900	4
0.34267	5
0.34633	6
0.35000	7
0.35367	9
0.35733	11
0.36100	11
0.36467	12
0.36833	13
0.37200	12
0.37567	11
0.37933	13
0.38300	14
0.38667	12
0.39033	11
0.39400	9
0.39767	7
0.40133	5
0.40500	4
0.40867	3
0.41233	2
0.41600	2
0.41967	3
0.42333	6
0.42700	6
0.43067	6
0.43433	8
0.43800	8
0.44167	8
0.44533	9
0.44900	7
0.45267	6
0.45633	7
0.46000	8
0.46367	10
0.46733	12
0.47100	11
0.47467	10
0.47833	8
0.48200	7
0.48567	7
0.48933	9
0.49300	9
0.49667	8
0.50033	9
0.50400	11
0.50767	12
0.51133	13
0.51500	14
0.51867	13
0.52233	12
0.52600	11
0.52967	11
0.53333	11
0.53700	11
0.54067	9
0.54433	6
0.54800	4
0.55167	2
0.55533	2
0.55900	1
0.56267	2
0.56633	5
0.57000	6
0.57367	7
0.57733	5
0.58100	4
0.58467	4
0.58833	5
0.59200	4
0.59567	3
0.59933	2
0.60300	3
0.60667	3
0.61033	5
0.61400	5
0.61767	5
0.62133	5
0.62500	7
0.62867	7
0.63233	5
0.63600	5
0.63967	5
0.64333	5
0.64700	4
0.65067	4
0.65433	2
0.65800	0
0.66167	1
0.66533	2
0.66900	4
0.67267	4
0.67633	3
0.68000	1
0.68367	2
0.68733	2
0.69100	3
0.69467	3
0.69833	4
0.70200	2
0.70567	-0
0.70933	-1
0.71300	-1
0.71667	-2
0.72033	-0
0.72400	2
0.72767	2
0.73133	3
0.73500	3
0.73867	2
0.74233	0
0.74600	-0
0.74967	1
0.75333	2
0.75700	2
0.76067	-0
0.76433	-1
0.76800	1
0.77167	3
0.77533	4
0.77900	3
0.78267	2
0.78633	1
0.79000	-1
0.79367	-1
0.79733	-1
0.80100	-0
0.80467	3
0.80833	5
0.81200	7
0.81567	10
0.81933	12
0.82300	11
0.82667	10
0.83033	10
0.83400	8
0.83767	4
0.84133	1
0.84500	-2
0.84867	-7
0.85233	-8
0.85600	-7
0.85967	-5
0.86333	-3
0.86700	-2
0.87067	-3
0.87433	-3
0.87800	-2
0.88167	-2
0.88533	-3
0.88900	-5
0.89267	-6
0.89633	-7
0.90000	-9
0.90367	-9
0.90733	-8
0.91100	-8
0.91467	-8
0.91833	-6
0.92200	-2
0.92567	1
0.92933	2
0.93300	-0
0.93667	-1
0.94033	-1
0.94400	-1
0.94767	1
0.95133	1
0.95500	-2
0.95867	-3
0.96233	-4
0.96600	-6
0.96967	-5
0.97333	-4
0.97700	-3
0.98067	-5
0.98433	-4
0.98800	-6
0.99167	-8
0.99533	-7
0.99900	-5
1.00267	-3
1.00633	-4
1.01000	-6
1.01367	-5
1.01733	-5
1.02100	-5
1.02467	-4
1.02833	-2
1.03200	-3
1.03567	-4
1.03933	-4
1.04300	-5
1.04667	-4
1.05033	-3
1.05400	-3
1.05767	-3
1.06133	-3
1.06500	-2
1.06867	-0
1.07233	-1
1.07600	-4
1.07967	-6
1.08333	-7
1.08700	-7
1.09067	-7
1.09433	-9
1.09800	-9
1.10167	-7
1.10533	-6
1.10900	-6
1.11267	-6
1.11633	-6
1.12000	-4
1.12367	-2
1.12733	-1
1.13100	-2
1.13467	-4
1.13833	-7
1.14200	-8
1.14567	-7
1.14933	-7
1.15300	-7
1.15667	-8
1.16033	-8
1.16400	-7
1.16767	-5
1.17133	-5
1.17500	-3
1.17867	-3
1.18233	-4
1.18600	-5
1.18967	-5
1.19333	-6
1.19700	-8
1.20067	-9
1.20433	-10
1.20800	-11
1.21167	-12
1.21533	-11
1.21900	-10
1.22267	-8
1.22633	-6
1.23000	-4
1.23367	-3
1.23733	-4
1.24100	-8
1.24467	-11
1.24833	-14
1.25200	-14
1.25567	-14
1.25933	-15
1.26300	-15
1.26667	-15
1.27033	-14
1.27400	-14
1.27767	-14
1.28133	-13
1.28500	-12
1.28867	-12
1.29233	-9
1.29600	-9
1.29967	-10
1.30333	-14
1.30700	-15
1.31067	-15
1.31433	-15
1.31800	-13
1.32167	-10
1.32533	-8
1.32900	-9
1.33267	-12
1.33633	-14
1.34000	-15
1.34367	-11
1.34733	-10
1.35100	-8
1.35467	-9
1.35833	-11
1.36200	-10
1.36567	-8
1.36933	-8
1.37300	-9
1.37667	-11
1.38033	-11
1.38400	-12
1.38767	-13
1.39133	-13
1.39500	-13
1.39867	-10
1.40233	-10
1.40600	-10
1.40967	-12
1.41333	-12
1.41700	-12
1.42067	-13
1.42433	-14
1.42800	-14
1.43167	-13
1.43533	-12
1.43900	-11
1.44267	-12
1.44633	-12
1.45000	-11
1.45367	-10
1.45733	-8
1.46100	-9
1.46467	-9
1.46833	-9
1.47200	-12
1.47567	-14
1.47933	-15
1.48300	-15
1.48667	-15
1.49033	-15
1.49400	-14
1.49767	-16
1.50133	-17
1.50500	-20
1.50867	-20
1.51233	-20
1.51600	-21
1.51967	-20
1.52333	-19
1.52700	-19
1.53067	-19
1.53433	-21
1.53800	-20
1.54167	-18
1.54533	-16
1.54900	-16
1.55267	-15
1.55633	-14
1.56000	-14
1.56367	-15
1.56733	-16
1.57100	-17
1.57467	-17
1.57833	-15
1.58200	-12
1.58567	-10
1.58933	-9
1.59300	-11
1.59667	-14
1.60033	-17
1.60400	-19
1.60767	-18
1.61133	-17
1.61500	-17
1.61867	-17
1.62233	-15
1.62600	-15
1.62967	-15
1.63333	-16
1.63700	-17
1.64067	-17
1.64433	-15
1.64800	-14
1.65167	-13
1.65533	-12
1.65900	-8
1.66267	-6
1.66633	-6
1.67000	-6
1.67367	-5
1.67733	-5
1.68100	-5
1.68467	-5
1.68833	-4
1.69200	-3
1.69567	-6
1.69933	-5
1.70300	-2
1.70667	0
1.71033	2
1.71400	2
1.71767	3
1.72133	2
1.72500	-1
1.72867	-3
1.73233	-4
1.73600	-4
1.73967	-5
1.74333	-3
1.74700	-0
1.75067	1
1.75433	2
1.75800	1
1.76167	1
1.76533	2
1.76900	3
1.77267	4
1.77633	7
1.78000	10
1.78367	10
1.78733	10
1.79100	10
1.79467	10
1.79833	9
1.80200	7
1.80567	6
1.80933	7
1.81300	7
1.81667	7
1.82033	7
1.82400	7
1.82767	7
1.83133	9
1.83500	10
1.83867	12
1.84233	13
1.84600	12
1.84967	11
1.85333	9
1.85700	8
1.86067	8
1.86433	8
1.86800	10
1.87167	12
1.87533	14
1.87900	14
1.88267	12
1.88633	10
1.89000	8
1.89367	8
1.89733	8
1.90100	9
1.90467	9
1.90833	9
1.91200	11
1.91567	14
1.91933	14
1.92300	14
1.92667	15
1.93033	17
1.93400	18
1.93767	18
1.94133	19
1.94500	21
1.94867	21
1.95233	19
1.95600	17
1.95967	17
1.96333	19
1.96700	21
1.97067	23
1.97433	22
1.97800	21
1.98167	19
1.98533	19
1.98900	20
1.99267	21
1.99633	23
2.00000	23
2.00367	22
2.00733	20
2.01100	20
2.01467	22
2.01833	24
2.02200	27
2.02567	29
2.02933	31
2.03300	34
2.03667	33
2.04033	31
2.04400	29
2.04767	29
2.05133	30
2.05500	32
2.05867	33
2.06233	34
2.06600	36
2.06967	38
2.07333	41
2.07700	42
2.08067	42
2.08433	43
2.08800	43
2.09167	43
2.09533	43
2.09900	41
2.10267	41
2.10633	42
2.11000	46
2.11367	47
2.11733	46
2.12100	45
2.12467	44
2.12833	43
2.13200	43
2.13567	46
2.13933	48
2.14300	48
2.14667	49
2.15033	51
2.15400	52
2.15767	53
2.16133	52
2.16500	49
2.16867	48
2.17233	49
2.17600	49
2.17967	50
2.18333	52
2.18700	53
2.19067	54
2.19433	54
2.19800	54
2.20167	55
2.20533	57
2.20900	60
2.21267	63
2.21633	67
2.22000	67
2.22367	66
2.22733	64
2.23100	64
2.23467	64
2.23833	63
2.24200	62
2.24567	63
2.24933	62
2.25300	62
2.25667	63
2.26033	66
2.26400	69
2.26767	72
2.27133	74
2.27500	74
2.27867	74
2.28233	73
2.28600	72
2.28967	71
2.29333	72
2.29700	73
2.30067	75
2.30433	78
2.30800	80
2.31167	82
2.31533	83
2.31900	82
2.32267	80
2.32633	82
2.33000	84
2.33367	87
2.33733	89
2.34100	91
2.34467	90
2.34833	92
2.35200	94
2.35567	97
2.35933	100
2.36300	101
2.36667	100
2.37033	98
2.37400	95
2.37767	96
2.38133	99
2.38500	101
2.38867	103
2.39233	104
2.39600	104
2.39967	104
2.40333	105
2.40700	104
2.41067	106
2.41433	109
2.41800	112
2.42167	114
2.42533	113
2.42900	111
2.43267	110
2.43633	110
2.44000	111
2.44367	117
2.44733	137
2.45100	163
2.45467	181
2.45833	181
2.46200	170
2.46567	154
2.46933	141
2.47300	131
2.47667	121
2.48033	110
2.48400	98
2.48767	88
2.49133	81
2.49500	74
2.49867	67
2.50233	61
2.50600	56
2.50967	51
2.51333	51
2.51700	50
2.52067	52
2.52433	52
2.52800	50
2.53167	47
2.53533	40
2.53900	32
2.54267	25
2.54633	19
2.55000	16
2.55367	14
2.55733	12
2.56100	8
2.56467	5
2.56833	4
2.57200	2
2.57567	-0
2.57933	-2
2.58300	-5
2.58667	-6
2.59033	-7
2.59400	-9
2.59767	-12
2.60133	-15
2.60500	-26
2.60867	-46
2.61233	-73
2.61600	-106
2.61967	-144
2.62333	-182
2.62700	-219
2.63067	-252
2.63433	-280
2.63800	-301
2.64167	-317
2.64533	-329
2.64900	-338
2.65267	-342
2.65633	-339
2.66000	-336
2.66367	-333
2.66733	-327
2.67100	-319
2.67467	-310
2.67833	-300
2.68200	-289
2.68567	-279
2.68933	-270
2.69300	-257
2.69667	-244
2.70033	-233
2.70400	-224
2.70767	-215
2.71133	-206
2.71500	-197
2.71867	-188
2.72233	-181
2.72600	-174
2.72967	-169
2.73333	-161
2.73700	-153
2.74067	-145
2.74433	-138
2.74800	-131
2.75167	-126
2.75533	-121
2.75900	-117
2.76267	-113
2.76633	-109
2.77000	-104
2.77367	-97
2.77733	-90
2.78100	-85
2.78467	-83
2.78833	-80
2.79200	-78
2.79567	-76
2.79933	-73
2.80300	-70
2.80667	-69
2.81033	-66
2.81400	-60
2.81767	-54
2.82133	-49
2.82500	-40
2.82867	-17
2.83233	26
2.83600	105
2.83967	243
2.84333	465
2.84700	790
2.85067	1227
2.85433	1763
2.85800	2371
2.86167	2995
2.86533	3591
2.86900	4128
2.87267	4565
2.87633	4869
2.88000	5027
2.88367	5042
2.88733	4926
2.89100	4707
2.89467	4414
2.89833	4078
2.90200	3719
2.90567	3356
2.90933	3007
2.91300	2678
2.91667	2375
2.92033	2096
2.92400	1844
2.92767	1618
2.93133	1419
2.93500	1247
2.93867	1100
2.94233	973
2.94600	860
2.94967	761
2.95333	677
2.95700	604
2.96067	542
2.96433	488
2.96800	443
2.97167	405
2.97533	371
2.97900	342
2.98267	320
2.98633	302
2.99000	286
2.99367	275
2.99733	266
3.00100	257
3.00467	248
3.00833	241
3.01200	236
3.01567	232
3.01933	232
3.02300	231
3.02667	230
3.03033	230
3.03400	232
3.03767	232
3.04133	230
3.04500	228
3.04867	226
3.05233	226
3.05600	226
3.05967	228
3.06333	229
3.06700	229
3.07067	227
3.07433	228
3.07800	230
3.08167	230
3.08533	230
3.08900	232
3.09267	232
3.09633	232
3.10000	236
3.10367	240
3.10733	242
3.11100	246
3.11467	245
3.11833	245
3.12200	246
3.12567	246
3.12933	247
3.13300	247
3.13667	245
3.14033	244
3.14400	246
3.14767	250
3.15133	253
3.15500	254
3.15867	251
3.16233	250
3.16600	250
3.16967	251
3.17333	252
3.17700	252
3.18067	254
3.18433	257
3.18800	261
3.19167	260
3.19533	259
3.19900	259
3.20267	260
3.20633	260
3.21000	260
3.21367	260
3.21733	261
3.22100	261
3.22467	261
3.22833	262
3.23200	263
3.23567	264
3.23933	264
3.24300	264
3.24667	263
3.25033	263
3.25400	264
3.25767	265
3.26133	265
3.26500	264
3.26867	264
3.27233	263
3.27600	263
3.27967	262
3.28333	260
3.28700	260
3.29067	260
3.29433	257
3.29800	254
3.30167	253
3.30533	249
3.30900	247
3.31267	247
3.31633	246
3.32000	246
3.32367	245
3.32733	241
3.33100	240
3.33467	238
3.33833	236
3.34200	236
3.34567	236
3.34933	234
3.35300	233
3.35667	233
3.36033	231
3.36400	229
3.36767	228
3.37133	227
3.37500	225
3.37867	223
3.38233	221
3.38600	218
3.38967	217
3.39333	219
3.39700	220
3.40067	219
3.40433	216
3.40800	211
3.41167	208
3.41533	205
3.41900	205
3.42267	205
3.42633	202
3.43000	197
3.43367	198
3.43733	197
3.44100	197
3.44467	198
3.44833	198
3.45200	196
3.45567	194
3.45933	192
3.46300	189
3.46667	185
3.47033	183
3.47400	181
3.47767	180
3.48133	180
3.48500	180
3.48867	179
3.49233	179
3.49600	178
3.49967	177
3.50333	178
3.50700	179
3.51067	179
3.51433	172
3.51800	166
3.52167	163
3.52533	163
3.52900	163
3.53267	162
3.53633	163
3.54000	162
3.54367	161
3.54733	158
3.55100	155
3.55467	153
3.55833	152
3.56200	152
3.56567	150
3.56933	149
3.57300	147
3.57667	147
3.58033	147
3.58400	147
3.58767	147
3.59133	145
3.59500	144
3.59867	143
3.60233	142
3.60600	139
3.60967	134
3.61333	132
3.61700	134
3.62067	135
3.62433	134
3.62800	134
3.63167	132
3.63533	132
3.63900	131
3.64267	127
3.64633	123
3.65000	123
3.65367	126
3.65733	127
3.66100	128
3.66467	126
3.66833	123
3.67200	120
3.67567	118
3.67933	118
3.68300	118
3.68667	118
3.69033	116
3.69400	114
3.69767	110
3.70133	108
3.70500	107
3.70867	107
3.71233	105
3.71600	103
3.71967	103
3.72333	105
3.72700	103
3.73067	102
3.73433	103
3.73800	103
3.74167	103
3.74533	102
3.74900	100
3.75267	101
3.75633	98
3.76000	93
3.76367	91
3.76733	92
3.77100	94
3.77467	98
3.77833	99
3.78200	98
3.78567	96
3.78933	94
3.79300	92
3.79667	90
3.80033	87
3.80400	87
3.80767	87
3.81133	88
3.81500	89
3.81867	88
3.82233	88
3.82600	88
3.82967	88
3.83333	84
3.83700	83
3.84067	83
3.84433	83
3.84800	82
3.85167	81
3.85533	80
3.85900	81
3.86267	82
3.86633	81
3.87000	81
3.87367	82
3.87733	81
3.88100	78
3.88467	76
3.88833	75
3.89200	74
3.89567	75
3.89933	77
3.90300	76
3.90667	75
3.91033	75
3.91400	75
3.91767	73
3.92133	70
3.92500	68
3.92867	68
3.93233	67
3.93600	66
3.93967	64
3.94333	61
3.94700	59
3.95067	59
3.95433	60
3.95800	63
3.96167	63
3.96533	59
3.96900	54
3.97267	51
3.97633	50
3.98000	53
3.98367	53
3.98733	52
3.99100	50
3.99467	51
3.99833	53

[Status Trace (Column Oven Temperature)]
Interval(msec)	1000
# of Points	240
Start Time(min)	0.005
End Time(min)	3.989
Intensity Units	
Intensity Multiplier	1
R.Time (min)	Intensity
0.00520	34.98
0.02187	35.00
0.03853	35.01
0.05520	35.02
0.07187	35.04
0.08853	35.05
0.10520	35.06
0.12187	35.06
0.13853	35.07
0.15520	35.06
0.17187	35.03
0.18853	35.01
0.20520	35.00
0.22187	34.99
0.23853	34.98
0.25520	34.97
0.27187	34.97
0.28853	34.97
0.30520	34.97
0.32187	34.97
0.33853	34.98
0.35520	34.98
0.37187	34.99
0.38853	34.99
0.40520	34.99
0.42187	34.99
0.43853	35.00
0.45520	35.02
0.47187	35.02
0.48853	35.02
0.50520	35.01
0.52187	35.01
0.53853	35.01
0.55520	35.00
0.57187	34.98
0.58853	34.99
0.60520	34.99
0.62187	34.99
0.63853	35.00
0.65520	35.01
0.67187	35.01
0.68853	35.01
0.70520	35.02
0.72187	35.01
0.73853	35.01
0.75520	35.00
0.77187	34.99
0.78853	34.98
0.80520	34.97
0.82187	34.97
0.83853	34.96
0.85520	34.96
0.87187	34.95
0.88853	34.96
0.90520	34.96
0.92187	34.96
0.93853	34.95
0.95520	34.95
0.97187	34.96
0.98853	34.96
1.00520	34.96
1.02187	34.98
1.03853	34.99
1.05520	35.00
1.07187	35.01
1.08853	35.02
1.10520	35.02
1.12187	35.01
1.13853	35.00
1.15520	34.99
1.17187	34.98
1.18853	34.97
1.20520	34.97
1.22187	34.96
1.23853	34.96
1.25520	34.96
1.27187	34.97
1.28853	34.97
1.30520	34.98
1.32187	34.99
1.33853	34.99
1.35520	34.99
1.37187	34.99
1.38853	34.99
1.40520	34.99
1.42187	34.98
1.43853	34.99
1.45520	34.99
1.47187	35.00
1.48853	34.99
1.50520	34.98
1.52187	34.98
1.53853	34.98
1.55520	34.98
1.57187	34.97
1.58853	34.99
1.60520	35.03
1.62187	35.14
1.63853	35.33
1.65520	35.57
1.67187	35.89
1.68853	36.27
1.70520	36.63
1.72187	36.95
1.73853	37.27
1.75520	37.62
1.77187	37.95
1.78853	38.27
1.80520	38.61
1.82187	38.96
1.83853	39.26
1.85520	39.58
1.87187	39.92
1.88853	40.26
1.90520	40.59
1.92187	40.91
1.93853	41.23
1.95520	41.57
1.97187	41.90
1.98853	42.21
2.00520	42.54
2.02187	42.88
2.03853	43.20
2.05520	43.51
2.07187	43.85
2.08853	44.17
2.10520	44.50
2.12187	44.82
2.13853	45.14
2.15520	45.47
2.17187	45.79
2.18853	46.13
2.20520	46.46
2.22187	46.76
2.23853	47.10
2.25520	47.40
2.27187	47.79
2.28853	48.12
2.30520	48.44
2.32187	48.80
2.33853	49.09
2.35520	49.38
2.37187	49.63
2.38853	49.72
2.40520	49.72
2.42187	49.71
2.43853	49.73
2.45520	49.71
2.47187	49.73
2.48853	49.74
2.50520	49.76
2.52187	49.77
2.53853	49.78
2.55520	49.81
2.57187	49.83
2.58853	49.82
2.60520	49.84
2.62187	49.84
2.63853	49.84
2.65520	49.86
2.67187	49.86
2.68853	49.85
2.70520	49.85
2.72187	49.85
2.73853	49.86
2.75520	49.89
2.77187	49.90
2.78853	49.91
2.80520	49.92
2.82187	49.91
2.83853	49.93
2.85520	49.94
2.87187	49.95
2.88853	49.96
2.90520	49.97
2.92187	49.97
2.93853	49.98
2.95520	49.99
2.97187	49.99
2.98853	50.00
3.00520	50.01
3.02187	50.03
3.03853	50.04
3.05520	50.06
3.07187	50.07
3.08853	50.10
3.10520	50.12
3.12187	50.13
3.13853	50.12
3.15520	50.10
3.17187	50.08
3.18853	50.06
3.20520	50.04
3.22187	50.01
3.23853	50.01
3.25520	50.00
3.27187	49.99
3.28853	49.98
3.30520	49.99
3.32187	49.99
3.33853	49.98
3.35520	50.00
3.37187	50.02
3.38853	50.03
3.40520	50.03
3.42187	50.04
3.43853	50.04
3.45520	50.04
3.47187	50.05
3.48853	50.05
3.50520	50.05
3.52187	50.06
3.53853	50.05
3.55520	50.07
3.57187	50.07
3.58853	50.07
3.60520	50.06
3.62187	50.06
3.63853	50.06
3.65520	50.06
3.67187	50.06
3.68853	50.05
3.70520	50.05
3.72187	50.06
3.73853	50.07
3.75520	50.07
3.77187	50.07
3.78853	50.08
3.80520	50.07
3.82187	50.07
3.83853	50.07
3.85520	50.07
3.87187	50.07
3.88853	50.08
3.90520	50.08
3.92187	50.08
3.93853	50.08
3.95520	50.08
3.97187	50.07
3.98853	50.06

[Status Trace (Injection Unit Temperature)]
Interval(msec)	1000
# of Points	240
Start Time(min)	0.005
End Time(min)	3.989
Intensity Units	
Intensity Multiplier	1
R.Time (min)	Intensity
0.00520	99.99
0.02187	99.99
0.03853	99.99
0.05520	99.99
0.07187	99.99
0.08853	99.99
0.10520	99.99
0.12187	99.99
0.13853	99.99
0.15520	99.99
0.17187	99.99
0.18853	99.98
0.20520	99.99
0.22187	99.99
0.23853	99.98
0.25520	99.98
0.27187	99.99
0.28853	99.99
0.30520	99.99
0.32187	99.98
0.33853	99.98
0.35520	99.99
0.37187	99.98
0.38853	99.99
0.40520	99.99
0.42187	99.98
0.43853	99.98
0.45520	99.98
0.47187	99.99
0.48853	99.98
0.50520	99.99
0.52187	99.99
0.53853	99.99
0.55520	99.98
0.57187	99.98
0.58853	99.99
0.60520	99.99
0.62187	99.99
0.63853	99.99
0.65520	99.99
0.67187	99.99
0.68853	99.99
0.70520	99.99
0.72187	99.99
0.73853	99.99
0.75520	99.99
0.77187	99.99
0.78853	99.99
0.80520	99.99
0.82187	99.99
0.83853	99.99
0.85520	99.99
0.87187	99.99
0.88853	100.00
0.90520	99.99
0.92187	99.99
0.93853	99.99
0.95520	99.99
0.97187	99.99
0.98853	99.99
1.00520	100.00
1.02187	99.99
1.03853	99.99
1.05520	99.99
1.07187	99.99
1.08853	99.99
1.10520	99.99
1.12187	99.99
1.13853	99.99
1.15520	99.99
1.17187	99.99
1.18853	99.99
1.20520	99.99
1.22187	99.99
1.23853	99.99
1.25520	99.99
1.27187	100.00
1.28853	99.99
1.30520	99.99
1.32187	100.00
1.33853	99.99
1.35520	99.99
1.37187	99.99
1.38853	99.99
1.40520	99.99
1.42187	99.98
1.43853	99.99
1.45520	99.99
1.47187	99.99
1.48853	99.99
1.50520	99.99
1.52187	99.99
1.53853	99.99
1.55520	99.99
1.57187	99.99
1.58853	99.99
1.60520	99.99
1.62187	99.98
1.63853	99.99
1.65520	99.98
1.67187	99.99
1.68853	99.99
1.70520	99.99
1.72187	99.99
1.73853	99.99
1.75520	99.99
1.77187	99.99
1.78853	99.99
1.80520	99.99
1.82187	99.98
1.83853	99.99
1.85520	99.99
1.87187	99.98
1.88853	99.99
1.90520	99.98
1.92187	99.99
1.93853	99.98
1.95520	99.98
1.97187	99.98
1.98853	99.98
2.00520	99.99
2.02187	99.98
2.03853	99.98
2.05520	99.98
2.07187	99.98
2.08853	99.98
2.10520	99.98
2.12187	99.98
2.13853	99.97
2.15520	99.98
2.17187	99.98
2.18853	99.97
2.20520	99.98
2.22187	99.97
2.23853	99.98
2.25520	99.97
2.27187	99.98
2.28853	99.98
2.30520	99.98
2.32187	99.98
2.33853	99.97
2.35520	99.97
2.37187	99.97
2.38853	99.98
2.40520	99.98
2.42187	99.98
2.43853	99.98
2.45520	99.98
2.47187	99.98
2.48853	99.98
2.50520	99.98
2.52187	99.98
2.53853	99.98
2.55520	99.98
2.57187	99.98
2.58853	99.98
2.60520	99.98
2.62187	99.99
2.63853	99.99
2.65520	99.99
2.67187	99.99
2.68853	99.99
2.70520	99.99
2.72187	99.99
2.73853	99.99
2.75520	99.99
2.77187	99.99
2.78853	100.00
2.80520	100.00
2.82187	100.00
2.83853	100.00
2.85520	100.00
2.87187	100.01
2.88853	100.00
2.90520	100.00
2.92187	100.01
2.93853	100.01
2.95520	100.01
2.97187	100.01
2.98853	100.02
3.00520	100.01
3.02187	100.02
3.03853	100.02
3.05520	100.02
3.07187	100.03
3.08853	100.02
3.10520	100.02
3.12187	100.03
3.13853	100.03
3.15520	100.03
3.17187	100.03
3.18853	100.02
3.20520	100.03
3.22187	100.03
3.23853	100.04
3.25520	100.03
3.27187	100.04
3.28853	100.03
3.30520	100.04
3.32187	100.04
3.33853	100.04
3.35520	100.03
3.37187	100.04
3.38853	100.04
3.40520	100.04
3.42187	100.04
3.43853	100.04
3.45520	100.04
3.47187	100.05
3.48853	100.04
3.50520	100.05
3.52187	100.04
3.53853	100.05
3.55520	100.05
3.57187	100.05
3.58853	100.05
3.60520	100.05
3.62187	100.05
3.63853	100.05
3.65520	100.05
3.67187	100.05
3.68853	100.05
3.70520	100.05
3.72187	100.06
3.73853	100.05
3.75520	100.05
3.77187	100.06
3.78853	100.05
3.80520	100.06
3.82187	100.06
3.83853	100.06
3.85520	100.05
3.87187	100.05
3.88853	100.05
3.90520	100.06
3.92187	100.06
3.93853	100.06
3.95520	100.06
3.97187	100.06
3.98853	100.06

[Status Trace (Carrier Gas Pressure)]
Interval(msec)	1000
# of Points	240
Start Time(min)	0.005
End Time(min)	3.989
Intensity Units	
Intensity Multiplier	1
R.Time (min)	Intensity
0.00520	58.00
0.02187	55.82
0.03853	56.71
0.05520	58.80
0.07187	59.77
0.08853	58.18
0.10520	57.97
0.12187	58.01
0.13853	58.01
0.15520	58.01
0.17187	58.00
0.18853	58.00
0.20520	58.00
0.22187	58.00
0.23853	58.00
0.25520	58.00
0.27187	58.00
0.28853	58.00
0.30520	58.00
0.32187	58.00
0.33853	58.00
0.35520	58.00
0.37187	58.00
0.38853	58.00
0.40520	58.00
0.42187	58.00
0.43853	58.00
0.45520	58.00
0.47187	58.00
0.48853	58.00
0.50520	58.00
0.52187	58.00
0.53853	58.00
0.55520	58.00
0.57187	58.00
0.58853	58.00
0.60520	58.00
0.62187	58.00
0.63853	58.00
0.65520	58.00
0.67187	58.00
0.68853	58.00
0.70520	58.00
0.72187	58.00
0.73853	58.00
0.75520	58.00
0.77187	58.00
0.78853	58.00
0.80520	58.00
0.82187	58.00
0.83853	58.00
0.85520	58.00
0.87187	58.00
0.88853	58.00
0.90520	58.00
0.92187	58.00
0.93853	58.00
0.95520	58.00
0.97187	58.00
0.98853	58.00
1.00520	58.00
1.02187	58.00
1.03853	58.00
1.05520	58.00
1.07187	58.00
1.08853	58.00
1.10520	58.00
1.12187	58.00
1.13853	58.00
1.15520	58.00
1.17187	58.00
1.18853	58.00
1.20520	58.00
1.22187	58.00
1.23853	58.00
1.25520	58.00
1.27187	58.00
1.28853	58.00
1.30520	58.00
1.32187	58.00
1.33853	58.00
1.35520	58.00
1.37187	58.00
1.38853	58.00
1.40520	58.00
1.42187	58.00
1.43853	58.00
1.45520	58.00
1.47187	58.00
1.48853	58.00
1.50520	58.00
1.52187	58.00
1.53853	58.00
1.55520	58.00
1.57187	58.00
1.58853	58.00
1.60520	58.00
1.62187	58.00
1.63853	58.00
1.65520	58.00
1.67187	58.01
1.68853	58.01
1.70520	58.00
1.72187	58.00
1.73853	58.00
1.75520	58.00
1.77187	58.00
1.78853	58.00
1.80520	58.00
1.82187	58.00
1.83853	58.00
1.85520	58.00
1.87187	58.00
1.88853	58.00
1.90520	58.00
1.92187	58.00
1.93853	58.00
1.95520	58.00
1.97187	58.00
1.98853	58.00
2.00520	58.00
2.02187	58.00
2.03853	58.00
2.05520	58.00
2.07187	58.00
2.08853	58.00
2.10520	58.00
2.12187	58.00
2.13853	58.00
2.15520	58.00
2.17187	58.00
2.18853	58.00
2.20520	58.00
2.22187	58.00
2.23853	58.00
2.25520	58.00
2.27187	58.00
2.28853	58.00
2.30520	58.00
2.32187	58.00
2.33853	58.00
2.35520	58.00
2.37187	58.00
2.38853	57.99
2.40520	57.99
2.42187	58.00
2.43853	58.00
2.45520	58.00
2.47187	58.00
2.48853	58.00
2.50520	57.99
2.52187	57.99
2.53853	58.00
2.55520	58.00
2.57187	58.00
2.58853	58.00
2.60520	58.00
2.62187	58.00
2.63853	58.00
2.65520	58.00
2.67187	58.00
2.68853	58.00
2.70520	58.00
2.72187	58.00
2.73853	58.00
2.75520	58.00
2.77187	58.00
2.78853	58.00
2.80520	58.00
2.82187	58.00
2.83853	58.00
2.85520	58.00
2.87187	58.00
2.88853	58.00
2.90520	58.00
2.92187	58.00
2.93853	58.00
2.95520	58.00
2.97187	58.00
2.98853	58.00
3.00520	58.00
3.02187	58.00
3.03853	58.00
3.05520	58.00
3.07187	58.00
3.08853	58.00
3.10520	58.00
3.12187	58.00
3.13853	58.00
3.15520	58.00
3.17187	58.00
3.18853	58.00
3.20520	58.00
3.22187	58.00
3.23853	58.00
3.25520	58.00
3.27187	58.00
3.28853	58.00
3.30520	58.00
3.32187	58.00
3.33853	58.00
3.35520	58.00
3.37187	58.00
3.38853	58.00
3.40520	58.00
3.42187	58.00
3.43853	58.00
3.45520	58.00
3.47187	58.00
3.48853	58.00
3.50520	58.00
3.52187	58.00
3.53853	58.00
3.55520	58.00
3.57187	58.00
3.58853	58.00
3.60520	58.00
3.62187	58.00
3.63853	58.00
3.65520	58.00
3.67187	58.00
3.68853	58.00
3.70520	58.00
3.72187	58.00
3.73853	58.00
3.75520	58.00
3.77187	58.00
3.78853	58.00
3.80520	58.00
3.82187	58.00
3.83853	58.00
3.85520	58.00
3.87187	58.00
3.88853	58.00
3.90520	58.00
3.92187	58.00
3.93853	58.00
3.95520	58.00
3.97187	58.00
3.98853	58.00

[Status Trace (Carrier Gas Flow)]
Interval(msec)	1000
# of Points	240
Start Time(min)	0.005
End Time(min)	3.989
Intensity Units	
Intensity Multiplier	1
R.Time (min)	Intensity
0.00520	34.52
0.02187	34.55
0.03853	34.54
0.05520	34.55
0.07187	34.50
0.08853	34.50
0.10520	34.52
0.12187	34.54
0.13853	34.51
0.15520	34.53
0.17187	34.52
0.18853	34.52
0.20520	34.52
0.22187	34.52
0.23853	34.52
0.25520	34.53
0.27187	34.50
0.28853	34.50
0.30520	34.51
0.32187	34.51
0.33853	34.53
0.35520	34.52
0.37187	34.52
0.38853	34.52
0.40520	34.50
0.42187	34.52
0.43853	34.52
0.45520	34.52
0.47187	34.52
0.48853	34.52
0.50520	34.52
0.52187	34.52
0.53853	34.52
0.55520	34.52
0.57187	34.52
0.58853	34.52
0.60520	34.52
0.62187	34.52
0.63853	34.51
0.65520	34.52
0.67187	34.52
0.68853	34.52
0.70520	34.52
0.72187	34.52
0.73853	34.52
0.75520	34.53
0.77187	34.52
0.78853	34.52
0.80520	34.52
0.82187	34.52
0.83853	34.52
0.85520	34.51
0.87187	34.52
0.88853	34.52
0.90520	34.52
0.92187	34.52
0.93853	34.52
0.95520	34.52
0.97187	34.52
0.98853	34.52
1.00520	34.52
1.02187	34.52
1.03853	34.52
1.05520	34.52
1.07187	34.52
1.08853	34.52
1.10520	34.52
1.12187	34.52
1.13853	34.52
1.15520	34.52
1.17187	34.51
1.18853	34.53
1.20520	34.52
1.22187	34.52
1.23853	34.52
1.25520	34.52
1.27187	34.52
1.28853	34.52
1.30520	34.52
1.32187	34.52
1.33853	34.52
1.35520	34.52
1.37187	34.52
1.38853	34.51
1.40520	34.52
1.42187	34.52
1.43853	34.52
1.45520	34.52
1.47187	34.52
1.48853	34.52
1.50520	34.52
1.52187	34.52
1.53853	34.52
1.55520	34.52
1.57187	34.52
1.58853	34.52
1.60520	34.52
1.62187	34.52
1.63853	34.52
1.65520	34.52
1.67187	34.52
1.68853	34.52
1.70520	34.52
1.72187	34.52
1.73853	34.52
1.75520	34.52
1.77187	34.52
1.78853	34.52
1.80520	34.52
1.82187	34.52
1.83853	34.52
1.85520	34.52
1.87187	34.52
1.88853	34.52
1.90520	34.52
1.92187	34.52
1.93853	34.52
1.95520	34.52
1.97187	34.52
1.98853	34.52
2.00520	34.52
2.02187	34.52
2.03853	34.52
2.05520	34.52
2.07187	34.52
2.08853	34.52
2.10520	34.52
2.12187	34.52
2.13853	34.52
2.15520	34.52
2.17187	34.52
2.18853	34.52
2.20520	34.52
2.22187	34.52
2.23853	34.52
2.25520	34.52
2.27187	34.52
2.28853	34.52
2.30520	34.52
2.32187	34.52
2.33853	34.52
2.35520	34.52
2.37187	34.52
2.38853	34.53
2.40520	34.52
2.42187	34.52
2.43853	34.52
2.45520	34.52
2.47187	34.52
2.48853	34.52
2.50520	34.55
2.52187	34.52
2.53853	34.52
2.55520	34.52
2.57187	34.52
2.58853	34.52
2.60520	34.52
2.62187	34.52
2.63853	34.52
2.65520	34.52
2.67187	34.52
2.68853	34.52
2.70520	34.52
2.72187	34.52
2.73853	34.52
2.75520	34.52
2.77187	34.52
2.78853	34.52
2.80520	34.52
2.82187	34.52
2.83853	34.52
2.85520	34.52
2.87187	34.52
2.88853	34.52
2.90520	34.52
2.92187	34.52
2.93853	34.52
2.95520	34.52
2.97187	34.52
2.98853	34.52
3.00520	34.52
3.02187	34.52
3.03853	34.52
3.05520	34.52
3.07187	34.52
3.08853	34.52
3.10520	34.52
3.12187	34.52
3.13853	34.52
3.15520	34.52
3.17187	34.52
3.18853	34.52
3.20520	34.52
3.22187	34.52
3.23853	34.52
3.25520	34.52
3.27187	34.52
3.28853	34.52
3.30520	34.52
3.32187	34.52
3.33853	34.52
3.35520	34.52
3.37187	34.53
3.38853	34.52
3.40520	34.52
3.42187	34.52
3.43853	34.52
3.45520	34.52
3.47187	34.52
3.48853	34.52
3.50520	34.52
3.52187	34.52
3.53853	34.52
3.55520	34.52
3.57187	34.52
3.58853	34.52
3.60520	34.52
3.62187	34.52
3.63853	34.52
3.65520	34.52
3.67187	34.52
3.68853	34.52
3.70520	34.52
3.72187	34.52
3.73853	34.52
3.75520	34.52
3.77187	34.52
3.78853	34.52
3.80520	34.52
3.82187	34.52
3.83853	34.52
3.85520	34.52
3.87187	34.52
3.88853	34.52
3.90520	34.52
3.92187	34.52
3.93853	34.52
3.95520	34.51
3.97187	34.52
3.98853	34.52

[Status Trace (Column Flow)]
Interval(msec)	1000
# of Points	240
Start Time(min)	0.005
End Time(min)	3.989
Intensity Units	
Intensity Multiplier	1
R.Time (min)	Intensity
0.00520	5.56
0.02187	5.30
0.03853	5.41
0.05520	5.65
0.07187	5.76
0.08853	5.58
0.10520	5.55
0.12187	5.56
0.13853	5.56
0.15520	5.56
0.17187	5.56
0.18853	5.56
0.20520	5.56
0.22187	5.56
0.23853	5.56
0.25520	5.56
0.27187	5.56
0.28853	5.56
0.30520	5.56
0.32187	5.56
0.33853	5.56
0.35520	5.56
0.37187	5.56
0.38853	5.56
0.40520	5.56
0.42187	5.56
0.43853	5.56
0.45520	5.56
0.47187	5.56
0.48853	5.56
0.50520	5.56
0.52187	5.56
0.53853	5.56
0.55520	5.56
0.57187	5.56
0.58853	5.56
0.60520	5.56
0.62187	5.56
0.63853	5.56
0.65520	5.56
0.67187	5.56
0.68853	5.56
0.70520	5.56
0.72187	5.56
0.73853	5.56
0.75520	5.56
0.77187	5.56
0.78853	5.56
0.80520	5.56
0.82187	5.56
0.83853	5.56
0.85520	5.56
0.87187	5.56
0.88853	5.56
0.90520	5.56
0.92187	5.56
0.93853	5.56
0.95520	5.56
0.97187	5.56
0.98853	5.56
1.00520	5.56
1.02187	5.56
1.03853	5.56
1.05520	5.56
1.07187	5.56
1.08853	5.56
1.10520	5.56
1.12187	5.56
1.13853	5.56
1.15520	5.56
1.17187	5.56
1.18853	5.56
1.20520	5.56
1.22187	5.56
1.23853	5.56
1.25520	5.56
1.27187	5.56
1.28853	5.56
1.30520	5.56
1.32187	5.56
1.33853	5.56
1.35520	5.56
1.37187	5.56
1.38853	5.56
1.40520	5.56
1.42187	5.56
1.43853	5.56
1.45520	5.56
1.47187	5.56
1.48853	5.56
1.50520	5.56
1.52187	5.56
1.53853	5.56
1.55520	5.56
1.57187	5.56
1.58853	5.56
1.60520	5.56
1.62187	5.55
1.63853	5.55
1.65520	5.54
1.67187	5.53
1.68853	5.52
1.70520	5.51
1.72187	5.50
1.73853	5.49
1.75520	5.47
1.77187	5.46
1.78853	5.45
1.80520	5.44
1.82187	5.43
1.83853	5.42
1.85520	5.41
1.87187	5.40
1.88853	5.39
1.90520	5.38
1.92187	5.37
1.93853	5.36
1.95520	5.35
1.97187	5.34
1.98853	5.33
2.00520	5.33
2.02187	5.32
2.03853	5.31
2.05520	5.30
2.07187	5.29
2.08853	5.28
2.10520	5.27
2.12187	5.26
2.13853	5.25
2.15520	5.24
2.17187	5.23
2.18853	5.22
2.20520	5.21
2.22187	5.20
2.23853	5.19
2.25520	5.18
2.27187	5.17
2.28853	5.16
2.30520	5.15
2.32187	5.14
2.33853	5.14
2.35520	5.13
2.37187	5.12
2.38853	5.12
2.40520	5.12
2.42187	5.12
2.43853	5.12
2.45520	5.12
2.47187	5.12
2.48853	5.12
2.50520	5.12
2.52187	5.12
2.53853	5.12
2.55520	5.12
2.57187	5.12
2.58853	5.12
2.60520	5.12
2.62187	5.12
2.63853	5.12
2.65520	5.11
2.67187	5.11
2.68853	5.11
2.70520	5.11
2.72187	5.12
2.73853	5.11
2.75520	5.11
2.77187	5.11
2.78853	5.11
2.80520	5.11
2.82187	5.11
2.83853	5.11
2.85520	5.11
2.87187	5.11
2.88853	5.11
2.90520	5.11
2.92187	5.11
2.93853	5.11
2.95520	5.11
2.97187	5.11
2.98853	5.11
3.00520	5.11
3.02187	5.11
3.03853	5.11
3.05520	5.11
3.07187	5.11
3.08853	5.11
3.10520	5.11
3.12187	5.11
3.13853	5.11
3.15520	5.11
3.17187	5.11
3.18853	5.11
3.20520	5.11
3.22187	5.11
3.23853	5.11
3.25520	5.11
3.27187	5.11
3.28853	5.11
3.30520	5.11
3.32187	5.11
3.33853	5.11
3.35520	5.11
3.37187	5.11
3.38853	5.11
3.40520	5.11
3.42187	5.11
3.43853	5.11
3.45520	5.11
3.47187	5.11
3.48853	5.11
3.50520	5.11
3.52187	5.11
3.53853	5.11
3.55520	5.11
3.57187	5.11
3.58853	5.11
3.60520	5.11
3.62187	5.11
3.63853	5.11
3.65520	5.11
3.67187	5.11
3.68853	5.11
3.70520	5.11
3.72187	5.11
3.73853	5.11
3.75520	5.11
3.77187	5.11
3.78853	5.11
3.80520	5.11
3.82187	5.11
3.83853	5.11
3.85520	5.11
3.87187	5.11
3.88853	5.11
3.90520	5.11
3.92187	5.11
3.93853	5.11
3.95520	5.11
3.97187	5.11
3.98853	5.11

[Status Trace (Linear Velocity)]
Interval(msec)	1000
# of Points	240
Start Time(min)	0.005
End Time(min)	3.989
Intensity Units	
Intensity Multiplier	1
R.Time (min)	Intensity
0.00520	39.03
0.02187	37.59
0.03853	38.18
0.05520	39.55
0.07187	40.18
0.08853	39.14
0.10520	39.00
0.12187	39.02
0.13853	39.03
0.15520	39.02
0.17187	39.02
0.18853	39.03
0.20520	39.03
0.22187	39.03
0.23853	39.03
0.25520	39.03
0.27187	39.03
0.28853	39.03
0.30520	39.03
0.32187	39.03
0.33853	39.03
0.35520	39.03
0.37187	39.03
0.38853	39.03
0.40520	39.03
0.42187	39.03
0.43853	39.03
0.45520	39.02
0.47187	39.02
0.48853	39.02
0.50520	39.02
0.52187	39.02
0.53853	39.02
0.55520	39.03
0.57187	39.03
0.58853	39.03
0.60520	39.03
0.62187	39.03
0.63853	39.02
0.65520	39.02
0.67187	39.02
0.68853	39.02
0.70520	39.02
0.72187	39.02
0.73853	39.02
0.75520	39.02
0.77187	39.03
0.78853	39.03
0.80520	39.03
0.82187	39.03
0.83853	39.03
0.85520	39.03
0.87187	39.03
0.88853	39.03
0.90520	39.03
0.92187	39.03
0.93853	39.03
0.95520	39.03
0.97187	39.03
0.98853	39.03
1.00520	39.03
1.02187	39.03
1.03853	39.03
1.05520	39.03
1.07187	39.02
1.08853	39.02
1.10520	39.02
1.12187	39.02
1.13853	39.02
1.15520	39.03
1.17187	39.03
1.18853	39.03
1.20520	39.03
1.22187	39.03
1.23853	39.03
1.25520	39.03
1.27187	39.03
1.28853	39.03
1.30520	39.03
1.32187	39.03
1.33853	39.03
1.35520	39.03
1.37187	39.03
1.38853	39.03
1.40520	39.03
1.42187	39.03
1.43853	39.03
1.45520	39.03
1.47187	39.02
1.48853	39.03
1.50520	39.03
1.52187	39.03
1.53853	39.03
1.55520	39.03
1.57187	39.03
1.58853	39.03
1.60520	39.02
1.62187	39.01
1.63853	39.00
1.65520	38.97
1.67187	38.94
1.68853	38.91
1.70520	38.87
1.72187	38.84
1.73853	38.81
1.75520	38.78
1.77187	38.74
1.78853	38.71
1.80520	38.68
1.82187	38.65
1.83853	38.62
1.85520	38.59
1.87187	38.56
1.88853	38.53
1.90520	38.49
1.92187	38.46
1.93853	38.44
1.95520	38.40
1.97187	38.37
1.98853	38.34
2.00520	38.31
2.02187	38.28
2.03853	38.25
2.05520	38.22
2.07187	38.19
2.08853	38.16
2.10520	38.13
2.12187	38.10
2.13853	38.08
2.15520	38.05
2.17187	38.02
2.18853	37.99
2.20520	37.96
2.22187	37.93
2.23853	37.90
2.25520	37.87
2.27187	37.84
2.28853	37.81
2.30520	37.78
2.32187	37.75
2.33853	37.72
2.35520	37.69
2.37187	37.67
2.38853	37.66
2.40520	37.66
2.42187	37.66
2.43853	37.66
2.45520	37.66
2.47187	37.66
2.48853	37.66
2.50520	37.65
2.52187	37.65
2.53853	37.66
2.55520	37.66
2.57187	37.65
2.58853	37.66
2.60520	37.66
2.62187	37.65
2.63853	37.65
2.65520	37.65
2.67187	37.65
2.68853	37.65
2.70520	37.65
2.72187	37.65
2.73853	37.65
2.75520	37.65
2.77187	37.65
2.78853	37.65
2.80520	37.65
2.82187	37.65
2.83853	37.65
2.85520	37.65
2.87187	37.65
2.88853	37.64
2.90520	37.64
2.92187	37.64
2.93853	37.64
2.95520	37.64
2.97187	37.64
2.98853	37.64
3.00520	37.64
3.02187	37.64
3.03853	37.64
3.05520	37.64
3.07187	37.63
3.08853	37.63
3.10520	37.63
3.12187	37.63
3.13853	37.63
3.15520	37.63
3.17187	37.63
3.18853	37.64
3.20520	37.64
3.22187	37.64
3.23853	37.64
3.25520	37.64
3.27187	37.64
3.28853	37.64
3.30520	37.64
3.32187	37.64
3.33853	37.64
3.35520	37.64
3.37187	37.64
3.38853	37.64
3.40520	37.64
3.42187	37.64
3.43853	37.64
3.45520	37.64
3.47187	37.64
3.48853	37.64
3.50520	37.64
3.52187	37.64
3.53853	37.64
3.55520	37.64
3.57187	37.63
3.58853	37.63
3.60520	37.63
3.62187	37.64
3.63853	37.63
3.65520	37.63
3.67187	37.64
3.68853	37.64
3.70520	37.64
3.72187	37.64
3.73853	37.63
3.75520	37.63
3.77187	37.63
3.78853	37.63
3.80520	37.63
3.82187	37.63
3.83853	37.63
3.85520	37.63
3.87187	37.63
3.88853	37.63
3.90520	37.63
3.92187	37.63
3.93853	37.63
3.95520	37.63
3.97187	37.63
3.98853	37.63

