[Header]
Application Name	LabSolutions
Version	5.110
Data File Name	C:\Users\User\Desktop\GC Analyses\Jack\UIC Prairie Sampling\9.2.22\220902_040.gcd
Output Date	10/28/2022
Output Time	1:23:54 PM

[File Information]
Type	Data File
Generated	10/26/2022 11:33:46 AM
Generated by	System Administrator
Modified	10/26/2022 11:38:05 AM
Modified by	System Administrator

[Sample Information]
Operator Name	System Administrator
Acquired	10/26/2022 11:34:04 AM
Sample Type	1:Standard
Level	1
Sample Name	220902_UICPrairie
Sample ID	220902_UICPrairie
ISTD Amount1	1
ISTD Amount2	1
ISTD Amount3	1
ISTD Amount4	1
ISTD Amount5	1
ISTD Amount6	1
ISTD Amount7	1
ISTD Amount8	1
ISTD Amount9	1
ISTD Amount10	1
ISTD Amount11	1
ISTD Amount12	1
ISTD Amount13	1
ISTD Amount14	1
ISTD Amount15	1
ISTD Amount16	1
ISTD Amount17	1
ISTD Amount18	1
ISTD Amount19	1
ISTD Amount20	1
ISTD Amount21	1
ISTD Amount22	1
ISTD Amount23	1
ISTD Amount24	1
ISTD Amount25	1
ISTD Amount26	1
ISTD Amount27	1
ISTD Amount28	1
ISTD Amount29	1
ISTD Amount30	1
ISTD Amount31	1
ISTD Amount32	1
Sample Amount	1
Dilution Factor	1
Vial#	1
Injection Volume	1
Injection Count	1
Bar Code	

[Original Files]
Data File	C:\Users\User\Desktop\GC Analyses\Jack\UIC Prairie Sampling\9.2.22\220902_040.gcd
Method File	C:\LabSolutions\Data\GHG_4min_2022\ghg3_togas_w_acet_4 min_new_int.gcm
Batch File	
Report Format File	c:\LabSolutions\System\DEFAULT.lsr

[File Description]


[Configuration]
Instrument Name	C0B7VH3-Instrument1
Instrument #	1
Line #	1
# of Detectors	3
Detector ID	DET#1	DET#2	DET#3
Detector Name	FID	PTCD	ECD
# of Channels	1	1	1

[Peak Table(Ch1)]
# of Peaks	3
Peak#	R.Time	I.Time	F.Time	Area	Height	A/H	Conc.	Mark	ID#	Name	k'	Plate #	Plate Ht.	Tailing	Resolution	Sep.Factor	Area Ratio	Height Ratio	Conc. %	Norm Conc.
1	1.472	1.439	1.534	4616	1662	2.777	100.000	   	1	CO	0.000	6169	24.316	1.551	0.000	0.000	0	0	16.667	16.667
2	1.571	1.534	1.655	20264	10184	1.990	100.000	 V 	2	CH4	0.067	11532	13.007	1.151	1.483	0.000	0	0	16.667	16.667
3	1.996	1.945	2.334	2158235	1044697	2.066	400.000	   	3	CO2	0.356	17605	8.520	1.305	7.167	5.296	0	0	66.667	66.667

[Peak Table(Ch2)]
# of Peaks	0

[Peak Table(Ch3)]
# of Peaks	4
Peak#	R.Time	I.Time	F.Time	Area	Height	A/H	Conc.	Mark	ID#	Name	k'	Plate #	Plate Ht.	Tailing	Resolution	Sep.Factor	Area Ratio	Height Ratio	Conc. %	Norm Conc.
1	1.069	0.834	1.091	109	13	8.127	0.000	   			0.000	219	684.512	0.562	0.000	0.000	0	0	0.000	0.000
2	2.598	2.337	2.645	3313	296	11.189	0.000	   			1.431	1983	75.630	0.585	5.857	0.000	0	0	0.000	0.000
3	2.770	2.660	2.810	1092	169	6.445	0.011	   	1	N2O	1.592	226	662.492	0.000	0.355	1.113	0	0	1.071	1.071
4	2.884	2.810	3.995	100810	15372	6.558	0.989	 V 	1	N2O	1.698	12660	11.849	6.812	0.271	1.067	0	0	98.929	98.929

[Compound Results(Ch1)]
# of IDs	6
ID#	Name	R.Time	Area	Height	Conc.	Curve	3rd	2nd	1st	Constant	Area Ratio	Height Ratio	Conc. %	Norm Conc.
1	CO	1.472	4616	1662	100.000	Linear	0.000000e+00	0.000000e+00	4.615588e+001	0.000000e+00	0	0	16.667	16.667
2	CH4	1.571	20264	10184	100.000	Linear	0.000000e+00	0.000000e+00	2.026420e+002	0.000000e+00	0	0	16.667	16.667
3	CO2	1.996	2158235	1044697	400.000	Linear	0.000000e+00	0.000000e+00	5.395588e+003	0.000000e+00	0	0	66.667	66.667
4	Ethylene	0.000	0	0	0.000	Linear	0.000000e+00	0.000000e+00	0.000000e+00	0.000000e+00	0	0	0.000	0.000
5	Acetylene	0.000	0	0	0.000	Linear	0.000000e+00	0.000000e+00	0.000000e+00	0.000000e+00	0	0	0.000	0.000
6	Ethane	0.000	0	0	0.000	Linear	0.000000e+00	0.000000e+00	0.000000e+00	0.000000e+00	0	0	0.000	0.000

[Compound Results(Ch2)]
# of IDs	5
ID#	Name	R.Time	Area	Height	Conc.	Curve	3rd	2nd	1st	Constant	Area Ratio	Height Ratio	Conc. %	Norm Conc.
1	Hydrogen	0.000	0	0	0.000	Linear	0.000000e+00	0.000000e+00	0.000000e+00	0.000000e+00	0	0	0.000	0.000
2	Oxygen	0.000	0	0	0.000	Linear	0.000000e+00	0.000000e+00	0.000000e+00	0.000000e+00	0	0	0.000	0.000
3	Nitrogen	0.000	0	0	0.000	Linear	0.000000e+00	0.000000e+00	0.000000e+00	0.000000e+00	0	0	0.000	0.000
4	Methane	0.000	0	0	0.000	Linear	0.000000e+00	0.000000e+00	0.000000e+00	0.000000e+00	0	0	0.000	0.000
5	Carbon Monoxide	0.000	0	0	0.000	Linear	0.000000e+00	0.000000e+00	0.000000e+00	0.000000e+00	0	0	0.000	0.000

[Compound Results(Ch3)]
# of IDs	2
ID#	Name	R.Time	Area	Height	Conc.	Curve	3rd	2nd	1st	Constant	Area Ratio	Height Ratio	Conc. %	Norm Conc.
1	N2O	2.884	101901	15542	1.000	Linear	0.000000e+00	0.000000e+00	1.019014e+005	0.000000e+00	0	0	100.000	100.000
2	SF6	0.000	0	0	0.000	Linear	0.000000e+00	0.000000e+00	0.000000e+00	0.000000e+00	0	0	0.000	0.000

[Group Results(Ch1)]
# of Groups	0

[Group Results(Ch2)]
# of Groups	0

[Group Results(Ch3)]
# of Groups	0

[Chromatogram (Ch1)]
Interval(msec)	220
# of Points	1091
Start Time(min)	0.002
End Time(min)	3.998
R.Time (min)	Intensity
0.00167	11
0.00533	10
0.00900	7
0.01267	4
0.01633	2
0.02000	0
0.02367	1
0.02733	-0
0.03100	-3
0.03467	-3
0.03833	2
0.04200	10
0.04567	14
0.04933	13
0.05300	9
0.05667	5
0.06033	1
0.06400	2
0.06767	8
0.07133	17
0.07500	27
0.07867	38
0.08233	52
0.08600	67
0.08967	75
0.09333	78
0.09700	79
0.10067	78
0.10433	80
0.10800	85
0.11167	93
0.11533	103
0.11900	114
0.12267	122
0.12633	126
0.13000	125
0.13367	120
0.13733	116
0.14100	114
0.14467	113
0.14833	109
0.15200	102
0.15567	96
0.15933	95
0.16300	99
0.16667	106
0.17033	110
0.17400	112
0.17767	113
0.18133	115
0.18500	123
0.18867	134
0.19233	145
0.19600	152
0.19967	155
0.20333	150
0.20700	137
0.21067	123
0.21433	115
0.21800	113
0.22167	117
0.22533	124
0.22900	128
0.23267	127
0.23633	121
0.24000	113
0.24367	106
0.24733	105
0.25100	112
0.25467	124
0.25833	138
0.26200	147
0.26567	152
0.26933	155
0.27300	160
0.27667	163
0.28033	166
0.28400	167
0.28767	169
0.29133	172
0.29500	175
0.29867	175
0.30233	175
0.30600	176
0.30967	178
0.31333	182
0.31700	191
0.32067	197
0.32433	198
0.32800	195
0.33167	193
0.33533	194
0.33900	200
0.34267	209
0.34633	218
0.35000	219
0.35367	213
0.35733	208
0.36100	203
0.36467	201
0.36833	201
0.37200	201
0.37567	198
0.37933	191
0.38300	186
0.38667	183
0.39033	181
0.39400	176
0.39767	169
0.40133	160
0.40500	152
0.40867	146
0.41233	144
0.41600	141
0.41967	137
0.42333	132
0.42700	124
0.43067	115
0.43433	109
0.43800	108
0.44167	110
0.44533	112
0.44900	110
0.45267	105
0.45633	100
0.46000	95
0.46367	88
0.46733	83
0.47100	83
0.47467	84
0.47833	82
0.48200	77
0.48567	73
0.48933	71
0.49300	67
0.49667	61
0.50033	57
0.50400	56
0.50767	57
0.51133	56
0.51500	57
0.51867	59
0.52233	61
0.52600	63
0.52967	67
0.53333	72
0.53700	75
0.54067	75
0.54433	74
0.54800	69
0.55167	60
0.55533	53
0.55900	48
0.56267	48
0.56633	50
0.57000	51
0.57367	52
0.57733	53
0.58100	52
0.58467	52
0.58833	55
0.59200	58
0.59567	60
0.59933	65
0.60300	72
0.60667	79
0.61033	80
0.61400	76
0.61767	72
0.62133	70
0.62500	70
0.62867	71
0.63233	67
0.63600	58
0.63967	47
0.64333	37
0.64700	32
0.65067	30
0.65433	35
0.65800	45
0.66167	52
0.66533	52
0.66900	46
0.67267	40
0.67633	35
0.68000	35
0.68367	39
0.68733	44
0.69100	45
0.69467	44
0.69833	40
0.70200	37
0.70567	37
0.70933	39
0.71300	43
0.71667	49
0.72033	54
0.72400	54
0.72767	51
0.73133	47
0.73500	44
0.73867	42
0.74233	41
0.74600	39
0.74967	39
0.75333	38
0.75700	39
0.76067	43
0.76433	45
0.76800	45
0.77167	44
0.77533	41
0.77900	39
0.78267	40
0.78633	42
0.79000	41
0.79367	37
0.79733	35
0.80100	37
0.80467	40
0.80833	40
0.81200	36
0.81567	33
0.81933	31
0.82300	31
0.82667	33
0.83033	39
0.83400	44
0.83767	45
0.84133	41
0.84500	35
0.84867	34
0.85233	37
0.85600	40
0.85967	40
0.86333	39
0.86700	37
0.87067	36
0.87433	31
0.87800	27
0.88167	21
0.88533	15
0.88900	14
0.89267	18
0.89633	26
0.90000	29
0.90367	25
0.90733	19
0.91100	16
0.91467	16
0.91833	16
0.92200	14
0.92567	9
0.92933	5
0.93300	3
0.93667	5
0.94033	8
0.94400	11
0.94767	9
0.95133	4
0.95500	-0
0.95867	-2
0.96233	2
0.96600	11
0.96967	22
0.97333	29
0.97700	28
0.98067	23
0.98433	17
0.98800	12
0.99167	8
0.99533	8
0.99900	6
1.00267	3
1.00633	3
1.01000	6
1.01367	8
1.01733	8
1.02100	10
1.02467	14
1.02833	20
1.03200	26
1.03567	32
1.03933	34
1.04300	27
1.04667	17
1.05033	7
1.05400	-1
1.05767	-3
1.06133	1
1.06500	7
1.06867	11
1.07233	12
1.07600	12
1.07967	12
1.08333	8
1.08700	3
1.09067	-1
1.09433	-2
1.09800	-3
1.10167	-4
1.10533	-5
1.10900	-5
1.11267	-7
1.11633	-9
1.12000	-7
1.12367	-5
1.12733	-5
1.13100	-6
1.13467	-9
1.13833	-13
1.14200	-16
1.14567	-16
1.14933	-14
1.15300	-9
1.15667	-5
1.16033	-4
1.16400	-7
1.16767	-13
1.17133	-18
1.17500	-21
1.17867	-21
1.18233	-16
1.18600	-8
1.18967	-2
1.19333	2
1.19700	4
1.20067	7
1.20433	9
1.20800	6
1.21167	3
1.21533	2
1.21900	-0
1.22267	-2
1.22633	-4
1.23000	-6
1.23367	-9
1.23733	-12
1.24100	-14
1.24467	-15
1.24833	-16
1.25200	-15
1.25567	-13
1.25933	-13
1.26300	-16
1.26667	-20
1.27033	-25
1.27400	-27
1.27767	-27
1.28133	-26
1.28500	-25
1.28867	-22
1.29233	-19
1.29600	-19
1.29967	-17
1.30333	-12
1.30700	-8
1.31067	-8
1.31433	-8
1.31800	-7
1.32167	-5
1.32533	-8
1.32900	-14
1.33267	-20
1.33633	-24
1.34000	-24
1.34367	-20
1.34733	-17
1.35100	-18
1.35467	-20
1.35833	-20
1.36200	-18
1.36567	-18
1.36933	-18
1.37300	-16
1.37667	-14
1.38033	-16
1.38400	-22
1.38767	-31
1.39133	-39
1.39500	-44
1.39867	-46
1.40233	-44
1.40600	-42
1.40967	-41
1.41333	-39
1.41700	-37
1.42067	-35
1.42433	-36
1.42800	-38
1.43167	-39
1.43533	-38
1.43900	-25
1.44267	51
1.44633	259
1.45000	578
1.45367	916
1.45733	1204
1.46100	1416
1.46467	1549
1.46833	1616
1.47200	1633
1.47567	1607
1.47933	1539
1.48300	1429
1.48667	1279
1.49033	1103
1.49400	922
1.49767	749
1.50133	592
1.50500	460
1.50867	355
1.51233	274
1.51600	212
1.51967	162
1.52333	121
1.52700	87
1.53067	59
1.53433	43
1.53800	69
1.54167	263
1.54533	890
1.54900	2176
1.55267	4014
1.55633	6010
1.56000	7791
1.56367	9151
1.56733	9978
1.57100	10143
1.57467	9547
1.57833	8283
1.58200	6653
1.58567	5006
1.58933	3580
1.59300	2466
1.59667	1655
1.60033	1092
1.60400	710
1.60767	458
1.61133	299
1.61500	197
1.61867	128
1.62233	83
1.62600	54
1.62967	36
1.63333	24
1.63700	12
1.64067	-3
1.64433	-17
1.64800	-30
1.65167	-41
1.65533	-51
1.65900	-55
1.66267	-56
1.66633	-55
1.67000	-54
1.67367	-54
1.67733	-49
1.68100	-45
1.68467	-44
1.68833	-46
1.69200	-49
1.69567	-52
1.69933	-53
1.70300	-52
1.70667	-51
1.71033	-50
1.71400	-49
1.71767	-49
1.72133	-49
1.72500	-50
1.72867	-51
1.73233	-52
1.73600	-53
1.73967	-56
1.74333	-58
1.74700	-58
1.75067	-61
1.75433	-64
1.75800	-67
1.76167	-65
1.76533	-62
1.76900	-59
1.77267	-56
1.77633	-53
1.78000	-51
1.78367	-47
1.78733	-45
1.79100	-43
1.79467	-40
1.79833	-36
1.80200	-32
1.80567	-28
1.80933	-23
1.81300	-17
1.81667	-12
1.82033	-9
1.82400	-11
1.82767	-17
1.83133	-22
1.83500	-26
1.83867	-30
1.84233	-37
1.84600	-41
1.84967	-41
1.85333	-40
1.85700	-37
1.86067	-30
1.86433	-29
1.86800	-31
1.87167	-34
1.87533	-37
1.87900	-42
1.88267	-45
1.88633	-45
1.89000	-44
1.89367	-41
1.89733	-36
1.90100	-32
1.90467	-30
1.90833	-28
1.91200	-22
1.91567	-14
1.91933	-11
1.92300	-14
1.92667	-20
1.93033	-25
1.93400	-28
1.93767	-29
1.94133	-27
1.94500	-19
1.94867	-9
1.95233	8
1.95600	125
1.95967	869
1.96333	4506
1.96700	17949
1.97067	55738
1.97433	137611
1.97800	275731
1.98167	460564
1.98533	661898
1.98900	843940
1.99267	977855
1.99633	1044715
2.00000	1036621
2.00367	958774
2.00733	829026
2.01100	673414
2.01467	517832
2.01833	380736
2.02200	270626
2.02567	187969
2.02933	128829
2.03300	87889
2.03667	60147
2.04033	41582
2.04400	29219
2.04767	20980
2.05133	15452
2.05500	11695
2.05867	9099
2.06233	7266
2.06600	5944
2.06967	4970
2.07333	4238
2.07700	3673
2.08067	3225
2.08433	2865
2.08800	2570
2.09167	2328
2.09533	2131
2.09900	1966
2.10267	1822
2.10633	1691
2.11000	1572
2.11367	1466
2.11733	1371
2.12100	1288
2.12467	1213
2.12833	1143
2.13200	1080
2.13567	1028
2.13933	983
2.14300	942
2.14667	903
2.15033	866
2.15400	833
2.15767	804
2.16133	775
2.16500	745
2.16867	714
2.17233	685
2.17600	659
2.17967	639
2.18333	624
2.18700	612
2.19067	599
2.19433	585
2.19800	571
2.20167	558
2.20533	547
2.20900	535
2.21267	522
2.21633	510
2.22000	497
2.22367	483
2.22733	470
2.23100	459
2.23467	449
2.23833	439
2.24200	430
2.24567	423
2.24933	417
2.25300	407
2.25667	397
2.26033	389
2.26400	382
2.26767	375
2.27133	367
2.27500	362
2.27867	367
2.28233	375
2.28600	378
2.28967	375
2.29333	365
2.29700	349
2.30067	330
2.30433	309
2.30800	292
2.31167	282
2.31533	278
2.31900	276
2.32267	273
2.32633	269
2.33000	266
2.33367	263
2.33733	264
2.34100	268
2.34467	273
2.34833	275
2.35200	272
2.35567	267
2.35933	261
2.36300	256
2.36667	254
2.37033	254
2.37400	254
2.37767	254
2.38133	252
2.38500	249
2.38867	248
2.39233	247
2.39600	249
2.39967	252
2.40333	255
2.40700	258
2.41067	264
2.41433	270
2.41800	277
2.42167	283
2.42533	287
2.42900	286
2.43267	281
2.43633	272
2.44000	267
2.44367	267
2.44733	266
2.45100	265
2.45467	264
2.45833	262
2.46200	259
2.46567	256
2.46933	254
2.47300	253
2.47667	252
2.48033	252
2.48400	249
2.48767	241
2.49133	233
2.49500	225
2.49867	220
2.50233	215
2.50600	208
2.50967	203
2.51333	198
2.51700	195
2.52067	199
2.52433	207
2.52800	214
2.53167	214
2.53533	208
2.53900	203
2.54267	206
2.54633	216
2.55000	225
2.55367	231
2.55733	230
2.56100	225
2.56467	218
2.56833	212
2.57200	209
2.57567	207
2.57933	205
2.58300	202
2.58667	198
2.59033	197
2.59400	199
2.59767	204
2.60133	211
2.60500	215
2.60867	215
2.61233	215
2.61600	215
2.61967	214
2.62333	213
2.62700	214
2.63067	217
2.63433	220
2.63800	223
2.64167	224
2.64533	223
2.64900	219
2.65267	215
2.65633	209
2.66000	202
2.66367	195
2.66733	188
2.67100	184
2.67467	181
2.67833	181
2.68200	181
2.68567	183
2.68933	183
2.69300	185
2.69667	192
2.70033	200
2.70400	205
2.70767	209
2.71133	212
2.71500	212
2.71867	208
2.72233	201
2.72600	195
2.72967	191
2.73333	191
2.73700	195
2.74067	205
2.74433	214
2.74800	217
2.75167	214
2.75533	208
2.75900	201
2.76267	193
2.76633	183
2.77000	176
2.77367	173
2.77733	172
2.78100	171
2.78467	172
2.78833	174
2.79200	179
2.79567	184
2.79933	186
2.80300	189
2.80667	193
2.81033	199
2.81400	206
2.81767	209
2.82133	210
2.82500	207
2.82867	204
2.83233	200
2.83600	195
2.83967	191
2.84333	190
2.84700	186
2.85067	179
2.85433	176
2.85800	178
2.86167	182
2.86533	185
2.86900	186
2.87267	184
2.87633	182
2.88000	182
2.88367	186
2.88733	190
2.89100	195
2.89467	197
2.89833	196
2.90200	192
2.90567	187
2.90933	183
2.91300	181
2.91667	179
2.92033	177
2.92400	173
2.92767	168
2.93133	165
2.93500	167
2.93867	168
2.94233	167
2.94600	166
2.94967	167
2.95333	169
2.95700	169
2.96067	170
2.96433	172
2.96800	178
2.97167	183
2.97533	187
2.97900	190
2.98267	194
2.98633	196
2.99000	194
2.99367	191
2.99733	190
3.00100	190
3.00467	190
3.00833	192
3.01200	194
3.01567	194
3.01933	194
3.02300	192
3.02667	188
3.03033	182
3.03400	176
3.03767	174
3.04133	176
3.04500	182
3.04867	188
3.05233	192
3.05600	194
3.05967	196
3.06333	195
3.06700	191
3.07067	188
3.07433	188
3.07800	188
3.08167	192
3.08533	198
3.08900	203
3.09267	200
3.09633	191
3.10000	178
3.10367	168
3.10733	162
3.11100	162
3.11467	162
3.11833	161
3.12200	160
3.12567	161
3.12933	163
3.13300	161
3.13667	157
3.14033	155
3.14400	155
3.14767	152
3.15133	150
3.15500	152
3.15867	155
3.16233	157
3.16600	159
3.16967	163
3.17333	169
3.17700	177
3.18067	183
3.18433	185
3.18800	183
3.19167	177
3.19533	171
3.19900	164
3.20267	157
3.20633	154
3.21000	156
3.21367	160
3.21733	162
3.22100	167
3.22467	171
3.22833	169
3.23200	165
3.23567	162
3.23933	162
3.24300	163
3.24667	163
3.25033	162
3.25400	162
3.25767	159
3.26133	153
3.26500	148
3.26867	145
3.27233	146
3.27600	150
3.27967	155
3.28333	158
3.28700	157
3.29067	154
3.29433	152
3.29800	153
3.30167	156
3.30533	160
3.30900	164
3.31267	165
3.31633	166
3.32000	165
3.32367	162
3.32733	158
3.33100	156
3.33467	156
3.33833	155
3.34200	148
3.34567	140
3.34933	132
3.35300	130
3.35667	130
3.36033	130
3.36400	129
3.36767	126
3.37133	122
3.37500	120
3.37867	122
3.38233	126
3.38600	128
3.38967	130
3.39333	137
3.39700	145
3.40067	149
3.40433	150
3.40800	152
3.41167	153
3.41533	150
3.41900	146
3.42267	141
3.42633	138
3.43000	135
3.43367	133
3.43733	132
3.44100	133
3.44467	135
3.44833	136
3.45200	135
3.45567	133
3.45933	132
3.46300	129
3.46667	127
3.47033	127
3.47400	128
3.47767	127
3.48133	127
3.48500	128
3.48867	129
3.49233	128
3.49600	125
3.49967	124
3.50333	124
3.50700	121
3.51067	118
3.51433	120
3.51800	125
3.52167	132
3.52533	139
3.52900	141
3.53267	139
3.53633	131
3.54000	122
3.54367	117
3.54733	118
3.55100	119
3.55467	115
3.55833	109
3.56200	106
3.56567	105
3.56933	107
3.57300	110
3.57667	113
3.58033	114
3.58400	116
3.58767	116
3.59133	119
3.59500	123
3.59867	126
3.60233	126
3.60600	124
3.60967	122
3.61333	123
3.61700	125
3.62067	126
3.62433	124
3.62800	123
3.63167	120
3.63533	114
3.63900	107
3.64267	104
3.64633	105
3.65000	108
3.65367	113
3.65733	120
3.66100	123
3.66467	123
3.66833	121
3.67200	118
3.67567	113
3.67933	110
3.68300	108
3.68667	105
3.69033	103
3.69400	104
3.69767	109
3.70133	115
3.70500	119
3.70867	123
3.71233	125
3.71600	121
3.71967	116
3.72333	112
3.72700	111
3.73067	113
3.73433	112
3.73800	109
3.74167	104
3.74533	101
3.74900	99
3.75267	100
3.75633	101
3.76000	101
3.76367	101
3.76733	101
3.77100	103
3.77467	105
3.77833	105
3.78200	104
3.78567	104
3.78933	106
3.79300	105
3.79667	103
3.80033	101
3.80400	101
3.80767	101
3.81133	99
3.81500	96
3.81867	93
3.82233	93
3.82600	92
3.82967	95
3.83333	99
3.83700	106
3.84067	114
3.84433	117
3.84800	117
3.85167	120
3.85533	124
3.85900	124
3.86267	119
3.86633	111
3.87000	105
3.87367	101
3.87733	101
3.88100	105
3.88467	108
3.88833	110
3.89200	110
3.89567	107
3.89933	102
3.90300	97
3.90667	98
3.91033	102
3.91400	107
3.91767	114
3.92133	121
3.92500	120
3.92867	110
3.93233	95
3.93600	81
3.93967	71
3.94333	66
3.94700	69
3.95067	76
3.95433	82
3.95800	87
3.96167	91
3.96533	93
3.96900	93
3.97267	90
3.97633	88
3.98000	86
3.98367	87
3.98733	92
3.99100	95
3.99467	98
3.99833	101

[Chromatogram (Ch2)]
Interval(msec)	220
# of Points	1091
Start Time(min)	0.002
End Time(min)	3.998
R.Time (min)	Intensity
0.00167	1
0.00533	1
0.00900	1
0.01267	2
0.01633	2
0.02000	2
0.02367	2
0.02733	1
0.03100	1
0.03467	1
0.03833	1
0.04200	2
0.04567	2
0.04933	2
0.05300	3
0.05667	3
0.06033	3
0.06400	3
0.06767	3
0.07133	3
0.07500	3
0.07867	3
0.08233	3
0.08600	3
0.08967	3
0.09333	3
0.09700	3
0.10067	3
0.10433	3
0.10800	3
0.11167	3
0.11533	3
0.11900	3
0.12267	3
0.12633	3
0.13000	2
0.13367	2
0.13733	2
0.14100	2
0.14467	2
0.14833	1
0.15200	1
0.15567	1
0.15933	1
0.16300	0
0.16667	0
0.17033	-0
0.17400	-0
0.17767	-1
0.18133	-1
0.18500	-1
0.18867	-1
0.19233	-1
0.19600	-2
0.19967	-2
0.20333	-2
0.20700	-2
0.21067	-3
0.21433	-3
0.21800	-2
0.22167	-2
0.22533	-2
0.22900	-2
0.23267	-2
0.23633	-1
0.24000	-1
0.24367	-0
0.24733	0
0.25100	0
0.25467	1
0.25833	1
0.26200	1
0.26567	1
0.26933	1
0.27300	2
0.27667	2
0.28033	2
0.28400	1
0.28767	1
0.29133	1
0.29500	1
0.29867	0
0.30233	-0
0.30600	-1
0.30967	-1
0.31333	-1
0.31700	-1
0.32067	-1
0.32433	-0
0.32800	-0
0.33167	0
0.33533	0
0.33900	1
0.34267	1
0.34633	1
0.35000	2
0.35367	2
0.35733	2
0.36100	2
0.36467	2
0.36833	2
0.37200	3
0.37567	3
0.37933	3
0.38300	3
0.38667	3
0.39033	2
0.39400	2
0.39767	1
0.40133	1
0.40500	1
0.40867	1
0.41233	1
0.41600	1
0.41967	1
0.42333	1
0.42700	2
0.43067	2
0.43433	2
0.43800	2
0.44167	3
0.44533	3
0.44900	3
0.45267	3
0.45633	3
0.46000	3
0.46367	3
0.46733	3
0.47100	3
0.47467	3
0.47833	3
0.48200	3
0.48567	3
0.48933	3
0.49300	3
0.49667	3
0.50033	3
0.50400	3
0.50767	2
0.51133	2
0.51500	2
0.51867	2
0.52233	2
0.52600	2
0.52967	2
0.53333	2
0.53700	2
0.54067	2
0.54433	1
0.54800	1
0.55167	1
0.55533	1
0.55900	1
0.56267	1
0.56633	1
0.57000	1
0.57367	1
0.57733	1
0.58100	1
0.58467	1
0.58833	0
0.59200	0
0.59567	0
0.59933	0
0.60300	0
0.60667	0
0.61033	0
0.61400	0
0.61767	0
0.62133	0
0.62500	0
0.62867	0
0.63233	0
0.63600	0
0.63967	0
0.64333	0
0.64700	0
0.65067	-0
0.65433	-0
0.65800	-1
0.66167	-1
0.66533	-1
0.66900	-1
0.67267	-1
0.67633	-1
0.68000	-1
0.68367	-1
0.68733	-1
0.69100	-1
0.69467	-1
0.69833	-1
0.70200	-1
0.70567	-1
0.70933	-0
0.71300	-0
0.71667	0
0.72033	0
0.72400	0
0.72767	1
0.73133	1
0.73500	1
0.73867	1
0.74233	1
0.74600	1
0.74967	1
0.75333	1
0.75700	1
0.76067	1
0.76433	1
0.76800	1
0.77167	1
0.77533	1
0.77900	1
0.78267	1
0.78633	1
0.79000	1
0.79367	1
0.79733	1
0.80100	0
0.80467	0
0.80833	-0
0.81200	-1
0.81567	-1
0.81933	-1
0.82300	-1
0.82667	-2
0.83033	-2
0.83400	-2
0.83767	-1
0.84133	-1
0.84500	-1
0.84867	-1
0.85233	-1
0.85600	-1
0.85967	-2
0.86333	-2
0.86700	-2
0.87067	-2
0.87433	-3
0.87800	-3
0.88167	-3
0.88533	-3
0.88900	-3
0.89267	-3
0.89633	-3
0.90000	-3
0.90367	-3
0.90733	-2
0.91100	-2
0.91467	-1
0.91833	-1
0.92200	-0
0.92567	0
0.92933	0
0.93300	0
0.93667	1
0.94033	1
0.94400	1
0.94767	1
0.95133	1
0.95500	2
0.95867	2
0.96233	2
0.96600	2
0.96967	2
0.97333	2
0.97700	2
0.98067	2
0.98433	2
0.98800	2
0.99167	2
0.99533	2
0.99900	1
1.00267	1
1.00633	1
1.01000	1
1.01367	1
1.01733	0
1.02100	0
1.02467	0
1.02833	0
1.03200	0
1.03567	1
1.03933	1
1.04300	1
1.04667	1
1.05033	1
1.05400	1
1.05767	1
1.06133	1
1.06500	1
1.06867	1
1.07233	1
1.07600	0
1.07967	0
1.08333	0
1.08700	0
1.09067	0
1.09433	1
1.09800	1
1.10167	0
1.10533	0
1.10900	0
1.11267	0
1.11633	0
1.12000	0
1.12367	0
1.12733	0
1.13100	0
1.13467	0
1.13833	0
1.14200	0
1.14567	0
1.14933	0
1.15300	0
1.15667	0
1.16033	1
1.16400	1
1.16767	1
1.17133	1
1.17500	1
1.17867	1
1.18233	1
1.18600	1
1.18967	1
1.19333	0
1.19700	0
1.20067	0
1.20433	0
1.20800	0
1.21167	1
1.21533	1
1.21900	1
1.22267	1
1.22633	1
1.23000	1
1.23367	1
1.23733	1
1.24100	1
1.24467	1
1.24833	1
1.25200	1
1.25567	1
1.25933	1
1.26300	1
1.26667	1
1.27033	0
1.27400	0
1.27767	0
1.28133	0
1.28500	0
1.28867	0
1.29233	0
1.29600	0
1.29967	0
1.30333	0
1.30700	0
1.31067	0
1.31433	-0
1.31800	-0
1.32167	-1
1.32533	-1
1.32900	-1
1.33267	-2
1.33633	-2
1.34000	-2
1.34367	-2
1.34733	-2
1.35100	-2
1.35467	-2
1.35833	-2
1.36200	-1
1.36567	-1
1.36933	-1
1.37300	-0
1.37667	-0
1.38033	-0
1.38400	-0
1.38767	-0
1.39133	-0
1.39500	-0
1.39867	0
1.40233	0
1.40600	0
1.40967	0
1.41333	0
1.41700	0
1.42067	-0
1.42433	-0
1.42800	-0
1.43167	-0
1.43533	-0
1.43900	-0
1.44267	-0
1.44633	-0
1.45000	-0
1.45367	-0
1.45733	0
1.46100	0
1.46467	0
1.46833	0
1.47200	0
1.47567	-0
1.47933	-0
1.48300	-1
1.48667	-1
1.49033	-1
1.49400	-1
1.49767	-1
1.50133	-1
1.50500	-1
1.50867	-1
1.51233	-1
1.51600	-1
1.51967	-1
1.52333	-1
1.52700	-1
1.53067	-0
1.53433	-0
1.53800	-0
1.54167	0
1.54533	0
1.54900	0
1.55267	0
1.55633	-0
1.56000	-0
1.56367	-0
1.56733	-1
1.57100	-1
1.57467	-1
1.57833	-2
1.58200	-2
1.58567	-2
1.58933	-2
1.59300	-3
1.59667	-3
1.60033	-4
1.60400	-5
1.60767	-6
1.61133	-8
1.61500	-10
1.61867	-12
1.62233	-14
1.62600	-17
1.62967	-20
1.63333	-23
1.63700	-26
1.64067	-30
1.64433	-33
1.64800	-37
1.65167	-41
1.65533	-45
1.65900	-48
1.66267	-53
1.66633	-57
1.67000	-61
1.67367	-66
1.67733	-71
1.68100	-76
1.68467	-81
1.68833	-85
1.69200	-89
1.69567	-93
1.69933	-96
1.70300	-98
1.70667	-101
1.71033	-103
1.71400	-104
1.71767	-105
1.72133	-106
1.72500	-107
1.72867	-108
1.73233	-109
1.73600	-109
1.73967	-110
1.74333	-111
1.74700	-112
1.75067	-112
1.75433	-113
1.75800	-114
1.76167	-115
1.76533	-116
1.76900	-117
1.77267	-118
1.77633	-119
1.78000	-119
1.78367	-118
1.78733	-118
1.79100	-117
1.79467	-117
1.79833	-117
1.80200	-118
1.80567	-118
1.80933	-119
1.81300	-119
1.81667	-119
1.82033	-119
1.82400	-120
1.82767	-121
1.83133	-121
1.83500	-122
1.83867	-122
1.84233	-122
1.84600	-122
1.84967	-122
1.85333	-121
1.85700	-120
1.86067	-119
1.86433	-118
1.86800	-117
1.87167	-117
1.87533	-117
1.87900	-117
1.88267	-118
1.88633	-118
1.89000	-119
1.89367	-119
1.89733	-120
1.90100	-120
1.90467	-120
1.90833	-120
1.91200	-120
1.91567	-120
1.91933	-121
1.92300	-121
1.92667	-121
1.93033	-120
1.93400	-120
1.93767	-119
1.94133	-119
1.94500	-118
1.94867	-118
1.95233	-118
1.95600	-117
1.95967	-117
1.96333	-117
1.96700	-116
1.97067	-116
1.97433	-115
1.97800	-115
1.98167	-114
1.98533	-114
1.98900	-113
1.99267	-113
1.99633	-113
2.00000	-113
2.00367	-112
2.00733	-112
2.01100	-112
2.01467	-112
2.01833	-111
2.02200	-111
2.02567	-111
2.02933	-111
2.03300	-110
2.03667	-110
2.04033	-110
2.04400	-109
2.04767	-109
2.05133	-109
2.05500	-108
2.05867	-108
2.06233	-108
2.06600	-107
2.06967	-107
2.07333	-107
2.07700	-107
2.08067	-107
2.08433	-106
2.08800	-106
2.09167	-105
2.09533	-105
2.09900	-105
2.10267	-104
2.10633	-104
2.11000	-105
2.11367	-105
2.11733	-105
2.12100	-105
2.12467	-105
2.12833	-105
2.13200	-105
2.13567	-104
2.13933	-103
2.14300	-103
2.14667	-103
2.15033	-102
2.15400	-102
2.15767	-102
2.16133	-102
2.16500	-102
2.16867	-102
2.17233	-102
2.17600	-102
2.17967	-102
2.18333	-101
2.18700	-100
2.19067	-99
2.19433	-98
2.19800	-97
2.20167	-96
2.20533	-96
2.20900	-95
2.21267	-95
2.21633	-95
2.22000	-95
2.22367	-95
2.22733	-94
2.23100	-94
2.23467	-93
2.23833	-93
2.24200	-92
2.24567	-91
2.24933	-91
2.25300	-91
2.25667	-91
2.26033	-90
2.26400	-90
2.26767	-89
2.27133	-89
2.27500	-89
2.27867	-88
2.28233	-88
2.28600	-87
2.28967	-87
2.29333	-87
2.29700	-88
2.30067	-88
2.30433	-88
2.30800	-88
2.31167	-87
2.31533	-87
2.31900	-87
2.32267	-86
2.32633	-87
2.33000	-88
2.33367	-88
2.33733	-89
2.34100	-90
2.34467	-90
2.34833	-89
2.35200	-88
2.35567	-87
2.35933	-86
2.36300	-85
2.36667	-83
2.37033	-81
2.37400	-78
2.37767	-74
2.38133	-71
2.38500	-67
2.38867	-62
2.39233	-58
2.39600	-54
2.39967	-49
2.40333	-45
2.40700	-40
2.41067	-36
2.41433	-32
2.41800	-29
2.42167	-25
2.42533	-22
2.42900	-19
2.43267	-17
2.43633	-15
2.44000	-13
2.44367	-11
2.44733	-10
2.45100	-8
2.45467	-6
2.45833	-5
2.46200	-3
2.46567	-2
2.46933	-0
2.47300	1
2.47667	2
2.48033	3
2.48400	5
2.48767	6
2.49133	7
2.49500	7
2.49867	8
2.50233	9
2.50600	9
2.50967	10
2.51333	11
2.51700	12
2.52067	12
2.52433	12
2.52800	13
2.53167	13
2.53533	14
2.53900	14
2.54267	14
2.54633	14
2.55000	14
2.55367	14
2.55733	15
2.56100	15
2.56467	15
2.56833	15
2.57200	15
2.57567	16
2.57933	16
2.58300	16
2.58667	16
2.59033	16
2.59400	16
2.59767	16
2.60133	16
2.60500	16
2.60867	16
2.61233	17
2.61600	17
2.61967	17
2.62333	18
2.62700	18
2.63067	19
2.63433	19
2.63800	19
2.64167	20
2.64533	20
2.64900	20
2.65267	20
2.65633	20
2.66000	20
2.66367	20
2.66733	20
2.67100	20
2.67467	20
2.67833	20
2.68200	20
2.68567	21
2.68933	21
2.69300	22
2.69667	22
2.70033	23
2.70400	23
2.70767	24
2.71133	24
2.71500	24
2.71867	25
2.72233	25
2.72600	25
2.72967	25
2.73333	24
2.73700	24
2.74067	23
2.74433	23
2.74800	22
2.75167	22
2.75533	22
2.75900	22
2.76267	22
2.76633	22
2.77000	23
2.77367	23
2.77733	24
2.78100	24
2.78467	25
2.78833	25
2.79200	25
2.79567	26
2.79933	26
2.80300	26
2.80667	26
2.81033	26
2.81400	26
2.81767	26
2.82133	26
2.82500	26
2.82867	27
2.83233	27
2.83600	26
2.83967	26
2.84333	26
2.84700	24
2.85067	22
2.85433	17
2.85800	9
2.86167	-2
2.86533	-17
2.86900	-36
2.87267	-60
2.87633	-90
2.88000	-124
2.88367	-163
2.88733	-207
2.89100	-256
2.89467	-310
2.89833	-368
2.90200	-429
2.90567	-495
2.90933	-563
2.91300	-634
2.91667	-707
2.92033	-783
2.92400	-860
2.92767	-940
2.93133	-1022
2.93500	-1105
2.93867	-1189
2.94233	-1275
2.94600	-1361
2.94967	-1438
2.95333	-1493
2.95700	-1518
2.96067	-1507
2.96433	-1463
2.96800	-1392
2.97167	-1301
2.97533	-1198
2.97900	-1089
2.98267	-980
2.98633	-873
2.99000	-772
2.99367	-678
2.99733	-593
3.00100	-516
3.00467	-446
3.00833	-385
3.01200	-331
3.01567	-284
3.01933	-243
3.02300	-207
3.02667	-176
3.03033	-149
3.03400	-126
3.03767	-107
3.04133	-90
3.04500	-76
3.04867	-64
3.05233	-53
3.05600	-44
3.05967	-36
3.06333	-30
3.06700	-24
3.07067	-19
3.07433	-15
3.07800	-11
3.08167	-8
3.08533	-5
3.08900	-3
3.09267	-1
3.09633	1
3.10000	2
3.10367	3
3.10733	4
3.11100	5
3.11467	6
3.11833	7
3.12200	8
3.12567	9
3.12933	10
3.13300	10
3.13667	11
3.14033	12
3.14400	12
3.14767	13
3.15133	14
3.15500	14
3.15867	14
3.16233	15
3.16600	15
3.16967	15
3.17333	16
3.17700	16
3.18067	16
3.18433	17
3.18800	17
3.19167	18
3.19533	18
3.19900	19
3.20267	19
3.20633	20
3.21000	20
3.21367	21
3.21733	21
3.22100	22
3.22467	22
3.22833	22
3.23200	22
3.23567	22
3.23933	22
3.24300	22
3.24667	23
3.25033	23
3.25400	23
3.25767	23
3.26133	23
3.26500	23
3.26867	23
3.27233	23
3.27600	23
3.27967	23
3.28333	24
3.28700	24
3.29067	24
3.29433	25
3.29800	25
3.30167	25
3.30533	25
3.30900	25
3.31267	25
3.31633	25
3.32000	25
3.32367	25
3.32733	25
3.33100	25
3.33467	25
3.33833	25
3.34200	25
3.34567	25
3.34933	25
3.35300	25
3.35667	25
3.36033	25
3.36400	25
3.36767	25
3.37133	25
3.37500	25
3.37867	25
3.38233	25
3.38600	25
3.38967	25
3.39333	25
3.39700	25
3.40067	24
3.40433	24
3.40800	24
3.41167	24
3.41533	24
3.41900	24
3.42267	24
3.42633	25
3.43000	25
3.43367	25
3.43733	26
3.44100	26
3.44467	26
3.44833	26
3.45200	27
3.45567	27
3.45933	27
3.46300	27
3.46667	26
3.47033	26
3.47400	26
3.47767	26
3.48133	26
3.48500	26
3.48867	26
3.49233	26
3.49600	26
3.49967	26
3.50333	26
3.50700	26
3.51067	26
3.51433	26
3.51800	26
3.52167	26
3.52533	26
3.52900	26
3.53267	26
3.53633	26
3.54000	27
3.54367	27
3.54733	27
3.55100	27
3.55467	27
3.55833	27
3.56200	27
3.56567	27
3.56933	27
3.57300	27
3.57667	27
3.58033	27
3.58400	27
3.58767	27
3.59133	27
3.59500	27
3.59867	27
3.60233	28
3.60600	27
3.60967	27
3.61333	27
3.61700	27
3.62067	27
3.62433	27
3.62800	27
3.63167	27
3.63533	27
3.63900	27
3.64267	27
3.64633	26
3.65000	26
3.65367	26
3.65733	26
3.66100	26
3.66467	26
3.66833	26
3.67200	26
3.67567	26
3.67933	27
3.68300	27
3.68667	27
3.69033	27
3.69400	27
3.69767	27
3.70133	27
3.70500	27
3.70867	27
3.71233	27
3.71600	27
3.71967	27
3.72333	26
3.72700	26
3.73067	26
3.73433	26
3.73800	26
3.74167	26
3.74533	27
3.74900	27
3.75267	27
3.75633	27
3.76000	27
3.76367	27
3.76733	27
3.77100	27
3.77467	26
3.77833	26
3.78200	26
3.78567	26
3.78933	26
3.79300	26
3.79667	26
3.80033	26
3.80400	27
3.80767	27
3.81133	27
3.81500	27
3.81867	27
3.82233	27
3.82600	26
3.82967	27
3.83333	27
3.83700	27
3.84067	27
3.84433	27
3.84800	27
3.85167	26
3.85533	26
3.85900	26
3.86267	26
3.86633	26
3.87000	26
3.87367	26
3.87733	26
3.88100	26
3.88467	26
3.88833	26
3.89200	26
3.89567	26
3.89933	26
3.90300	26
3.90667	26
3.91033	26
3.91400	26
3.91767	26
3.92133	26
3.92500	26
3.92867	26
3.93233	26
3.93600	26
3.93967	26
3.94333	26
3.94700	26
3.95067	26
3.95433	26
3.95800	26
3.96167	26
3.96533	26
3.96900	26
3.97267	26
3.97633	26
3.98000	26
3.98367	26
3.98733	26
3.99100	26
3.99467	26
3.99833	26

[Chromatogram (Ch3)]
Interval(msec)	220
# of Points	1091
Start Time(min)	0.002
End Time(min)	3.998
R.Time (min)	Intensity
0.00167	1
0.00533	1
0.00900	-0
0.01267	-1
0.01633	-2
0.02000	-3
0.02367	-3
0.02733	-5
0.03100	-6
0.03467	-8
0.03833	-10
0.04200	-12
0.04567	-12
0.04933	-9
0.05300	-6
0.05667	-5
0.06033	-6
0.06400	-7
0.06767	-6
0.07133	-5
0.07500	-5
0.07867	-7
0.08233	-7
0.08600	-6
0.08967	-5
0.09333	-4
0.09700	-1
0.10067	2
0.10433	2
0.10800	0
0.11167	-2
0.11533	-2
0.11900	-2
0.12267	-1
0.12633	-2
0.13000	-5
0.13367	-6
0.13733	-4
0.14100	-2
0.14467	-1
0.14833	-2
0.15200	-5
0.15567	-7
0.15933	-8
0.16300	-8
0.16667	-7
0.17033	-5
0.17400	-5
0.17767	-4
0.18133	-4
0.18500	-3
0.18867	-2
0.19233	-1
0.19600	-1
0.19967	-1
0.20333	-2
0.20700	-3
0.21067	-5
0.21433	-3
0.21800	1
0.22167	5
0.22533	4
0.22900	3
0.23267	0
0.23633	-2
0.24000	-3
0.24367	-4
0.24733	-5
0.25100	-5
0.25467	-3
0.25833	-2
0.26200	-2
0.26567	-2
0.26933	-0
0.27300	1
0.27667	1
0.28033	1
0.28400	2
0.28767	-0
0.29133	-4
0.29500	-3
0.29867	-0
0.30233	2
0.30600	3
0.30967	3
0.31333	4
0.31700	3
0.32067	2
0.32433	1
0.32800	2
0.33167	2
0.33533	1
0.33900	0
0.34267	3
0.34633	4
0.35000	2
0.35367	-3
0.35733	-4
0.36100	-4
0.36467	-4
0.36833	-4
0.37200	-1
0.37567	2
0.37933	4
0.38300	6
0.38667	7
0.39033	5
0.39400	2
0.39767	-0
0.40133	-0
0.40500	1
0.40867	1
0.41233	2
0.41600	3
0.41967	5
0.42333	6
0.42700	6
0.43067	7
0.43433	10
0.43800	11
0.44167	10
0.44533	8
0.44900	7
0.45267	6
0.45633	4
0.46000	2
0.46367	-1
0.46733	-2
0.47100	-1
0.47467	-0
0.47833	1
0.48200	3
0.48567	5
0.48933	5
0.49300	6
0.49667	4
0.50033	5
0.50400	8
0.50767	10
0.51133	9
0.51500	6
0.51867	4
0.52233	2
0.52600	1
0.52967	-0
0.53333	-0
0.53700	2
0.54067	5
0.54433	6
0.54800	8
0.55167	8
0.55533	7
0.55900	5
0.56267	7
0.56633	10
0.57000	8
0.57367	6
0.57733	3
0.58100	4
0.58467	7
0.58833	8
0.59200	7
0.59567	5
0.59933	4
0.60300	4
0.60667	5
0.61033	9
0.61400	12
0.61767	13
0.62133	11
0.62500	9
0.62867	11
0.63233	11
0.63600	10
0.63967	11
0.64333	11
0.64700	10
0.65067	11
0.65433	13
0.65800	16
0.66167	18
0.66533	19
0.66900	17
0.67267	17
0.67633	19
0.68000	21
0.68367	22
0.68733	22
0.69100	20
0.69467	17
0.69833	14
0.70200	13
0.70567	13
0.70933	14
0.71300	15
0.71667	16
0.72033	16
0.72400	14
0.72767	14
0.73133	15
0.73500	17
0.73867	18
0.74233	17
0.74600	16
0.74967	16
0.75333	16
0.75700	16
0.76067	17
0.76433	18
0.76800	17
0.77167	16
0.77533	16
0.77900	17
0.78267	18
0.78633	18
0.79000	17
0.79367	17
0.79733	19
0.80100	18
0.80467	19
0.80833	21
0.81200	22
0.81567	22
0.81933	22
0.82300	21
0.82667	21
0.83033	20
0.83400	20
0.83767	22
0.84133	23
0.84500	24
0.84867	24
0.85233	24
0.85600	27
0.85967	28
0.86333	26
0.86700	25
0.87067	25
0.87433	25
0.87800	27
0.88167	28
0.88533	27
0.88900	26
0.89267	24
0.89633	23
0.90000	25
0.90367	31
0.90733	33
0.91100	32
0.91467	33
0.91833	34
0.92200	31
0.92567	30
0.92933	31
0.93300	33
0.93667	35
0.94033	33
0.94400	34
0.94767	34
0.95133	34
0.95500	33
0.95867	34
0.96233	34
0.96600	35
0.96967	37
0.97333	35
0.97700	34
0.98067	34
0.98433	33
0.98800	32
0.99167	32
0.99533	33
0.99900	33
1.00267	35
1.00633	36
1.01000	36
1.01367	35
1.01733	34
1.02100	35
1.02467	37
1.02833	37
1.03200	38
1.03567	37
1.03933	36
1.04300	36
1.04667	36
1.05033	37
1.05400	36
1.05767	38
1.06133	40
1.06500	41
1.06867	44
1.07233	43
1.07600	43
1.07967	43
1.08333	41
1.08700	35
1.09067	31
1.09433	33
1.09800	36
1.10167	40
1.10533	42
1.10900	40
1.11267	40
1.11633	42
1.12000	44
1.12367	44
1.12733	43
1.13100	42
1.13467	42
1.13833	40
1.14200	39
1.14567	38
1.14933	38
1.15300	39
1.15667	39
1.16033	40
1.16400	38
1.16767	38
1.17133	39
1.17500	40
1.17867	42
1.18233	46
1.18600	46
1.18967	44
1.19333	44
1.19700	43
1.20067	42
1.20433	42
1.20800	41
1.21167	45
1.21533	46
1.21900	45
1.22267	46
1.22633	47
1.23000	46
1.23367	44
1.23733	41
1.24100	40
1.24467	42
1.24833	43
1.25200	44
1.25567	44
1.25933	45
1.26300	46
1.26667	46
1.27033	46
1.27400	45
1.27767	43
1.28133	40
1.28500	39
1.28867	39
1.29233	38
1.29600	38
1.29967	37
1.30333	37
1.30700	39
1.31067	42
1.31433	43
1.31800	43
1.32167	43
1.32533	45
1.32900	45
1.33267	43
1.33633	42
1.34000	43
1.34367	41
1.34733	41
1.35100	41
1.35467	42
1.35833	43
1.36200	43
1.36567	44
1.36933	45
1.37300	46
1.37667	46
1.38033	44
1.38400	45
1.38767	45
1.39133	43
1.39500	42
1.39867	39
1.40233	36
1.40600	36
1.40967	37
1.41333	40
1.41700	40
1.42067	41
1.42433	41
1.42800	42
1.43167	44
1.43533	44
1.43900	45
1.44267	47
1.44633	47
1.45000	43
1.45367	41
1.45733	41
1.46100	45
1.46467	46
1.46833	44
1.47200	43
1.47567	41
1.47933	43
1.48300	43
1.48667	44
1.49033	43
1.49400	43
1.49767	42
1.50133	41
1.50500	41
1.50867	42
1.51233	42
1.51600	41
1.51967	43
1.52333	44
1.52700	44
1.53067	46
1.53433	46
1.53800	44
1.54167	44
1.54533	43
1.54900	41
1.55267	40
1.55633	39
1.56000	39
1.56367	40
1.56733	40
1.57100	40
1.57467	41
1.57833	42
1.58200	44
1.58567	44
1.58933	44
1.59300	45
1.59667	45
1.60033	45
1.60400	44
1.60767	43
1.61133	41
1.61500	40
1.61867	43
1.62233	46
1.62600	47
1.62967	48
1.63333	46
1.63700	46
1.64067	45
1.64433	45
1.64800	43
1.65167	43
1.65533	44
1.65900	44
1.66267	45
1.66633	48
1.67000	49
1.67367	53
1.67733	57
1.68100	57
1.68467	59
1.68833	60
1.69200	60
1.69567	60
1.69933	61
1.70300	58
1.70667	55
1.71033	57
1.71400	57
1.71767	58
1.72133	62
1.72500	62
1.72867	60
1.73233	58
1.73600	59
1.73967	64
1.74333	65
1.74700	65
1.75067	67
1.75433	68
1.75800	70
1.76167	73
1.76533	72
1.76900	69
1.77267	66
1.77633	66
1.78000	65
1.78367	67
1.78733	67
1.79100	67
1.79467	66
1.79833	67
1.80200	70
1.80567	73
1.80933	77
1.81300	80
1.81667	80
1.82033	79
1.82400	79
1.82767	80
1.83133	80
1.83500	81
1.83867	80
1.84233	79
1.84600	81
1.84967	82
1.85333	82
1.85700	81
1.86067	80
1.86433	80
1.86800	80
1.87167	80
1.87533	82
1.87900	83
1.88267	83
1.88633	83
1.89000	84
1.89367	84
1.89733	86
1.90100	88
1.90467	90
1.90833	93
1.91200	96
1.91567	98
1.91933	96
1.92300	96
1.92667	99
1.93033	100
1.93400	101
1.93767	104
1.94133	105
1.94500	107
1.94867	105
1.95233	102
1.95600	100
1.95967	100
1.96333	101
1.96700	103
1.97067	104
1.97433	106
1.97800	106
1.98167	106
1.98533	109
1.98900	110
1.99267	109
1.99633	109
2.00000	111
2.00367	114
2.00733	115
2.01100	115
2.01467	116
2.01833	116
2.02200	117
2.02567	120
2.02933	121
2.03300	120
2.03667	119
2.04033	118
2.04400	117
2.04767	117
2.05133	117
2.05500	120
2.05867	122
2.06233	123
2.06600	121
2.06967	122
2.07333	125
2.07700	128
2.08067	131
2.08433	131
2.08800	131
2.09167	130
2.09533	127
2.09900	127
2.10267	127
2.10633	130
2.11000	132
2.11367	134
2.11733	135
2.12100	135
2.12467	133
2.12833	133
2.13200	136
2.13567	140
2.13933	143
2.14300	145
2.14667	145
2.15033	143
2.15400	140
2.15767	140
2.16133	141
2.16500	141
2.16867	142
2.17233	144
2.17600	145
2.17967	144
2.18333	144
2.18700	146
2.19067	149
2.19433	153
2.19800	155
2.20167	154
2.20533	151
2.20900	149
2.21267	149
2.21633	153
2.22000	154
2.22367	156
2.22733	158
2.23100	160
2.23467	162
2.23833	162
2.24200	164
2.24567	165
2.24933	166
2.25300	166
2.25667	165
2.26033	165
2.26400	169
2.26767	172
2.27133	175
2.27500	178
2.27867	179
2.28233	179
2.28600	179
2.28967	178
2.29333	177
2.29700	177
2.30067	178
2.30433	181
2.30800	182
2.31167	183
2.31533	185
2.31900	187
2.32267	189
2.32633	189
2.33000	190
2.33367	192
2.33733	193
2.34100	194
2.34467	194
2.34833	196
2.35200	197
2.35567	199
2.35933	201
2.36300	202
2.36667	205
2.37033	207
2.37400	208
2.37767	207
2.38133	206
2.38500	205
2.38867	207
2.39233	207
2.39600	208
2.39967	208
2.40333	206
2.40700	205
2.41067	206
2.41433	207
2.41800	209
2.42167	213
2.42533	216
2.42900	218
2.43267	219
2.43633	221
2.44000	220
2.44367	226
2.44733	244
2.45100	267
2.45467	285
2.45833	295
2.46200	296
2.46567	296
2.46933	296
2.47300	296
2.47667	293
2.48033	288
2.48400	282
2.48767	276
2.49133	270
2.49500	264
2.49867	257
2.50233	249
2.50600	243
2.50967	240
2.51333	239
2.51700	240
2.52067	243
2.52433	244
2.52800	241
2.53167	237
2.53533	231
2.53900	224
2.54267	218
2.54633	213
2.55000	207
2.55367	203
2.55733	201
2.56100	198
2.56467	196
2.56833	195
2.57200	192
2.57567	190
2.57933	188
2.58300	188
2.58667	190
2.59033	191
2.59400	189
2.59767	186
2.60133	176
2.60500	161
2.60867	140
2.61233	110
2.61600	75
2.61967	35
2.62333	-5
2.62700	-40
2.63067	-74
2.63433	-106
2.63800	-132
2.64167	-153
2.64533	-166
2.64900	-172
2.65267	-176
2.65633	-177
2.66000	-173
2.66367	-165
2.66733	-157
2.67100	-147
2.67467	-137
2.67833	-125
2.68200	-112
2.68567	-101
2.68933	-93
2.69300	-86
2.69667	-77
2.70033	-67
2.70400	-56
2.70767	-44
2.71133	-32
2.71500	-23
2.71867	-13
2.72233	-5
2.72600	1
2.72967	6
2.73333	11
2.73700	16
2.74067	21
2.74433	25
2.74800	28
2.75167	33
2.75533	37
2.75900	42
2.76267	47
2.76633	51
2.77000	53
2.77367	55
2.77733	56
2.78100	57
2.78467	58
2.78833	58
2.79200	59
2.79567	60
2.79933	61
2.80300	63
2.80667	64
2.81033	65
2.81400	67
2.81767	72
2.82133	81
2.82500	102
2.82867	150
2.83233	264
2.83600	492
2.83967	896
2.84333	1545
2.84700	2485
2.85067	3734
2.85433	5270
2.85800	7020
2.86167	8876
2.86533	10704
2.86900	12358
2.87267	13712
2.87633	14681
2.88000	15215
2.88367	15315
2.88733	15032
2.89100	14434
2.89467	13606
2.89833	12628
2.90200	11575
2.90567	10498
2.90933	9441
2.91300	8435
2.91667	7497
2.92033	6632
2.92400	5844
2.92767	5134
2.93133	4499
2.93500	3937
2.93867	3443
2.94233	3008
2.94600	2622
2.94967	2278
2.95333	1970
2.95700	1719
2.96067	1529
2.96433	1392
2.96800	1296
2.97167	1230
2.97533	1186
2.97900	1160
2.98267	1149
2.98633	1150
2.99000	1163
2.99367	1182
2.99733	1203
3.00100	1222
3.00467	1240
3.00833	1253
3.01200	1261
3.01567	1266
3.01933	1266
3.02300	1262
3.02667	1259
3.03033	1259
3.03400	1261
3.03767	1263
3.04133	1265
3.04500	1269
3.04867	1272
3.05233	1275
3.05600	1276
3.05967	1277
3.06333	1277
3.06700	1276
3.07067	1276
3.07433	1276
3.07800	1278
3.08167	1278
3.08533	1280
3.08900	1280
3.09267	1276
3.09633	1272
3.10000	1271
3.10367	1268
3.10733	1264
3.11100	1264
3.11467	1266
3.11833	1264
3.12200	1261
3.12567	1256
3.12933	1250
3.13300	1249
3.13667	1248
3.14033	1246
3.14400	1243
3.14767	1240
3.15133	1235
3.15500	1231
3.15867	1229
3.16233	1227
3.16600	1224
3.16967	1221
3.17333	1219
3.17700	1217
3.18067	1218
3.18433	1215
3.18800	1212
3.19167	1208
3.19533	1206
3.19900	1206
3.20267	1205
3.20633	1202
3.21000	1203
3.21367	1201
3.21733	1197
3.22100	1195
3.22467	1195
3.22833	1195
3.23200	1192
3.23567	1190
3.23933	1187
3.24300	1182
3.24667	1179
3.25033	1176
3.25400	1174
3.25767	1170
3.26133	1167
3.26500	1165
3.26867	1164
3.27233	1163
3.27600	1161
3.27967	1159
3.28333	1159
3.28700	1158
3.29067	1155
3.29433	1153
3.29800	1149
3.30167	1146
3.30533	1146
3.30900	1147
3.31267	1145
3.31633	1143
3.32000	1143
3.32367	1145
3.32733	1146
3.33100	1144
3.33467	1141
3.33833	1140
3.34200	1139
3.34567	1139
3.34933	1139
3.35300	1139
3.35667	1138
3.36033	1138
3.36400	1141
3.36767	1142
3.37133	1141
3.37500	1139
3.37867	1136
3.38233	1132
3.38600	1131
3.38967	1130
3.39333	1130
3.39700	1130
3.40067	1128
3.40433	1124
3.40800	1122
3.41167	1120
3.41533	1117
3.41900	1110
3.42267	1100
3.42633	1089
3.43000	1079
3.43367	1072
3.43733	1065
3.44100	1058
3.44467	1051
3.44833	1044
3.45200	1036
3.45567	1029
3.45933	1022
3.46300	1014
3.46667	1006
3.47033	999
3.47400	992
3.47767	985
3.48133	977
3.48500	969
3.48867	963
3.49233	957
3.49600	951
3.49967	944
3.50333	936
3.50700	930
3.51067	924
3.51433	920
3.51800	916
3.52167	910
3.52533	902
3.52900	897
3.53267	894
3.53633	888
3.54000	883
3.54367	879
3.54733	875
3.55100	872
3.55467	868
3.55833	864
3.56200	861
3.56567	859
3.56933	854
3.57300	850
3.57667	846
3.58033	842
3.58400	838
3.58767	837
3.59133	835
3.59500	831
3.59867	830
3.60233	828
3.60600	823
3.60967	818
3.61333	813
3.61700	809
3.62067	803
3.62433	801
3.62800	800
3.63167	801
3.63533	798
3.63900	793
3.64267	790
3.64633	786
3.65000	781
3.65367	776
3.65733	773
3.66100	773
3.66467	772
3.66833	770
3.67200	767
3.67567	764
3.67933	760
3.68300	757
3.68667	755
3.69033	751
3.69400	746
3.69767	743
3.70133	742
3.70500	740
3.70867	738
3.71233	734
3.71600	730
3.71967	727
3.72333	726
3.72700	725
3.73067	722
3.73433	719
3.73800	716
3.74167	712
3.74533	708
3.74900	707
3.75267	704
3.75633	701
3.76000	698
3.76367	693
3.76733	689
3.77100	684
3.77467	678
3.77833	675
3.78200	674
3.78567	672
3.78933	671
3.79300	669
3.79667	666
3.80033	662
3.80400	658
3.80767	655
3.81133	652
3.81500	652
3.81867	652
3.82233	650
3.82600	647
3.82967	644
3.83333	639
3.83700	637
3.84067	637
3.84433	632
3.84800	627
3.85167	625
3.85533	624
3.85900	622
3.86267	621
3.86633	617
3.87000	614
3.87367	611
3.87733	611
3.88100	608
3.88467	606
3.88833	602
3.89200	600
3.89567	596
3.89933	592
3.90300	588
3.90667	584
3.91033	584
3.91400	585
3.91767	584
3.92133	583
3.92500	579
3.92867	575
3.93233	571
3.93600	567
3.93967	567
3.94333	566
3.94700	563
3.95067	560
3.95433	554
3.95800	548
3.96167	541
3.96533	536
3.96900	534
3.97267	534
3.97633	532
3.98000	532
3.98367	531
3.98733	528
3.99100	524
3.99467	522
3.99833	521

[Status Trace (Column Oven Temperature)]
Interval(msec)	1000
# of Points	240
Start Time(min)	0.014
End Time(min)	3.997
Intensity Units	
Intensity Multiplier	1
R.Time (min)	Intensity
0.01412	35.07
0.03078	35.07
0.04745	35.06
0.06412	35.05
0.08078	35.04
0.09745	35.05
0.11412	35.05
0.13078	35.05
0.14745	35.05
0.16412	35.05
0.18078	35.06
0.19745	35.07
0.21412	35.07
0.23078	35.07
0.24745	35.06
0.26412	35.05
0.28078	35.06
0.29745	35.05
0.31412	35.04
0.33078	35.04
0.34745	35.04
0.36412	35.03
0.38078	35.03
0.39745	35.02
0.41412	35.02
0.43078	35.02
0.44745	35.01
0.46412	35.00
0.48078	34.99
0.49745	34.99
0.51412	34.98
0.53078	34.98
0.54745	34.98
0.56412	34.97
0.58078	34.98
0.59745	34.98
0.61412	34.98
0.63078	34.98
0.64745	34.99
0.66412	34.99
0.68078	35.00
0.69745	35.00
0.71412	35.00
0.73078	34.99
0.74745	34.99
0.76412	34.98
0.78078	34.98
0.79745	34.98
0.81412	34.99
0.83078	35.00
0.84745	35.01
0.86412	35.02
0.88078	35.02
0.89745	35.02
0.91412	35.02
0.93078	35.01
0.94745	34.99
0.96412	34.98
0.98078	34.99
0.99745	34.98
1.01412	34.97
1.03078	34.97
1.04745	34.98
1.06412	34.98
1.08078	34.99
1.09745	34.99
1.11412	35.00
1.13078	35.00
1.14745	35.00
1.16412	34.99
1.18078	34.99
1.19745	34.99
1.21412	34.98
1.23078	34.98
1.24745	34.99
1.26412	34.99
1.28078	34.99
1.29745	34.98
1.31412	34.98
1.33078	34.99
1.34745	34.99
1.36412	34.99
1.38078	34.99
1.39745	34.98
1.41412	34.98
1.43078	34.99
1.44745	34.98
1.46412	34.97
1.48078	34.98
1.49745	34.99
1.51412	34.99
1.53078	34.98
1.54745	34.97
1.56412	34.98
1.58078	34.99
1.59745	35.01
1.61412	35.10
1.63078	35.25
1.64745	35.45
1.66412	35.73
1.68078	36.09
1.69745	36.44
1.71412	36.79
1.73078	37.12
1.74745	37.45
1.76412	37.79
1.78078	38.11
1.79745	38.44
1.81412	38.77
1.83078	39.13
1.84745	39.45
1.86412	39.75
1.88078	40.09
1.89745	40.42
1.91412	40.76
1.93078	41.09
1.94745	41.41
1.96412	41.75
1.98078	42.06
1.99745	42.39
2.01412	42.71
2.03078	43.04
2.04745	43.36
2.06412	43.69
2.08078	44.02
2.09745	44.36
2.11412	44.69
2.13078	45.00
2.14745	45.32
2.16412	45.66
2.18078	46.00
2.19745	46.32
2.21412	46.65
2.23078	46.98
2.24745	47.31
2.26412	47.62
2.28078	47.93
2.29745	48.28
2.31412	48.59
2.33078	48.95
2.34745	49.28
2.36412	49.53
2.38078	49.64
2.39745	49.65
2.41412	49.65
2.43078	49.65
2.44745	49.67
2.46412	49.67
2.48078	49.68
2.49745	49.69
2.51412	49.71
2.53078	49.72
2.54745	49.73
2.56412	49.76
2.58078	49.77
2.59745	49.80
2.61412	49.81
2.63078	49.82
2.64745	49.83
2.66412	49.85
2.68078	49.86
2.69745	49.86
2.71412	49.84
2.73078	49.86
2.74745	49.89
2.76412	49.90
2.78078	49.89
2.79745	49.89
2.81412	49.89
2.83078	49.90
2.84745	49.91
2.86412	49.92
2.88078	49.93
2.89745	49.94
2.91412	49.96
2.93078	49.97
2.94745	49.99
2.96412	50.01
2.98078	50.02
2.99745	50.04
3.01412	50.05
3.03078	50.05
3.04745	50.07
3.06412	50.07
3.08078	50.07
3.09745	50.08
3.11412	50.09
3.13078	50.09
3.14745	50.10
3.16412	50.11
3.18078	50.10
3.19745	50.10
3.21412	50.09
3.23078	50.09
3.24745	50.08
3.26412	50.08
3.28078	50.07
3.29745	50.06
3.31412	50.05
3.33078	50.06
3.34745	50.07
3.36412	50.07
3.38078	50.07
3.39745	50.08
3.41412	50.08
3.43078	50.08
3.44745	50.07
3.46412	50.07
3.48078	50.07
3.49745	50.08
3.51412	50.08
3.53078	50.08
3.54745	50.08
3.56412	50.07
3.58078	50.08
3.59745	50.08
3.61412	50.07
3.63078	50.08
3.64745	50.08
3.66412	50.08
3.68078	50.08
3.69745	50.08
3.71412	50.08
3.73078	50.08
3.74745	50.08
3.76412	50.08
3.78078	50.09
3.79745	50.08
3.81412	50.08
3.83078	50.07
3.84745	50.07
3.86412	50.07
3.88078	50.07
3.89745	50.07
3.91412	50.08
3.93078	50.08
3.94745	50.09
3.96412	50.09
3.98078	50.08
3.99745	50.09

[Status Trace (Injection Unit Temperature)]
Interval(msec)	1000
# of Points	240
Start Time(min)	0.014
End Time(min)	3.997
Intensity Units	
Intensity Multiplier	1
R.Time (min)	Intensity
0.01412	99.98
0.03078	99.98
0.04745	99.98
0.06412	99.98
0.08078	99.98
0.09745	99.98
0.11412	99.98
0.13078	99.98
0.14745	99.98
0.16412	99.98
0.18078	99.98
0.19745	99.98
0.21412	99.98
0.23078	99.98
0.24745	99.98
0.26412	99.98
0.28078	99.98
0.29745	99.98
0.31412	99.98
0.33078	99.98
0.34745	99.98
0.36412	99.98
0.38078	99.98
0.39745	99.98
0.41412	99.98
0.43078	99.98
0.44745	99.98
0.46412	99.98
0.48078	99.99
0.49745	99.98
0.51412	99.99
0.53078	99.99
0.54745	99.98
0.56412	99.98
0.58078	99.98
0.59745	99.98
0.61412	99.98
0.63078	99.98
0.64745	99.98
0.66412	99.99
0.68078	99.98
0.69745	99.98
0.71412	99.98
0.73078	99.98
0.74745	99.98
0.76412	99.98
0.78078	99.98
0.79745	99.98
0.81412	99.98
0.83078	99.98
0.84745	99.98
0.86412	99.98
0.88078	99.98
0.89745	99.98
0.91412	99.98
0.93078	99.98
0.94745	99.98
0.96412	99.98
0.98078	99.98
0.99745	99.98
1.01412	99.98
1.03078	99.98
1.04745	99.98
1.06412	99.98
1.08078	99.98
1.09745	99.98
1.11412	99.98
1.13078	99.98
1.14745	99.98
1.16412	99.99
1.18078	99.99
1.19745	99.98
1.21412	99.98
1.23078	99.98
1.24745	99.98
1.26412	99.98
1.28078	99.98
1.29745	99.98
1.31412	99.98
1.33078	99.98
1.34745	99.99
1.36412	99.98
1.38078	99.98
1.39745	99.98
1.41412	99.98
1.43078	99.98
1.44745	99.98
1.46412	99.98
1.48078	99.98
1.49745	99.98
1.51412	99.98
1.53078	99.98
1.54745	99.98
1.56412	99.98
1.58078	99.98
1.59745	99.99
1.61412	99.98
1.63078	99.98
1.64745	99.99
1.66412	99.98
1.68078	99.99
1.69745	99.99
1.71412	99.98
1.73078	99.99
1.74745	99.98
1.76412	99.98
1.78078	99.99
1.79745	99.98
1.81412	99.98
1.83078	99.98
1.84745	99.99
1.86412	99.98
1.88078	99.98
1.89745	99.98
1.91412	99.98
1.93078	99.98
1.94745	99.98
1.96412	99.98
1.98078	99.98
1.99745	99.98
2.01412	99.98
2.03078	99.98
2.04745	99.98
2.06412	99.98
2.08078	99.98
2.09745	99.98
2.11412	99.97
2.13078	99.98
2.14745	99.97
2.16412	99.97
2.18078	99.97
2.19745	99.97
2.21412	99.97
2.23078	99.97
2.24745	99.97
2.26412	99.98
2.28078	99.97
2.29745	99.97
2.31412	99.97
2.33078	99.97
2.34745	99.97
2.36412	99.97
2.38078	99.97
2.39745	99.97
2.41412	99.97
2.43078	99.97
2.44745	99.96
2.46412	99.97
2.48078	99.97
2.49745	99.97
2.51412	99.97
2.53078	99.97
2.54745	99.97
2.56412	99.98
2.58078	99.97
2.59745	99.97
2.61412	99.97
2.63078	99.97
2.64745	99.98
2.66412	99.98
2.68078	99.97
2.69745	99.97
2.71412	99.98
2.73078	99.98
2.74745	99.98
2.76412	99.98
2.78078	99.98
2.79745	99.99
2.81412	99.98
2.83078	99.99
2.84745	99.99
2.86412	99.99
2.88078	99.99
2.89745	99.99
2.91412	100.00
2.93078	99.99
2.94745	100.00
2.96412	100.00
2.98078	100.00
2.99745	100.00
3.01412	100.00
3.03078	100.00
3.04745	100.01
3.06412	100.01
3.08078	100.01
3.09745	100.01
3.11412	100.01
3.13078	100.01
3.14745	100.02
3.16412	100.02
3.18078	100.02
3.19745	100.02
3.21412	100.02
3.23078	100.02
3.24745	100.03
3.26412	100.03
3.28078	100.03
3.29745	100.03
3.31412	100.03
3.33078	100.03
3.34745	100.03
3.36412	100.03
3.38078	100.04
3.39745	100.03
3.41412	100.04
3.43078	100.04
3.44745	100.03
3.46412	100.04
3.48078	100.04
3.49745	100.04
3.51412	100.04
3.53078	100.04
3.54745	100.04
3.56412	100.04
3.58078	100.04
3.59745	100.04
3.61412	100.05
3.63078	100.05
3.64745	100.04
3.66412	100.04
3.68078	100.05
3.69745	100.04
3.71412	100.05
3.73078	100.05
3.74745	100.05
3.76412	100.05
3.78078	100.05
3.79745	100.05
3.81412	100.05
3.83078	100.05
3.84745	100.05
3.86412	100.05
3.88078	100.05
3.89745	100.05
3.91412	100.05
3.93078	100.05
3.94745	100.05
3.96412	100.05
3.98078	100.05
3.99745	100.05

[Status Trace (Carrier Gas Pressure)]
Interval(msec)	1000
# of Points	240
Start Time(min)	0.014
End Time(min)	3.997
Intensity Units	
Intensity Multiplier	1
R.Time (min)	Intensity
0.01412	57.41
0.03078	55.36
0.04745	57.92
0.06412	59.84
0.08078	58.75
0.09745	57.98
0.11412	58.00
0.13078	58.01
0.14745	58.01
0.16412	58.00
0.18078	58.00
0.19745	58.00
0.21412	58.00
0.23078	58.00
0.24745	58.00
0.26412	58.00
0.28078	58.00
0.29745	58.00
0.31412	58.00
0.33078	58.00
0.34745	58.00
0.36412	58.00
0.38078	58.00
0.39745	58.00
0.41412	58.00
0.43078	58.00
0.44745	58.00
0.46412	58.00
0.48078	58.00
0.49745	58.00
0.51412	58.00
0.53078	58.00
0.54745	58.00
0.56412	58.00
0.58078	58.00
0.59745	58.00
0.61412	58.00
0.63078	58.00
0.64745	58.00
0.66412	58.00
0.68078	58.00
0.69745	58.00
0.71412	58.00
0.73078	58.00
0.74745	58.00
0.76412	58.00
0.78078	58.00
0.79745	58.00
0.81412	58.00
0.83078	58.00
0.84745	58.00
0.86412	58.00
0.88078	58.00
0.89745	58.00
0.91412	58.00
0.93078	58.00
0.94745	58.00
0.96412	58.00
0.98078	58.00
0.99745	58.00
1.01412	58.00
1.03078	58.00
1.04745	58.00
1.06412	58.00
1.08078	58.00
1.09745	58.00
1.11412	58.00
1.13078	58.00
1.14745	58.00
1.16412	58.00
1.18078	58.00
1.19745	58.00
1.21412	58.00
1.23078	58.00
1.24745	58.00
1.26412	58.00
1.28078	58.00
1.29745	58.00
1.31412	58.00
1.33078	58.00
1.34745	58.00
1.36412	58.00
1.38078	58.00
1.39745	58.00
1.41412	58.00
1.43078	58.00
1.44745	58.00
1.46412	58.00
1.48078	58.00
1.49745	58.00
1.51412	58.00
1.53078	58.00
1.54745	58.00
1.56412	58.00
1.58078	58.00
1.59745	58.00
1.61412	58.00
1.63078	58.00
1.64745	58.00
1.66412	58.00
1.68078	58.01
1.69745	58.00
1.71412	58.00
1.73078	58.00
1.74745	58.00
1.76412	58.00
1.78078	58.00
1.79745	58.00
1.81412	58.00
1.83078	58.00
1.84745	58.00
1.86412	58.00
1.88078	58.00
1.89745	58.00
1.91412	58.00
1.93078	58.00
1.94745	58.00
1.96412	58.00
1.98078	58.00
1.99745	58.00
2.01412	58.00
2.03078	58.00
2.04745	58.00
2.06412	58.00
2.08078	58.00
2.09745	58.00
2.11412	58.00
2.13078	58.00
2.14745	58.00
2.16412	58.00
2.18078	58.00
2.19745	58.00
2.21412	58.00
2.23078	58.00
2.24745	58.00
2.26412	58.00
2.28078	58.00
2.29745	58.00
2.31412	58.00
2.33078	58.00
2.34745	58.00
2.36412	58.00
2.38078	57.99
2.39745	57.99
2.41412	58.00
2.43078	58.00
2.44745	58.00
2.46412	58.00
2.48078	58.00
2.49745	58.00
2.51412	57.98
2.53078	57.98
2.54745	58.00
2.56412	58.00
2.58078	58.00
2.59745	58.00
2.61412	58.00
2.63078	58.00
2.64745	58.00
2.66412	58.00
2.68078	58.00
2.69745	58.00
2.71412	58.00
2.73078	58.00
2.74745	58.00
2.76412	58.00
2.78078	58.00
2.79745	58.00
2.81412	58.00
2.83078	58.00
2.84745	58.00
2.86412	58.00
2.88078	58.00
2.89745	58.00
2.91412	58.00
2.93078	58.00
2.94745	58.00
2.96412	58.00
2.98078	58.00
2.99745	58.00
3.01412	58.00
3.03078	58.00
3.04745	58.00
3.06412	58.00
3.08078	58.00
3.09745	58.00
3.11412	58.00
3.13078	58.00
3.14745	58.00
3.16412	58.00
3.18078	58.00
3.19745	58.00
3.21412	58.00
3.23078	58.00
3.24745	58.00
3.26412	58.00
3.28078	58.00
3.29745	58.00
3.31412	58.00
3.33078	58.00
3.34745	58.00
3.36412	58.00
3.38078	58.00
3.39745	58.00
3.41412	58.00
3.43078	58.00
3.44745	58.00
3.46412	58.00
3.48078	58.00
3.49745	58.00
3.51412	58.00
3.53078	58.00
3.54745	58.00
3.56412	58.00
3.58078	58.00
3.59745	58.00
3.61412	58.00
3.63078	58.00
3.64745	58.00
3.66412	58.00
3.68078	58.00
3.69745	58.00
3.71412	58.00
3.73078	58.00
3.74745	58.00
3.76412	58.00
3.78078	58.00
3.79745	58.00
3.81412	58.00
3.83078	58.00
3.84745	58.00
3.86412	58.00
3.88078	58.00
3.89745	58.00
3.91412	58.00
3.93078	58.00
3.94745	58.00
3.96412	58.00
3.98078	58.00
3.99745	58.00

[Status Trace (Carrier Gas Flow)]
Interval(msec)	1000
# of Points	240
Start Time(min)	0.014
End Time(min)	3.997
Intensity Units	
Intensity Multiplier	1
R.Time (min)	Intensity
0.01412	34.03
0.03078	34.53
0.04745	34.54
0.06412	34.53
0.08078	34.51
0.09745	34.52
0.11412	34.52
0.13078	34.52
0.14745	34.52
0.16412	34.52
0.18078	34.52
0.19745	34.52
0.21412	34.52
0.23078	34.52
0.24745	34.52
0.26412	34.52
0.28078	34.52
0.29745	34.52
0.31412	34.52
0.33078	34.52
0.34745	34.52
0.36412	34.52
0.38078	34.52
0.39745	34.52
0.41412	34.52
0.43078	34.52
0.44745	34.52
0.46412	34.52
0.48078	34.52
0.49745	34.52
0.51412	34.52
0.53078	34.52
0.54745	34.52
0.56412	34.52
0.58078	34.52
0.59745	34.52
0.61412	34.52
0.63078	34.52
0.64745	34.52
0.66412	34.52
0.68078	34.52
0.69745	34.52
0.71412	34.52
0.73078	34.52
0.74745	34.52
0.76412	34.52
0.78078	34.52
0.79745	34.52
0.81412	34.52
0.83078	34.52
0.84745	34.52
0.86412	34.52
0.88078	34.52
0.89745	34.52
0.91412	34.52
0.93078	34.52
0.94745	34.52
0.96412	34.52
0.98078	34.52
0.99745	34.52
1.01412	34.52
1.03078	34.52
1.04745	34.52
1.06412	34.52
1.08078	34.52
1.09745	34.52
1.11412	34.52
1.13078	34.52
1.14745	34.52
1.16412	34.52
1.18078	34.52
1.19745	34.52
1.21412	34.52
1.23078	34.52
1.24745	34.52
1.26412	34.52
1.28078	34.52
1.29745	34.52
1.31412	34.52
1.33078	34.52
1.34745	34.52
1.36412	34.52
1.38078	34.52
1.39745	34.52
1.41412	34.52
1.43078	34.52
1.44745	34.52
1.46412	34.52
1.48078	34.52
1.49745	34.52
1.51412	34.52
1.53078	34.52
1.54745	34.52
1.56412	34.52
1.58078	34.52
1.59745	34.52
1.61412	34.52
1.63078	34.52
1.64745	34.52
1.66412	34.52
1.68078	34.52
1.69745	34.52
1.71412	34.52
1.73078	34.52
1.74745	34.52
1.76412	34.52
1.78078	34.52
1.79745	34.52
1.81412	34.52
1.83078	34.52
1.84745	34.52
1.86412	34.52
1.88078	34.52
1.89745	34.52
1.91412	34.52
1.93078	34.52
1.94745	34.52
1.96412	34.52
1.98078	34.52
1.99745	34.52
2.01412	34.52
2.03078	34.52
2.04745	34.52
2.06412	34.52
2.08078	34.52
2.09745	34.52
2.11412	34.52
2.13078	34.52
2.14745	34.52
2.16412	34.52
2.18078	34.52
2.19745	34.52
2.21412	34.52
2.23078	34.52
2.24745	34.52
2.26412	34.52
2.28078	34.52
2.29745	34.52
2.31412	34.52
2.33078	34.51
2.34745	34.52
2.36412	34.52
2.38078	34.52
2.39745	34.52
2.41412	34.52
2.43078	34.52
2.44745	34.52
2.46412	34.52
2.48078	34.52
2.49745	34.52
2.51412	34.52
2.53078	34.53
2.54745	34.52
2.56412	34.52
2.58078	34.52
2.59745	34.52
2.61412	34.52
2.63078	34.51
2.64745	34.53
2.66412	34.52
2.68078	34.52
2.69745	34.52
2.71412	34.52
2.73078	34.52
2.74745	34.52
2.76412	34.52
2.78078	34.52
2.79745	34.52
2.81412	34.52
2.83078	34.52
2.84745	34.52
2.86412	34.52
2.88078	34.52
2.89745	34.52
2.91412	34.52
2.93078	34.52
2.94745	34.52
2.96412	34.52
2.98078	34.52
2.99745	34.52
3.01412	34.52
3.03078	34.52
3.04745	34.52
3.06412	34.52
3.08078	34.52
3.09745	34.52
3.11412	34.52
3.13078	34.52
3.14745	34.52
3.16412	34.52
3.18078	34.52
3.19745	34.52
3.21412	34.52
3.23078	34.52
3.24745	34.52
3.26412	34.52
3.28078	34.52
3.29745	34.52
3.31412	34.52
3.33078	34.52
3.34745	34.52
3.36412	34.52
3.38078	34.52
3.39745	34.52
3.41412	34.52
3.43078	34.52
3.44745	34.52
3.46412	34.52
3.48078	34.52
3.49745	34.52
3.51412	34.52
3.53078	34.52
3.54745	34.52
3.56412	34.52
3.58078	34.52
3.59745	34.52
3.61412	34.52
3.63078	34.52
3.64745	34.52
3.66412	34.52
3.68078	34.52
3.69745	34.52
3.71412	34.52
3.73078	34.52
3.74745	34.52
3.76412	34.52
3.78078	34.52
3.79745	34.52
3.81412	34.52
3.83078	34.52
3.84745	34.52
3.86412	34.52
3.88078	34.52
3.89745	34.52
3.91412	34.52
3.93078	34.52
3.94745	34.52
3.96412	34.52
3.98078	34.52
3.99745	34.52

[Status Trace (Column Flow)]
Interval(msec)	1000
# of Points	240
Start Time(min)	0.014
End Time(min)	3.997
Intensity Units	
Intensity Multiplier	1
R.Time (min)	Intensity
0.01412	5.43
0.03078	5.20
0.04745	5.49
0.06412	5.72
0.08078	5.59
0.09745	5.50
0.11412	5.50
0.13078	5.50
0.14745	5.50
0.16412	5.50
0.18078	5.50
0.19745	5.50
0.21412	5.50
0.23078	5.50
0.24745	5.50
0.26412	5.50
0.28078	5.50
0.29745	5.50
0.31412	5.50
0.33078	5.50
0.34745	5.50
0.36412	5.50
0.38078	5.50
0.39745	5.50
0.41412	5.50
0.43078	5.50
0.44745	5.50
0.46412	5.50
0.48078	5.50
0.49745	5.50
0.51412	5.50
0.53078	5.50
0.54745	5.50
0.56412	5.50
0.58078	5.50
0.59745	5.50
0.61412	5.50
0.63078	5.50
0.64745	5.50
0.66412	5.50
0.68078	5.50
0.69745	5.50
0.71412	5.50
0.73078	5.50
0.74745	5.50
0.76412	5.50
0.78078	5.50
0.79745	5.50
0.81412	5.50
0.83078	5.50
0.84745	5.50
0.86412	5.50
0.88078	5.50
0.89745	5.50
0.91412	5.50
0.93078	5.50
0.94745	5.50
0.96412	5.50
0.98078	5.50
0.99745	5.50
1.01412	5.50
1.03078	5.50
1.04745	5.50
1.06412	5.50
1.08078	5.50
1.09745	5.50
1.11412	5.50
1.13078	5.50
1.14745	5.50
1.16412	5.50
1.18078	5.50
1.19745	5.50
1.21412	5.50
1.23078	5.50
1.24745	5.50
1.26412	5.50
1.28078	5.50
1.29745	5.50
1.31412	5.50
1.33078	5.50
1.34745	5.50
1.36412	5.50
1.38078	5.50
1.39745	5.50
1.41412	5.50
1.43078	5.50
1.44745	5.50
1.46412	5.50
1.48078	5.50
1.49745	5.50
1.51412	5.50
1.53078	5.50
1.54745	5.50
1.56412	5.50
1.58078	5.50
1.59745	5.50
1.61412	5.50
1.63078	5.50
1.64745	5.49
1.66412	5.48
1.68078	5.47
1.69745	5.46
1.71412	5.45
1.73078	5.44
1.74745	5.43
1.76412	5.42
1.78078	5.41
1.79745	5.40
1.81412	5.39
1.83078	5.38
1.84745	5.37
1.86412	5.36
1.88078	5.35
1.89745	5.34
1.91412	5.33
1.93078	5.32
1.94745	5.31
1.96412	5.30
1.98078	5.29
1.99745	5.28
2.01412	5.27
2.03078	5.26
2.04745	5.25
2.06412	5.24
2.08078	5.23
2.09745	5.22
2.11412	5.21
2.13078	5.20
2.14745	5.19
2.16412	5.18
2.18078	5.17
2.19745	5.16
2.21412	5.15
2.23078	5.15
2.24745	5.14
2.26412	5.13
2.28078	5.12
2.29745	5.11
2.31412	5.10
2.33078	5.09
2.34745	5.08
2.36412	5.07
2.38078	5.07
2.39745	5.07
2.41412	5.07
2.43078	5.07
2.44745	5.07
2.46412	5.07
2.48078	5.07
2.49745	5.07
2.51412	5.07
2.53078	5.07
2.54745	5.07
2.56412	5.07
2.58078	5.07
2.59745	5.07
2.61412	5.07
2.63078	5.07
2.64745	5.07
2.66412	5.07
2.68078	5.06
2.69745	5.06
2.71412	5.07
2.73078	5.06
2.74745	5.06
2.76412	5.06
2.78078	5.06
2.79745	5.06
2.81412	5.06
2.83078	5.06
2.84745	5.06
2.86412	5.06
2.88078	5.06
2.89745	5.06
2.91412	5.06
2.93078	5.06
2.94745	5.06
2.96412	5.06
2.98078	5.06
2.99745	5.06
3.01412	5.06
3.03078	5.06
3.04745	5.06
3.06412	5.06
3.08078	5.06
3.09745	5.06
3.11412	5.06
3.13078	5.06
3.14745	5.06
3.16412	5.06
3.18078	5.06
3.19745	5.06
3.21412	5.06
3.23078	5.06
3.24745	5.06
3.26412	5.06
3.28078	5.06
3.29745	5.06
3.31412	5.06
3.33078	5.06
3.34745	5.06
3.36412	5.06
3.38078	5.06
3.39745	5.06
3.41412	5.06
3.43078	5.06
3.44745	5.06
3.46412	5.06
3.48078	5.06
3.49745	5.06
3.51412	5.06
3.53078	5.06
3.54745	5.06
3.56412	5.06
3.58078	5.06
3.59745	5.06
3.61412	5.06
3.63078	5.06
3.64745	5.06
3.66412	5.06
3.68078	5.06
3.69745	5.06
3.71412	5.06
3.73078	5.06
3.74745	5.06
3.76412	5.06
3.78078	5.06
3.79745	5.06
3.81412	5.06
3.83078	5.06
3.84745	5.06
3.86412	5.06
3.88078	5.06
3.89745	5.06
3.91412	5.06
3.93078	5.06
3.94745	5.06
3.96412	5.06
3.98078	5.06
3.99745	5.06

[Status Trace (Linear Velocity)]
Interval(msec)	1000
# of Points	240
Start Time(min)	0.014
End Time(min)	3.997
Intensity Units	
Intensity Multiplier	1
R.Time (min)	Intensity
0.01412	38.62
0.03078	37.27
0.04745	38.96
0.06412	40.22
0.08078	39.50
0.09745	39.00
0.11412	39.01
0.13078	39.02
0.14745	39.01
0.16412	39.01
0.18078	39.01
0.19745	39.01
0.21412	39.01
0.23078	39.01
0.24745	39.01
0.26412	39.01
0.28078	39.01
0.29745	39.01
0.31412	39.01
0.33078	39.01
0.34745	39.01
0.36412	39.01
0.38078	39.01
0.39745	39.01
0.41412	39.01
0.43078	39.01
0.44745	39.01
0.46412	39.01
0.48078	39.01
0.49745	39.01
0.51412	39.01
0.53078	39.02
0.54745	39.02
0.56412	39.01
0.58078	39.01
0.59745	39.01
0.61412	39.01
0.63078	39.01
0.64745	39.01
0.66412	39.01
0.68078	39.01
0.69745	39.01
0.71412	39.01
0.73078	39.01
0.74745	39.01
0.76412	39.01
0.78078	39.01
0.79745	39.01
0.81412	39.01
0.83078	39.01
0.84745	39.01
0.86412	39.01
0.88078	39.01
0.89745	39.01
0.91412	39.01
0.93078	39.01
0.94745	39.01
0.96412	39.01
0.98078	39.01
0.99745	39.01
1.01412	39.02
1.03078	39.02
1.04745	39.01
1.06412	39.01
1.08078	39.01
1.09745	39.01
1.11412	39.01
1.13078	39.01
1.14745	39.01
1.16412	39.01
1.18078	39.01
1.19745	39.01
1.21412	39.01
1.23078	39.01
1.24745	39.01
1.26412	39.01
1.28078	39.01
1.29745	39.01
1.31412	39.01
1.33078	39.01
1.34745	39.01
1.36412	39.01
1.38078	39.01
1.39745	39.01
1.41412	39.01
1.43078	39.01
1.44745	39.01
1.46412	39.01
1.48078	39.01
1.49745	39.01
1.51412	39.01
1.53078	39.01
1.54745	39.02
1.56412	39.01
1.58078	39.01
1.59745	39.01
1.61412	39.00
1.63078	38.99
1.64745	38.97
1.66412	38.94
1.68078	38.91
1.69745	38.88
1.71412	38.84
1.73078	38.81
1.74745	38.78
1.76412	38.75
1.78078	38.71
1.79745	38.68
1.81412	38.65
1.83078	38.62
1.84745	38.59
1.86412	38.56
1.88078	38.53
1.89745	38.50
1.91412	38.47
1.93078	38.43
1.94745	38.41
1.96412	38.37
1.98078	38.35
1.99745	38.32
2.01412	38.29
2.03078	38.26
2.04745	38.23
2.06412	38.20
2.08078	38.17
2.09745	38.14
2.11412	38.11
2.13078	38.08
2.14745	38.05
2.16412	38.02
2.18078	37.99
2.19745	37.96
2.21412	37.93
2.23078	37.90
2.24745	37.87
2.26412	37.84
2.28078	37.81
2.29745	37.78
2.31412	37.75
2.33078	37.72
2.34745	37.69
2.36412	37.67
2.38078	37.66
2.39745	37.66
2.41412	37.66
2.43078	37.66
2.44745	37.66
2.46412	37.66
2.48078	37.66
2.49745	37.66
2.51412	37.64
2.53078	37.64
2.54745	37.65
2.56412	37.65
2.58078	37.65
2.59745	37.65
2.61412	37.64
2.63078	37.64
2.64745	37.64
2.66412	37.64
2.68078	37.64
2.69745	37.64
2.71412	37.64
2.73078	37.64
2.74745	37.64
2.76412	37.64
2.78078	37.64
2.79745	37.64
2.81412	37.64
2.83078	37.64
2.84745	37.64
2.86412	37.64
2.88078	37.63
2.89745	37.63
2.91412	37.63
2.93078	37.63
2.94745	37.63
2.96412	37.63
2.98078	37.63
2.99745	37.62
3.01412	37.62
3.03078	37.62
3.04745	37.62
3.06412	37.62
3.08078	37.62
3.09745	37.62
3.11412	37.62
3.13078	37.62
3.14745	37.62
3.16412	37.62
3.18078	37.62
3.19745	37.62
3.21412	37.62
3.23078	37.62
3.24745	37.62
3.26412	37.62
3.28078	37.62
3.29745	37.62
3.31412	37.62
3.33078	37.62
3.34745	37.62
3.36412	37.62
3.38078	37.62
3.39745	37.62
3.41412	37.62
3.43078	37.62
3.44745	37.62
3.46412	37.62
3.48078	37.62
3.49745	37.62
3.51412	37.62
3.53078	37.62
3.54745	37.62
3.56412	37.62
3.58078	37.62
3.59745	37.62
3.61412	37.62
3.63078	37.62
3.64745	37.62
3.66412	37.62
3.68078	37.62
3.69745	37.62
3.71412	37.62
3.73078	37.62
3.74745	37.62
3.76412	37.62
3.78078	37.62
3.79745	37.62
3.81412	37.62
3.83078	37.62
3.84745	37.62
3.86412	37.62
3.88078	37.62
3.89745	37.62
3.91412	37.62
3.93078	37.62
3.94745	37.62
3.96412	37.62
3.98078	37.62
3.99745	37.62

