[Header]
Application Name	LabSolutions
Version	5.110
Data File Name	C:\Users\User\Desktop\GC Analyses\Jack\UIC Prairie Sampling\9.2.22\220902_102.gcd
Output Date	10/28/2022
Output Time	1:23:58 PM

[File Information]
Type	Data File
Generated	10/28/2022 1:15:22 PM
Generated by	System Administrator
Modified	10/28/2022 1:19:37 PM
Modified by	System Administrator

[Sample Information]
Operator Name	System Administrator
Acquired	10/28/2022 1:15:36 PM
Sample Type	1:Standard
Level	1
Sample Name	220902_UICPrairie
Sample ID	220902_UICPrairie
ISTD Amount1	1
ISTD Amount2	1
ISTD Amount3	1
ISTD Amount4	1
ISTD Amount5	1
ISTD Amount6	1
ISTD Amount7	1
ISTD Amount8	1
ISTD Amount9	1
ISTD Amount10	1
ISTD Amount11	1
ISTD Amount12	1
ISTD Amount13	1
ISTD Amount14	1
ISTD Amount15	1
ISTD Amount16	1
ISTD Amount17	1
ISTD Amount18	1
ISTD Amount19	1
ISTD Amount20	1
ISTD Amount21	1
ISTD Amount22	1
ISTD Amount23	1
ISTD Amount24	1
ISTD Amount25	1
ISTD Amount26	1
ISTD Amount27	1
ISTD Amount28	1
ISTD Amount29	1
ISTD Amount30	1
ISTD Amount31	1
ISTD Amount32	1
Sample Amount	1
Dilution Factor	1
Vial#	1
Injection Volume	1
Injection Count	1
Bar Code	

[Original Files]
Data File	C:\Users\User\Desktop\GC Analyses\Jack\UIC Prairie Sampling\9.2.22\220902_102.gcd
Method File	C:\LabSolutions\Data\GHG_4min_2022\ghg3_togas_w_acet_4 min_new_int.gcm
Batch File	
Report Format File	c:\LabSolutions\System\DEFAULT.lsr

[File Description]


[Configuration]
Instrument Name	C0B7VH3-Instrument1
Instrument #	1
Line #	1
# of Detectors	3
Detector ID	DET#1	DET#2	DET#3
Detector Name	FID	PTCD	ECD
# of Channels	1	1	1

[Peak Table(Ch1)]
# of Peaks	3
Peak#	R.Time	I.Time	F.Time	Area	Height	A/H	Conc.	Mark	ID#	Name	k'	Plate #	Plate Ht.	Tailing	Resolution	Sep.Factor	Area Ratio	Height Ratio	Conc. %	Norm Conc.
1	1.476	1.435	1.538	15591	7130	2.187	100.000	   	1	CO	0.000	8728	17.187	1.251	0.000	0.000	0	0	16.667	16.667
2	1.571	1.538	1.630	4581	2283	2.006	100.000	 V 	2	CH4	0.065	11148	13.455	1.024	1.554	0.000	0	0	16.667	16.667
3	1.996	1.949	2.495	2670597	1289706	2.071	400.000	   	3	CO2	0.353	17392	8.624	1.276	7.085	5.462	0	0	66.667	66.667

[Peak Table(Ch2)]
# of Peaks	0

[Peak Table(Ch3)]
# of Peaks	3
Peak#	R.Time	I.Time	F.Time	Area	Height	A/H	Conc.	Mark	ID#	Name	k'	Plate #	Plate Ht.	Tailing	Resolution	Sep.Factor	Area Ratio	Height Ratio	Conc. %	Norm Conc.
1	2.462	1.413	2.576	14283	485	29.447	0.000	   			0.000	5	27827.994	0.000	0.000	0.000	0	0	0.000	0.000
2	2.579	2.576	2.645	1051	425	2.474	0.000	 V 			0.048	94	1591.394	0.000	0.044	0.000	0	0	0.000	0.000
3	2.876	2.656	3.566	29650	5581	5.312	1.000	   	1	N2O	0.168	12341	12.154	1.776	0.509	3.531	0	0	100.000	100.000

[Compound Results(Ch1)]
# of IDs	6
ID#	Name	R.Time	Area	Height	Conc.	Curve	3rd	2nd	1st	Constant	Area Ratio	Height Ratio	Conc. %	Norm Conc.
1	CO	1.476	15591	7130	100.000	Linear	0.000000e+00	0.000000e+00	1.559106e+002	0.000000e+00	0	0	16.667	16.667
2	CH4	1.571	4581	2283	100.000	Linear	0.000000e+00	0.000000e+00	4.580676e+001	0.000000e+00	0	0	16.667	16.667
3	CO2	1.996	2670597	1289706	400.000	Linear	0.000000e+00	0.000000e+00	6.676492e+003	0.000000e+00	0	0	66.667	66.667
4	Ethylene	0.000	0	0	0.000	Linear	0.000000e+00	0.000000e+00	0.000000e+00	0.000000e+00	0	0	0.000	0.000
5	Acetylene	0.000	0	0	0.000	Linear	0.000000e+00	0.000000e+00	0.000000e+00	0.000000e+00	0	0	0.000	0.000
6	Ethane	0.000	0	0	0.000	Linear	0.000000e+00	0.000000e+00	0.000000e+00	0.000000e+00	0	0	0.000	0.000

[Compound Results(Ch2)]
# of IDs	5
ID#	Name	R.Time	Area	Height	Conc.	Curve	3rd	2nd	1st	Constant	Area Ratio	Height Ratio	Conc. %	Norm Conc.
1	Hydrogen	0.000	0	0	0.000	Linear	0.000000e+00	0.000000e+00	0.000000e+00	0.000000e+00	0	0	0.000	0.000
2	Oxygen	0.000	0	0	0.000	Linear	0.000000e+00	0.000000e+00	0.000000e+00	0.000000e+00	0	0	0.000	0.000
3	Nitrogen	0.000	0	0	0.000	Linear	0.000000e+00	0.000000e+00	0.000000e+00	0.000000e+00	0	0	0.000	0.000
4	Methane	0.000	0	0	0.000	Linear	0.000000e+00	0.000000e+00	0.000000e+00	0.000000e+00	0	0	0.000	0.000
5	Carbon Monoxide	0.000	0	0	0.000	Linear	0.000000e+00	0.000000e+00	0.000000e+00	0.000000e+00	0	0	0.000	0.000

[Compound Results(Ch3)]
# of IDs	2
ID#	Name	R.Time	Area	Height	Conc.	Curve	3rd	2nd	1st	Constant	Area Ratio	Height Ratio	Conc. %	Norm Conc.
1	N2O	2.876	29650	5581	1.000	Linear	0.000000e+00	0.000000e+00	2.964987e+004	0.000000e+00	0	0	100.000	100.000
2	SF6	0.000	0	0	0.000	Linear	0.000000e+00	0.000000e+00	0.000000e+00	0.000000e+00	0	0	0.000	0.000

[Group Results(Ch1)]
# of Groups	0

[Group Results(Ch2)]
# of Groups	0

[Group Results(Ch3)]
# of Groups	0

[Chromatogram (Ch1)]
Interval(msec)	220
# of Points	1091
Start Time(min)	0.002
End Time(min)	3.998
R.Time (min)	Intensity
0.00167	15
0.00533	12
0.00900	11
0.01267	9
0.01633	6
0.02000	2
0.02367	-3
0.02733	-6
0.03100	-5
0.03467	-2
0.03833	3
0.04200	11
0.04567	19
0.04933	21
0.05300	18
0.05667	14
0.06033	10
0.06400	10
0.06767	10
0.07133	9
0.07500	-28
0.07867	-61
0.08233	-61
0.08600	-51
0.08967	-36
0.09333	-32
0.09700	-31
0.10067	-32
0.10433	-34
0.10800	-31
0.11167	-23
0.11533	-7
0.11900	-5
0.12267	-3
0.12633	-1
0.13000	-3
0.13367	2
0.13733	5
0.14100	5
0.14467	6
0.14833	23
0.15200	43
0.15567	41
0.15933	31
0.16300	19
0.16667	8
0.17033	8
0.17400	7
0.17767	8
0.18133	7
0.18500	6
0.18867	3
0.19233	-4
0.19600	-14
0.19967	-19
0.20333	-14
0.20700	-7
0.21067	-5
0.21433	-7
0.21800	-12
0.22167	-11
0.22533	-3
0.22900	0
0.23267	1
0.23633	4
0.24000	8
0.24367	12
0.24733	12
0.25100	13
0.25467	14
0.25833	14
0.26200	15
0.26567	16
0.26933	18
0.27300	21
0.27667	25
0.28033	28
0.28400	27
0.28767	24
0.29133	21
0.29500	20
0.29867	18
0.30233	16
0.30600	13
0.30967	10
0.31333	7
0.31700	4
0.32067	3
0.32433	4
0.32800	8
0.33167	10
0.33533	8
0.33900	2
0.34267	-4
0.34633	-2
0.35000	5
0.35367	8
0.35733	4
0.36100	-5
0.36467	-14
0.36833	-22
0.37200	-27
0.37567	-28
0.37933	-25
0.38300	-18
0.38667	-13
0.39033	-13
0.39400	-17
0.39767	-22
0.40133	-24
0.40500	-22
0.40867	-21
0.41233	-21
0.41600	-21
0.41967	-23
0.42333	-26
0.42700	-30
0.43067	-32
0.43433	-33
0.43800	-33
0.44167	-33
0.44533	-31
0.44900	-28
0.45267	-25
0.45633	-24
0.46000	-26
0.46367	-27
0.46733	-27
0.47100	-29
0.47467	-31
0.47833	-34
0.48200	-36
0.48567	-35
0.48933	-33
0.49300	-33
0.49667	-35
0.50033	-38
0.50400	-40
0.50767	-41
0.51133	-41
0.51500	-39
0.51867	-36
0.52233	-34
0.52600	-32
0.52967	-29
0.53333	-24
0.53700	-20
0.54067	-17
0.54433	-14
0.54800	-15
0.55167	-18
0.55533	-23
0.55900	-30
0.56267	-35
0.56633	-40
0.57000	-46
0.57367	-51
0.57733	-51
0.58100	-50
0.58467	-50
0.58833	-50
0.59200	-49
0.59567	-46
0.59933	-40
0.60300	-32
0.60667	-27
0.61033	-28
0.61400	-29
0.61767	-32
0.62133	-34
0.62500	-37
0.62867	-39
0.63233	-37
0.63600	-39
0.63967	-45
0.64333	-48
0.64700	-47
0.65067	-42
0.65433	-34
0.65800	-31
0.66167	-30
0.66533	-31
0.66900	-33
0.67267	-35
0.67633	-38
0.68000	-43
0.68367	-49
0.68733	-51
0.69100	-53
0.69467	-55
0.69833	-56
0.70200	-54
0.70567	-47
0.70933	-39
0.71300	-36
0.71667	-37
0.72033	-41
0.72400	-46
0.72767	-51
0.73133	-56
0.73500	-63
0.73867	-70
0.74233	-73
0.74600	-70
0.74967	-62
0.75333	-57
0.75700	-57
0.76067	-56
0.76433	-53
0.76800	-48
0.77167	-45
0.77533	-43
0.77900	-41
0.78267	-41
0.78633	-42
0.79000	-44
0.79367	-47
0.79733	-48
0.80100	-46
0.80467	-44
0.80833	-45
0.81200	-47
0.81567	-49
0.81933	-51
0.82300	-54
0.82667	-57
0.83033	-60
0.83400	-62
0.83767	-68
0.84133	-72
0.84500	-72
0.84867	-69
0.85233	-65
0.85600	-63
0.85967	-60
0.86333	-61
0.86700	-59
0.87067	-59
0.87433	-56
0.87800	-49
0.88167	-46
0.88533	-47
0.88900	-52
0.89267	-58
0.89633	-62
0.90000	-65
0.90367	-65
0.90733	-62
0.91100	-63
0.91467	-69
0.91833	-75
0.92200	-75
0.92567	-70
0.92933	-63
0.93300	-63
0.93667	-65
0.94033	-67
0.94400	-67
0.94767	-66
0.95133	-64
0.95500	-65
0.95867	-69
0.96233	-73
0.96600	-77
0.96967	-77
0.97333	-77
0.97700	-75
0.98067	-72
0.98433	-65
0.98800	-57
0.99167	-50
0.99533	-46
0.99900	-47
1.00267	-52
1.00633	-56
1.01000	-56
1.01367	-56
1.01733	-56
1.02100	-58
1.02467	-60
1.02833	-62
1.03200	-64
1.03567	-68
1.03933	-76
1.04300	-84
1.04667	-87
1.05033	-86
1.05400	-84
1.05767	-81
1.06133	-75
1.06500	-67
1.06867	-64
1.07233	-66
1.07600	-74
1.07967	-80
1.08333	-77
1.08700	-70
1.09067	-68
1.09433	-71
1.09800	-75
1.10167	-76
1.10533	-74
1.10900	-72
1.11267	-73
1.11633	-75
1.12000	-80
1.12367	-86
1.12733	-91
1.13100	-91
1.13467	-87
1.13833	-81
1.14200	-77
1.14567	-74
1.14933	-73
1.15300	-72
1.15667	-71
1.16033	-70
1.16400	-70
1.16767	-66
1.17133	-58
1.17500	-52
1.17867	-53
1.18233	-58
1.18600	-67
1.18967	-77
1.19333	-82
1.19700	-81
1.20067	-77
1.20433	-71
1.20800	-69
1.21167	-71
1.21533	-74
1.21900	-77
1.22267	-79
1.22633	-80
1.23000	-78
1.23367	-75
1.23733	-73
1.24100	-76
1.24467	-80
1.24833	-87
1.25200	-95
1.25567	-102
1.25933	-106
1.26300	-107
1.26667	-107
1.27033	-105
1.27400	-102
1.27767	-97
1.28133	-92
1.28500	-86
1.28867	-82
1.29233	-77
1.29600	-72
1.29967	-69
1.30333	-67
1.30700	-70
1.31067	-76
1.31433	-80
1.31800	-84
1.32167	-89
1.32533	-96
1.32900	-101
1.33267	-102
1.33633	-99
1.34000	-92
1.34367	-87
1.34733	-85
1.35100	-85
1.35467	-88
1.35833	-95
1.36200	-102
1.36567	-105
1.36933	-109
1.37300	-110
1.37667	-108
1.38033	-105
1.38400	-103
1.38767	-102
1.39133	-101
1.39500	-100
1.39867	-103
1.40233	-106
1.40600	-102
1.40967	-94
1.41333	-86
1.41700	-83
1.42067	-85
1.42433	-91
1.42800	-95
1.43167	-94
1.43533	-91
1.43900	-70
1.44267	31
1.44633	284
1.45000	739
1.45367	1511
1.45733	2630
1.46100	3906
1.46467	5091
1.46833	6032
1.47200	6682
1.47567	7038
1.47933	6906
1.48300	6327
1.48667	5422
1.49033	4372
1.49400	3351
1.49767	2472
1.50133	1777
1.50500	1256
1.50867	880
1.51233	609
1.51600	414
1.51967	276
1.52333	179
1.52700	110
1.53067	60
1.53433	27
1.53800	17
1.54167	64
1.54533	225
1.54900	536
1.55267	955
1.55633	1384
1.56000	1750
1.56367	2022
1.56733	2179
1.57100	2189
1.57467	2026
1.57833	1719
1.58200	1341
1.58567	973
1.58933	665
1.59300	429
1.59667	253
1.60033	127
1.60400	39
1.60767	-19
1.61133	-52
1.61500	-70
1.61867	-79
1.62233	-85
1.62600	-90
1.62967	-96
1.63333	-102
1.63700	-105
1.64067	-108
1.64433	-112
1.64800	-115
1.65167	-117
1.65533	-117
1.65900	-114
1.66267	-112
1.66633	-113
1.67000	-114
1.67367	-115
1.67733	-112
1.68100	-109
1.68467	-109
1.68833	-110
1.69200	-109
1.69567	-106
1.69933	-106
1.70300	-109
1.70667	-113
1.71033	-116
1.71400	-120
1.71767	-124
1.72133	-128
1.72500	-132
1.72867	-136
1.73233	-137
1.73600	-136
1.73967	-133
1.74333	-129
1.74700	-127
1.75067	-125
1.75433	-126
1.75800	-129
1.76167	-132
1.76533	-132
1.76900	-130
1.77267	-121
1.77633	-109
1.78000	-103
1.78367	-103
1.78733	-106
1.79100	-114
1.79467	-124
1.79833	-134
1.80200	-143
1.80567	-149
1.80933	-151
1.81300	-150
1.81667	-149
1.82033	-146
1.82400	-144
1.82767	-143
1.83133	-141
1.83500	-142
1.83867	-141
1.84233	-135
1.84600	-130
1.84967	-129
1.85333	-128
1.85700	-128
1.86067	-126
1.86433	-121
1.86800	-118
1.87167	-117
1.87533	-117
1.87900	-118
1.88267	-119
1.88633	-119
1.89000	-120
1.89367	-124
1.89733	-128
1.90100	-129
1.90467	-127
1.90833	-122
1.91200	-120
1.91567	-119
1.91933	-118
1.92300	-116
1.92667	-117
1.93033	-119
1.93400	-121
1.93767	-120
1.94133	-119
1.94500	-117
1.94867	-109
1.95233	-79
1.95600	121
1.95967	1319
1.96333	6926
1.96700	26792
1.97067	80675
1.97433	193077
1.97800	375130
1.98167	609701
1.98533	857106
1.98900	1073229
1.99267	1224091
1.99633	1289625
2.00000	1263871
2.00367	1156247
2.00733	990658
2.01100	799099
2.01467	611553
2.01833	448422
2.02200	318437
2.02567	221315
2.02933	152007
2.03300	104078
2.03667	71596
2.04033	49836
2.04400	35320
2.04767	25610
2.05133	19060
2.05500	14582
2.05867	11469
2.06233	9264
2.06600	7666
2.06967	6473
2.07333	5554
2.07700	4833
2.08067	4258
2.08433	3796
2.08800	3421
2.09167	3110
2.09533	2844
2.09900	2614
2.10267	2415
2.10633	2243
2.11000	2091
2.11367	1954
2.11733	1832
2.12100	1723
2.12467	1624
2.12833	1534
2.13200	1453
2.13567	1381
2.13933	1312
2.14300	1247
2.14667	1190
2.15033	1138
2.15400	1091
2.15767	1048
2.16133	1013
2.16500	981
2.16867	950
2.17233	919
2.17600	887
2.17967	854
2.18333	821
2.18700	787
2.19067	754
2.19433	723
2.19800	691
2.20167	661
2.20533	639
2.20900	623
2.21267	610
2.21633	600
2.22000	592
2.22367	583
2.22733	569
2.23100	550
2.23467	532
2.23833	515
2.24200	501
2.24567	488
2.24933	473
2.25300	456
2.25667	443
2.26033	435
2.26400	429
2.26767	424
2.27133	422
2.27500	421
2.27867	417
2.28233	407
2.28600	395
2.28967	386
2.29333	377
2.29700	366
2.30067	352
2.30433	338
2.30800	327
2.31167	321
2.31533	317
2.31900	316
2.32267	316
2.32633	316
2.33000	314
2.33367	310
2.33733	305
2.34100	301
2.34467	299
2.34833	295
2.35200	287
2.35567	280
2.35933	276
2.36300	274
2.36667	272
2.37033	269
2.37400	263
2.37767	257
2.38133	251
2.38500	248
2.38867	247
2.39233	251
2.39600	253
2.39967	252
2.40333	252
2.40700	253
2.41067	251
2.41433	247
2.41800	245
2.42167	244
2.42533	242
2.42900	241
2.43267	238
2.43633	232
2.44000	227
2.44367	225
2.44733	224
2.45100	222
2.45467	221
2.45833	222
2.46200	222
2.46567	221
2.46933	219
2.47300	218
2.47667	220
2.48033	222
2.48400	223
2.48767	220
2.49133	215
2.49500	210
2.49867	204
2.50233	197
2.50600	195
2.50967	197
2.51333	199
2.51700	199
2.52067	206
2.52433	216
2.52800	224
2.53167	227
2.53533	228
2.53900	225
2.54267	218
2.54633	208
2.55000	198
2.55367	192
2.55733	189
2.56100	188
2.56467	187
2.56833	187
2.57200	188
2.57567	188
2.57933	184
2.58300	177
2.58667	167
2.59033	160
2.59400	156
2.59767	155
2.60133	156
2.60500	156
2.60867	158
2.61233	161
2.61600	164
2.61967	169
2.62333	174
2.62700	173
2.63067	168
2.63433	161
2.63800	155
2.64167	151
2.64533	151
2.64900	154
2.65267	157
2.65633	160
2.66000	162
2.66367	165
2.66733	164
2.67100	163
2.67467	163
2.67833	161
2.68200	160
2.68567	159
2.68933	158
2.69300	156
2.69667	155
2.70033	156
2.70400	157
2.70767	158
2.71133	158
2.71500	158
2.71867	157
2.72233	154
2.72600	150
2.72967	145
2.73333	143
2.73700	145
2.74067	149
2.74433	152
2.74800	153
2.75167	153
2.75533	153
2.75900	154
2.76267	154
2.76633	152
2.77000	147
2.77367	144
2.77733	143
2.78100	143
2.78467	143
2.78833	143
2.79200	145
2.79567	149
2.79933	156
2.80300	163
2.80667	167
2.81033	166
2.81400	162
2.81767	157
2.82133	150
2.82500	145
2.82867	143
2.83233	143
2.83600	145
2.83967	147
2.84333	149
2.84700	150
2.85067	150
2.85433	151
2.85800	154
2.86167	159
2.86533	165
2.86900	170
2.87267	172
2.87633	171
2.88000	164
2.88367	157
2.88733	154
2.89100	152
2.89467	150
2.89833	150
2.90200	150
2.90567	150
2.90933	152
2.91300	157
2.91667	162
2.92033	164
2.92400	167
2.92767	170
2.93133	171
2.93500	171
2.93867	173
2.94233	175
2.94600	175
2.94967	176
2.95333	176
2.95700	176
2.96067	175
2.96433	173
2.96800	170
2.97167	168
2.97533	166
2.97900	163
2.98267	162
2.98633	162
2.99000	164
2.99367	167
2.99733	174
3.00100	183
3.00467	189
3.00833	188
3.01200	187
3.01567	186
3.01933	184
3.02300	178
3.02667	171
3.03033	165
3.03400	166
3.03767	172
3.04133	178
3.04500	178
3.04867	179
3.05233	179
3.05600	178
3.05967	179
3.06333	177
3.06700	173
3.07067	171
3.07433	168
3.07800	163
3.08167	164
3.08533	171
3.08900	176
3.09267	173
3.09633	163
3.10000	152
3.10367	144
3.10733	138
3.11100	136
3.11467	140
3.11833	144
3.12200	150
3.12567	152
3.12933	149
3.13300	142
3.13667	136
3.14033	133
3.14400	134
3.14767	139
3.15133	147
3.15500	156
3.15867	163
3.16233	164
3.16600	160
3.16967	159
3.17333	160
3.17700	161
3.18067	161
3.18433	156
3.18800	147
3.19167	136
3.19533	127
3.19900	120
3.20267	120
3.20633	124
3.21000	126
3.21367	125
3.21733	127
3.22100	129
3.22467	130
3.22833	129
3.23200	123
3.23567	119
3.23933	120
3.24300	128
3.24667	139
3.25033	147
3.25400	147
3.25767	144
3.26133	142
3.26500	143
3.26867	144
3.27233	146
3.27600	147
3.27967	147
3.28333	147
3.28700	148
3.29067	152
3.29433	156
3.29800	160
3.30167	163
3.30533	164
3.30900	162
3.31267	159
3.31633	158
3.32000	155
3.32367	151
3.32733	143
3.33100	134
3.33467	128
3.33833	128
3.34200	132
3.34567	136
3.34933	137
3.35300	132
3.35667	124
3.36033	117
3.36400	117
3.36767	123
3.37133	130
3.37500	136
3.37867	140
3.38233	141
3.38600	140
3.38967	141
3.39333	142
3.39700	144
3.40067	145
3.40433	143
3.40800	142
3.41167	140
3.41533	139
3.41900	137
3.42267	134
3.42633	130
3.43000	126
3.43367	125
3.43733	128
3.44100	131
3.44467	133
3.44833	131
3.45200	128
3.45567	127
3.45933	126
3.46300	123
3.46667	122
3.47033	125
3.47400	127
3.47767	129
3.48133	130
3.48500	134
3.48867	139
3.49233	140
3.49600	138
3.49967	136
3.50333	133
3.50700	128
3.51067	122
3.51433	117
3.51800	114
3.52167	113
3.52533	113
3.52900	112
3.53267	113
3.53633	116
3.54000	120
3.54367	122
3.54733	117
3.55100	111
3.55467	108
3.55833	109
3.56200	114
3.56567	121
3.56933	129
3.57300	132
3.57667	129
3.58033	123
3.58400	118
3.58767	119
3.59133	125
3.59500	132
3.59867	135
3.60233	132
3.60600	129
3.60967	126
3.61333	121
3.61700	116
3.62067	108
3.62433	101
3.62800	97
3.63167	98
3.63533	106
3.63900	114
3.64267	118
3.64633	119
3.65000	118
3.65367	117
3.65733	112
3.66100	103
3.66467	96
3.66833	93
3.67200	95
3.67567	99
3.67933	102
3.68300	101
3.68667	98
3.69033	94
3.69400	92
3.69767	90
3.70133	85
3.70500	80
3.70867	77
3.71233	78
3.71600	82
3.71967	91
3.72333	100
3.72700	112
3.73067	123
3.73433	127
3.73800	122
3.74167	113
3.74533	103
3.74900	96
3.75267	94
3.75633	97
3.76000	102
3.76367	102
3.76733	99
3.77100	95
3.77467	96
3.77833	98
3.78200	102
3.78567	110
3.78933	117
3.79300	121
3.79667	119
3.80033	113
3.80400	108
3.80767	108
3.81133	111
3.81500	112
3.81867	110
3.82233	107
3.82600	106
3.82967	108
3.83333	110
3.83700	112
3.84067	112
3.84433	112
3.84800	108
3.85167	102
3.85533	99
3.85900	99
3.86267	99
3.86633	94
3.87000	88
3.87367	86
3.87733	87
3.88100	89
3.88467	90
3.88833	92
3.89200	94
3.89567	94
3.89933	94
3.90300	96
3.90667	100
3.91033	104
3.91400	105
3.91767	101
3.92133	97
3.92500	98
3.92867	100
3.93233	98
3.93600	91
3.93967	84
3.94333	78
3.94700	76
3.95067	77
3.95433	80
3.95800	83
3.96167	83
3.96533	85
3.96900	86
3.97267	85
3.97633	82
3.98000	78
3.98367	76
3.98733	75
3.99100	75
3.99467	76
3.99833	78

[Chromatogram (Ch2)]
Interval(msec)	220
# of Points	1091
Start Time(min)	0.002
End Time(min)	3.998
R.Time (min)	Intensity
0.00167	0
0.00533	0
0.00900	0
0.01267	-0
0.01633	-0
0.02000	-0
0.02367	-0
0.02733	0
0.03100	0
0.03467	1
0.03833	1
0.04200	1
0.04567	0
0.04933	-0
0.05300	-0
0.05667	-1
0.06033	-1
0.06400	-1
0.06767	-1
0.07133	-1
0.07500	-1
0.07867	-0
0.08233	-0
0.08600	-0
0.08967	0
0.09333	0
0.09700	0
0.10067	1
0.10433	1
0.10800	1
0.11167	1
0.11533	1
0.11900	1
0.12267	1
0.12633	0
0.13000	0
0.13367	-0
0.13733	-1
0.14100	-1
0.14467	-1
0.14833	-1
0.15200	-2
0.15567	-2
0.15933	-3
0.16300	-3
0.16667	-3
0.17033	-3
0.17400	-3
0.17767	-4
0.18133	-4
0.18500	-4
0.18867	-4
0.19233	-4
0.19600	-4
0.19967	-3
0.20333	-3
0.20700	-3
0.21067	-2
0.21433	-2
0.21800	-2
0.22167	-2
0.22533	-1
0.22900	-0
0.23267	0
0.23633	1
0.24000	2
0.24367	3
0.24733	3
0.25100	4
0.25467	4
0.25833	5
0.26200	5
0.26567	5
0.26933	5
0.27300	5
0.27667	5
0.28033	5
0.28400	5
0.28767	5
0.29133	5
0.29500	4
0.29867	4
0.30233	4
0.30600	4
0.30967	4
0.31333	4
0.31700	4
0.32067	4
0.32433	4
0.32800	4
0.33167	4
0.33533	4
0.33900	4
0.34267	3
0.34633	3
0.35000	3
0.35367	2
0.35733	2
0.36100	1
0.36467	1
0.36833	1
0.37200	1
0.37567	1
0.37933	1
0.38300	1
0.38667	1
0.39033	1
0.39400	1
0.39767	1
0.40133	1
0.40500	1
0.40867	1
0.41233	1
0.41600	0
0.41967	0
0.42333	-0
0.42700	-0
0.43067	-0
0.43433	-0
0.43800	-0
0.44167	-0
0.44533	-0
0.44900	-0
0.45267	0
0.45633	0
0.46000	0
0.46367	0
0.46733	1
0.47100	1
0.47467	1
0.47833	1
0.48200	1
0.48567	1
0.48933	1
0.49300	1
0.49667	0
0.50033	0
0.50400	0
0.50767	-0
0.51133	-0
0.51500	-0
0.51867	-0
0.52233	-0
0.52600	-0
0.52967	-0
0.53333	-0
0.53700	-0
0.54067	-0
0.54433	-0
0.54800	0
0.55167	0
0.55533	0
0.55900	0
0.56267	0
0.56633	1
0.57000	1
0.57367	1
0.57733	1
0.58100	1
0.58467	1
0.58833	1
0.59200	1
0.59567	1
0.59933	1
0.60300	1
0.60667	1
0.61033	1
0.61400	1
0.61767	1
0.62133	1
0.62500	1
0.62867	1
0.63233	1
0.63600	0
0.63967	0
0.64333	0
0.64700	0
0.65067	-0
0.65433	-0
0.65800	-0
0.66167	-0
0.66533	-1
0.66900	-1
0.67267	-1
0.67633	-1
0.68000	-1
0.68367	-2
0.68733	-2
0.69100	-2
0.69467	-2
0.69833	-2
0.70200	-2
0.70567	-2
0.70933	-2
0.71300	-2
0.71667	-2
0.72033	-1
0.72400	-1
0.72767	-1
0.73133	-1
0.73500	-1
0.73867	-1
0.74233	-1
0.74600	-1
0.74967	-1
0.75333	-1
0.75700	-1
0.76067	-1
0.76433	-2
0.76800	-2
0.77167	-2
0.77533	-2
0.77900	-2
0.78267	-2
0.78633	-2
0.79000	-2
0.79367	-2
0.79733	-2
0.80100	-2
0.80467	-2
0.80833	-2
0.81200	-2
0.81567	-2
0.81933	-2
0.82300	-2
0.82667	-2
0.83033	-2
0.83400	-2
0.83767	-2
0.84133	-2
0.84500	-2
0.84867	-2
0.85233	-2
0.85600	-2
0.85967	-2
0.86333	-2
0.86700	-2
0.87067	-2
0.87433	-2
0.87800	-1
0.88167	-1
0.88533	-1
0.88900	-1
0.89267	-1
0.89633	-1
0.90000	-1
0.90367	-1
0.90733	-1
0.91100	-1
0.91467	-1
0.91833	-0
0.92200	-0
0.92567	-0
0.92933	-1
0.93300	-1
0.93667	-1
0.94033	-1
0.94400	-1
0.94767	-1
0.95133	-1
0.95500	-1
0.95867	-1
0.96233	-0
0.96600	-0
0.96967	-0
0.97333	-0
0.97700	-0
0.98067	-0
0.98433	-0
0.98800	-1
0.99167	-1
0.99533	-1
0.99900	-1
1.00267	-1
1.00633	-0
1.01000	-1
1.01367	-1
1.01733	-1
1.02100	-0
1.02467	-0
1.02833	-0
1.03200	-0
1.03567	-0
1.03933	-0
1.04300	-0
1.04667	-1
1.05033	-1
1.05400	-2
1.05767	-2
1.06133	-2
1.06500	-2
1.06867	-2
1.07233	-2
1.07600	-2
1.07967	-2
1.08333	-2
1.08700	-3
1.09067	-3
1.09433	-3
1.09800	-3
1.10167	-3
1.10533	-3
1.10900	-3
1.11267	-3
1.11633	-3
1.12000	-3
1.12367	-3
1.12733	-3
1.13100	-2
1.13467	-2
1.13833	-1
1.14200	-1
1.14567	-1
1.14933	-1
1.15300	-1
1.15667	-1
1.16033	-0
1.16400	-0
1.16767	-0
1.17133	0
1.17500	-0
1.17867	-0
1.18233	-0
1.18600	-0
1.18967	-0
1.19333	0
1.19700	0
1.20067	0
1.20433	1
1.20800	1
1.21167	0
1.21533	0
1.21900	-0
1.22267	-1
1.22633	-1
1.23000	-1
1.23367	-1
1.23733	-1
1.24100	-1
1.24467	-1
1.24833	-0
1.25200	-0
1.25567	-0
1.25933	0
1.26300	0
1.26667	0
1.27033	-0
1.27400	-0
1.27767	0
1.28133	0
1.28500	0
1.28867	0
1.29233	0
1.29600	0
1.29967	0
1.30333	0
1.30700	0
1.31067	0
1.31433	0
1.31800	0
1.32167	0
1.32533	-0
1.32900	-0
1.33267	-0
1.33633	-1
1.34000	-1
1.34367	-1
1.34733	-1
1.35100	-1
1.35467	-1
1.35833	-1
1.36200	-1
1.36567	-1
1.36933	-1
1.37300	-1
1.37667	-1
1.38033	-1
1.38400	-2
1.38767	-2
1.39133	-2
1.39500	-2
1.39867	-2
1.40233	-3
1.40600	-3
1.40967	-3
1.41333	-3
1.41700	-4
1.42067	-4
1.42433	-4
1.42800	-4
1.43167	-4
1.43533	-4
1.43900	-4
1.44267	-4
1.44633	-4
1.45000	-4
1.45367	-4
1.45733	-4
1.46100	-4
1.46467	-3
1.46833	-3
1.47200	-3
1.47567	-3
1.47933	-2
1.48300	-2
1.48667	-2
1.49033	-2
1.49400	-2
1.49767	-2
1.50133	-2
1.50500	-2
1.50867	-2
1.51233	-2
1.51600	-2
1.51967	-2
1.52333	-2
1.52700	-2
1.53067	-2
1.53433	-2
1.53800	-1
1.54167	-1
1.54533	-1
1.54900	-1
1.55267	-1
1.55633	-1
1.56000	-1
1.56367	-1
1.56733	-2
1.57100	-2
1.57467	-2
1.57833	-2
1.58200	-2
1.58567	-2
1.58933	-2
1.59300	-3
1.59667	-3
1.60033	-4
1.60400	-4
1.60767	-6
1.61133	-7
1.61500	-10
1.61867	-12
1.62233	-15
1.62600	-18
1.62967	-22
1.63333	-25
1.63700	-29
1.64067	-32
1.64433	-36
1.64800	-40
1.65167	-44
1.65533	-48
1.65900	-52
1.66267	-56
1.66633	-61
1.67000	-65
1.67367	-70
1.67733	-75
1.68100	-81
1.68467	-86
1.68833	-92
1.69200	-96
1.69567	-100
1.69933	-104
1.70300	-107
1.70667	-110
1.71033	-112
1.71400	-114
1.71767	-115
1.72133	-116
1.72500	-116
1.72867	-117
1.73233	-116
1.73600	-116
1.73967	-115
1.74333	-115
1.74700	-114
1.75067	-113
1.75433	-113
1.75800	-113
1.76167	-114
1.76533	-114
1.76900	-115
1.77267	-117
1.77633	-118
1.78000	-119
1.78367	-120
1.78733	-121
1.79100	-122
1.79467	-122
1.79833	-122
1.80200	-123
1.80567	-123
1.80933	-123
1.81300	-123
1.81667	-123
1.82033	-123
1.82400	-123
1.82767	-124
1.83133	-124
1.83500	-124
1.83867	-125
1.84233	-125
1.84600	-125
1.84967	-125
1.85333	-124
1.85700	-124
1.86067	-124
1.86433	-124
1.86800	-124
1.87167	-125
1.87533	-125
1.87900	-125
1.88267	-126
1.88633	-126
1.89000	-125
1.89367	-125
1.89733	-125
1.90100	-125
1.90467	-124
1.90833	-124
1.91200	-124
1.91567	-123
1.91933	-123
1.92300	-122
1.92667	-122
1.93033	-121
1.93400	-121
1.93767	-120
1.94133	-119
1.94500	-119
1.94867	-118
1.95233	-118
1.95600	-118
1.95967	-118
1.96333	-118
1.96700	-119
1.97067	-119
1.97433	-119
1.97800	-119
1.98167	-118
1.98533	-118
1.98900	-118
1.99267	-119
1.99633	-119
2.00000	-119
2.00367	-119
2.00733	-118
2.01100	-118
2.01467	-118
2.01833	-117
2.02200	-116
2.02567	-116
2.02933	-115
2.03300	-115
2.03667	-114
2.04033	-114
2.04400	-113
2.04767	-113
2.05133	-113
2.05500	-112
2.05867	-112
2.06233	-112
2.06600	-112
2.06967	-112
2.07333	-111
2.07700	-111
2.08067	-110
2.08433	-109
2.08800	-109
2.09167	-108
2.09533	-107
2.09900	-107
2.10267	-107
2.10633	-107
2.11000	-107
2.11367	-108
2.11733	-108
2.12100	-108
2.12467	-107
2.12833	-106
2.13200	-104
2.13567	-103
2.13933	-102
2.14300	-102
2.14667	-102
2.15033	-103
2.15400	-103
2.15767	-103
2.16133	-103
2.16500	-103
2.16867	-103
2.17233	-102
2.17600	-102
2.17967	-101
2.18333	-101
2.18700	-101
2.19067	-100
2.19433	-100
2.19800	-100
2.20167	-100
2.20533	-100
2.20900	-100
2.21267	-100
2.21633	-100
2.22000	-99
2.22367	-99
2.22733	-98
2.23100	-97
2.23467	-96
2.23833	-95
2.24200	-95
2.24567	-95
2.24933	-95
2.25300	-95
2.25667	-95
2.26033	-95
2.26400	-94
2.26767	-94
2.27133	-93
2.27500	-93
2.27867	-93
2.28233	-94
2.28600	-94
2.28967	-93
2.29333	-93
2.29700	-93
2.30067	-93
2.30433	-92
2.30800	-92
2.31167	-92
2.31533	-92
2.31900	-91
2.32267	-90
2.32633	-90
2.33000	-90
2.33367	-90
2.33733	-89
2.34100	-89
2.34467	-88
2.34833	-87
2.35200	-87
2.35567	-86
2.35933	-85
2.36300	-84
2.36667	-83
2.37033	-82
2.37400	-80
2.37767	-77
2.38133	-74
2.38500	-70
2.38867	-66
2.39233	-62
2.39600	-58
2.39967	-53
2.40333	-49
2.40700	-44
2.41067	-40
2.41433	-36
2.41800	-32
2.42167	-28
2.42533	-25
2.42900	-22
2.43267	-20
2.43633	-18
2.44000	-16
2.44367	-14
2.44733	-12
2.45100	-10
2.45467	-9
2.45833	-7
2.46200	-6
2.46567	-4
2.46933	-3
2.47300	-1
2.47667	-0
2.48033	1
2.48400	2
2.48767	2
2.49133	3
2.49500	4
2.49867	5
2.50233	6
2.50600	7
2.50967	7
2.51333	8
2.51700	9
2.52067	10
2.52433	10
2.52800	11
2.53167	11
2.53533	11
2.53900	11
2.54267	12
2.54633	12
2.55000	12
2.55367	13
2.55733	13
2.56100	14
2.56467	14
2.56833	14
2.57200	15
2.57567	15
2.57933	15
2.58300	15
2.58667	15
2.59033	14
2.59400	15
2.59767	15
2.60133	15
2.60500	15
2.60867	16
2.61233	16
2.61600	17
2.61967	17
2.62333	18
2.62700	18
2.63067	18
2.63433	18
2.63800	18
2.64167	18
2.64533	18
2.64900	18
2.65267	17
2.65633	17
2.66000	17
2.66367	17
2.66733	17
2.67100	17
2.67467	18
2.67833	18
2.68200	18
2.68567	19
2.68933	20
2.69300	21
2.69667	21
2.70033	22
2.70400	22
2.70767	23
2.71133	23
2.71500	23
2.71867	22
2.72233	22
2.72600	22
2.72967	22
2.73333	22
2.73700	22
2.74067	22
2.74433	22
2.74800	22
2.75167	23
2.75533	23
2.75900	24
2.76267	24
2.76633	25
2.77000	26
2.77367	26
2.77733	27
2.78100	27
2.78467	27
2.78833	27
2.79200	27
2.79567	27
2.79933	27
2.80300	27
2.80667	27
2.81033	27
2.81400	27
2.81767	27
2.82133	28
2.82500	28
2.82867	28
2.83233	28
2.83600	27
2.83967	27
2.84333	26
2.84700	24
2.85067	21
2.85433	15
2.85800	7
2.86167	-5
2.86533	-20
2.86900	-39
2.87267	-62
2.87633	-89
2.88000	-119
2.88367	-154
2.88733	-192
2.89100	-233
2.89467	-276
2.89833	-322
2.90200	-370
2.90567	-419
2.90933	-469
2.91300	-519
2.91667	-569
2.92033	-620
2.92400	-670
2.92767	-720
2.93133	-769
2.93500	-819
2.93867	-871
2.94233	-930
2.94600	-992
2.94967	-1048
2.95333	-1087
2.95700	-1101
2.96067	-1089
2.96433	-1052
2.96800	-997
2.97167	-927
2.97533	-850
2.97900	-770
2.98267	-689
2.98633	-612
2.99000	-538
2.99367	-471
2.99733	-410
3.00100	-355
3.00467	-306
3.00833	-262
3.01200	-225
3.01567	-191
3.01933	-163
3.02300	-138
3.02667	-116
3.03033	-98
3.03400	-82
3.03767	-68
3.04133	-56
3.04500	-46
3.04867	-37
3.05233	-29
3.05600	-23
3.05967	-18
3.06333	-13
3.06700	-9
3.07067	-6
3.07433	-3
3.07800	-1
3.08167	1
3.08533	3
3.08900	4
3.09267	5
3.09633	6
3.10000	8
3.10367	8
3.10733	9
3.11100	10
3.11467	11
3.11833	11
3.12200	12
3.12567	12
3.12933	13
3.13300	13
3.13667	14
3.14033	14
3.14400	15
3.14767	15
3.15133	15
3.15500	15
3.15867	16
3.16233	16
3.16600	16
3.16967	16
3.17333	17
3.17700	17
3.18067	18
3.18433	18
3.18800	19
3.19167	19
3.19533	20
3.19900	20
3.20267	21
3.20633	21
3.21000	21
3.21367	22
3.21733	22
3.22100	23
3.22467	24
3.22833	24
3.23200	25
3.23567	25
3.23933	26
3.24300	26
3.24667	27
3.25033	27
3.25400	27
3.25767	27
3.26133	28
3.26500	28
3.26867	28
3.27233	28
3.27600	28
3.27967	28
3.28333	28
3.28700	28
3.29067	28
3.29433	28
3.29800	28
3.30167	28
3.30533	28
3.30900	28
3.31267	28
3.31633	28
3.32000	28
3.32367	28
3.32733	28
3.33100	28
3.33467	28
3.33833	28
3.34200	28
3.34567	28
3.34933	28
3.35300	28
3.35667	27
3.36033	27
3.36400	27
3.36767	27
3.37133	27
3.37500	26
3.37867	26
3.38233	26
3.38600	26
3.38967	25
3.39333	25
3.39700	25
3.40067	25
3.40433	24
3.40800	24
3.41167	24
3.41533	24
3.41900	24
3.42267	23
3.42633	23
3.43000	23
3.43367	23
3.43733	23
3.44100	23
3.44467	23
3.44833	23
3.45200	23
3.45567	23
3.45933	23
3.46300	24
3.46667	24
3.47033	24
3.47400	24
3.47767	24
3.48133	24
3.48500	24
3.48867	24
3.49233	24
3.49600	24
3.49967	25
3.50333	25
3.50700	25
3.51067	25
3.51433	25
3.51800	26
3.52167	26
3.52533	26
3.52900	26
3.53267	26
3.53633	26
3.54000	26
3.54367	26
3.54733	26
3.55100	26
3.55467	26
3.55833	26
3.56200	27
3.56567	27
3.56933	27
3.57300	27
3.57667	27
3.58033	27
3.58400	27
3.58767	27
3.59133	28
3.59500	27
3.59867	27
3.60233	27
3.60600	27
3.60967	27
3.61333	26
3.61700	26
3.62067	26
3.62433	26
3.62800	26
3.63167	26
3.63533	26
3.63900	26
3.64267	25
3.64633	25
3.65000	25
3.65367	25
3.65733	25
3.66100	25
3.66467	25
3.66833	25
3.67200	25
3.67567	26
3.67933	26
3.68300	26
3.68667	26
3.69033	26
3.69400	26
3.69767	27
3.70133	27
3.70500	27
3.70867	27
3.71233	27
3.71600	27
3.71967	27
3.72333	27
3.72700	27
3.73067	26
3.73433	26
3.73800	26
3.74167	26
3.74533	26
3.74900	26
3.75267	26
3.75633	26
3.76000	27
3.76367	27
3.76733	27
3.77100	27
3.77467	27
3.77833	27
3.78200	27
3.78567	27
3.78933	27
3.79300	27
3.79667	27
3.80033	27
3.80400	27
3.80767	27
3.81133	26
3.81500	26
3.81867	26
3.82233	26
3.82600	26
3.82967	26
3.83333	26
3.83700	26
3.84067	26
3.84433	26
3.84800	26
3.85167	26
3.85533	26
3.85900	26
3.86267	26
3.86633	25
3.87000	25
3.87367	25
3.87733	25
3.88100	25
3.88467	25
3.88833	25
3.89200	25
3.89567	25
3.89933	25
3.90300	25
3.90667	25
3.91033	25
3.91400	25
3.91767	25
3.92133	25
3.92500	25
3.92867	25
3.93233	25
3.93600	25
3.93967	26
3.94333	26
3.94700	26
3.95067	25
3.95433	25
3.95800	25
3.96167	25
3.96533	25
3.96900	25
3.97267	25
3.97633	25
3.98000	25
3.98367	25
3.98733	25
3.99100	26
3.99467	26
3.99833	26

[Chromatogram (Ch3)]
Interval(msec)	220
# of Points	1091
Start Time(min)	0.002
End Time(min)	3.998
R.Time (min)	Intensity
0.00167	-1
0.00533	-2
0.00900	-3
0.01267	-5
0.01633	-5
0.02000	-4
0.02367	-1
0.02733	-1
0.03100	-2
0.03467	-2
0.03833	-3
0.04200	-5
0.04567	-6
0.04933	-5
0.05300	-3
0.05667	-4
0.06033	-3
0.06400	-3
0.06767	-3
0.07133	-2
0.07500	-1
0.07867	-3
0.08233	-2
0.08600	-0
0.08967	-1
0.09333	-1
0.09700	0
0.10067	2
0.10433	3
0.10800	2
0.11167	1
0.11533	-1
0.11900	-1
0.12267	-0
0.12633	-0
0.13000	-2
0.13367	-4
0.13733	-4
0.14100	-4
0.14467	-4
0.14833	-2
0.15200	-1
0.15567	-0
0.15933	-0
0.16300	1
0.16667	2
0.17033	-0
0.17400	-3
0.17767	-3
0.18133	-1
0.18500	1
0.18867	4
0.19233	5
0.19600	4
0.19967	4
0.20333	4
0.20700	5
0.21067	5
0.21433	6
0.21800	7
0.22167	7
0.22533	6
0.22900	6
0.23267	6
0.23633	4
0.24000	4
0.24367	4
0.24733	2
0.25100	0
0.25467	2
0.25833	2
0.26200	1
0.26567	3
0.26933	4
0.27300	5
0.27667	5
0.28033	5
0.28400	4
0.28767	4
0.29133	2
0.29500	2
0.29867	3
0.30233	5
0.30600	4
0.30967	3
0.31333	3
0.31700	4
0.32067	4
0.32433	5
0.32800	6
0.33167	5
0.33533	8
0.33900	9
0.34267	6
0.34633	6
0.35000	8
0.35367	7
0.35733	6
0.36100	4
0.36467	2
0.36833	2
0.37200	3
0.37567	4
0.37933	6
0.38300	8
0.38667	9
0.39033	8
0.39400	8
0.39767	9
0.40133	9
0.40500	10
0.40867	11
0.41233	11
0.41600	11
0.41967	9
0.42333	9
0.42700	9
0.43067	10
0.43433	11
0.43800	11
0.44167	11
0.44533	12
0.44900	14
0.45267	13
0.45633	12
0.46000	10
0.46367	10
0.46733	9
0.47100	10
0.47467	11
0.47833	11
0.48200	12
0.48567	12
0.48933	12
0.49300	12
0.49667	10
0.50033	8
0.50400	8
0.50767	11
0.51133	15
0.51500	17
0.51867	17
0.52233	16
0.52600	15
0.52967	15
0.53333	14
0.53700	14
0.54067	17
0.54433	18
0.54800	18
0.55167	19
0.55533	19
0.55900	17
0.56267	17
0.56633	18
0.57000	18
0.57367	18
0.57733	18
0.58100	17
0.58467	16
0.58833	17
0.59200	18
0.59567	19
0.59933	18
0.60300	16
0.60667	14
0.61033	14
0.61400	14
0.61767	13
0.62133	14
0.62500	15
0.62867	16
0.63233	18
0.63600	22
0.63967	24
0.64333	26
0.64700	27
0.65067	26
0.65433	23
0.65800	23
0.66167	24
0.66533	25
0.66900	24
0.67267	23
0.67633	23
0.68000	21
0.68367	20
0.68733	22
0.69100	20
0.69467	19
0.69833	19
0.70200	20
0.70567	21
0.70933	21
0.71300	21
0.71667	22
0.72033	25
0.72400	26
0.72767	26
0.73133	25
0.73500	24
0.73867	23
0.74233	23
0.74600	24
0.74967	24
0.75333	23
0.75700	25
0.76067	27
0.76433	27
0.76800	25
0.77167	23
0.77533	20
0.77900	19
0.78267	20
0.78633	22
0.79000	22
0.79367	25
0.79733	28
0.80100	31
0.80467	33
0.80833	34
0.81200	34
0.81567	34
0.81933	30
0.82300	29
0.82667	28
0.83033	28
0.83400	28
0.83767	28
0.84133	26
0.84500	25
0.84867	26
0.85233	25
0.85600	23
0.85967	25
0.86333	26
0.86700	30
0.87067	33
0.87433	34
0.87800	32
0.88167	31
0.88533	31
0.88900	31
0.89267	31
0.89633	32
0.90000	32
0.90367	32
0.90733	32
0.91100	34
0.91467	34
0.91833	34
0.92200	37
0.92567	38
0.92933	36
0.93300	36
0.93667	37
0.94033	37
0.94400	35
0.94767	35
0.95133	35
0.95500	36
0.95867	38
0.96233	39
0.96600	39
0.96967	38
0.97333	37
0.97700	35
0.98067	35
0.98433	36
0.98800	38
0.99167	38
0.99533	38
0.99900	40
1.00267	41
1.00633	43
1.01000	44
1.01367	44
1.01733	43
1.02100	43
1.02467	43
1.02833	40
1.03200	40
1.03567	41
1.03933	41
1.04300	39
1.04667	40
1.05033	42
1.05400	44
1.05767	46
1.06133	46
1.06500	46
1.06867	46
1.07233	47
1.07600	46
1.07967	46
1.08333	45
1.08700	45
1.09067	44
1.09433	42
1.09800	41
1.10167	42
1.10533	43
1.10900	43
1.11267	44
1.11633	47
1.12000	48
1.12367	46
1.12733	44
1.13100	44
1.13467	44
1.13833	42
1.14200	42
1.14567	41
1.14933	41
1.15300	40
1.15667	40
1.16033	42
1.16400	45
1.16767	46
1.17133	48
1.17500	50
1.17867	51
1.18233	51
1.18600	50
1.18967	48
1.19333	48
1.19700	49
1.20067	51
1.20433	53
1.20800	52
1.21167	49
1.21533	46
1.21900	45
1.22267	45
1.22633	45
1.23000	45
1.23367	46
1.23733	49
1.24100	48
1.24467	47
1.24833	46
1.25200	47
1.25567	48
1.25933	49
1.26300	50
1.26667	48
1.27033	49
1.27400	49
1.27767	48
1.28133	49
1.28500	49
1.28867	49
1.29233	48
1.29600	50
1.29967	52
1.30333	52
1.30700	52
1.31067	53
1.31433	55
1.31800	55
1.32167	53
1.32533	52
1.32900	52
1.33267	53
1.33633	55
1.34000	56
1.34367	54
1.34733	53
1.35100	55
1.35467	56
1.35833	58
1.36200	61
1.36567	62
1.36933	63
1.37300	63
1.37667	62
1.38033	60
1.38400	61
1.38767	62
1.39133	61
1.39500	60
1.39867	58
1.40233	58
1.40600	58
1.40967	57
1.41333	57
1.41700	59
1.42067	59
1.42433	59
1.42800	60
1.43167	61
1.43533	62
1.43900	64
1.44267	64
1.44633	62
1.45000	61
1.45367	60
1.45733	58
1.46100	58
1.46467	59
1.46833	59
1.47200	59
1.47567	60
1.47933	59
1.48300	59
1.48667	59
1.49033	57
1.49400	57
1.49767	57
1.50133	59
1.50500	59
1.50867	58
1.51233	58
1.51600	59
1.51967	61
1.52333	61
1.52700	62
1.53067	62
1.53433	62
1.53800	63
1.54167	62
1.54533	61
1.54900	59
1.55267	58
1.55633	58
1.56000	61
1.56367	62
1.56733	60
1.57100	60
1.57467	61
1.57833	61
1.58200	62
1.58567	62
1.58933	62
1.59300	63
1.59667	61
1.60033	61
1.60400	61
1.60767	62
1.61133	63
1.61500	63
1.61867	62
1.62233	63
1.62600	65
1.62967	67
1.63333	67
1.63700	66
1.64067	66
1.64433	66
1.64800	66
1.65167	68
1.65533	70
1.65900	72
1.66267	72
1.66633	73
1.67000	75
1.67367	76
1.67733	76
1.68100	77
1.68467	80
1.68833	80
1.69200	81
1.69567	82
1.69933	80
1.70300	78
1.70667	75
1.71033	73
1.71400	72
1.71767	72
1.72133	74
1.72500	78
1.72867	79
1.73233	81
1.73600	85
1.73967	85
1.74333	84
1.74700	80
1.75067	82
1.75433	85
1.75800	86
1.76167	85
1.76533	85
1.76900	85
1.77267	87
1.77633	87
1.78000	88
1.78367	87
1.78733	86
1.79100	86
1.79467	89
1.79833	91
1.80200	91
1.80567	91
1.80933	92
1.81300	92
1.81667	92
1.82033	92
1.82400	91
1.82767	90
1.83133	91
1.83500	93
1.83867	95
1.84233	95
1.84600	97
1.84967	97
1.85333	97
1.85700	95
1.86067	94
1.86433	94
1.86800	95
1.87167	93
1.87533	91
1.87900	91
1.88267	94
1.88633	96
1.89000	97
1.89367	101
1.89733	105
1.90100	105
1.90467	105
1.90833	105
1.91200	107
1.91567	106
1.91933	104
1.92300	102
1.92667	102
1.93033	102
1.93400	103
1.93767	104
1.94133	105
1.94500	107
1.94867	107
1.95233	108
1.95600	108
1.95967	110
1.96333	111
1.96700	113
1.97067	114
1.97433	114
1.97800	114
1.98167	115
1.98533	117
1.98900	118
1.99267	119
1.99633	121
2.00000	124
2.00367	123
2.00733	120
2.01100	119
2.01467	119
2.01833	120
2.02200	123
2.02567	126
2.02933	129
2.03300	132
2.03667	132
2.04033	133
2.04400	134
2.04767	135
2.05133	135
2.05500	134
2.05867	134
2.06233	137
2.06600	139
2.06967	143
2.07333	143
2.07700	140
2.08067	138
2.08433	139
2.08800	141
2.09167	143
2.09533	143
2.09900	146
2.10267	149
2.10633	150
2.11000	149
2.11367	149
2.11733	149
2.12100	150
2.12467	151
2.12833	152
2.13200	152
2.13567	152
2.13933	153
2.14300	154
2.14667	156
2.15033	158
2.15400	159
2.15767	162
2.16133	164
2.16500	165
2.16867	165
2.17233	164
2.17600	165
2.17967	166
2.18333	166
2.18700	166
2.19067	167
2.19433	171
2.19800	173
2.20167	173
2.20533	172
2.20900	173
2.21267	175
2.21633	176
2.22000	176
2.22367	177
2.22733	178
2.23100	178
2.23467	177
2.23833	178
2.24200	179
2.24567	179
2.24933	181
2.25300	181
2.25667	181
2.26033	180
2.26400	179
2.26767	178
2.27133	179
2.27500	179
2.27867	179
2.28233	181
2.28600	182
2.28967	183
2.29333	184
2.29700	186
2.30067	189
2.30433	190
2.30800	189
2.31167	191
2.31533	192
2.31900	192
2.32267	193
2.32633	195
2.33000	196
2.33367	196
2.33733	196
2.34100	198
2.34467	200
2.34833	200
2.35200	198
2.35567	198
2.35933	198
2.36300	198
2.36667	199
2.37033	201
2.37400	202
2.37767	202
2.38133	202
2.38500	200
2.38867	202
2.39233	202
2.39600	201
2.39967	201
2.40333	202
2.40700	200
2.41067	201
2.41433	203
2.41800	206
2.42167	208
2.42533	210
2.42900	212
2.43267	211
2.43633	212
2.44000	213
2.44367	221
2.44733	242
2.45100	268
2.45467	294
2.45833	311
2.46200	314
2.46567	311
2.46933	308
2.47300	307
2.47667	307
2.48033	304
2.48400	297
2.48767	289
2.49133	281
2.49500	274
2.49867	268
2.50233	265
2.50600	264
2.50967	261
2.51333	260
2.51700	262
2.52067	265
2.52433	266
2.52800	266
2.53167	262
2.53533	260
2.53900	257
2.54267	252
2.54633	246
2.55000	241
2.55367	236
2.55733	233
2.56100	233
2.56467	233
2.56833	231
2.57200	229
2.57567	228
2.57933	229
2.58300	228
2.58667	226
2.59033	222
2.59400	215
2.59767	200
2.60133	179
2.60500	150
2.60867	111
2.61233	65
2.61600	17
2.61967	-32
2.62333	-76
2.62700	-114
2.63067	-145
2.63433	-170
2.63800	-188
2.64167	-201
2.64533	-210
2.64900	-217
2.65267	-217
2.65633	-212
2.66000	-206
2.66367	-199
2.66733	-190
2.67100	-178
2.67467	-166
2.67833	-153
2.68200	-141
2.68567	-132
2.68933	-122
2.69300	-111
2.69667	-98
2.70033	-85
2.70400	-74
2.70767	-66
2.71133	-58
2.71500	-51
2.71867	-43
2.72233	-34
2.72600	-23
2.72967	-13
2.73333	-6
2.73700	1
2.74067	9
2.74433	15
2.74800	21
2.75167	26
2.75533	33
2.75900	39
2.76267	43
2.76633	47
2.77000	51
2.77367	53
2.77733	57
2.78100	60
2.78467	64
2.78833	68
2.79200	73
2.79567	76
2.79933	77
2.80300	80
2.80667	84
2.81033	87
2.81400	90
2.81767	95
2.82133	104
2.82500	124
2.82867	168
2.83233	255
2.83600	409
2.83967	655
2.84333	1009
2.84700	1475
2.85067	2041
2.85433	2678
2.85800	3339
2.86167	3979
2.86533	4547
2.86900	4996
2.87267	5297
2.87633	5438
2.88000	5426
2.88367	5286
2.88733	5041
2.89100	4722
2.89467	4358
2.89833	3970
2.90200	3581
2.90567	3205
2.90933	2851
2.91300	2527
2.91667	2230
2.92033	1961
2.92400	1723
2.92767	1514
2.93133	1328
2.93500	1163
2.93867	1021
2.94233	898
2.94600	793
2.94967	703
2.95333	625
2.95700	555
2.96067	496
2.96433	445
2.96800	398
2.97167	359
2.97533	327
2.97900	299
2.98267	276
2.98633	256
2.99000	237
2.99367	220
2.99733	207
3.00100	197
3.00467	187
3.00833	179
3.01200	173
3.01567	166
3.01933	161
3.02300	158
3.02667	153
3.03033	150
3.03400	147
3.03767	145
3.04133	146
3.04500	145
3.04867	143
3.05233	142
3.05600	143
3.05967	142
3.06333	141
3.06700	141
3.07067	141
3.07433	141
3.07800	140
3.08167	139
3.08533	140
3.08900	139
3.09267	137
3.09633	135
3.10000	135
3.10367	134
3.10733	132
3.11100	132
3.11467	132
3.11833	134
3.12200	134
3.12567	133
3.12933	133
3.13300	133
3.13667	134
3.14033	134
3.14400	135
3.14767	135
3.15133	134
3.15500	135
3.15867	135
3.16233	136
3.16600	137
3.16967	138
3.17333	137
3.17700	137
3.18067	138
3.18433	141
3.18800	141
3.19167	141
3.19533	141
3.19900	141
3.20267	142
3.20633	144
3.21000	144
3.21367	143
3.21733	143
3.22100	147
3.22467	149
3.22833	149
3.23200	151
3.23567	152
3.23933	151
3.24300	152
3.24667	154
3.25033	153
3.25400	154
3.25767	155
3.26133	155
3.26500	154
3.26867	154
3.27233	155
3.27600	156
3.27967	158
3.28333	157
3.28700	158
3.29067	158
3.29433	159
3.29800	161
3.30167	162
3.30533	161
3.30900	160
3.31267	159
3.31633	161
3.32000	162
3.32367	163
3.32733	164
3.33100	166
3.33467	165
3.33833	165
3.34200	164
3.34567	161
3.34933	161
3.35300	161
3.35667	162
3.36033	162
3.36400	162
3.36767	161
3.37133	159
3.37500	158
3.37867	157
3.38233	157
3.38600	155
3.38967	154
3.39333	155
3.39700	158
3.40067	161
3.40433	163
3.40800	162
3.41167	160
3.41533	159
3.41900	159
3.42267	157
3.42633	155
3.43000	153
3.43367	152
3.43733	150
3.44100	151
3.44467	154
3.44833	154
3.45200	152
3.45567	150
3.45933	150
3.46300	151
3.46667	148
3.47033	146
3.47400	146
3.47767	144
3.48133	143
3.48500	144
3.48867	145
3.49233	147
3.49600	148
3.49967	146
3.50333	144
3.50700	144
3.51067	143
3.51433	140
3.51800	141
3.52167	141
3.52533	140
3.52900	140
3.53267	140
3.53633	140
3.54000	135
3.54367	122
3.54733	111
3.55100	105
3.55467	101
3.55833	92
3.56200	80
3.56567	71
3.56933	66
3.57300	68
3.57667	74
3.58033	80
3.58400	90
3.58767	103
3.59133	117
3.59500	132
3.59867	152
3.60233	174
3.60600	196
3.60967	216
3.61333	239
3.61700	263
3.62067	290
3.62433	316
3.62800	342
3.63167	369
3.63533	393
3.63900	414
3.64267	434
3.64633	452
3.65000	465
3.65367	478
3.65733	488
3.66100	498
3.66467	507
3.66833	515
3.67200	523
3.67567	531
3.67933	537
3.68300	542
3.68667	546
3.69033	550
3.69400	553
3.69767	552
3.70133	553
3.70500	554
3.70867	554
3.71233	554
3.71600	557
3.71967	559
3.72333	561
3.72700	560
3.73067	559
3.73433	560
3.73800	559
3.74167	557
3.74533	555
3.74900	555
3.75267	553
3.75633	554
3.76000	555
3.76367	556
3.76733	558
3.77100	561
3.77467	563
3.77833	565
3.78200	564
3.78567	563
3.78933	564
3.79300	567
3.79667	570
3.80033	571
3.80400	573
3.80767	574
3.81133	573
3.81500	572
3.81867	572
3.82233	573
3.82600	573
3.82967	574
3.83333	575
3.83700	576
3.84067	577
3.84433	577
3.84800	575
3.85167	574
3.85533	571
3.85900	570
3.86267	568
3.86633	566
3.87000	564
3.87367	563
3.87733	563
3.88100	562
3.88467	558
3.88833	557
3.89200	557
3.89567	556
3.89933	557
3.90300	558
3.90667	558
3.91033	559
3.91400	559
3.91767	558
3.92133	560
3.92500	558
3.92867	556
3.93233	553
3.93600	550
3.93967	545
3.94333	544
3.94700	542
3.95067	540
3.95433	540
3.95800	539
3.96167	538
3.96533	538
3.96900	538
3.97267	539
3.97633	541
3.98000	541
3.98367	539
3.98733	536
3.99100	533
3.99467	533
3.99833	531

[Status Trace (Column Oven Temperature)]
Interval(msec)	1000
# of Points	240
Start Time(min)	0.002
End Time(min)	3.985
Intensity Units	
Intensity Multiplier	1
R.Time (min)	Intensity
0.00157	34.99
0.01823	35.00
0.03490	35.01
0.05157	35.01
0.06823	35.00
0.08490	35.00
0.10157	35.01
0.11823	35.02
0.13490	35.04
0.15157	35.06
0.16823	35.07
0.18490	35.07
0.20157	35.08
0.21823	35.08
0.23490	35.06
0.25157	35.03
0.26823	35.01
0.28490	34.99
0.30157	34.98
0.31823	34.98
0.33490	34.97
0.35157	34.97
0.36823	34.98
0.38490	34.97
0.40157	34.98
0.41823	34.98
0.43490	34.98
0.45157	34.97
0.46823	34.97
0.48490	34.97
0.50157	34.98
0.51823	34.99
0.53490	34.98
0.55157	34.98
0.56823	34.98
0.58490	34.98
0.60157	34.97
0.61823	34.97
0.63490	34.97
0.65157	34.97
0.66823	34.96
0.68490	34.97
0.70157	34.97
0.71823	34.96
0.73490	34.96
0.75157	34.96
0.76823	34.96
0.78490	34.97
0.80157	34.98
0.81823	34.99
0.83490	34.99
0.85157	35.00
0.86823	34.99
0.88490	34.99
0.90157	34.99
0.91823	35.00
0.93490	35.00
0.95157	34.99
0.96823	34.99
0.98490	34.98
1.00157	34.98
1.01823	34.98
1.03490	34.99
1.05157	34.99
1.06823	34.99
1.08490	35.00
1.10157	35.00
1.11823	35.00
1.13490	34.99
1.15157	34.98
1.16823	34.98
1.18490	34.98
1.20157	34.98
1.21823	34.99
1.23490	34.98
1.25157	34.97
1.26823	34.97
1.28490	34.97
1.30157	34.97
1.31823	34.97
1.33490	34.97
1.35157	34.97
1.36823	34.98
1.38490	34.97
1.40157	34.97
1.41823	34.98
1.43490	34.99
1.45157	34.99
1.46823	35.00
1.48490	34.99
1.50157	34.99
1.51823	34.98
1.53490	34.98
1.55157	34.97
1.56823	34.97
1.58490	34.98
1.60157	35.01
1.61823	35.11
1.63490	35.29
1.65157	35.52
1.66823	35.83
1.68490	36.22
1.70157	36.60
1.71823	36.93
1.73490	37.24
1.75157	37.54
1.76823	37.89
1.78490	38.22
1.80157	38.55
1.81823	38.88
1.83490	39.22
1.85157	39.54
1.86823	39.88
1.88490	40.22
1.90157	40.54
1.91823	40.89
1.93490	41.21
1.95157	41.52
1.96823	41.85
1.98490	42.18
2.00157	42.50
2.01823	42.84
2.03490	43.15
2.05157	43.47
2.06823	43.81
2.08490	44.12
2.10157	44.45
2.11823	44.78
2.13490	45.08
2.15157	45.42
2.16823	45.75
2.18490	46.08
2.20157	46.42
2.21823	46.75
2.23490	47.07
2.25157	47.41
2.26823	47.73
2.28490	48.07
2.30157	48.41
2.31823	48.76
2.33490	49.07
2.35157	49.37
2.36823	49.59
2.38490	49.68
2.40157	49.69
2.41823	49.67
2.43490	49.69
2.45157	49.70
2.46823	49.71
2.48490	49.72
2.50157	49.73
2.51823	49.74
2.53490	49.76
2.55157	49.77
2.56823	49.78
2.58490	49.80
2.60157	49.81
2.61823	49.80
2.63490	49.82
2.65157	49.84
2.66823	49.86
2.68490	49.85
2.70157	49.85
2.71823	49.86
2.73490	49.87
2.75157	49.87
2.76823	49.86
2.78490	49.86
2.80157	49.85
2.81823	49.85
2.83490	49.86
2.85157	49.87
2.86823	49.88
2.88490	49.91
2.90157	49.93
2.91823	49.93
2.93490	49.96
2.95157	49.97
2.96823	49.98
2.98490	49.98
3.00157	50.00
3.01823	50.02
3.03490	50.02
3.05157	50.03
3.06823	50.04
3.08490	50.05
3.10157	50.06
3.11823	50.08
3.13490	50.09
3.15157	50.11
3.16823	50.12
3.18490	50.12
3.20157	50.11
3.21823	50.10
3.23490	50.07
3.25157	50.05
3.26823	50.04
3.28490	50.03
3.30157	50.01
3.31823	49.99
3.33490	49.99
3.35157	49.99
3.36823	49.99
3.38490	49.99
3.40157	50.01
3.41823	50.02
3.43490	50.04
3.45157	50.05
3.46823	50.06
3.48490	50.07
3.50157	50.07
3.51823	50.06
3.53490	50.05
3.55157	50.04
3.56823	50.03
3.58490	50.03
3.60157	50.04
3.61823	50.05
3.63490	50.05
3.65157	50.06
3.66823	50.05
3.68490	50.05
3.70157	50.05
3.71823	50.04
3.73490	50.04
3.75157	50.03
3.76823	50.03
3.78490	50.03
3.80157	50.03
3.81823	50.04
3.83490	50.04
3.85157	50.05
3.86823	50.05
3.88490	50.06
3.90157	50.06
3.91823	50.06
3.93490	50.06
3.95157	50.06
3.96823	50.06
3.98490	50.06

[Status Trace (Injection Unit Temperature)]
Interval(msec)	1000
# of Points	240
Start Time(min)	0.002
End Time(min)	3.985
Intensity Units	
Intensity Multiplier	1
R.Time (min)	Intensity
0.00157	99.98
0.01823	99.98
0.03490	99.98
0.05157	99.98
0.06823	99.98
0.08490	99.98
0.10157	99.98
0.11823	99.98
0.13490	99.98
0.15157	99.98
0.16823	99.98
0.18490	99.98
0.20157	99.98
0.21823	99.98
0.23490	99.98
0.25157	99.97
0.26823	99.98
0.28490	99.98
0.30157	99.98
0.31823	99.98
0.33490	99.98
0.35157	99.99
0.36823	99.98
0.38490	99.98
0.40157	99.98
0.41823	99.98
0.43490	99.98
0.45157	99.98
0.46823	99.98
0.48490	99.98
0.50157	99.98
0.51823	99.98
0.53490	99.98
0.55157	99.98
0.56823	99.98
0.58490	99.98
0.60157	99.98
0.61823	99.98
0.63490	99.98
0.65157	99.98
0.66823	99.98
0.68490	99.98
0.70157	99.98
0.71823	99.98
0.73490	99.98
0.75157	99.99
0.76823	99.98
0.78490	99.98
0.80157	99.98
0.81823	99.98
0.83490	99.98
0.85157	99.98
0.86823	99.98
0.88490	99.98
0.90157	99.98
0.91823	99.98
0.93490	99.98
0.95157	99.98
0.96823	99.98
0.98490	99.98
1.00157	99.98
1.01823	99.98
1.03490	99.98
1.05157	99.98
1.06823	99.98
1.08490	99.98
1.10157	99.98
1.11823	99.98
1.13490	99.98
1.15157	99.98
1.16823	99.98
1.18490	99.99
1.20157	99.98
1.21823	99.98
1.23490	99.98
1.25157	99.98
1.26823	99.99
1.28490	99.99
1.30157	99.98
1.31823	99.98
1.33490	99.98
1.35157	99.98
1.36823	99.99
1.38490	99.98
1.40157	99.99
1.41823	99.98
1.43490	99.99
1.45157	99.99
1.46823	99.99
1.48490	99.99
1.50157	99.99
1.51823	99.99
1.53490	99.99
1.55157	99.99
1.56823	99.99
1.58490	99.99
1.60157	99.99
1.61823	99.99
1.63490	99.99
1.65157	99.99
1.66823	99.98
1.68490	99.99
1.70157	99.99
1.71823	99.99
1.73490	99.98
1.75157	99.99
1.76823	99.99
1.78490	99.98
1.80157	99.98
1.81823	99.99
1.83490	99.98
1.85157	99.99
1.86823	99.99
1.88490	99.98
1.90157	99.99
1.91823	99.99
1.93490	99.98
1.95157	99.98
1.96823	99.98
1.98490	99.98
2.00157	99.98
2.01823	99.98
2.03490	99.97
2.05157	99.98
2.06823	99.98
2.08490	99.98
2.10157	99.98
2.11823	99.98
2.13490	99.97
2.15157	99.97
2.16823	99.97
2.18490	99.97
2.20157	99.97
2.21823	99.97
2.23490	99.97
2.25157	99.97
2.26823	99.97
2.28490	99.97
2.30157	99.97
2.31823	99.96
2.33490	99.96
2.35157	99.96
2.36823	99.97
2.38490	99.97
2.40157	99.97
2.41823	99.97
2.43490	99.97
2.45157	99.97
2.46823	99.97
2.48490	99.97
2.50157	99.97
2.51823	99.97
2.53490	99.97
2.55157	99.97
2.56823	99.97
2.58490	99.97
2.60157	99.98
2.61823	99.98
2.63490	99.98
2.65157	99.98
2.66823	99.98
2.68490	99.98
2.70157	99.99
2.71823	99.98
2.73490	99.99
2.75157	99.99
2.76823	99.99
2.78490	99.99
2.80157	100.00
2.81823	100.00
2.83490	100.00
2.85157	100.00
2.86823	100.00
2.88490	100.00
2.90157	100.01
2.91823	100.00
2.93490	100.01
2.95157	100.01
2.96823	100.01
2.98490	100.02
3.00157	100.01
3.01823	100.01
3.03490	100.02
3.05157	100.02
3.06823	100.02
3.08490	100.02
3.10157	100.02
3.11823	100.02
3.13490	100.02
3.15157	100.02
3.16823	100.02
3.18490	100.03
3.20157	100.03
3.21823	100.03
3.23490	100.03
3.25157	100.03
3.26823	100.03
3.28490	100.03
3.30157	100.03
3.31823	100.04
3.33490	100.03
3.35157	100.03
3.36823	100.04
3.38490	100.04
3.40157	100.04
3.41823	100.03
3.43490	100.04
3.45157	100.03
3.46823	100.04
3.48490	100.03
3.50157	100.04
3.51823	100.04
3.53490	100.03
3.55157	100.04
3.56823	100.04
3.58490	100.04
3.60157	100.04
3.61823	100.04
3.63490	100.04
3.65157	100.04
3.66823	100.04
3.68490	100.04
3.70157	100.04
3.71823	100.03
3.73490	100.03
3.75157	100.03
3.76823	100.04
3.78490	100.04
3.80157	100.04
3.81823	100.04
3.83490	100.04
3.85157	100.04
3.86823	100.04
3.88490	100.04
3.90157	100.04
3.91823	100.04
3.93490	100.04
3.95157	100.04
3.96823	100.04
3.98490	100.04

[Status Trace (Carrier Gas Pressure)]
Interval(msec)	1000
# of Points	240
Start Time(min)	0.002
End Time(min)	3.985
Intensity Units	
Intensity Multiplier	1
R.Time (min)	Intensity
0.00157	58.00
0.01823	56.48
0.03490	56.18
0.05157	58.34
0.06823	59.91
0.08490	58.39
0.10157	57.97
0.11823	58.00
0.13490	58.01
0.15157	58.01
0.16823	58.00
0.18490	58.00
0.20157	58.00
0.21823	58.00
0.23490	58.00
0.25157	58.00
0.26823	58.00
0.28490	58.00
0.30157	58.00
0.31823	58.00
0.33490	58.00
0.35157	58.00
0.36823	58.00
0.38490	58.00
0.40157	58.00
0.41823	58.00
0.43490	58.00
0.45157	58.00
0.46823	58.00
0.48490	58.00
0.50157	58.00
0.51823	58.00
0.53490	58.00
0.55157	58.00
0.56823	58.00
0.58490	58.00
0.60157	58.00
0.61823	58.00
0.63490	58.00
0.65157	58.00
0.66823	58.00
0.68490	58.00
0.70157	58.00
0.71823	58.00
0.73490	58.00
0.75157	58.00
0.76823	58.00
0.78490	58.00
0.80157	58.00
0.81823	58.00
0.83490	58.00
0.85157	58.00
0.86823	58.00
0.88490	58.00
0.90157	58.00
0.91823	58.00
0.93490	58.00
0.95157	58.00
0.96823	58.00
0.98490	58.00
1.00157	58.00
1.01823	58.00
1.03490	58.00
1.05157	58.00
1.06823	58.00
1.08490	58.00
1.10157	58.00
1.11823	58.00
1.13490	58.00
1.15157	58.00
1.16823	58.00
1.18490	58.00
1.20157	58.00
1.21823	58.00
1.23490	58.00
1.25157	58.00
1.26823	58.00
1.28490	58.00
1.30157	58.00
1.31823	58.00
1.33490	58.00
1.35157	58.00
1.36823	58.00
1.38490	58.00
1.40157	58.00
1.41823	58.00
1.43490	58.00
1.45157	58.00
1.46823	58.00
1.48490	58.00
1.50157	58.00
1.51823	58.00
1.53490	58.00
1.55157	58.00
1.56823	58.00
1.58490	58.00
1.60157	58.00
1.61823	58.00
1.63490	58.01
1.65157	58.00
1.66823	58.00
1.68490	58.01
1.70157	58.00
1.71823	58.00
1.73490	58.00
1.75157	58.00
1.76823	58.00
1.78490	58.00
1.80157	58.00
1.81823	58.00
1.83490	58.00
1.85157	58.00
1.86823	58.00
1.88490	58.00
1.90157	58.00
1.91823	58.00
1.93490	58.00
1.95157	58.00
1.96823	58.00
1.98490	58.00
2.00157	58.00
2.01823	58.00
2.03490	58.00
2.05157	58.00
2.06823	58.00
2.08490	58.00
2.10157	58.00
2.11823	58.00
2.13490	58.00
2.15157	58.00
2.16823	58.00
2.18490	58.00
2.20157	58.00
2.21823	58.00
2.23490	58.00
2.25157	58.00
2.26823	58.00
2.28490	58.00
2.30157	58.00
2.31823	58.00
2.33490	58.00
2.35157	58.00
2.36823	58.00
2.38490	57.99
2.40157	57.99
2.41823	58.00
2.43490	58.00
2.45157	58.00
2.46823	58.00
2.48490	58.00
2.50157	58.00
2.51823	57.99
2.53490	57.99
2.55157	58.00
2.56823	58.00
2.58490	58.00
2.60157	58.00
2.61823	58.00
2.63490	58.00
2.65157	58.00
2.66823	58.00
2.68490	58.00
2.70157	58.00
2.71823	58.00
2.73490	58.00
2.75157	58.00
2.76823	58.00
2.78490	58.00
2.80157	58.00
2.81823	58.00
2.83490	58.00
2.85157	58.00
2.86823	58.00
2.88490	58.00
2.90157	58.00
2.91823	58.00
2.93490	58.00
2.95157	58.00
2.96823	58.00
2.98490	58.00
3.00157	58.00
3.01823	58.00
3.03490	58.00
3.05157	58.00
3.06823	58.00
3.08490	58.00
3.10157	58.00
3.11823	58.00
3.13490	58.00
3.15157	58.00
3.16823	58.00
3.18490	58.00
3.20157	58.00
3.21823	58.00
3.23490	58.00
3.25157	58.00
3.26823	58.00
3.28490	58.00
3.30157	58.00
3.31823	58.00
3.33490	58.00
3.35157	58.00
3.36823	58.00
3.38490	58.00
3.40157	58.00
3.41823	58.00
3.43490	58.00
3.45157	58.00
3.46823	58.00
3.48490	58.00
3.50157	58.00
3.51823	58.00
3.53490	58.00
3.55157	58.00
3.56823	58.00
3.58490	58.00
3.60157	58.00
3.61823	58.00
3.63490	58.00
3.65157	58.00
3.66823	58.00
3.68490	58.00
3.70157	58.00
3.71823	58.00
3.73490	58.00
3.75157	58.00
3.76823	58.00
3.78490	58.00
3.80157	58.00
3.81823	58.00
3.83490	58.00
3.85157	58.00
3.86823	58.00
3.88490	58.00
3.90157	58.00
3.91823	58.00
3.93490	58.00
3.95157	58.00
3.96823	58.00
3.98490	58.00

[Status Trace (Carrier Gas Flow)]
Interval(msec)	1000
# of Points	240
Start Time(min)	0.002
End Time(min)	3.985
Intensity Units	
Intensity Multiplier	1
R.Time (min)	Intensity
0.00157	34.52
0.01823	34.27
0.03490	34.54
0.05157	34.55
0.06823	34.49
0.08490	34.51
0.10157	34.52
0.11823	34.52
0.13490	34.51
0.15157	34.52
0.16823	34.52
0.18490	34.52
0.20157	34.52
0.21823	34.52
0.23490	34.51
0.25157	34.52
0.26823	34.52
0.28490	34.52
0.30157	34.52
0.31823	34.52
0.33490	34.52
0.35157	34.52
0.36823	34.52
0.38490	34.52
0.40157	34.52
0.41823	34.52
0.43490	34.52
0.45157	34.52
0.46823	34.52
0.48490	34.52
0.50157	34.52
0.51823	34.52
0.53490	34.52
0.55157	34.52
0.56823	34.52
0.58490	34.52
0.60157	34.52
0.61823	34.52
0.63490	34.52
0.65157	34.52
0.66823	34.52
0.68490	34.52
0.70157	34.52
0.71823	34.52
0.73490	34.52
0.75157	34.52
0.76823	34.52
0.78490	34.54
0.80157	34.52
0.81823	34.52
0.83490	34.52
0.85157	34.52
0.86823	34.52
0.88490	34.52
0.90157	34.52
0.91823	34.52
0.93490	34.52
0.95157	34.52
0.96823	34.52
0.98490	34.52
1.00157	34.52
1.01823	34.51
1.03490	34.52
1.05157	34.52
1.06823	34.52
1.08490	34.52
1.10157	34.52
1.11823	34.52
1.13490	34.52
1.15157	34.52
1.16823	34.52
1.18490	34.52
1.20157	34.52
1.21823	34.52
1.23490	34.52
1.25157	34.52
1.26823	34.52
1.28490	34.52
1.30157	34.52
1.31823	34.52
1.33490	34.52
1.35157	34.52
1.36823	34.52
1.38490	34.52
1.40157	34.52
1.41823	34.52
1.43490	34.52
1.45157	34.52
1.46823	34.52
1.48490	34.52
1.50157	34.52
1.51823	34.52
1.53490	34.52
1.55157	34.52
1.56823	34.52
1.58490	34.52
1.60157	34.52
1.61823	34.52
1.63490	34.52
1.65157	34.52
1.66823	34.52
1.68490	34.52
1.70157	34.52
1.71823	34.52
1.73490	34.52
1.75157	34.52
1.76823	34.52
1.78490	34.52
1.80157	34.52
1.81823	34.52
1.83490	34.52
1.85157	34.52
1.86823	34.52
1.88490	34.52
1.90157	34.52
1.91823	34.52
1.93490	34.52
1.95157	34.52
1.96823	34.52
1.98490	34.52
2.00157	34.52
2.01823	34.52
2.03490	34.52
2.05157	34.52
2.06823	34.52
2.08490	34.52
2.10157	34.52
2.11823	34.52
2.13490	34.52
2.15157	34.52
2.16823	34.52
2.18490	34.52
2.20157	34.52
2.21823	34.52
2.23490	34.52
2.25157	34.52
2.26823	34.52
2.28490	34.52
2.30157	34.52
2.31823	34.52
2.33490	34.52
2.35157	34.52
2.36823	34.52
2.38490	34.51
2.40157	34.52
2.41823	34.52
2.43490	34.52
2.45157	34.52
2.46823	34.52
2.48490	34.52
2.50157	34.52
2.51823	34.52
2.53490	34.53
2.55157	34.52
2.56823	34.52
2.58490	34.53
2.60157	34.52
2.61823	34.52
2.63490	34.52
2.65157	34.53
2.66823	34.52
2.68490	34.52
2.70157	34.51
2.71823	34.52
2.73490	34.53
2.75157	34.52
2.76823	34.53
2.78490	34.52
2.80157	34.52
2.81823	34.52
2.83490	34.52
2.85157	34.52
2.86823	34.51
2.88490	34.52
2.90157	34.52
2.91823	34.52
2.93490	34.52
2.95157	34.52
2.96823	34.52
2.98490	34.53
3.00157	34.52
3.01823	34.53
3.03490	34.51
3.05157	34.52
3.06823	34.52
3.08490	34.51
3.10157	34.52
3.11823	34.52
3.13490	34.52
3.15157	34.52
3.16823	34.52
3.18490	34.52
3.20157	34.52
3.21823	34.52
3.23490	34.52
3.25157	34.52
3.26823	34.52
3.28490	34.52
3.30157	34.52
3.31823	34.52
3.33490	34.52
3.35157	34.52
3.36823	34.52
3.38490	34.52
3.40157	34.52
3.41823	34.52
3.43490	34.52
3.45157	34.52
3.46823	34.52
3.48490	34.52
3.50157	34.52
3.51823	34.52
3.53490	34.52
3.55157	34.52
3.56823	34.52
3.58490	34.52
3.60157	34.52
3.61823	34.52
3.63490	34.52
3.65157	34.52
3.66823	34.52
3.68490	34.52
3.70157	34.52
3.71823	34.52
3.73490	34.52
3.75157	34.52
3.76823	34.52
3.78490	34.52
3.80157	34.52
3.81823	34.52
3.83490	34.52
3.85157	34.52
3.86823	34.52
3.88490	34.52
3.90157	34.52
3.91823	34.52
3.93490	34.52
3.95157	34.52
3.96823	34.52
3.98490	34.52

[Status Trace (Column Flow)]
Interval(msec)	1000
# of Points	240
Start Time(min)	0.002
End Time(min)	3.985
Intensity Units	
Intensity Multiplier	1
R.Time (min)	Intensity
0.00157	5.56
0.01823	5.38
0.03490	5.35
0.05157	5.60
0.06823	5.79
0.08490	5.61
0.10157	5.56
0.11823	5.56
0.13490	5.56
0.15157	5.56
0.16823	5.56
0.18490	5.56
0.20157	5.56
0.21823	5.56
0.23490	5.56
0.25157	5.56
0.26823	5.56
0.28490	5.56
0.30157	5.56
0.31823	5.56
0.33490	5.56
0.35157	5.56
0.36823	5.56
0.38490	5.56
0.40157	5.56
0.41823	5.56
0.43490	5.56
0.45157	5.56
0.46823	5.56
0.48490	5.56
0.50157	5.56
0.51823	5.56
0.53490	5.56
0.55157	5.56
0.56823	5.56
0.58490	5.56
0.60157	5.56
0.61823	5.56
0.63490	5.56
0.65157	5.56
0.66823	5.56
0.68490	5.56
0.70157	5.56
0.71823	5.56
0.73490	5.56
0.75157	5.56
0.76823	5.56
0.78490	5.56
0.80157	5.56
0.81823	5.56
0.83490	5.56
0.85157	5.56
0.86823	5.56
0.88490	5.56
0.90157	5.56
0.91823	5.56
0.93490	5.56
0.95157	5.56
0.96823	5.56
0.98490	5.56
1.00157	5.56
1.01823	5.56
1.03490	5.56
1.05157	5.56
1.06823	5.56
1.08490	5.56
1.10157	5.56
1.11823	5.56
1.13490	5.56
1.15157	5.56
1.16823	5.56
1.18490	5.56
1.20157	5.56
1.21823	5.56
1.23490	5.56
1.25157	5.56
1.26823	5.56
1.28490	5.56
1.30157	5.56
1.31823	5.56
1.33490	5.56
1.35157	5.56
1.36823	5.56
1.38490	5.56
1.40157	5.56
1.41823	5.56
1.43490	5.56
1.45157	5.56
1.46823	5.56
1.48490	5.56
1.50157	5.56
1.51823	5.56
1.53490	5.56
1.55157	5.56
1.56823	5.56
1.58490	5.56
1.60157	5.56
1.61823	5.56
1.63490	5.55
1.65157	5.55
1.66823	5.54
1.68490	5.52
1.70157	5.51
1.71823	5.50
1.73490	5.49
1.75157	5.48
1.76823	5.47
1.78490	5.46
1.80157	5.45
1.81823	5.44
1.83490	5.43
1.85157	5.42
1.86823	5.41
1.88490	5.40
1.90157	5.39
1.91823	5.38
1.93490	5.37
1.95157	5.36
1.96823	5.35
1.98490	5.34
2.00157	5.33
2.01823	5.32
2.03490	5.31
2.05157	5.30
2.06823	5.29
2.08490	5.28
2.10157	5.27
2.11823	5.26
2.13490	5.26
2.15157	5.25
2.16823	5.24
2.18490	5.23
2.20157	5.22
2.21823	5.21
2.23490	5.20
2.25157	5.19
2.26823	5.18
2.28490	5.17
2.30157	5.16
2.31823	5.15
2.33490	5.14
2.35157	5.13
2.36823	5.13
2.38490	5.12
2.40157	5.12
2.41823	5.12
2.43490	5.12
2.45157	5.12
2.46823	5.12
2.48490	5.12
2.50157	5.12
2.51823	5.12
2.53490	5.12
2.55157	5.12
2.56823	5.12
2.58490	5.12
2.60157	5.12
2.61823	5.12
2.63490	5.12
2.65157	5.12
2.66823	5.12
2.68490	5.12
2.70157	5.12
2.71823	5.12
2.73490	5.12
2.75157	5.12
2.76823	5.12
2.78490	5.12
2.80157	5.12
2.81823	5.12
2.83490	5.12
2.85157	5.12
2.86823	5.12
2.88490	5.12
2.90157	5.12
2.91823	5.12
2.93490	5.12
2.95157	5.12
2.96823	5.11
2.98490	5.11
3.00157	5.11
3.01823	5.11
3.03490	5.11
3.05157	5.11
3.06823	5.11
3.08490	5.11
3.10157	5.11
3.11823	5.11
3.13490	5.11
3.15157	5.11
3.16823	5.11
3.18490	5.11
3.20157	5.11
3.21823	5.11
3.23490	5.11
3.25157	5.11
3.26823	5.11
3.28490	5.11
3.30157	5.11
3.31823	5.11
3.33490	5.11
3.35157	5.11
3.36823	5.11
3.38490	5.11
3.40157	5.11
3.41823	5.11
3.43490	5.11
3.45157	5.11
3.46823	5.11
3.48490	5.11
3.50157	5.11
3.51823	5.11
3.53490	5.11
3.55157	5.11
3.56823	5.11
3.58490	5.11
3.60157	5.11
3.61823	5.11
3.63490	5.11
3.65157	5.11
3.66823	5.11
3.68490	5.11
3.70157	5.11
3.71823	5.11
3.73490	5.11
3.75157	5.11
3.76823	5.11
3.78490	5.11
3.80157	5.11
3.81823	5.11
3.83490	5.11
3.85157	5.11
3.86823	5.11
3.88490	5.11
3.90157	5.11
3.91823	5.11
3.93490	5.11
3.95157	5.11
3.96823	5.11
3.98490	5.11

[Status Trace (Linear Velocity)]
Interval(msec)	1000
# of Points	240
Start Time(min)	0.002
End Time(min)	3.985
Intensity Units	
Intensity Multiplier	1
R.Time (min)	Intensity
0.00157	39.03
0.01823	38.03
0.03490	37.83
0.05157	39.25
0.06823	40.28
0.08490	39.28
0.10157	39.01
0.11823	39.03
0.13490	39.03
0.15157	39.03
0.16823	39.02
0.18490	39.02
0.20157	39.02
0.21823	39.02
0.23490	39.02
0.25157	39.02
0.26823	39.03
0.28490	39.03
0.30157	39.03
0.31823	39.03
0.33490	39.03
0.35157	39.03
0.36823	39.03
0.38490	39.03
0.40157	39.03
0.41823	39.03
0.43490	39.03
0.45157	39.03
0.46823	39.03
0.48490	39.03
0.50157	39.03
0.51823	39.03
0.53490	39.03
0.55157	39.03
0.56823	39.03
0.58490	39.03
0.60157	39.03
0.61823	39.03
0.63490	39.03
0.65157	39.03
0.66823	39.03
0.68490	39.03
0.70157	39.03
0.71823	39.03
0.73490	39.03
0.75157	39.03
0.76823	39.03
0.78490	39.03
0.80157	39.03
0.81823	39.03
0.83490	39.03
0.85157	39.03
0.86823	39.03
0.88490	39.03
0.90157	39.03
0.91823	39.03
0.93490	39.03
0.95157	39.03
0.96823	39.03
0.98490	39.03
1.00157	39.03
1.01823	39.03
1.03490	39.03
1.05157	39.03
1.06823	39.03
1.08490	39.03
1.10157	39.03
1.11823	39.03
1.13490	39.03
1.15157	39.03
1.16823	39.03
1.18490	39.03
1.20157	39.03
1.21823	39.03
1.23490	39.03
1.25157	39.03
1.26823	39.03
1.28490	39.03
1.30157	39.03
1.31823	39.03
1.33490	39.03
1.35157	39.03
1.36823	39.03
1.38490	39.03
1.40157	39.03
1.41823	39.03
1.43490	39.03
1.45157	39.03
1.46823	39.03
1.48490	39.03
1.50157	39.03
1.51823	39.03
1.53490	39.03
1.55157	39.03
1.56823	39.03
1.58490	39.03
1.60157	39.03
1.61823	39.02
1.63490	39.00
1.65157	38.98
1.66823	38.95
1.68490	38.92
1.70157	38.88
1.71823	38.84
1.73490	38.81
1.75157	38.79
1.76823	38.75
1.78490	38.72
1.80157	38.69
1.81823	38.66
1.83490	38.63
1.85157	38.60
1.86823	38.57
1.88490	38.53
1.90157	38.50
1.91823	38.47
1.93490	38.44
1.95157	38.41
1.96823	38.38
1.98490	38.35
2.00157	38.32
2.01823	38.29
2.03490	38.26
2.05157	38.23
2.06823	38.20
2.08490	38.17
2.10157	38.14
2.11823	38.11
2.13490	38.08
2.15157	38.06
2.16823	38.02
2.18490	38.00
2.20157	37.96
2.21823	37.93
2.23490	37.91
2.25157	37.87
2.26823	37.85
2.28490	37.82
2.30157	37.79
2.31823	37.75
2.33490	37.73
2.35157	37.70
2.36823	37.68
2.38490	37.67
2.40157	37.66
2.41823	37.67
2.43490	37.67
2.45157	37.67
2.46823	37.67
2.48490	37.67
2.50157	37.66
2.51823	37.66
2.53490	37.66
2.55157	37.66
2.56823	37.66
2.58490	37.66
2.60157	37.66
2.61823	37.66
2.63490	37.66
2.65157	37.66
2.66823	37.65
2.68490	37.65
2.70157	37.66
2.71823	37.65
2.73490	37.65
2.75157	37.65
2.76823	37.65
2.78490	37.65
2.80157	37.65
2.81823	37.65
2.83490	37.65
2.85157	37.65
2.86823	37.65
2.88490	37.65
2.90157	37.65
2.91823	37.65
2.93490	37.65
2.95157	37.64
2.96823	37.64
2.98490	37.64
3.00157	37.64
3.01823	37.64
3.03490	37.64
3.05157	37.64
3.06823	37.64
3.08490	37.64
3.10157	37.64
3.11823	37.63
3.13490	37.63
3.15157	37.63
3.16823	37.63
3.18490	37.63
3.20157	37.63
3.21823	37.63
3.23490	37.63
3.25157	37.64
3.26823	37.64
3.28490	37.64
3.30157	37.64
3.31823	37.64
3.33490	37.64
3.35157	37.64
3.36823	37.64
3.38490	37.64
3.40157	37.64
3.41823	37.64
3.43490	37.64
3.45157	37.64
3.46823	37.64
3.48490	37.64
3.50157	37.63
3.51823	37.64
3.53490	37.64
3.55157	37.64
3.56823	37.64
3.58490	37.64
3.60157	37.64
3.61823	37.64
3.63490	37.64
3.65157	37.64
3.66823	37.64
3.68490	37.64
3.70157	37.64
3.71823	37.64
3.73490	37.64
3.75157	37.64
3.76823	37.64
3.78490	37.64
3.80157	37.64
3.81823	37.64
3.83490	37.64
3.85157	37.64
3.86823	37.64
3.88490	37.64
3.90157	37.64
3.91823	37.64
3.93490	37.64
3.95157	37.64
3.96823	37.64
3.98490	37.64

