[Header]
Application Name	LabSolutions
Version	5.110
Data File Name	C:\Users\User\Desktop\GC Analyses\Jack\UIC Prairie Sampling\9.2.22\220902_018.gcd
Output Date	10/28/2022
Output Time	1:23:52 PM

[File Information]
Type	Data File
Generated	10/25/2022 1:03:52 PM
Generated by	System Administrator
Modified	10/25/2022 1:08:05 PM
Modified by	System Administrator

[Sample Information]
Operator Name	System Administrator
Acquired	10/25/2022 1:04:03 PM
Sample Type	1:Standard
Level	1
Sample Name	220902_UICPrairie
Sample ID	220902_UICPrairie
ISTD Amount1	1
ISTD Amount2	1
ISTD Amount3	1
ISTD Amount4	1
ISTD Amount5	1
ISTD Amount6	1
ISTD Amount7	1
ISTD Amount8	1
ISTD Amount9	1
ISTD Amount10	1
ISTD Amount11	1
ISTD Amount12	1
ISTD Amount13	1
ISTD Amount14	1
ISTD Amount15	1
ISTD Amount16	1
ISTD Amount17	1
ISTD Amount18	1
ISTD Amount19	1
ISTD Amount20	1
ISTD Amount21	1
ISTD Amount22	1
ISTD Amount23	1
ISTD Amount24	1
ISTD Amount25	1
ISTD Amount26	1
ISTD Amount27	1
ISTD Amount28	1
ISTD Amount29	1
ISTD Amount30	1
ISTD Amount31	1
ISTD Amount32	1
Sample Amount	1
Dilution Factor	1
Vial#	1
Injection Volume	1
Injection Count	1
Bar Code	

[Original Files]
Data File	C:\Users\User\Desktop\GC Analyses\Jack\UIC Prairie Sampling\9.2.22\220902_018.gcd
Method File	C:\LabSolutions\Data\GHG_4min_2022\ghg3_togas_w_acet_4 min_new_int.gcm
Batch File	
Report Format File	c:\LabSolutions\System\DEFAULT.lsr

[File Description]


[Configuration]
Instrument Name	C0B7VH3-Instrument1
Instrument #	1
Line #	1
# of Detectors	3
Detector ID	DET#1	DET#2	DET#3
Detector Name	FID	PTCD	ECD
# of Channels	1	1	1

[Peak Table(Ch1)]
# of Peaks	3
Peak#	R.Time	I.Time	F.Time	Area	Height	A/H	Conc.	Mark	ID#	Name	k'	Plate #	Plate Ht.	Tailing	Resolution	Sep.Factor	Area Ratio	Height Ratio	Conc. %	Norm Conc.
1	1.472	1.428	1.534	4609	1728	2.668	100.000	   	1	CO	0.000	6300	23.810	1.439	0.000	0.000	0	0	16.667	16.667
2	1.571	1.534	1.641	17314	9454	1.831	100.000	 V 	2	CH4	0.067	12720	11.792	1.228	1.524	0.000	0	0	16.667	16.667
3	2.000	1.952	2.370	1988097	1000511	1.987	400.000	   	3	CO2	0.359	18819	7.971	1.210	7.524	5.333	0	0	66.667	66.667

[Peak Table(Ch2)]
# of Peaks	0

[Peak Table(Ch3)]
# of Peaks	2
Peak#	R.Time	I.Time	F.Time	Area	Height	A/H	Conc.	Mark	ID#	Name	k'	Plate #	Plate Ht.	Tailing	Resolution	Sep.Factor	Area Ratio	Height Ratio	Conc. %	Norm Conc.
1	2.601	2.253	2.653	3451	290	11.898	0.000	   			0.000	1693	88.597	0.570	0.000	0.000	0	0	0.000	0.000
2	2.887	2.664	3.291	54251	13644	3.976	1.000	   	1	N2O	0.110	13290	11.287	1.604	1.620	0.000	0	0	100.000	100.000

[Compound Results(Ch1)]
# of IDs	6
ID#	Name	R.Time	Area	Height	Conc.	Curve	3rd	2nd	1st	Constant	Area Ratio	Height Ratio	Conc. %	Norm Conc.
1	CO	1.472	4609	1728	100.000	Linear	0.000000e+00	0.000000e+00	4.608620e+001	0.000000e+00	0	0	16.667	16.667
2	CH4	1.571	17314	9454	100.000	Linear	0.000000e+00	0.000000e+00	1.731372e+002	0.000000e+00	0	0	16.667	16.667
3	CO2	2.000	1988097	1000511	400.000	Linear	0.000000e+00	0.000000e+00	4.970242e+003	0.000000e+00	0	0	66.667	66.667
4	Ethylene	0.000	0	0	0.000	Linear	0.000000e+00	0.000000e+00	0.000000e+00	0.000000e+00	0	0	0.000	0.000
5	Acetylene	0.000	0	0	0.000	Linear	0.000000e+00	0.000000e+00	0.000000e+00	0.000000e+00	0	0	0.000	0.000
6	Ethane	0.000	0	0	0.000	Linear	0.000000e+00	0.000000e+00	0.000000e+00	0.000000e+00	0	0	0.000	0.000

[Compound Results(Ch2)]
# of IDs	5
ID#	Name	R.Time	Area	Height	Conc.	Curve	3rd	2nd	1st	Constant	Area Ratio	Height Ratio	Conc. %	Norm Conc.
1	Hydrogen	0.000	0	0	0.000	Linear	0.000000e+00	0.000000e+00	0.000000e+00	0.000000e+00	0	0	0.000	0.000
2	Oxygen	0.000	0	0	0.000	Linear	0.000000e+00	0.000000e+00	0.000000e+00	0.000000e+00	0	0	0.000	0.000
3	Nitrogen	0.000	0	0	0.000	Linear	0.000000e+00	0.000000e+00	0.000000e+00	0.000000e+00	0	0	0.000	0.000
4	Methane	0.000	0	0	0.000	Linear	0.000000e+00	0.000000e+00	0.000000e+00	0.000000e+00	0	0	0.000	0.000
5	Carbon Monoxide	0.000	0	0	0.000	Linear	0.000000e+00	0.000000e+00	0.000000e+00	0.000000e+00	0	0	0.000	0.000

[Compound Results(Ch3)]
# of IDs	2
ID#	Name	R.Time	Area	Height	Conc.	Curve	3rd	2nd	1st	Constant	Area Ratio	Height Ratio	Conc. %	Norm Conc.
1	N2O	2.887	54251	13644	1.000	Linear	0.000000e+00	0.000000e+00	5.425076e+004	0.000000e+00	0	0	100.000	100.000
2	SF6	0.000	0	0	0.000	Linear	0.000000e+00	0.000000e+00	0.000000e+00	0.000000e+00	0	0	0.000	0.000

[Group Results(Ch1)]
# of Groups	0

[Group Results(Ch2)]
# of Groups	0

[Group Results(Ch3)]
# of Groups	0

[Chromatogram (Ch1)]
Interval(msec)	220
# of Points	1091
Start Time(min)	0.002
End Time(min)	3.998
R.Time (min)	Intensity
0.00167	-48
0.00533	-48
0.00900	-51
0.01267	-59
0.01633	-69
0.02000	-76
0.02367	-75
0.02733	-68
0.03100	-62
0.03467	-61
0.03833	-64
0.04200	-69
0.04567	-74
0.04933	-75
0.05300	-69
0.05667	-59
0.06033	-53
0.06400	-52
0.06767	-53
0.07133	-54
0.07500	-53
0.07867	-49
0.08233	-43
0.08600	-40
0.08967	-43
0.09333	-50
0.09700	-58
0.10067	-64
0.10433	-68
0.10800	-71
0.11167	-71
0.11533	-67
0.11900	-59
0.12267	-54
0.12633	-51
0.13000	-48
0.13367	-42
0.13733	-34
0.14100	-30
0.14467	-29
0.14833	-34
0.15200	-44
0.15567	-53
0.15933	-56
0.16300	-53
0.16667	-51
0.17033	-53
0.17400	-58
0.17767	-63
0.18133	-67
0.18500	-72
0.18867	-75
0.19233	-76
0.19600	-76
0.19967	-75
0.20333	-71
0.20700	-66
0.21067	-60
0.21433	-55
0.21800	-51
0.22167	-49
0.22533	-47
0.22900	-48
0.23267	-51
0.23633	-54
0.24000	-56
0.24367	-60
0.24733	-61
0.25100	-60
0.25467	-63
0.25833	-67
0.26200	-67
0.26567	-65
0.26933	-64
0.27300	-63
0.27667	-60
0.28033	-57
0.28400	-57
0.28767	-61
0.29133	-66
0.29500	-71
0.29867	-73
0.30233	-73
0.30600	-70
0.30967	-65
0.31333	-62
0.31700	-65
0.32067	-72
0.32433	-74
0.32800	-73
0.33167	-71
0.33533	-70
0.33900	-71
0.34267	-74
0.34633	-76
0.35000	-77
0.35367	-75
0.35733	-68
0.36100	-57
0.36467	-52
0.36833	-55
0.37200	-67
0.37567	-81
0.37933	-91
0.38300	-96
0.38667	-99
0.39033	-100
0.39400	-97
0.39767	-90
0.40133	-84
0.40500	-80
0.40867	-78
0.41233	-80
0.41600	-84
0.41967	-82
0.42333	-74
0.42700	-65
0.43067	-61
0.43433	-65
0.43800	-76
0.44167	-90
0.44533	-99
0.44900	-104
0.45267	-103
0.45633	-97
0.46000	-92
0.46367	-90
0.46733	-89
0.47100	-87
0.47467	-85
0.47833	-86
0.48200	-86
0.48567	-85
0.48933	-82
0.49300	-82
0.49667	-81
0.50033	-78
0.50400	-77
0.50767	-78
0.51133	-81
0.51500	-85
0.51867	-88
0.52233	-90
0.52600	-91
0.52967	-90
0.53333	-89
0.53700	-87
0.54067	-85
0.54433	-84
0.54800	-83
0.55167	-82
0.55533	-82
0.55900	-85
0.56267	-92
0.56633	-97
0.57000	-97
0.57367	-95
0.57733	-95
0.58100	-94
0.58467	-91
0.58833	-86
0.59200	-81
0.59567	-80
0.59933	-82
0.60300	-85
0.60667	-84
0.61033	-82
0.61400	-78
0.61767	-72
0.62133	-70
0.62500	-74
0.62867	-80
0.63233	-87
0.63600	-92
0.63967	-94
0.64333	-94
0.64700	-97
0.65067	-100
0.65433	-100
0.65800	-99
0.66167	-96
0.66533	-93
0.66900	-93
0.67267	-93
0.67633	-95
0.68000	-96
0.68367	-95
0.68733	-90
0.69100	-80
0.69467	-72
0.69833	-69
0.70200	-72
0.70567	-78
0.70933	-81
0.71300	-85
0.71667	-91
0.72033	-98
0.72400	-102
0.72767	-104
0.73133	-106
0.73500	-107
0.73867	-105
0.74233	-100
0.74600	-96
0.74967	-93
0.75333	-91
0.75700	-90
0.76067	-89
0.76433	-90
0.76800	-91
0.77167	-92
0.77533	-95
0.77900	-101
0.78267	-105
0.78633	-106
0.79000	-105
0.79367	-102
0.79733	-99
0.80100	-99
0.80467	-98
0.80833	-94
0.81200	-89
0.81567	-88
0.81933	-89
0.82300	-90
0.82667	-92
0.83033	-97
0.83400	-99
0.83767	-100
0.84133	-100
0.84500	-102
0.84867	-107
0.85233	-114
0.85600	-117
0.85967	-119
0.86333	-118
0.86700	-115
0.87067	-112
0.87433	-107
0.87800	-102
0.88167	-100
0.88533	-102
0.88900	-105
0.89267	-105
0.89633	-102
0.90000	-98
0.90367	-97
0.90733	-97
0.91100	-97
0.91467	-92
0.91833	-87
0.92200	-86
0.92567	-90
0.92933	-97
0.93300	-104
0.93667	-110
0.94033	-112
0.94400	-110
0.94767	-106
0.95133	-103
0.95500	-104
0.95867	-107
0.96233	-109
0.96600	-109
0.96967	-108
0.97333	-111
0.97700	-115
0.98067	-117
0.98433	-115
0.98800	-108
0.99167	-101
0.99533	-100
0.99900	-104
1.00267	-111
1.00633	-113
1.01000	-114
1.01367	-108
1.01733	-102
1.02100	-97
1.02467	-98
1.02833	-101
1.03200	-102
1.03567	-103
1.03933	-104
1.04300	-105
1.04667	-108
1.05033	-110
1.05400	-111
1.05767	-111
1.06133	-112
1.06500	-115
1.06867	-116
1.07233	-115
1.07600	-112
1.07967	-112
1.08333	-117
1.08700	-124
1.09067	-127
1.09433	-125
1.09800	-121
1.10167	-115
1.10533	-108
1.10900	-101
1.11267	-99
1.11633	-99
1.12000	-103
1.12367	-110
1.12733	-120
1.13100	-133
1.13467	-144
1.13833	-147
1.14200	-142
1.14567	-137
1.14933	-130
1.15300	-122
1.15667	-116
1.16033	-115
1.16400	-119
1.16767	-125
1.17133	-132
1.17500	-136
1.17867	-137
1.18233	-136
1.18600	-134
1.18967	-133
1.19333	-133
1.19700	-134
1.20067	-132
1.20433	-130
1.20800	-130
1.21167	-132
1.21533	-135
1.21900	-136
1.22267	-135
1.22633	-135
1.23000	-133
1.23367	-129
1.23733	-126
1.24100	-121
1.24467	-116
1.24833	-114
1.25200	-116
1.25567	-124
1.25933	-131
1.26300	-136
1.26667	-137
1.27033	-133
1.27400	-123
1.27767	-117
1.28133	-115
1.28500	-116
1.28867	-120
1.29233	-126
1.29600	-131
1.29967	-135
1.30333	-139
1.30700	-141
1.31067	-138
1.31433	-130
1.31800	-122
1.32167	-116
1.32533	-112
1.32900	-111
1.33267	-110
1.33633	-114
1.34000	-118
1.34367	-121
1.34733	-125
1.35100	-128
1.35467	-128
1.35833	-126
1.36200	-122
1.36567	-121
1.36933	-125
1.37300	-130
1.37667	-131
1.38033	-132
1.38400	-133
1.38767	-130
1.39133	-124
1.39500	-118
1.39867	-113
1.40233	-110
1.40600	-111
1.40967	-114
1.41333	-121
1.41700	-129
1.42067	-133
1.42433	-130
1.42800	-120
1.43167	-112
1.43533	-109
1.43900	-104
1.44267	-58
1.44633	105
1.45000	404
1.45367	763
1.45733	1105
1.46100	1371
1.46467	1536
1.46833	1607
1.47200	1610
1.47567	1564
1.47933	1483
1.48300	1369
1.48667	1221
1.49033	1043
1.49400	852
1.49767	670
1.50133	507
1.50500	369
1.50867	257
1.51233	166
1.51600	93
1.51967	37
1.52333	-4
1.52700	-37
1.53067	-62
1.53433	-76
1.53800	-78
1.54167	-34
1.54533	197
1.54900	876
1.55267	2189
1.55633	4013
1.56000	5970
1.56367	7684
1.56733	8879
1.57100	9341
1.57467	8957
1.57833	7835
1.58200	6300
1.58567	4722
1.58933	3348
1.59300	2272
1.59667	1489
1.60033	943
1.60400	572
1.60767	324
1.61133	158
1.61500	51
1.61867	-13
1.62233	-53
1.62600	-79
1.62967	-96
1.63333	-103
1.63700	-106
1.64067	-109
1.64433	-114
1.64800	-122
1.65167	-130
1.65533	-138
1.65900	-142
1.66267	-146
1.66633	-151
1.67000	-155
1.67367	-154
1.67733	-151
1.68100	-150
1.68467	-151
1.68833	-149
1.69200	-148
1.69567	-147
1.69933	-144
1.70300	-144
1.70667	-147
1.71033	-154
1.71400	-158
1.71767	-157
1.72133	-150
1.72500	-142
1.72867	-136
1.73233	-133
1.73600	-131
1.73967	-131
1.74333	-130
1.74700	-129
1.75067	-132
1.75433	-137
1.75800	-140
1.76167	-141
1.76533	-142
1.76900	-144
1.77267	-146
1.77633	-148
1.78000	-150
1.78367	-151
1.78733	-148
1.79100	-145
1.79467	-141
1.79833	-137
1.80200	-135
1.80567	-137
1.80933	-143
1.81300	-150
1.81667	-155
1.82033	-158
1.82400	-159
1.82767	-155
1.83133	-151
1.83500	-148
1.83867	-147
1.84233	-150
1.84600	-153
1.84967	-154
1.85333	-149
1.85700	-143
1.86067	-138
1.86433	-134
1.86800	-131
1.87167	-130
1.87533	-132
1.87900	-132
1.88267	-131
1.88633	-129
1.89000	-127
1.89367	-126
1.89733	-128
1.90100	-131
1.90467	-134
1.90833	-136
1.91200	-137
1.91567	-138
1.91933	-136
1.92300	-132
1.92667	-128
1.93033	-124
1.93400	-121
1.93767	-119
1.94133	-121
1.94500	-126
1.94867	-134
1.95233	-137
1.95600	-109
1.95967	103
1.96333	1321
1.96700	6738
1.97067	25041
1.97433	72731
1.97800	169108
1.98167	321490
1.98533	513788
1.98900	711200
1.99267	875485
1.99633	977025
2.00000	1000401
2.00367	947066
2.00733	833863
2.01100	687105
2.01467	534090
2.01833	395624
2.02200	282416
2.02567	196425
2.02933	134443
2.03300	91364
2.03667	62137
2.04033	42598
2.04400	29630
2.04767	21026
2.05133	15280
2.05500	11399
2.05867	8736
2.06233	6875
2.06600	5545
2.06967	4579
2.07333	3864
2.07700	3318
2.08067	2888
2.08433	2543
2.08800	2264
2.09167	2037
2.09533	1846
2.09900	1680
2.10267	1535
2.10633	1411
2.11000	1305
2.11367	1215
2.11733	1133
2.12100	1058
2.12467	988
2.12833	923
2.13200	863
2.13567	808
2.13933	758
2.14300	714
2.14667	675
2.15033	641
2.15400	609
2.15767	580
2.16133	555
2.16500	534
2.16867	516
2.17233	502
2.17600	487
2.17967	468
2.18333	448
2.18700	432
2.19067	417
2.19433	399
2.19800	379
2.20167	362
2.20533	347
2.20900	334
2.21267	321
2.21633	309
2.22000	299
2.22367	293
2.22733	287
2.23100	279
2.23467	270
2.23833	259
2.24200	247
2.24567	235
2.24933	225
2.25300	221
2.25667	216
2.26033	211
2.26400	208
2.26767	206
2.27133	203
2.27500	201
2.27867	199
2.28233	194
2.28600	187
2.28967	179
2.29333	172
2.29700	164
2.30067	158
2.30433	154
2.30800	151
2.31167	147
2.31533	144
2.31900	144
2.32267	149
2.32633	159
2.33000	166
2.33367	162
2.33733	147
2.34100	129
2.34467	117
2.34833	111
2.35200	111
2.35567	110
2.35933	110
2.36300	107
2.36667	102
2.37033	97
2.37400	90
2.37767	87
2.38133	86
2.38500	84
2.38867	83
2.39233	82
2.39600	82
2.39967	86
2.40333	93
2.40700	100
2.41067	107
2.41433	111
2.41800	114
2.42167	113
2.42533	110
2.42900	107
2.43267	104
2.43633	98
2.44000	92
2.44367	87
2.44733	84
2.45100	80
2.45467	77
2.45833	76
2.46200	75
2.46567	73
2.46933	71
2.47300	67
2.47667	63
2.48033	59
2.48400	53
2.48767	49
2.49133	51
2.49500	58
2.49867	66
2.50233	69
2.50600	67
2.50967	62
2.51333	55
2.51700	51
2.52067	49
2.52433	49
2.52800	50
2.53167	52
2.53533	54
2.53900	55
2.54267	56
2.54633	54
2.55000	52
2.55367	54
2.55733	56
2.56100	60
2.56467	63
2.56833	65
2.57200	66
2.57567	64
2.57933	59
2.58300	53
2.58667	47
2.59033	41
2.59400	42
2.59767	48
2.60133	51
2.60500	52
2.60867	51
2.61233	53
2.61600	56
2.61967	58
2.62333	62
2.62700	65
2.63067	63
2.63433	55
2.63800	46
2.64167	42
2.64533	41
2.64900	41
2.65267	43
2.65633	48
2.66000	54
2.66367	59
2.66733	61
2.67100	61
2.67467	59
2.67833	56
2.68200	51
2.68567	46
2.68933	41
2.69300	38
2.69667	35
2.70033	32
2.70400	33
2.70767	34
2.71133	36
2.71500	42
2.71867	48
2.72233	52
2.72600	54
2.72967	59
2.73333	65
2.73700	65
2.74067	60
2.74433	55
2.74800	52
2.75167	48
2.75533	43
2.75900	39
2.76267	35
2.76633	30
2.77000	26
2.77367	28
2.77733	35
2.78100	45
2.78467	54
2.78833	60
2.79200	63
2.79567	64
2.79933	65
2.80300	65
2.80667	65
2.81033	62
2.81400	60
2.81767	58
2.82133	56
2.82500	54
2.82867	52
2.83233	49
2.83600	49
2.83967	50
2.84333	52
2.84700	50
2.85067	46
2.85433	46
2.85800	50
2.86167	52
2.86533	51
2.86900	48
2.87267	45
2.87633	45
2.88000	50
2.88367	54
2.88733	54
2.89100	52
2.89467	51
2.89833	52
2.90200	51
2.90567	48
2.90933	46
2.91300	46
2.91667	47
2.92033	47
2.92400	48
2.92767	50
2.93133	51
2.93500	51
2.93867	49
2.94233	45
2.94600	41
2.94967	41
2.95333	44
2.95700	50
2.96067	60
2.96433	69
2.96800	72
2.97167	70
2.97533	66
2.97900	61
2.98267	56
2.98633	52
2.99000	49
2.99367	48
2.99733	50
3.00100	55
3.00467	59
3.00833	61
3.01200	61
3.01567	60
3.01933	58
3.02300	57
3.02667	56
3.03033	56
3.03400	58
3.03767	61
3.04133	60
3.04500	56
3.04867	54
3.05233	58
3.05600	65
3.05967	69
3.06333	69
3.06700	65
3.07067	56
3.07433	47
3.07800	42
3.08167	40
3.08533	38
3.08900	36
3.09267	35
3.09633	37
3.10000	42
3.10367	48
3.10733	53
3.11100	52
3.11467	48
3.11833	45
3.12200	44
3.12567	44
3.12933	46
3.13300	47
3.13667	47
3.14033	44
3.14400	38
3.14767	32
3.15133	28
3.15500	24
3.15867	21
3.16233	23
3.16600	29
3.16967	38
3.17333	48
3.17700	52
3.18067	53
3.18433	54
3.18800	58
3.19167	60
3.19533	57
3.19900	52
3.20267	46
3.20633	41
3.21000	35
3.21367	34
3.21733	37
3.22100	43
3.22467	48
3.22833	47
3.23200	42
3.23567	39
3.23933	41
3.24300	46
3.24667	50
3.25033	48
3.25400	42
3.25767	37
3.26133	35
3.26500	40
3.26867	45
3.27233	46
3.27600	43
3.27967	38
3.28333	34
3.28700	35
3.29067	40
3.29433	45
3.29800	51
3.30167	53
3.30533	52
3.30900	49
3.31267	46
3.31633	43
3.32000	42
3.32367	42
3.32733	43
3.33100	45
3.33467	46
3.33833	45
3.34200	40
3.34567	35
3.34933	30
3.35300	26
3.35667	24
3.36033	26
3.36400	30
3.36767	35
3.37133	39
3.37500	41
3.37867	45
3.38233	49
3.38600	52
3.38967	53
3.39333	52
3.39700	48
3.40067	44
3.40433	39
3.40800	35
3.41167	32
3.41533	29
3.41900	27
3.42267	26
3.42633	28
3.43000	31
3.43367	34
3.43733	35
3.44100	34
3.44467	30
3.44833	25
3.45200	21
3.45567	16
3.45933	12
3.46300	11
3.46667	16
3.47033	29
3.47400	42
3.47767	48
3.48133	46
3.48500	41
3.48867	34
3.49233	29
3.49600	29
3.49967	33
3.50333	40
3.50700	41
3.51067	35
3.51433	25
3.51800	19
3.52167	19
3.52533	24
3.52900	29
3.53267	31
3.53633	33
3.54000	31
3.54367	30
3.54733	31
3.55100	27
3.55467	25
3.55833	21
3.56200	20
3.56567	21
3.56933	24
3.57300	30
3.57667	37
3.58033	44
3.58400	50
3.58767	54
3.59133	57
3.59500	59
3.59867	60
3.60233	58
3.60600	57
3.60967	55
3.61333	51
3.61700	44
3.62067	35
3.62433	26
3.62800	21
3.63167	21
3.63533	22
3.63900	22
3.64267	23
3.64633	22
3.65000	21
3.65367	21
3.65733	23
3.66100	25
3.66467	29
3.66833	30
3.67200	30
3.67567	32
3.67933	35
3.68300	42
3.68667	48
3.69033	51
3.69400	49
3.69767	45
3.70133	42
3.70500	40
3.70867	36
3.71233	30
3.71600	27
3.71967	31
3.72333	38
3.72700	42
3.73067	42
3.73433	40
3.73800	37
3.74167	36
3.74533	37
3.74900	40
3.75267	43
3.75633	45
3.76000	45
3.76367	45
3.76733	45
3.77100	47
3.77467	54
3.77833	62
3.78200	61
3.78567	53
3.78933	44
3.79300	39
3.79667	36
3.80033	33
3.80400	31
3.80767	31
3.81133	30
3.81500	26
3.81867	19
3.82233	14
3.82600	13
3.82967	14
3.83333	13
3.83700	9
3.84067	8
3.84433	12
3.84800	19
3.85167	24
3.85533	30
3.85900	36
3.86267	41
3.86633	43
3.87000	43
3.87367	44
3.87733	46
3.88100	50
3.88467	52
3.88833	51
3.89200	48
3.89567	48
3.89933	50
3.90300	49
3.90667	46
3.91033	44
3.91400	46
3.91767	48
3.92133	48
3.92500	46
3.92867	44
3.93233	44
3.93600	45
3.93967	48
3.94333	51
3.94700	52
3.95067	51
3.95433	46
3.95800	42
3.96167	43
3.96533	44
3.96900	43
3.97267	41
3.97633	39
3.98000	37
3.98367	38
3.98733	40
3.99100	43
3.99467	45
3.99833	49

[Chromatogram (Ch2)]
Interval(msec)	220
# of Points	1091
Start Time(min)	0.002
End Time(min)	3.998
R.Time (min)	Intensity
0.00167	2
0.00533	2
0.00900	3
0.01267	3
0.01633	3
0.02000	3
0.02367	4
0.02733	4
0.03100	4
0.03467	4
0.03833	4
0.04200	4
0.04567	4
0.04933	4
0.05300	4
0.05667	4
0.06033	4
0.06400	4
0.06767	4
0.07133	4
0.07500	4
0.07867	4
0.08233	4
0.08600	4
0.08967	4
0.09333	3
0.09700	3
0.10067	3
0.10433	2
0.10800	2
0.11167	2
0.11533	2
0.11900	2
0.12267	2
0.12633	1
0.13000	1
0.13367	1
0.13733	1
0.14100	0
0.14467	0
0.14833	-0
0.15200	-0
0.15567	-1
0.15933	-1
0.16300	-1
0.16667	-1
0.17033	-0
0.17400	0
0.17767	0
0.18133	1
0.18500	1
0.18867	2
0.19233	2
0.19600	2
0.19967	2
0.20333	2
0.20700	2
0.21067	2
0.21433	3
0.21800	3
0.22167	3
0.22533	3
0.22900	3
0.23267	3
0.23633	3
0.24000	3
0.24367	3
0.24733	3
0.25100	3
0.25467	2
0.25833	2
0.26200	2
0.26567	2
0.26933	1
0.27300	1
0.27667	1
0.28033	1
0.28400	1
0.28767	1
0.29133	1
0.29500	1
0.29867	0
0.30233	0
0.30600	-0
0.30967	-0
0.31333	-0
0.31700	-0
0.32067	-0
0.32433	-0
0.32800	-0
0.33167	-0
0.33533	-0
0.33900	0
0.34267	1
0.34633	1
0.35000	1
0.35367	1
0.35733	1
0.36100	1
0.36467	1
0.36833	2
0.37200	2
0.37567	2
0.37933	2
0.38300	2
0.38667	2
0.39033	1
0.39400	1
0.39767	1
0.40133	1
0.40500	1
0.40867	1
0.41233	1
0.41600	1
0.41967	1
0.42333	0
0.42700	0
0.43067	0
0.43433	-0
0.43800	-0
0.44167	-1
0.44533	-1
0.44900	-1
0.45267	-1
0.45633	-0
0.46000	-0
0.46367	-0
0.46733	-0
0.47100	-0
0.47467	-1
0.47833	-1
0.48200	-1
0.48567	-2
0.48933	-2
0.49300	-2
0.49667	-3
0.50033	-3
0.50400	-4
0.50767	-4
0.51133	-4
0.51500	-5
0.51867	-4
0.52233	-4
0.52600	-4
0.52967	-3
0.53333	-3
0.53700	-2
0.54067	-2
0.54433	-1
0.54800	-1
0.55167	-0
0.55533	0
0.55900	1
0.56267	2
0.56633	2
0.57000	3
0.57367	3
0.57733	3
0.58100	3
0.58467	3
0.58833	3
0.59200	3
0.59567	2
0.59933	2
0.60300	2
0.60667	2
0.61033	2
0.61400	1
0.61767	1
0.62133	1
0.62500	1
0.62867	1
0.63233	1
0.63600	1
0.63967	1
0.64333	1
0.64700	1
0.65067	1
0.65433	1
0.65800	1
0.66167	2
0.66533	2
0.66900	2
0.67267	2
0.67633	2
0.68000	1
0.68367	1
0.68733	1
0.69100	1
0.69467	0
0.69833	0
0.70200	1
0.70567	1
0.70933	1
0.71300	1
0.71667	1
0.72033	1
0.72400	1
0.72767	1
0.73133	2
0.73500	2
0.73867	2
0.74233	2
0.74600	2
0.74967	2
0.75333	2
0.75700	2
0.76067	2
0.76433	2
0.76800	2
0.77167	2
0.77533	1
0.77900	1
0.78267	1
0.78633	1
0.79000	1
0.79367	1
0.79733	1
0.80100	1
0.80467	1
0.80833	1
0.81200	1
0.81567	0
0.81933	0
0.82300	0
0.82667	-0
0.83033	-0
0.83400	-0
0.83767	-1
0.84133	-1
0.84500	-1
0.84867	-1
0.85233	-1
0.85600	-1
0.85967	-1
0.86333	-1
0.86700	-1
0.87067	-1
0.87433	-2
0.87800	-2
0.88167	-2
0.88533	-2
0.88900	-2
0.89267	-2
0.89633	-2
0.90000	-2
0.90367	-2
0.90733	-2
0.91100	-2
0.91467	-1
0.91833	-1
0.92200	-1
0.92567	-1
0.92933	-1
0.93300	-1
0.93667	-0
0.94033	-0
0.94400	-0
0.94767	-0
0.95133	-0
0.95500	-0
0.95867	-0
0.96233	-0
0.96600	-0
0.96967	-0
0.97333	0
0.97700	0
0.98067	0
0.98433	0
0.98800	0
0.99167	-0
0.99533	-0
0.99900	-1
1.00267	-1
1.00633	-0
1.01000	-0
1.01367	-0
1.01733	-0
1.02100	-0
1.02467	-1
1.02833	-1
1.03200	-1
1.03567	-1
1.03933	-1
1.04300	-1
1.04667	-1
1.05033	-1
1.05400	-0
1.05767	-0
1.06133	-0
1.06500	-1
1.06867	-1
1.07233	-1
1.07600	-1
1.07967	-1
1.08333	-1
1.08700	-1
1.09067	-1
1.09433	-1
1.09800	-1
1.10167	-1
1.10533	-1
1.10900	-1
1.11267	-1
1.11633	-2
1.12000	-2
1.12367	-2
1.12733	-2
1.13100	-2
1.13467	-2
1.13833	-2
1.14200	-2
1.14567	-2
1.14933	-2
1.15300	-2
1.15667	-1
1.16033	-1
1.16400	-1
1.16767	-1
1.17133	-1
1.17500	-1
1.17867	-1
1.18233	-1
1.18600	-1
1.18967	-1
1.19333	-1
1.19700	-1
1.20067	-1
1.20433	-0
1.20800	-0
1.21167	-0
1.21533	-0
1.21900	-0
1.22267	-0
1.22633	-0
1.23000	-0
1.23367	-0
1.23733	-1
1.24100	-1
1.24467	-1
1.24833	-1
1.25200	-1
1.25567	-1
1.25933	-1
1.26300	-1
1.26667	-1
1.27033	-1
1.27400	-1
1.27767	-1
1.28133	-1
1.28500	-1
1.28867	-1
1.29233	-1
1.29600	-1
1.29967	-1
1.30333	-2
1.30700	-2
1.31067	-2
1.31433	-2
1.31800	-2
1.32167	-2
1.32533	-2
1.32900	-2
1.33267	-2
1.33633	-2
1.34000	-2
1.34367	-2
1.34733	-2
1.35100	-2
1.35467	-2
1.35833	-2
1.36200	-2
1.36567	-3
1.36933	-3
1.37300	-3
1.37667	-3
1.38033	-4
1.38400	-4
1.38767	-4
1.39133	-4
1.39500	-4
1.39867	-3
1.40233	-3
1.40600	-3
1.40967	-3
1.41333	-2
1.41700	-2
1.42067	-2
1.42433	-1
1.42800	-1
1.43167	-1
1.43533	-0
1.43900	-0
1.44267	0
1.44633	-0
1.45000	-0
1.45367	0
1.45733	-0
1.46100	-0
1.46467	-0
1.46833	-1
1.47200	-1
1.47567	-1
1.47933	-1
1.48300	-1
1.48667	-1
1.49033	-1
1.49400	-1
1.49767	-1
1.50133	-1
1.50500	-1
1.50867	-1
1.51233	-1
1.51600	-1
1.51967	-1
1.52333	-1
1.52700	-1
1.53067	-1
1.53433	-1
1.53800	-1
1.54167	-1
1.54533	-1
1.54900	-1
1.55267	-1
1.55633	-1
1.56000	-1
1.56367	-1
1.56733	-2
1.57100	-2
1.57467	-2
1.57833	-2
1.58200	-2
1.58567	-2
1.58933	-2
1.59300	-3
1.59667	-3
1.60033	-4
1.60400	-5
1.60767	-6
1.61133	-8
1.61500	-9
1.61867	-12
1.62233	-14
1.62600	-17
1.62967	-20
1.63333	-24
1.63700	-28
1.64067	-31
1.64433	-36
1.64800	-40
1.65167	-44
1.65533	-48
1.65900	-51
1.66267	-55
1.66633	-59
1.67000	-62
1.67367	-66
1.67733	-70
1.68100	-74
1.68467	-78
1.68833	-82
1.69200	-86
1.69567	-90
1.69933	-94
1.70300	-96
1.70667	-99
1.71033	-101
1.71400	-103
1.71767	-104
1.72133	-105
1.72500	-106
1.72867	-107
1.73233	-107
1.73600	-107
1.73967	-107
1.74333	-107
1.74700	-108
1.75067	-108
1.75433	-109
1.75800	-110
1.76167	-111
1.76533	-113
1.76900	-113
1.77267	-114
1.77633	-115
1.78000	-115
1.78367	-116
1.78733	-117
1.79100	-117
1.79467	-118
1.79833	-118
1.80200	-119
1.80567	-119
1.80933	-118
1.81300	-118
1.81667	-117
1.82033	-116
1.82400	-116
1.82767	-117
1.83133	-117
1.83500	-118
1.83867	-118
1.84233	-118
1.84600	-118
1.84967	-118
1.85333	-119
1.85700	-119
1.86067	-119
1.86433	-120
1.86800	-121
1.87167	-121
1.87533	-121
1.87900	-121
1.88267	-121
1.88633	-121
1.89000	-122
1.89367	-121
1.89733	-121
1.90100	-121
1.90467	-121
1.90833	-121
1.91200	-120
1.91567	-120
1.91933	-120
1.92300	-119
1.92667	-119
1.93033	-119
1.93400	-118
1.93767	-117
1.94133	-117
1.94500	-116
1.94867	-116
1.95233	-116
1.95600	-115
1.95967	-115
1.96333	-115
1.96700	-115
1.97067	-115
1.97433	-115
1.97800	-114
1.98167	-114
1.98533	-113
1.98900	-113
1.99267	-112
1.99633	-112
2.00000	-112
2.00367	-112
2.00733	-112
2.01100	-112
2.01467	-112
2.01833	-111
2.02200	-111
2.02567	-111
2.02933	-110
2.03300	-110
2.03667	-109
2.04033	-109
2.04400	-109
2.04767	-108
2.05133	-108
2.05500	-107
2.05867	-107
2.06233	-108
2.06600	-108
2.06967	-107
2.07333	-107
2.07700	-107
2.08067	-107
2.08433	-107
2.08800	-107
2.09167	-107
2.09533	-106
2.09900	-106
2.10267	-105
2.10633	-104
2.11000	-104
2.11367	-103
2.11733	-103
2.12100	-103
2.12467	-102
2.12833	-102
2.13200	-102
2.13567	-102
2.13933	-101
2.14300	-100
2.14667	-100
2.15033	-99
2.15400	-98
2.15767	-98
2.16133	-97
2.16500	-97
2.16867	-96
2.17233	-97
2.17600	-97
2.17967	-97
2.18333	-98
2.18700	-98
2.19067	-98
2.19433	-98
2.19800	-97
2.20167	-97
2.20533	-96
2.20900	-96
2.21267	-95
2.21633	-95
2.22000	-94
2.22367	-94
2.22733	-94
2.23100	-94
2.23467	-94
2.23833	-94
2.24200	-94
2.24567	-93
2.24933	-93
2.25300	-93
2.25667	-93
2.26033	-92
2.26400	-91
2.26767	-91
2.27133	-90
2.27500	-90
2.27867	-89
2.28233	-89
2.28600	-89
2.28967	-89
2.29333	-89
2.29700	-89
2.30067	-89
2.30433	-88
2.30800	-88
2.31167	-88
2.31533	-87
2.31900	-87
2.32267	-87
2.32633	-87
2.33000	-87
2.33367	-87
2.33733	-87
2.34100	-87
2.34467	-86
2.34833	-86
2.35200	-85
2.35567	-84
2.35933	-83
2.36300	-81
2.36667	-80
2.37033	-78
2.37400	-76
2.37767	-73
2.38133	-70
2.38500	-67
2.38867	-63
2.39233	-59
2.39600	-54
2.39967	-50
2.40333	-45
2.40700	-41
2.41067	-37
2.41433	-33
2.41800	-29
2.42167	-26
2.42533	-23
2.42900	-20
2.43267	-18
2.43633	-15
2.44000	-13
2.44367	-11
2.44733	-10
2.45100	-8
2.45467	-6
2.45833	-5
2.46200	-4
2.46567	-3
2.46933	-2
2.47300	-1
2.47667	0
2.48033	1
2.48400	2
2.48767	3
2.49133	4
2.49500	6
2.49867	7
2.50233	7
2.50600	8
2.50967	8
2.51333	9
2.51700	9
2.52067	9
2.52433	9
2.52800	9
2.53167	9
2.53533	10
2.53900	11
2.54267	12
2.54633	12
2.55000	13
2.55367	13
2.55733	14
2.56100	15
2.56467	15
2.56833	15
2.57200	15
2.57567	16
2.57933	15
2.58300	15
2.58667	15
2.59033	15
2.59400	15
2.59767	14
2.60133	14
2.60500	14
2.60867	14
2.61233	15
2.61600	15
2.61967	16
2.62333	17
2.62700	18
2.63067	18
2.63433	19
2.63800	19
2.64167	19
2.64533	19
2.64900	19
2.65267	19
2.65633	19
2.66000	19
2.66367	19
2.66733	19
2.67100	20
2.67467	20
2.67833	21
2.68200	21
2.68567	22
2.68933	22
2.69300	23
2.69667	23
2.70033	23
2.70400	23
2.70767	23
2.71133	22
2.71500	22
2.71867	22
2.72233	22
2.72600	22
2.72967	22
2.73333	22
2.73700	23
2.74067	23
2.74433	23
2.74800	24
2.75167	24
2.75533	25
2.75900	25
2.76267	25
2.76633	26
2.77000	26
2.77367	25
2.77733	25
2.78100	24
2.78467	23
2.78833	23
2.79200	22
2.79567	22
2.79933	22
2.80300	21
2.80667	21
2.81033	21
2.81400	21
2.81767	21
2.82133	21
2.82500	22
2.82867	22
2.83233	23
2.83600	23
2.83967	23
2.84333	23
2.84700	23
2.85067	22
2.85433	19
2.85800	15
2.86167	8
2.86533	-3
2.86900	-17
2.87267	-36
2.87633	-59
2.88000	-87
2.88367	-120
2.88733	-158
2.89100	-201
2.89467	-248
2.89833	-300
2.90200	-355
2.90567	-415
2.90933	-478
2.91300	-544
2.91667	-613
2.92033	-684
2.92400	-759
2.92767	-836
2.93133	-915
2.93500	-997
2.93867	-1080
2.94233	-1166
2.94600	-1249
2.94967	-1319
2.95333	-1366
2.95700	-1380
2.96067	-1361
2.96433	-1312
2.96800	-1241
2.97167	-1153
2.97533	-1056
2.97900	-955
2.98267	-856
2.98633	-759
2.99000	-669
2.99367	-585
2.99733	-510
3.00100	-441
3.00467	-381
3.00833	-327
3.01200	-280
3.01567	-240
3.01933	-204
3.02300	-174
3.02667	-147
3.03033	-125
3.03400	-105
3.03767	-88
3.04133	-74
3.04500	-62
3.04867	-51
3.05233	-42
3.05600	-35
3.05967	-28
3.06333	-23
3.06700	-18
3.07067	-14
3.07433	-10
3.07800	-7
3.08167	-5
3.08533	-2
3.08900	-0
3.09267	1
3.09633	3
3.10000	4
3.10367	5
3.10733	6
3.11100	7
3.11467	8
3.11833	8
3.12200	9
3.12567	9
3.12933	10
3.13300	10
3.13667	11
3.14033	11
3.14400	12
3.14767	12
3.15133	13
3.15500	13
3.15867	14
3.16233	14
3.16600	14
3.16967	15
3.17333	15
3.17700	15
3.18067	15
3.18433	16
3.18800	16
3.19167	16
3.19533	17
3.19900	17
3.20267	17
3.20633	18
3.21000	18
3.21367	18
3.21733	19
3.22100	19
3.22467	19
3.22833	19
3.23200	19
3.23567	20
3.23933	20
3.24300	20
3.24667	21
3.25033	21
3.25400	21
3.25767	22
3.26133	22
3.26500	22
3.26867	22
3.27233	22
3.27600	22
3.27967	23
3.28333	23
3.28700	24
3.29067	24
3.29433	24
3.29800	25
3.30167	25
3.30533	25
3.30900	26
3.31267	26
3.31633	26
3.32000	26
3.32367	26
3.32733	26
3.33100	26
3.33467	26
3.33833	26
3.34200	27
3.34567	27
3.34933	27
3.35300	27
3.35667	27
3.36033	27
3.36400	27
3.36767	27
3.37133	27
3.37500	26
3.37867	26
3.38233	26
3.38600	26
3.38967	26
3.39333	26
3.39700	26
3.40067	26
3.40433	26
3.40800	26
3.41167	26
3.41533	26
3.41900	26
3.42267	25
3.42633	26
3.43000	26
3.43367	26
3.43733	26
3.44100	27
3.44467	27
3.44833	27
3.45200	27
3.45567	27
3.45933	27
3.46300	27
3.46667	27
3.47033	27
3.47400	27
3.47767	27
3.48133	27
3.48500	27
3.48867	26
3.49233	26
3.49600	26
3.49967	26
3.50333	26
3.50700	26
3.51067	26
3.51433	26
3.51800	26
3.52167	26
3.52533	26
3.52900	26
3.53267	26
3.53633	26
3.54000	26
3.54367	26
3.54733	26
3.55100	25
3.55467	25
3.55833	25
3.56200	25
3.56567	25
3.56933	25
3.57300	25
3.57667	25
3.58033	25
3.58400	25
3.58767	25
3.59133	25
3.59500	26
3.59867	26
3.60233	26
3.60600	26
3.60967	26
3.61333	26
3.61700	26
3.62067	26
3.62433	26
3.62800	26
3.63167	26
3.63533	26
3.63900	26
3.64267	26
3.64633	27
3.65000	26
3.65367	26
3.65733	26
3.66100	26
3.66467	26
3.66833	26
3.67200	26
3.67567	26
3.67933	26
3.68300	26
3.68667	26
3.69033	26
3.69400	26
3.69767	26
3.70133	26
3.70500	26
3.70867	26
3.71233	26
3.71600	26
3.71967	26
3.72333	26
3.72700	26
3.73067	26
3.73433	26
3.73800	26
3.74167	26
3.74533	26
3.74900	26
3.75267	26
3.75633	26
3.76000	26
3.76367	26
3.76733	26
3.77100	26
3.77467	26
3.77833	26
3.78200	26
3.78567	26
3.78933	26
3.79300	26
3.79667	26
3.80033	26
3.80400	25
3.80767	25
3.81133	25
3.81500	25
3.81867	24
3.82233	24
3.82600	24
3.82967	24
3.83333	23
3.83700	23
3.84067	24
3.84433	24
3.84800	24
3.85167	24
3.85533	24
3.85900	24
3.86267	25
3.86633	26
3.87000	26
3.87367	27
3.87733	27
3.88100	28
3.88467	28
3.88833	28
3.89200	29
3.89567	29
3.89933	29
3.90300	29
3.90667	30
3.91033	30
3.91400	30
3.91767	29
3.92133	29
3.92500	30
3.92867	30
3.93233	30
3.93600	30
3.93967	30
3.94333	30
3.94700	30
3.95067	30
3.95433	29
3.95800	29
3.96167	29
3.96533	29
3.96900	29
3.97267	29
3.97633	28
3.98000	28
3.98367	28
3.98733	28
3.99100	28
3.99467	28
3.99833	28

[Chromatogram (Ch3)]
Interval(msec)	220
# of Points	1091
Start Time(min)	0.002
End Time(min)	3.998
R.Time (min)	Intensity
0.00167	1
0.00533	0
0.00900	-2
0.01267	-5
0.01633	-5
0.02000	-4
0.02367	-3
0.02733	-3
0.03100	-4
0.03467	-4
0.03833	-3
0.04200	-1
0.04567	-1
0.04933	-1
0.05300	0
0.05667	-1
0.06033	-4
0.06400	-5
0.06767	-5
0.07133	-2
0.07500	-1
0.07867	-1
0.08233	-1
0.08600	-1
0.08967	-2
0.09333	-3
0.09700	-5
0.10067	-7
0.10433	-8
0.10800	-8
0.11167	-8
0.11533	-6
0.11900	-6
0.12267	-6
0.12633	-7
0.13000	-5
0.13367	-5
0.13733	-6
0.14100	-7
0.14467	-6
0.14833	-7
0.15200	-9
0.15567	-9
0.15933	-9
0.16300	-8
0.16667	-9
0.17033	-9
0.17400	-9
0.17767	-9
0.18133	-8
0.18500	-5
0.18867	-4
0.19233	-2
0.19600	-4
0.19967	-7
0.20333	-7
0.20700	-7
0.21067	-6
0.21433	-2
0.21800	-2
0.22167	-4
0.22533	-5
0.22900	-6
0.23267	-6
0.23633	-6
0.24000	-5
0.24367	-6
0.24733	-6
0.25100	-7
0.25467	-8
0.25833	-6
0.26200	-6
0.26567	-8
0.26933	-11
0.27300	-14
0.27667	-16
0.28033	-14
0.28400	-11
0.28767	-10
0.29133	-11
0.29500	-14
0.29867	-14
0.30233	-15
0.30600	-13
0.30967	-13
0.31333	-14
0.31700	-15
0.32067	-17
0.32433	-20
0.32800	-21
0.33167	-17
0.33533	-15
0.33900	-17
0.34267	-20
0.34633	-20
0.35000	-22
0.35367	-23
0.35733	-24
0.36100	-26
0.36467	-23
0.36833	-22
0.37200	-21
0.37567	-20
0.37933	-23
0.38300	-22
0.38667	-19
0.39033	-17
0.39400	-16
0.39767	-16
0.40133	-16
0.40500	-16
0.40867	-15
0.41233	-17
0.41600	-19
0.41967	-21
0.42333	-24
0.42700	-26
0.43067	-25
0.43433	-24
0.43800	-23
0.44167	-24
0.44533	-27
0.44900	-27
0.45267	-26
0.45633	-23
0.46000	-21
0.46367	-21
0.46733	-21
0.47100	-22
0.47467	-23
0.47833	-23
0.48200	-23
0.48567	-25
0.48933	-28
0.49300	-29
0.49667	-31
0.50033	-31
0.50400	-28
0.50767	-26
0.51133	-26
0.51500	-25
0.51867	-24
0.52233	-22
0.52600	-22
0.52967	-24
0.53333	-25
0.53700	-28
0.54067	-30
0.54433	-31
0.54800	-31
0.55167	-29
0.55533	-28
0.55900	-30
0.56267	-28
0.56633	-27
0.57000	-26
0.57367	-26
0.57733	-27
0.58100	-29
0.58467	-30
0.58833	-32
0.59200	-33
0.59567	-31
0.59933	-31
0.60300	-29
0.60667	-25
0.61033	-25
0.61400	-27
0.61767	-27
0.62133	-27
0.62500	-27
0.62867	-29
0.63233	-29
0.63600	-29
0.63967	-31
0.64333	-31
0.64700	-32
0.65067	-31
0.65433	-29
0.65800	-27
0.66167	-27
0.66533	-26
0.66900	-25
0.67267	-26
0.67633	-25
0.68000	-24
0.68367	-24
0.68733	-25
0.69100	-27
0.69467	-29
0.69833	-28
0.70200	-28
0.70567	-29
0.70933	-31
0.71300	-32
0.71667	-33
0.72033	-33
0.72400	-32
0.72767	-33
0.73133	-35
0.73500	-35
0.73867	-33
0.74233	-31
0.74600	-33
0.74967	-34
0.75333	-36
0.75700	-38
0.76067	-39
0.76433	-39
0.76800	-37
0.77167	-34
0.77533	-32
0.77900	-33
0.78267	-33
0.78633	-33
0.79000	-33
0.79367	-31
0.79733	-28
0.80100	-29
0.80467	-31
0.80833	-30
0.81200	-30
0.81567	-28
0.81933	-29
0.82300	-31
0.82667	-30
0.83033	-30
0.83400	-32
0.83767	-32
0.84133	-33
0.84500	-33
0.84867	-32
0.85233	-33
0.85600	-34
0.85967	-35
0.86333	-37
0.86700	-36
0.87067	-35
0.87433	-35
0.87800	-34
0.88167	-32
0.88533	-32
0.88900	-33
0.89267	-31
0.89633	-31
0.90000	-30
0.90367	-30
0.90733	-31
0.91100	-32
0.91467	-33
0.91833	-32
0.92200	-31
0.92567	-30
0.92933	-29
0.93300	-28
0.93667	-26
0.94033	-25
0.94400	-27
0.94767	-29
0.95133	-31
0.95500	-33
0.95867	-34
0.96233	-33
0.96600	-30
0.96967	-29
0.97333	-29
0.97700	-30
0.98067	-29
0.98433	-28
0.98800	-29
0.99167	-28
0.99533	-29
0.99900	-29
1.00267	-29
1.00633	-29
1.01000	-30
1.01367	-32
1.01733	-33
1.02100	-33
1.02467	-36
1.02833	-38
1.03200	-38
1.03567	-37
1.03933	-36
1.04300	-36
1.04667	-35
1.05033	-33
1.05400	-32
1.05767	-33
1.06133	-35
1.06500	-35
1.06867	-36
1.07233	-35
1.07600	-34
1.07967	-37
1.08333	-37
1.08700	-34
1.09067	-34
1.09433	-37
1.09800	-38
1.10167	-37
1.10533	-38
1.10900	-40
1.11267	-40
1.11633	-38
1.12000	-35
1.12367	-32
1.12733	-30
1.13100	-31
1.13467	-32
1.13833	-34
1.14200	-35
1.14567	-35
1.14933	-36
1.15300	-38
1.15667	-38
1.16033	-34
1.16400	-30
1.16767	-30
1.17133	-32
1.17500	-33
1.17867	-32
1.18233	-34
1.18600	-35
1.18967	-36
1.19333	-36
1.19700	-36
1.20067	-38
1.20433	-38
1.20800	-38
1.21167	-39
1.21533	-40
1.21900	-41
1.22267	-40
1.22633	-38
1.23000	-36
1.23367	-35
1.23733	-37
1.24100	-41
1.24467	-43
1.24833	-42
1.25200	-40
1.25567	-39
1.25933	-40
1.26300	-39
1.26667	-40
1.27033	-40
1.27400	-40
1.27767	-41
1.28133	-40
1.28500	-40
1.28867	-41
1.29233	-43
1.29600	-45
1.29967	-43
1.30333	-40
1.30700	-37
1.31067	-37
1.31433	-37
1.31800	-38
1.32167	-40
1.32533	-41
1.32900	-41
1.33267	-41
1.33633	-41
1.34000	-42
1.34367	-41
1.34733	-40
1.35100	-40
1.35467	-40
1.35833	-41
1.36200	-41
1.36567	-39
1.36933	-39
1.37300	-39
1.37667	-40
1.38033	-43
1.38400	-44
1.38767	-45
1.39133	-43
1.39500	-44
1.39867	-45
1.40233	-45
1.40600	-45
1.40967	-45
1.41333	-45
1.41700	-42
1.42067	-40
1.42433	-40
1.42800	-42
1.43167	-45
1.43533	-48
1.43900	-47
1.44267	-45
1.44633	-45
1.45000	-45
1.45367	-45
1.45733	-44
1.46100	-46
1.46467	-47
1.46833	-45
1.47200	-45
1.47567	-42
1.47933	-41
1.48300	-40
1.48667	-39
1.49033	-39
1.49400	-40
1.49767	-42
1.50133	-41
1.50500	-41
1.50867	-42
1.51233	-41
1.51600	-39
1.51967	-39
1.52333	-41
1.52700	-42
1.53067	-42
1.53433	-41
1.53800	-42
1.54167	-41
1.54533	-41
1.54900	-42
1.55267	-43
1.55633	-42
1.56000	-40
1.56367	-40
1.56733	-38
1.57100	-37
1.57467	-38
1.57833	-41
1.58200	-42
1.58567	-41
1.58933	-40
1.59300	-40
1.59667	-40
1.60033	-39
1.60400	-38
1.60767	-38
1.61133	-37
1.61500	-37
1.61867	-37
1.62233	-37
1.62600	-39
1.62967	-38
1.63333	-37
1.63700	-37
1.64067	-37
1.64433	-38
1.64800	-40
1.65167	-41
1.65533	-40
1.65900	-38
1.66267	-35
1.66633	-34
1.67000	-33
1.67367	-35
1.67733	-37
1.68100	-38
1.68467	-37
1.68833	-37
1.69200	-35
1.69567	-32
1.69933	-33
1.70300	-34
1.70667	-34
1.71033	-33
1.71400	-31
1.71767	-27
1.72133	-26
1.72500	-27
1.72867	-28
1.73233	-28
1.73600	-26
1.73967	-25
1.74333	-26
1.74700	-29
1.75067	-29
1.75433	-28
1.75800	-28
1.76167	-29
1.76533	-27
1.76900	-24
1.77267	-20
1.77633	-17
1.78000	-17
1.78367	-20
1.78733	-20
1.79100	-20
1.79467	-21
1.79833	-21
1.80200	-21
1.80567	-21
1.80933	-19
1.81300	-17
1.81667	-16
1.82033	-15
1.82400	-14
1.82767	-14
1.83133	-14
1.83500	-12
1.83867	-11
1.84233	-12
1.84600	-16
1.84967	-18
1.85333	-18
1.85700	-15
1.86067	-11
1.86433	-10
1.86800	-11
1.87167	-14
1.87533	-17
1.87900	-16
1.88267	-15
1.88633	-15
1.89000	-14
1.89367	-14
1.89733	-15
1.90100	-14
1.90467	-13
1.90833	-11
1.91200	-9
1.91567	-8
1.91933	-7
1.92300	-8
1.92667	-11
1.93033	-10
1.93400	-7
1.93767	-6
1.94133	-6
1.94500	-6
1.94867	-4
1.95233	-5
1.95600	-6
1.95967	-5
1.96333	-6
1.96700	-6
1.97067	-5
1.97433	-2
1.97800	2
1.98167	5
1.98533	6
1.98900	6
1.99267	7
1.99633	9
2.00000	10
2.00367	11
2.00733	13
2.01100	15
2.01467	15
2.01833	14
2.02200	15
2.02567	17
2.02933	17
2.03300	17
2.03667	19
2.04033	16
2.04400	15
2.04767	16
2.05133	19
2.05500	22
2.05867	22
2.06233	24
2.06600	26
2.06967	27
2.07333	26
2.07700	24
2.08067	23
2.08433	26
2.08800	29
2.09167	32
2.09533	32
2.09900	31
2.10267	31
2.10633	30
2.11000	31
2.11367	33
2.11733	34
2.12100	34
2.12467	33
2.12833	34
2.13200	37
2.13567	42
2.13933	45
2.14300	43
2.14667	42
2.15033	43
2.15400	45
2.15767	46
2.16133	46
2.16500	46
2.16867	49
2.17233	52
2.17600	53
2.17967	53
2.18333	55
2.18700	55
2.19067	53
2.19433	52
2.19800	54
2.20167	56
2.20533	58
2.20900	60
2.21267	64
2.21633	65
2.22000	63
2.22367	62
2.22733	65
2.23100	68
2.23467	69
2.23833	71
2.24200	73
2.24567	74
2.24933	74
2.25300	74
2.25667	76
2.26033	79
2.26400	80
2.26767	80
2.27133	79
2.27500	79
2.27867	78
2.28233	79
2.28600	81
2.28967	83
2.29333	86
2.29700	86
2.30067	83
2.30433	85
2.30800	88
2.31167	91
2.31533	92
2.31900	94
2.32267	96
2.32633	97
2.33000	97
2.33367	96
2.33733	98
2.34100	102
2.34467	104
2.34833	103
2.35200	102
2.35567	102
2.35933	104
2.36300	108
2.36667	110
2.37033	112
2.37400	113
2.37767	111
2.38133	111
2.38500	111
2.38867	110
2.39233	110
2.39600	109
2.39967	111
2.40333	113
2.40700	113
2.41067	113
2.41433	117
2.41800	120
2.42167	121
2.42533	122
2.42900	123
2.43267	126
2.43633	128
2.44000	131
2.44367	138
2.44733	152
2.45100	167
2.45467	180
2.45833	188
2.46200	190
2.46567	186
2.46933	184
2.47300	183
2.47667	182
2.48033	179
2.48400	173
2.48767	167
2.49133	163
2.49500	160
2.49867	159
2.50233	161
2.50600	165
2.50967	171
2.51333	177
2.51700	181
2.52067	183
2.52433	183
2.52800	181
2.53167	180
2.53533	180
2.53900	180
2.54267	179
2.54633	179
2.55000	180
2.55367	180
2.55733	180
2.56100	180
2.56467	178
2.56833	178
2.57200	179
2.57567	181
2.57933	181
2.58300	182
2.58667	186
2.59033	190
2.59400	195
2.59767	199
2.60133	201
2.60500	197
2.60867	188
2.61233	172
2.61600	148
2.61967	117
2.62333	81
2.62700	44
2.63067	10
2.63433	-23
2.63800	-51
2.64167	-72
2.64533	-90
2.64900	-103
2.65267	-113
2.65633	-117
2.66000	-115
2.66367	-110
2.66733	-102
2.67100	-94
2.67467	-83
2.67833	-72
2.68200	-62
2.68567	-52
2.68933	-42
2.69300	-29
2.69667	-18
2.70033	-9
2.70400	2
2.70767	13
2.71133	22
2.71500	28
2.71867	34
2.72233	40
2.72600	48
2.72967	57
2.73333	63
2.73700	67
2.74067	70
2.74433	76
2.74800	80
2.75167	83
2.75533	86
2.75900	92
2.76267	99
2.76633	103
2.77000	106
2.77367	108
2.77733	110
2.78100	110
2.78467	113
2.78833	115
2.79200	116
2.79567	118
2.79933	121
2.80300	124
2.80667	126
2.81033	126
2.81400	127
2.81767	131
2.82133	135
2.82500	139
2.82867	146
2.83233	170
2.83600	229
2.83967	357
2.84333	612
2.84700	1063
2.85067	1778
2.85433	2798
2.85800	4125
2.86167	5704
2.86533	7431
2.86900	9166
2.87267	10759
2.87633	12068
2.88000	12999
2.88367	13511
2.88733	13620
2.89100	13368
2.89467	12828
2.89833	12077
2.90200	11193
2.90567	10242
2.90933	9277
2.91300	8338
2.91667	7446
2.92033	6614
2.92400	5848
2.92767	5157
2.93133	4537
2.93500	3979
2.93867	3486
2.94233	3052
2.94600	2668
2.94967	2330
2.95333	2036
2.95700	1780
2.96067	1557
2.96433	1363
2.96800	1196
2.97167	1049
2.97533	924
2.97900	816
2.98267	722
2.98633	643
2.99000	575
2.99367	516
2.99733	464
3.00100	420
3.00467	383
3.00833	347
3.01200	316
3.01567	291
3.01933	272
3.02300	258
3.02667	245
3.03033	233
3.03400	220
3.03767	207
3.04133	199
3.04500	193
3.04867	189
3.05233	184
3.05600	177
3.05967	171
3.06333	168
3.06700	167
3.07067	165
3.07433	162
3.07800	159
3.08167	156
3.08533	155
3.08900	153
3.09267	151
3.09633	151
3.10000	150
3.10367	148
3.10733	147
3.11100	148
3.11467	150
3.11833	150
3.12200	148
3.12567	147
3.12933	147
3.13300	149
3.13667	148
3.14033	146
3.14400	145
3.14767	147
3.15133	148
3.15500	147
3.15867	146
3.16233	146
3.16600	145
3.16967	144
3.17333	143
3.17700	142
3.18067	143
3.18433	143
3.18800	143
3.19167	144
3.19533	144
3.19900	143
3.20267	141
3.20633	138
3.21000	137
3.21367	136
3.21733	138
3.22100	139
3.22467	139
3.22833	139
3.23200	139
3.23567	140
3.23933	139
3.24300	138
3.24667	137
3.25033	135
3.25400	134
3.25767	134
3.26133	134
3.26500	134
3.26867	132
3.27233	132
3.27600	133
3.27967	134
3.28333	135
3.28700	131
3.29067	130
3.29433	130
3.29800	132
3.30167	133
3.30533	133
3.30900	134
3.31267	134
3.31633	136
3.32000	137
3.32367	139
3.32733	140
3.33100	137
3.33467	134
3.33833	132
3.34200	132
3.34567	132
3.34933	131
3.35300	129
3.35667	130
3.36033	130
3.36400	129
3.36767	127
3.37133	127
3.37500	127
3.37867	126
3.38233	126
3.38600	124
3.38967	124
3.39333	123
3.39700	121
3.40067	121
3.40433	121
3.40800	122
3.41167	121
3.41533	120
3.41900	118
3.42267	119
3.42633	120
3.43000	120
3.43367	117
3.43733	116
3.44100	115
3.44467	114
3.44833	113
3.45200	112
3.45567	113
3.45933	114
3.46300	116
3.46667	116
3.47033	113
3.47400	109
3.47767	109
3.48133	111
3.48500	110
3.48867	112
3.49233	112
3.49600	110
3.49967	107
3.50333	105
3.50700	103
3.51067	101
3.51433	100
3.51800	98
3.52167	98
3.52533	99
3.52900	102
3.53267	105
3.53633	106
3.54000	104
3.54367	103
3.54733	103
3.55100	100
3.55467	98
3.55833	100
3.56200	100
3.56567	100
3.56933	100
3.57300	102
3.57667	104
3.58033	101
3.58400	98
3.58767	97
3.59133	94
3.59500	91
3.59867	91
3.60233	92
3.60600	91
3.60967	90
3.61333	91
3.61700	91
3.62067	90
3.62433	92
3.62800	93
3.63167	95
3.63533	96
3.63900	96
3.64267	97
3.64633	97
3.65000	93
3.65367	91
3.65733	91
3.66100	89
3.66467	88
3.66833	91
3.67200	93
3.67567	94
3.67933	94
3.68300	92
3.68667	92
3.69033	94
3.69400	92
3.69767	88
3.70133	86
3.70500	86
3.70867	88
3.71233	90
3.71600	92
3.71967	93
3.72333	94
3.72700	94
3.73067	93
3.73433	92
3.73800	91
3.74167	92
3.74533	92
3.74900	93
3.75267	92
3.75633	91
3.76000	90
3.76367	90
3.76733	90
3.77100	92
3.77467	94
3.77833	93
3.78200	94
3.78567	93
3.78933	91
3.79300	93
3.79667	94
3.80033	92
3.80400	93
3.80767	96
3.81133	96
3.81500	98
3.81867	98
3.82233	96
3.82600	92
3.82967	91
3.83333	89
3.83700	89
3.84067	90
3.84433	91
3.84800	93
3.85167	95
3.85533	97
3.85900	98
3.86267	98
3.86633	98
3.87000	98
3.87367	98
3.87733	96
3.88100	96
3.88467	96
3.88833	97
3.89200	99
3.89567	99
3.89933	97
3.90300	96
3.90667	97
3.91033	97
3.91400	96
3.91767	95
3.92133	96
3.92500	98
3.92867	98
3.93233	99
3.93600	101
3.93967	102
3.94333	102
3.94700	102
3.95067	102
3.95433	102
3.95800	102
3.96167	100
3.96533	98
3.96900	98
3.97267	99
3.97633	100
3.98000	100
3.98367	101
3.98733	99
3.99100	98
3.99467	96
3.99833	97

[Status Trace (Column Oven Temperature)]
Interval(msec)	1000
# of Points	240
Start Time(min)	0.007
End Time(min)	3.990
Intensity Units	
Intensity Multiplier	1
R.Time (min)	Intensity
0.00657	35.01
0.02323	35.00
0.03990	34.99
0.05657	34.99
0.07323	34.99
0.08990	35.00
0.10657	35.00
0.12323	35.00
0.13990	35.00
0.15657	35.01
0.17323	35.01
0.18990	35.00
0.20657	34.99
0.22323	34.98
0.23990	34.98
0.25657	34.98
0.27323	34.98
0.28990	34.98
0.30657	34.98
0.32323	34.98
0.33990	34.98
0.35657	34.97
0.37323	34.96
0.38990	34.96
0.40657	34.97
0.42323	34.98
0.43990	34.99
0.45657	34.99
0.47323	35.01
0.48990	35.02
0.50657	35.03
0.52323	35.03
0.53990	35.02
0.55657	35.01
0.57323	35.00
0.58990	34.99
0.60657	34.99
0.62323	34.98
0.63990	34.98
0.65657	34.98
0.67323	34.98
0.68990	34.98
0.70657	34.97
0.72323	34.97
0.73990	34.96
0.75657	34.96
0.77323	34.97
0.78990	34.97
0.80657	34.97
0.82323	34.97
0.83990	34.98
0.85657	34.97
0.87323	34.98
0.88990	34.99
0.90657	34.98
0.92323	34.97
0.93990	34.98
0.95657	34.98
0.97323	34.98
0.98990	34.98
1.00657	34.98
1.02323	34.98
1.03990	34.98
1.05657	34.98
1.07323	34.98
1.08990	34.97
1.10657	34.97
1.12323	34.98
1.13990	34.98
1.15657	34.98
1.17323	34.98
1.18990	34.98
1.20657	34.97
1.22323	34.98
1.23990	34.97
1.25657	34.96
1.27323	34.97
1.28990	34.98
1.30657	34.98
1.32323	34.98
1.33990	34.99
1.35657	34.99
1.37323	35.00
1.38990	35.00
1.40657	35.00
1.42323	34.99
1.43990	34.99
1.45657	34.99
1.47323	34.98
1.48990	34.98
1.50657	34.98
1.52323	34.99
1.53990	34.99
1.55657	34.99
1.57323	34.99
1.58990	35.00
1.60657	35.05
1.62323	35.19
1.63990	35.40
1.65657	35.65
1.67323	35.96
1.68990	36.32
1.70657	36.68
1.72323	37.00
1.73990	37.31
1.75657	37.66
1.77323	37.99
1.78990	38.34
1.80657	38.64
1.82323	38.97
1.83990	39.31
1.85657	39.65
1.87323	39.99
1.88990	40.33
1.90657	40.65
1.92323	40.98
1.93990	41.31
1.95657	41.63
1.97323	41.94
1.98990	42.26
2.00657	42.60
2.02323	42.92
2.03990	43.24
2.05657	43.56
2.07323	43.88
2.08990	44.22
2.10657	44.54
2.12323	44.88
2.13990	45.21
2.15657	45.51
2.17323	45.84
2.18990	46.18
2.20657	46.50
2.22323	46.84
2.23990	47.17
2.25657	47.50
2.27323	47.82
2.28990	48.16
2.30657	48.49
2.32323	48.82
2.33990	49.16
2.35657	49.44
2.37323	49.61
2.38990	49.69
2.40657	49.67
2.42323	49.67
2.43990	49.68
2.45657	49.69
2.47323	49.71
2.48990	49.72
2.50657	49.72
2.52323	49.76
2.53990	49.76
2.55657	49.77
2.57323	49.78
2.58990	49.81
2.60657	49.83
2.62323	49.83
2.63990	49.84
2.65657	49.85
2.67323	49.85
2.68990	49.84
2.70657	49.86
2.72323	49.87
2.73990	49.86
2.75657	49.84
2.77323	49.86
2.78990	49.90
2.80657	49.92
2.82323	49.92
2.83990	49.92
2.85657	49.92
2.87323	49.92
2.88990	49.93
2.90657	49.93
2.92323	49.94
2.93990	49.95
2.95657	49.96
2.97323	49.98
2.98990	49.98
3.00657	49.99
3.02323	49.99
3.03990	49.99
3.05657	50.00
3.07323	50.00
3.08990	50.01
3.10657	50.03
3.12323	50.04
3.13990	50.05
3.15657	50.06
3.17323	50.07
3.18990	50.08
3.20657	50.09
3.22323	50.10
3.23990	50.11
3.25657	50.12
3.27323	50.10
3.28990	50.08
3.30657	50.07
3.32323	50.06
3.33990	50.05
3.35657	50.04
3.37323	50.04
3.38990	50.03
3.40657	50.04
3.42323	50.04
3.43990	50.04
3.45657	50.03
3.47323	50.03
3.48990	50.02
3.50657	50.02
3.52323	50.03
3.53990	50.03
3.55657	50.04
3.57323	50.04
3.58990	50.05
3.60657	50.05
3.62323	50.05
3.63990	50.06
3.65657	50.06
3.67323	50.06
3.68990	50.05
3.70657	50.06
3.72323	50.06
3.73990	50.05
3.75657	50.06
3.77323	50.06
3.78990	50.07
3.80657	50.09
3.82323	50.11
3.83990	50.12
3.85657	50.10
3.87323	50.08
3.88990	50.06
3.90657	50.04
3.92323	50.02
3.93990	50.00
3.95657	49.99
3.97323	49.99
3.98990	49.99

[Status Trace (Injection Unit Temperature)]
Interval(msec)	1000
# of Points	240
Start Time(min)	0.007
End Time(min)	3.990
Intensity Units	
Intensity Multiplier	1
R.Time (min)	Intensity
0.00657	99.99
0.02323	99.99
0.03990	99.98
0.05657	99.98
0.07323	99.99
0.08990	99.99
0.10657	99.99
0.12323	99.99
0.13990	99.99
0.15657	99.99
0.17323	99.99
0.18990	99.99
0.20657	99.99
0.22323	99.99
0.23990	99.98
0.25657	99.99
0.27323	99.98
0.28990	99.99
0.30657	99.98
0.32323	99.99
0.33990	99.99
0.35657	99.99
0.37323	99.99
0.38990	99.99
0.40657	99.99
0.42323	99.99
0.43990	99.99
0.45657	99.99
0.47323	99.99
0.48990	99.99
0.50657	99.99
0.52323	99.99
0.53990	99.98
0.55657	99.99
0.57323	99.99
0.58990	99.99
0.60657	99.99
0.62323	99.99
0.63990	99.99
0.65657	99.99
0.67323	100.00
0.68990	99.99
0.70657	100.00
0.72323	99.99
0.73990	100.00
0.75657	99.99
0.77323	100.00
0.78990	99.99
0.80657	99.99
0.82323	100.00
0.83990	100.00
0.85657	100.00
0.87323	100.00
0.88990	100.00
0.90657	99.99
0.92323	99.99
0.93990	99.99
0.95657	100.00
0.97323	99.99
0.98990	99.99
1.00657	99.99
1.02323	99.99
1.03990	99.99
1.05657	100.00
1.07323	99.99
1.08990	99.99
1.10657	99.99
1.12323	99.99
1.13990	99.99
1.15657	100.00
1.17323	99.99
1.18990	99.99
1.20657	99.99
1.22323	100.00
1.23990	99.99
1.25657	99.99
1.27323	99.99
1.28990	99.99
1.30657	99.99
1.32323	99.99
1.33990	99.99
1.35657	99.99
1.37323	100.00
1.38990	99.99
1.40657	99.99
1.42323	99.99
1.43990	99.99
1.45657	100.00
1.47323	99.99
1.48990	99.99
1.50657	99.99
1.52323	99.99
1.53990	99.99
1.55657	100.00
1.57323	99.99
1.58990	99.99
1.60657	99.99
1.62323	99.99
1.63990	99.99
1.65657	99.99
1.67323	99.99
1.68990	99.99
1.70657	100.00
1.72323	99.99
1.73990	99.99
1.75657	99.99
1.77323	99.99
1.78990	99.99
1.80657	99.99
1.82323	99.99
1.83990	99.99
1.85657	99.99
1.87323	99.99
1.88990	99.99
1.90657	99.99
1.92323	99.99
1.93990	99.99
1.95657	99.98
1.97323	99.98
1.98990	99.98
2.00657	99.98
2.02323	99.98
2.03990	99.98
2.05657	99.98
2.07323	99.98
2.08990	99.97
2.10657	99.98
2.12323	99.98
2.13990	99.98
2.15657	99.97
2.17323	99.98
2.18990	99.98
2.20657	99.97
2.22323	99.98
2.23990	99.98
2.25657	99.97
2.27323	99.98
2.28990	99.98
2.30657	99.97
2.32323	99.97
2.33990	99.97
2.35657	99.98
2.37323	99.98
2.38990	99.98
2.40657	99.98
2.42323	99.98
2.43990	99.98
2.45657	99.98
2.47323	99.98
2.48990	99.98
2.50657	99.98
2.52323	99.99
2.53990	99.99
2.55657	99.99
2.57323	99.99
2.58990	99.99
2.60657	99.99
2.62323	99.99
2.63990	99.99
2.65657	99.99
2.67323	99.99
2.68990	100.00
2.70657	100.00
2.72323	100.00
2.73990	100.00
2.75657	100.00
2.77323	100.00
2.78990	100.00
2.80657	100.00
2.82323	100.01
2.83990	100.00
2.85657	100.01
2.87323	100.00
2.88990	100.01
2.90657	100.01
2.92323	100.01
2.93990	100.01
2.95657	100.01
2.97323	100.02
2.98990	100.01
3.00657	100.02
3.02323	100.02
3.03990	100.02
3.05657	100.02
3.07323	100.03
3.08990	100.02
3.10657	100.02
3.12323	100.03
3.13990	100.03
3.15657	100.03
3.17323	100.03
3.18990	100.03
3.20657	100.03
3.22323	100.03
3.23990	100.03
3.25657	100.03
3.27323	100.03
3.28990	100.03
3.30657	100.03
3.32323	100.03
3.33990	100.03
3.35657	100.03
3.37323	100.03
3.38990	100.03
3.40657	100.03
3.42323	100.03
3.43990	100.04
3.45657	100.03
3.47323	100.03
3.48990	100.04
3.50657	100.04
3.52323	100.04
3.53990	100.04
3.55657	100.04
3.57323	100.04
3.58990	100.04
3.60657	100.04
3.62323	100.04
3.63990	100.04
3.65657	100.04
3.67323	100.04
3.68990	100.04
3.70657	100.05
3.72323	100.04
3.73990	100.05
3.75657	100.04
3.77323	100.04
3.78990	100.05
3.80657	100.04
3.82323	100.05
3.83990	100.04
3.85657	100.05
3.87323	100.05
3.88990	100.05
3.90657	100.05
3.92323	100.05
3.93990	100.05
3.95657	100.05
3.97323	100.05
3.98990	100.05

[Status Trace (Carrier Gas Pressure)]
Interval(msec)	1000
# of Points	240
Start Time(min)	0.007
End Time(min)	3.990
Intensity Units	
Intensity Multiplier	1
R.Time (min)	Intensity
0.00657	58.00
0.02323	55.62
0.03990	56.89
0.05657	59.10
0.07323	59.65
0.08990	58.11
0.10657	57.98
0.12323	58.01
0.13990	58.01
0.15657	58.00
0.17323	58.00
0.18990	58.00
0.20657	58.00
0.22323	58.00
0.23990	58.00
0.25657	58.00
0.27323	58.00
0.28990	58.00
0.30657	58.00
0.32323	58.00
0.33990	58.00
0.35657	58.00
0.37323	58.00
0.38990	58.00
0.40657	58.00
0.42323	58.00
0.43990	58.00
0.45657	58.00
0.47323	58.00
0.48990	58.00
0.50657	58.00
0.52323	58.00
0.53990	58.00
0.55657	58.00
0.57323	58.00
0.58990	58.00
0.60657	58.00
0.62323	58.00
0.63990	58.00
0.65657	58.00
0.67323	58.00
0.68990	58.00
0.70657	58.00
0.72323	58.00
0.73990	58.00
0.75657	58.00
0.77323	58.00
0.78990	58.00
0.80657	58.00
0.82323	58.00
0.83990	58.00
0.85657	58.00
0.87323	58.00
0.88990	58.00
0.90657	58.00
0.92323	58.00
0.93990	58.00
0.95657	58.00
0.97323	58.00
0.98990	58.00
1.00657	58.00
1.02323	58.00
1.03990	58.00
1.05657	58.00
1.07323	58.00
1.08990	58.00
1.10657	58.00
1.12323	58.00
1.13990	58.00
1.15657	58.00
1.17323	58.00
1.18990	58.00
1.20657	58.00
1.22323	58.00
1.23990	58.00
1.25657	58.00
1.27323	58.00
1.28990	58.00
1.30657	58.00
1.32323	58.00
1.33990	58.00
1.35657	58.00
1.37323	58.00
1.38990	58.00
1.40657	58.00
1.42323	58.00
1.43990	58.00
1.45657	58.00
1.47323	58.00
1.48990	58.00
1.50657	58.00
1.52323	58.00
1.53990	58.00
1.55657	58.00
1.57323	58.00
1.58990	58.00
1.60657	58.00
1.62323	58.00
1.63990	58.01
1.65657	58.00
1.67323	58.00
1.68990	58.00
1.70657	58.00
1.72323	58.00
1.73990	58.00
1.75657	58.00
1.77323	58.00
1.78990	58.00
1.80657	58.00
1.82323	58.00
1.83990	58.00
1.85657	58.00
1.87323	58.00
1.88990	58.00
1.90657	58.00
1.92323	58.00
1.93990	58.00
1.95657	58.00
1.97323	58.00
1.98990	58.00
2.00657	58.00
2.02323	58.00
2.03990	58.00
2.05657	58.00
2.07323	58.00
2.08990	58.00
2.10657	58.00
2.12323	58.00
2.13990	58.00
2.15657	58.00
2.17323	58.00
2.18990	58.00
2.20657	58.00
2.22323	58.00
2.23990	58.00
2.25657	58.00
2.27323	58.00
2.28990	58.00
2.30657	58.00
2.32323	58.00
2.33990	58.00
2.35657	58.00
2.37323	58.00
2.38990	57.99
2.40657	57.99
2.42323	58.00
2.43990	58.00
2.45657	58.00
2.47323	58.00
2.48990	58.00
2.50657	57.99
2.52323	57.99
2.53990	58.00
2.55657	58.00
2.57323	58.00
2.58990	58.00
2.60657	58.00
2.62323	58.00
2.63990	58.00
2.65657	58.00
2.67323	58.00
2.68990	58.00
2.70657	58.00
2.72323	58.00
2.73990	58.00
2.75657	58.00
2.77323	58.00
2.78990	58.00
2.80657	58.00
2.82323	58.00
2.83990	58.00
2.85657	58.00
2.87323	58.00
2.88990	58.00
2.90657	58.00
2.92323	58.00
2.93990	58.00
2.95657	58.00
2.97323	58.00
2.98990	58.00
3.00657	58.00
3.02323	58.00
3.03990	58.00
3.05657	58.00
3.07323	58.00
3.08990	58.00
3.10657	58.00
3.12323	58.00
3.13990	58.00
3.15657	58.00
3.17323	58.00
3.18990	58.00
3.20657	58.00
3.22323	58.00
3.23990	58.00
3.25657	58.00
3.27323	58.00
3.28990	58.00
3.30657	58.00
3.32323	58.00
3.33990	58.00
3.35657	58.00
3.37323	58.00
3.38990	58.00
3.40657	58.00
3.42323	58.00
3.43990	58.00
3.45657	58.00
3.47323	58.00
3.48990	58.00
3.50657	58.00
3.52323	58.00
3.53990	58.00
3.55657	58.00
3.57323	58.00
3.58990	58.00
3.60657	58.00
3.62323	58.00
3.63990	58.00
3.65657	58.00
3.67323	58.00
3.68990	58.00
3.70657	58.00
3.72323	58.00
3.73990	58.00
3.75657	58.00
3.77323	58.00
3.78990	58.00
3.80657	58.00
3.82323	58.00
3.83990	58.00
3.85657	58.00
3.87323	58.00
3.88990	58.00
3.90657	58.00
3.92323	58.00
3.93990	58.00
3.95657	58.00
3.97323	58.00
3.98990	58.00

[Status Trace (Carrier Gas Flow)]
Interval(msec)	1000
# of Points	240
Start Time(min)	0.007
End Time(min)	3.990
Intensity Units	
Intensity Multiplier	1
R.Time (min)	Intensity
0.00657	34.52
0.02323	34.54
0.03990	34.54
0.05657	34.54
0.07323	34.50
0.08990	34.52
0.10657	34.52
0.12323	34.52
0.13990	34.52
0.15657	34.52
0.17323	34.52
0.18990	34.52
0.20657	34.52
0.22323	34.52
0.23990	34.52
0.25657	34.52
0.27323	34.52
0.28990	34.51
0.30657	34.53
0.32323	34.52
0.33990	34.52
0.35657	34.52
0.37323	34.51
0.38990	34.51
0.40657	34.52
0.42323	34.51
0.43990	34.52
0.45657	34.52
0.47323	34.52
0.48990	34.52
0.50657	34.51
0.52323	34.52
0.53990	34.52
0.55657	34.52
0.57323	34.52
0.58990	34.52
0.60657	34.52
0.62323	34.52
0.63990	34.51
0.65657	34.53
0.67323	34.51
0.68990	34.52
0.70657	34.51
0.72323	34.52
0.73990	34.52
0.75657	34.53
0.77323	34.52
0.78990	34.52
0.80657	34.52
0.82323	34.52
0.83990	34.53
0.85657	34.52
0.87323	34.53
0.88990	34.52
0.90657	34.52
0.92323	34.52
0.93990	34.53
0.95657	34.51
0.97323	34.51
0.98990	34.52
1.00657	34.51
1.02323	34.53
1.03990	34.52
1.05657	34.52
1.07323	34.52
1.08990	34.52
1.10657	34.51
1.12323	34.52
1.13990	34.52
1.15657	34.53
1.17323	34.51
1.18990	34.52
1.20657	34.51
1.22323	34.54
1.23990	34.52
1.25657	34.53
1.27323	34.52
1.28990	34.51
1.30657	34.51
1.32323	34.53
1.33990	34.50
1.35657	34.53
1.37323	34.52
1.38990	34.52
1.40657	34.53
1.42323	34.52
1.43990	34.52
1.45657	34.52
1.47323	34.51
1.48990	34.53
1.50657	34.51
1.52323	34.53
1.53990	34.51
1.55657	34.51
1.57323	34.52
1.58990	34.52
1.60657	34.52
1.62323	34.52
1.63990	34.51
1.65657	34.52
1.67323	34.52
1.68990	34.53
1.70657	34.52
1.72323	34.52
1.73990	34.52
1.75657	34.52
1.77323	34.52
1.78990	34.51
1.80657	34.52
1.82323	34.51
1.83990	34.52
1.85657	34.50
1.87323	34.50
1.88990	34.52
1.90657	34.51
1.92323	34.51
1.93990	34.53
1.95657	34.53
1.97323	34.53
1.98990	34.52
2.00657	34.52
2.02323	34.51
2.03990	34.52
2.05657	34.53
2.07323	34.51
2.08990	34.52
2.10657	34.52
2.12323	34.51
2.13990	34.52
2.15657	34.53
2.17323	34.52
2.18990	34.53
2.20657	34.52
2.22323	34.52
2.23990	34.52
2.25657	34.52
2.27323	34.52
2.28990	34.52
2.30657	34.52
2.32323	34.52
2.33990	34.52
2.35657	34.52
2.37323	34.52
2.38990	34.52
2.40657	34.52
2.42323	34.52
2.43990	34.53
2.45657	34.52
2.47323	34.53
2.48990	34.53
2.50657	34.39
2.52323	34.52
2.53990	34.52
2.55657	34.52
2.57323	34.52
2.58990	34.52
2.60657	34.52
2.62323	34.52
2.63990	34.52
2.65657	34.52
2.67323	34.52
2.68990	34.52
2.70657	34.52
2.72323	34.52
2.73990	34.52
2.75657	34.52
2.77323	34.52
2.78990	34.52
2.80657	34.52
2.82323	34.52
2.83990	34.52
2.85657	34.52
2.87323	34.52
2.88990	34.52
2.90657	34.52
2.92323	34.52
2.93990	34.52
2.95657	34.52
2.97323	34.52
2.98990	34.52
3.00657	34.52
3.02323	34.52
3.03990	34.52
3.05657	34.52
3.07323	34.52
3.08990	34.52
3.10657	34.52
3.12323	34.52
3.13990	34.52
3.15657	34.52
3.17323	34.52
3.18990	34.52
3.20657	34.52
3.22323	34.52
3.23990	34.52
3.25657	34.52
3.27323	34.52
3.28990	34.52
3.30657	34.52
3.32323	34.52
3.33990	34.52
3.35657	34.52
3.37323	34.52
3.38990	34.52
3.40657	34.52
3.42323	34.52
3.43990	34.52
3.45657	34.52
3.47323	34.52
3.48990	34.52
3.50657	34.52
3.52323	34.52
3.53990	34.52
3.55657	34.52
3.57323	34.52
3.58990	34.51
3.60657	34.52
3.62323	34.52
3.63990	34.52
3.65657	34.52
3.67323	34.52
3.68990	34.52
3.70657	34.52
3.72323	34.52
3.73990	34.52
3.75657	34.52
3.77323	34.52
3.78990	34.52
3.80657	34.52
3.82323	34.52
3.83990	34.52
3.85657	34.52
3.87323	34.52
3.88990	34.52
3.90657	34.52
3.92323	34.52
3.93990	34.52
3.95657	34.52
3.97323	34.52
3.98990	34.52

[Status Trace (Column Flow)]
Interval(msec)	1000
# of Points	240
Start Time(min)	0.007
End Time(min)	3.990
Intensity Units	
Intensity Multiplier	1
R.Time (min)	Intensity
0.00657	5.46
0.02323	5.18
0.03990	5.33
0.05657	5.59
0.07323	5.65
0.08990	5.47
0.10657	5.45
0.12323	5.46
0.13990	5.46
0.15657	5.46
0.17323	5.46
0.18990	5.46
0.20657	5.46
0.22323	5.46
0.23990	5.46
0.25657	5.46
0.27323	5.46
0.28990	5.46
0.30657	5.46
0.32323	5.46
0.33990	5.46
0.35657	5.46
0.37323	5.46
0.38990	5.46
0.40657	5.46
0.42323	5.46
0.43990	5.46
0.45657	5.46
0.47323	5.46
0.48990	5.46
0.50657	5.46
0.52323	5.46
0.53990	5.46
0.55657	5.46
0.57323	5.46
0.58990	5.46
0.60657	5.46
0.62323	5.46
0.63990	5.46
0.65657	5.46
0.67323	5.46
0.68990	5.46
0.70657	5.46
0.72323	5.46
0.73990	5.46
0.75657	5.46
0.77323	5.46
0.78990	5.46
0.80657	5.46
0.82323	5.46
0.83990	5.46
0.85657	5.46
0.87323	5.46
0.88990	5.46
0.90657	5.46
0.92323	5.46
0.93990	5.46
0.95657	5.46
0.97323	5.46
0.98990	5.46
1.00657	5.46
1.02323	5.46
1.03990	5.46
1.05657	5.46
1.07323	5.46
1.08990	5.46
1.10657	5.46
1.12323	5.46
1.13990	5.46
1.15657	5.46
1.17323	5.46
1.18990	5.46
1.20657	5.46
1.22323	5.46
1.23990	5.46
1.25657	5.46
1.27323	5.46
1.28990	5.46
1.30657	5.46
1.32323	5.46
1.33990	5.46
1.35657	5.46
1.37323	5.46
1.38990	5.46
1.40657	5.46
1.42323	5.46
1.43990	5.46
1.45657	5.46
1.47323	5.46
1.48990	5.46
1.50657	5.46
1.52323	5.46
1.53990	5.46
1.55657	5.46
1.57323	5.46
1.58990	5.46
1.60657	5.46
1.62323	5.45
1.63990	5.45
1.65657	5.44
1.67323	5.43
1.68990	5.42
1.70657	5.41
1.72323	5.40
1.73990	5.39
1.75657	5.38
1.77323	5.37
1.78990	5.36
1.80657	5.35
1.82323	5.34
1.83990	5.33
1.85657	5.32
1.87323	5.31
1.88990	5.30
1.90657	5.29
1.92323	5.28
1.93990	5.27
1.95657	5.26
1.97323	5.25
1.98990	5.24
2.00657	5.23
2.02323	5.22
2.03990	5.21
2.05657	5.20
2.07323	5.19
2.08990	5.18
2.10657	5.17
2.12323	5.16
2.13990	5.15
2.15657	5.14
2.17323	5.14
2.18990	5.13
2.20657	5.12
2.22323	5.11
2.23990	5.10
2.25657	5.09
2.27323	5.08
2.28990	5.07
2.30657	5.06
2.32323	5.05
2.33990	5.04
2.35657	5.04
2.37323	5.03
2.38990	5.03
2.40657	5.03
2.42323	5.03
2.43990	5.03
2.45657	5.03
2.47323	5.03
2.48990	5.03
2.50657	5.03
2.52323	5.03
2.53990	5.03
2.55657	5.03
2.57323	5.03
2.58990	5.03
2.60657	5.02
2.62323	5.02
2.63990	5.02
2.65657	5.02
2.67323	5.02
2.68990	5.02
2.70657	5.02
2.72323	5.02
2.73990	5.02
2.75657	5.02
2.77323	5.02
2.78990	5.02
2.80657	5.02
2.82323	5.02
2.83990	5.02
2.85657	5.02
2.87323	5.02
2.88990	5.02
2.90657	5.02
2.92323	5.02
2.93990	5.02
2.95657	5.02
2.97323	5.02
2.98990	5.02
3.00657	5.02
3.02323	5.02
3.03990	5.02
3.05657	5.02
3.07323	5.02
3.08990	5.02
3.10657	5.02
3.12323	5.02
3.13990	5.02
3.15657	5.02
3.17323	5.02
3.18990	5.02
3.20657	5.02
3.22323	5.02
3.23990	5.02
3.25657	5.02
3.27323	5.02
3.28990	5.02
3.30657	5.02
3.32323	5.02
3.33990	5.02
3.35657	5.02
3.37323	5.02
3.38990	5.02
3.40657	5.02
3.42323	5.02
3.43990	5.02
3.45657	5.02
3.47323	5.02
3.48990	5.02
3.50657	5.02
3.52323	5.02
3.53990	5.02
3.55657	5.02
3.57323	5.02
3.58990	5.02
3.60657	5.02
3.62323	5.02
3.63990	5.02
3.65657	5.02
3.67323	5.02
3.68990	5.02
3.70657	5.02
3.72323	5.02
3.73990	5.02
3.75657	5.02
3.77323	5.02
3.78990	5.02
3.80657	5.02
3.82323	5.02
3.83990	5.02
3.85657	5.02
3.87323	5.02
3.88990	5.02
3.90657	5.02
3.92323	5.02
3.93990	5.02
3.95657	5.02
3.97323	5.02
3.98990	5.02

[Status Trace (Linear Velocity)]
Interval(msec)	1000
# of Points	240
Start Time(min)	0.007
End Time(min)	3.990
Intensity Units	
Intensity Multiplier	1
R.Time (min)	Intensity
0.00657	39.00
0.02323	37.44
0.03990	38.28
0.05657	39.72
0.07323	40.08
0.08990	39.08
0.10657	38.99
0.12323	39.01
0.13990	39.01
0.15657	39.00
0.17323	39.00
0.18990	39.00
0.20657	39.00
0.22323	39.00
0.23990	39.00
0.25657	39.00
0.27323	39.00
0.28990	39.00
0.30657	39.00
0.32323	39.00
0.33990	39.00
0.35657	39.00
0.37323	39.00
0.38990	39.01
0.40657	39.01
0.42323	39.00
0.43990	39.00
0.45657	39.00
0.47323	39.00
0.48990	39.00
0.50657	39.00
0.52323	39.00
0.53990	39.00
0.55657	39.00
0.57323	39.00
0.58990	39.00
0.60657	39.00
0.62323	39.00
0.63990	39.00
0.65657	39.00
0.67323	39.00
0.68990	39.00
0.70657	39.00
0.72323	39.00
0.73990	39.01
0.75657	39.01
0.77323	39.00
0.78990	39.00
0.80657	39.00
0.82323	39.00
0.83990	39.00
0.85657	39.00
0.87323	39.00
0.88990	39.00
0.90657	39.00
0.92323	39.00
0.93990	39.00
0.95657	39.00
0.97323	39.00
0.98990	39.00
1.00657	39.00
1.02323	39.00
1.03990	39.00
1.05657	39.00
1.07323	39.00
1.08990	39.00
1.10657	39.00
1.12323	39.00
1.13990	39.00
1.15657	39.00
1.17323	39.00
1.18990	39.00
1.20657	39.00
1.22323	39.00
1.23990	39.00
1.25657	39.01
1.27323	39.00
1.28990	39.00
1.30657	39.00
1.32323	39.00
1.33990	39.00
1.35657	39.00
1.37323	39.00
1.38990	39.00
1.40657	39.00
1.42323	39.00
1.43990	39.00
1.45657	39.00
1.47323	39.00
1.48990	39.00
1.50657	39.00
1.52323	39.00
1.53990	39.00
1.55657	39.00
1.57323	39.00
1.58990	39.00
1.60657	39.00
1.62323	38.99
1.63990	38.97
1.65657	38.94
1.67323	38.92
1.68990	38.88
1.70657	38.84
1.72323	38.81
1.73990	38.78
1.75657	38.75
1.77323	38.72
1.78990	38.69
1.80657	38.65
1.82323	38.63
1.83990	38.60
1.85657	38.56
1.87323	38.53
1.88990	38.50
1.90657	38.47
1.92323	38.44
1.93990	38.41
1.95657	38.38
1.97323	38.35
1.98990	38.32
2.00657	38.29
2.02323	38.26
2.03990	38.23
2.05657	38.20
2.07323	38.17
2.08990	38.14
2.10657	38.11
2.12323	38.08
2.13990	38.05
2.15657	38.02
2.17323	37.99
2.18990	37.96
2.20657	37.93
2.22323	37.90
2.23990	37.87
2.25657	37.84
2.27323	37.81
2.28990	37.78
2.30657	37.75
2.32323	37.73
2.33990	37.70
2.35657	37.67
2.37323	37.65
2.38990	37.64
2.40657	37.64
2.42323	37.65
2.43990	37.65
2.45657	37.64
2.47323	37.64
2.48990	37.64
2.50657	37.64
2.52323	37.63
2.53990	37.64
2.55657	37.64
2.57323	37.64
2.58990	37.64
2.60657	37.63
2.62323	37.63
2.63990	37.63
2.65657	37.63
2.67323	37.63
2.68990	37.63
2.70657	37.63
2.72323	37.63
2.73990	37.63
2.75657	37.63
2.77323	37.63
2.78990	37.63
2.80657	37.62
2.82323	37.62
2.83990	37.62
2.85657	37.62
2.87323	37.63
2.88990	37.62
2.90657	37.62
2.92323	37.62
2.93990	37.62
2.95657	37.62
2.97323	37.62
2.98990	37.62
3.00657	37.62
3.02323	37.62
3.03990	37.62
3.05657	37.62
3.07323	37.62
3.08990	37.62
3.10657	37.62
3.12323	37.61
3.13990	37.61
3.15657	37.61
3.17323	37.61
3.18990	37.61
3.20657	37.61
3.22323	37.61
3.23990	37.61
3.25657	37.61
3.27323	37.61
3.28990	37.61
3.30657	37.61
3.32323	37.61
3.33990	37.61
3.35657	37.61
3.37323	37.61
3.38990	37.61
3.40657	37.61
3.42323	37.61
3.43990	37.61
3.45657	37.62
3.47323	37.62
3.48990	37.62
3.50657	37.62
3.52323	37.62
3.53990	37.62
3.55657	37.61
3.57323	37.61
3.58990	37.61
3.60657	37.61
3.62323	37.61
3.63990	37.61
3.65657	37.61
3.67323	37.61
3.68990	37.61
3.70657	37.61
3.72323	37.61
3.73990	37.61
3.75657	37.61
3.77323	37.61
3.78990	37.61
3.80657	37.61
3.82323	37.61
3.83990	37.61
3.85657	37.61
3.87323	37.61
3.88990	37.61
3.90657	37.61
3.92323	37.62
3.93990	37.62
3.95657	37.62
3.97323	37.62
3.98990	37.62

