[Header]
Application Name	LabSolutions
Version	5.110
Data File Name	C:\Users\User\Desktop\Junior\UIC Prairie Sampling\6.15.23\06152023_051.gcd
Output Date	6/26/2023
Output Time	12:05:10 PM

[File Information]
Type	Data File
Generated	6/23/2023 4:59:54 PM
Generated by	System Administrator
Modified	6/23/2023 5:07:15 PM
Modified by	System Administrator

[Sample Information]
Operator Name	System Administrator
Acquired	6/23/2023 5:03:13 PM
Sample Type	0:Unknown
Level	0
Sample Name	051
Sample ID	051
ISTD Amount1	1
ISTD Amount2	1
ISTD Amount3	1
ISTD Amount4	1
ISTD Amount5	1
ISTD Amount6	1
ISTD Amount7	1
ISTD Amount8	1
ISTD Amount9	1
ISTD Amount10	1
ISTD Amount11	1
ISTD Amount12	1
ISTD Amount13	1
ISTD Amount14	1
ISTD Amount15	1
ISTD Amount16	1
ISTD Amount17	1
ISTD Amount18	1
ISTD Amount19	1
ISTD Amount20	1
ISTD Amount21	1
ISTD Amount22	1
ISTD Amount23	1
ISTD Amount24	1
ISTD Amount25	1
ISTD Amount26	1
ISTD Amount27	1
ISTD Amount28	1
ISTD Amount29	1
ISTD Amount30	1
ISTD Amount31	1
ISTD Amount32	1
Sample Amount	1
Dilution Factor	1
Vial#	50
Injection Volume	1
Injection Count	1
Bar Code	

[Original Files]
Data File	C:\Users\User\Desktop\Junior\UIC Prairie Sampling\6.15.23\06152023_051.gcd
Method File	C:\LabSolutions\Data\GHG_4min_2022\ghg3_togas_w_acet_4 min_new_int.gcm
Batch File	C:\LabSolutions\Data\AutoSamplerTesting\06152023.gcb
Report Format File	c:\LabSolutions\System\DEFAULT.lsr

[File Description]


[Configuration]
Instrument Name	C0B7VH3-Instrument1
Instrument #	1
Line #	1
# of Detectors	3
Detector ID	DET#1	DET#2	DET#3
Detector Name	FID	PTCD	ECD
# of Channels	1	1	1

[Peak Table(Ch1)]
# of Peaks	3
Peak#	R.Time	I.Time	F.Time	Area	Height	A/H	Conc.	Mark	ID#	Name	k'	Plate #	Plate Ht.	Tailing	Resolution	Sep.Factor	Area Ratio	Height Ratio	Conc. %	Norm Conc.
1	1.472	1.435	1.531	4279	2149	1.991	0.000	   	1	CO	0.000	9711	15.447	1.326	0.000	0.000	0	0	0.000	0.000
2	1.564	1.531	1.622	4120	2139	1.926	20.087	 V 	2	CH4	0.062	11908	12.596	1.123	1.566	0.000	0	0	5.377	5.377
3	1.989	1.945	2.623	1834213	878540	2.088	353.487	   	3	CO2	0.351	17534	8.555	1.301	7.246	5.640	0	0	94.623	94.623

[Peak Table(Ch2)]
# of Peaks	0

[Peak Table(Ch3)]
# of Peaks	5
Peak#	R.Time	I.Time	F.Time	Area	Height	A/H	Conc.	Mark	ID#	Name	k'	Plate #	Plate Ht.	Tailing	Resolution	Sep.Factor	Area Ratio	Height Ratio	Conc. %	Norm Conc.
1	2.458	2.436	2.480	724	405	1.787	0.000	   			0.000	7480	20.054	0.000	0.000	0.000	0	0	0.000	0.000
2	2.524	2.480	2.528	1568	742	2.114	0.000	 V 			0.027	118	1268.084	0.000	0.127	0.000	0	0	0.000	0.000
3	2.579	2.528	2.656	5749	860	6.683	0.000	 V 			0.049	563	266.503	0.000	0.081	1.833	0	0	0.000	0.000
4	2.726	2.656	2.829	6429	688	9.345	0.000	 V 			0.109	91	1656.968	0.000	0.186	2.212	0	0	0.000	0.000
5	2.887	2.829	3.951	41624	5398	7.711	0.616	 V 	1	N2O	0.175	11607	12.923	0.000	0.257	1.603	0	0	100.000	100.000

[Compound Results(Ch1)]
# of IDs	6
ID#	Name	R.Time	Area	Height	Conc.	Curve	3rd	2nd	1st	Constant	Area Ratio	Height Ratio	Conc. %	Norm Conc.
1	CO	1.472	4279	2149	0.000	Linear	0.000000e+00	0.000000e+00	0.000000e+00	0.000000e+00	0	0	0.000	0.000
2	CH4	1.564	4120	2139	20.087	Linear	0.000000e+00	0.000000e+00	2.051179e+002	0.000000e+00	0	0	5.377	5.377
3	CO2	1.989	1834213	878540	353.487	Linear	0.000000e+00	0.000000e+00	5.188919e+003	0.000000e+00	0	0	94.623	94.623
4	Ethylene	0.000	0	0	0.000	Linear	0.000000e+00	0.000000e+00	0.000000e+00	0.000000e+00	0	0	0.000	0.000
5	Acetylene	0.000	0	0	0.000	Linear	0.000000e+00	0.000000e+00	0.000000e+00	0.000000e+00	0	0	0.000	0.000
6	Ethane	0.000	0	0	0.000	Linear	0.000000e+00	0.000000e+00	0.000000e+00	0.000000e+00	0	0	0.000	0.000

[Compound Results(Ch2)]
# of IDs	5
ID#	Name	R.Time	Area	Height	Conc.	Curve	3rd	2nd	1st	Constant	Area Ratio	Height Ratio	Conc. %	Norm Conc.
1	Hydrogen	0.000	0	0	0.000	Linear	0.000000e+00	0.000000e+00	0.000000e+00	0.000000e+00	0	0	0.000	0.000
2	Oxygen	0.000	0	0	0.000	Linear	0.000000e+00	0.000000e+00	0.000000e+00	0.000000e+00	0	0	0.000	0.000
3	Nitrogen	0.000	0	0	0.000	Linear	0.000000e+00	0.000000e+00	0.000000e+00	0.000000e+00	0	0	0.000	0.000
4	Methane	0.000	0	0	0.000	Linear	0.000000e+00	0.000000e+00	0.000000e+00	0.000000e+00	0	0	0.000	0.000
5	Carbon Monoxide	0.000	0	0	0.000	Linear	0.000000e+00	0.000000e+00	0.000000e+00	0.000000e+00	0	0	0.000	0.000

[Compound Results(Ch3)]
# of IDs	2
ID#	Name	R.Time	Area	Height	Conc.	Curve	3rd	2nd	1st	Constant	Area Ratio	Height Ratio	Conc. %	Norm Conc.
1	N2O	2.887	41624	5398	0.616	Linear	0.000000e+00	0.000000e+00	6.759880e+004	0.000000e+00	0	0	100.000	100.000
2	SF6	0.000	0	0	0.000	Linear	0.000000e+00	0.000000e+00	0.000000e+00	0.000000e+00	0	0	0.000	0.000

[Group Results(Ch1)]
# of Groups	0

[Group Results(Ch2)]
# of Groups	0

[Group Results(Ch3)]
# of Groups	0

[Chromatogram (Ch1)]
Interval(msec)	220
# of Points	1091
Start Time(min)	0.002
End Time(min)	3.998
R.Time (min)	Intensity
0.00167	13
0.00533	12
0.00900	13
0.01267	14
0.01633	15
0.02000	15
0.02367	13
0.02733	7
0.03100	2
0.03467	-2
0.03833	-6
0.04200	-10
0.04567	-13
0.04933	-10
0.05300	-4
0.05667	1
0.06033	6
0.06400	12
0.06767	17
0.07133	20
0.07500	21
0.07867	20
0.08233	20
0.08600	24
0.08967	24
0.09333	18
0.09700	11
0.10067	5
0.10433	0
0.10800	-4
0.11167	-4
0.11533	-2
0.11900	-4
0.12267	-8
0.12633	-12
0.13000	-15
0.13367	-13
0.13733	-3
0.14100	10
0.14467	19
0.14833	22
0.15200	20
0.15567	18
0.15933	13
0.16300	9
0.16667	7
0.17033	4
0.17400	2
0.17767	-1
0.18133	-0
0.18500	5
0.18867	14
0.19233	19
0.19600	19
0.19967	17
0.20333	12
0.20700	7
0.21067	2
0.21433	-3
0.21800	-8
0.22167	-12
0.22533	-11
0.22900	-8
0.23267	-1
0.23633	6
0.24000	9
0.24367	10
0.24733	10
0.25100	9
0.25467	6
0.25833	1
0.26200	-3
0.26567	-2
0.26933	1
0.27300	0
0.27667	-2
0.28033	-3
0.28400	-5
0.28767	-4
0.29133	1
0.29500	5
0.29867	4
0.30233	1
0.30600	-3
0.30967	-3
0.31333	-3
0.31700	-5
0.32067	-6
0.32433	-4
0.32800	-1
0.33167	6
0.33533	10
0.33900	8
0.34267	3
0.34633	1
0.35000	2
0.35367	5
0.35733	7
0.36100	9
0.36467	11
0.36833	10
0.37200	6
0.37567	2
0.37933	-2
0.38300	-5
0.38667	-8
0.39033	-10
0.39400	-11
0.39767	-15
0.40133	-21
0.40500	-24
0.40867	-24
0.41233	-20
0.41600	-16
0.41967	-17
0.42333	-19
0.42700	-21
0.43067	-23
0.43433	-24
0.43800	-21
0.44167	-16
0.44533	-13
0.44900	-10
0.45267	-7
0.45633	-7
0.46000	-9
0.46367	-11
0.46733	-14
0.47100	-14
0.47467	-16
0.47833	-17
0.48200	-15
0.48567	-8
0.48933	2
0.49300	8
0.49667	7
0.50033	4
0.50400	-2
0.50767	-6
0.51133	-9
0.51500	-14
0.51867	-18
0.52233	-19
0.52600	-15
0.52967	-12
0.53333	-12
0.53700	-14
0.54067	-15
0.54433	-15
0.54800	-12
0.55167	-9
0.55533	-5
0.55900	-3
0.56267	-7
0.56633	-10
0.57000	-9
0.57367	-3
0.57733	5
0.58100	14
0.58467	21
0.58833	23
0.59200	22
0.59567	17
0.59933	7
0.60300	-8
0.60667	-19
0.61033	-27
0.61400	-33
0.61767	-37
0.62133	-40
0.62500	-43
0.62867	-45
0.63233	-48
0.63600	-52
0.63967	-51
0.64333	-48
0.64700	-42
0.65067	-37
0.65433	-33
0.65800	-26
0.66167	-19
0.66533	-14
0.66900	-12
0.67267	-13
0.67633	-13
0.68000	-16
0.68367	-22
0.68733	-28
0.69100	-32
0.69467	-32
0.69833	-29
0.70200	-26
0.70567	-25
0.70933	-26
0.71300	-26
0.71667	-24
0.72033	-23
0.72400	-18
0.72767	-14
0.73133	-16
0.73500	-19
0.73867	-21
0.74233	-18
0.74600	-13
0.74967	-10
0.75333	-7
0.75700	-3
0.76067	-3
0.76433	-10
0.76800	-19
0.77167	-24
0.77533	-28
0.77900	-30
0.78267	-31
0.78633	-32
0.79000	-35
0.79367	-41
0.79733	-45
0.80100	-48
0.80467	-49
0.80833	-47
0.81200	-44
0.81567	-39
0.81933	-31
0.82300	-26
0.82667	-27
0.83033	-30
0.83400	-31
0.83767	-29
0.84133	-26
0.84500	-19
0.84867	-13
0.85233	-8
0.85600	-9
0.85967	-15
0.86333	-23
0.86700	-33
0.87067	-38
0.87433	-39
0.87800	-38
0.88167	-39
0.88533	-40
0.88900	-36
0.89267	-29
0.89633	-24
0.90000	-20
0.90367	-18
0.90733	-17
0.91100	-18
0.91467	-22
0.91833	-26
0.92200	-28
0.92567	-30
0.92933	-32
0.93300	-33
0.93667	-32
0.94033	-29
0.94400	-25
0.94767	-25
0.95133	-29
0.95500	-33
0.95867	-37
0.96233	-37
0.96600	-35
0.96967	-30
0.97333	-21
0.97700	-12
0.98067	-9
0.98433	-13
0.98800	-18
0.99167	-21
0.99533	-21
0.99900	-22
1.00267	-25
1.00633	-29
1.01000	-33
1.01367	-36
1.01733	-33
1.02100	-24
1.02467	-15
1.02833	-11
1.03200	-11
1.03567	-11
1.03933	-8
1.04300	-9
1.04667	-12
1.05033	-16
1.05400	-23
1.05767	-30
1.06133	-33
1.06500	-36
1.06867	-39
1.07233	-39
1.07600	-36
1.07967	-35
1.08333	-34
1.08700	-36
1.09067	-41
1.09433	-48
1.09800	-53
1.10167	-53
1.10533	-50
1.10900	-44
1.11267	-39
1.11633	-37
1.12000	-39
1.12367	-37
1.12733	-33
1.13100	-30
1.13467	-29
1.13833	-29
1.14200	-30
1.14567	-31
1.14933	-28
1.15300	-23
1.15667	-19
1.16033	-20
1.16400	-26
1.16767	-31
1.17133	-33
1.17500	-36
1.17867	-39
1.18233	-42
1.18600	-47
1.18967	-51
1.19333	-54
1.19700	-56
1.20067	-55
1.20433	-53
1.20800	-50
1.21167	-49
1.21533	-49
1.21900	-46
1.22267	-39
1.22633	-32
1.23000	-29
1.23367	-30
1.23733	-33
1.24100	-39
1.24467	-44
1.24833	-50
1.25200	-57
1.25567	-60
1.25933	-61
1.26300	-61
1.26667	-61
1.27033	-63
1.27400	-62
1.27767	-59
1.28133	-52
1.28500	-45
1.28867	-42
1.29233	-39
1.29600	-37
1.29967	-39
1.30333	-44
1.30700	-51
1.31067	-57
1.31433	-57
1.31800	-51
1.32167	-43
1.32533	-38
1.32900	-38
1.33267	-40
1.33633	-44
1.34000	-50
1.34367	-57
1.34733	-63
1.35100	-64
1.35467	-61
1.35833	-54
1.36200	-45
1.36567	-39
1.36933	-39
1.37300	-44
1.37667	-50
1.38033	-58
1.38400	-64
1.38767	-68
1.39133	-68
1.39500	-64
1.39867	-60
1.40233	-56
1.40600	-52
1.40967	-47
1.41333	-43
1.41700	-44
1.42067	-48
1.42433	-52
1.42800	-57
1.43167	-59
1.43533	-52
1.43900	-33
1.44267	-16
1.44633	36
1.45000	229
1.45367	586
1.45733	1020
1.46100	1436
1.46467	1777
1.46833	2009
1.47200	2099
1.47567	2021
1.47933	1795
1.48300	1481
1.48667	1149
1.49033	850
1.49400	609
1.49767	425
1.50133	288
1.50500	189
1.50867	120
1.51233	71
1.51600	37
1.51967	14
1.52333	-3
1.52700	-16
1.53067	-21
1.53433	8
1.53800	128
1.54167	389
1.54533	774
1.54900	1200
1.55267	1586
1.55633	1885
1.56000	2064
1.56367	2091
1.56733	1949
1.57100	1666
1.57467	1314
1.57833	967
1.58200	671
1.58567	441
1.58933	273
1.59300	158
1.59667	81
1.60033	33
1.60400	2
1.60767	-20
1.61133	-30
1.61500	-36
1.61867	-41
1.62233	-47
1.62600	-50
1.62967	-52
1.63333	-55
1.63700	-60
1.64067	-64
1.64433	-67
1.64800	-69
1.65167	-69
1.65533	-70
1.65900	-72
1.66267	-71
1.66633	-69
1.67000	-68
1.67367	-66
1.67733	-62
1.68100	-59
1.68467	-63
1.68833	-65
1.69200	-65
1.69567	-63
1.69933	-62
1.70300	-64
1.70667	-66
1.71033	-67
1.71400	-65
1.71767	-65
1.72133	-67
1.72500	-68
1.72867	-68
1.73233	-70
1.73600	-71
1.73967	-74
1.74333	-76
1.74700	-74
1.75067	-66
1.75433	-59
1.75800	-54
1.76167	-53
1.76533	-56
1.76900	-59
1.77267	-62
1.77633	-65
1.78000	-71
1.78367	-78
1.78733	-79
1.79100	-77
1.79467	-77
1.79833	-77
1.80200	-79
1.80567	-80
1.80933	-78
1.81300	-73
1.81667	-67
1.82033	-59
1.82400	-54
1.82767	-56
1.83133	-64
1.83500	-71
1.83867	-75
1.84233	-76
1.84600	-76
1.84967	-81
1.85333	-88
1.85700	-92
1.86067	-92
1.86433	-87
1.86800	-82
1.87167	-76
1.87533	-69
1.87900	-64
1.88267	-63
1.88633	-67
1.89000	-72
1.89367	-73
1.89733	-71
1.90100	-69
1.90467	-71
1.90833	-77
1.91200	-83
1.91567	-86
1.91933	-81
1.92300	-70
1.92667	-58
1.93033	-48
1.93400	-41
1.93767	-42
1.94133	-51
1.94500	-47
1.94867	63
1.95233	812
1.95600	4439
1.95967	17492
1.96333	53201
1.96700	128327
1.97067	251486
1.97433	412064
1.97800	583069
1.98167	733163
1.98533	836736
1.98900	878516
1.99267	855001
1.99633	775167
2.00000	658133
2.00367	527019
2.00733	401868
2.01100	295119
2.01467	211187
2.01833	148924
2.02200	104565
2.02567	73795
2.02933	52786
2.03300	38547
2.03667	28897
2.04033	22311
2.04400	17759
2.04767	14554
2.05133	12246
2.05500	10540
2.05867	9247
2.06233	8242
2.06600	7447
2.06967	6802
2.07333	6261
2.07700	5799
2.08067	5399
2.08433	5052
2.08800	4749
2.09167	4484
2.09533	4249
2.09900	4038
2.10267	3845
2.10633	3667
2.11000	3500
2.11367	3342
2.11733	3199
2.12100	3071
2.12467	2953
2.12833	2843
2.13200	2738
2.13567	2641
2.13933	2555
2.14300	2475
2.14667	2395
2.15033	2311
2.15400	2227
2.15767	2143
2.16133	2066
2.16500	1997
2.16867	1938
2.17233	1887
2.17600	1841
2.17967	1795
2.18333	1747
2.18700	1703
2.19067	1661
2.19433	1622
2.19800	1582
2.20167	1542
2.20533	1504
2.20900	1468
2.21267	1435
2.21633	1404
2.22000	1370
2.22367	1333
2.22733	1292
2.23100	1254
2.23467	1220
2.23833	1192
2.24200	1166
2.24567	1144
2.24933	1129
2.25300	1116
2.25667	1102
2.26033	1085
2.26400	1063
2.26767	1040
2.27133	1020
2.27500	1000
2.27867	977
2.28233	954
2.28600	933
2.28967	918
2.29333	905
2.29700	890
2.30067	876
2.30433	864
2.30800	848
2.31167	831
2.31533	816
2.31900	804
2.32267	797
2.32633	790
2.33000	783
2.33367	772
2.33733	757
2.34100	738
2.34467	720
2.34833	704
2.35200	689
2.35567	678
2.35933	669
2.36300	659
2.36667	647
2.37033	632
2.37400	620
2.37767	612
2.38133	606
2.38500	599
2.38867	593
2.39233	590
2.39600	587
2.39967	581
2.40333	573
2.40700	568
2.41067	565
2.41433	560
2.41800	558
2.42167	558
2.42533	552
2.42900	542
2.43267	532
2.43633	525
2.44000	522
2.44367	519
2.44733	514
2.45100	506
2.45467	498
2.45833	489
2.46200	480
2.46567	474
2.46933	473
2.47300	471
2.47667	467
2.48033	463
2.48400	460
2.48767	457
2.49133	454
2.49500	448
2.49867	441
2.50233	434
2.50600	425
2.50967	416
2.51333	411
2.51700	407
2.52067	400
2.52433	392
2.52800	387
2.53167	387
2.53533	391
2.53900	394
2.54267	392
2.54633	386
2.55000	382
2.55367	382
2.55733	381
2.56100	378
2.56467	378
2.56833	374
2.57200	367
2.57567	359
2.57933	353
2.58300	348
2.58667	339
2.59033	329
2.59400	318
2.59767	313
2.60133	313
2.60500	315
2.60867	315
2.61233	317
2.61600	318
2.61967	318
2.62333	320
2.62700	323
2.63067	324
2.63433	322
2.63800	321
2.64167	317
2.64533	311
2.64900	303
2.65267	296
2.65633	291
2.66000	284
2.66367	280
2.66733	278
2.67100	277
2.67467	280
2.67833	281
2.68200	280
2.68567	275
2.68933	268
2.69300	262
2.69667	257
2.70033	253
2.70400	251
2.70767	250
2.71133	251
2.71500	255
2.71867	260
2.72233	262
2.72600	263
2.72967	263
2.73333	261
2.73700	259
2.74067	257
2.74433	253
2.74800	251
2.75167	250
2.75533	250
2.75900	249
2.76267	249
2.76633	251
2.77000	251
2.77367	249
2.77733	246
2.78100	245
2.78467	241
2.78833	235
2.79200	227
2.79567	221
2.79933	218
2.80300	216
2.80667	217
2.81033	219
2.81400	219
2.81767	217
2.82133	214
2.82500	211
2.82867	210
2.83233	209
2.83600	209
2.83967	206
2.84333	201
2.84700	195
2.85067	192
2.85433	196
2.85800	201
2.86167	203
2.86533	203
2.86900	204
2.87267	205
2.87633	205
2.88000	205
2.88367	203
2.88733	201
2.89100	201
2.89467	201
2.89833	200
2.90200	198
2.90567	197
2.90933	196
2.91300	195
2.91667	192
2.92033	187
2.92400	184
2.92767	190
2.93133	200
2.93500	206
2.93867	204
2.94233	194
2.94600	181
2.94967	171
2.95333	167
2.95700	169
2.96067	172
2.96433	173
2.96800	175
2.97167	177
2.97533	177
2.97900	178
2.98267	179
2.98633	179
2.99000	180
2.99367	183
2.99733	186
3.00100	189
3.00467	188
3.00833	186
3.01200	186
3.01567	188
3.01933	188
3.02300	187
3.02667	186
3.03033	184
3.03400	180
3.03767	175
3.04133	172
3.04500	173
3.04867	177
3.05233	178
3.05600	172
3.05967	163
3.06333	154
3.06700	148
3.07067	148
3.07433	152
3.07800	156
3.08167	159
3.08533	161
3.08900	161
3.09267	165
3.09633	171
3.10000	171
3.10367	165
3.10733	160
3.11100	157
3.11467	156
3.11833	162
3.12200	172
3.12567	177
3.12933	176
3.13300	171
3.13667	164
3.14033	156
3.14400	147
3.14767	137
3.15133	132
3.15500	132
3.15867	137
3.16233	147
3.16600	156
3.16967	157
3.17333	154
3.17700	151
3.18067	147
3.18433	143
3.18800	142
3.19167	145
3.19533	147
3.19900	146
3.20267	145
3.20633	148
3.21000	151
3.21367	148
3.21733	141
3.22100	132
3.22467	128
3.22833	130
3.23200	133
3.23567	138
3.23933	144
3.24300	150
3.24667	156
3.25033	155
3.25400	150
3.25767	144
3.26133	137
3.26500	134
3.26867	133
3.27233	131
3.27600	130
3.27967	132
3.28333	136
3.28700	141
3.29067	144
3.29433	142
3.29800	134
3.30167	126
3.30533	121
3.30900	120
3.31267	126
3.31633	136
3.32000	142
3.32367	142
3.32733	137
3.33100	134
3.33467	133
3.33833	133
3.34200	136
3.34567	144
3.34933	154
3.35300	157
3.35667	151
3.36033	143
3.36400	138
3.36767	136
3.37133	137
3.37500	135
3.37867	134
3.38233	139
3.38600	147
3.38967	152
3.39333	149
3.39700	138
3.40067	127
3.40433	117
3.40800	112
3.41167	109
3.41533	110
3.41900	111
3.42267	112
3.42633	112
3.43000	111
3.43367	113
3.43733	119
3.44100	123
3.44467	121
3.44833	114
3.45200	108
3.45567	102
3.45933	99
3.46300	99
3.46667	101
3.47033	105
3.47400	109
3.47767	112
3.48133	113
3.48500	113
3.48867	113
3.49233	114
3.49600	116
3.49967	116
3.50333	116
3.50700	117
3.51067	119
3.51433	121
3.51800	124
3.52167	125
3.52533	123
3.52900	122
3.53267	122
3.53633	121
3.54000	121
3.54367	121
3.54733	118
3.55100	115
3.55467	114
3.55833	116
3.56200	117
3.56567	114
3.56933	106
3.57300	97
3.57667	89
3.58033	83
3.58400	82
3.58767	81
3.59133	78
3.59500	78
3.59867	81
3.60233	86
3.60600	92
3.60967	96
3.61333	96
3.61700	93
3.62067	93
3.62433	98
3.62800	104
3.63167	106
3.63533	105
3.63900	105
3.64267	105
3.64633	105
3.65000	104
3.65367	103
3.65733	103
3.66100	99
3.66467	96
3.66833	94
3.67200	95
3.67567	99
3.67933	103
3.68300	109
3.68667	114
3.69033	115
3.69400	112
3.69767	105
3.70133	100
3.70500	97
3.70867	95
3.71233	94
3.71600	97
3.71967	99
3.72333	100
3.72700	97
3.73067	91
3.73433	85
3.73800	85
3.74167	88
3.74533	93
3.74900	96
3.75267	95
3.75633	92
3.76000	90
3.76367	89
3.76733	88
3.77100	85
3.77467	80
3.77833	72
3.78200	66
3.78567	63
3.78933	65
3.79300	71
3.79667	79
3.80033	85
3.80400	93
3.80767	99
3.81133	99
3.81500	96
3.81867	92
3.82233	89
3.82600	88
3.82967	93
3.83333	97
3.83700	100
3.84067	101
3.84433	102
3.84800	100
3.85167	94
3.85533	87
3.85900	81
3.86267	75
3.86633	70
3.87000	68
3.87367	68
3.87733	68
3.88100	70
3.88467	77
3.88833	89
3.89200	102
3.89567	110
3.89933	112
3.90300	109
3.90667	102
3.91033	92
3.91400	80
3.91767	68
3.92133	62
3.92500	59
3.92867	57
3.93233	57
3.93600	60
3.93967	61
3.94333	61
3.94700	60
3.95067	61
3.95433	65
3.95800	72
3.96167	78
3.96533	81
3.96900	80
3.97267	79
3.97633	80
3.98000	79
3.98367	77
3.98733	77
3.99100	80
3.99467	83
3.99833	86

[Chromatogram (Ch2)]
Interval(msec)	220
# of Points	1091
Start Time(min)	0.002
End Time(min)	3.998
R.Time (min)	Intensity
0.00167	2
0.00533	2
0.00900	2
0.01267	2
0.01633	2
0.02000	2
0.02367	2
0.02733	2
0.03100	2
0.03467	2
0.03833	2
0.04200	1
0.04567	1
0.04933	1
0.05300	1
0.05667	1
0.06033	0
0.06400	-0
0.06767	-1
0.07133	-1
0.07500	-1
0.07867	-2
0.08233	-2
0.08600	-3
0.08967	-3
0.09333	-3
0.09700	-3
0.10067	-3
0.10433	-3
0.10800	-3
0.11167	-3
0.11533	-2
0.11900	-2
0.12267	-2
0.12633	-1
0.13000	-1
0.13367	-1
0.13733	-1
0.14100	-0
0.14467	-0
0.14833	-1
0.15200	-1
0.15567	-1
0.15933	-1
0.16300	-1
0.16667	-1
0.17033	-1
0.17400	-1
0.17767	-1
0.18133	-2
0.18500	-2
0.18867	-2
0.19233	-2
0.19600	-1
0.19967	-1
0.20333	-1
0.20700	-1
0.21067	-2
0.21433	-2
0.21800	-2
0.22167	-2
0.22533	-2
0.22900	-2
0.23267	-2
0.23633	-2
0.24000	-3
0.24367	-3
0.24733	-3
0.25100	-3
0.25467	-2
0.25833	-2
0.26200	-2
0.26567	-2
0.26933	-2
0.27300	-2
0.27667	-2
0.28033	-2
0.28400	-3
0.28767	-3
0.29133	-3
0.29500	-3
0.29867	-3
0.30233	-3
0.30600	-3
0.30967	-3
0.31333	-3
0.31700	-3
0.32067	-3
0.32433	-3
0.32800	-2
0.33167	-2
0.33533	-2
0.33900	-2
0.34267	-2
0.34633	-2
0.35000	-2
0.35367	-1
0.35733	-1
0.36100	-1
0.36467	-1
0.36833	-1
0.37200	-1
0.37567	-1
0.37933	-1
0.38300	-1
0.38667	-1
0.39033	-1
0.39400	-1
0.39767	-2
0.40133	-2
0.40500	-2
0.40867	-3
0.41233	-3
0.41600	-4
0.41967	-4
0.42333	-4
0.42700	-4
0.43067	-4
0.43433	-4
0.43800	-4
0.44167	-4
0.44533	-3
0.44900	-3
0.45267	-3
0.45633	-3
0.46000	-4
0.46367	-4
0.46733	-4
0.47100	-5
0.47467	-5
0.47833	-5
0.48200	-5
0.48567	-4
0.48933	-4
0.49300	-4
0.49667	-3
0.50033	-3
0.50400	-3
0.50767	-3
0.51133	-2
0.51500	-2
0.51867	-1
0.52233	-1
0.52600	-1
0.52967	-0
0.53333	-0
0.53700	-0
0.54067	-0
0.54433	-1
0.54800	-1
0.55167	-1
0.55533	-1
0.55900	-1
0.56267	-1
0.56633	-1
0.57000	-1
0.57367	-1
0.57733	-1
0.58100	-1
0.58467	-1
0.58833	-2
0.59200	-2
0.59567	-2
0.59933	-2
0.60300	-2
0.60667	-2
0.61033	-2
0.61400	-2
0.61767	-2
0.62133	-2
0.62500	-2
0.62867	-1
0.63233	-1
0.63600	-1
0.63967	-1
0.64333	-1
0.64700	-0
0.65067	-0
0.65433	0
0.65800	0
0.66167	0
0.66533	-0
0.66900	-0
0.67267	-1
0.67633	-1
0.68000	-2
0.68367	-2
0.68733	-2
0.69100	-2
0.69467	-2
0.69833	-3
0.70200	-3
0.70567	-3
0.70933	-3
0.71300	-3
0.71667	-3
0.72033	-3
0.72400	-3
0.72767	-3
0.73133	-3
0.73500	-3
0.73867	-3
0.74233	-3
0.74600	-3
0.74967	-3
0.75333	-3
0.75700	-3
0.76067	-3
0.76433	-3
0.76800	-3
0.77167	-3
0.77533	-2
0.77900	-2
0.78267	-2
0.78633	-2
0.79000	-2
0.79367	-2
0.79733	-2
0.80100	-3
0.80467	-3
0.80833	-3
0.81200	-3
0.81567	-3
0.81933	-3
0.82300	-3
0.82667	-3
0.83033	-3
0.83400	-3
0.83767	-4
0.84133	-4
0.84500	-4
0.84867	-4
0.85233	-4
0.85600	-4
0.85967	-4
0.86333	-4
0.86700	-4
0.87067	-4
0.87433	-5
0.87800	-5
0.88167	-5
0.88533	-5
0.88900	-6
0.89267	-6
0.89633	-6
0.90000	-5
0.90367	-5
0.90733	-5
0.91100	-4
0.91467	-4
0.91833	-3
0.92200	-3
0.92567	-3
0.92933	-3
0.93300	-4
0.93667	-4
0.94033	-4
0.94400	-4
0.94767	-4
0.95133	-4
0.95500	-5
0.95867	-5
0.96233	-5
0.96600	-5
0.96967	-4
0.97333	-4
0.97700	-4
0.98067	-4
0.98433	-4
0.98800	-4
0.99167	-4
0.99533	-4
0.99900	-3
1.00267	-3
1.00633	-3
1.01000	-3
1.01367	-3
1.01733	-3
1.02100	-3
1.02467	-3
1.02833	-2
1.03200	-2
1.03567	-1
1.03933	-1
1.04300	-1
1.04667	-0
1.05033	-0
1.05400	-0
1.05767	-0
1.06133	-0
1.06500	-1
1.06867	-1
1.07233	-0
1.07600	-0
1.07967	-0
1.08333	-0
1.08700	-0
1.09067	0
1.09433	0
1.09800	0
1.10167	0
1.10533	0
1.10900	-0
1.11267	-0
1.11633	-0
1.12000	-0
1.12367	-0
1.12733	-0
1.13100	-0
1.13467	-1
1.13833	-1
1.14200	-2
1.14567	-2
1.14933	-3
1.15300	-4
1.15667	-4
1.16033	-5
1.16400	-5
1.16767	-6
1.17133	-6
1.17500	-5
1.17867	-5
1.18233	-5
1.18600	-5
1.18967	-5
1.19333	-5
1.19700	-5
1.20067	-5
1.20433	-5
1.20800	-4
1.21167	-4
1.21533	-4
1.21900	-4
1.22267	-4
1.22633	-5
1.23000	-5
1.23367	-5
1.23733	-5
1.24100	-5
1.24467	-5
1.24833	-5
1.25200	-5
1.25567	-5
1.25933	-5
1.26300	-5
1.26667	-5
1.27033	-5
1.27400	-5
1.27767	-4
1.28133	-4
1.28500	-5
1.28867	-5
1.29233	-5
1.29600	-5
1.29967	-4
1.30333	-5
1.30700	-5
1.31067	-5
1.31433	-5
1.31800	-5
1.32167	-5
1.32533	-5
1.32900	-5
1.33267	-5
1.33633	-5
1.34000	-4
1.34367	-4
1.34733	-4
1.35100	-4
1.35467	-4
1.35833	-4
1.36200	-4
1.36567	-4
1.36933	-4
1.37300	-4
1.37667	-4
1.38033	-4
1.38400	-4
1.38767	-4
1.39133	-3
1.39500	-3
1.39867	-3
1.40233	-3
1.40600	-3
1.40967	-3
1.41333	-3
1.41700	-3
1.42067	-2
1.42433	-2
1.42800	-2
1.43167	-2
1.43533	-1
1.43900	-1
1.44267	-1
1.44633	-1
1.45000	-1
1.45367	-1
1.45733	-1
1.46100	-1
1.46467	-1
1.46833	-1
1.47200	-1
1.47567	-2
1.47933	-2
1.48300	-3
1.48667	-4
1.49033	-4
1.49400	-4
1.49767	-4
1.50133	-5
1.50500	-5
1.50867	-5
1.51233	-5
1.51600	-5
1.51967	-5
1.52333	-5
1.52700	-5
1.53067	-5
1.53433	-6
1.53800	-6
1.54167	-7
1.54533	-7
1.54900	-8
1.55267	-8
1.55633	-8
1.56000	-8
1.56367	-8
1.56733	-8
1.57100	-8
1.57467	-8
1.57833	-7
1.58200	-7
1.58567	-7
1.58933	-7
1.59300	-8
1.59667	-8
1.60033	-8
1.60400	-8
1.60767	-9
1.61133	-10
1.61500	-11
1.61867	-13
1.62233	-15
1.62600	-17
1.62967	-20
1.63333	-23
1.63700	-26
1.64067	-28
1.64433	-32
1.64800	-35
1.65167	-38
1.65533	-42
1.65900	-46
1.66267	-50
1.66633	-55
1.67000	-59
1.67367	-64
1.67733	-69
1.68100	-74
1.68467	-78
1.68833	-82
1.69200	-86
1.69567	-89
1.69933	-91
1.70300	-93
1.70667	-95
1.71033	-96
1.71400	-97
1.71767	-98
1.72133	-99
1.72500	-100
1.72867	-101
1.73233	-101
1.73600	-101
1.73967	-101
1.74333	-101
1.74700	-102
1.75067	-102
1.75433	-103
1.75800	-103
1.76167	-104
1.76533	-105
1.76900	-105
1.77267	-105
1.77633	-105
1.78000	-105
1.78367	-104
1.78733	-104
1.79100	-103
1.79467	-103
1.79833	-102
1.80200	-102
1.80567	-102
1.80933	-102
1.81300	-103
1.81667	-103
1.82033	-104
1.82400	-105
1.82767	-105
1.83133	-106
1.83500	-106
1.83867	-106
1.84233	-105
1.84600	-105
1.84967	-104
1.85333	-104
1.85700	-103
1.86067	-103
1.86433	-103
1.86800	-103
1.87167	-103
1.87533	-104
1.87900	-104
1.88267	-104
1.88633	-105
1.89000	-105
1.89367	-106
1.89733	-106
1.90100	-106
1.90467	-105
1.90833	-104
1.91200	-104
1.91567	-103
1.91933	-102
1.92300	-102
1.92667	-102
1.93033	-101
1.93400	-101
1.93767	-101
1.94133	-101
1.94500	-100
1.94867	-100
1.95233	-100
1.95600	-101
1.95967	-101
1.96333	-101
1.96700	-101
1.97067	-101
1.97433	-101
1.97800	-100
1.98167	-100
1.98533	-100
1.98900	-100
1.99267	-100
1.99633	-100
2.00000	-100
2.00367	-99
2.00733	-99
2.01100	-99
2.01467	-99
2.01833	-98
2.02200	-98
2.02567	-97
2.02933	-97
2.03300	-96
2.03667	-96
2.04033	-95
2.04400	-95
2.04767	-95
2.05133	-94
2.05500	-94
2.05867	-94
2.06233	-94
2.06600	-94
2.06967	-94
2.07333	-93
2.07700	-93
2.08067	-93
2.08433	-92
2.08800	-92
2.09167	-91
2.09533	-91
2.09900	-90
2.10267	-89
2.10633	-89
2.11000	-88
2.11367	-87
2.11733	-87
2.12100	-86
2.12467	-86
2.12833	-86
2.13200	-86
2.13567	-86
2.13933	-86
2.14300	-86
2.14667	-86
2.15033	-85
2.15400	-85
2.15767	-86
2.16133	-86
2.16500	-86
2.16867	-87
2.17233	-87
2.17600	-87
2.17967	-86
2.18333	-86
2.18700	-85
2.19067	-85
2.19433	-85
2.19800	-85
2.20167	-84
2.20533	-84
2.20900	-83
2.21267	-82
2.21633	-82
2.22000	-82
2.22367	-82
2.22733	-82
2.23100	-83
2.23467	-83
2.23833	-83
2.24200	-83
2.24567	-82
2.24933	-81
2.25300	-80
2.25667	-79
2.26033	-78
2.26400	-77
2.26767	-77
2.27133	-77
2.27500	-76
2.27867	-76
2.28233	-76
2.28600	-75
2.28967	-75
2.29333	-75
2.29700	-75
2.30067	-75
2.30433	-74
2.30800	-74
2.31167	-74
2.31533	-74
2.31900	-74
2.32267	-73
2.32633	-73
2.33000	-73
2.33367	-73
2.33733	-74
2.34100	-74
2.34467	-74
2.34833	-73
2.35200	-72
2.35567	-71
2.35933	-69
2.36300	-68
2.36667	-66
2.37033	-63
2.37400	-61
2.37767	-58
2.38133	-54
2.38500	-50
2.38867	-46
2.39233	-42
2.39600	-38
2.39967	-33
2.40333	-29
2.40700	-25
2.41067	-21
2.41433	-17
2.41800	-14
2.42167	-11
2.42533	-8
2.42900	-5
2.43267	-3
2.43633	-2
2.44000	-1
2.44367	0
2.44733	1
2.45100	2
2.45467	4
2.45833	5
2.46200	6
2.46567	7
2.46933	8
2.47300	8
2.47667	8
2.48033	9
2.48400	9
2.48767	10
2.49133	10
2.49500	10
2.49867	11
2.50233	11
2.50600	11
2.50967	12
2.51333	12
2.51700	12
2.52067	12
2.52433	11
2.52800	11
2.53167	11
2.53533	11
2.53900	10
2.54267	10
2.54633	10
2.55000	9
2.55367	9
2.55733	10
2.56100	10
2.56467	11
2.56833	11
2.57200	12
2.57567	13
2.57933	13
2.58300	14
2.58667	14
2.59033	15
2.59400	15
2.59767	15
2.60133	15
2.60500	15
2.60867	15
2.61233	16
2.61600	16
2.61967	16
2.62333	17
2.62700	17
2.63067	17
2.63433	17
2.63800	17
2.64167	17
2.64533	17
2.64900	17
2.65267	17
2.65633	18
2.66000	18
2.66367	18
2.66733	19
2.67100	19
2.67467	20
2.67833	21
2.68200	21
2.68567	21
2.68933	22
2.69300	22
2.69667	22
2.70033	23
2.70400	23
2.70767	23
2.71133	23
2.71500	24
2.71867	24
2.72233	24
2.72600	24
2.72967	24
2.73333	24
2.73700	23
2.74067	23
2.74433	23
2.74800	23
2.75167	23
2.75533	23
2.75900	23
2.76267	23
2.76633	24
2.77000	24
2.77367	24
2.77733	24
2.78100	25
2.78467	25
2.78833	26
2.79200	26
2.79567	27
2.79933	27
2.80300	27
2.80667	28
2.81033	28
2.81400	29
2.81767	29
2.82133	29
2.82500	29
2.82867	29
2.83233	29
2.83600	28
2.83967	28
2.84333	27
2.84700	27
2.85067	26
2.85433	26
2.85800	25
2.86167	22
2.86533	18
2.86900	11
2.87267	1
2.87633	-13
2.88000	-32
2.88367	-56
2.88733	-85
2.89100	-120
2.89467	-160
2.89833	-204
2.90200	-254
2.90567	-307
2.90933	-363
2.91300	-423
2.91667	-484
2.92033	-547
2.92400	-610
2.92767	-673
2.93133	-734
2.93500	-793
2.93867	-848
2.94233	-900
2.94600	-952
2.94967	-1007
2.95333	-1057
2.95700	-1093
2.96067	-1107
2.96433	-1097
2.96800	-1062
2.97167	-1008
2.97533	-940
2.97900	-863
2.98267	-783
2.98633	-702
2.99000	-624
2.99367	-550
2.99733	-481
3.00100	-419
3.00467	-362
3.00833	-312
3.01200	-268
3.01567	-229
3.01933	-195
3.02300	-166
3.02667	-141
3.03033	-119
3.03400	-100
3.03767	-84
3.04133	-70
3.04500	-58
3.04867	-48
3.05233	-39
3.05600	-31
3.05967	-25
3.06333	-19
3.06700	-14
3.07067	-10
3.07433	-7
3.07800	-4
3.08167	-1
3.08533	1
3.08900	3
3.09267	5
3.09633	6
3.10000	8
3.10367	9
3.10733	10
3.11100	11
3.11467	12
3.11833	13
3.12200	14
3.12567	14
3.12933	14
3.13300	14
3.13667	15
3.14033	15
3.14400	16
3.14767	16
3.15133	16
3.15500	17
3.15867	17
3.16233	17
3.16600	18
3.16967	18
3.17333	19
3.17700	19
3.18067	19
3.18433	20
3.18800	20
3.19167	21
3.19533	21
3.19900	21
3.20267	21
3.20633	21
3.21000	21
3.21367	22
3.21733	22
3.22100	22
3.22467	23
3.22833	23
3.23200	23
3.23567	23
3.23933	23
3.24300	23
3.24667	23
3.25033	23
3.25400	23
3.25767	23
3.26133	23
3.26500	23
3.26867	23
3.27233	24
3.27600	24
3.27967	24
3.28333	24
3.28700	24
3.29067	24
3.29433	25
3.29800	25
3.30167	25
3.30533	24
3.30900	24
3.31267	24
3.31633	24
3.32000	24
3.32367	24
3.32733	23
3.33100	23
3.33467	23
3.33833	23
3.34200	22
3.34567	22
3.34933	22
3.35300	22
3.35667	22
3.36033	22
3.36400	22
3.36767	23
3.37133	23
3.37500	23
3.37867	24
3.38233	24
3.38600	24
3.38967	25
3.39333	25
3.39700	25
3.40067	25
3.40433	25
3.40800	25
3.41167	25
3.41533	25
3.41900	26
3.42267	26
3.42633	26
3.43000	27
3.43367	27
3.43733	27
3.44100	28
3.44467	28
3.44833	28
3.45200	28
3.45567	28
3.45933	28
3.46300	28
3.46667	28
3.47033	28
3.47400	28
3.47767	28
3.48133	28
3.48500	28
3.48867	28
3.49233	28
3.49600	28
3.49967	28
3.50333	28
3.50700	28
3.51067	28
3.51433	28
3.51800	28
3.52167	28
3.52533	28
3.52900	28
3.53267	28
3.53633	28
3.54000	29
3.54367	29
3.54733	28
3.55100	28
3.55467	28
3.55833	28
3.56200	28
3.56567	28
3.56933	28
3.57300	28
3.57667	28
3.58033	29
3.58400	29
3.58767	29
3.59133	28
3.59500	28
3.59867	28
3.60233	27
3.60600	27
3.60967	26
3.61333	26
3.61700	26
3.62067	26
3.62433	26
3.62800	26
3.63167	25
3.63533	25
3.63900	25
3.64267	25
3.64633	25
3.65000	26
3.65367	26
3.65733	26
3.66100	26
3.66467	26
3.66833	26
3.67200	27
3.67567	27
3.67933	27
3.68300	27
3.68667	27
3.69033	27
3.69400	27
3.69767	27
3.70133	27
3.70500	27
3.70867	27
3.71233	27
3.71600	27
3.71967	27
3.72333	27
3.72700	27
3.73067	27
3.73433	27
3.73800	27
3.74167	27
3.74533	27
3.74900	27
3.75267	27
3.75633	27
3.76000	27
3.76367	27
3.76733	27
3.77100	27
3.77467	27
3.77833	27
3.78200	27
3.78567	28
3.78933	28
3.79300	28
3.79667	28
3.80033	28
3.80400	28
3.80767	27
3.81133	27
3.81500	27
3.81867	26
3.82233	26
3.82600	26
3.82967	26
3.83333	25
3.83700	25
3.84067	25
3.84433	25
3.84800	25
3.85167	25
3.85533	25
3.85900	25
3.86267	25
3.86633	25
3.87000	25
3.87367	25
3.87733	25
3.88100	25
3.88467	25
3.88833	26
3.89200	26
3.89567	26
3.89933	26
3.90300	26
3.90667	26
3.91033	26
3.91400	27
3.91767	27
3.92133	27
3.92500	27
3.92867	27
3.93233	28
3.93600	28
3.93967	28
3.94333	28
3.94700	28
3.95067	28
3.95433	27
3.95800	27
3.96167	27
3.96533	27
3.96900	27
3.97267	27
3.97633	27
3.98000	26
3.98367	26
3.98733	26
3.99100	25
3.99467	25
3.99833	25

[Chromatogram (Ch3)]
Interval(msec)	220
# of Points	1091
Start Time(min)	0.002
End Time(min)	3.998
R.Time (min)	Intensity
0.00167	-0
0.00533	-1
0.00900	-1
0.01267	-0
0.01633	-2
0.02000	-2
0.02367	-2
0.02733	-2
0.03100	-1
0.03467	-4
0.03833	-6
0.04200	-7
0.04567	-7
0.04933	-6
0.05300	-4
0.05667	-3
0.06033	-4
0.06400	-4
0.06767	-2
0.07133	-1
0.07500	-0
0.07867	-0
0.08233	-1
0.08600	-1
0.08967	-1
0.09333	0
0.09700	-1
0.10067	-2
0.10433	-3
0.10800	-3
0.11167	-2
0.11533	-1
0.11900	0
0.12267	-1
0.12633	-3
0.13000	-3
0.13367	-3
0.13733	-0
0.14100	1
0.14467	2
0.14833	3
0.15200	4
0.15567	4
0.15933	2
0.16300	2
0.16667	5
0.17033	6
0.17400	6
0.17767	6
0.18133	3
0.18500	0
0.18867	-0
0.19233	-0
0.19600	2
0.19967	4
0.20333	4
0.20700	4
0.21067	2
0.21433	1
0.21800	0
0.22167	2
0.22533	5
0.22900	6
0.23267	6
0.23633	5
0.24000	3
0.24367	3
0.24733	2
0.25100	0
0.25467	0
0.25833	1
0.26200	1
0.26567	1
0.26933	3
0.27300	5
0.27667	8
0.28033	8
0.28400	7
0.28767	8
0.29133	8
0.29500	8
0.29867	8
0.30233	6
0.30600	4
0.30967	4
0.31333	4
0.31700	4
0.32067	3
0.32433	1
0.32800	-1
0.33167	-2
0.33533	-2
0.33900	0
0.34267	3
0.34633	4
0.35000	4
0.35367	5
0.35733	6
0.36100	7
0.36467	7
0.36833	6
0.37200	6
0.37567	7
0.37933	6
0.38300	5
0.38667	6
0.39033	7
0.39400	10
0.39767	11
0.40133	11
0.40500	11
0.40867	10
0.41233	11
0.41600	11
0.41967	10
0.42333	9
0.42700	7
0.43067	6
0.43433	7
0.43800	9
0.44167	9
0.44533	11
0.44900	10
0.45267	8
0.45633	6
0.46000	6
0.46367	6
0.46733	7
0.47100	8
0.47467	10
0.47833	10
0.48200	10
0.48567	8
0.48933	7
0.49300	7
0.49667	7
0.50033	9
0.50400	11
0.50767	11
0.51133	13
0.51500	13
0.51867	12
0.52233	10
0.52600	8
0.52967	6
0.53333	6
0.53700	6
0.54067	6
0.54433	6
0.54800	7
0.55167	8
0.55533	9
0.55900	9
0.56267	9
0.56633	10
0.57000	10
0.57367	10
0.57733	8
0.58100	8
0.58467	9
0.58833	11
0.59200	12
0.59567	12
0.59933	11
0.60300	12
0.60667	12
0.61033	11
0.61400	9
0.61767	8
0.62133	6
0.62500	7
0.62867	7
0.63233	7
0.63600	8
0.63967	11
0.64333	12
0.64700	13
0.65067	12
0.65433	11
0.65800	8
0.66167	7
0.66533	8
0.66900	9
0.67267	10
0.67633	11
0.68000	11
0.68367	12
0.68733	15
0.69100	15
0.69467	14
0.69833	14
0.70200	13
0.70567	13
0.70933	15
0.71300	15
0.71667	15
0.72033	14
0.72400	15
0.72767	15
0.73133	15
0.73500	15
0.73867	15
0.74233	14
0.74600	13
0.74967	11
0.75333	12
0.75700	13
0.76067	14
0.76433	15
0.76800	17
0.77167	17
0.77533	15
0.77900	15
0.78267	15
0.78633	15
0.79000	14
0.79367	15
0.79733	16
0.80100	16
0.80467	18
0.80833	19
0.81200	19
0.81567	18
0.81933	16
0.82300	16
0.82667	15
0.83033	13
0.83400	12
0.83767	15
0.84133	17
0.84500	17
0.84867	17
0.85233	18
0.85600	19
0.85967	19
0.86333	19
0.86700	20
0.87067	21
0.87433	21
0.87800	18
0.88167	14
0.88533	11
0.88900	12
0.89267	15
0.89633	18
0.90000	18
0.90367	19
0.90733	20
0.91100	21
0.91467	20
0.91833	19
0.92200	19
0.92567	19
0.92933	20
0.93300	20
0.93667	20
0.94033	20
0.94400	19
0.94767	17
0.95133	17
0.95500	18
0.95867	18
0.96233	20
0.96600	21
0.96967	19
0.97333	17
0.97700	17
0.98067	18
0.98433	18
0.98800	18
0.99167	21
0.99533	23
0.99900	24
1.00267	23
1.00633	21
1.01000	20
1.01367	20
1.01733	21
1.02100	20
1.02467	19
1.02833	20
1.03200	19
1.03567	19
1.03933	19
1.04300	19
1.04667	19
1.05033	18
1.05400	19
1.05767	19
1.06133	17
1.06500	16
1.06867	15
1.07233	16
1.07600	18
1.07967	20
1.08333	21
1.08700	20
1.09067	20
1.09433	21
1.09800	20
1.10167	21
1.10533	21
1.10900	20
1.11267	20
1.11633	20
1.12000	20
1.12367	21
1.12733	22
1.13100	24
1.13467	22
1.13833	21
1.14200	22
1.14567	23
1.14933	21
1.15300	20
1.15667	22
1.16033	23
1.16400	22
1.16767	20
1.17133	20
1.17500	21
1.17867	23
1.18233	23
1.18600	22
1.18967	21
1.19333	21
1.19700	22
1.20067	22
1.20433	21
1.20800	20
1.21167	21
1.21533	22
1.21900	24
1.22267	22
1.22633	22
1.23000	22
1.23367	19
1.23733	19
1.24100	21
1.24467	24
1.24833	26
1.25200	27
1.25567	28
1.25933	27
1.26300	27
1.26667	28
1.27033	25
1.27400	21
1.27767	21
1.28133	22
1.28500	22
1.28867	23
1.29233	24
1.29600	24
1.29967	23
1.30333	21
1.30700	22
1.31067	23
1.31433	25
1.31800	26
1.32167	28
1.32533	29
1.32900	28
1.33267	28
1.33633	27
1.34000	27
1.34367	27
1.34733	27
1.35100	28
1.35467	28
1.35833	27
1.36200	26
1.36567	26
1.36933	28
1.37300	29
1.37667	30
1.38033	29
1.38400	29
1.38767	31
1.39133	32
1.39500	32
1.39867	32
1.40233	31
1.40600	29
1.40967	28
1.41333	27
1.41700	28
1.42067	27
1.42433	27
1.42800	28
1.43167	29
1.43533	30
1.43900	28
1.44267	26
1.44633	27
1.45000	27
1.45367	28
1.45733	29
1.46100	29
1.46467	29
1.46833	30
1.47200	28
1.47567	27
1.47933	25
1.48300	26
1.48667	28
1.49033	27
1.49400	29
1.49767	28
1.50133	28
1.50500	27
1.50867	28
1.51233	28
1.51600	26
1.51967	27
1.52333	30
1.52700	31
1.53067	31
1.53433	30
1.53800	28
1.54167	27
1.54533	24
1.54900	23
1.55267	22
1.55633	22
1.56000	24
1.56367	25
1.56733	25
1.57100	23
1.57467	22
1.57833	24
1.58200	28
1.58567	30
1.58933	30
1.59300	29
1.59667	29
1.60033	31
1.60400	31
1.60767	31
1.61133	30
1.61500	30
1.61867	31
1.62233	31
1.62600	30
1.62967	29
1.63333	28
1.63700	30
1.64067	31
1.64433	31
1.64800	32
1.65167	32
1.65533	32
1.65900	32
1.66267	31
1.66633	33
1.67000	34
1.67367	35
1.67733	34
1.68100	34
1.68467	34
1.68833	34
1.69200	33
1.69567	32
1.69933	32
1.70300	34
1.70667	36
1.71033	37
1.71400	40
1.71767	42
1.72133	41
1.72500	39
1.72867	37
1.73233	37
1.73600	39
1.73967	41
1.74333	41
1.74700	41
1.75067	41
1.75433	40
1.75800	41
1.76167	43
1.76533	45
1.76900	44
1.77267	42
1.77633	40
1.78000	42
1.78367	43
1.78733	43
1.79100	42
1.79467	43
1.79833	45
1.80200	46
1.80567	46
1.80933	46
1.81300	45
1.81667	45
1.82033	44
1.82400	43
1.82767	44
1.83133	44
1.83500	45
1.83867	49
1.84233	52
1.84600	54
1.84967	53
1.85333	50
1.85700	47
1.86067	47
1.86433	48
1.86800	48
1.87167	49
1.87533	52
1.87900	54
1.88267	55
1.88633	55
1.89000	56
1.89367	59
1.89733	60
1.90100	60
1.90467	60
1.90833	60
1.91200	62
1.91567	62
1.91933	62
1.92300	64
1.92667	65
1.93033	65
1.93400	65
1.93767	66
1.94133	67
1.94500	70
1.94867	69
1.95233	67
1.95600	69
1.95967	72
1.96333	74
1.96700	73
1.97067	72
1.97433	71
1.97800	69
1.98167	71
1.98533	73
1.98900	74
1.99267	74
1.99633	74
2.00000	73
2.00367	75
2.00733	76
2.01100	75
2.01467	76
2.01833	78
2.02200	79
2.02567	81
2.02933	82
2.03300	83
2.03667	84
2.04033	87
2.04400	87
2.04767	87
2.05133	90
2.05500	94
2.05867	95
2.06233	94
2.06600	95
2.06967	94
2.07333	95
2.07700	96
2.08067	97
2.08433	96
2.08800	93
2.09167	93
2.09533	97
2.09900	101
2.10267	104
2.10633	105
2.11000	105
2.11367	103
2.11733	102
2.12100	102
2.12467	103
2.12833	105
2.13200	108
2.13567	111
2.13933	113
2.14300	113
2.14667	113
2.15033	112
2.15400	113
2.15767	115
2.16133	117
2.16500	118
2.16867	118
2.17233	118
2.17600	118
2.17967	118
2.18333	117
2.18700	118
2.19067	119
2.19433	121
2.19800	121
2.20167	121
2.20533	124
2.20900	126
2.21267	128
2.21633	128
2.22000	128
2.22367	127
2.22733	128
2.23100	128
2.23467	126
2.23833	125
2.24200	125
2.24567	125
2.24933	126
2.25300	127
2.25667	128
2.26033	129
2.26400	130
2.26767	129
2.27133	128
2.27500	129
2.27867	131
2.28233	132
2.28600	134
2.28967	134
2.29333	135
2.29700	134
2.30067	133
2.30433	132
2.30800	132
2.31167	133
2.31533	135
2.31900	136
2.32267	137
2.32633	138
2.33000	141
2.33367	142
2.33733	142
2.34100	145
2.34467	147
2.34833	146
2.35200	142
2.35567	141
2.35933	141
2.36300	141
2.36667	139
2.37033	140
2.37400	140
2.37767	140
2.38133	140
2.38500	138
2.38867	136
2.39233	136
2.39600	138
2.39967	139
2.40333	142
2.40700	146
2.41067	150
2.41433	153
2.41800	155
2.42167	156
2.42533	157
2.42900	157
2.43267	157
2.43633	157
2.44000	164
2.44367	227
2.44733	340
2.45100	444
2.45467	525
2.45833	565
2.46200	565
2.46567	545
2.46933	522
2.47300	504
2.47667	492
2.48033	485
2.48400	489
2.48767	502
2.49133	527
2.49500	568
2.49867	629
2.50233	701
2.50600	772
2.50967	830
2.51333	871
2.51700	896
2.52067	909
2.52433	913
2.52800	910
2.53167	909
2.53533	910
2.53900	913
2.54267	922
2.54633	936
2.55000	948
2.55367	960
2.55733	973
2.56100	986
2.56467	1002
2.56833	1017
2.57200	1030
2.57567	1038
2.57933	1039
2.58300	1033
2.58667	1022
2.59033	1007
2.59400	990
2.59767	970
2.60133	950
2.60500	933
2.60867	917
2.61233	903
2.61600	891
2.61967	880
2.62333	869
2.62700	859
2.63067	852
2.63433	841
2.63800	831
2.64167	824
2.64533	821
2.64900	817
2.65267	815
2.65633	817
2.66000	818
2.66367	818
2.66733	820
2.67100	822
2.67467	825
2.67833	826
2.68200	829
2.68567	835
2.68933	840
2.69300	846
2.69667	853
2.70033	859
2.70400	867
2.70767	873
2.71133	880
2.71500	885
2.71867	887
2.72233	889
2.72600	890
2.72967	890
2.73333	887
2.73700	882
2.74067	878
2.74433	874
2.74800	866
2.75167	858
2.75533	851
2.75900	843
2.76267	835
2.76633	826
2.77000	817
2.77367	809
2.77733	803
2.78100	797
2.78467	790
2.78833	783
2.79200	776
2.79567	770
2.79933	765
2.80300	763
2.80667	761
2.81033	761
2.81400	759
2.81767	755
2.82133	751
2.82500	750
2.82867	749
2.83233	751
2.83600	765
2.83967	801
2.84333	875
2.84700	1010
2.85067	1231
2.85433	1556
2.85800	1992
2.86167	2524
2.86533	3123
2.86900	3746
2.87267	4345
2.87633	4867
2.88000	5269
2.88367	5523
2.88733	5626
2.89100	5586
2.89467	5428
2.89833	5177
2.90200	4866
2.90567	4520
2.90933	4160
2.91300	3805
2.91667	3464
2.92033	3146
2.92400	2855
2.92767	2592
2.93133	2356
2.93500	2146
2.93867	1962
2.94233	1801
2.94600	1662
2.94967	1541
2.95333	1435
2.95700	1343
2.96067	1265
2.96433	1196
2.96800	1134
2.97167	1081
2.97533	1036
2.97900	999
2.98267	968
2.98633	940
2.99000	918
2.99367	898
2.99733	882
3.00100	868
3.00467	854
3.00833	845
3.01200	838
3.01567	831
3.01933	830
3.02300	829
3.02667	826
3.03033	822
3.03400	817
3.03767	815
3.04133	817
3.04500	817
3.04867	814
3.05233	811
3.05600	809
3.05967	808
3.06333	808
3.06700	806
3.07067	806
3.07433	807
3.07800	808
3.08167	808
3.08533	808
3.08900	807
3.09267	807
3.09633	806
3.10000	805
3.10367	805
3.10733	805
3.11100	803
3.11467	802
3.11833	802
3.12200	801
3.12567	800
3.12933	799
3.13300	798
3.13667	796
3.14033	796
3.14400	795
3.14767	794
3.15133	793
3.15500	792
3.15867	792
3.16233	791
3.16600	790
3.16967	790
3.17333	790
3.17700	788
3.18067	785
3.18433	785
3.18800	785
3.19167	784
3.19533	782
3.19900	781
3.20267	779
3.20633	776
3.21000	775
3.21367	776
3.21733	777
3.22100	777
3.22467	776
3.22833	776
3.23200	778
3.23567	779
3.23933	780
3.24300	777
3.24667	776
3.25033	774
3.25400	773
3.25767	772
3.26133	771
3.26500	769
3.26867	765
3.27233	763
3.27600	763
3.27967	763
3.28333	761
3.28700	760
3.29067	759
3.29433	757
3.29800	755
3.30167	752
3.30533	751
3.30900	750
3.31267	750
3.31633	748
3.32000	745
3.32367	743
3.32733	742
3.33100	741
3.33467	738
3.33833	736
3.34200	735
3.34567	735
3.34933	733
3.35300	729
3.35667	727
3.36033	725
3.36400	725
3.36767	724
3.37133	723
3.37500	721
3.37867	721
3.38233	718
3.38600	715
3.38967	711
3.39333	706
3.39700	701
3.40067	699
3.40433	698
3.40800	696
3.41167	694
3.41533	693
3.41900	692
3.42267	692
3.42633	692
3.43000	689
3.43367	686
3.43733	684
3.44100	681
3.44467	678
3.44833	675
3.45200	671
3.45567	668
3.45933	665
3.46300	662
3.46667	663
3.47033	665
3.47400	666
3.47767	665
3.48133	661
3.48500	657
3.48867	653
3.49233	651
3.49600	649
3.49967	647
3.50333	644
3.50700	642
3.51067	640
3.51433	637
3.51800	635
3.52167	634
3.52533	634
3.52900	634
3.53267	634
3.53633	631
3.54000	626
3.54367	623
3.54733	621
3.55100	618
3.55467	617
3.55833	615
3.56200	613
3.56567	610
3.56933	607
3.57300	602
3.57667	598
3.58033	595
3.58400	593
3.58767	594
3.59133	595
3.59500	593
3.59867	590
3.60233	587
3.60600	583
3.60967	580
3.61333	579
3.61700	578
3.62067	578
3.62433	577
3.62800	574
3.63167	570
3.63533	569
3.63900	568
3.64267	568
3.64633	567
3.65000	566
3.65367	563
3.65733	562
3.66100	560
3.66467	558
3.66833	555
3.67200	553
3.67567	550
3.67933	547
3.68300	545
3.68667	542
3.69033	539
3.69400	539
3.69767	537
3.70133	533
3.70500	532
3.70867	533
3.71233	532
3.71600	529
3.71967	523
3.72333	519
3.72700	517
3.73067	517
3.73433	520
3.73800	517
3.74167	513
3.74533	509
3.74900	507
3.75267	506
3.75633	503
3.76000	498
3.76367	494
3.76733	492
3.77100	488
3.77467	485
3.77833	486
3.78200	484
3.78567	482
3.78933	480
3.79300	477
3.79667	475
3.80033	474
3.80400	471
3.80767	470
3.81133	468
3.81500	468
3.81867	467
3.82233	466
3.82600	464
3.82967	463
3.83333	463
3.83700	462
3.84067	460
3.84433	458
3.84800	456
3.85167	452
3.85533	448
3.85900	445
3.86267	443
3.86633	441
3.87000	440
3.87367	439
3.87733	438
3.88100	435
3.88467	429
3.88833	426
3.89200	424
3.89567	422
3.89933	421
3.90300	420
3.90667	418
3.91033	416
3.91400	412
3.91767	409
3.92133	408
3.92500	407
3.92867	405
3.93233	402
3.93600	399
3.93967	399
3.94333	400
3.94700	397
3.95067	395
3.95433	393
3.95800	390
3.96167	391
3.96533	392
3.96900	393
3.97267	393
3.97633	390
3.98000	389
3.98367	387
3.98733	386
3.99100	385
3.99467	385
3.99833	383

[Status Trace (Column Oven Temperature)]
Interval(msec)	1000
# of Points	240
Start Time(min)	0.013
End Time(min)	3.996
Intensity Units	
Intensity Multiplier	1
R.Time (min)	Intensity
0.01315	35.02
0.02982	35.02
0.04648	35.01
0.06315	35.01
0.07982	35.03
0.09648	35.05
0.11315	35.05
0.12982	35.04
0.14648	35.04
0.16315	35.04
0.17982	35.05
0.19648	35.03
0.21315	35.03
0.22982	35.03
0.24648	35.03
0.26315	35.03
0.27982	35.03
0.29648	35.04
0.31315	35.03
0.32982	35.04
0.34648	35.03
0.36315	35.01
0.37982	35.00
0.39648	35.01
0.41315	35.02
0.42982	35.03
0.44648	35.04
0.46315	35.05
0.47982	35.06
0.49648	35.05
0.51315	35.03
0.52982	35.03
0.54648	35.02
0.56315	35.00
0.57982	35.01
0.59648	35.01
0.61315	35.01
0.62982	35.01
0.64648	35.00
0.66315	35.00
0.67982	35.00
0.69648	34.99
0.71315	34.98
0.72982	34.99
0.74648	34.99
0.76315	34.99
0.77982	34.99
0.79648	34.99
0.81315	34.99
0.82982	34.99
0.84648	35.00
0.86315	35.00
0.87982	35.01
0.89648	35.01
0.91315	35.01
0.92982	35.02
0.94648	35.01
0.96315	35.03
0.97982	35.03
0.99648	35.03
1.01315	35.02
1.02982	35.01
1.04648	34.99
1.06315	34.99
1.07982	34.96
1.09648	34.95
1.11315	34.95
1.12982	34.95
1.14648	34.96
1.16315	34.97
1.17982	34.97
1.19648	34.98
1.21315	34.99
1.22982	34.99
1.24648	34.99
1.26315	35.00
1.27982	35.00
1.29648	35.01
1.31315	35.02
1.32982	35.02
1.34648	35.02
1.36315	35.03
1.37982	35.03
1.39648	35.01
1.41315	35.00
1.42982	34.98
1.44648	34.96
1.46315	34.96
1.47982	34.96
1.49648	34.97
1.51315	34.96
1.52982	34.98
1.54648	34.99
1.56315	34.99
1.57982	35.01
1.59648	35.04
1.61315	35.09
1.62982	35.22
1.64648	35.40
1.66315	35.68
1.67982	36.03
1.69648	36.39
1.71315	36.74
1.72982	37.08
1.74648	37.42
1.76315	37.77
1.77982	38.10
1.79648	38.42
1.81315	38.75
1.82982	39.09
1.84648	39.40
1.86315	39.73
1.87982	40.06
1.89648	40.40
1.91315	40.72
1.92982	41.06
1.94648	41.39
1.96315	41.72
1.97982	42.04
1.99648	42.37
2.01315	42.68
2.02982	43.02
2.04648	43.32
2.06315	43.65
2.07982	43.97
2.09648	44.30
2.11315	44.62
2.12982	44.96
2.14648	45.28
2.16315	45.62
2.17982	45.93
2.19648	46.24
2.21315	46.56
2.22982	46.93
2.24648	47.26
2.26315	47.58
2.27982	47.91
2.29648	48.24
2.31315	48.57
2.32982	48.92
2.34648	49.22
2.36315	49.50
2.37982	49.64
2.39648	49.66
2.41315	49.67
2.42982	49.66
2.44648	49.67
2.46315	49.66
2.47982	49.66
2.49648	49.70
2.51315	49.71
2.52982	49.72
2.54648	49.73
2.56315	49.74
2.57982	49.75
2.59648	49.77
2.61315	49.78
2.62982	49.79
2.64648	49.81
2.66315	49.82
2.67982	49.82
2.69648	49.84
2.71315	49.83
2.72982	49.85
2.74648	49.87
2.76315	49.87
2.77982	49.88
2.79648	49.87
2.81315	49.84
2.82982	49.85
2.84648	49.86
2.86315	49.88
2.87982	49.89
2.89648	49.90
2.91315	49.91
2.92982	49.92
2.94648	49.92
2.96315	49.92
2.97982	49.92
2.99648	49.93
3.01315	49.94
3.02982	49.97
3.04648	49.99
3.06315	50.00
3.07982	50.02
3.09648	50.03
3.11315	50.03
3.12982	50.03
3.14648	50.04
3.16315	50.05
3.17982	50.05
3.19648	50.06
3.21315	50.05
3.22982	50.04
3.24648	50.05
3.26315	50.05
3.27982	50.05
3.29648	50.05
3.31315	50.06
3.32982	50.08
3.34648	50.10
3.36315	50.11
3.37982	50.11
3.39648	50.11
3.41315	50.11
3.42982	50.09
3.44648	50.09
3.46315	50.09
3.47982	50.08
3.49648	50.08
3.51315	50.07
3.52982	50.06
3.54648	50.05
3.56315	50.04
3.57982	50.03
3.59648	50.03
3.61315	50.05
3.62982	50.05
3.64648	50.05
3.66315	50.06
3.67982	50.06
3.69648	50.05
3.71315	50.05
3.72982	50.05
3.74648	50.03
3.76315	50.03
3.77982	50.03
3.79648	50.02
3.81315	50.04
3.82982	50.05
3.84648	50.05
3.86315	50.06
3.87982	50.06
3.89648	50.05
3.91315	50.05
3.92982	50.03
3.94648	50.03
3.96315	50.03
3.97982	50.04
3.99648	50.05

[Status Trace (Injection Unit Temperature)]
Interval(msec)	1000
# of Points	240
Start Time(min)	0.013
End Time(min)	3.996
Intensity Units	
Intensity Multiplier	1
R.Time (min)	Intensity
0.01315	99.98
0.02982	99.98
0.04648	99.97
0.06315	99.98
0.07982	99.98
0.09648	99.97
0.11315	99.98
0.12982	99.98
0.14648	99.98
0.16315	99.98
0.17982	99.98
0.19648	99.98
0.21315	99.98
0.22982	99.98
0.24648	99.98
0.26315	99.98
0.27982	99.98
0.29648	99.98
0.31315	99.98
0.32982	99.98
0.34648	99.98
0.36315	99.98
0.37982	99.98
0.39648	99.99
0.41315	99.99
0.42982	99.98
0.44648	99.98
0.46315	99.98
0.47982	99.98
0.49648	99.97
0.51315	99.98
0.52982	99.98
0.54648	99.98
0.56315	99.98
0.57982	99.98
0.59648	99.99
0.61315	99.98
0.62982	99.99
0.64648	99.98
0.66315	99.98
0.67982	99.98
0.69648	99.98
0.71315	99.98
0.72982	99.98
0.74648	99.98
0.76315	99.98
0.77982	99.98
0.79648	99.98
0.81315	99.98
0.82982	99.98
0.84648	99.98
0.86315	99.98
0.87982	99.98
0.89648	99.98
0.91315	99.98
0.92982	99.98
0.94648	99.98
0.96315	99.98
0.97982	99.98
0.99648	99.98
1.01315	99.98
1.02982	99.98
1.04648	99.98
1.06315	99.98
1.07982	99.98
1.09648	99.98
1.11315	99.98
1.12982	99.98
1.14648	99.98
1.16315	99.98
1.17982	99.98
1.19648	99.98
1.21315	99.98
1.22982	99.98
1.24648	99.98
1.26315	99.98
1.27982	99.98
1.29648	99.99
1.31315	99.99
1.32982	99.97
1.34648	99.98
1.36315	99.98
1.37982	99.98
1.39648	99.98
1.41315	99.99
1.42982	99.99
1.44648	99.98
1.46315	99.98
1.47982	99.98
1.49648	99.99
1.51315	99.98
1.52982	99.98
1.54648	99.99
1.56315	99.99
1.57982	99.99
1.59648	99.99
1.61315	99.99
1.62982	99.99
1.64648	99.99
1.66315	99.99
1.67982	99.99
1.69648	99.99
1.71315	99.99
1.72982	99.99
1.74648	99.99
1.76315	99.99
1.77982	99.99
1.79648	99.99
1.81315	99.99
1.82982	99.99
1.84648	99.99
1.86315	99.99
1.87982	99.99
1.89648	99.99
1.91315	99.99
1.92982	99.99
1.94648	99.99
1.96315	99.98
1.97982	99.99
1.99648	99.98
2.01315	99.98
2.02982	99.98
2.04648	99.99
2.06315	99.98
2.07982	99.98
2.09648	99.98
2.11315	99.98
2.12982	99.98
2.14648	99.98
2.16315	99.97
2.17982	99.97
2.19648	99.98
2.21315	99.97
2.22982	99.97
2.24648	99.98
2.26315	99.98
2.27982	99.97
2.29648	99.96
2.31315	99.97
2.32982	99.97
2.34648	99.97
2.36315	99.97
2.37982	99.97
2.39648	99.97
2.41315	99.97
2.42982	99.97
2.44648	99.97
2.46315	99.97
2.47982	99.97
2.49648	99.97
2.51315	99.97
2.52982	99.97
2.54648	99.97
2.56315	99.97
2.57982	99.97
2.59648	99.97
2.61315	99.97
2.62982	99.97
2.64648	99.97
2.66315	99.98
2.67982	99.97
2.69648	99.98
2.71315	99.98
2.72982	99.98
2.74648	99.98
2.76315	99.98
2.77982	99.99
2.79648	99.99
2.81315	99.99
2.82982	99.99
2.84648	99.99
2.86315	99.99
2.87982	100.00
2.89648	99.99
2.91315	100.00
2.92982	100.00
2.94648	100.00
2.96315	100.01
2.97982	100.00
2.99648	100.01
3.01315	100.01
3.02982	100.01
3.04648	100.01
3.06315	100.01
3.07982	100.02
3.09648	100.02
3.11315	100.02
3.12982	100.02
3.14648	100.02
3.16315	100.02
3.17982	100.02
3.19648	100.02
3.21315	100.01
3.22982	100.02
3.24648	100.02
3.26315	100.03
3.27982	100.03
3.29648	100.02
3.31315	100.03
3.32982	100.03
3.34648	100.03
3.36315	100.03
3.37982	100.03
3.39648	100.03
3.41315	100.03
3.42982	100.03
3.44648	100.04
3.46315	100.03
3.47982	100.04
3.49648	100.04
3.51315	100.04
3.52982	100.04
3.54648	100.04
3.56315	100.04
3.57982	100.03
3.59648	100.04
3.61315	100.04
3.62982	100.04
3.64648	100.04
3.66315	100.04
3.67982	100.04
3.69648	100.04
3.71315	100.04
3.72982	100.05
3.74648	100.05
3.76315	100.05
3.77982	100.05
3.79648	100.05
3.81315	100.05
3.82982	100.05
3.84648	100.05
3.86315	100.06
3.87982	100.05
3.89648	100.04
3.91315	100.06
3.92982	100.06
3.94648	100.05
3.96315	100.06
3.97982	100.06
3.99648	100.06

[Status Trace (Carrier Gas Pressure)]
Interval(msec)	1000
# of Points	240
Start Time(min)	0.013
End Time(min)	3.996
Intensity Units	
Intensity Multiplier	1
R.Time (min)	Intensity
0.01315	57.95
0.02982	55.21
0.04648	57.72
0.06315	59.75
0.07982	58.83
0.09648	57.99
0.11315	57.99
0.12982	58.01
0.14648	58.01
0.16315	58.01
0.17982	58.00
0.19648	58.00
0.21315	58.00
0.22982	58.00
0.24648	58.00
0.26315	58.00
0.27982	58.00
0.29648	58.00
0.31315	58.00
0.32982	58.00
0.34648	58.00
0.36315	58.00
0.37982	58.00
0.39648	58.00
0.41315	58.00
0.42982	58.00
0.44648	58.00
0.46315	58.00
0.47982	58.00
0.49648	58.00
0.51315	58.00
0.52982	58.00
0.54648	58.00
0.56315	58.00
0.57982	58.00
0.59648	58.00
0.61315	58.00
0.62982	58.00
0.64648	58.00
0.66315	58.00
0.67982	58.00
0.69648	58.00
0.71315	58.00
0.72982	58.00
0.74648	58.00
0.76315	58.00
0.77982	58.00
0.79648	58.00
0.81315	58.00
0.82982	58.00
0.84648	58.00
0.86315	58.00
0.87982	58.00
0.89648	58.00
0.91315	58.00
0.92982	58.00
0.94648	58.00
0.96315	58.00
0.97982	58.00
0.99648	58.00
1.01315	58.00
1.02982	58.00
1.04648	58.00
1.06315	58.00
1.07982	58.00
1.09648	58.00
1.11315	58.00
1.12982	58.00
1.14648	58.00
1.16315	58.00
1.17982	58.00
1.19648	58.00
1.21315	58.00
1.22982	58.00
1.24648	58.00
1.26315	58.00
1.27982	58.00
1.29648	58.00
1.31315	58.00
1.32982	58.00
1.34648	58.00
1.36315	58.00
1.37982	58.00
1.39648	58.00
1.41315	58.00
1.42982	58.00
1.44648	58.00
1.46315	58.00
1.47982	58.00
1.49648	58.00
1.51315	58.00
1.52982	58.00
1.54648	58.00
1.56315	58.00
1.57982	58.00
1.59648	58.00
1.61315	58.00
1.62982	58.00
1.64648	58.00
1.66315	58.01
1.67982	58.01
1.69648	58.00
1.71315	58.00
1.72982	58.00
1.74648	58.00
1.76315	58.00
1.77982	58.00
1.79648	58.00
1.81315	58.00
1.82982	58.00
1.84648	58.00
1.86315	58.00
1.87982	58.00
1.89648	58.00
1.91315	58.00
1.92982	58.00
1.94648	58.00
1.96315	58.00
1.97982	58.00
1.99648	58.00
2.01315	58.00
2.02982	58.00
2.04648	58.00
2.06315	58.00
2.07982	58.00
2.09648	58.00
2.11315	58.00
2.12982	58.00
2.14648	58.00
2.16315	58.00
2.17982	58.00
2.19648	58.00
2.21315	58.00
2.22982	58.00
2.24648	58.00
2.26315	58.00
2.27982	58.00
2.29648	58.00
2.31315	58.00
2.32982	58.00
2.34648	58.00
2.36315	58.00
2.37982	57.99
2.39648	57.99
2.41315	58.00
2.42982	58.00
2.44648	58.00
2.46315	58.00
2.47982	58.00
2.49648	58.00
2.51315	57.99
2.52982	57.99
2.54648	58.00
2.56315	58.00
2.57982	58.00
2.59648	58.00
2.61315	58.00
2.62982	58.00
2.64648	58.00
2.66315	58.00
2.67982	58.00
2.69648	58.00
2.71315	58.00
2.72982	58.00
2.74648	58.00
2.76315	58.00
2.77982	58.00
2.79648	58.00
2.81315	58.00
2.82982	58.00
2.84648	58.00
2.86315	58.00
2.87982	58.00
2.89648	58.00
2.91315	58.00
2.92982	58.00
2.94648	58.00
2.96315	58.00
2.97982	58.00
2.99648	58.00
3.01315	58.00
3.02982	58.00
3.04648	58.00
3.06315	58.00
3.07982	58.00
3.09648	58.00
3.11315	58.00
3.12982	58.00
3.14648	58.00
3.16315	58.00
3.17982	58.00
3.19648	58.00
3.21315	58.00
3.22982	58.00
3.24648	58.00
3.26315	58.00
3.27982	58.00
3.29648	58.00
3.31315	58.00
3.32982	58.00
3.34648	58.00
3.36315	58.00
3.37982	58.00
3.39648	58.00
3.41315	58.00
3.42982	58.00
3.44648	58.00
3.46315	58.00
3.47982	58.00
3.49648	58.00
3.51315	58.00
3.52982	58.00
3.54648	58.00
3.56315	58.00
3.57982	58.00
3.59648	58.00
3.61315	58.00
3.62982	58.00
3.64648	58.00
3.66315	58.00
3.67982	58.00
3.69648	58.00
3.71315	58.00
3.72982	58.00
3.74648	58.00
3.76315	58.00
3.77982	58.00
3.79648	58.00
3.81315	58.00
3.82982	58.00
3.84648	58.00
3.86315	58.00
3.87982	58.00
3.89648	58.00
3.91315	58.00
3.92982	58.00
3.94648	58.00
3.96315	58.00
3.97982	58.00
3.99648	58.00

[Status Trace (Carrier Gas Flow)]
Interval(msec)	1000
# of Points	240
Start Time(min)	0.013
End Time(min)	3.996
Intensity Units	
Intensity Multiplier	1
R.Time (min)	Intensity
0.01315	34.68
0.02982	34.54
0.04648	34.55
0.06315	34.53
0.07982	34.50
0.09648	34.52
0.11315	34.51
0.12982	34.52
0.14648	34.52
0.16315	34.52
0.17982	34.52
0.19648	34.52
0.21315	34.52
0.22982	34.52
0.24648	34.52
0.26315	34.52
0.27982	34.52
0.29648	34.52
0.31315	34.52
0.32982	34.52
0.34648	34.52
0.36315	34.52
0.37982	34.52
0.39648	34.52
0.41315	34.52
0.42982	34.52
0.44648	34.52
0.46315	34.52
0.47982	34.52
0.49648	34.52
0.51315	34.52
0.52982	34.52
0.54648	34.52
0.56315	34.52
0.57982	34.52
0.59648	34.52
0.61315	34.52
0.62982	34.52
0.64648	34.52
0.66315	34.52
0.67982	34.52
0.69648	34.52
0.71315	34.52
0.72982	34.52
0.74648	34.52
0.76315	34.52
0.77982	34.52
0.79648	34.52
0.81315	34.52
0.82982	34.52
0.84648	34.52
0.86315	34.52
0.87982	34.52
0.89648	34.52
0.91315	34.51
0.92982	34.52
0.94648	34.52
0.96315	34.52
0.97982	34.52
0.99648	34.52
1.01315	34.52
1.02982	34.52
1.04648	34.52
1.06315	34.52
1.07982	34.52
1.09648	34.52
1.11315	34.52
1.12982	34.52
1.14648	34.52
1.16315	34.51
1.17982	34.52
1.19648	34.51
1.21315	34.51
1.22982	34.52
1.24648	34.52
1.26315	34.52
1.27982	34.52
1.29648	34.53
1.31315	34.52
1.32982	34.52
1.34648	34.52
1.36315	34.52
1.37982	34.52
1.39648	34.52
1.41315	34.52
1.42982	34.52
1.44648	34.52
1.46315	34.52
1.47982	34.53
1.49648	34.51
1.51315	34.52
1.52982	34.52
1.54648	34.52
1.56315	34.51
1.57982	34.52
1.59648	34.52
1.61315	34.53
1.62982	34.52
1.64648	34.52
1.66315	34.52
1.67982	34.52
1.69648	34.52
1.71315	34.52
1.72982	34.52
1.74648	34.52
1.76315	34.52
1.77982	34.52
1.79648	34.51
1.81315	34.52
1.82982	34.52
1.84648	34.52
1.86315	34.52
1.87982	34.52
1.89648	34.52
1.91315	34.52
1.92982	34.52
1.94648	34.52
1.96315	34.52
1.97982	34.52
1.99648	34.52
2.01315	34.52
2.02982	34.52
2.04648	34.52
2.06315	34.51
2.07982	34.51
2.09648	34.52
2.11315	34.52
2.12982	34.52
2.14648	34.52
2.16315	34.52
2.17982	34.52
2.19648	34.52
2.21315	34.52
2.22982	34.52
2.24648	34.51
2.26315	34.52
2.27982	34.52
2.29648	34.51
2.31315	34.52
2.32982	34.52
2.34648	34.51
2.36315	34.51
2.37982	34.52
2.39648	34.52
2.41315	34.52
2.42982	34.51
2.44648	34.52
2.46315	34.52
2.47982	34.52
2.49648	34.52
2.51315	34.52
2.52982	34.52
2.54648	34.52
2.56315	34.52
2.57982	34.51
2.59648	34.52
2.61315	34.52
2.62982	34.53
2.64648	34.51
2.66315	34.52
2.67982	34.52
2.69648	34.52
2.71315	34.52
2.72982	34.52
2.74648	34.52
2.76315	34.51
2.77982	34.52
2.79648	34.52
2.81315	34.52
2.82982	34.52
2.84648	34.52
2.86315	34.52
2.87982	34.53
2.89648	34.51
2.91315	34.52
2.92982	34.52
2.94648	34.52
2.96315	34.52
2.97982	34.52
2.99648	34.52
3.01315	34.52
3.02982	34.52
3.04648	34.52
3.06315	34.52
3.07982	34.52
3.09648	34.52
3.11315	34.52
3.12982	34.52
3.14648	34.52
3.16315	34.52
3.17982	34.52
3.19648	34.52
3.21315	34.52
3.22982	34.53
3.24648	34.52
3.26315	34.52
3.27982	34.52
3.29648	34.52
3.31315	34.52
3.32982	34.52
3.34648	34.51
3.36315	34.52
3.37982	34.52
3.39648	34.51
3.41315	34.52
3.42982	34.52
3.44648	34.52
3.46315	34.52
3.47982	34.52
3.49648	34.52
3.51315	34.52
3.52982	34.52
3.54648	34.52
3.56315	34.52
3.57982	34.52
3.59648	34.53
3.61315	34.52
3.62982	34.52
3.64648	34.52
3.66315	34.52
3.67982	34.52
3.69648	34.52
3.71315	34.52
3.72982	34.52
3.74648	34.52
3.76315	34.52
3.77982	34.52
3.79648	34.52
3.81315	34.52
3.82982	34.51
3.84648	34.52
3.86315	34.52
3.87982	34.52
3.89648	34.52
3.91315	34.52
3.92982	34.52
3.94648	34.52
3.96315	34.52
3.97982	34.52
3.99648	34.52

[Status Trace (Column Flow)]
Interval(msec)	1000
# of Points	240
Start Time(min)	0.013
End Time(min)	3.996
Intensity Units	
Intensity Multiplier	1
R.Time (min)	Intensity
0.01315	5.49
0.02982	5.17
0.04648	5.46
0.06315	5.70
0.07982	5.59
0.09648	5.49
0.11315	5.49
0.12982	5.49
0.14648	5.49
0.16315	5.49
0.17982	5.49
0.19648	5.49
0.21315	5.49
0.22982	5.49
0.24648	5.49
0.26315	5.49
0.27982	5.49
0.29648	5.49
0.31315	5.49
0.32982	5.49
0.34648	5.49
0.36315	5.49
0.37982	5.49
0.39648	5.49
0.41315	5.49
0.42982	5.49
0.44648	5.49
0.46315	5.49
0.47982	5.49
0.49648	5.49
0.51315	5.49
0.52982	5.49
0.54648	5.49
0.56315	5.49
0.57982	5.49
0.59648	5.49
0.61315	5.49
0.62982	5.49
0.64648	5.49
0.66315	5.49
0.67982	5.49
0.69648	5.49
0.71315	5.49
0.72982	5.49
0.74648	5.49
0.76315	5.49
0.77982	5.49
0.79648	5.49
0.81315	5.49
0.82982	5.49
0.84648	5.49
0.86315	5.49
0.87982	5.49
0.89648	5.49
0.91315	5.49
0.92982	5.49
0.94648	5.49
0.96315	5.49
0.97982	5.49
0.99648	5.49
1.01315	5.49
1.02982	5.49
1.04648	5.49
1.06315	5.49
1.07982	5.50
1.09648	5.50
1.11315	5.50
1.12982	5.50
1.14648	5.50
1.16315	5.50
1.17982	5.50
1.19648	5.50
1.21315	5.49
1.22982	5.49
1.24648	5.49
1.26315	5.49
1.27982	5.49
1.29648	5.49
1.31315	5.49
1.32982	5.49
1.34648	5.49
1.36315	5.49
1.37982	5.49
1.39648	5.49
1.41315	5.49
1.42982	5.49
1.44648	5.50
1.46315	5.50
1.47982	5.50
1.49648	5.50
1.51315	5.50
1.52982	5.49
1.54648	5.49
1.56315	5.49
1.57982	5.49
1.59648	5.49
1.61315	5.49
1.62982	5.49
1.64648	5.48
1.66315	5.47
1.67982	5.46
1.69648	5.45
1.71315	5.44
1.72982	5.43
1.74648	5.42
1.76315	5.41
1.77982	5.40
1.79648	5.39
1.81315	5.38
1.82982	5.37
1.84648	5.36
1.86315	5.35
1.87982	5.34
1.89648	5.33
1.91315	5.32
1.92982	5.31
1.94648	5.30
1.96315	5.29
1.97982	5.28
1.99648	5.27
2.01315	5.26
2.02982	5.25
2.04648	5.24
2.06315	5.23
2.07982	5.22
2.09648	5.21
2.11315	5.20
2.12982	5.20
2.14648	5.19
2.16315	5.18
2.17982	5.17
2.19648	5.16
2.21315	5.15
2.22982	5.14
2.24648	5.13
2.26315	5.12
2.27982	5.11
2.29648	5.10
2.31315	5.09
2.32982	5.08
2.34648	5.07
2.36315	5.07
2.37982	5.06
2.39648	5.06
2.41315	5.06
2.42982	5.06
2.44648	5.06
2.46315	5.06
2.47982	5.06
2.49648	5.06
2.51315	5.06
2.52982	5.06
2.54648	5.06
2.56315	5.06
2.57982	5.06
2.59648	5.06
2.61315	5.06
2.62982	5.06
2.64648	5.06
2.66315	5.06
2.67982	5.06
2.69648	5.06
2.71315	5.06
2.72982	5.06
2.74648	5.06
2.76315	5.06
2.77982	5.06
2.79648	5.06
2.81315	5.06
2.82982	5.06
2.84648	5.06
2.86315	5.06
2.87982	5.06
2.89648	5.06
2.91315	5.06
2.92982	5.06
2.94648	5.06
2.96315	5.06
2.97982	5.06
2.99648	5.06
3.01315	5.05
3.02982	5.05
3.04648	5.05
3.06315	5.05
3.07982	5.05
3.09648	5.05
3.11315	5.05
3.12982	5.05
3.14648	5.05
3.16315	5.05
3.17982	5.05
3.19648	5.05
3.21315	5.05
3.22982	5.05
3.24648	5.05
3.26315	5.05
3.27982	5.05
3.29648	5.05
3.31315	5.05
3.32982	5.05
3.34648	5.05
3.36315	5.05
3.37982	5.05
3.39648	5.05
3.41315	5.05
3.42982	5.05
3.44648	5.05
3.46315	5.05
3.47982	5.05
3.49648	5.05
3.51315	5.05
3.52982	5.05
3.54648	5.05
3.56315	5.05
3.57982	5.05
3.59648	5.05
3.61315	5.05
3.62982	5.05
3.64648	5.05
3.66315	5.05
3.67982	5.05
3.69648	5.05
3.71315	5.05
3.72982	5.05
3.74648	5.05
3.76315	5.05
3.77982	5.05
3.79648	5.05
3.81315	5.05
3.82982	5.05
3.84648	5.05
3.86315	5.05
3.87982	5.05
3.89648	5.05
3.91315	5.05
3.92982	5.05
3.94648	5.05
3.96315	5.05
3.97982	5.05
3.99648	5.05

[Status Trace (Linear Velocity)]
Interval(msec)	1000
# of Points	240
Start Time(min)	0.013
End Time(min)	3.996
Intensity Units	
Intensity Multiplier	1
R.Time (min)	Intensity
0.01315	38.98
0.02982	37.18
0.04648	38.83
0.06315	40.15
0.07982	39.55
0.09648	39.00
0.11315	39.00
0.12982	39.01
0.14648	39.01
0.16315	39.01
0.17982	39.01
0.19648	39.01
0.21315	39.01
0.22982	39.01
0.24648	39.01
0.26315	39.01
0.27982	39.01
0.29648	39.01
0.31315	39.01
0.32982	39.01
0.34648	39.01
0.36315	39.01
0.37982	39.01
0.39648	39.01
0.41315	39.01
0.42982	39.01
0.44648	39.01
0.46315	39.01
0.47982	39.00
0.49648	39.01
0.51315	39.01
0.52982	39.01
0.54648	39.01
0.56315	39.01
0.57982	39.01
0.59648	39.01
0.61315	39.01
0.62982	39.01
0.64648	39.01
0.66315	39.01
0.67982	39.01
0.69648	39.01
0.71315	39.01
0.72982	39.01
0.74648	39.01
0.76315	39.01
0.77982	39.01
0.79648	39.01
0.81315	39.01
0.82982	39.01
0.84648	39.01
0.86315	39.01
0.87982	39.01
0.89648	39.01
0.91315	39.01
0.92982	39.01
0.94648	39.01
0.96315	39.01
0.97982	39.01
0.99648	39.01
1.01315	39.01
1.02982	39.01
1.04648	39.01
1.06315	39.01
1.07982	39.01
1.09648	39.01
1.11315	39.02
1.12982	39.01
1.14648	39.01
1.16315	39.01
1.17982	39.01
1.19648	39.01
1.21315	39.01
1.22982	39.01
1.24648	39.01
1.26315	39.01
1.27982	39.01
1.29648	39.01
1.31315	39.01
1.32982	39.01
1.34648	39.01
1.36315	39.01
1.37982	39.01
1.39648	39.01
1.41315	39.01
1.42982	39.01
1.44648	39.01
1.46315	39.01
1.47982	39.01
1.49648	39.01
1.51315	39.01
1.52982	39.01
1.54648	39.01
1.56315	39.01
1.57982	39.01
1.59648	39.01
1.61315	39.00
1.62982	38.99
1.64648	38.97
1.66315	38.95
1.67982	38.92
1.69648	38.88
1.71315	38.84
1.72982	38.81
1.74648	38.78
1.76315	38.75
1.77982	38.71
1.79648	38.68
1.81315	38.65
1.82982	38.62
1.84648	38.59
1.86315	38.56
1.87982	38.53
1.89648	38.50
1.91315	38.47
1.92982	38.44
1.94648	38.41
1.96315	38.38
1.97982	38.35
1.99648	38.31
2.01315	38.29
2.02982	38.26
2.04648	38.23
2.06315	38.20
2.07982	38.17
2.09648	38.14
2.11315	38.11
2.12982	38.08
2.14648	38.05
2.16315	38.02
2.17982	37.99
2.19648	37.96
2.21315	37.93
2.22982	37.90
2.24648	37.87
2.26315	37.84
2.27982	37.81
2.29648	37.78
2.31315	37.75
2.32982	37.72
2.34648	37.70
2.36315	37.67
2.37982	37.65
2.39648	37.65
2.41315	37.65
2.42982	37.66
2.44648	37.66
2.46315	37.66
2.47982	37.66
2.49648	37.65
2.51315	37.65
2.52982	37.64
2.54648	37.65
2.56315	37.65
2.57982	37.65
2.59648	37.65
2.61315	37.65
2.62982	37.64
2.64648	37.64
2.66315	37.64
2.67982	37.64
2.69648	37.64
2.71315	37.64
2.72982	37.64
2.74648	37.64
2.76315	37.64
2.77982	37.64
2.79648	37.64
2.81315	37.64
2.82982	37.64
2.84648	37.64
2.86315	37.64
2.87982	37.64
2.89648	37.63
2.91315	37.63
2.92982	37.63
2.94648	37.63
2.96315	37.63
2.97982	37.63
2.99648	37.63
3.01315	37.63
3.02982	37.63
3.04648	37.63
3.06315	37.63
3.07982	37.62
3.09648	37.62
3.11315	37.62
3.12982	37.62
3.14648	37.62
3.16315	37.62
3.17982	37.62
3.19648	37.62
3.21315	37.62
3.22982	37.62
3.24648	37.62
3.26315	37.62
3.27982	37.62
3.29648	37.62
3.31315	37.62
3.32982	37.62
3.34648	37.62
3.36315	37.62
3.37982	37.62
3.39648	37.62
3.41315	37.62
3.42982	37.62
3.44648	37.62
3.46315	37.62
3.47982	37.62
3.49648	37.62
3.51315	37.62
3.52982	37.62
3.54648	37.62
3.56315	37.62
3.57982	37.62
3.59648	37.62
3.61315	37.62
3.62982	37.62
3.64648	37.62
3.66315	37.62
3.67982	37.62
3.69648	37.62
3.71315	37.62
3.72982	37.62
3.74648	37.62
3.76315	37.62
3.77982	37.62
3.79648	37.62
3.81315	37.62
3.82982	37.62
3.84648	37.62
3.86315	37.62
3.87982	37.62
3.89648	37.62
3.91315	37.62
3.92982	37.62
3.94648	37.62
3.96315	37.62
3.97982	37.62
3.99648	37.62

