[Header]
Application Name	LabSolutions
Version	5.110
Data File Name	C:\Users\User\Desktop\Junior\UIC Prairie Sampling\6.15.23\06152023_056.gcd
Output Date	6/26/2023
Output Time	12:05:10 PM

[File Information]
Type	Data File
Generated	6/23/2023 5:37:08 PM
Generated by	System Administrator
Modified	6/23/2023 5:44:27 PM
Modified by	System Administrator

[Sample Information]
Operator Name	System Administrator
Acquired	6/23/2023 5:40:26 PM
Sample Type	0:Unknown
Level	0
Sample Name	056
Sample ID	056
ISTD Amount1	1
ISTD Amount2	1
ISTD Amount3	1
ISTD Amount4	1
ISTD Amount5	1
ISTD Amount6	1
ISTD Amount7	1
ISTD Amount8	1
ISTD Amount9	1
ISTD Amount10	1
ISTD Amount11	1
ISTD Amount12	1
ISTD Amount13	1
ISTD Amount14	1
ISTD Amount15	1
ISTD Amount16	1
ISTD Amount17	1
ISTD Amount18	1
ISTD Amount19	1
ISTD Amount20	1
ISTD Amount21	1
ISTD Amount22	1
ISTD Amount23	1
ISTD Amount24	1
ISTD Amount25	1
ISTD Amount26	1
ISTD Amount27	1
ISTD Amount28	1
ISTD Amount29	1
ISTD Amount30	1
ISTD Amount31	1
ISTD Amount32	1
Sample Amount	1
Dilution Factor	1
Vial#	55
Injection Volume	1
Injection Count	1
Bar Code	

[Original Files]
Data File	C:\Users\User\Desktop\Junior\UIC Prairie Sampling\6.15.23\06152023_056.gcd
Method File	C:\LabSolutions\Data\GHG_4min_2022\ghg3_togas_w_acet_4 min_new_int.gcm
Batch File	C:\LabSolutions\Data\AutoSamplerTesting\06152023.gcb
Report Format File	c:\LabSolutions\System\DEFAULT.lsr

[File Description]


[Configuration]
Instrument Name	C0B7VH3-Instrument1
Instrument #	1
Line #	1
# of Detectors	3
Detector ID	DET#1	DET#2	DET#3
Detector Name	FID	PTCD	ECD
# of Channels	1	1	1

[Peak Table(Ch1)]
# of Peaks	3
Peak#	R.Time	I.Time	F.Time	Area	Height	A/H	Conc.	Mark	ID#	Name	k'	Plate #	Plate Ht.	Tailing	Resolution	Sep.Factor	Area Ratio	Height Ratio	Conc. %	Norm Conc.
1	1.472	1.435	1.531	3606	1784	2.021	0.000	   	1	CO	0.000	9636	15.567	1.365	0.000	0.000	0	0	0.000	0.000
2	1.564	1.531	1.619	4004	2095	1.911	19.520	 V 	2	CH4	0.062	11999	12.501	1.088	1.566	0.000	0	0	4.792	4.792
3	1.989	1.945	2.506	2012278	964251	2.087	387.803	   	3	CO2	0.351	17456	8.593	1.296	7.251	5.640	0	0	95.208	95.208

[Peak Table(Ch2)]
# of Peaks	0

[Peak Table(Ch3)]
# of Peaks	6
Peak#	R.Time	I.Time	F.Time	Area	Height	A/H	Conc.	Mark	ID#	Name	k'	Plate #	Plate Ht.	Tailing	Resolution	Sep.Factor	Area Ratio	Height Ratio	Conc. %	Norm Conc.
1	2.458	2.440	2.484	633	356	1.780	0.000	   			0.000	20507	7.314	0.000	0.000	0.000	0	0	0.000	0.000
2	2.517	2.484	2.554	1868	551	3.391	0.000	 V 			0.024	1417	105.876	0.000	0.349	0.000	0	0	0.000	0.000
3	2.568	2.554	2.667	1812	501	3.615	0.000	 V 			0.045	287	522.018	0.000	0.118	1.875	0	0	0.000	0.000
4	2.726	2.671	2.766	233	75	3.117	0.000	   			0.109	14904	10.064	0.882	0.453	2.433	0	0	0.000	0.000
5	2.887	2.821	3.551	19803	4666	4.244	0.293	   	1	N2O	0.175	13804	10.866	1.683	1.720	1.603	0	0	100.000	100.000
6	3.767	3.628	3.958	280	27	10.500	0.000	   			0.532	554	270.954	1.200	2.382	3.051	0	0	0.000	0.000

[Compound Results(Ch1)]
# of IDs	6
ID#	Name	R.Time	Area	Height	Conc.	Curve	3rd	2nd	1st	Constant	Area Ratio	Height Ratio	Conc. %	Norm Conc.
1	CO	1.472	3606	1784	0.000	Linear	0.000000e+00	0.000000e+00	0.000000e+00	0.000000e+00	0	0	0.000	0.000
2	CH4	1.564	4004	2095	19.520	Linear	0.000000e+00	0.000000e+00	2.051179e+002	0.000000e+00	0	0	4.792	4.792
3	CO2	1.989	2012278	964251	387.803	Linear	0.000000e+00	0.000000e+00	5.188919e+003	0.000000e+00	0	0	95.208	95.208
4	Ethylene	0.000	0	0	0.000	Linear	0.000000e+00	0.000000e+00	0.000000e+00	0.000000e+00	0	0	0.000	0.000
5	Acetylene	0.000	0	0	0.000	Linear	0.000000e+00	0.000000e+00	0.000000e+00	0.000000e+00	0	0	0.000	0.000
6	Ethane	0.000	0	0	0.000	Linear	0.000000e+00	0.000000e+00	0.000000e+00	0.000000e+00	0	0	0.000	0.000

[Compound Results(Ch2)]
# of IDs	5
ID#	Name	R.Time	Area	Height	Conc.	Curve	3rd	2nd	1st	Constant	Area Ratio	Height Ratio	Conc. %	Norm Conc.
1	Hydrogen	0.000	0	0	0.000	Linear	0.000000e+00	0.000000e+00	0.000000e+00	0.000000e+00	0	0	0.000	0.000
2	Oxygen	0.000	0	0	0.000	Linear	0.000000e+00	0.000000e+00	0.000000e+00	0.000000e+00	0	0	0.000	0.000
3	Nitrogen	0.000	0	0	0.000	Linear	0.000000e+00	0.000000e+00	0.000000e+00	0.000000e+00	0	0	0.000	0.000
4	Methane	0.000	0	0	0.000	Linear	0.000000e+00	0.000000e+00	0.000000e+00	0.000000e+00	0	0	0.000	0.000
5	Carbon Monoxide	0.000	0	0	0.000	Linear	0.000000e+00	0.000000e+00	0.000000e+00	0.000000e+00	0	0	0.000	0.000

[Compound Results(Ch3)]
# of IDs	2
ID#	Name	R.Time	Area	Height	Conc.	Curve	3rd	2nd	1st	Constant	Area Ratio	Height Ratio	Conc. %	Norm Conc.
1	N2O	2.887	19803	4666	0.293	Linear	0.000000e+00	0.000000e+00	6.759880e+004	0.000000e+00	0	0	100.000	100.000
2	SF6	0.000	0	0	0.000	Linear	0.000000e+00	0.000000e+00	0.000000e+00	0.000000e+00	0	0	0.000	0.000

[Group Results(Ch1)]
# of Groups	0

[Group Results(Ch2)]
# of Groups	0

[Group Results(Ch3)]
# of Groups	0

[Chromatogram (Ch1)]
Interval(msec)	220
# of Points	1091
Start Time(min)	0.002
End Time(min)	3.998
R.Time (min)	Intensity
0.00167	-4
0.00533	-2
0.00900	-1
0.01267	-3
0.01633	-7
0.02000	-7
0.02367	-5
0.02733	-0
0.03100	5
0.03467	8
0.03833	9
0.04200	7
0.04567	1
0.04933	-4
0.05300	-5
0.05667	-3
0.06033	-1
0.06400	2
0.06767	5
0.07133	7
0.07500	8
0.07867	7
0.08233	6
0.08600	6
0.08967	5
0.09333	3
0.09700	2
0.10067	2
0.10433	3
0.10800	1
0.11167	-1
0.11533	-3
0.11900	-6
0.12267	-8
0.12633	-7
0.13000	-3
0.13367	2
0.13733	4
0.14100	4
0.14467	6
0.14833	9
0.15200	13
0.15567	14
0.15933	9
0.16300	2
0.16667	-3
0.17033	-2
0.17400	1
0.17767	3
0.18133	2
0.18500	-1
0.18867	-4
0.19233	-3
0.19600	-3
0.19967	-4
0.20333	-5
0.20700	-2
0.21067	2
0.21433	-2
0.21800	-13
0.22167	-22
0.22533	-29
0.22900	-34
0.23267	-36
0.23633	-38
0.24000	-39
0.24367	-40
0.24733	-38
0.25100	-36
0.25467	-31
0.25833	-25
0.26200	-19
0.26567	-14
0.26933	-9
0.27300	-6
0.27667	-7
0.28033	-11
0.28400	-12
0.28767	-11
0.29133	-11
0.29500	-12
0.29867	-15
0.30233	-19
0.30600	-18
0.30967	-14
0.31333	-8
0.31700	-3
0.32067	1
0.32433	2
0.32800	0
0.33167	-3
0.33533	-5
0.33900	-7
0.34267	-9
0.34633	-10
0.35000	-10
0.35367	-9
0.35733	-7
0.36100	-5
0.36467	-6
0.36833	-8
0.37200	-10
0.37567	-13
0.37933	-18
0.38300	-20
0.38667	-17
0.39033	-15
0.39400	-17
0.39767	-17
0.40133	-13
0.40500	-9
0.40867	-6
0.41233	-6
0.41600	-8
0.41967	-11
0.42333	-12
0.42700	-14
0.43067	-14
0.43433	-8
0.43800	2
0.44167	10
0.44533	10
0.44900	7
0.45267	7
0.45633	11
0.46000	12
0.46367	5
0.46733	-7
0.47100	-21
0.47467	-30
0.47833	-35
0.48200	-36
0.48567	-37
0.48933	-34
0.49300	-25
0.49667	-16
0.50033	-10
0.50400	-5
0.50767	-3
0.51133	-4
0.51500	-4
0.51867	-3
0.52233	-4
0.52600	-9
0.52967	-18
0.53333	-30
0.53700	-38
0.54067	-42
0.54433	-42
0.54800	-40
0.55167	-37
0.55533	-36
0.55900	-37
0.56267	-40
0.56633	-41
0.57000	-38
0.57367	-34
0.57733	-30
0.58100	-29
0.58467	-28
0.58833	-27
0.59200	-27
0.59567	-27
0.59933	-24
0.60300	-20
0.60667	-16
0.61033	-12
0.61400	-9
0.61767	-6
0.62133	-4
0.62500	-3
0.62867	-7
0.63233	-12
0.63600	-13
0.63967	-10
0.64333	-8
0.64700	-10
0.65067	-13
0.65433	-14
0.65800	-15
0.66167	-17
0.66533	-20
0.66900	-25
0.67267	-27
0.67633	-26
0.68000	-23
0.68367	-18
0.68733	-15
0.69100	-12
0.69467	-11
0.69833	-15
0.70200	-22
0.70567	-27
0.70933	-31
0.71300	-31
0.71667	-32
0.72033	-34
0.72400	-36
0.72767	-35
0.73133	-33
0.73500	-30
0.73867	-26
0.74233	-21
0.74600	-21
0.74967	-21
0.75333	-21
0.75700	-22
0.76067	-20
0.76433	-17
0.76800	-12
0.77167	-7
0.77533	-8
0.77900	-11
0.78267	-12
0.78633	-14
0.79000	-17
0.79367	-21
0.79733	-25
0.80100	-28
0.80467	-29
0.80833	-29
0.81200	-27
0.81567	-24
0.81933	-21
0.82300	-21
0.82667	-23
0.83033	-26
0.83400	-29
0.83767	-31
0.84133	-33
0.84500	-36
0.84867	-37
0.85233	-36
0.85600	-33
0.85967	-33
0.86333	-29
0.86700	-23
0.87067	-17
0.87433	-17
0.87800	-20
0.88167	-23
0.88533	-26
0.88900	-27
0.89267	-31
0.89633	-34
0.90000	-39
0.90367	-44
0.90733	-47
0.91100	-47
0.91467	-42
0.91833	-37
0.92200	-37
0.92567	-38
0.92933	-35
0.93300	-28
0.93667	-21
0.94033	-16
0.94400	-12
0.94767	-15
0.95133	-28
0.95500	-43
0.95867	-51
0.96233	-54
0.96600	-54
0.96967	-57
0.97333	-59
0.97700	-59
0.98067	-58
0.98433	-57
0.98800	-54
0.99167	-51
0.99533	-46
0.99900	-42
1.00267	-39
1.00633	-37
1.01000	-37
1.01367	-39
1.01733	-40
1.02100	-37
1.02467	-34
1.02833	-30
1.03200	-27
1.03567	-28
1.03933	-33
1.04300	-36
1.04667	-38
1.05033	-37
1.05400	-37
1.05767	-39
1.06133	-40
1.06500	-37
1.06867	-31
1.07233	-21
1.07600	-11
1.07967	-7
1.08333	-12
1.08700	-25
1.09067	-41
1.09433	-52
1.09800	-58
1.10167	-62
1.10533	-63
1.10900	-61
1.11267	-58
1.11633	-54
1.12000	-47
1.12367	-37
1.12733	-31
1.13100	-29
1.13467	-31
1.13833	-35
1.14200	-39
1.14567	-41
1.14933	-38
1.15300	-32
1.15667	-26
1.16033	-22
1.16400	-22
1.16767	-22
1.17133	-21
1.17500	-17
1.17867	-14
1.18233	-16
1.18600	-23
1.18967	-30
1.19333	-29
1.19700	-26
1.20067	-26
1.20433	-29
1.20800	-31
1.21167	-32
1.21533	-34
1.21900	-37
1.22267	-42
1.22633	-49
1.23000	-54
1.23367	-57
1.23733	-58
1.24100	-61
1.24467	-63
1.24833	-62
1.25200	-57
1.25567	-54
1.25933	-50
1.26300	-46
1.26667	-46
1.27033	-47
1.27400	-45
1.27767	-39
1.28133	-35
1.28500	-33
1.28867	-32
1.29233	-32
1.29600	-35
1.29967	-39
1.30333	-45
1.30700	-52
1.31067	-57
1.31433	-59
1.31800	-56
1.32167	-52
1.32533	-50
1.32900	-49
1.33267	-47
1.33633	-46
1.34000	-48
1.34367	-51
1.34733	-53
1.35100	-58
1.35467	-63
1.35833	-66
1.36200	-66
1.36567	-64
1.36933	-59
1.37300	-56
1.37667	-55
1.38033	-53
1.38400	-50
1.38767	-47
1.39133	-44
1.39500	-36
1.39867	-28
1.40233	-23
1.40600	-23
1.40967	-29
1.41333	-40
1.41700	-50
1.42067	-53
1.42433	-54
1.42800	-57
1.43167	-57
1.43533	-48
1.43900	-29
1.44267	-15
1.44633	26
1.45000	182
1.45367	471
1.45733	822
1.46100	1157
1.46467	1440
1.46833	1645
1.47200	1740
1.47567	1697
1.47933	1526
1.48300	1273
1.48667	999
1.49033	748
1.49400	540
1.49767	378
1.50133	258
1.50500	172
1.50867	113
1.51233	74
1.51600	47
1.51967	26
1.52333	5
1.52700	-10
1.53067	-14
1.53433	17
1.53800	134
1.54167	393
1.54533	778
1.54900	1202
1.55267	1582
1.55633	1869
1.56000	2036
1.56367	2059
1.56733	1920
1.57100	1645
1.57467	1299
1.57833	954
1.58200	658
1.58567	427
1.58933	259
1.59300	144
1.59667	65
1.60033	18
1.60400	-7
1.60767	-18
1.61133	-22
1.61500	-26
1.61867	-31
1.62233	-37
1.62600	-44
1.62967	-52
1.63333	-55
1.63700	-56
1.64067	-53
1.64433	-50
1.64800	-52
1.65167	-57
1.65533	-60
1.65900	-61
1.66267	-60
1.66633	-58
1.67000	-53
1.67367	-48
1.67733	-40
1.68100	-35
1.68467	-35
1.68833	-40
1.69200	-48
1.69567	-57
1.69933	-66
1.70300	-73
1.70667	-77
1.71033	-80
1.71400	-84
1.71767	-86
1.72133	-88
1.72500	-86
1.72867	-77
1.73233	-65
1.73600	-59
1.73967	-58
1.74333	-61
1.74700	-65
1.75067	-71
1.75433	-73
1.75800	-72
1.76167	-67
1.76533	-56
1.76900	-43
1.77267	-38
1.77633	-46
1.78000	-64
1.78367	-84
1.78733	-97
1.79100	-105
1.79467	-109
1.79833	-112
1.80200	-112
1.80567	-110
1.80933	-106
1.81300	-99
1.81667	-92
1.82033	-87
1.82400	-83
1.82767	-78
1.83133	-74
1.83500	-72
1.83867	-71
1.84233	-67
1.84600	-62
1.84967	-54
1.85333	-44
1.85700	-37
1.86067	-39
1.86433	-50
1.86800	-62
1.87167	-73
1.87533	-81
1.87900	-84
1.88267	-86
1.88633	-87
1.89000	-85
1.89367	-82
1.89733	-77
1.90100	-68
1.90467	-61
1.90833	-60
1.91200	-65
1.91567	-69
1.91933	-70
1.92300	-74
1.92667	-76
1.93033	-76
1.93400	-75
1.93767	-74
1.94133	-71
1.94500	-54
1.94867	81
1.95233	931
1.95600	5024
1.95967	19708
1.96333	59807
1.96700	143940
1.97067	281157
1.97433	458815
1.97800	646179
1.98167	808973
1.98533	920418
1.98900	964239
1.99267	937093
1.99633	848875
2.00000	720237
2.00367	576406
2.00733	439329
2.01100	322522
2.01467	230738
2.01833	162673
2.02200	114188
2.02567	80559
2.02933	57606
2.03300	42054
2.03667	31520
2.04033	24334
2.04400	19369
2.04767	15874
2.05133	13356
2.05500	11494
2.05867	10081
2.06233	8983
2.06600	8110
2.06967	7401
2.07333	6809
2.07700	6303
2.08067	5867
2.08433	5492
2.08800	5161
2.09167	4866
2.09533	4603
2.09900	4369
2.10267	4154
2.10633	3957
2.11000	3779
2.11367	3618
2.11733	3471
2.12100	3339
2.12467	3218
2.12833	3105
2.13200	2992
2.13567	2880
2.13933	2770
2.14300	2668
2.14667	2577
2.15033	2494
2.15400	2417
2.15767	2343
2.16133	2270
2.16500	2201
2.16867	2135
2.17233	2069
2.17600	2009
2.17967	1957
2.18333	1913
2.18700	1870
2.19067	1828
2.19433	1785
2.19800	1742
2.20167	1698
2.20533	1653
2.20900	1610
2.21267	1568
2.21633	1529
2.22000	1495
2.22367	1459
2.22733	1422
2.23100	1388
2.23467	1358
2.23833	1327
2.24200	1297
2.24567	1266
2.24933	1241
2.25300	1221
2.25667	1202
2.26033	1181
2.26400	1161
2.26767	1142
2.27133	1123
2.27500	1104
2.27867	1085
2.28233	1066
2.28600	1042
2.28967	1016
2.29333	994
2.29700	975
2.30067	957
2.30433	941
2.30800	926
2.31167	916
2.31533	909
2.31900	902
2.32267	892
2.32633	875
2.33000	852
2.33367	830
2.33733	815
2.34100	804
2.34467	793
2.34833	780
2.35200	771
2.35567	765
2.35933	760
2.36300	755
2.36667	747
2.37033	735
2.37400	724
2.37767	715
2.38133	707
2.38500	699
2.38867	690
2.39233	678
2.39600	665
2.39967	652
2.40333	641
2.40700	636
2.41067	636
2.41433	639
2.41800	642
2.42167	635
2.42533	619
2.42900	605
2.43267	597
2.43633	591
2.44000	586
2.44367	581
2.44733	574
2.45100	564
2.45467	553
2.45833	544
2.46200	537
2.46567	531
2.46933	528
2.47300	524
2.47667	514
2.48033	501
2.48400	488
2.48767	480
2.49133	480
2.49500	488
2.49867	495
2.50233	494
2.50600	487
2.50967	484
2.51333	484
2.51700	487
2.52067	489
2.52433	483
2.52800	471
2.53167	454
2.53533	436
2.53900	422
2.54267	411
2.54633	401
2.55000	393
2.55367	386
2.55733	380
2.56100	379
2.56467	383
2.56833	386
2.57200	385
2.57567	382
2.57933	379
2.58300	378
2.58667	380
2.59033	385
2.59400	393
2.59767	401
2.60133	400
2.60500	388
2.60867	374
2.61233	366
2.61600	358
2.61967	349
2.62333	343
2.62700	339
2.63067	338
2.63433	336
2.63800	332
2.64167	329
2.64533	325
2.64900	323
2.65267	321
2.65633	318
2.66000	316
2.66367	313
2.66733	309
2.67100	304
2.67467	302
2.67833	300
2.68200	297
2.68567	291
2.68933	289
2.69300	292
2.69667	297
2.70033	300
2.70400	299
2.70767	295
2.71133	285
2.71500	277
2.71867	273
2.72233	273
2.72600	273
2.72967	273
2.73333	275
2.73700	282
2.74067	289
2.74433	294
2.74800	296
2.75167	299
2.75533	303
2.75900	305
2.76267	302
2.76633	295
2.77000	283
2.77367	268
2.77733	258
2.78100	255
2.78467	256
2.78833	255
2.79200	253
2.79567	250
2.79933	247
2.80300	246
2.80667	245
2.81033	244
2.81400	244
2.81767	244
2.82133	247
2.82500	253
2.82867	259
2.83233	262
2.83600	258
2.83967	249
2.84333	243
2.84700	237
2.85067	232
2.85433	232
2.85800	238
2.86167	246
2.86533	256
2.86900	263
2.87267	262
2.87633	254
2.88000	241
2.88367	227
2.88733	215
2.89100	209
2.89467	210
2.89833	212
2.90200	217
2.90567	225
2.90933	231
2.91300	237
2.91667	242
2.92033	244
2.92400	239
2.92767	229
2.93133	217
2.93500	209
2.93867	203
2.94233	195
2.94600	187
2.94967	181
2.95333	177
2.95700	176
2.96067	179
2.96433	186
2.96800	191
2.97167	195
2.97533	196
2.97900	196
2.98267	198
2.98633	201
2.99000	204
2.99367	206
2.99733	208
3.00100	212
3.00467	216
3.00833	217
3.01200	215
3.01567	215
3.01933	215
3.02300	215
3.02667	212
3.03033	208
3.03400	201
3.03767	194
3.04133	189
3.04500	186
3.04867	183
3.05233	179
3.05600	179
3.05967	182
3.06333	183
3.06700	183
3.07067	180
3.07433	176
3.07800	175
3.08167	177
3.08533	180
3.08900	184
3.09267	188
3.09633	190
3.10000	190
3.10367	188
3.10733	187
3.11100	188
3.11467	189
3.11833	190
3.12200	197
3.12567	204
3.12933	205
3.13300	200
3.13667	195
3.14033	191
3.14400	185
3.14767	176
3.15133	169
3.15500	167
3.15867	169
3.16233	170
3.16600	172
3.16967	173
3.17333	173
3.17700	174
3.18067	174
3.18433	173
3.18800	170
3.19167	168
3.19533	168
3.19900	166
3.20267	165
3.20633	166
3.21000	168
3.21367	167
3.21733	166
3.22100	168
3.22467	169
3.22833	169
3.23200	173
3.23567	174
3.23933	175
3.24300	174
3.24667	170
3.25033	166
3.25400	165
3.25767	161
3.26133	155
3.26500	151
3.26867	151
3.27233	152
3.27600	153
3.27967	155
3.28333	155
3.28700	160
3.29067	170
3.29433	181
3.29800	188
3.30167	186
3.30533	179
3.30900	170
3.31267	163
3.31633	154
3.32000	146
3.32367	146
3.32733	149
3.33100	149
3.33467	153
3.33833	160
3.34200	164
3.34567	163
3.34933	161
3.35300	160
3.35667	156
3.36033	152
3.36400	149
3.36767	147
3.37133	148
3.37500	150
3.37867	149
3.38233	146
3.38600	148
3.38967	153
3.39333	155
3.39700	155
3.40067	154
3.40433	154
3.40800	157
3.41167	160
3.41533	161
3.41900	160
3.42267	159
3.42633	158
3.43000	153
3.43367	147
3.43733	143
3.44100	139
3.44467	133
3.44833	129
3.45200	131
3.45567	140
3.45933	150
3.46300	155
3.46667	155
3.47033	150
3.47400	144
3.47767	139
3.48133	136
3.48500	133
3.48867	132
3.49233	133
3.49600	134
3.49967	133
3.50333	132
3.50700	133
3.51067	136
3.51433	139
3.51800	140
3.52167	142
3.52533	141
3.52900	141
3.53267	139
3.53633	136
3.54000	132
3.54367	129
3.54733	128
3.55100	124
3.55467	117
3.55833	109
3.56200	101
3.56567	99
3.56933	103
3.57300	110
3.57667	116
3.58033	119
3.58400	117
3.58767	116
3.59133	120
3.59500	125
3.59867	130
3.60233	132
3.60600	130
3.60967	124
3.61333	119
3.61700	122
3.62067	124
3.62433	123
3.62800	119
3.63167	114
3.63533	110
3.63900	105
3.64267	100
3.64633	97
3.65000	97
3.65367	100
3.65733	103
3.66100	106
3.66467	108
3.66833	109
3.67200	108
3.67567	105
3.67933	102
3.68300	103
3.68667	112
3.69033	126
3.69400	135
3.69767	136
3.70133	131
3.70500	128
3.70867	126
3.71233	119
3.71600	106
3.71967	93
3.72333	85
3.72700	85
3.73067	89
3.73433	94
3.73800	96
3.74167	95
3.74533	95
3.74900	96
3.75267	94
3.75633	91
3.76000	86
3.76367	82
3.76733	82
3.77100	86
3.77467	91
3.77833	93
3.78200	94
3.78567	93
3.78933	89
3.79300	90
3.79667	92
3.80033	92
3.80400	90
3.80767	86
3.81133	81
3.81500	80
3.81867	82
3.82233	86
3.82600	87
3.82967	88
3.83333	88
3.83700	87
3.84067	88
3.84433	88
3.84800	89
3.85167	94
3.85533	100
3.85900	102
3.86267	100
3.86633	98
3.87000	96
3.87367	92
3.87733	89
3.88100	88
3.88467	91
3.88833	94
3.89200	92
3.89567	90
3.89933	89
3.90300	90
3.90667	93
3.91033	95
3.91400	97
3.91767	98
3.92133	100
3.92500	97
3.92867	91
3.93233	88
3.93600	89
3.93967	97
3.94333	107
3.94700	111
3.95067	104
3.95433	91
3.95800	80
3.96167	72
3.96533	68
3.96900	69
3.97267	71
3.97633	74
3.98000	76
3.98367	79
3.98733	81
3.99100	81
3.99467	82
3.99833	85

[Chromatogram (Ch2)]
Interval(msec)	220
# of Points	1091
Start Time(min)	0.002
End Time(min)	3.998
R.Time (min)	Intensity
0.00167	1
0.00533	1
0.00900	1
0.01267	2
0.01633	1
0.02000	1
0.02367	1
0.02733	1
0.03100	1
0.03467	1
0.03833	1
0.04200	2
0.04567	2
0.04933	1
0.05300	1
0.05667	1
0.06033	1
0.06400	1
0.06767	1
0.07133	1
0.07500	1
0.07867	1
0.08233	1
0.08600	1
0.08967	1
0.09333	0
0.09700	-0
0.10067	-0
0.10433	-1
0.10800	-1
0.11167	-1
0.11533	-2
0.11900	-2
0.12267	-2
0.12633	-2
0.13000	-2
0.13367	-2
0.13733	-2
0.14100	-2
0.14467	-2
0.14833	-2
0.15200	-2
0.15567	-1
0.15933	-1
0.16300	-1
0.16667	-1
0.17033	-1
0.17400	-1
0.17767	-1
0.18133	-1
0.18500	-1
0.18867	-1
0.19233	-1
0.19600	-1
0.19967	-0
0.20333	-0
0.20700	-0
0.21067	0
0.21433	1
0.21800	1
0.22167	1
0.22533	1
0.22900	1
0.23267	0
0.23633	0
0.24000	-0
0.24367	-0
0.24733	-1
0.25100	-1
0.25467	-1
0.25833	-1
0.26200	-1
0.26567	-1
0.26933	-2
0.27300	-2
0.27667	-2
0.28033	-2
0.28400	-2
0.28767	-2
0.29133	-1
0.29500	-1
0.29867	-1
0.30233	-1
0.30600	-1
0.30967	-1
0.31333	-1
0.31700	-2
0.32067	-2
0.32433	-3
0.32800	-3
0.33167	-3
0.33533	-4
0.33900	-4
0.34267	-4
0.34633	-4
0.35000	-5
0.35367	-5
0.35733	-5
0.36100	-5
0.36467	-5
0.36833	-5
0.37200	-5
0.37567	-4
0.37933	-4
0.38300	-4
0.38667	-3
0.39033	-3
0.39400	-3
0.39767	-2
0.40133	-2
0.40500	-2
0.40867	-2
0.41233	-2
0.41600	-2
0.41967	-2
0.42333	-2
0.42700	-2
0.43067	-2
0.43433	-2
0.43800	-2
0.44167	-2
0.44533	-2
0.44900	-2
0.45267	-2
0.45633	-2
0.46000	-2
0.46367	-2
0.46733	-2
0.47100	-2
0.47467	-2
0.47833	-2
0.48200	-2
0.48567	-2
0.48933	-2
0.49300	-2
0.49667	-2
0.50033	-2
0.50400	-2
0.50767	-2
0.51133	-2
0.51500	-2
0.51867	-2
0.52233	-2
0.52600	-2
0.52967	-2
0.53333	-2
0.53700	-2
0.54067	-1
0.54433	-1
0.54800	-1
0.55167	-0
0.55533	0
0.55900	0
0.56267	0
0.56633	0
0.57000	-0
0.57367	-0
0.57733	-1
0.58100	-1
0.58467	-1
0.58833	-1
0.59200	-1
0.59567	-1
0.59933	-1
0.60300	-1
0.60667	-1
0.61033	-2
0.61400	-2
0.61767	-2
0.62133	-2
0.62500	-2
0.62867	-2
0.63233	-2
0.63600	-2
0.63967	-2
0.64333	-2
0.64700	-1
0.65067	-1
0.65433	-1
0.65800	-1
0.66167	-1
0.66533	-2
0.66900	-2
0.67267	-2
0.67633	-2
0.68000	-2
0.68367	-2
0.68733	-2
0.69100	-3
0.69467	-3
0.69833	-3
0.70200	-3
0.70567	-3
0.70933	-3
0.71300	-3
0.71667	-3
0.72033	-3
0.72400	-2
0.72767	-2
0.73133	-2
0.73500	-2
0.73867	-1
0.74233	-2
0.74600	-2
0.74967	-1
0.75333	-1
0.75700	-1
0.76067	-1
0.76433	-1
0.76800	-1
0.77167	-1
0.77533	-1
0.77900	-2
0.78267	-2
0.78633	-2
0.79000	-2
0.79367	-2
0.79733	-2
0.80100	-2
0.80467	-2
0.80833	-2
0.81200	-2
0.81567	-2
0.81933	-2
0.82300	-2
0.82667	-2
0.83033	-2
0.83400	-2
0.83767	-1
0.84133	-2
0.84500	-2
0.84867	-2
0.85233	-2
0.85600	-2
0.85967	-2
0.86333	-2
0.86700	-2
0.87067	-2
0.87433	-2
0.87800	-2
0.88167	-2
0.88533	-2
0.88900	-2
0.89267	-2
0.89633	-2
0.90000	-1
0.90367	-1
0.90733	-1
0.91100	-1
0.91467	-1
0.91833	-1
0.92200	-1
0.92567	-1
0.92933	-1
0.93300	-1
0.93667	-1
0.94033	-1
0.94400	-0
0.94767	-0
0.95133	-0
0.95500	-1
0.95867	-1
0.96233	-1
0.96600	-1
0.96967	-1
0.97333	-2
0.97700	-2
0.98067	-3
0.98433	-3
0.98800	-3
0.99167	-3
0.99533	-3
0.99900	-4
1.00267	-4
1.00633	-3
1.01000	-3
1.01367	-3
1.01733	-3
1.02100	-3
1.02467	-3
1.02833	-3
1.03200	-4
1.03567	-4
1.03933	-4
1.04300	-4
1.04667	-4
1.05033	-4
1.05400	-4
1.05767	-4
1.06133	-4
1.06500	-4
1.06867	-5
1.07233	-5
1.07600	-5
1.07967	-4
1.08333	-4
1.08700	-4
1.09067	-3
1.09433	-3
1.09800	-3
1.10167	-2
1.10533	-2
1.10900	-2
1.11267	-2
1.11633	-2
1.12000	-2
1.12367	-2
1.12733	-1
1.13100	-1
1.13467	-1
1.13833	-2
1.14200	-2
1.14567	-2
1.14933	-2
1.15300	-2
1.15667	-2
1.16033	-2
1.16400	-1
1.16767	-1
1.17133	-1
1.17500	-1
1.17867	-1
1.18233	-1
1.18600	-1
1.18967	-1
1.19333	-1
1.19700	-1
1.20067	-2
1.20433	-2
1.20800	-2
1.21167	-2
1.21533	-2
1.21900	-2
1.22267	-2
1.22633	-2
1.23000	-2
1.23367	-2
1.23733	-2
1.24100	-2
1.24467	-2
1.24833	-1
1.25200	-1
1.25567	-1
1.25933	-1
1.26300	-1
1.26667	-1
1.27033	-1
1.27400	-1
1.27767	-2
1.28133	-2
1.28500	-2
1.28867	-2
1.29233	-3
1.29600	-3
1.29967	-3
1.30333	-3
1.30700	-3
1.31067	-4
1.31433	-4
1.31800	-4
1.32167	-4
1.32533	-4
1.32900	-4
1.33267	-4
1.33633	-3
1.34000	-3
1.34367	-3
1.34733	-3
1.35100	-3
1.35467	-3
1.35833	-3
1.36200	-3
1.36567	-4
1.36933	-4
1.37300	-4
1.37667	-4
1.38033	-5
1.38400	-5
1.38767	-5
1.39133	-5
1.39500	-5
1.39867	-4
1.40233	-4
1.40600	-4
1.40967	-4
1.41333	-4
1.41700	-3
1.42067	-3
1.42433	-3
1.42800	-3
1.43167	-3
1.43533	-3
1.43900	-3
1.44267	-3
1.44633	-3
1.45000	-2
1.45367	-2
1.45733	-2
1.46100	-2
1.46467	-1
1.46833	-1
1.47200	-1
1.47567	-1
1.47933	-1
1.48300	-1
1.48667	-1
1.49033	-1
1.49400	-2
1.49767	-2
1.50133	-2
1.50500	-2
1.50867	-2
1.51233	-2
1.51600	-2
1.51967	-2
1.52333	-3
1.52700	-3
1.53067	-3
1.53433	-2
1.53800	-2
1.54167	-2
1.54533	-2
1.54900	-2
1.55267	-2
1.55633	-2
1.56000	-2
1.56367	-2
1.56733	-3
1.57100	-3
1.57467	-3
1.57833	-3
1.58200	-3
1.58567	-4
1.58933	-4
1.59300	-5
1.59667	-5
1.60033	-6
1.60400	-7
1.60767	-9
1.61133	-10
1.61500	-12
1.61867	-15
1.62233	-17
1.62600	-19
1.62967	-22
1.63333	-24
1.63700	-27
1.64067	-30
1.64433	-34
1.64800	-37
1.65167	-40
1.65533	-44
1.65900	-47
1.66267	-51
1.66633	-55
1.67000	-60
1.67367	-64
1.67733	-69
1.68100	-73
1.68467	-77
1.68833	-81
1.69200	-84
1.69567	-86
1.69933	-89
1.70300	-91
1.70667	-93
1.71033	-94
1.71400	-96
1.71767	-97
1.72133	-98
1.72500	-99
1.72867	-99
1.73233	-100
1.73600	-100
1.73967	-101
1.74333	-101
1.74700	-101
1.75067	-101
1.75433	-101
1.75800	-102
1.76167	-102
1.76533	-103
1.76900	-103
1.77267	-103
1.77633	-103
1.78000	-103
1.78367	-102
1.78733	-102
1.79100	-102
1.79467	-101
1.79833	-101
1.80200	-101
1.80567	-101
1.80933	-102
1.81300	-103
1.81667	-103
1.82033	-104
1.82400	-105
1.82767	-105
1.83133	-105
1.83500	-105
1.83867	-105
1.84233	-105
1.84600	-105
1.84967	-105
1.85333	-105
1.85700	-105
1.86067	-105
1.86433	-105
1.86800	-105
1.87167	-105
1.87533	-105
1.87900	-105
1.88267	-105
1.88633	-105
1.89000	-104
1.89367	-104
1.89733	-103
1.90100	-103
1.90467	-103
1.90833	-103
1.91200	-102
1.91567	-102
1.91933	-101
1.92300	-101
1.92667	-100
1.93033	-100
1.93400	-99
1.93767	-99
1.94133	-99
1.94500	-99
1.94867	-99
1.95233	-98
1.95600	-98
1.95967	-98
1.96333	-98
1.96700	-98
1.97067	-98
1.97433	-98
1.97800	-98
1.98167	-98
1.98533	-98
1.98900	-98
1.99267	-97
1.99633	-97
2.00000	-96
2.00367	-96
2.00733	-96
2.01100	-96
2.01467	-95
2.01833	-95
2.02200	-95
2.02567	-94
2.02933	-94
2.03300	-93
2.03667	-93
2.04033	-92
2.04400	-92
2.04767	-92
2.05133	-92
2.05500	-92
2.05867	-92
2.06233	-91
2.06600	-91
2.06967	-91
2.07333	-91
2.07700	-91
2.08067	-91
2.08433	-91
2.08800	-91
2.09167	-91
2.09533	-90
2.09900	-90
2.10267	-89
2.10633	-88
2.11000	-87
2.11367	-87
2.11733	-87
2.12100	-87
2.12467	-86
2.12833	-86
2.13200	-86
2.13567	-86
2.13933	-85
2.14300	-85
2.14667	-85
2.15033	-84
2.15400	-84
2.15767	-84
2.16133	-83
2.16500	-83
2.16867	-83
2.17233	-83
2.17600	-83
2.17967	-83
2.18333	-83
2.18700	-83
2.19067	-83
2.19433	-83
2.19800	-83
2.20167	-83
2.20533	-83
2.20900	-83
2.21267	-82
2.21633	-81
2.22000	-81
2.22367	-81
2.22733	-81
2.23100	-81
2.23467	-82
2.23833	-83
2.24200	-84
2.24567	-84
2.24933	-84
2.25300	-83
2.25667	-82
2.26033	-81
2.26400	-80
2.26767	-79
2.27133	-77
2.27500	-76
2.27867	-76
2.28233	-75
2.28600	-74
2.28967	-74
2.29333	-74
2.29700	-74
2.30067	-74
2.30433	-74
2.30800	-74
2.31167	-74
2.31533	-74
2.31900	-73
2.32267	-73
2.32633	-73
2.33000	-73
2.33367	-73
2.33733	-72
2.34100	-72
2.34467	-70
2.34833	-69
2.35200	-68
2.35567	-66
2.35933	-65
2.36300	-64
2.36667	-63
2.37033	-62
2.37400	-60
2.37767	-57
2.38133	-54
2.38500	-51
2.38867	-47
2.39233	-43
2.39600	-39
2.39967	-35
2.40333	-30
2.40700	-26
2.41067	-22
2.41433	-19
2.41800	-15
2.42167	-11
2.42533	-9
2.42900	-6
2.43267	-4
2.43633	-3
2.44000	-2
2.44367	-0
2.44733	1
2.45100	2
2.45467	4
2.45833	5
2.46200	6
2.46567	7
2.46933	8
2.47300	9
2.47667	10
2.48033	10
2.48400	11
2.48767	12
2.49133	13
2.49500	14
2.49867	15
2.50233	15
2.50600	16
2.50967	16
2.51333	15
2.51700	15
2.52067	15
2.52433	14
2.52800	14
2.53167	13
2.53533	13
2.53900	12
2.54267	12
2.54633	12
2.55000	11
2.55367	11
2.55733	10
2.56100	10
2.56467	11
2.56833	11
2.57200	11
2.57567	12
2.57933	12
2.58300	12
2.58667	12
2.59033	12
2.59400	12
2.59767	13
2.60133	13
2.60500	13
2.60867	14
2.61233	14
2.61600	15
2.61967	16
2.62333	16
2.62700	17
2.63067	17
2.63433	17
2.63800	17
2.64167	18
2.64533	18
2.64900	19
2.65267	19
2.65633	20
2.66000	20
2.66367	21
2.66733	21
2.67100	21
2.67467	21
2.67833	21
2.68200	22
2.68567	22
2.68933	22
2.69300	22
2.69667	22
2.70033	23
2.70400	23
2.70767	23
2.71133	23
2.71500	23
2.71867	23
2.72233	23
2.72600	23
2.72967	23
2.73333	23
2.73700	24
2.74067	24
2.74433	24
2.74800	25
2.75167	25
2.75533	25
2.75900	26
2.76267	26
2.76633	26
2.77000	27
2.77367	27
2.77733	27
2.78100	28
2.78467	28
2.78833	29
2.79200	29
2.79567	30
2.79933	30
2.80300	29
2.80667	29
2.81033	28
2.81400	28
2.81767	27
2.82133	27
2.82500	27
2.82867	26
2.83233	26
2.83600	26
2.83967	26
2.84333	26
2.84700	26
2.85067	27
2.85433	27
2.85800	26
2.86167	24
2.86533	19
2.86900	13
2.87267	3
2.87633	-12
2.88000	-30
2.88367	-54
2.88733	-83
2.89100	-118
2.89467	-157
2.89833	-202
2.90200	-251
2.90567	-304
2.90933	-361
2.91300	-420
2.91667	-481
2.92033	-544
2.92400	-607
2.92767	-669
2.93133	-731
2.93500	-790
2.93867	-845
2.94233	-897
2.94600	-950
2.94967	-1005
2.95333	-1056
2.95700	-1093
2.96067	-1108
2.96433	-1097
2.96800	-1063
2.97167	-1010
2.97533	-942
2.97900	-865
2.98267	-784
2.98633	-703
2.99000	-625
2.99367	-550
2.99733	-482
3.00100	-419
3.00467	-363
3.00833	-312
3.01200	-268
3.01567	-229
3.01933	-195
3.02300	-166
3.02667	-140
3.03033	-118
3.03400	-99
3.03767	-82
3.04133	-68
3.04500	-56
3.04867	-46
3.05233	-37
3.05600	-29
3.05967	-22
3.06333	-17
3.06700	-12
3.07067	-8
3.07433	-4
3.07800	-1
3.08167	1
3.08533	3
3.08900	5
3.09267	7
3.09633	8
3.10000	9
3.10367	10
3.10733	11
3.11100	12
3.11467	12
3.11833	13
3.12200	14
3.12567	14
3.12933	15
3.13300	15
3.13667	16
3.14033	16
3.14400	17
3.14767	17
3.15133	18
3.15500	19
3.15867	19
3.16233	20
3.16600	21
3.16967	21
3.17333	22
3.17700	22
3.18067	22
3.18433	22
3.18800	22
3.19167	22
3.19533	22
3.19900	22
3.20267	22
3.20633	22
3.21000	22
3.21367	22
3.21733	22
3.22100	22
3.22467	22
3.22833	22
3.23200	22
3.23567	23
3.23933	23
3.24300	23
3.24667	24
3.25033	24
3.25400	24
3.25767	24
3.26133	24
3.26500	24
3.26867	24
3.27233	24
3.27600	24
3.27967	24
3.28333	24
3.28700	24
3.29067	24
3.29433	24
3.29800	24
3.30167	24
3.30533	24
3.30900	24
3.31267	24
3.31633	24
3.32000	24
3.32367	23
3.32733	23
3.33100	23
3.33467	24
3.33833	24
3.34200	24
3.34567	24
3.34933	24
3.35300	24
3.35667	25
3.36033	25
3.36400	25
3.36767	25
3.37133	25
3.37500	25
3.37867	25
3.38233	25
3.38600	25
3.38967	26
3.39333	26
3.39700	26
3.40067	26
3.40433	26
3.40800	26
3.41167	27
3.41533	28
3.41900	28
3.42267	28
3.42633	29
3.43000	29
3.43367	29
3.43733	29
3.44100	29
3.44467	29
3.44833	29
3.45200	29
3.45567	29
3.45933	30
3.46300	30
3.46667	30
3.47033	30
3.47400	30
3.47767	30
3.48133	29
3.48500	29
3.48867	29
3.49233	29
3.49600	30
3.49967	30
3.50333	30
3.50700	30
3.51067	30
3.51433	30
3.51800	31
3.52167	31
3.52533	30
3.52900	30
3.53267	30
3.53633	29
3.54000	29
3.54367	28
3.54733	28
3.55100	28
3.55467	28
3.55833	28
3.56200	28
3.56567	28
3.56933	28
3.57300	28
3.57667	28
3.58033	28
3.58400	28
3.58767	28
3.59133	27
3.59500	27
3.59867	27
3.60233	27
3.60600	27
3.60967	27
3.61333	27
3.61700	27
3.62067	27
3.62433	27
3.62800	27
3.63167	28
3.63533	28
3.63900	28
3.64267	28
3.64633	28
3.65000	28
3.65367	28
3.65733	28
3.66100	28
3.66467	28
3.66833	29
3.67200	29
3.67567	29
3.67933	29
3.68300	29
3.68667	29
3.69033	29
3.69400	28
3.69767	28
3.70133	28
3.70500	28
3.70867	27
3.71233	27
3.71600	27
3.71967	26
3.72333	26
3.72700	26
3.73067	26
3.73433	26
3.73800	26
3.74167	26
3.74533	26
3.74900	26
3.75267	26
3.75633	27
3.76000	27
3.76367	27
3.76733	27
3.77100	27
3.77467	27
3.77833	27
3.78200	27
3.78567	27
3.78933	28
3.79300	28
3.79667	28
3.80033	28
3.80400	28
3.80767	28
3.81133	28
3.81500	28
3.81867	27
3.82233	28
3.82600	28
3.82967	28
3.83333	28
3.83700	28
3.84067	28
3.84433	28
3.84800	29
3.85167	29
3.85533	29
3.85900	29
3.86267	29
3.86633	29
3.87000	29
3.87367	29
3.87733	29
3.88100	29
3.88467	29
3.88833	30
3.89200	30
3.89567	30
3.89933	30
3.90300	30
3.90667	30
3.91033	30
3.91400	30
3.91767	30
3.92133	30
3.92500	30
3.92867	30
3.93233	30
3.93600	30
3.93967	30
3.94333	30
3.94700	30
3.95067	30
3.95433	30
3.95800	30
3.96167	30
3.96533	30
3.96900	30
3.97267	30
3.97633	30
3.98000	30
3.98367	30
3.98733	30
3.99100	30
3.99467	29
3.99833	29

[Chromatogram (Ch3)]
Interval(msec)	220
# of Points	1091
Start Time(min)	0.002
End Time(min)	3.998
R.Time (min)	Intensity
0.00167	0
0.00533	0
0.00900	-2
0.01267	-4
0.01633	-4
0.02000	-3
0.02367	-1
0.02733	0
0.03100	2
0.03467	3
0.03833	4
0.04200	3
0.04567	3
0.04933	2
0.05300	3
0.05667	2
0.06033	3
0.06400	2
0.06767	0
0.07133	-1
0.07500	-2
0.07867	-2
0.08233	-1
0.08600	-1
0.08967	1
0.09333	0
0.09700	-1
0.10067	-2
0.10433	-3
0.10800	-3
0.11167	-3
0.11533	-3
0.11900	-1
0.12267	-0
0.12633	-1
0.13000	-1
0.13367	1
0.13733	3
0.14100	2
0.14467	1
0.14833	0
0.15200	-1
0.15567	1
0.15933	2
0.16300	1
0.16667	1
0.17033	0
0.17400	-0
0.17767	-1
0.18133	-1
0.18500	-2
0.18867	-1
0.19233	2
0.19600	2
0.19967	-0
0.20333	-2
0.20700	-2
0.21067	-0
0.21433	2
0.21800	4
0.22167	5
0.22533	6
0.22900	7
0.23267	6
0.23633	5
0.24000	3
0.24367	3
0.24733	2
0.25100	1
0.25467	1
0.25833	4
0.26200	7
0.26567	9
0.26933	11
0.27300	10
0.27667	10
0.28033	8
0.28400	6
0.28767	5
0.29133	3
0.29500	4
0.29867	6
0.30233	7
0.30600	6
0.30967	5
0.31333	6
0.31700	7
0.32067	6
0.32433	6
0.32800	5
0.33167	4
0.33533	3
0.33900	1
0.34267	0
0.34633	1
0.35000	3
0.35367	4
0.35733	7
0.36100	7
0.36467	7
0.36833	8
0.37200	8
0.37567	9
0.37933	8
0.38300	7
0.38667	6
0.39033	5
0.39400	4
0.39767	2
0.40133	2
0.40500	1
0.40867	2
0.41233	4
0.41600	6
0.41967	7
0.42333	7
0.42700	7
0.43067	5
0.43433	3
0.43800	4
0.44167	4
0.44533	5
0.44900	5
0.45267	4
0.45633	2
0.46000	4
0.46367	6
0.46733	6
0.47100	7
0.47467	6
0.47833	5
0.48200	6
0.48567	7
0.48933	8
0.49300	6
0.49667	5
0.50033	5
0.50400	4
0.50767	6
0.51133	8
0.51500	10
0.51867	11
0.52233	11
0.52600	11
0.52967	11
0.53333	11
0.53700	11
0.54067	10
0.54433	8
0.54800	9
0.55167	13
0.55533	14
0.55900	13
0.56267	12
0.56633	14
0.57000	14
0.57367	14
0.57733	15
0.58100	16
0.58467	15
0.58833	13
0.59200	12
0.59567	11
0.59933	12
0.60300	13
0.60667	14
0.61033	14
0.61400	15
0.61767	14
0.62133	13
0.62500	11
0.62867	11
0.63233	13
0.63600	15
0.63967	14
0.64333	14
0.64700	17
0.65067	20
0.65433	22
0.65800	19
0.66167	16
0.66533	15
0.66900	16
0.67267	16
0.67633	16
0.68000	14
0.68367	12
0.68733	11
0.69100	13
0.69467	13
0.69833	12
0.70200	13
0.70567	15
0.70933	15
0.71300	15
0.71667	16
0.72033	19
0.72400	22
0.72767	24
0.73133	24
0.73500	21
0.73867	18
0.74233	15
0.74600	15
0.74967	16
0.75333	16
0.75700	15
0.76067	15
0.76433	15
0.76800	16
0.77167	17
0.77533	16
0.77900	15
0.78267	16
0.78633	17
0.79000	16
0.79367	14
0.79733	15
0.80100	15
0.80467	14
0.80833	15
0.81200	17
0.81567	20
0.81933	21
0.82300	22
0.82667	20
0.83033	17
0.83400	16
0.83767	16
0.84133	17
0.84500	17
0.84867	17
0.85233	16
0.85600	18
0.85967	20
0.86333	21
0.86700	23
0.87067	23
0.87433	21
0.87800	19
0.88167	18
0.88533	17
0.88900	17
0.89267	18
0.89633	19
0.90000	21
0.90367	20
0.90733	17
0.91100	17
0.91467	17
0.91833	17
0.92200	17
0.92567	18
0.92933	20
0.93300	21
0.93667	22
0.94033	25
0.94400	25
0.94767	25
0.95133	25
0.95500	23
0.95867	23
0.96233	25
0.96600	24
0.96967	25
0.97333	24
0.97700	22
0.98067	20
0.98433	20
0.98800	20
0.99167	19
0.99533	17
0.99900	18
1.00267	19
1.00633	18
1.01000	18
1.01367	18
1.01733	20
1.02100	22
1.02467	22
1.02833	20
1.03200	19
1.03567	19
1.03933	20
1.04300	19
1.04667	17
1.05033	17
1.05400	18
1.05767	21
1.06133	24
1.06500	25
1.06867	25
1.07233	25
1.07600	24
1.07967	21
1.08333	22
1.08700	22
1.09067	22
1.09433	26
1.09800	30
1.10167	29
1.10533	26
1.10900	25
1.11267	25
1.11633	26
1.12000	26
1.12367	26
1.12733	26
1.13100	24
1.13467	22
1.13833	20
1.14200	21
1.14567	21
1.14933	20
1.15300	19
1.15667	20
1.16033	21
1.16400	22
1.16767	21
1.17133	21
1.17500	21
1.17867	20
1.18233	18
1.18600	18
1.18967	19
1.19333	21
1.19700	23
1.20067	25
1.20433	27
1.20800	26
1.21167	24
1.21533	24
1.21900	26
1.22267	27
1.22633	27
1.23000	27
1.23367	27
1.23733	27
1.24100	27
1.24467	27
1.24833	26
1.25200	23
1.25567	23
1.25933	25
1.26300	27
1.26667	26
1.27033	27
1.27400	26
1.27767	26
1.28133	26
1.28500	27
1.28867	27
1.29233	28
1.29600	26
1.29967	24
1.30333	22
1.30700	20
1.31067	21
1.31433	23
1.31800	24
1.32167	23
1.32533	23
1.32900	23
1.33267	23
1.33633	23
1.34000	24
1.34367	25
1.34733	26
1.35100	27
1.35467	29
1.35833	29
1.36200	28
1.36567	29
1.36933	30
1.37300	30
1.37667	29
1.38033	29
1.38400	31
1.38767	32
1.39133	32
1.39500	32
1.39867	31
1.40233	28
1.40600	28
1.40967	26
1.41333	25
1.41700	25
1.42067	26
1.42433	26
1.42800	27
1.43167	27
1.43533	27
1.43900	26
1.44267	27
1.44633	27
1.45000	29
1.45367	30
1.45733	29
1.46100	27
1.46467	25
1.46833	23
1.47200	23
1.47567	25
1.47933	27
1.48300	29
1.48667	29
1.49033	29
1.49400	28
1.49767	26
1.50133	26
1.50500	26
1.50867	26
1.51233	25
1.51600	27
1.51967	28
1.52333	27
1.52700	25
1.53067	22
1.53433	20
1.53800	21
1.54167	22
1.54533	23
1.54900	22
1.55267	22
1.55633	23
1.56000	26
1.56367	29
1.56733	29
1.57100	30
1.57467	29
1.57833	28
1.58200	29
1.58567	28
1.58933	29
1.59300	27
1.59667	25
1.60033	26
1.60400	28
1.60767	30
1.61133	29
1.61500	27
1.61867	28
1.62233	28
1.62600	28
1.62967	30
1.63333	31
1.63700	31
1.64067	30
1.64433	28
1.64800	27
1.65167	28
1.65533	29
1.65900	31
1.66267	31
1.66633	34
1.67000	36
1.67367	35
1.67733	35
1.68100	36
1.68467	37
1.68833	36
1.69200	37
1.69567	39
1.69933	40
1.70300	40
1.70667	40
1.71033	39
1.71400	39
1.71767	40
1.72133	40
1.72500	39
1.72867	38
1.73233	37
1.73600	38
1.73967	39
1.74333	39
1.74700	37
1.75067	37
1.75433	38
1.75800	40
1.76167	45
1.76533	49
1.76900	51
1.77267	49
1.77633	46
1.78000	43
1.78367	41
1.78733	41
1.79100	39
1.79467	39
1.79833	40
1.80200	41
1.80567	44
1.80933	49
1.81300	51
1.81667	51
1.82033	48
1.82400	47
1.82767	45
1.83133	45
1.83500	46
1.83867	48
1.84233	50
1.84600	52
1.84967	53
1.85333	54
1.85700	56
1.86067	57
1.86433	57
1.86800	56
1.87167	55
1.87533	54
1.87900	52
1.88267	53
1.88633	56
1.89000	58
1.89367	61
1.89733	62
1.90100	61
1.90467	59
1.90833	61
1.91200	65
1.91567	66
1.91933	67
1.92300	66
1.92667	65
1.93033	66
1.93400	66
1.93767	67
1.94133	68
1.94500	68
1.94867	70
1.95233	71
1.95600	71
1.95967	71
1.96333	70
1.96700	69
1.97067	69
1.97433	71
1.97800	75
1.98167	78
1.98533	80
1.98900	81
1.99267	84
1.99633	86
2.00000	86
2.00367	88
2.00733	90
2.01100	91
2.01467	92
2.01833	91
2.02200	91
2.02567	89
2.02933	90
2.03300	93
2.03667	94
2.04033	94
2.04400	94
2.04767	95
2.05133	97
2.05500	99
2.05867	102
2.06233	106
2.06600	109
2.06967	108
2.07333	109
2.07700	109
2.08067	109
2.08433	109
2.08800	107
2.09167	103
2.09533	103
2.09900	105
2.10267	105
2.10633	106
2.11000	107
2.11367	108
2.11733	109
2.12100	111
2.12467	112
2.12833	113
2.13200	114
2.13567	114
2.13933	113
2.14300	114
2.14667	115
2.15033	118
2.15400	120
2.15767	120
2.16133	122
2.16500	123
2.16867	123
2.17233	122
2.17600	122
2.17967	121
2.18333	121
2.18700	122
2.19067	123
2.19433	123
2.19800	124
2.20167	124
2.20533	126
2.20900	128
2.21267	131
2.21633	131
2.22000	130
2.22367	130
2.22733	128
2.23100	127
2.23467	127
2.23833	127
2.24200	125
2.24567	126
2.24933	129
2.25300	130
2.25667	132
2.26033	132
2.26400	134
2.26767	133
2.27133	132
2.27500	132
2.27867	131
2.28233	130
2.28600	131
2.28967	133
2.29333	136
2.29700	137
2.30067	135
2.30433	136
2.30800	136
2.31167	137
2.31533	137
2.31900	139
2.32267	140
2.32633	139
2.33000	138
2.33367	138
2.33733	137
2.34100	135
2.34467	137
2.34833	139
2.35200	139
2.35567	140
2.35933	140
2.36300	141
2.36667	143
2.37033	146
2.37400	147
2.37767	149
2.38133	149
2.38500	146
2.38867	142
2.39233	140
2.39600	141
2.39967	140
2.40333	143
2.40700	146
2.41067	149
2.41433	152
2.41800	153
2.42167	154
2.42533	156
2.42900	154
2.43267	153
2.43633	153
2.44000	162
2.44367	226
2.44733	343
2.45100	451
2.45467	533
2.45833	572
2.46200	570
2.46567	548
2.46933	524
2.47300	506
2.47667	498
2.48033	497
2.48400	500
2.48767	515
2.49133	549
2.49500	605
2.49867	679
2.50233	757
2.50600	829
2.50967	884
2.51333	919
2.51700	938
2.52067	945
2.52433	945
2.52800	941
2.53167	938
2.53533	939
2.53900	943
2.54267	951
2.54633	961
2.55000	972
2.55367	983
2.55733	997
2.56100	1012
2.56467	1026
2.56833	1038
2.57200	1048
2.57567	1054
2.57933	1056
2.58300	1050
2.58667	1037
2.59033	1016
2.59400	993
2.59767	970
2.60133	949
2.60500	932
2.60867	918
2.61233	904
2.61600	891
2.61967	881
2.62333	872
2.62700	862
2.63067	853
2.63433	844
2.63800	839
2.64167	833
2.64533	826
2.64900	821
2.65267	818
2.65633	818
2.66000	820
2.66367	823
2.66733	826
2.67100	830
2.67467	832
2.67833	835
2.68200	840
2.68567	845
2.68933	852
2.69300	860
2.69667	867
2.70033	874
2.70400	881
2.70767	887
2.71133	892
2.71500	896
2.71867	899
2.72233	901
2.72600	903
2.72967	902
2.73333	898
2.73700	892
2.74067	885
2.74433	877
2.74800	868
2.75167	859
2.75533	851
2.75900	842
2.76267	835
2.76633	828
2.77000	821
2.77367	811
2.77733	804
2.78100	798
2.78467	795
2.78833	792
2.79200	788
2.79567	782
2.79933	777
2.80300	772
2.80667	766
2.81033	761
2.81400	759
2.81767	757
2.82133	756
2.82500	758
2.82867	760
2.83233	764
2.83600	779
2.83967	812
2.84333	884
2.84700	1015
2.85067	1224
2.85433	1532
2.85800	1942
2.86167	2446
2.86533	3017
2.86900	3610
2.87267	4180
2.87633	4679
2.88000	5064
2.88367	5310
2.88733	5411
2.89100	5376
2.89467	5225
2.89833	4985
2.90200	4690
2.90567	4359
2.90933	4015
2.91300	3677
2.91667	3355
2.92033	3052
2.92400	2773
2.92767	2519
2.93133	2292
2.93500	2092
2.93867	1917
2.94233	1764
2.94600	1631
2.94967	1515
2.95333	1415
2.95700	1328
2.96067	1252
2.96433	1188
2.96800	1134
2.97167	1086
2.97533	1043
2.97900	1007
2.98267	977
2.98633	952
2.99000	930
2.99367	912
2.99733	897
3.00100	884
3.00467	872
3.00833	862
3.01200	854
3.01567	849
3.01933	846
3.02300	843
3.02667	841
3.03033	838
3.03400	834
3.03767	830
3.04133	829
3.04500	830
3.04867	830
3.05233	827
3.05600	825
3.05967	825
3.06333	825
3.06700	825
3.07067	825
3.07433	824
3.07800	821
3.08167	820
3.08533	820
3.08900	821
3.09267	821
3.09633	822
3.10000	821
3.10367	823
3.10733	822
3.11100	819
3.11467	817
3.11833	816
3.12200	814
3.12567	811
3.12933	809
3.13300	808
3.13667	809
3.14033	810
3.14400	809
3.14767	808
3.15133	806
3.15500	805
3.15867	803
3.16233	804
3.16600	802
3.16967	801
3.17333	802
3.17700	801
3.18067	801
3.18433	801
3.18800	800
3.19167	798
3.19533	796
3.19900	795
3.20267	794
3.20633	793
3.21000	793
3.21367	794
3.21733	795
3.22100	794
3.22467	794
3.22833	792
3.23200	790
3.23567	790
3.23933	789
3.24300	787
3.24667	787
3.25033	788
3.25400	789
3.25767	791
3.26133	789
3.26500	786
3.26867	784
3.27233	783
3.27600	780
3.27967	776
3.28333	774
3.28700	774
3.29067	772
3.29433	769
3.29800	768
3.30167	766
3.30533	767
3.30900	767
3.31267	765
3.31633	764
3.32000	764
3.32367	763
3.32733	762
3.33100	759
3.33467	757
3.33833	755
3.34200	752
3.34567	749
3.34933	747
3.35300	745
3.35667	744
3.36033	743
3.36400	741
3.36767	738
3.37133	732
3.37500	729
3.37867	729
3.38233	728
3.38600	725
3.38967	724
3.39333	721
3.39700	718
3.40067	714
3.40433	710
3.40800	708
3.41167	708
3.41533	708
3.41900	708
3.42267	706
3.42633	702
3.43000	698
3.43367	696
3.43733	695
3.44100	694
3.44467	693
3.44833	691
3.45200	687
3.45567	683
3.45933	681
3.46300	682
3.46667	681
3.47033	679
3.47400	679
3.47767	678
3.48133	675
3.48500	672
3.48867	670
3.49233	667
3.49600	666
3.49967	663
3.50333	659
3.50700	656
3.51067	653
3.51433	651
3.51800	649
3.52167	647
3.52533	647
3.52900	645
3.53267	641
3.53633	639
3.54000	640
3.54367	639
3.54733	638
3.55100	635
3.55467	634
3.55833	633
3.56200	633
3.56567	631
3.56933	629
3.57300	628
3.57667	627
3.58033	626
3.58400	624
3.58767	623
3.59133	620
3.59500	617
3.59867	615
3.60233	613
3.60600	611
3.60967	608
3.61333	607
3.61700	605
3.62067	603
3.62433	602
3.62800	600
3.63167	599
3.63533	598
3.63900	597
3.64267	596
3.64633	594
3.65000	591
3.65367	590
3.65733	589
3.66100	588
3.66467	586
3.66833	584
3.67200	583
3.67567	582
3.67933	580
3.68300	579
3.68667	578
3.69033	578
3.69400	578
3.69767	577
3.70133	576
3.70500	573
3.70867	571
3.71233	570
3.71600	569
3.71967	568
3.72333	568
3.72700	566
3.73067	564
3.73433	561
3.73800	560
3.74167	559
3.74533	560
3.74900	560
3.75267	558
3.75633	556
3.76000	556
3.76367	555
3.76733	554
3.77100	551
3.77467	547
3.77833	544
3.78200	542
3.78567	540
3.78933	536
3.79300	533
3.79667	530
3.80033	528
3.80400	526
3.80767	526
3.81133	522
3.81500	518
3.81867	517
3.82233	518
3.82600	517
3.82967	513
3.83333	510
3.83700	508
3.84067	505
3.84433	503
3.84800	500
3.85167	497
3.85533	495
3.85900	491
3.86267	491
3.86633	490
3.87000	488
3.87367	486
3.87733	483
3.88100	481
3.88467	478
3.88833	476
3.89200	475
3.89567	474
3.89933	473
3.90300	471
3.90667	469
3.91033	466
3.91400	465
3.91767	463
3.92133	460
3.92500	457
3.92867	454
3.93233	450
3.93600	447
3.93967	446
3.94333	445
3.94700	443
3.95067	437
3.95433	430
3.95800	427
3.96167	425
3.96533	422
3.96900	420
3.97267	419
3.97633	418
3.98000	417
3.98367	415
3.98733	411
3.99100	409
3.99467	404
3.99833	398

[Status Trace (Column Oven Temperature)]
Interval(msec)	1000
# of Points	240
Start Time(min)	0.014
End Time(min)	3.998
Intensity Units	
Intensity Multiplier	1
R.Time (min)	Intensity
0.01448	35.03
0.03115	35.03
0.04782	35.02
0.06448	35.01
0.08115	35.01
0.09782	35.02
0.11448	35.04
0.13115	35.04
0.14782	35.04
0.16448	35.05
0.18115	35.04
0.19782	35.02
0.21448	35.01
0.23115	35.00
0.24782	35.01
0.26448	35.01
0.28115	35.02
0.29782	35.02
0.31448	35.03
0.33115	35.04
0.34782	35.05
0.36448	35.05
0.38115	35.05
0.39782	35.05
0.41448	35.05
0.43115	35.04
0.44782	35.03
0.46448	35.04
0.48115	35.05
0.49782	35.05
0.51448	35.05
0.53115	35.05
0.54782	35.04
0.56448	35.03
0.58115	35.02
0.59782	35.02
0.61448	35.03
0.63115	35.03
0.64782	35.02
0.66448	35.02
0.68115	35.02
0.69782	35.03
0.71448	35.04
0.73115	35.03
0.74782	35.01
0.76448	35.02
0.78115	35.02
0.79782	35.02
0.81448	35.01
0.83115	35.00
0.84782	35.00
0.86448	35.00
0.88115	34.99
0.89782	34.99
0.91448	34.99
0.93115	34.98
0.94782	34.98
0.96448	34.99
0.98115	34.99
0.99782	35.00
1.01448	35.01
1.03115	35.01
1.04782	35.02
1.06448	35.03
1.08115	35.03
1.09782	35.02
1.11448	35.01
1.13115	35.00
1.14782	35.00
1.16448	35.00
1.18115	35.00
1.19782	35.00
1.21448	35.00
1.23115	35.00
1.24782	34.99
1.26448	34.98
1.28115	34.98
1.29782	34.98
1.31448	34.97
1.33115	34.98
1.34782	34.98
1.36448	34.98
1.38115	35.00
1.39782	35.01
1.41448	34.99
1.43115	34.99
1.44782	34.98
1.46448	34.97
1.48115	34.97
1.49782	34.97
1.51448	34.97
1.53115	34.96
1.54782	34.96
1.56448	34.96
1.58115	34.98
1.59782	35.00
1.61448	35.08
1.63115	35.23
1.64782	35.43
1.66448	35.72
1.68115	36.07
1.69782	36.41
1.71448	36.77
1.73115	37.12
1.74782	37.45
1.76448	37.80
1.78115	38.11
1.79782	38.42
1.81448	38.78
1.83115	39.10
1.84782	39.43
1.86448	39.77
1.88115	40.11
1.89782	40.43
1.91448	40.75
1.93115	41.08
1.94782	41.40
1.96448	41.72
1.98115	42.06
1.99782	42.37
2.01448	42.70
2.03115	43.02
2.04782	43.35
2.06448	43.66
2.08115	44.00
2.09782	44.32
2.11448	44.65
2.13115	44.97
2.14782	45.29
2.16448	45.61
2.18115	45.94
2.19782	46.28
2.21448	46.58
2.23115	46.96
2.24782	47.32
2.26448	47.63
2.28115	47.95
2.29782	48.29
2.31448	48.62
2.33115	48.94
2.34782	49.25
2.36448	49.52
2.38115	49.67
2.39782	49.69
2.41448	49.67
2.43115	49.68
2.44782	49.68
2.46448	49.69
2.48115	49.70
2.49782	49.69
2.51448	49.71
2.53115	49.71
2.54782	49.74
2.56448	49.76
2.58115	49.78
2.59782	49.80
2.61448	49.81
2.63115	49.82
2.64782	49.82
2.66448	49.83
2.68115	49.83
2.69782	49.84
2.71448	49.85
2.73115	49.86
2.74782	49.86
2.76448	49.87
2.78115	49.85
2.79782	49.84
2.81448	49.85
2.83115	49.86
2.84782	49.87
2.86448	49.88
2.88115	49.87
2.89782	49.89
2.91448	49.90
2.93115	49.91
2.94782	49.92
2.96448	49.94
2.98115	49.94
2.99782	49.95
3.01448	49.97
3.03115	49.98
3.04782	49.98
3.06448	49.99
3.08115	50.01
3.09782	50.01
3.11448	50.01
3.13115	50.03
3.14782	50.03
3.16448	50.02
3.18115	50.02
3.19782	50.02
3.21448	50.03
3.23115	50.03
3.24782	50.03
3.26448	50.03
3.28115	50.04
3.29782	50.04
3.31448	50.05
3.33115	50.07
3.34782	50.08
3.36448	50.10
3.38115	50.10
3.39782	50.11
3.41448	50.10
3.43115	50.10
3.44782	50.08
3.46448	50.07
3.48115	50.05
3.49782	50.04
3.51448	50.02
3.53115	50.02
3.54782	50.02
3.56448	50.03
3.58115	50.05
3.59782	50.06
3.61448	50.06
3.63115	50.06
3.64782	50.06
3.66448	50.06
3.68115	50.06
3.69782	50.06
3.71448	50.07
3.73115	50.09
3.74782	50.09
3.76448	50.09
3.78115	50.09
3.79782	50.09
3.81448	50.10
3.83115	50.09
3.84782	50.08
3.86448	50.08
3.88115	50.07
3.89782	50.06
3.91448	50.04
3.93115	50.02
3.94782	50.02
3.96448	50.01
3.98115	50.01
3.99782	50.00

[Status Trace (Injection Unit Temperature)]
Interval(msec)	1000
# of Points	240
Start Time(min)	0.014
End Time(min)	3.998
Intensity Units	
Intensity Multiplier	1
R.Time (min)	Intensity
0.01448	99.98
0.03115	99.98
0.04782	99.98
0.06448	99.98
0.08115	99.98
0.09782	99.98
0.11448	99.98
0.13115	99.98
0.14782	99.98
0.16448	99.98
0.18115	99.98
0.19782	99.98
0.21448	99.98
0.23115	99.98
0.24782	99.97
0.26448	99.98
0.28115	99.98
0.29782	99.98
0.31448	99.98
0.33115	99.98
0.34782	99.98
0.36448	99.98
0.38115	99.98
0.39782	99.98
0.41448	99.98
0.43115	99.98
0.44782	99.98
0.46448	99.98
0.48115	99.98
0.49782	99.98
0.51448	99.98
0.53115	99.98
0.54782	99.98
0.56448	99.98
0.58115	99.98
0.59782	99.98
0.61448	99.98
0.63115	99.98
0.64782	99.98
0.66448	99.98
0.68115	99.98
0.69782	99.98
0.71448	99.98
0.73115	99.98
0.74782	99.98
0.76448	99.98
0.78115	99.98
0.79782	99.98
0.81448	99.98
0.83115	99.98
0.84782	99.98
0.86448	99.98
0.88115	99.98
0.89782	99.98
0.91448	99.98
0.93115	99.99
0.94782	99.98
0.96448	99.98
0.98115	99.98
0.99782	99.98
1.01448	99.98
1.03115	99.98
1.04782	99.98
1.06448	99.98
1.08115	99.99
1.09782	99.98
1.11448	99.99
1.13115	99.99
1.14782	99.98
1.16448	99.98
1.18115	99.99
1.19782	99.99
1.21448	99.99
1.23115	99.99
1.24782	99.99
1.26448	99.99
1.28115	99.99
1.29782	99.99
1.31448	99.99
1.33115	99.99
1.34782	99.99
1.36448	99.99
1.38115	99.99
1.39782	99.99
1.41448	99.99
1.43115	99.99
1.44782	99.99
1.46448	99.99
1.48115	99.99
1.49782	99.99
1.51448	99.99
1.53115	99.99
1.54782	99.99
1.56448	99.99
1.58115	99.99
1.59782	99.99
1.61448	99.99
1.63115	99.99
1.64782	99.99
1.66448	99.99
1.68115	99.99
1.69782	99.99
1.71448	99.99
1.73115	99.99
1.74782	99.99
1.76448	99.99
1.78115	99.99
1.79782	99.99
1.81448	99.99
1.83115	99.99
1.84782	99.99
1.86448	99.98
1.88115	99.98
1.89782	99.98
1.91448	99.98
1.93115	99.98
1.94782	99.98
1.96448	99.98
1.98115	99.98
1.99782	99.98
2.01448	99.98
2.03115	99.98
2.04782	99.98
2.06448	99.97
2.08115	99.97
2.09782	99.97
2.11448	99.97
2.13115	99.97
2.14782	99.97
2.16448	99.97
2.18115	99.97
2.19782	99.97
2.21448	99.96
2.23115	99.97
2.24782	99.97
2.26448	99.96
2.28115	99.97
2.29782	99.97
2.31448	99.97
2.33115	99.96
2.34782	99.97
2.36448	99.97
2.38115	99.96
2.39782	99.96
2.41448	99.97
2.43115	99.97
2.44782	99.97
2.46448	99.97
2.48115	99.97
2.49782	99.97
2.51448	99.97
2.53115	99.97
2.54782	99.97
2.56448	99.97
2.58115	99.98
2.59782	99.97
2.61448	99.98
2.63115	99.98
2.64782	99.98
2.66448	99.98
2.68115	99.99
2.69782	99.98
2.71448	99.99
2.73115	99.99
2.74782	99.99
2.76448	99.99
2.78115	100.00
2.79782	100.00
2.81448	100.00
2.83115	100.00
2.84782	100.00
2.86448	100.00
2.88115	100.01
2.89782	100.01
2.91448	100.01
2.93115	100.01
2.94782	100.01
2.96448	100.02
2.98115	100.02
2.99782	100.02
3.01448	100.01
3.03115	100.02
3.04782	100.02
3.06448	100.02
3.08115	100.02
3.09782	100.03
3.11448	100.03
3.13115	100.03
3.14782	100.02
3.16448	100.03
3.18115	100.03
3.19782	100.02
3.21448	100.03
3.23115	100.03
3.24782	100.03
3.26448	100.03
3.28115	100.04
3.29782	100.04
3.31448	100.03
3.33115	100.03
3.34782	100.03
3.36448	100.03
3.38115	100.04
3.39782	100.03
3.41448	100.03
3.43115	100.04
3.44782	100.04
3.46448	100.04
3.48115	100.04
3.49782	100.04
3.51448	100.04
3.53115	100.04
3.54782	100.04
3.56448	100.04
3.58115	100.04
3.59782	100.04
3.61448	100.04
3.63115	100.05
3.64782	100.04
3.66448	100.04
3.68115	100.05
3.69782	100.05
3.71448	100.05
3.73115	100.05
3.74782	100.05
3.76448	100.05
3.78115	100.05
3.79782	100.05
3.81448	100.05
3.83115	100.05
3.84782	100.05
3.86448	100.05
3.88115	100.05
3.89782	100.05
3.91448	100.05
3.93115	100.05
3.94782	100.05
3.96448	100.05
3.98115	100.05
3.99782	100.05

[Status Trace (Carrier Gas Pressure)]
Interval(msec)	1000
# of Points	240
Start Time(min)	0.014
End Time(min)	3.998
Intensity Units	
Intensity Multiplier	1
R.Time (min)	Intensity
0.01448	57.31
0.03115	55.42
0.04782	57.94
0.06448	59.85
0.08115	58.75
0.09782	57.98
0.11448	57.99
0.13115	58.01
0.14782	58.01
0.16448	58.00
0.18115	58.00
0.19782	58.00
0.21448	58.00
0.23115	58.00
0.24782	58.00
0.26448	58.00
0.28115	58.00
0.29782	58.00
0.31448	58.00
0.33115	58.00
0.34782	58.00
0.36448	58.00
0.38115	58.00
0.39782	58.00
0.41448	58.00
0.43115	58.00
0.44782	58.00
0.46448	58.00
0.48115	58.00
0.49782	58.00
0.51448	58.00
0.53115	58.00
0.54782	58.00
0.56448	58.00
0.58115	58.00
0.59782	58.00
0.61448	58.00
0.63115	58.00
0.64782	58.00
0.66448	58.00
0.68115	58.00
0.69782	58.00
0.71448	58.00
0.73115	58.00
0.74782	58.00
0.76448	58.00
0.78115	58.00
0.79782	58.00
0.81448	58.00
0.83115	58.00
0.84782	58.00
0.86448	58.00
0.88115	58.00
0.89782	58.00
0.91448	58.00
0.93115	58.00
0.94782	58.00
0.96448	58.00
0.98115	58.00
0.99782	58.00
1.01448	58.00
1.03115	58.00
1.04782	58.00
1.06448	58.00
1.08115	58.00
1.09782	58.00
1.11448	58.00
1.13115	58.00
1.14782	58.00
1.16448	58.00
1.18115	58.00
1.19782	58.00
1.21448	58.00
1.23115	58.00
1.24782	58.00
1.26448	58.00
1.28115	58.00
1.29782	58.00
1.31448	58.00
1.33115	58.00
1.34782	58.00
1.36448	58.00
1.38115	58.00
1.39782	58.00
1.41448	58.00
1.43115	58.00
1.44782	58.00
1.46448	58.00
1.48115	58.00
1.49782	58.00
1.51448	58.00
1.53115	58.00
1.54782	58.00
1.56448	58.00
1.58115	58.00
1.59782	58.00
1.61448	58.00
1.63115	58.00
1.64782	58.00
1.66448	58.00
1.68115	58.01
1.69782	58.00
1.71448	58.00
1.73115	58.00
1.74782	58.00
1.76448	58.00
1.78115	58.00
1.79782	58.00
1.81448	58.00
1.83115	58.00
1.84782	58.00
1.86448	58.00
1.88115	58.00
1.89782	58.00
1.91448	58.00
1.93115	58.00
1.94782	58.00
1.96448	58.00
1.98115	58.00
1.99782	58.00
2.01448	58.00
2.03115	58.00
2.04782	58.00
2.06448	58.00
2.08115	58.00
2.09782	58.00
2.11448	58.00
2.13115	58.00
2.14782	58.00
2.16448	58.00
2.18115	58.00
2.19782	58.00
2.21448	58.00
2.23115	58.00
2.24782	58.00
2.26448	58.00
2.28115	58.00
2.29782	58.00
2.31448	58.00
2.33115	58.00
2.34782	58.00
2.36448	58.00
2.38115	58.00
2.39782	57.99
2.41448	58.00
2.43115	58.00
2.44782	58.00
2.46448	58.00
2.48115	58.00
2.49782	58.00
2.51448	57.99
2.53115	57.99
2.54782	58.00
2.56448	58.00
2.58115	58.00
2.59782	58.00
2.61448	58.00
2.63115	58.00
2.64782	58.00
2.66448	58.00
2.68115	58.00
2.69782	58.00
2.71448	58.00
2.73115	58.00
2.74782	58.00
2.76448	58.00
2.78115	58.00
2.79782	58.00
2.81448	58.00
2.83115	58.00
2.84782	58.00
2.86448	58.00
2.88115	58.00
2.89782	58.00
2.91448	58.00
2.93115	58.00
2.94782	58.00
2.96448	58.00
2.98115	58.00
2.99782	58.00
3.01448	58.00
3.03115	58.00
3.04782	58.00
3.06448	58.00
3.08115	58.00
3.09782	58.00
3.11448	58.00
3.13115	58.00
3.14782	58.00
3.16448	58.00
3.18115	58.00
3.19782	58.00
3.21448	58.00
3.23115	58.00
3.24782	58.00
3.26448	58.00
3.28115	58.00
3.29782	58.00
3.31448	58.00
3.33115	58.00
3.34782	58.00
3.36448	58.00
3.38115	58.00
3.39782	58.00
3.41448	58.00
3.43115	58.00
3.44782	58.00
3.46448	58.00
3.48115	58.00
3.49782	58.00
3.51448	58.00
3.53115	58.00
3.54782	58.00
3.56448	58.00
3.58115	58.00
3.59782	58.00
3.61448	58.00
3.63115	58.00
3.64782	58.00
3.66448	58.00
3.68115	58.00
3.69782	58.00
3.71448	58.00
3.73115	58.00
3.74782	58.00
3.76448	58.00
3.78115	58.00
3.79782	58.00
3.81448	58.00
3.83115	58.00
3.84782	58.00
3.86448	58.00
3.88115	58.00
3.89782	58.00
3.91448	58.00
3.93115	58.00
3.94782	58.00
3.96448	58.00
3.98115	58.00
3.99782	58.00

[Status Trace (Carrier Gas Flow)]
Interval(msec)	1000
# of Points	240
Start Time(min)	0.014
End Time(min)	3.998
Intensity Units	
Intensity Multiplier	1
R.Time (min)	Intensity
0.01448	33.94
0.03115	34.54
0.04782	34.55
0.06448	34.51
0.08115	34.51
0.09782	34.51
0.11448	34.52
0.13115	34.52
0.14782	34.52
0.16448	34.52
0.18115	34.52
0.19782	34.52
0.21448	34.52
0.23115	34.52
0.24782	34.52
0.26448	34.52
0.28115	34.52
0.29782	34.52
0.31448	34.52
0.33115	34.52
0.34782	34.52
0.36448	34.52
0.38115	34.52
0.39782	34.52
0.41448	34.51
0.43115	34.52
0.44782	34.52
0.46448	34.52
0.48115	34.52
0.49782	34.52
0.51448	34.52
0.53115	34.52
0.54782	34.52
0.56448	34.52
0.58115	34.51
0.59782	34.52
0.61448	34.52
0.63115	34.52
0.64782	34.51
0.66448	34.52
0.68115	34.52
0.69782	34.51
0.71448	34.51
0.73115	34.52
0.74782	34.52
0.76448	34.51
0.78115	34.53
0.79782	34.52
0.81448	34.52
0.83115	34.52
0.84782	34.52
0.86448	34.52
0.88115	34.51
0.89782	34.52
0.91448	34.52
0.93115	34.52
0.94782	34.52
0.96448	34.52
0.98115	34.52
0.99782	34.52
1.01448	34.52
1.03115	34.52
1.04782	34.52
1.06448	34.52
1.08115	34.52
1.09782	34.52
1.11448	34.51
1.13115	34.52
1.14782	34.52
1.16448	34.52
1.18115	34.51
1.19782	34.52
1.21448	34.52
1.23115	34.52
1.24782	34.52
1.26448	34.52
1.28115	34.52
1.29782	34.52
1.31448	34.53
1.33115	34.52
1.34782	34.51
1.36448	34.52
1.38115	34.52
1.39782	34.52
1.41448	34.52
1.43115	34.52
1.44782	34.52
1.46448	34.51
1.48115	34.53
1.49782	34.52
1.51448	34.52
1.53115	34.52
1.54782	34.52
1.56448	34.52
1.58115	34.52
1.59782	34.52
1.61448	34.52
1.63115	34.52
1.64782	34.52
1.66448	34.52
1.68115	34.52
1.69782	34.52
1.71448	34.52
1.73115	34.52
1.74782	34.52
1.76448	34.52
1.78115	34.52
1.79782	34.52
1.81448	34.52
1.83115	34.52
1.84782	34.52
1.86448	34.51
1.88115	34.52
1.89782	34.52
1.91448	34.52
1.93115	34.52
1.94782	34.52
1.96448	34.52
1.98115	34.52
1.99782	34.52
2.01448	34.52
2.03115	34.52
2.04782	34.51
2.06448	34.51
2.08115	34.52
2.09782	34.52
2.11448	34.52
2.13115	34.52
2.14782	34.52
2.16448	34.51
2.18115	34.51
2.19782	34.52
2.21448	34.52
2.23115	34.52
2.24782	34.52
2.26448	34.52
2.28115	34.52
2.29782	34.52
2.31448	34.52
2.33115	34.52
2.34782	34.51
2.36448	34.52
2.38115	34.52
2.39782	34.51
2.41448	34.51
2.43115	34.52
2.44782	34.52
2.46448	34.51
2.48115	34.52
2.49782	34.52
2.51448	34.51
2.53115	34.52
2.54782	34.53
2.56448	34.52
2.58115	34.52
2.59782	34.52
2.61448	34.53
2.63115	34.51
2.64782	34.52
2.66448	34.52
2.68115	34.51
2.69782	34.52
2.71448	34.52
2.73115	34.52
2.74782	34.52
2.76448	34.52
2.78115	34.52
2.79782	34.52
2.81448	34.52
2.83115	34.52
2.84782	34.52
2.86448	34.51
2.88115	34.52
2.89782	34.52
2.91448	34.51
2.93115	34.52
2.94782	34.52
2.96448	34.52
2.98115	34.51
2.99782	34.52
3.01448	34.52
3.03115	34.52
3.04782	34.52
3.06448	34.52
3.08115	34.51
3.09782	34.51
3.11448	34.52
3.13115	34.52
3.14782	34.51
3.16448	34.51
3.18115	34.52
3.19782	34.52
3.21448	34.52
3.23115	34.52
3.24782	34.52
3.26448	34.52
3.28115	34.51
3.29782	34.52
3.31448	34.52
3.33115	34.51
3.34782	34.52
3.36448	34.52
3.38115	34.52
3.39782	34.52
3.41448	34.52
3.43115	34.51
3.44782	34.51
3.46448	34.51
3.48115	34.52
3.49782	34.51
3.51448	34.52
3.53115	34.52
3.54782	34.52
3.56448	34.51
3.58115	34.52
3.59782	34.52
3.61448	34.52
3.63115	34.52
3.64782	34.52
3.66448	34.52
3.68115	34.52
3.69782	34.51
3.71448	34.52
3.73115	34.52
3.74782	34.52
3.76448	34.52
3.78115	34.52
3.79782	34.52
3.81448	34.52
3.83115	34.53
3.84782	34.52
3.86448	34.51
3.88115	34.52
3.89782	34.52
3.91448	34.52
3.93115	34.51
3.94782	34.52
3.96448	34.52
3.98115	34.52
3.99782	34.52

[Status Trace (Column Flow)]
Interval(msec)	1000
# of Points	240
Start Time(min)	0.014
End Time(min)	3.998
Intensity Units	
Intensity Multiplier	1
R.Time (min)	Intensity
0.01448	5.41
0.03115	5.20
0.04782	5.49
0.06448	5.71
0.08115	5.58
0.09782	5.49
0.11448	5.49
0.13115	5.49
0.14782	5.49
0.16448	5.49
0.18115	5.49
0.19782	5.49
0.21448	5.49
0.23115	5.49
0.24782	5.49
0.26448	5.49
0.28115	5.49
0.29782	5.49
0.31448	5.49
0.33115	5.49
0.34782	5.49
0.36448	5.49
0.38115	5.49
0.39782	5.49
0.41448	5.49
0.43115	5.49
0.44782	5.49
0.46448	5.49
0.48115	5.49
0.49782	5.49
0.51448	5.49
0.53115	5.49
0.54782	5.49
0.56448	5.49
0.58115	5.49
0.59782	5.49
0.61448	5.49
0.63115	5.49
0.64782	5.49
0.66448	5.49
0.68115	5.49
0.69782	5.49
0.71448	5.49
0.73115	5.49
0.74782	5.49
0.76448	5.49
0.78115	5.49
0.79782	5.49
0.81448	5.49
0.83115	5.49
0.84782	5.49
0.86448	5.49
0.88115	5.49
0.89782	5.49
0.91448	5.49
0.93115	5.49
0.94782	5.49
0.96448	5.49
0.98115	5.49
0.99782	5.49
1.01448	5.49
1.03115	5.49
1.04782	5.49
1.06448	5.49
1.08115	5.49
1.09782	5.49
1.11448	5.49
1.13115	5.49
1.14782	5.49
1.16448	5.49
1.18115	5.49
1.19782	5.49
1.21448	5.49
1.23115	5.49
1.24782	5.49
1.26448	5.49
1.28115	5.49
1.29782	5.49
1.31448	5.49
1.33115	5.49
1.34782	5.49
1.36448	5.49
1.38115	5.49
1.39782	5.49
1.41448	5.49
1.43115	5.49
1.44782	5.49
1.46448	5.49
1.48115	5.49
1.49782	5.49
1.51448	5.49
1.53115	5.49
1.54782	5.49
1.56448	5.49
1.58115	5.49
1.59782	5.49
1.61448	5.49
1.63115	5.49
1.64782	5.48
1.66448	5.47
1.68115	5.46
1.69782	5.45
1.71448	5.44
1.73115	5.43
1.74782	5.42
1.76448	5.41
1.78115	5.40
1.79782	5.39
1.81448	5.38
1.83115	5.37
1.84782	5.36
1.86448	5.35
1.88115	5.34
1.89782	5.33
1.91448	5.32
1.93115	5.31
1.94782	5.30
1.96448	5.29
1.98115	5.28
1.99782	5.27
2.01448	5.26
2.03115	5.25
2.04782	5.24
2.06448	5.23
2.08115	5.22
2.09782	5.21
2.11448	5.20
2.13115	5.19
2.14782	5.18
2.16448	5.18
2.18115	5.17
2.19782	5.16
2.21448	5.15
2.23115	5.14
2.24782	5.13
2.26448	5.12
2.28115	5.11
2.29782	5.10
2.31448	5.09
2.33115	5.08
2.34782	5.07
2.36448	5.07
2.38115	5.06
2.39782	5.06
2.41448	5.06
2.43115	5.06
2.44782	5.06
2.46448	5.06
2.48115	5.06
2.49782	5.06
2.51448	5.06
2.53115	5.06
2.54782	5.06
2.56448	5.06
2.58115	5.06
2.59782	5.06
2.61448	5.06
2.63115	5.06
2.64782	5.06
2.66448	5.06
2.68115	5.06
2.69782	5.06
2.71448	5.06
2.73115	5.06
2.74782	5.06
2.76448	5.06
2.78115	5.06
2.79782	5.06
2.81448	5.06
2.83115	5.06
2.84782	5.06
2.86448	5.06
2.88115	5.06
2.89782	5.06
2.91448	5.06
2.93115	5.06
2.94782	5.05
2.96448	5.05
2.98115	5.05
2.99782	5.05
3.01448	5.05
3.03115	5.05
3.04782	5.05
3.06448	5.05
3.08115	5.05
3.09782	5.05
3.11448	5.05
3.13115	5.05
3.14782	5.05
3.16448	5.05
3.18115	5.05
3.19782	5.05
3.21448	5.05
3.23115	5.05
3.24782	5.05
3.26448	5.05
3.28115	5.05
3.29782	5.05
3.31448	5.05
3.33115	5.05
3.34782	5.05
3.36448	5.05
3.38115	5.05
3.39782	5.05
3.41448	5.05
3.43115	5.05
3.44782	5.05
3.46448	5.05
3.48115	5.05
3.49782	5.05
3.51448	5.05
3.53115	5.05
3.54782	5.05
3.56448	5.05
3.58115	5.05
3.59782	5.05
3.61448	5.05
3.63115	5.05
3.64782	5.05
3.66448	5.05
3.68115	5.05
3.69782	5.05
3.71448	5.05
3.73115	5.05
3.74782	5.05
3.76448	5.05
3.78115	5.05
3.79782	5.05
3.81448	5.05
3.83115	5.05
3.84782	5.05
3.86448	5.05
3.88115	5.05
3.89782	5.05
3.91448	5.05
3.93115	5.05
3.94782	5.05
3.96448	5.05
3.98115	5.05
3.99782	5.05

[Status Trace (Linear Velocity)]
Interval(msec)	1000
# of Points	240
Start Time(min)	0.014
End Time(min)	3.998
Intensity Units	
Intensity Multiplier	1
R.Time (min)	Intensity
0.01448	38.55
0.03115	37.31
0.04782	38.97
0.06448	40.22
0.08115	39.50
0.09782	39.00
0.11448	39.00
0.13115	39.01
0.14782	39.01
0.16448	39.01
0.18115	39.01
0.19782	39.01
0.21448	39.01
0.23115	39.01
0.24782	39.01
0.26448	39.01
0.28115	39.01
0.29782	39.01
0.31448	39.01
0.33115	39.01
0.34782	39.00
0.36448	39.00
0.38115	39.00
0.39782	39.01
0.41448	39.01
0.43115	39.01
0.44782	39.01
0.46448	39.01
0.48115	39.01
0.49782	39.01
0.51448	39.00
0.53115	39.01
0.54782	39.01
0.56448	39.01
0.58115	39.01
0.59782	39.01
0.61448	39.01
0.63115	39.01
0.64782	39.01
0.66448	39.01
0.68115	39.01
0.69782	39.01
0.71448	39.01
0.73115	39.01
0.74782	39.01
0.76448	39.01
0.78115	39.01
0.79782	39.01
0.81448	39.01
0.83115	39.01
0.84782	39.01
0.86448	39.01
0.88115	39.01
0.89782	39.01
0.91448	39.01
0.93115	39.01
0.94782	39.01
0.96448	39.01
0.98115	39.01
0.99782	39.01
1.01448	39.01
1.03115	39.01
1.04782	39.01
1.06448	39.01
1.08115	39.01
1.09782	39.01
1.11448	39.01
1.13115	39.01
1.14782	39.01
1.16448	39.01
1.18115	39.01
1.19782	39.01
1.21448	39.01
1.23115	39.01
1.24782	39.01
1.26448	39.01
1.28115	39.01
1.29782	39.01
1.31448	39.01
1.33115	39.01
1.34782	39.01
1.36448	39.01
1.38115	39.01
1.39782	39.01
1.41448	39.01
1.43115	39.01
1.44782	39.01
1.46448	39.01
1.48115	39.01
1.49782	39.01
1.51448	39.01
1.53115	39.01
1.54782	39.01
1.56448	39.01
1.58115	39.01
1.59782	39.01
1.61448	39.00
1.63115	38.99
1.64782	38.97
1.66448	38.94
1.68115	38.91
1.69782	38.88
1.71448	38.84
1.73115	38.81
1.74782	38.78
1.76448	38.74
1.78115	38.71
1.79782	38.68
1.81448	38.65
1.83115	38.62
1.84782	38.59
1.86448	38.56
1.88115	38.52
1.89782	38.49
1.91448	38.47
1.93115	38.43
1.94782	38.40
1.96448	38.37
1.98115	38.34
1.99782	38.31
2.01448	38.28
2.03115	38.25
2.04782	38.23
2.06448	38.20
2.08115	38.16
2.09782	38.14
2.11448	38.11
2.13115	38.08
2.14782	38.05
2.16448	38.02
2.18115	37.99
2.19782	37.96
2.21448	37.93
2.23115	37.90
2.24782	37.87
2.26448	37.84
2.28115	37.81
2.29782	37.78
2.31448	37.75
2.33115	37.72
2.34782	37.69
2.36448	37.67
2.38115	37.65
2.39782	37.65
2.41448	37.65
2.43115	37.65
2.44782	37.65
2.46448	37.65
2.48115	37.65
2.49782	37.65
2.51448	37.65
2.53115	37.64
2.54782	37.65
2.56448	37.65
2.58115	37.65
2.59782	37.64
2.61448	37.64
2.63115	37.64
2.64782	37.64
2.66448	37.64
2.68115	37.64
2.69782	37.64
2.71448	37.64
2.73115	37.64
2.74782	37.64
2.76448	37.64
2.78115	37.64
2.79782	37.64
2.81448	37.64
2.83115	37.64
2.84782	37.64
2.86448	37.64
2.88115	37.64
2.89782	37.64
2.91448	37.64
2.93115	37.63
2.94782	37.63
2.96448	37.63
2.98115	37.63
2.99782	37.63
3.01448	37.63
3.03115	37.63
3.04782	37.63
3.06448	37.63
3.08115	37.63
3.09782	37.63
3.11448	37.62
3.13115	37.62
3.14782	37.62
3.16448	37.62
3.18115	37.62
3.19782	37.62
3.21448	37.62
3.23115	37.62
3.24782	37.62
3.26448	37.62
3.28115	37.62
3.29782	37.62
3.31448	37.62
3.33115	37.62
3.34782	37.62
3.36448	37.62
3.38115	37.62
3.39782	37.62
3.41448	37.62
3.43115	37.62
3.44782	37.62
3.46448	37.62
3.48115	37.62
3.49782	37.62
3.51448	37.62
3.53115	37.62
3.54782	37.62
3.56448	37.62
3.58115	37.62
3.59782	37.62
3.61448	37.62
3.63115	37.62
3.64782	37.62
3.66448	37.62
3.68115	37.62
3.69782	37.62
3.71448	37.62
3.73115	37.62
3.74782	37.62
3.76448	37.62
3.78115	37.62
3.79782	37.62
3.81448	37.62
3.83115	37.62
3.84782	37.62
3.86448	37.62
3.88115	37.62
3.89782	37.62
3.91448	37.62
3.93115	37.62
3.94782	37.62
3.96448	37.62
3.98115	37.63
3.99782	37.63

