[Header]
Application Name	LabSolutions
Version	5.110
Data File Name	C:\Users\User\Desktop\Junior\UIC Prairie Sampling\6.15.23\06152023_087.gcd
Output Date	6/26/2023
Output Time	12:05:13 PM

[File Information]
Type	Data File
Generated	6/23/2023 9:30:55 PM
Generated by	System Administrator
Modified	6/23/2023 9:38:27 PM
Modified by	System Administrator

[Sample Information]
Operator Name	System Administrator
Acquired	6/23/2023 9:34:27 PM
Sample Type	0:Unknown
Level	0
Sample Name	087
Sample ID	087
ISTD Amount1	1
ISTD Amount2	1
ISTD Amount3	1
ISTD Amount4	1
ISTD Amount5	1
ISTD Amount6	1
ISTD Amount7	1
ISTD Amount8	1
ISTD Amount9	1
ISTD Amount10	1
ISTD Amount11	1
ISTD Amount12	1
ISTD Amount13	1
ISTD Amount14	1
ISTD Amount15	1
ISTD Amount16	1
ISTD Amount17	1
ISTD Amount18	1
ISTD Amount19	1
ISTD Amount20	1
ISTD Amount21	1
ISTD Amount22	1
ISTD Amount23	1
ISTD Amount24	1
ISTD Amount25	1
ISTD Amount26	1
ISTD Amount27	1
ISTD Amount28	1
ISTD Amount29	1
ISTD Amount30	1
ISTD Amount31	1
ISTD Amount32	1
Sample Amount	1
Dilution Factor	1
Vial#	86
Injection Volume	1
Injection Count	1
Bar Code	

[Original Files]
Data File	C:\Users\User\Desktop\Junior\UIC Prairie Sampling\6.15.23\06152023_087.gcd
Method File	C:\LabSolutions\Data\GHG_4min_2022\ghg3_togas_w_acet_4 min_new_int.gcm
Batch File	C:\LabSolutions\Data\AutoSamplerTesting\06152023.gcb
Report Format File	c:\LabSolutions\System\DEFAULT.lsr

[File Description]


[Configuration]
Instrument Name	C0B7VH3-Instrument1
Instrument #	1
Line #	1
# of Detectors	3
Detector ID	DET#1	DET#2	DET#3
Detector Name	FID	PTCD	ECD
# of Channels	1	1	1

[Peak Table(Ch1)]
# of Peaks	3
Peak#	R.Time	I.Time	F.Time	Area	Height	A/H	Conc.	Mark	ID#	Name	k'	Plate #	Plate Ht.	Tailing	Resolution	Sep.Factor	Area Ratio	Height Ratio	Conc. %	Norm Conc.
1	1.472	1.435	1.523	3371	1706	1.976	0.000	   	1	CO	0.000	9711	15.447	1.324	0.000	0.000	0	0	0.000	0.000
2	1.564	1.523	1.622	3732	1893	1.972	18.193	 V 	2	CH4	0.062	11603	12.928	1.035	1.556	0.000	0	0	2.789	2.789
3	1.989	1.941	2.543	3290220	1569790	2.096	634.086	   	3	CO2	0.351	17553	8.545	1.255	7.202	5.640	0	0	97.211	97.211

[Peak Table(Ch2)]
# of Peaks	0

[Peak Table(Ch3)]
# of Peaks	4
Peak#	R.Time	I.Time	F.Time	Area	Height	A/H	Conc.	Mark	ID#	Name	k'	Plate #	Plate Ht.	Tailing	Resolution	Sep.Factor	Area Ratio	Height Ratio	Conc. %	Norm Conc.
1	2.499	2.440	2.539	3895	813	4.790	0.000	   			0.000	1671	89.742	0.000	0.000	0.000	0	0	0.000	0.000
2	2.572	2.539	2.660	4637	753	6.158	0.000	 V 			0.029	342	439.157	0.000	0.183	0.000	0	0	0.000	0.000
3	2.726	2.660	2.825	5216	583	8.939	0.000	 V 			0.091	228	657.679	0.000	0.241	3.100	0	0	0.000	0.000
4	2.887	2.825	3.815	36965	5716	6.467	0.547	 V 	1	N2O	0.156	11946	12.556	0.000	0.390	1.710	0	0	100.000	100.000

[Compound Results(Ch1)]
# of IDs	6
ID#	Name	R.Time	Area	Height	Conc.	Curve	3rd	2nd	1st	Constant	Area Ratio	Height Ratio	Conc. %	Norm Conc.
1	CO	1.472	3371	1706	0.000	Linear	0.000000e+00	0.000000e+00	0.000000e+00	0.000000e+00	0	0	0.000	0.000
2	CH4	1.564	3732	1893	18.193	Linear	0.000000e+00	0.000000e+00	2.051179e+002	0.000000e+00	0	0	2.789	2.789
3	CO2	1.989	3290220	1569790	634.086	Linear	0.000000e+00	0.000000e+00	5.188919e+003	0.000000e+00	0	0	97.211	97.211
4	Ethylene	0.000	0	0	0.000	Linear	0.000000e+00	0.000000e+00	0.000000e+00	0.000000e+00	0	0	0.000	0.000
5	Acetylene	0.000	0	0	0.000	Linear	0.000000e+00	0.000000e+00	0.000000e+00	0.000000e+00	0	0	0.000	0.000
6	Ethane	0.000	0	0	0.000	Linear	0.000000e+00	0.000000e+00	0.000000e+00	0.000000e+00	0	0	0.000	0.000

[Compound Results(Ch2)]
# of IDs	5
ID#	Name	R.Time	Area	Height	Conc.	Curve	3rd	2nd	1st	Constant	Area Ratio	Height Ratio	Conc. %	Norm Conc.
1	Hydrogen	0.000	0	0	0.000	Linear	0.000000e+00	0.000000e+00	0.000000e+00	0.000000e+00	0	0	0.000	0.000
2	Oxygen	0.000	0	0	0.000	Linear	0.000000e+00	0.000000e+00	0.000000e+00	0.000000e+00	0	0	0.000	0.000
3	Nitrogen	0.000	0	0	0.000	Linear	0.000000e+00	0.000000e+00	0.000000e+00	0.000000e+00	0	0	0.000	0.000
4	Methane	0.000	0	0	0.000	Linear	0.000000e+00	0.000000e+00	0.000000e+00	0.000000e+00	0	0	0.000	0.000
5	Carbon Monoxide	0.000	0	0	0.000	Linear	0.000000e+00	0.000000e+00	0.000000e+00	0.000000e+00	0	0	0.000	0.000

[Compound Results(Ch3)]
# of IDs	2
ID#	Name	R.Time	Area	Height	Conc.	Curve	3rd	2nd	1st	Constant	Area Ratio	Height Ratio	Conc. %	Norm Conc.
1	N2O	2.887	36965	5716	0.547	Linear	0.000000e+00	0.000000e+00	6.759880e+004	0.000000e+00	0	0	100.000	100.000
2	SF6	0.000	0	0	0.000	Linear	0.000000e+00	0.000000e+00	0.000000e+00	0.000000e+00	0	0	0.000	0.000

[Group Results(Ch1)]
# of Groups	0

[Group Results(Ch2)]
# of Groups	0

[Group Results(Ch3)]
# of Groups	0

[Chromatogram (Ch1)]
Interval(msec)	220
# of Points	1091
Start Time(min)	0.002
End Time(min)	3.998
R.Time (min)	Intensity
0.00167	-41
0.00533	-42
0.00900	-39
0.01267	-36
0.01633	-29
0.02000	-20
0.02367	-13
0.02733	-12
0.03100	-14
0.03467	-15
0.03833	-16
0.04200	-17
0.04567	-20
0.04933	-19
0.05300	-14
0.05667	-9
0.06033	-9
0.06400	-12
0.06767	-16
0.07133	-21
0.07500	-26
0.07867	-29
0.08233	-31
0.08600	-31
0.08967	-28
0.09333	-24
0.09700	-20
0.10067	-16
0.10433	-13
0.10800	-12
0.11167	-15
0.11533	-19
0.11900	-23
0.12267	-22
0.12633	-17
0.13000	-14
0.13367	-12
0.13733	-7
0.14100	-3
0.14467	-5
0.14833	-11
0.15200	-17
0.15567	-26
0.15933	-35
0.16300	-40
0.16667	-44
0.17033	-45
0.17400	-47
0.17767	-45
0.18133	-39
0.18500	-32
0.18867	-24
0.19233	-21
0.19600	-20
0.19967	-21
0.20333	-24
0.20700	-27
0.21067	-30
0.21433	-32
0.21800	-31
0.22167	-29
0.22533	-25
0.22900	-20
0.23267	-16
0.23633	-16
0.24000	-19
0.24367	-21
0.24733	-23
0.25100	-23
0.25467	-25
0.25833	-26
0.26200	-27
0.26567	-31
0.26933	-38
0.27300	-43
0.27667	-44
0.28033	-41
0.28400	-37
0.28767	-32
0.29133	-27
0.29500	-19
0.29867	-11
0.30233	-9
0.30600	-14
0.30967	-22
0.31333	-32
0.31700	-39
0.32067	-44
0.32433	-46
0.32800	-48
0.33167	-47
0.33533	-42
0.33900	-34
0.34267	-28
0.34633	-21
0.35000	-15
0.35367	-15
0.35733	-24
0.36100	-35
0.36467	-45
0.36833	-52
0.37200	-55
0.37567	-55
0.37933	-52
0.38300	-48
0.38667	-44
0.39033	-42
0.39400	-37
0.39767	-34
0.40133	-34
0.40500	-38
0.40867	-42
0.41233	-45
0.41600	-49
0.41967	-50
0.42333	-47
0.42700	-41
0.43067	-37
0.43433	-37
0.43800	-40
0.44167	-42
0.44533	-42
0.44900	-40
0.45267	-36
0.45633	-32
0.46000	-27
0.46367	-25
0.46733	-27
0.47100	-29
0.47467	-26
0.47833	-22
0.48200	-20
0.48567	-23
0.48933	-29
0.49300	-36
0.49667	-39
0.50033	-43
0.50400	-47
0.50767	-50
0.51133	-54
0.51500	-52
0.51867	-45
0.52233	-40
0.52600	-40
0.52967	-48
0.53333	-59
0.53700	-68
0.54067	-71
0.54433	-71
0.54800	-68
0.55167	-64
0.55533	-60
0.55900	-59
0.56267	-59
0.56633	-57
0.57000	-53
0.57367	-46
0.57733	-39
0.58100	-33
0.58467	-31
0.58833	-35
0.59200	-38
0.59567	-39
0.59933	-42
0.60300	-52
0.60667	-63
0.61033	-73
0.61400	-79
0.61767	-80
0.62133	-76
0.62500	-69
0.62867	-61
0.63233	-52
0.63600	-42
0.63967	-35
0.64333	-28
0.64700	-24
0.65067	-26
0.65433	-33
0.65800	-36
0.66167	-37
0.66533	-40
0.66900	-45
0.67267	-48
0.67633	-49
0.68000	-46
0.68367	-39
0.68733	-32
0.69100	-31
0.69467	-32
0.69833	-37
0.70200	-43
0.70567	-47
0.70933	-48
0.71300	-44
0.71667	-41
0.72033	-40
0.72400	-41
0.72767	-44
0.73133	-48
0.73500	-53
0.73867	-55
0.74233	-55
0.74600	-59
0.74967	-61
0.75333	-61
0.75700	-59
0.76067	-55
0.76433	-51
0.76800	-47
0.77167	-45
0.77533	-44
0.77900	-44
0.78267	-44
0.78633	-45
0.79000	-48
0.79367	-53
0.79733	-56
0.80100	-58
0.80467	-59
0.80833	-57
0.81200	-54
0.81567	-51
0.81933	-48
0.82300	-43
0.82667	-39
0.83033	-34
0.83400	-36
0.83767	-44
0.84133	-55
0.84500	-65
0.84867	-69
0.85233	-67
0.85600	-64
0.85967	-62
0.86333	-59
0.86700	-56
0.87067	-53
0.87433	-52
0.87800	-54
0.88167	-57
0.88533	-60
0.88900	-62
0.89267	-65
0.89633	-66
0.90000	-68
0.90367	-73
0.90733	-76
0.91100	-71
0.91467	-62
0.91833	-54
0.92200	-50
0.92567	-49
0.92933	-53
0.93300	-56
0.93667	-56
0.94033	-57
0.94400	-60
0.94767	-61
0.95133	-59
0.95500	-61
0.95867	-64
0.96233	-66
0.96600	-66
0.96967	-65
0.97333	-62
0.97700	-56
0.98067	-52
0.98433	-53
0.98800	-57
0.99167	-60
0.99533	-65
0.99900	-65
1.00267	-60
1.00633	-57
1.01000	-58
1.01367	-59
1.01733	-59
1.02100	-62
1.02467	-67
1.02833	-72
1.03200	-76
1.03567	-76
1.03933	-72
1.04300	-69
1.04667	-70
1.05033	-74
1.05400	-77
1.05767	-79
1.06133	-76
1.06500	-71
1.06867	-70
1.07233	-72
1.07600	-78
1.07967	-82
1.08333	-80
1.08700	-75
1.09067	-71
1.09433	-69
1.09800	-71
1.10167	-74
1.10533	-76
1.10900	-79
1.11267	-83
1.11633	-86
1.12000	-87
1.12367	-86
1.12733	-82
1.13100	-77
1.13467	-71
1.13833	-64
1.14200	-55
1.14567	-47
1.14933	-41
1.15300	-40
1.15667	-45
1.16033	-54
1.16400	-61
1.16767	-66
1.17133	-71
1.17500	-72
1.17867	-72
1.18233	-75
1.18600	-76
1.18967	-75
1.19333	-72
1.19700	-72
1.20067	-74
1.20433	-75
1.20800	-74
1.21167	-75
1.21533	-74
1.21900	-73
1.22267	-72
1.22633	-72
1.23000	-70
1.23367	-67
1.23733	-63
1.24100	-59
1.24467	-57
1.24833	-60
1.25200	-63
1.25567	-67
1.25933	-72
1.26300	-77
1.26667	-83
1.27033	-87
1.27400	-91
1.27767	-93
1.28133	-92
1.28500	-91
1.28867	-92
1.29233	-90
1.29600	-82
1.29967	-69
1.30333	-58
1.30700	-52
1.31067	-55
1.31433	-66
1.31800	-79
1.32167	-90
1.32533	-97
1.32900	-99
1.33267	-98
1.33633	-96
1.34000	-90
1.34367	-86
1.34733	-84
1.35100	-77
1.35467	-66
1.35833	-56
1.36200	-54
1.36567	-59
1.36933	-69
1.37300	-83
1.37667	-96
1.38033	-105
1.38400	-112
1.38767	-114
1.39133	-112
1.39500	-108
1.39867	-104
1.40233	-101
1.40600	-99
1.40967	-96
1.41333	-94
1.41700	-91
1.42067	-89
1.42433	-90
1.42800	-90
1.43167	-87
1.43533	-77
1.43900	-65
1.44267	-62
1.44633	-27
1.45000	125
1.45367	405
1.45733	742
1.46100	1065
1.46467	1339
1.46833	1538
1.47200	1628
1.47567	1580
1.47933	1407
1.48300	1160
1.48667	895
1.49033	657
1.49400	464
1.49767	316
1.50133	204
1.50500	118
1.50867	54
1.51233	11
1.51600	-15
1.51967	-29
1.52333	-32
1.52700	-24
1.53067	-7
1.53433	39
1.53800	161
1.54167	401
1.54533	740
1.54900	1104
1.55267	1427
1.55633	1670
1.56000	1809
1.56367	1814
1.56733	1671
1.57100	1407
1.57467	1087
1.57833	780
1.58200	521
1.58567	321
1.58933	178
1.59300	82
1.59667	19
1.60033	-19
1.60400	-41
1.60767	-53
1.61133	-61
1.61500	-67
1.61867	-73
1.62233	-80
1.62600	-86
1.62967	-87
1.63333	-90
1.63700	-93
1.64067	-95
1.64433	-96
1.64800	-97
1.65167	-97
1.65533	-95
1.65900	-93
1.66267	-89
1.66633	-83
1.67000	-78
1.67367	-80
1.67733	-88
1.68100	-99
1.68467	-105
1.68833	-108
1.69200	-110
1.69567	-111
1.69933	-111
1.70300	-111
1.70667	-113
1.71033	-117
1.71400	-121
1.71767	-122
1.72133	-120
1.72500	-115
1.72867	-111
1.73233	-111
1.73600	-112
1.73967	-112
1.74333	-112
1.74700	-112
1.75067	-111
1.75433	-110
1.75800	-107
1.76167	-105
1.76533	-105
1.76900	-108
1.77267	-107
1.77633	-103
1.78000	-100
1.78367	-97
1.78733	-94
1.79100	-93
1.79467	-94
1.79833	-95
1.80200	-96
1.80567	-95
1.80933	-93
1.81300	-95
1.81667	-98
1.82033	-99
1.82400	-100
1.82767	-99
1.83133	-95
1.83500	-90
1.83867	-84
1.84233	-81
1.84600	-79
1.84967	-78
1.85333	-76
1.85700	-74
1.86067	-76
1.86433	-78
1.86800	-81
1.87167	-87
1.87533	-93
1.87900	-99
1.88267	-104
1.88633	-106
1.89000	-105
1.89367	-102
1.89733	-104
1.90100	-108
1.90467	-112
1.90833	-115
1.91200	-115
1.91567	-114
1.91933	-111
1.92300	-106
1.92667	-104
1.93033	-103
1.93400	-105
1.93767	-109
1.94133	-106
1.94500	-65
1.94867	230
1.95233	2039
1.95600	10515
1.95967	40369
1.96333	120212
1.96700	282181
1.97067	533599
1.97433	840162
1.97800	1143543
1.98167	1388465
1.98533	1536228
1.98900	1569743
1.99267	1492915
1.99633	1328547
2.00000	1112017
2.00367	881333
2.00733	667310
2.01100	487818
2.01467	348130
2.01833	245169
2.02200	172107
2.02567	121533
2.02933	87035
2.03300	63655
2.03667	47793
2.04033	36954
2.04400	29452
2.04767	24164
2.05133	20352
2.05500	17536
2.05867	15401
2.06233	13738
2.06600	12415
2.06967	11336
2.07333	10436
2.07700	9674
2.08067	9021
2.08433	8453
2.08800	7952
2.09167	7506
2.09533	7107
2.09900	6751
2.10267	6432
2.10633	6142
2.11000	5869
2.11367	5610
2.11733	5369
2.12100	5139
2.12467	4926
2.12833	4729
2.13200	4548
2.13567	4381
2.13933	4225
2.14300	4083
2.14667	3951
2.15033	3826
2.15400	3707
2.15767	3596
2.16133	3493
2.16500	3397
2.16867	3304
2.17233	3213
2.17600	3124
2.17967	3036
2.18333	2954
2.18700	2875
2.19067	2798
2.19433	2727
2.19800	2659
2.20167	2591
2.20533	2526
2.20900	2468
2.21267	2416
2.21633	2370
2.22000	2328
2.22367	2287
2.22733	2242
2.23100	2191
2.23467	2137
2.23833	2084
2.24200	2035
2.24567	1990
2.24933	1944
2.25300	1898
2.25667	1855
2.26033	1816
2.26400	1778
2.26767	1743
2.27133	1713
2.27500	1682
2.27867	1651
2.28233	1624
2.28600	1598
2.28967	1576
2.29333	1554
2.29700	1531
2.30067	1505
2.30433	1477
2.30800	1447
2.31167	1418
2.31533	1394
2.31900	1378
2.32267	1366
2.32633	1350
2.33000	1326
2.33367	1301
2.33733	1280
2.34100	1261
2.34467	1241
2.34833	1220
2.35200	1199
2.35567	1180
2.35933	1161
2.36300	1143
2.36667	1126
2.37033	1113
2.37400	1105
2.37767	1094
2.38133	1077
2.38500	1058
2.38867	1041
2.39233	1023
2.39600	1004
2.39967	987
2.40333	973
2.40700	966
2.41067	961
2.41433	957
2.41800	950
2.42167	939
2.42533	928
2.42900	919
2.43267	914
2.43633	910
2.44000	904
2.44367	893
2.44733	878
2.45100	864
2.45467	851
2.45833	842
2.46200	836
2.46567	829
2.46933	820
2.47300	807
2.47667	791
2.48033	772
2.48400	755
2.48767	743
2.49133	731
2.49500	718
2.49867	707
2.50233	705
2.50600	705
2.50967	703
2.51333	699
2.51700	698
2.52067	698
2.52433	698
2.52800	694
2.53167	683
2.53533	670
2.53900	657
2.54267	646
2.54633	639
2.55000	634
2.55367	632
2.55733	628
2.56100	625
2.56467	623
2.56833	620
2.57200	615
2.57567	606
2.57933	593
2.58300	580
2.58667	570
2.59033	561
2.59400	551
2.59767	541
2.60133	534
2.60500	528
2.60867	523
2.61233	521
2.61600	518
2.61967	513
2.62333	509
2.62700	504
2.63067	499
2.63433	493
2.63800	487
2.64167	483
2.64533	481
2.64900	480
2.65267	481
2.65633	482
2.66000	482
2.66367	480
2.66733	476
2.67100	473
2.67467	469
2.67833	461
2.68200	454
2.68567	452
2.68933	456
2.69300	464
2.69667	470
2.70033	472
2.70400	469
2.70767	461
2.71133	451
2.71500	440
2.71867	430
2.72233	423
2.72600	416
2.72967	410
2.73333	409
2.73700	406
2.74067	401
2.74433	395
2.74800	393
2.75167	391
2.75533	392
2.75900	396
2.76267	401
2.76633	402
2.77000	395
2.77367	386
2.77733	377
2.78100	372
2.78467	372
2.78833	373
2.79200	371
2.79567	364
2.79933	355
2.80300	348
2.80667	346
2.81033	345
2.81400	344
2.81767	346
2.82133	347
2.82500	345
2.82867	338
2.83233	325
2.83600	313
2.83967	306
2.84333	305
2.84700	308
2.85067	309
2.85433	309
2.85800	309
2.86167	307
2.86533	305
2.86900	304
2.87267	305
2.87633	304
2.88000	302
2.88367	300
2.88733	301
2.89100	304
2.89467	307
2.89833	308
2.90200	307
2.90567	304
2.90933	301
2.91300	300
2.91667	300
2.92033	299
2.92400	297
2.92767	295
2.93133	293
2.93500	288
2.93867	282
2.94233	282
2.94600	286
2.94967	288
2.95333	290
2.95700	294
2.96067	294
2.96433	292
2.96800	287
2.97167	277
2.97533	268
2.97900	259
2.98267	255
2.98633	256
2.99000	256
2.99367	255
2.99733	257
3.00100	259
3.00467	263
3.00833	268
3.01200	269
3.01567	266
3.01933	263
3.02300	262
3.02667	262
3.03033	260
3.03400	256
3.03767	250
3.04133	245
3.04500	244
3.04867	247
3.05233	251
3.05600	256
3.05967	258
3.06333	256
3.06700	251
3.07067	249
3.07433	250
3.07800	248
3.08167	247
3.08533	246
3.08900	244
3.09267	244
3.09633	243
3.10000	242
3.10367	242
3.10733	241
3.11100	235
3.11467	230
3.11833	227
3.12200	227
3.12567	227
3.12933	224
3.13300	217
3.13667	203
3.14033	184
3.14400	169
3.14767	159
3.15133	157
3.15500	159
3.15867	163
3.16233	167
3.16600	170
3.16967	172
3.17333	173
3.17700	172
3.18067	171
3.18433	173
3.18800	179
3.19167	185
3.19533	188
3.19900	190
3.20267	191
3.20633	193
3.21000	193
3.21367	190
3.21733	187
3.22100	186
3.22467	186
3.22833	187
3.23200	188
3.23567	187
3.23933	183
3.24300	181
3.24667	179
3.25033	180
3.25400	184
3.25767	186
3.26133	189
3.26500	191
3.26867	193
3.27233	197
3.27600	202
3.27967	202
3.28333	196
3.28700	187
3.29067	180
3.29433	181
3.29800	188
3.30167	191
3.30533	186
3.30900	178
3.31267	169
3.31633	162
3.32000	161
3.32367	164
3.32733	169
3.33100	175
3.33467	178
3.33833	179
3.34200	177
3.34567	172
3.34933	169
3.35300	165
3.35667	161
3.36033	158
3.36400	157
3.36767	154
3.37133	152
3.37500	149
3.37867	148
3.38233	147
3.38600	148
3.38967	149
3.39333	152
3.39700	153
3.40067	154
3.40433	154
3.40800	156
3.41167	162
3.41533	167
3.41900	169
3.42267	167
3.42633	163
3.43000	159
3.43367	154
3.43733	149
3.44100	143
3.44467	134
3.44833	128
3.45200	129
3.45567	133
3.45933	140
3.46300	146
3.46667	154
3.47033	159
3.47400	155
3.47767	147
3.48133	142
3.48500	139
3.48867	135
3.49233	130
3.49600	128
3.49967	131
3.50333	137
3.50700	143
3.51067	145
3.51433	140
3.51800	134
3.52167	134
3.52533	137
3.52900	138
3.53267	139
3.53633	138
3.54000	134
3.54367	129
3.54733	123
3.55100	118
3.55467	115
3.55833	114
3.56200	115
3.56567	117
3.56933	118
3.57300	117
3.57667	118
3.58033	117
3.58400	113
3.58767	108
3.59133	105
3.59500	105
3.59867	109
3.60233	112
3.60600	112
3.60967	112
3.61333	112
3.61700	114
3.62067	121
3.62433	130
3.62800	137
3.63167	137
3.63533	132
3.63900	127
3.64267	121
3.64633	118
3.65000	120
3.65367	124
3.65733	130
3.66100	133
3.66467	137
3.66833	140
3.67200	139
3.67567	133
3.67933	124
3.68300	119
3.68667	116
3.69033	112
3.69400	109
3.69767	107
3.70133	105
3.70500	104
3.70867	103
3.71233	103
3.71600	100
3.71967	100
3.72333	103
3.72700	109
3.73067	115
3.73433	116
3.73800	112
3.74167	107
3.74533	104
3.74900	100
3.75267	91
3.75633	82
3.76000	75
3.76367	73
3.76733	77
3.77100	83
3.77467	89
3.77833	94
3.78200	97
3.78567	100
3.78933	102
3.79300	105
3.79667	109
3.80033	109
3.80400	105
3.80767	100
3.81133	95
3.81500	89
3.81867	87
3.82233	90
3.82600	99
3.82967	110
3.83333	117
3.83700	120
3.84067	119
3.84433	115
3.84800	112
3.85167	110
3.85533	106
3.85900	100
3.86267	91
3.86633	82
3.87000	77
3.87367	77
3.87733	78
3.88100	78
3.88467	76
3.88833	75
3.89200	77
3.89567	85
3.89933	89
3.90300	89
3.90667	88
3.91033	87
3.91400	81
3.91767	73
3.92133	68
3.92500	70
3.92867	77
3.93233	82
3.93600	81
3.93967	76
3.94333	73
3.94700	70
3.95067	65
3.95433	59
3.95800	55
3.96167	56
3.96533	63
3.96900	71
3.97267	75
3.97633	76
3.98000	76
3.98367	76
3.98733	70
3.99100	63
3.99467	58
3.99833	52

[Chromatogram (Ch2)]
Interval(msec)	220
# of Points	1091
Start Time(min)	0.002
End Time(min)	3.998
R.Time (min)	Intensity
0.00167	0
0.00533	0
0.00900	1
0.01267	1
0.01633	1
0.02000	1
0.02367	1
0.02733	1
0.03100	1
0.03467	1
0.03833	1
0.04200	1
0.04567	1
0.04933	1
0.05300	1
0.05667	1
0.06033	1
0.06400	1
0.06767	1
0.07133	1
0.07500	1
0.07867	1
0.08233	1
0.08600	1
0.08967	1
0.09333	1
0.09700	1
0.10067	1
0.10433	1
0.10800	1
0.11167	1
0.11533	1
0.11900	1
0.12267	1
0.12633	0
0.13000	0
0.13367	0
0.13733	1
0.14100	1
0.14467	1
0.14833	1
0.15200	1
0.15567	1
0.15933	2
0.16300	2
0.16667	2
0.17033	2
0.17400	2
0.17767	2
0.18133	2
0.18500	2
0.18867	2
0.19233	2
0.19600	2
0.19967	2
0.20333	2
0.20700	2
0.21067	2
0.21433	2
0.21800	1
0.22167	1
0.22533	0
0.22900	-0
0.23267	-1
0.23633	-1
0.24000	-2
0.24367	-3
0.24733	-3
0.25100	-4
0.25467	-4
0.25833	-4
0.26200	-4
0.26567	-4
0.26933	-4
0.27300	-4
0.27667	-4
0.28033	-5
0.28400	-5
0.28767	-4
0.29133	-4
0.29500	-4
0.29867	-4
0.30233	-3
0.30600	-3
0.30967	-3
0.31333	-2
0.31700	-2
0.32067	-1
0.32433	-1
0.32800	-1
0.33167	-1
0.33533	-1
0.33900	-1
0.34267	-0
0.34633	0
0.35000	0
0.35367	0
0.35733	1
0.36100	1
0.36467	1
0.36833	1
0.37200	1
0.37567	1
0.37933	1
0.38300	1
0.38667	1
0.39033	1
0.39400	1
0.39767	2
0.40133	2
0.40500	2
0.40867	1
0.41233	1
0.41600	1
0.41967	0
0.42333	-0
0.42700	-0
0.43067	-1
0.43433	-1
0.43800	-1
0.44167	-1
0.44533	-1
0.44900	-2
0.45267	-2
0.45633	-2
0.46000	-2
0.46367	-2
0.46733	-2
0.47100	-2
0.47467	-2
0.47833	-2
0.48200	-2
0.48567	-1
0.48933	-1
0.49300	-1
0.49667	-1
0.50033	-1
0.50400	-1
0.50767	-1
0.51133	-0
0.51500	-0
0.51867	-0
0.52233	-0
0.52600	-0
0.52967	0
0.53333	0
0.53700	0
0.54067	-0
0.54433	-0
0.54800	-1
0.55167	-1
0.55533	-1
0.55900	-1
0.56267	-1
0.56633	-2
0.57000	-2
0.57367	-2
0.57733	-2
0.58100	-2
0.58467	-2
0.58833	-2
0.59200	-3
0.59567	-3
0.59933	-3
0.60300	-3
0.60667	-3
0.61033	-3
0.61400	-3
0.61767	-3
0.62133	-3
0.62500	-3
0.62867	-3
0.63233	-3
0.63600	-3
0.63967	-2
0.64333	-2
0.64700	-2
0.65067	-2
0.65433	-2
0.65800	-2
0.66167	-2
0.66533	-2
0.66900	-2
0.67267	-2
0.67633	-2
0.68000	-1
0.68367	-1
0.68733	-1
0.69100	-1
0.69467	-0
0.69833	0
0.70200	0
0.70567	0
0.70933	0
0.71300	0
0.71667	-0
0.72033	-0
0.72400	-1
0.72767	-1
0.73133	-1
0.73500	-1
0.73867	-2
0.74233	-2
0.74600	-2
0.74967	-2
0.75333	-3
0.75700	-3
0.76067	-3
0.76433	-3
0.76800	-3
0.77167	-3
0.77533	-3
0.77900	-3
0.78267	-3
0.78633	-2
0.79000	-2
0.79367	-2
0.79733	-2
0.80100	-2
0.80467	-2
0.80833	-2
0.81200	-2
0.81567	-2
0.81933	-2
0.82300	-2
0.82667	-2
0.83033	-1
0.83400	-1
0.83767	-1
0.84133	-1
0.84500	-1
0.84867	-1
0.85233	-1
0.85600	-1
0.85967	-1
0.86333	-1
0.86700	-1
0.87067	-1
0.87433	-1
0.87800	-1
0.88167	-1
0.88533	-1
0.88900	-1
0.89267	-2
0.89633	-2
0.90000	-2
0.90367	-3
0.90733	-3
0.91100	-3
0.91467	-3
0.91833	-4
0.92200	-4
0.92567	-4
0.92933	-4
0.93300	-4
0.93667	-4
0.94033	-4
0.94400	-4
0.94767	-4
0.95133	-4
0.95500	-4
0.95867	-4
0.96233	-4
0.96600	-4
0.96967	-4
0.97333	-4
0.97700	-4
0.98067	-4
0.98433	-4
0.98800	-4
0.99167	-3
0.99533	-3
0.99900	-3
1.00267	-2
1.00633	-2
1.01000	-2
1.01367	-2
1.01733	-1
1.02100	-1
1.02467	-1
1.02833	-1
1.03200	-1
1.03567	-1
1.03933	-1
1.04300	-2
1.04667	-2
1.05033	-2
1.05400	-2
1.05767	-2
1.06133	-2
1.06500	-2
1.06867	-2
1.07233	-2
1.07600	-2
1.07967	-2
1.08333	-3
1.08700	-3
1.09067	-3
1.09433	-3
1.09800	-3
1.10167	-3
1.10533	-3
1.10900	-3
1.11267	-3
1.11633	-3
1.12000	-3
1.12367	-3
1.12733	-3
1.13100	-3
1.13467	-3
1.13833	-3
1.14200	-3
1.14567	-3
1.14933	-3
1.15300	-2
1.15667	-2
1.16033	-2
1.16400	-3
1.16767	-3
1.17133	-3
1.17500	-3
1.17867	-3
1.18233	-3
1.18600	-3
1.18967	-3
1.19333	-3
1.19700	-3
1.20067	-3
1.20433	-3
1.20800	-2
1.21167	-2
1.21533	-1
1.21900	-1
1.22267	-1
1.22633	-0
1.23000	-0
1.23367	0
1.23733	0
1.24100	0
1.24467	-0
1.24833	-0
1.25200	-1
1.25567	-1
1.25933	-1
1.26300	-2
1.26667	-2
1.27033	-2
1.27400	-3
1.27767	-2
1.28133	-2
1.28500	-2
1.28867	-1
1.29233	-1
1.29600	-1
1.29967	-1
1.30333	-1
1.30700	-1
1.31067	-1
1.31433	-1
1.31800	-2
1.32167	-2
1.32533	-2
1.32900	-2
1.33267	-3
1.33633	-3
1.34000	-3
1.34367	-3
1.34733	-3
1.35100	-3
1.35467	-3
1.35833	-3
1.36200	-3
1.36567	-2
1.36933	-2
1.37300	-3
1.37667	-3
1.38033	-3
1.38400	-3
1.38767	-3
1.39133	-3
1.39500	-3
1.39867	-3
1.40233	-3
1.40600	-3
1.40967	-2
1.41333	-2
1.41700	-2
1.42067	-2
1.42433	-2
1.42800	-2
1.43167	-2
1.43533	-2
1.43900	-2
1.44267	-2
1.44633	-2
1.45000	-3
1.45367	-3
1.45733	-3
1.46100	-4
1.46467	-4
1.46833	-4
1.47200	-4
1.47567	-5
1.47933	-5
1.48300	-5
1.48667	-5
1.49033	-5
1.49400	-4
1.49767	-4
1.50133	-4
1.50500	-4
1.50867	-4
1.51233	-3
1.51600	-3
1.51967	-3
1.52333	-3
1.52700	-3
1.53067	-3
1.53433	-3
1.53800	-3
1.54167	-3
1.54533	-3
1.54900	-2
1.55267	-2
1.55633	-2
1.56000	-2
1.56367	-3
1.56733	-3
1.57100	-3
1.57467	-3
1.57833	-4
1.58200	-4
1.58567	-4
1.58933	-4
1.59300	-4
1.59667	-5
1.60033	-5
1.60400	-6
1.60767	-8
1.61133	-9
1.61500	-11
1.61867	-14
1.62233	-16
1.62600	-19
1.62967	-23
1.63333	-26
1.63700	-29
1.64067	-32
1.64433	-36
1.64800	-39
1.65167	-43
1.65533	-46
1.65900	-50
1.66267	-53
1.66633	-57
1.67000	-61
1.67367	-65
1.67733	-69
1.68100	-74
1.68467	-78
1.68833	-82
1.69200	-86
1.69567	-89
1.69933	-91
1.70300	-94
1.70667	-95
1.71033	-97
1.71400	-98
1.71767	-98
1.72133	-99
1.72500	-99
1.72867	-99
1.73233	-99
1.73600	-98
1.73967	-98
1.74333	-97
1.74700	-97
1.75067	-96
1.75433	-96
1.75800	-96
1.76167	-97
1.76533	-97
1.76900	-98
1.77267	-99
1.77633	-99
1.78000	-100
1.78367	-101
1.78733	-102
1.79100	-102
1.79467	-103
1.79833	-103
1.80200	-103
1.80567	-103
1.80933	-104
1.81300	-104
1.81667	-104
1.82033	-104
1.82400	-104
1.82767	-104
1.83133	-104
1.83500	-104
1.83867	-103
1.84233	-103
1.84600	-102
1.84967	-102
1.85333	-102
1.85700	-101
1.86067	-101
1.86433	-102
1.86800	-102
1.87167	-102
1.87533	-102
1.87900	-102
1.88267	-102
1.88633	-102
1.89000	-103
1.89367	-103
1.89733	-104
1.90100	-104
1.90467	-104
1.90833	-103
1.91200	-103
1.91567	-102
1.91933	-102
1.92300	-102
1.92667	-101
1.93033	-101
1.93400	-101
1.93767	-100
1.94133	-100
1.94500	-100
1.94867	-100
1.95233	-100
1.95600	-100
1.95967	-99
1.96333	-99
1.96700	-99
1.97067	-98
1.97433	-98
1.97800	-98
1.98167	-98
1.98533	-98
1.98900	-98
1.99267	-97
1.99633	-96
2.00000	-95
2.00367	-95
2.00733	-94
2.01100	-94
2.01467	-94
2.01833	-94
2.02200	-94
2.02567	-94
2.02933	-94
2.03300	-94
2.03667	-94
2.04033	-94
2.04400	-93
2.04767	-93
2.05133	-93
2.05500	-93
2.05867	-92
2.06233	-92
2.06600	-92
2.06967	-92
2.07333	-92
2.07700	-92
2.08067	-91
2.08433	-91
2.08800	-91
2.09167	-90
2.09533	-90
2.09900	-89
2.10267	-89
2.10633	-88
2.11000	-88
2.11367	-88
2.11733	-87
2.12100	-87
2.12467	-87
2.12833	-86
2.13200	-86
2.13567	-86
2.13933	-85
2.14300	-85
2.14667	-85
2.15033	-85
2.15400	-85
2.15767	-85
2.16133	-85
2.16500	-85
2.16867	-85
2.17233	-84
2.17600	-83
2.17967	-83
2.18333	-82
2.18700	-82
2.19067	-82
2.19433	-82
2.19800	-81
2.20167	-81
2.20533	-81
2.20900	-80
2.21267	-79
2.21633	-79
2.22000	-78
2.22367	-78
2.22733	-79
2.23100	-79
2.23467	-80
2.23833	-80
2.24200	-80
2.24567	-81
2.24933	-81
2.25300	-80
2.25667	-80
2.26033	-79
2.26400	-78
2.26767	-78
2.27133	-77
2.27500	-77
2.27867	-76
2.28233	-76
2.28600	-75
2.28967	-75
2.29333	-74
2.29700	-73
2.30067	-73
2.30433	-73
2.30800	-74
2.31167	-74
2.31533	-75
2.31900	-76
2.32267	-76
2.32633	-76
2.33000	-76
2.33367	-75
2.33733	-73
2.34100	-72
2.34467	-70
2.34833	-68
2.35200	-67
2.35567	-65
2.35933	-64
2.36300	-62
2.36667	-61
2.37033	-59
2.37400	-57
2.37767	-54
2.38133	-51
2.38500	-48
2.38867	-44
2.39233	-40
2.39600	-36
2.39967	-31
2.40333	-27
2.40700	-23
2.41067	-19
2.41433	-16
2.41800	-13
2.42167	-11
2.42533	-9
2.42900	-7
2.43267	-5
2.43633	-3
2.44000	-1
2.44367	0
2.44733	2
2.45100	3
2.45467	5
2.45833	6
2.46200	8
2.46567	9
2.46933	10
2.47300	10
2.47667	11
2.48033	12
2.48400	12
2.48767	13
2.49133	14
2.49500	15
2.49867	15
2.50233	15
2.50600	15
2.50967	16
2.51333	15
2.51700	15
2.52067	15
2.52433	15
2.52800	15
2.53167	14
2.53533	13
2.53900	13
2.54267	12
2.54633	11
2.55000	10
2.55367	10
2.55733	10
2.56100	10
2.56467	10
2.56833	10
2.57200	11
2.57567	12
2.57933	13
2.58300	14
2.58667	15
2.59033	16
2.59400	16
2.59767	17
2.60133	17
2.60500	17
2.60867	17
2.61233	18
2.61600	18
2.61967	18
2.62333	19
2.62700	19
2.63067	19
2.63433	19
2.63800	19
2.64167	19
2.64533	19
2.64900	20
2.65267	20
2.65633	20
2.66000	20
2.66367	21
2.66733	21
2.67100	21
2.67467	21
2.67833	21
2.68200	22
2.68567	22
2.68933	23
2.69300	23
2.69667	23
2.70033	23
2.70400	24
2.70767	24
2.71133	24
2.71500	24
2.71867	24
2.72233	24
2.72600	24
2.72967	24
2.73333	24
2.73700	24
2.74067	24
2.74433	24
2.74800	25
2.75167	25
2.75533	25
2.75900	26
2.76267	27
2.76633	27
2.77000	28
2.77367	29
2.77733	29
2.78100	29
2.78467	29
2.78833	30
2.79200	30
2.79567	30
2.79933	29
2.80300	29
2.80667	28
2.81033	27
2.81400	27
2.81767	27
2.82133	26
2.82500	26
2.82867	26
2.83233	26
2.83600	26
2.83967	26
2.84333	26
2.84700	26
2.85067	26
2.85433	26
2.85800	25
2.86167	23
2.86533	19
2.86900	12
2.87267	3
2.87633	-12
2.88000	-30
2.88367	-54
2.88733	-83
2.89100	-118
2.89467	-157
2.89833	-201
2.90200	-250
2.90567	-303
2.90933	-359
2.91300	-418
2.91667	-480
2.92033	-542
2.92400	-605
2.92767	-667
2.93133	-728
2.93500	-786
2.93867	-841
2.94233	-893
2.94600	-946
2.94967	-1001
2.95333	-1051
2.95700	-1088
2.96067	-1103
2.96433	-1093
2.96800	-1059
2.97167	-1006
2.97533	-939
2.97900	-863
2.98267	-783
2.98633	-702
2.99000	-624
2.99367	-551
2.99733	-483
3.00100	-420
3.00467	-364
3.00833	-314
3.01200	-270
3.01567	-231
3.01933	-196
3.02300	-167
3.02667	-141
3.03033	-119
3.03400	-99
3.03767	-83
3.04133	-69
3.04500	-57
3.04867	-47
3.05233	-38
3.05600	-30
3.05967	-23
3.06333	-18
3.06700	-13
3.07067	-9
3.07433	-6
3.07800	-3
3.08167	-0
3.08533	2
3.08900	4
3.09267	6
3.09633	7
3.10000	9
3.10367	10
3.10733	11
3.11100	13
3.11467	14
3.11833	14
3.12200	15
3.12567	16
3.12933	17
3.13300	17
3.13667	17
3.14033	18
3.14400	18
3.14767	18
3.15133	19
3.15500	19
3.15867	19
3.16233	19
3.16600	19
3.16967	20
3.17333	20
3.17700	20
3.18067	21
3.18433	21
3.18800	21
3.19167	21
3.19533	21
3.19900	22
3.20267	22
3.20633	22
3.21000	22
3.21367	22
3.21733	22
3.22100	22
3.22467	22
3.22833	22
3.23200	22
3.23567	22
3.23933	22
3.24300	23
3.24667	23
3.25033	23
3.25400	23
3.25767	23
3.26133	24
3.26500	24
3.26867	24
3.27233	24
3.27600	24
3.27967	24
3.28333	24
3.28700	24
3.29067	24
3.29433	24
3.29800	25
3.30167	25
3.30533	25
3.30900	25
3.31267	26
3.31633	26
3.32000	26
3.32367	26
3.32733	26
3.33100	26
3.33467	26
3.33833	26
3.34200	26
3.34567	25
3.34933	25
3.35300	25
3.35667	25
3.36033	25
3.36400	25
3.36767	25
3.37133	25
3.37500	25
3.37867	26
3.38233	26
3.38600	26
3.38967	27
3.39333	27
3.39700	27
3.40067	27
3.40433	27
3.40800	28
3.41167	28
3.41533	28
3.41900	28
3.42267	28
3.42633	28
3.43000	28
3.43367	28
3.43733	29
3.44100	29
3.44467	29
3.44833	29
3.45200	30
3.45567	30
3.45933	30
3.46300	30
3.46667	30
3.47033	30
3.47400	30
3.47767	31
3.48133	31
3.48500	31
3.48867	31
3.49233	30
3.49600	30
3.49967	30
3.50333	30
3.50700	30
3.51067	30
3.51433	30
3.51800	30
3.52167	29
3.52533	29
3.52900	29
3.53267	29
3.53633	29
3.54000	28
3.54367	28
3.54733	28
3.55100	28
3.55467	27
3.55833	27
3.56200	27
3.56567	27
3.56933	27
3.57300	27
3.57667	28
3.58033	28
3.58400	28
3.58767	28
3.59133	28
3.59500	28
3.59867	29
3.60233	29
3.60600	29
3.60967	29
3.61333	29
3.61700	29
3.62067	29
3.62433	29
3.62800	28
3.63167	28
3.63533	28
3.63900	28
3.64267	27
3.64633	27
3.65000	27
3.65367	27
3.65733	27
3.66100	27
3.66467	27
3.66833	27
3.67200	27
3.67567	27
3.67933	27
3.68300	27
3.68667	27
3.69033	27
3.69400	27
3.69767	27
3.70133	27
3.70500	27
3.70867	27
3.71233	27
3.71600	27
3.71967	27
3.72333	27
3.72700	27
3.73067	27
3.73433	27
3.73800	27
3.74167	27
3.74533	27
3.74900	28
3.75267	28
3.75633	28
3.76000	28
3.76367	28
3.76733	28
3.77100	28
3.77467	28
3.77833	28
3.78200	28
3.78567	28
3.78933	28
3.79300	28
3.79667	28
3.80033	28
3.80400	28
3.80767	28
3.81133	28
3.81500	27
3.81867	27
3.82233	27
3.82600	27
3.82967	28
3.83333	28
3.83700	28
3.84067	27
3.84433	27
3.84800	27
3.85167	27
3.85533	27
3.85900	27
3.86267	27
3.86633	27
3.87000	27
3.87367	27
3.87733	27
3.88100	27
3.88467	27
3.88833	27
3.89200	27
3.89567	27
3.89933	27
3.90300	27
3.90667	27
3.91033	27
3.91400	27
3.91767	27
3.92133	27
3.92500	27
3.92867	26
3.93233	27
3.93600	27
3.93967	27
3.94333	27
3.94700	27
3.95067	28
3.95433	28
3.95800	28
3.96167	29
3.96533	29
3.96900	29
3.97267	29
3.97633	29
3.98000	29
3.98367	29
3.98733	29
3.99100	29
3.99467	29
3.99833	29

[Chromatogram (Ch3)]
Interval(msec)	220
# of Points	1091
Start Time(min)	0.002
End Time(min)	3.998
R.Time (min)	Intensity
0.00167	-0
0.00533	-1
0.00900	-1
0.01267	1
0.01633	1
0.02000	1
0.02367	1
0.02733	0
0.03100	0
0.03467	2
0.03833	4
0.04200	3
0.04567	2
0.04933	-0
0.05300	-1
0.05667	-1
0.06033	1
0.06400	-1
0.06767	-2
0.07133	-2
0.07500	-2
0.07867	-2
0.08233	-3
0.08600	-1
0.08967	-0
0.09333	-0
0.09700	-3
0.10067	-3
0.10433	-1
0.10800	0
0.11167	2
0.11533	1
0.11900	-1
0.12267	-2
0.12633	-1
0.13000	0
0.13367	0
0.13733	2
0.14100	2
0.14467	3
0.14833	2
0.15200	2
0.15567	4
0.15933	5
0.16300	5
0.16667	4
0.17033	3
0.17400	1
0.17767	0
0.18133	0
0.18500	0
0.18867	-0
0.19233	-1
0.19600	-1
0.19967	0
0.20333	2
0.20700	4
0.21067	4
0.21433	4
0.21800	3
0.22167	1
0.22533	-1
0.22900	-3
0.23267	-3
0.23633	-2
0.24000	1
0.24367	1
0.24733	-0
0.25100	0
0.25467	2
0.25833	4
0.26200	5
0.26567	6
0.26933	5
0.27300	2
0.27667	2
0.28033	3
0.28400	4
0.28767	3
0.29133	3
0.29500	3
0.29867	4
0.30233	4
0.30600	3
0.30967	0
0.31333	-0
0.31700	1
0.32067	4
0.32433	7
0.32800	7
0.33167	6
0.33533	8
0.33900	8
0.34267	7
0.34633	6
0.35000	5
0.35367	5
0.35733	7
0.36100	5
0.36467	5
0.36833	5
0.37200	3
0.37567	3
0.37933	4
0.38300	3
0.38667	4
0.39033	7
0.39400	10
0.39767	12
0.40133	12
0.40500	12
0.40867	12
0.41233	11
0.41600	11
0.41967	11
0.42333	11
0.42700	12
0.43067	13
0.43433	14
0.43800	13
0.44167	11
0.44533	8
0.44900	7
0.45267	6
0.45633	7
0.46000	9
0.46367	11
0.46733	11
0.47100	9
0.47467	7
0.47833	5
0.48200	5
0.48567	5
0.48933	7
0.49300	8
0.49667	8
0.50033	9
0.50400	10
0.50767	10
0.51133	11
0.51500	9
0.51867	9
0.52233	8
0.52600	7
0.52967	6
0.53333	5
0.53700	5
0.54067	6
0.54433	4
0.54800	2
0.55167	3
0.55533	6
0.55900	8
0.56267	10
0.56633	11
0.57000	13
0.57367	15
0.57733	15
0.58100	13
0.58467	13
0.58833	12
0.59200	9
0.59567	7
0.59933	6
0.60300	7
0.60667	8
0.61033	8
0.61400	8
0.61767	8
0.62133	8
0.62500	8
0.62867	10
0.63233	10
0.63600	9
0.63967	7
0.64333	6
0.64700	5
0.65067	4
0.65433	3
0.65800	4
0.66167	6
0.66533	8
0.66900	9
0.67267	11
0.67633	11
0.68000	11
0.68367	8
0.68733	7
0.69100	7
0.69467	8
0.69833	11
0.70200	12
0.70567	12
0.70933	12
0.71300	12
0.71667	11
0.72033	10
0.72400	10
0.72767	7
0.73133	5
0.73500	3
0.73867	4
0.74233	7
0.74600	9
0.74967	10
0.75333	13
0.75700	14
0.76067	13
0.76433	14
0.76800	15
0.77167	16
0.77533	15
0.77900	15
0.78267	17
0.78633	18
0.79000	19
0.79367	18
0.79733	19
0.80100	19
0.80467	18
0.80833	16
0.81200	13
0.81567	12
0.81933	12
0.82300	14
0.82667	15
0.83033	14
0.83400	13
0.83767	14
0.84133	13
0.84500	14
0.84867	15
0.85233	17
0.85600	17
0.85967	18
0.86333	21
0.86700	21
0.87067	19
0.87433	16
0.87800	14
0.88167	12
0.88533	12
0.88900	13
0.89267	14
0.89633	15
0.90000	15
0.90367	16
0.90733	18
0.91100	19
0.91467	20
0.91833	20
0.92200	19
0.92567	19
0.92933	20
0.93300	20
0.93667	20
0.94033	19
0.94400	18
0.94767	17
0.95133	18
0.95500	19
0.95867	19
0.96233	18
0.96600	16
0.96967	16
0.97333	18
0.97700	17
0.98067	16
0.98433	17
0.98800	19
0.99167	19
0.99533	20
0.99900	21
1.00267	22
1.00633	22
1.01000	21
1.01367	19
1.01733	18
1.02100	17
1.02467	16
1.02833	14
1.03200	12
1.03567	13
1.03933	14
1.04300	16
1.04667	18
1.05033	20
1.05400	21
1.05767	21
1.06133	20
1.06500	20
1.06867	19
1.07233	19
1.07600	19
1.07967	20
1.08333	20
1.08700	21
1.09067	23
1.09433	22
1.09800	21
1.10167	19
1.10533	19
1.10900	18
1.11267	17
1.11633	18
1.12000	19
1.12367	20
1.12733	20
1.13100	21
1.13467	21
1.13833	20
1.14200	18
1.14567	18
1.14933	18
1.15300	17
1.15667	17
1.16033	18
1.16400	19
1.16767	18
1.17133	17
1.17500	19
1.17867	21
1.18233	20
1.18600	20
1.18967	20
1.19333	20
1.19700	18
1.20067	18
1.20433	19
1.20800	18
1.21167	17
1.21533	18
1.21900	20
1.22267	25
1.22633	25
1.23000	23
1.23367	21
1.23733	19
1.24100	20
1.24467	19
1.24833	19
1.25200	20
1.25567	21
1.25933	20
1.26300	20
1.26667	21
1.27033	23
1.27400	23
1.27767	22
1.28133	22
1.28500	22
1.28867	22
1.29233	23
1.29600	25
1.29967	25
1.30333	26
1.30700	24
1.31067	23
1.31433	22
1.31800	22
1.32167	20
1.32533	18
1.32900	19
1.33267	19
1.33633	17
1.34000	16
1.34367	18
1.34733	20
1.35100	20
1.35467	19
1.35833	20
1.36200	20
1.36567	20
1.36933	21
1.37300	22
1.37667	22
1.38033	21
1.38400	21
1.38767	23
1.39133	24
1.39500	23
1.39867	24
1.40233	25
1.40600	25
1.40967	25
1.41333	25
1.41700	22
1.42067	20
1.42433	20
1.42800	22
1.43167	24
1.43533	25
1.43900	26
1.44267	25
1.44633	25
1.45000	23
1.45367	20
1.45733	17
1.46100	14
1.46467	14
1.46833	16
1.47200	18
1.47567	21
1.47933	22
1.48300	22
1.48667	22
1.49033	22
1.49400	23
1.49767	23
1.50133	23
1.50500	22
1.50867	21
1.51233	20
1.51600	19
1.51967	19
1.52333	21
1.52700	23
1.53067	22
1.53433	24
1.53800	23
1.54167	23
1.54533	22
1.54900	20
1.55267	20
1.55633	22
1.56000	23
1.56367	23
1.56733	20
1.57100	18
1.57467	20
1.57833	21
1.58200	22
1.58567	22
1.58933	22
1.59300	21
1.59667	21
1.60033	19
1.60400	18
1.60767	18
1.61133	18
1.61500	20
1.61867	22
1.62233	25
1.62600	26
1.62967	26
1.63333	25
1.63700	27
1.64067	27
1.64433	26
1.64800	26
1.65167	28
1.65533	28
1.65900	30
1.66267	32
1.66633	32
1.67000	30
1.67367	29
1.67733	30
1.68100	30
1.68467	30
1.68833	30
1.69200	30
1.69567	31
1.69933	31
1.70300	31
1.70667	33
1.71033	34
1.71400	35
1.71767	36
1.72133	35
1.72500	34
1.72867	33
1.73233	33
1.73600	34
1.73967	34
1.74333	35
1.74700	35
1.75067	35
1.75433	33
1.75800	34
1.76167	36
1.76533	37
1.76900	40
1.77267	43
1.77633	45
1.78000	45
1.78367	45
1.78733	44
1.79100	43
1.79467	41
1.79833	41
1.80200	41
1.80567	41
1.80933	40
1.81300	39
1.81667	40
1.82033	42
1.82400	44
1.82767	44
1.83133	46
1.83500	48
1.83867	50
1.84233	51
1.84600	49
1.84967	47
1.85333	46
1.85700	46
1.86067	47
1.86433	48
1.86800	48
1.87167	48
1.87533	48
1.87900	47
1.88267	47
1.88633	47
1.89000	47
1.89367	49
1.89733	52
1.90100	52
1.90467	52
1.90833	55
1.91200	56
1.91567	59
1.91933	61
1.92300	64
1.92667	66
1.93033	65
1.93400	65
1.93767	65
1.94133	65
1.94500	65
1.94867	65
1.95233	64
1.95600	66
1.95967	71
1.96333	73
1.96700	71
1.97067	69
1.97433	69
1.97800	70
1.98167	70
1.98533	70
1.98900	69
1.99267	69
1.99633	72
2.00000	77
2.00367	79
2.00733	80
2.01100	80
2.01467	79
2.01833	80
2.02200	82
2.02567	84
2.02933	84
2.03300	84
2.03667	84
2.04033	82
2.04400	81
2.04767	82
2.05133	86
2.05500	89
2.05867	89
2.06233	90
2.06600	92
2.06967	94
2.07333	95
2.07700	94
2.08067	95
2.08433	97
2.08800	96
2.09167	95
2.09533	94
2.09900	93
2.10267	93
2.10633	94
2.11000	93
2.11367	94
2.11733	96
2.12100	97
2.12467	98
2.12833	102
2.13200	104
2.13567	104
2.13933	103
2.14300	104
2.14667	106
2.15033	107
2.15400	107
2.15767	107
2.16133	107
2.16500	106
2.16867	106
2.17233	106
2.17600	107
2.17967	110
2.18333	115
2.18700	118
2.19067	117
2.19433	115
2.19800	113
2.20167	111
2.20533	112
2.20900	115
2.21267	116
2.21633	116
2.22000	116
2.22367	117
2.22733	119
2.23100	122
2.23467	124
2.23833	125
2.24200	124
2.24567	124
2.24933	125
2.25300	125
2.25667	124
2.26033	124
2.26400	122
2.26767	123
2.27133	123
2.27500	123
2.27867	122
2.28233	121
2.28600	121
2.28967	122
2.29333	123
2.29700	124
2.30067	124
2.30433	126
2.30800	127
2.31167	127
2.31533	128
2.31900	132
2.32267	133
2.32633	134
2.33000	132
2.33367	130
2.33733	130
2.34100	132
2.34467	134
2.34833	134
2.35200	133
2.35567	134
2.35933	135
2.36300	134
2.36667	136
2.37033	137
2.37400	139
2.37767	140
2.38133	140
2.38500	138
2.38867	135
2.39233	135
2.39600	136
2.39967	140
2.40333	144
2.40700	146
2.41067	149
2.41433	152
2.41800	154
2.42167	155
2.42533	155
2.42900	153
2.43267	152
2.43633	151
2.44000	162
2.44367	231
2.44733	372
2.45100	530
2.45467	657
2.45833	752
2.46200	819
2.46567	863
2.46933	886
2.47300	896
2.47667	902
2.48033	909
2.48400	921
2.48767	938
2.49133	958
2.49500	974
2.49867	984
2.50233	984
2.50600	975
2.50967	957
2.51333	936
2.51700	914
2.52067	896
2.52433	884
2.52800	877
2.53167	870
2.53533	868
2.53900	869
2.54267	871
2.54633	872
2.55000	877
2.55367	886
2.55733	898
2.56100	912
2.56467	923
2.56833	931
2.57200	934
2.57567	931
2.57933	923
2.58300	911
2.58667	896
2.59033	879
2.59400	860
2.59767	842
2.60133	826
2.60500	813
2.60867	804
2.61233	794
2.61600	782
2.61967	770
2.62333	760
2.62700	749
2.63067	738
2.63433	729
2.63800	721
2.64167	716
2.64533	712
2.64900	711
2.65267	712
2.65633	713
2.66000	714
2.66367	716
2.66733	716
2.67100	714
2.67467	714
2.67833	719
2.68200	725
2.68567	731
2.68933	734
2.69300	739
2.69667	744
2.70033	751
2.70400	757
2.70767	762
2.71133	769
2.71500	775
2.71867	781
2.72233	785
2.72600	787
2.72967	787
2.73333	784
2.73700	781
2.74067	778
2.74433	775
2.74800	771
2.75167	764
2.75533	756
2.75900	748
2.76267	742
2.76633	738
2.77000	733
2.77367	726
2.77733	718
2.78100	710
2.78467	703
2.78833	698
2.79200	693
2.79567	690
2.79933	688
2.80300	686
2.80667	682
2.81033	679
2.81400	678
2.81767	677
2.82133	677
2.82500	676
2.82867	676
2.83233	682
2.83600	702
2.83967	745
2.84333	834
2.84700	993
2.85067	1249
2.85433	1619
2.85800	2105
2.86167	2690
2.86533	3343
2.86900	4014
2.87267	4647
2.87633	5191
2.88000	5603
2.88367	5854
2.88733	5943
2.89100	5883
2.89467	5698
2.89833	5419
2.90200	5078
2.90567	4703
2.90933	4320
2.91300	3937
2.91667	3570
2.92033	3227
2.92400	2913
2.92767	2628
2.93133	2373
2.93500	2148
2.93867	1952
2.94233	1781
2.94600	1630
2.94967	1499
2.95333	1386
2.95700	1287
2.96067	1201
2.96433	1127
2.96800	1065
2.97167	1012
2.97533	965
2.97900	924
2.98267	890
2.98633	858
2.99000	835
2.99367	815
2.99733	797
3.00100	783
3.00467	771
3.00833	762
3.01200	753
3.01567	744
3.01933	737
3.02300	733
3.02667	729
3.03033	724
3.03400	720
3.03767	718
3.04133	719
3.04500	720
3.04867	722
3.05233	723
3.05600	721
3.05967	718
3.06333	716
3.06700	715
3.07067	714
3.07433	714
3.07800	715
3.08167	718
3.08533	721
3.08900	721
3.09267	719
3.09633	719
3.10000	722
3.10367	723
3.10733	723
3.11100	724
3.11467	725
3.11833	723
3.12200	719
3.12567	716
3.12933	715
3.13300	714
3.13667	712
3.14033	710
3.14400	708
3.14767	707
3.15133	706
3.15500	706
3.15867	704
3.16233	702
3.16600	701
3.16967	702
3.17333	704
3.17700	705
3.18067	704
3.18433	703
3.18800	699
3.19167	698
3.19533	700
3.19900	700
3.20267	702
3.20633	702
3.21000	699
3.21367	695
3.21733	693
3.22100	693
3.22467	695
3.22833	696
3.23200	694
3.23567	693
3.23933	689
3.24300	685
3.24667	681
3.25033	679
3.25400	678
3.25767	677
3.26133	675
3.26500	672
3.26867	671
3.27233	672
3.27600	671
3.27967	671
3.28333	669
3.28700	666
3.29067	666
3.29433	665
3.29800	664
3.30167	661
3.30533	659
3.30900	656
3.31267	650
3.31633	648
3.32000	647
3.32367	645
3.32733	645
3.33100	643
3.33467	640
3.33833	637
3.34200	635
3.34567	635
3.34933	634
3.35300	632
3.35667	628
3.36033	625
3.36400	621
3.36767	617
3.37133	614
3.37500	611
3.37867	611
3.38233	610
3.38600	608
3.38967	604
3.39333	600
3.39700	597
3.40067	596
3.40433	595
3.40800	592
3.41167	587
3.41533	583
3.41900	581
3.42267	580
3.42633	578
3.43000	577
3.43367	575
3.43733	570
3.44100	565
3.44467	561
3.44833	559
3.45200	557
3.45567	554
3.45933	552
3.46300	553
3.46667	550
3.47033	548
3.47400	545
3.47767	541
3.48133	536
3.48500	530
3.48867	528
3.49233	526
3.49600	524
3.49967	520
3.50333	516
3.50700	514
3.51067	512
3.51433	508
3.51800	505
3.52167	504
3.52533	504
3.52900	503
3.53267	500
3.53633	497
3.54000	494
3.54367	492
3.54733	491
3.55100	488
3.55467	485
3.55833	481
3.56200	480
3.56567	478
3.56933	476
3.57300	475
3.57667	470
3.58033	466
3.58400	464
3.58767	461
3.59133	457
3.59500	454
3.59867	454
3.60233	454
3.60600	454
3.60967	453
3.61333	453
3.61700	449
3.62067	444
3.62433	440
3.62800	438
3.63167	436
3.63533	435
3.63900	433
3.64267	433
3.64633	431
3.65000	430
3.65367	429
3.65733	426
3.66100	419
3.66467	414
3.66833	411
3.67200	409
3.67567	410
3.67933	408
3.68300	407
3.68667	404
3.69033	401
3.69400	400
3.69767	401
3.70133	401
3.70500	401
3.70867	401
3.71233	398
3.71600	395
3.71967	392
3.72333	392
3.72700	391
3.73067	389
3.73433	388
3.73800	386
3.74167	384
3.74533	383
3.74900	382
3.75267	381
3.75633	378
3.76000	375
3.76367	373
3.76733	374
3.77100	374
3.77467	375
3.77833	376
3.78200	376
3.78567	374
3.78933	371
3.79300	370
3.79667	367
3.80033	365
3.80400	366
3.80767	365
3.81133	364
3.81500	363
3.81867	360
3.82233	360
3.82600	362
3.82967	363
3.83333	363
3.83700	363
3.84067	361
3.84433	361
3.84800	361
3.85167	363
3.85533	364
3.85900	363
3.86267	360
3.86633	359
3.87000	361
3.87367	362
3.87733	363
3.88100	362
3.88467	362
3.88833	364
3.89200	364
3.89567	363
3.89933	364
3.90300	366
3.90667	369
3.91033	369
3.91400	368
3.91767	370
3.92133	371
3.92500	371
3.92867	371
3.93233	370
3.93600	368
3.93967	367
3.94333	368
3.94700	369
3.95067	367
3.95433	365
3.95800	366
3.96167	370
3.96533	374
3.96900	374
3.97267	374
3.97633	374
3.98000	373
3.98367	373
3.98733	372
3.99100	372
3.99467	371
3.99833	368

[Status Trace (Column Oven Temperature)]
Interval(msec)	1000
# of Points	240
Start Time(min)	0.008
End Time(min)	3.992
Intensity Units	
Intensity Multiplier	1
R.Time (min)	Intensity
0.00835	35.07
0.02502	35.07
0.04168	35.06
0.05835	35.06
0.07502	35.05
0.09168	35.04
0.10835	35.03
0.12502	35.03
0.14168	35.03
0.15835	35.01
0.17502	35.00
0.19168	35.00
0.20835	35.00
0.22502	35.00
0.24168	35.01
0.25835	35.02
0.27502	35.04
0.29168	35.05
0.30835	35.05
0.32502	35.04
0.34168	35.03
0.35835	35.02
0.37502	35.02
0.39168	35.02
0.40835	35.03
0.42502	35.03
0.44168	35.02
0.45835	35.02
0.47502	35.02
0.49168	35.02
0.50835	35.01
0.52502	35.01
0.54168	35.00
0.55835	35.00
0.57502	35.01
0.59168	35.02
0.60835	35.04
0.62502	35.03
0.64168	35.02
0.65835	35.03
0.67502	35.03
0.69168	35.02
0.70835	35.01
0.72502	35.02
0.74168	35.02
0.75835	35.03
0.77502	35.03
0.79168	35.03
0.80835	35.02
0.82502	35.02
0.84168	35.02
0.85835	35.01
0.87502	35.00
0.89168	35.00
0.90835	35.01
0.92502	35.01
0.94168	35.01
0.95835	35.01
0.97502	35.02
0.99168	35.01
1.00835	35.00
1.02502	35.00
1.04168	35.00
1.05835	35.01
1.07502	35.00
1.09168	35.00
1.10835	35.01
1.12502	35.02
1.14168	35.02
1.15835	35.02
1.17502	35.02
1.19168	35.03
1.20835	35.01
1.22502	35.00
1.24168	35.00
1.25835	35.00
1.27502	34.98
1.29168	34.98
1.30835	34.98
1.32502	34.99
1.34168	35.00
1.35835	34.99
1.37502	35.00
1.39168	34.99
1.40835	34.99
1.42502	34.98
1.44168	34.97
1.45835	34.99
1.47502	34.99
1.49168	34.99
1.50835	34.99
1.52502	34.99
1.54168	34.98
1.55835	34.98
1.57502	34.98
1.59168	34.99
1.60835	35.05
1.62502	35.20
1.64168	35.37
1.65835	35.62
1.67502	36.00
1.69168	36.34
1.70835	36.70
1.72502	37.07
1.74168	37.33
1.75835	37.65
1.77502	38.02
1.79168	38.32
1.80835	38.66
1.82502	39.03
1.84168	39.31
1.85835	39.65
1.87502	39.99
1.89168	40.31
1.90835	40.63
1.92502	40.99
1.94168	41.29
1.95835	41.60
1.97502	41.97
1.99168	42.25
2.00835	42.57
2.02502	42.92
2.04168	43.23
2.05835	43.54
2.07502	43.91
2.09168	44.20
2.10835	44.53
2.12502	44.88
2.14168	45.16
2.15835	45.51
2.17502	45.85
2.19168	46.16
2.20835	46.48
2.22502	46.84
2.24168	47.16
2.25835	47.48
2.27502	47.85
2.29168	48.12
2.30835	48.50
2.32502	48.90
2.34168	49.16
2.35835	49.42
2.37502	49.63
2.39168	49.69
2.40835	49.67
2.42502	49.68
2.44168	49.69
2.45835	49.68
2.47502	49.70
2.49168	49.70
2.50835	49.71
2.52502	49.72
2.54168	49.72
2.55835	49.77
2.57502	49.78
2.59168	49.78
2.60835	49.80
2.62502	49.80
2.64168	49.81
2.65835	49.82
2.67502	49.83
2.69168	49.83
2.70835	49.84
2.72502	49.85
2.74168	49.87
2.75835	49.86
2.77502	49.85
2.79168	49.84
2.80835	49.86
2.82502	49.88
2.84168	49.88
2.85835	49.89
2.87502	49.88
2.89168	49.88
2.90835	49.88
2.92502	49.90
2.94168	49.92
2.95835	49.92
2.97502	49.93
2.99168	49.95
3.00835	49.97
3.02502	49.98
3.04168	50.00
3.05835	50.01
3.07502	50.03
3.09168	50.03
3.10835	50.03
3.12502	50.03
3.14168	50.04
3.15835	50.04
3.17502	50.04
3.19168	50.05
3.20835	50.06
3.22502	50.07
3.24168	50.07
3.25835	50.07
3.27502	50.09
3.29168	50.09
3.30835	50.09
3.32502	50.10
3.34168	50.11
3.35835	50.12
3.37502	50.12
3.39168	50.11
3.40835	50.09
3.42502	50.08
3.44168	50.07
3.45835	50.05
3.47502	50.04
3.49168	50.04
3.50835	50.03
3.52502	50.02
3.54168	50.03
3.55835	50.03
3.57502	50.02
3.59168	50.01
3.60835	50.01
3.62502	50.02
3.64168	50.03
3.65835	50.03
3.67502	50.04
3.69168	50.05
3.70835	50.05
3.72502	50.06
3.74168	50.06
3.75835	50.06
3.77502	50.06
3.79168	50.07
3.80835	50.07
3.82502	50.07
3.84168	50.07
3.85835	50.08
3.87502	50.08
3.89168	50.08
3.90835	50.08
3.92502	50.09
3.94168	50.08
3.95835	50.07
3.97502	50.05
3.99168	50.05

[Status Trace (Injection Unit Temperature)]
Interval(msec)	1000
# of Points	240
Start Time(min)	0.008
End Time(min)	3.992
Intensity Units	
Intensity Multiplier	1
R.Time (min)	Intensity
0.00835	99.99
0.02502	99.98
0.04168	99.98
0.05835	99.99
0.07502	99.98
0.09168	99.98
0.10835	99.99
0.12502	99.98
0.14168	99.98
0.15835	99.98
0.17502	99.99
0.19168	99.99
0.20835	99.99
0.22502	99.98
0.24168	99.99
0.25835	99.98
0.27502	99.98
0.29168	99.98
0.30835	99.99
0.32502	99.99
0.34168	99.98
0.35835	99.98
0.37502	99.99
0.39168	99.99
0.40835	99.99
0.42502	99.99
0.44168	99.98
0.45835	99.98
0.47502	99.98
0.49168	99.98
0.50835	99.99
0.52502	99.99
0.54168	99.99
0.55835	99.98
0.57502	99.98
0.59168	99.98
0.60835	99.99
0.62502	99.98
0.64168	99.98
0.65835	99.98
0.67502	99.99
0.69168	99.98
0.70835	99.98
0.72502	99.99
0.74168	99.98
0.75835	99.98
0.77502	99.99
0.79168	99.98
0.80835	99.99
0.82502	99.99
0.84168	99.98
0.85835	99.99
0.87502	99.99
0.89168	99.99
0.90835	99.98
0.92502	99.98
0.94168	99.99
0.95835	99.99
0.97502	99.98
0.99168	99.98
1.00835	99.99
1.02502	99.98
1.04168	99.99
1.05835	99.99
1.07502	99.99
1.09168	99.99
1.10835	99.98
1.12502	99.98
1.14168	99.99
1.15835	99.99
1.17502	99.99
1.19168	99.99
1.20835	99.99
1.22502	99.99
1.24168	99.99
1.25835	99.99
1.27502	99.99
1.29168	99.99
1.30835	99.99
1.32502	99.99
1.34168	99.99
1.35835	99.99
1.37502	99.99
1.39168	99.98
1.40835	99.99
1.42502	99.99
1.44168	99.98
1.45835	99.99
1.47502	99.99
1.49168	99.99
1.50835	99.99
1.52502	99.99
1.54168	99.99
1.55835	99.99
1.57502	99.99
1.59168	99.99
1.60835	99.99
1.62502	99.99
1.64168	99.99
1.65835	99.99
1.67502	99.99
1.69168	99.99
1.70835	99.99
1.72502	99.99
1.74168	99.99
1.75835	99.99
1.77502	99.99
1.79168	99.98
1.80835	99.98
1.82502	99.99
1.84168	99.99
1.85835	99.99
1.87502	99.98
1.89168	99.98
1.90835	99.98
1.92502	99.98
1.94168	99.98
1.95835	99.97
1.97502	99.98
1.99168	99.98
2.00835	99.98
2.02502	99.98
2.04168	99.98
2.05835	99.98
2.07502	99.98
2.09168	99.97
2.10835	99.97
2.12502	99.97
2.14168	99.97
2.15835	99.98
2.17502	99.97
2.19168	99.97
2.20835	99.96
2.22502	99.97
2.24168	99.97
2.25835	99.97
2.27502	99.97
2.29168	99.97
2.30835	99.97
2.32502	99.97
2.34168	99.97
2.35835	99.97
2.37502	99.97
2.39168	99.97
2.40835	99.97
2.42502	99.96
2.44168	99.97
2.45835	99.97
2.47502	99.97
2.49168	99.97
2.50835	99.97
2.52502	99.97
2.54168	99.97
2.55835	99.97
2.57502	99.98
2.59168	99.98
2.60835	99.98
2.62502	99.98
2.64168	99.98
2.65835	99.99
2.67502	99.98
2.69168	99.99
2.70835	99.99
2.72502	99.99
2.74168	99.99
2.75835	99.99
2.77502	99.99
2.79168	100.00
2.80835	99.99
2.82502	100.00
2.84168	99.99
2.85835	100.00
2.87502	100.00
2.89168	100.00
2.90835	100.01
2.92502	100.01
2.94168	100.01
2.95835	100.01
2.97502	100.01
2.99168	100.01
3.00835	100.01
3.02502	100.01
3.04168	100.01
3.05835	100.02
3.07502	100.01
3.09168	100.02
3.10835	100.02
3.12502	100.02
3.14168	100.02
3.15835	100.02
3.17502	100.02
3.19168	100.03
3.20835	100.03
3.22502	100.02
3.24168	100.03
3.25835	100.03
3.27502	100.03
3.29168	100.03
3.30835	100.04
3.32502	100.03
3.34168	100.03
3.35835	100.03
3.37502	100.04
3.39168	100.03
3.40835	100.04
3.42502	100.04
3.44168	100.04
3.45835	100.04
3.47502	100.04
3.49168	100.04
3.50835	100.04
3.52502	100.04
3.54168	100.04
3.55835	100.04
3.57502	100.04
3.59168	100.05
3.60835	100.04
3.62502	100.05
3.64168	100.05
3.65835	100.04
3.67502	100.05
3.69168	100.05
3.70835	100.04
3.72502	100.05
3.74168	100.05
3.75835	100.05
3.77502	100.05
3.79168	100.05
3.80835	100.05
3.82502	100.05
3.84168	100.05
3.85835	100.06
3.87502	100.05
3.89168	100.05
3.90835	100.05
3.92502	100.05
3.94168	100.05
3.95835	100.05
3.97502	100.05
3.99168	100.05

[Status Trace (Carrier Gas Pressure)]
Interval(msec)	1000
# of Points	240
Start Time(min)	0.008
End Time(min)	3.992
Intensity Units	
Intensity Multiplier	1
R.Time (min)	Intensity
0.00835	58.00
0.02502	55.25
0.04168	57.13
0.05835	59.31
0.07502	59.47
0.09168	58.07
0.10835	57.98
0.12502	58.01
0.14168	58.01
0.15835	58.01
0.17502	58.00
0.19168	58.00
0.20835	58.00
0.22502	58.00
0.24168	58.00
0.25835	58.00
0.27502	58.00
0.29168	58.00
0.30835	58.00
0.32502	58.00
0.34168	58.00
0.35835	58.00
0.37502	58.00
0.39168	58.00
0.40835	58.00
0.42502	58.00
0.44168	58.00
0.45835	58.00
0.47502	58.00
0.49168	58.00
0.50835	58.00
0.52502	58.00
0.54168	58.00
0.55835	58.00
0.57502	58.00
0.59168	58.00
0.60835	58.00
0.62502	58.00
0.64168	58.00
0.65835	58.00
0.67502	58.00
0.69168	58.00
0.70835	58.00
0.72502	58.00
0.74168	58.00
0.75835	58.00
0.77502	58.00
0.79168	58.00
0.80835	58.00
0.82502	58.00
0.84168	58.00
0.85835	58.00
0.87502	58.00
0.89168	58.00
0.90835	58.00
0.92502	58.00
0.94168	58.00
0.95835	58.00
0.97502	58.00
0.99168	58.00
1.00835	58.00
1.02502	58.00
1.04168	58.00
1.05835	58.00
1.07502	58.00
1.09168	58.00
1.10835	58.00
1.12502	58.00
1.14168	58.00
1.15835	58.00
1.17502	58.00
1.19168	58.00
1.20835	58.00
1.22502	58.00
1.24168	58.00
1.25835	58.00
1.27502	58.00
1.29168	58.00
1.30835	58.00
1.32502	58.00
1.34168	58.00
1.35835	58.00
1.37502	58.00
1.39168	58.00
1.40835	58.00
1.42502	58.00
1.44168	58.00
1.45835	58.00
1.47502	58.00
1.49168	58.00
1.50835	58.00
1.52502	58.00
1.54168	58.00
1.55835	58.00
1.57502	58.00
1.59168	58.00
1.60835	58.00
1.62502	58.00
1.64168	58.01
1.65835	58.00
1.67502	58.01
1.69168	58.00
1.70835	58.00
1.72502	58.00
1.74168	58.00
1.75835	58.00
1.77502	58.00
1.79168	58.00
1.80835	58.00
1.82502	58.00
1.84168	58.00
1.85835	58.00
1.87502	58.00
1.89168	58.00
1.90835	58.00
1.92502	58.00
1.94168	58.00
1.95835	58.00
1.97502	58.00
1.99168	58.00
2.00835	58.00
2.02502	58.00
2.04168	58.00
2.05835	58.00
2.07502	58.00
2.09168	58.00
2.10835	58.00
2.12502	58.00
2.14168	58.00
2.15835	58.00
2.17502	58.00
2.19168	58.00
2.20835	58.00
2.22502	58.00
2.24168	58.00
2.25835	58.00
2.27502	58.00
2.29168	58.00
2.30835	58.00
2.32502	58.00
2.34168	58.00
2.35835	58.00
2.37502	58.00
2.39168	57.99
2.40835	58.00
2.42502	58.00
2.44168	58.00
2.45835	58.00
2.47502	58.00
2.49168	58.00
2.50835	58.00
2.52502	57.98
2.54168	58.00
2.55835	58.00
2.57502	58.00
2.59168	58.00
2.60835	58.00
2.62502	58.00
2.64168	58.00
2.65835	58.00
2.67502	58.00
2.69168	58.00
2.70835	58.00
2.72502	58.00
2.74168	58.00
2.75835	58.00
2.77502	58.00
2.79168	58.00
2.80835	58.00
2.82502	58.00
2.84168	58.00
2.85835	58.00
2.87502	58.00
2.89168	58.00
2.90835	58.00
2.92502	58.00
2.94168	58.00
2.95835	58.00
2.97502	58.00
2.99168	58.00
3.00835	58.00
3.02502	58.00
3.04168	58.00
3.05835	58.00
3.07502	58.00
3.09168	58.00
3.10835	58.00
3.12502	58.00
3.14168	58.00
3.15835	58.00
3.17502	58.00
3.19168	58.00
3.20835	58.00
3.22502	58.00
3.24168	58.00
3.25835	58.00
3.27502	58.00
3.29168	58.00
3.30835	58.00
3.32502	58.00
3.34168	58.00
3.35835	58.00
3.37502	58.00
3.39168	58.00
3.40835	58.00
3.42502	58.00
3.44168	58.00
3.45835	58.00
3.47502	58.00
3.49168	58.00
3.50835	58.00
3.52502	58.00
3.54168	58.00
3.55835	58.00
3.57502	58.00
3.59168	58.00
3.60835	58.00
3.62502	58.00
3.64168	58.00
3.65835	58.00
3.67502	58.00
3.69168	58.00
3.70835	58.00
3.72502	58.00
3.74168	58.00
3.75835	58.00
3.77502	58.00
3.79168	58.00
3.80835	58.00
3.82502	58.00
3.84168	58.00
3.85835	58.00
3.87502	58.00
3.89168	58.00
3.90835	58.00
3.92502	58.00
3.94168	58.00
3.95835	58.00
3.97502	58.00
3.99168	58.00

[Status Trace (Carrier Gas Flow)]
Interval(msec)	1000
# of Points	240
Start Time(min)	0.008
End Time(min)	3.992
Intensity Units	
Intensity Multiplier	1
R.Time (min)	Intensity
0.00835	34.52
0.02502	34.53
0.04168	34.54
0.05835	34.55
0.07502	34.49
0.09168	34.52
0.10835	34.52
0.12502	34.52
0.14168	34.52
0.15835	34.52
0.17502	34.52
0.19168	34.52
0.20835	34.52
0.22502	34.52
0.24168	34.52
0.25835	34.52
0.27502	34.52
0.29168	34.52
0.30835	34.52
0.32502	34.51
0.34168	34.52
0.35835	34.52
0.37502	34.52
0.39168	34.52
0.40835	34.52
0.42502	34.51
0.44168	34.52
0.45835	34.52
0.47502	34.51
0.49168	34.52
0.50835	34.51
0.52502	34.52
0.54168	34.52
0.55835	34.52
0.57502	34.52
0.59168	34.52
0.60835	34.52
0.62502	34.52
0.64168	34.52
0.65835	34.52
0.67502	34.52
0.69168	34.52
0.70835	34.52
0.72502	34.52
0.74168	34.52
0.75835	34.51
0.77502	34.52
0.79168	34.52
0.80835	34.52
0.82502	34.52
0.84168	34.52
0.85835	34.52
0.87502	34.52
0.89168	34.52
0.90835	34.52
0.92502	34.51
0.94168	34.52
0.95835	34.52
0.97502	34.51
0.99168	34.52
1.00835	34.52
1.02502	34.52
1.04168	34.51
1.05835	34.52
1.07502	34.52
1.09168	34.52
1.10835	34.51
1.12502	34.52
1.14168	34.53
1.15835	34.52
1.17502	34.51
1.19168	34.52
1.20835	34.52
1.22502	34.51
1.24168	34.52
1.25835	34.52
1.27502	34.51
1.29168	34.52
1.30835	34.52
1.32502	34.52
1.34168	34.51
1.35835	34.51
1.37502	34.52
1.39168	34.52
1.40835	34.51
1.42502	34.52
1.44168	34.52
1.45835	34.52
1.47502	34.51
1.49168	34.52
1.50835	34.52
1.52502	34.52
1.54168	34.52
1.55835	34.52
1.57502	34.53
1.59168	34.52
1.60835	34.52
1.62502	34.52
1.64168	34.52
1.65835	34.52
1.67502	34.52
1.69168	34.52
1.70835	34.52
1.72502	34.51
1.74168	34.52
1.75835	34.52
1.77502	34.52
1.79168	34.51
1.80835	34.52
1.82502	34.52
1.84168	34.52
1.85835	34.52
1.87502	34.52
1.89168	34.52
1.90835	34.52
1.92502	34.52
1.94168	34.52
1.95835	34.52
1.97502	34.52
1.99168	34.52
2.00835	34.51
2.02502	34.52
2.04168	34.51
2.05835	34.52
2.07502	34.52
2.09168	34.52
2.10835	34.51
2.12502	34.52
2.14168	34.52
2.15835	34.52
2.17502	34.52
2.19168	34.52
2.20835	34.52
2.22502	34.51
2.24168	34.52
2.25835	34.52
2.27502	34.52
2.29168	34.52
2.30835	34.52
2.32502	34.52
2.34168	34.51
2.35835	34.52
2.37502	34.52
2.39168	34.51
2.40835	34.51
2.42502	34.52
2.44168	34.52
2.45835	34.52
2.47502	34.51
2.49168	34.52
2.50835	34.46
2.52502	34.52
2.54168	34.52
2.55835	34.52
2.57502	34.52
2.59168	34.52
2.60835	34.52
2.62502	34.52
2.64168	34.52
2.65835	34.52
2.67502	34.52
2.69168	34.52
2.70835	34.52
2.72502	34.52
2.74168	34.52
2.75835	34.52
2.77502	34.52
2.79168	34.52
2.80835	34.52
2.82502	34.52
2.84168	34.51
2.85835	34.52
2.87502	34.53
2.89168	34.52
2.90835	34.52
2.92502	34.52
2.94168	34.52
2.95835	34.52
2.97502	34.51
2.99168	34.52
3.00835	34.52
3.02502	34.52
3.04168	34.52
3.05835	34.52
3.07502	34.52
3.09168	34.52
3.10835	34.52
3.12502	34.52
3.14168	34.52
3.15835	34.52
3.17502	34.52
3.19168	34.52
3.20835	34.52
3.22502	34.52
3.24168	34.52
3.25835	34.52
3.27502	34.52
3.29168	34.52
3.30835	34.53
3.32502	34.53
3.34168	34.52
3.35835	34.51
3.37502	34.52
3.39168	34.52
3.40835	34.52
3.42502	34.52
3.44168	34.52
3.45835	34.52
3.47502	34.52
3.49168	34.52
3.50835	34.52
3.52502	34.51
3.54168	34.52
3.55835	34.52
3.57502	34.52
3.59168	34.52
3.60835	34.52
3.62502	34.52
3.64168	34.51
3.65835	34.52
3.67502	34.52
3.69168	34.51
3.70835	34.51
3.72502	34.52
3.74168	34.51
3.75835	34.51
3.77502	34.52
3.79168	34.52
3.80835	34.53
3.82502	34.51
3.84168	34.52
3.85835	34.52
3.87502	34.52
3.89168	34.52
3.90835	34.52
3.92502	34.52
3.94168	34.52
3.95835	34.52
3.97502	34.51
3.99168	34.52

[Status Trace (Column Flow)]
Interval(msec)	1000
# of Points	240
Start Time(min)	0.008
End Time(min)	3.992
Intensity Units	
Intensity Multiplier	1
R.Time (min)	Intensity
0.00835	5.49
0.02502	5.18
0.04168	5.39
0.05835	5.65
0.07502	5.67
0.09168	5.50
0.10835	5.49
0.12502	5.50
0.14168	5.50
0.15835	5.50
0.17502	5.50
0.19168	5.50
0.20835	5.50
0.22502	5.50
0.24168	5.50
0.25835	5.50
0.27502	5.50
0.29168	5.50
0.30835	5.50
0.32502	5.50
0.34168	5.50
0.35835	5.50
0.37502	5.50
0.39168	5.50
0.40835	5.50
0.42502	5.50
0.44168	5.50
0.45835	5.50
0.47502	5.50
0.49168	5.50
0.50835	5.50
0.52502	5.50
0.54168	5.50
0.55835	5.50
0.57502	5.50
0.59168	5.50
0.60835	5.50
0.62502	5.50
0.64168	5.50
0.65835	5.50
0.67502	5.50
0.69168	5.50
0.70835	5.50
0.72502	5.50
0.74168	5.50
0.75835	5.50
0.77502	5.50
0.79168	5.50
0.80835	5.50
0.82502	5.50
0.84168	5.50
0.85835	5.50
0.87502	5.50
0.89168	5.50
0.90835	5.50
0.92502	5.50
0.94168	5.50
0.95835	5.50
0.97502	5.50
0.99168	5.50
1.00835	5.50
1.02502	5.50
1.04168	5.50
1.05835	5.50
1.07502	5.50
1.09168	5.50
1.10835	5.50
1.12502	5.50
1.14168	5.50
1.15835	5.50
1.17502	5.50
1.19168	5.50
1.20835	5.50
1.22502	5.50
1.24168	5.50
1.25835	5.50
1.27502	5.50
1.29168	5.50
1.30835	5.50
1.32502	5.50
1.34168	5.50
1.35835	5.50
1.37502	5.50
1.39168	5.50
1.40835	5.50
1.42502	5.50
1.44168	5.50
1.45835	5.50
1.47502	5.50
1.49168	5.50
1.50835	5.50
1.52502	5.50
1.54168	5.50
1.55835	5.50
1.57502	5.50
1.59168	5.50
1.60835	5.50
1.62502	5.49
1.64168	5.49
1.65835	5.48
1.67502	5.47
1.69168	5.45
1.70835	5.44
1.72502	5.43
1.74168	5.42
1.75835	5.41
1.77502	5.40
1.79168	5.39
1.80835	5.38
1.82502	5.37
1.84168	5.36
1.85835	5.35
1.87502	5.34
1.89168	5.33
1.90835	5.32
1.92502	5.31
1.94168	5.30
1.95835	5.30
1.97502	5.29
1.99168	5.28
2.00835	5.27
2.02502	5.26
2.04168	5.25
2.05835	5.24
2.07502	5.23
2.09168	5.22
2.10835	5.21
2.12502	5.20
2.14168	5.19
2.15835	5.18
2.17502	5.17
2.19168	5.16
2.20835	5.15
2.22502	5.14
2.24168	5.13
2.25835	5.13
2.27502	5.12
2.29168	5.11
2.30835	5.10
2.32502	5.09
2.34168	5.08
2.35835	5.07
2.37502	5.07
2.39168	5.06
2.40835	5.06
2.42502	5.06
2.44168	5.06
2.45835	5.06
2.47502	5.06
2.49168	5.06
2.50835	5.06
2.52502	5.06
2.54168	5.06
2.55835	5.06
2.57502	5.06
2.59168	5.06
2.60835	5.06
2.62502	5.06
2.64168	5.06
2.65835	5.06
2.67502	5.06
2.69168	5.06
2.70835	5.06
2.72502	5.06
2.74168	5.06
2.75835	5.06
2.77502	5.06
2.79168	5.06
2.80835	5.06
2.82502	5.06
2.84168	5.06
2.85835	5.06
2.87502	5.06
2.89168	5.06
2.90835	5.06
2.92502	5.06
2.94168	5.06
2.95835	5.06
2.97502	5.06
2.99168	5.06
3.00835	5.06
3.02502	5.06
3.04168	5.06
3.05835	5.06
3.07502	5.05
3.09168	5.05
3.10835	5.05
3.12502	5.05
3.14168	5.05
3.15835	5.05
3.17502	5.05
3.19168	5.05
3.20835	5.05
3.22502	5.05
3.24168	5.05
3.25835	5.05
3.27502	5.05
3.29168	5.05
3.30835	5.05
3.32502	5.05
3.34168	5.05
3.35835	5.05
3.37502	5.05
3.39168	5.05
3.40835	5.05
3.42502	5.05
3.44168	5.05
3.45835	5.05
3.47502	5.05
3.49168	5.05
3.50835	5.05
3.52502	5.05
3.54168	5.05
3.55835	5.05
3.57502	5.05
3.59168	5.06
3.60835	5.06
3.62502	5.06
3.64168	5.05
3.65835	5.05
3.67502	5.05
3.69168	5.05
3.70835	5.05
3.72502	5.05
3.74168	5.05
3.75835	5.05
3.77502	5.05
3.79168	5.05
3.80835	5.05
3.82502	5.05
3.84168	5.05
3.85835	5.05
3.87502	5.05
3.89168	5.05
3.90835	5.05
3.92502	5.05
3.94168	5.05
3.95835	5.05
3.97502	5.05
3.99168	5.05

[Status Trace (Linear Velocity)]
Interval(msec)	1000
# of Points	240
Start Time(min)	0.008
End Time(min)	3.992
Intensity Units	
Intensity Multiplier	1
R.Time (min)	Intensity
0.00835	39.00
0.02502	37.20
0.04168	38.44
0.05835	39.86
0.07502	39.97
0.09168	39.05
0.10835	39.00
0.12502	39.01
0.14168	39.01
0.15835	39.01
0.17502	39.01
0.19168	39.01
0.20835	39.01
0.22502	39.01
0.24168	39.01
0.25835	39.01
0.27502	39.01
0.29168	39.01
0.30835	39.01
0.32502	39.01
0.34168	39.01
0.35835	39.01
0.37502	39.01
0.39168	39.01
0.40835	39.01
0.42502	39.01
0.44168	39.01
0.45835	39.01
0.47502	39.01
0.49168	39.01
0.50835	39.01
0.52502	39.01
0.54168	39.01
0.55835	39.01
0.57502	39.01
0.59168	39.01
0.60835	39.01
0.62502	39.01
0.64168	39.01
0.65835	39.01
0.67502	39.01
0.69168	39.01
0.70835	39.01
0.72502	39.01
0.74168	39.01
0.75835	39.01
0.77502	39.01
0.79168	39.01
0.80835	39.01
0.82502	39.01
0.84168	39.01
0.85835	39.01
0.87502	39.01
0.89168	39.01
0.90835	39.01
0.92502	39.01
0.94168	39.01
0.95835	39.01
0.97502	39.01
0.99168	39.01
1.00835	39.01
1.02502	39.01
1.04168	39.01
1.05835	39.01
1.07502	39.01
1.09168	39.01
1.10835	39.01
1.12502	39.01
1.14168	39.01
1.15835	39.01
1.17502	39.01
1.19168	39.01
1.20835	39.01
1.22502	39.01
1.24168	39.01
1.25835	39.01
1.27502	39.01
1.29168	39.01
1.30835	39.01
1.32502	39.01
1.34168	39.01
1.35835	39.01
1.37502	39.01
1.39168	39.01
1.40835	39.01
1.42502	39.01
1.44168	39.01
1.45835	39.01
1.47502	39.01
1.49168	39.01
1.50835	39.01
1.52502	39.01
1.54168	39.01
1.55835	39.01
1.57502	39.01
1.59168	39.01
1.60835	39.01
1.62502	38.99
1.64168	38.98
1.65835	38.95
1.67502	38.92
1.69168	38.88
1.70835	38.85
1.72502	38.81
1.74168	38.79
1.75835	38.76
1.77502	38.73
1.79168	38.69
1.80835	38.66
1.82502	38.63
1.84168	38.60
1.85835	38.57
1.87502	38.54
1.89168	38.51
1.90835	38.48
1.92502	38.44
1.94168	38.42
1.95835	38.39
1.97502	38.36
1.99168	38.33
2.00835	38.30
2.02502	38.27
2.04168	38.24
2.05835	38.21
2.07502	38.18
2.09168	38.15
2.10835	38.12
2.12502	38.09
2.14168	38.06
2.15835	38.03
2.17502	38.00
2.19168	37.97
2.20835	37.94
2.22502	37.91
2.24168	37.88
2.25835	37.85
2.27502	37.82
2.29168	37.79
2.30835	37.76
2.32502	37.72
2.34168	37.70
2.35835	37.68
2.37502	37.66
2.39168	37.65
2.40835	37.65
2.42502	37.65
2.44168	37.65
2.45835	37.65
2.47502	37.65
2.49168	37.65
2.50835	37.65
2.52502	37.64
2.54168	37.65
2.55835	37.65
2.57502	37.65
2.59168	37.65
2.60835	37.64
2.62502	37.64
2.64168	37.64
2.65835	37.64
2.67502	37.64
2.69168	37.64
2.70835	37.64
2.72502	37.64
2.74168	37.64
2.75835	37.64
2.77502	37.64
2.79168	37.64
2.80835	37.64
2.82502	37.64
2.84168	37.64
2.85835	37.64
2.87502	37.64
2.89168	37.64
2.90835	37.64
2.92502	37.64
2.94168	37.63
2.95835	37.63
2.97502	37.63
2.99168	37.63
3.00835	37.63
3.02502	37.63
3.04168	37.63
3.05835	37.63
3.07502	37.62
3.09168	37.62
3.10835	37.62
3.12502	37.62
3.14168	37.62
3.15835	37.62
3.17502	37.62
3.19168	37.62
3.20835	37.62
3.22502	37.62
3.24168	37.62
3.25835	37.62
3.27502	37.62
3.29168	37.62
3.30835	37.62
3.32502	37.62
3.34168	37.62
3.35835	37.62
3.37502	37.62
3.39168	37.62
3.40835	37.62
3.42502	37.62
3.44168	37.62
3.45835	37.62
3.47502	37.62
3.49168	37.62
3.50835	37.62
3.52502	37.62
3.54168	37.62
3.55835	37.62
3.57502	37.63
3.59168	37.63
3.60835	37.63
3.62502	37.63
3.64168	37.62
3.65835	37.62
3.67502	37.62
3.69168	37.62
3.70835	37.62
3.72502	37.62
3.74168	37.62
3.75835	37.62
3.77502	37.62
3.79168	37.62
3.80835	37.62
3.82502	37.62
3.84168	37.62
3.85835	37.62
3.87502	37.62
3.89168	37.62
3.90835	37.62
3.92502	37.62
3.94168	37.62
3.95835	37.62
3.97502	37.62
3.99168	37.62

