[Header]
Application Name	LabSolutions
Version	5.110
Data File Name	C:\Users\User\Desktop\Junior\UIC Prairie Sampling\6.15.23\06152023_064.gcd
Output Date	6/26/2023
Output Time	12:05:11 PM

[File Information]
Type	Data File
Generated	6/23/2023 6:36:35 PM
Generated by	System Administrator
Modified	6/23/2023 6:44:01 PM
Modified by	System Administrator

[Sample Information]
Operator Name	System Administrator
Acquired	6/23/2023 6:40:00 PM
Sample Type	0:Unknown
Level	0
Sample Name	064
Sample ID	064
ISTD Amount1	1
ISTD Amount2	1
ISTD Amount3	1
ISTD Amount4	1
ISTD Amount5	1
ISTD Amount6	1
ISTD Amount7	1
ISTD Amount8	1
ISTD Amount9	1
ISTD Amount10	1
ISTD Amount11	1
ISTD Amount12	1
ISTD Amount13	1
ISTD Amount14	1
ISTD Amount15	1
ISTD Amount16	1
ISTD Amount17	1
ISTD Amount18	1
ISTD Amount19	1
ISTD Amount20	1
ISTD Amount21	1
ISTD Amount22	1
ISTD Amount23	1
ISTD Amount24	1
ISTD Amount25	1
ISTD Amount26	1
ISTD Amount27	1
ISTD Amount28	1
ISTD Amount29	1
ISTD Amount30	1
ISTD Amount31	1
ISTD Amount32	1
Sample Amount	1
Dilution Factor	1
Vial#	63
Injection Volume	1
Injection Count	1
Bar Code	

[Original Files]
Data File	C:\Users\User\Desktop\Junior\UIC Prairie Sampling\6.15.23\06152023_064.gcd
Method File	C:\LabSolutions\Data\GHG_4min_2022\ghg3_togas_w_acet_4 min_new_int.gcm
Batch File	C:\LabSolutions\Data\AutoSamplerTesting\06152023.gcb
Report Format File	c:\LabSolutions\System\DEFAULT.lsr

[File Description]


[Configuration]
Instrument Name	C0B7VH3-Instrument1
Instrument #	1
Line #	1
# of Detectors	3
Detector ID	DET#1	DET#2	DET#3
Detector Name	FID	PTCD	ECD
# of Channels	1	1	1

[Peak Table(Ch1)]
# of Peaks	3
Peak#	R.Time	I.Time	F.Time	Area	Height	A/H	Conc.	Mark	ID#	Name	k'	Plate #	Plate Ht.	Tailing	Resolution	Sep.Factor	Area Ratio	Height Ratio	Conc. %	Norm Conc.
1	1.472	1.428	1.523	2593	1280	2.026	0.000	   	1	CO	0.000	9498	15.793	1.364	0.000	0.000	0	0	0.000	0.000
2	1.564	1.531	1.622	4340	2220	1.955	21.159	   	2	CH4	0.062	11696	12.824	1.163	1.550	0.000	0	0	5.181	5.181
3	1.989	1.945	2.455	2009417	964004	2.084	387.252	   	3	CO2	0.351	17379	8.631	1.283	7.198	5.640	0	0	94.819	94.819

[Peak Table(Ch2)]
# of Peaks	0

[Peak Table(Ch3)]
# of Peaks	4
Peak#	R.Time	I.Time	F.Time	Area	Height	A/H	Conc.	Mark	ID#	Name	k'	Plate #	Plate Ht.	Tailing	Resolution	Sep.Factor	Area Ratio	Height Ratio	Conc. %	Norm Conc.
1	2.458	2.407	2.502	1062	423	2.509	0.000	   			0.000	12770	11.746	0.000	0.000	0.000	0	0	0.000	0.000
2	2.590	2.502	2.664	6143	825	7.445	0.000	 V 			0.054	1606	93.413	0.000	0.764	0.000	0	0	0.000	0.000
3	2.737	2.664	2.829	5837	652	8.946	0.086	 V 	1	N2O	0.113	75	1992.415	0.000	0.193	2.111	0	0	13.029	13.029
4	2.887	2.829	3.980	38964	5278	7.383	0.576	 V 	1	N2O	0.175	11687	12.835	0.000	0.220	1.539	0	0	86.971	86.971

[Compound Results(Ch1)]
# of IDs	6
ID#	Name	R.Time	Area	Height	Conc.	Curve	3rd	2nd	1st	Constant	Area Ratio	Height Ratio	Conc. %	Norm Conc.
1	CO	1.472	2593	1280	0.000	Linear	0.000000e+00	0.000000e+00	0.000000e+00	0.000000e+00	0	0	0.000	0.000
2	CH4	1.564	4340	2220	21.159	Linear	0.000000e+00	0.000000e+00	2.051179e+002	0.000000e+00	0	0	5.181	5.181
3	CO2	1.989	2009417	964004	387.252	Linear	0.000000e+00	0.000000e+00	5.188919e+003	0.000000e+00	0	0	94.819	94.819
4	Ethylene	0.000	0	0	0.000	Linear	0.000000e+00	0.000000e+00	0.000000e+00	0.000000e+00	0	0	0.000	0.000
5	Acetylene	0.000	0	0	0.000	Linear	0.000000e+00	0.000000e+00	0.000000e+00	0.000000e+00	0	0	0.000	0.000
6	Ethane	0.000	0	0	0.000	Linear	0.000000e+00	0.000000e+00	0.000000e+00	0.000000e+00	0	0	0.000	0.000

[Compound Results(Ch2)]
# of IDs	5
ID#	Name	R.Time	Area	Height	Conc.	Curve	3rd	2nd	1st	Constant	Area Ratio	Height Ratio	Conc. %	Norm Conc.
1	Hydrogen	0.000	0	0	0.000	Linear	0.000000e+00	0.000000e+00	0.000000e+00	0.000000e+00	0	0	0.000	0.000
2	Oxygen	0.000	0	0	0.000	Linear	0.000000e+00	0.000000e+00	0.000000e+00	0.000000e+00	0	0	0.000	0.000
3	Nitrogen	0.000	0	0	0.000	Linear	0.000000e+00	0.000000e+00	0.000000e+00	0.000000e+00	0	0	0.000	0.000
4	Methane	0.000	0	0	0.000	Linear	0.000000e+00	0.000000e+00	0.000000e+00	0.000000e+00	0	0	0.000	0.000
5	Carbon Monoxide	0.000	0	0	0.000	Linear	0.000000e+00	0.000000e+00	0.000000e+00	0.000000e+00	0	0	0.000	0.000

[Compound Results(Ch3)]
# of IDs	2
ID#	Name	R.Time	Area	Height	Conc.	Curve	3rd	2nd	1st	Constant	Area Ratio	Height Ratio	Conc. %	Norm Conc.
1	N2O	2.887	44801	5930	0.663	Linear	0.000000e+00	0.000000e+00	6.759880e+004	0.000000e+00	0	0	100.000	100.000
2	SF6	0.000	0	0	0.000	Linear	0.000000e+00	0.000000e+00	0.000000e+00	0.000000e+00	0	0	0.000	0.000

[Group Results(Ch1)]
# of Groups	0

[Group Results(Ch2)]
# of Groups	0

[Group Results(Ch3)]
# of Groups	0

[Chromatogram (Ch1)]
Interval(msec)	220
# of Points	1091
Start Time(min)	0.002
End Time(min)	3.998
R.Time (min)	Intensity
0.00167	-19
0.00533	-18
0.00900	-16
0.01267	-12
0.01633	-7
0.02000	-6
0.02367	-8
0.02733	-8
0.03100	-6
0.03467	-2
0.03833	1
0.04200	3
0.04567	5
0.04933	6
0.05300	8
0.05667	8
0.06033	7
0.06400	4
0.06767	1
0.07133	2
0.07500	2
0.07867	3
0.08233	6
0.08600	9
0.08967	9
0.09333	1
0.09700	-13
0.10067	-30
0.10433	-44
0.10800	-50
0.11167	-49
0.11533	-46
0.11900	-45
0.12267	-43
0.12633	-40
0.13000	-33
0.13367	-23
0.13733	-13
0.14100	-3
0.14467	4
0.14833	3
0.15200	-5
0.15567	-12
0.15933	-15
0.16300	-13
0.16667	-13
0.17033	-15
0.17400	-20
0.17767	-24
0.18133	-30
0.18500	-37
0.18867	-40
0.19233	-38
0.19600	-33
0.19967	-30
0.20333	-27
0.20700	-24
0.21067	-18
0.21433	-9
0.21800	2
0.22167	7
0.22533	5
0.22900	-2
0.23267	-7
0.23633	-6
0.24000	-6
0.24367	-8
0.24733	-9
0.25100	-9
0.25467	-8
0.25833	-10
0.26200	-14
0.26567	-18
0.26933	-17
0.27300	-14
0.27667	-14
0.28033	-17
0.28400	-19
0.28767	-20
0.29133	-26
0.29500	-28
0.29867	-31
0.30233	-34
0.30600	-36
0.30967	-31
0.31333	-24
0.31700	-19
0.32067	-18
0.32433	-17
0.32800	-18
0.33167	-20
0.33533	-17
0.33900	-9
0.34267	-2
0.34633	-1
0.35000	-2
0.35367	-2
0.35733	-3
0.36100	-3
0.36467	-4
0.36833	-7
0.37200	-10
0.37567	-14
0.37933	-16
0.38300	-17
0.38667	-16
0.39033	-15
0.39400	-13
0.39767	-9
0.40133	-4
0.40500	-0
0.40867	-1
0.41233	-3
0.41600	-5
0.41967	-6
0.42333	-9
0.42700	-15
0.43067	-22
0.43433	-27
0.43800	-28
0.44167	-28
0.44533	-25
0.44900	-21
0.45267	-18
0.45633	-22
0.46000	-31
0.46367	-40
0.46733	-44
0.47100	-43
0.47467	-38
0.47833	-34
0.48200	-29
0.48567	-28
0.48933	-27
0.49300	-26
0.49667	-22
0.50033	-17
0.50400	-14
0.50767	-14
0.51133	-20
0.51500	-28
0.51867	-33
0.52233	-36
0.52600	-37
0.52967	-39
0.53333	-40
0.53700	-45
0.54067	-49
0.54433	-49
0.54800	-49
0.55167	-48
0.55533	-43
0.55900	-40
0.56267	-37
0.56633	-33
0.57000	-27
0.57367	-21
0.57733	-16
0.58100	-11
0.58467	-9
0.58833	-13
0.59200	-20
0.59567	-29
0.59933	-38
0.60300	-44
0.60667	-44
0.61033	-41
0.61400	-35
0.61767	-30
0.62133	-31
0.62500	-34
0.62867	-41
0.63233	-46
0.63600	-47
0.63967	-42
0.64333	-39
0.64700	-37
0.65067	-40
0.65433	-46
0.65800	-52
0.66167	-54
0.66533	-51
0.66900	-48
0.67267	-46
0.67633	-46
0.68000	-46
0.68367	-45
0.68733	-43
0.69100	-39
0.69467	-35
0.69833	-31
0.70200	-29
0.70567	-26
0.70933	-25
0.71300	-24
0.71667	-24
0.72033	-25
0.72400	-24
0.72767	-23
0.73133	-21
0.73500	-23
0.73867	-25
0.74233	-28
0.74600	-30
0.74967	-31
0.75333	-34
0.75700	-38
0.76067	-43
0.76433	-45
0.76800	-44
0.77167	-40
0.77533	-37
0.77900	-35
0.78267	-35
0.78633	-33
0.79000	-29
0.79367	-25
0.79733	-25
0.80100	-29
0.80467	-37
0.80833	-46
0.81200	-53
0.81567	-54
0.81933	-50
0.82300	-51
0.82667	-56
0.83033	-61
0.83400	-64
0.83767	-65
0.84133	-60
0.84500	-49
0.84867	-36
0.85233	-25
0.85600	-23
0.85967	-30
0.86333	-44
0.86700	-59
0.87067	-71
0.87433	-79
0.87800	-81
0.88167	-80
0.88533	-79
0.88900	-81
0.89267	-82
0.89633	-78
0.90000	-74
0.90367	-69
0.90733	-64
0.91100	-60
0.91467	-59
0.91833	-60
0.92200	-62
0.92567	-62
0.92933	-62
0.93300	-64
0.93667	-66
0.94033	-67
0.94400	-65
0.94767	-60
0.95133	-54
0.95500	-50
0.95867	-47
0.96233	-46
0.96600	-46
0.96967	-45
0.97333	-44
0.97700	-43
0.98067	-41
0.98433	-44
0.98800	-51
0.99167	-59
0.99533	-63
0.99900	-63
1.00267	-60
1.00633	-58
1.01000	-57
1.01367	-57
1.01733	-54
1.02100	-50
1.02467	-48
1.02833	-50
1.03200	-52
1.03567	-54
1.03933	-59
1.04300	-64
1.04667	-64
1.05033	-62
1.05400	-60
1.05767	-59
1.06133	-60
1.06500	-62
1.06867	-65
1.07233	-69
1.07600	-70
1.07967	-68
1.08333	-66
1.08700	-62
1.09067	-59
1.09433	-60
1.09800	-62
1.10167	-65
1.10533	-65
1.10900	-63
1.11267	-62
1.11633	-62
1.12000	-59
1.12367	-56
1.12733	-56
1.13100	-56
1.13467	-52
1.13833	-48
1.14200	-46
1.14567	-46
1.14933	-49
1.15300	-51
1.15667	-52
1.16033	-56
1.16400	-66
1.16767	-77
1.17133	-85
1.17500	-87
1.17867	-87
1.18233	-86
1.18600	-86
1.18967	-86
1.19333	-90
1.19700	-92
1.20067	-91
1.20433	-92
1.20800	-93
1.21167	-93
1.21533	-93
1.21900	-92
1.22267	-90
1.22633	-83
1.23000	-75
1.23367	-70
1.23733	-68
1.24100	-65
1.24467	-63
1.24833	-63
1.25200	-63
1.25567	-63
1.25933	-63
1.26300	-67
1.26667	-69
1.27033	-66
1.27400	-63
1.27767	-65
1.28133	-70
1.28500	-73
1.28867	-74
1.29233	-77
1.29600	-81
1.29967	-87
1.30333	-90
1.30700	-90
1.31067	-92
1.31433	-95
1.31800	-96
1.32167	-94
1.32533	-90
1.32900	-86
1.33267	-84
1.33633	-81
1.34000	-76
1.34367	-70
1.34733	-65
1.35100	-62
1.35467	-61
1.35833	-62
1.36200	-67
1.36567	-71
1.36933	-76
1.37300	-80
1.37667	-84
1.38033	-84
1.38400	-83
1.38767	-80
1.39133	-75
1.39500	-71
1.39867	-67
1.40233	-65
1.40600	-63
1.40967	-63
1.41333	-65
1.41700	-69
1.42067	-70
1.42433	-67
1.42800	-62
1.43167	-57
1.43533	-50
1.43900	-40
1.44267	-44
1.44633	-30
1.45000	70
1.45367	268
1.45733	510
1.46100	747
1.46467	956
1.46833	1120
1.47200	1212
1.47567	1200
1.47933	1087
1.48300	910
1.48667	717
1.49033	543
1.49400	397
1.49767	279
1.50133	182
1.50500	108
1.50867	53
1.51233	11
1.51600	-25
1.51967	-54
1.52333	-75
1.52700	-89
1.53067	-89
1.53433	-48
1.53800	94
1.54167	384
1.54533	798
1.54900	1244
1.55267	1637
1.55633	1931
1.56000	2105
1.56367	2127
1.56733	1977
1.57100	1686
1.57467	1324
1.57833	968
1.58200	662
1.58567	426
1.58933	255
1.59300	139
1.59667	64
1.60033	11
1.60400	-26
1.60767	-53
1.61133	-71
1.61500	-84
1.61867	-93
1.62233	-100
1.62600	-103
1.62967	-103
1.63333	-98
1.63700	-91
1.64067	-84
1.64433	-81
1.64800	-83
1.65167	-89
1.65533	-93
1.65900	-96
1.66267	-95
1.66633	-94
1.67000	-93
1.67367	-90
1.67733	-84
1.68100	-75
1.68467	-67
1.68833	-64
1.69200	-67
1.69567	-73
1.69933	-81
1.70300	-84
1.70667	-84
1.71033	-86
1.71400	-91
1.71767	-98
1.72133	-106
1.72500	-113
1.72867	-117
1.73233	-119
1.73600	-120
1.73967	-120
1.74333	-119
1.74700	-115
1.75067	-108
1.75433	-99
1.75800	-91
1.76167	-86
1.76533	-86
1.76900	-94
1.77267	-105
1.77633	-109
1.78000	-106
1.78367	-102
1.78733	-99
1.79100	-99
1.79467	-100
1.79833	-101
1.80200	-102
1.80567	-103
1.80933	-105
1.81300	-107
1.81667	-108
1.82033	-104
1.82400	-99
1.82767	-92
1.83133	-91
1.83500	-95
1.83867	-99
1.84233	-100
1.84600	-98
1.84967	-93
1.85333	-90
1.85700	-91
1.86067	-97
1.86433	-101
1.86800	-105
1.87167	-109
1.87533	-112
1.87900	-112
1.88267	-107
1.88633	-102
1.89000	-103
1.89367	-104
1.89733	-101
1.90100	-95
1.90467	-90
1.90833	-88
1.91200	-85
1.91567	-78
1.91933	-69
1.92300	-66
1.92667	-74
1.93033	-88
1.93400	-102
1.93767	-114
1.94133	-118
1.94500	-97
1.94867	64
1.95233	1034
1.95600	5558
1.95967	21396
1.96333	63697
1.96700	150929
1.97067	290992
1.97433	469961
1.97800	656514
1.98167	816903
1.98533	924551
1.98900	963960
1.99267	932634
1.99633	841259
2.00000	711072
2.00367	567399
2.00733	431560
2.01100	316381
2.01467	226147
2.01833	159364
2.02200	111856
2.02567	78933
2.02933	56471
2.03300	41255
2.03667	30944
2.04033	23907
2.04400	19043
2.04767	15616
2.05133	13149
2.05500	11327
2.05867	9944
2.06233	8866
2.06600	8012
2.06967	7318
2.07333	6738
2.07700	6243
2.08067	5819
2.08433	5448
2.08800	5118
2.09167	4825
2.09533	4563
2.09900	4328
2.10267	4117
2.10633	3922
2.11000	3744
2.11367	3582
2.11733	3431
2.12100	3290
2.12467	3158
2.12833	3036
2.13200	2920
2.13567	2808
2.13933	2698
2.14300	2599
2.14667	2513
2.15033	2434
2.15400	2358
2.15767	2284
2.16133	2213
2.16500	2147
2.16867	2083
2.17233	2024
2.17600	1968
2.17967	1915
2.18333	1864
2.18700	1817
2.19067	1768
2.19433	1719
2.19800	1671
2.20167	1627
2.20533	1587
2.20900	1549
2.21267	1511
2.21633	1477
2.22000	1450
2.22367	1426
2.22733	1399
2.23100	1367
2.23467	1330
2.23833	1293
2.24200	1258
2.24567	1224
2.24933	1193
2.25300	1168
2.25667	1146
2.26033	1124
2.26400	1104
2.26767	1084
2.27133	1065
2.27500	1047
2.27867	1028
2.28233	1008
2.28600	989
2.28967	971
2.29333	955
2.29700	937
2.30067	919
2.30433	901
2.30800	886
2.31167	872
2.31533	855
2.31900	838
2.32267	823
2.32633	813
2.33000	807
2.33367	802
2.33733	797
2.34100	788
2.34467	771
2.34833	747
2.35200	724
2.35567	708
2.35933	697
2.36300	691
2.36667	683
2.37033	675
2.37400	668
2.37767	664
2.38133	659
2.38500	650
2.38867	634
2.39233	616
2.39600	598
2.39967	581
2.40333	567
2.40700	558
2.41067	549
2.41433	541
2.41800	536
2.42167	532
2.42533	530
2.42900	528
2.43267	525
2.43633	523
2.44000	522
2.44367	522
2.44733	521
2.45100	522
2.45467	519
2.45833	514
2.46200	513
2.46567	510
2.46933	503
2.47300	491
2.47667	479
2.48033	472
2.48400	468
2.48767	465
2.49133	461
2.49500	452
2.49867	439
2.50233	425
2.50600	413
2.50967	407
2.51333	405
2.51700	404
2.52067	398
2.52433	390
2.52800	383
2.53167	377
2.53533	373
2.53900	373
2.54267	379
2.54633	389
2.55000	397
2.55367	394
2.55733	383
2.56100	374
2.56467	368
2.56833	364
2.57200	354
2.57567	342
2.57933	332
2.58300	323
2.58667	312
2.59033	301
2.59400	298
2.59767	302
2.60133	310
2.60500	320
2.60867	325
2.61233	321
2.61600	308
2.61967	296
2.62333	288
2.62700	286
2.63067	288
2.63433	291
2.63800	292
2.64167	290
2.64533	287
2.64900	283
2.65267	278
2.65633	278
2.66000	281
2.66367	284
2.66733	283
2.67100	283
2.67467	285
2.67833	286
2.68200	286
2.68567	281
2.68933	275
2.69300	273
2.69667	271
2.70033	268
2.70400	261
2.70767	256
2.71133	254
2.71500	257
2.71867	261
2.72233	263
2.72600	262
2.72967	256
2.73333	249
2.73700	242
2.74067	236
2.74433	239
2.74800	244
2.75167	246
2.75533	244
2.75900	243
2.76267	239
2.76633	235
2.77000	232
2.77367	228
2.77733	223
2.78100	218
2.78467	215
2.78833	211
2.79200	207
2.79567	203
2.79933	200
2.80300	202
2.80667	208
2.81033	217
2.81400	220
2.81767	216
2.82133	209
2.82500	204
2.82867	199
2.83233	195
2.83600	195
2.83967	197
2.84333	199
2.84700	201
2.85067	202
2.85433	204
2.85800	202
2.86167	195
2.86533	186
2.86900	179
2.87267	174
2.87633	172
2.88000	173
2.88367	174
2.88733	179
2.89100	183
2.89467	183
2.89833	182
2.90200	181
2.90567	181
2.90933	183
2.91300	188
2.91667	192
2.92033	193
2.92400	189
2.92767	182
2.93133	177
2.93500	173
2.93867	169
2.94233	167
2.94600	166
2.94967	165
2.95333	168
2.95700	177
2.96067	186
2.96433	192
2.96800	192
2.97167	187
2.97533	179
2.97900	170
2.98267	162
2.98633	158
2.99000	159
2.99367	161
2.99733	163
3.00100	166
3.00467	170
3.00833	171
3.01200	167
3.01567	160
3.01933	153
3.02300	147
3.02667	137
3.03033	129
3.03400	128
3.03767	132
3.04133	138
3.04500	141
3.04867	141
3.05233	141
3.05600	140
3.05967	143
3.06333	149
3.06700	155
3.07067	158
3.07433	157
3.07800	156
3.08167	154
3.08533	151
3.08900	150
3.09267	152
3.09633	154
3.10000	152
3.10367	149
3.10733	146
3.11100	143
3.11467	140
3.11833	137
3.12200	134
3.12567	133
3.12933	134
3.13300	135
3.13667	135
3.14033	133
3.14400	132
3.14767	130
3.15133	131
3.15500	132
3.15867	132
3.16233	133
3.16600	138
3.16967	142
3.17333	144
3.17700	146
3.18067	148
3.18433	150
3.18800	147
3.19167	140
3.19533	132
3.19900	127
3.20267	124
3.20633	125
3.21000	129
3.21367	130
3.21733	126
3.22100	121
3.22467	115
3.22833	109
3.23200	105
3.23567	105
3.23933	109
3.24300	116
3.24667	119
3.25033	119
3.25400	117
3.25767	117
3.26133	119
3.26500	119
3.26867	123
3.27233	127
3.27600	129
3.27967	127
3.28333	121
3.28700	115
3.29067	110
3.29433	107
3.29800	107
3.30167	110
3.30533	115
3.30900	119
3.31267	119
3.31633	118
3.32000	116
3.32367	112
3.32733	108
3.33100	103
3.33467	100
3.33833	102
3.34200	101
3.34567	97
3.34933	94
3.35300	92
3.35667	92
3.36033	94
3.36400	100
3.36767	106
3.37133	109
3.37500	110
3.37867	112
3.38233	108
3.38600	103
3.38967	101
3.39333	101
3.39700	102
3.40067	104
3.40433	106
3.40800	108
3.41167	110
3.41533	113
3.41900	114
3.42267	109
3.42633	102
3.43000	97
3.43367	93
3.43733	90
3.44100	89
3.44467	88
3.44833	88
3.45200	86
3.45567	81
3.45933	78
3.46300	81
3.46667	85
3.47033	89
3.47400	91
3.47767	91
3.48133	87
3.48500	85
3.48867	83
3.49233	82
3.49600	84
3.49967	89
3.50333	95
3.50700	100
3.51067	102
3.51433	99
3.51800	93
3.52167	86
3.52533	79
3.52900	74
3.53267	67
3.53633	61
3.54000	59
3.54367	59
3.54733	59
3.55100	59
3.55467	62
3.55833	70
3.56200	77
3.56567	81
3.56933	86
3.57300	88
3.57667	87
3.58033	85
3.58400	82
3.58767	81
3.59133	79
3.59500	78
3.59867	79
3.60233	82
3.60600	79
3.60967	72
3.61333	67
3.61700	66
3.62067	67
3.62433	69
3.62800	70
3.63167	71
3.63533	72
3.63900	71
3.64267	70
3.64633	71
3.65000	70
3.65367	64
3.65733	60
3.66100	58
3.66467	58
3.66833	58
3.67200	58
3.67567	59
3.67933	64
3.68300	70
3.68667	77
3.69033	80
3.69400	80
3.69767	75
3.70133	71
3.70500	69
3.70867	66
3.71233	61
3.71600	53
3.71967	50
3.72333	52
3.72700	54
3.73067	58
3.73433	62
3.73800	64
3.74167	62
3.74533	54
3.74900	45
3.75267	43
3.75633	48
3.76000	57
3.76367	66
3.76733	71
3.77100	68
3.77467	60
3.77833	51
3.78200	43
3.78567	39
3.78933	40
3.79300	42
3.79667	43
3.80033	46
3.80400	48
3.80767	48
3.81133	46
3.81500	45
3.81867	45
3.82233	48
3.82600	49
3.82967	46
3.83333	42
3.83700	42
3.84067	47
3.84433	53
3.84800	56
3.85167	57
3.85533	56
3.85900	53
3.86267	50
3.86633	50
3.87000	55
3.87367	60
3.87733	61
3.88100	60
3.88467	56
3.88833	51
3.89200	46
3.89567	43
3.89933	43
3.90300	41
3.90667	40
3.91033	40
3.91400	39
3.91767	39
3.92133	41
3.92500	40
3.92867	37
3.93233	40
3.93600	48
3.93967	52
3.94333	50
3.94700	46
3.95067	45
3.95433	49
3.95800	56
3.96167	66
3.96533	73
3.96900	74
3.97267	74
3.97633	72
3.98000	68
3.98367	66
3.98733	66
3.99100	63
3.99467	56
3.99833	47

[Chromatogram (Ch2)]
Interval(msec)	220
# of Points	1091
Start Time(min)	0.002
End Time(min)	3.998
R.Time (min)	Intensity
0.00167	-1
0.00533	-1
0.00900	-2
0.01267	-2
0.01633	-2
0.02000	-2
0.02367	-1
0.02733	-1
0.03100	-0
0.03467	0
0.03833	1
0.04200	1
0.04567	1
0.04933	2
0.05300	2
0.05667	2
0.06033	2
0.06400	2
0.06767	2
0.07133	1
0.07500	1
0.07867	1
0.08233	1
0.08600	2
0.08967	2
0.09333	2
0.09700	3
0.10067	3
0.10433	3
0.10800	3
0.11167	3
0.11533	3
0.11900	3
0.12267	3
0.12633	3
0.13000	3
0.13367	3
0.13733	3
0.14100	3
0.14467	3
0.14833	3
0.15200	2
0.15567	2
0.15933	1
0.16300	1
0.16667	0
0.17033	0
0.17400	0
0.17767	0
0.18133	0
0.18500	0
0.18867	0
0.19233	0
0.19600	0
0.19967	1
0.20333	1
0.20700	1
0.21067	0
0.21433	0
0.21800	0
0.22167	-0
0.22533	-0
0.22900	-1
0.23267	-1
0.23633	-1
0.24000	-2
0.24367	-2
0.24733	-2
0.25100	-2
0.25467	-2
0.25833	-2
0.26200	-1
0.26567	-1
0.26933	-1
0.27300	-1
0.27667	-1
0.28033	-1
0.28400	-1
0.28767	-2
0.29133	-1
0.29500	-2
0.29867	-2
0.30233	-2
0.30600	-2
0.30967	-2
0.31333	-2
0.31700	-1
0.32067	-1
0.32433	-1
0.32800	-1
0.33167	-1
0.33533	-1
0.33900	-1
0.34267	-1
0.34633	-1
0.35000	-1
0.35367	-1
0.35733	-1
0.36100	-0
0.36467	-0
0.36833	-0
0.37200	0
0.37567	0
0.37933	1
0.38300	1
0.38667	2
0.39033	2
0.39400	2
0.39767	2
0.40133	3
0.40500	3
0.40867	3
0.41233	3
0.41600	3
0.41967	2
0.42333	2
0.42700	2
0.43067	2
0.43433	2
0.43800	2
0.44167	2
0.44533	2
0.44900	2
0.45267	2
0.45633	2
0.46000	1
0.46367	1
0.46733	1
0.47100	1
0.47467	1
0.47833	1
0.48200	0
0.48567	0
0.48933	0
0.49300	-0
0.49667	-0
0.50033	-0
0.50400	-0
0.50767	-0
0.51133	-0
0.51500	-0
0.51867	-0
0.52233	-0
0.52600	-0
0.52967	-0
0.53333	-0
0.53700	-0
0.54067	0
0.54433	0
0.54800	1
0.55167	1
0.55533	2
0.55900	2
0.56267	2
0.56633	2
0.57000	2
0.57367	2
0.57733	2
0.58100	2
0.58467	2
0.58833	2
0.59200	2
0.59567	2
0.59933	2
0.60300	2
0.60667	2
0.61033	2
0.61400	2
0.61767	2
0.62133	2
0.62500	2
0.62867	2
0.63233	2
0.63600	2
0.63967	2
0.64333	1
0.64700	1
0.65067	0
0.65433	-0
0.65800	-1
0.66167	-1
0.66533	-1
0.66900	-1
0.67267	-1
0.67633	-1
0.68000	-0
0.68367	-0
0.68733	-0
0.69100	-0
0.69467	-1
0.69833	-1
0.70200	-1
0.70567	-1
0.70933	-1
0.71300	-1
0.71667	-1
0.72033	-2
0.72400	-2
0.72767	-2
0.73133	-3
0.73500	-3
0.73867	-3
0.74233	-3
0.74600	-3
0.74967	-2
0.75333	-2
0.75700	-2
0.76067	-2
0.76433	-2
0.76800	-1
0.77167	-1
0.77533	-1
0.77900	-1
0.78267	-1
0.78633	-1
0.79000	-0
0.79367	-0
0.79733	-0
0.80100	-0
0.80467	-0
0.80833	-0
0.81200	-0
0.81567	-0
0.81933	-1
0.82300	-1
0.82667	-1
0.83033	-0
0.83400	-0
0.83767	-0
0.84133	-0
0.84500	-0
0.84867	-0
0.85233	-0
0.85600	-0
0.85967	-0
0.86333	-0
0.86700	-1
0.87067	-1
0.87433	-1
0.87800	-1
0.88167	-0
0.88533	-0
0.88900	-0
0.89267	-0
0.89633	-0
0.90000	-1
0.90367	-1
0.90733	-1
0.91100	-1
0.91467	-1
0.91833	-1
0.92200	-1
0.92567	-1
0.92933	-1
0.93300	-1
0.93667	-1
0.94033	-1
0.94400	-1
0.94767	-1
0.95133	-1
0.95500	-1
0.95867	-0
0.96233	-0
0.96600	0
0.96967	0
0.97333	0
0.97700	1
0.98067	1
0.98433	1
0.98800	2
0.99167	2
0.99533	2
0.99900	2
1.00267	2
1.00633	2
1.01000	2
1.01367	2
1.01733	1
1.02100	0
1.02467	-0
1.02833	-1
1.03200	-1
1.03567	-2
1.03933	-2
1.04300	-2
1.04667	-3
1.05033	-3
1.05400	-3
1.05767	-3
1.06133	-3
1.06500	-3
1.06867	-3
1.07233	-3
1.07600	-3
1.07967	-3
1.08333	-3
1.08700	-2
1.09067	-2
1.09433	-1
1.09800	-1
1.10167	-1
1.10533	-1
1.10900	-0
1.11267	-0
1.11633	-0
1.12000	0
1.12367	0
1.12733	0
1.13100	-0
1.13467	-0
1.13833	-1
1.14200	-1
1.14567	-1
1.14933	-1
1.15300	-2
1.15667	-2
1.16033	-2
1.16400	-2
1.16767	-2
1.17133	-1
1.17500	-1
1.17867	-0
1.18233	0
1.18600	1
1.18967	1
1.19333	1
1.19700	1
1.20067	0
1.20433	0
1.20800	-0
1.21167	-1
1.21533	-1
1.21900	-2
1.22267	-2
1.22633	-2
1.23000	-3
1.23367	-3
1.23733	-3
1.24100	-3
1.24467	-3
1.24833	-3
1.25200	-3
1.25567	-3
1.25933	-3
1.26300	-3
1.26667	-3
1.27033	-3
1.27400	-2
1.27767	-2
1.28133	-2
1.28500	-1
1.28867	-1
1.29233	-1
1.29600	-1
1.29967	-1
1.30333	-1
1.30700	-1
1.31067	-1
1.31433	-1
1.31800	-0
1.32167	-0
1.32533	-0
1.32900	-1
1.33267	-1
1.33633	-1
1.34000	-1
1.34367	-1
1.34733	-2
1.35100	-2
1.35467	-2
1.35833	-2
1.36200	-2
1.36567	-2
1.36933	-2
1.37300	-3
1.37667	-2
1.38033	-2
1.38400	-2
1.38767	-2
1.39133	-2
1.39500	-2
1.39867	-2
1.40233	-2
1.40600	-2
1.40967	-2
1.41333	-2
1.41700	-2
1.42067	-3
1.42433	-3
1.42800	-3
1.43167	-3
1.43533	-3
1.43900	-3
1.44267	-3
1.44633	-3
1.45000	-3
1.45367	-3
1.45733	-2
1.46100	-2
1.46467	-2
1.46833	-2
1.47200	-2
1.47567	-2
1.47933	-2
1.48300	-2
1.48667	-2
1.49033	-2
1.49400	-2
1.49767	-1
1.50133	-1
1.50500	-1
1.50867	-1
1.51233	-1
1.51600	-1
1.51967	-1
1.52333	-2
1.52700	-2
1.53067	-2
1.53433	-2
1.53800	-2
1.54167	-2
1.54533	-2
1.54900	-2
1.55267	-2
1.55633	-2
1.56000	-2
1.56367	-1
1.56733	-1
1.57100	-1
1.57467	-1
1.57833	-1
1.58200	-1
1.58567	-1
1.58933	-1
1.59300	-1
1.59667	-2
1.60033	-2
1.60400	-3
1.60767	-5
1.61133	-7
1.61500	-9
1.61867	-11
1.62233	-14
1.62600	-17
1.62967	-20
1.63333	-24
1.63700	-27
1.64067	-30
1.64433	-34
1.64800	-37
1.65167	-41
1.65533	-44
1.65900	-48
1.66267	-52
1.66633	-56
1.67000	-61
1.67367	-65
1.67733	-70
1.68100	-74
1.68467	-78
1.68833	-82
1.69200	-85
1.69567	-87
1.69933	-90
1.70300	-92
1.70667	-93
1.71033	-94
1.71400	-95
1.71767	-96
1.72133	-96
1.72500	-96
1.72867	-96
1.73233	-96
1.73600	-96
1.73967	-96
1.74333	-96
1.74700	-97
1.75067	-97
1.75433	-98
1.75800	-99
1.76167	-99
1.76533	-100
1.76900	-101
1.77267	-101
1.77633	-102
1.78000	-103
1.78367	-103
1.78733	-103
1.79100	-102
1.79467	-102
1.79833	-101
1.80200	-101
1.80567	-101
1.80933	-101
1.81300	-100
1.81667	-100
1.82033	-100
1.82400	-100
1.82767	-101
1.83133	-102
1.83500	-102
1.83867	-102
1.84233	-103
1.84600	-103
1.84967	-103
1.85333	-103
1.85700	-104
1.86067	-104
1.86433	-104
1.86800	-103
1.87167	-103
1.87533	-103
1.87900	-103
1.88267	-102
1.88633	-102
1.89000	-101
1.89367	-101
1.89733	-100
1.90100	-100
1.90467	-100
1.90833	-100
1.91200	-100
1.91567	-100
1.91933	-100
1.92300	-100
1.92667	-99
1.93033	-99
1.93400	-99
1.93767	-98
1.94133	-98
1.94500	-97
1.94867	-96
1.95233	-95
1.95600	-94
1.95967	-94
1.96333	-93
1.96700	-93
1.97067	-93
1.97433	-93
1.97800	-93
1.98167	-93
1.98533	-93
1.98900	-93
1.99267	-92
1.99633	-93
2.00000	-93
2.00367	-94
2.00733	-94
2.01100	-94
2.01467	-95
2.01833	-95
2.02200	-95
2.02567	-95
2.02933	-94
2.03300	-94
2.03667	-93
2.04033	-93
2.04400	-93
2.04767	-93
2.05133	-92
2.05500	-92
2.05867	-91
2.06233	-90
2.06600	-90
2.06967	-89
2.07333	-89
2.07700	-89
2.08067	-89
2.08433	-89
2.08800	-89
2.09167	-89
2.09533	-89
2.09900	-89
2.10267	-88
2.10633	-87
2.11000	-86
2.11367	-86
2.11733	-85
2.12100	-85
2.12467	-86
2.12833	-86
2.13200	-85
2.13567	-85
2.13933	-85
2.14300	-84
2.14667	-84
2.15033	-83
2.15400	-83
2.15767	-82
2.16133	-82
2.16500	-81
2.16867	-81
2.17233	-81
2.17600	-81
2.17967	-82
2.18333	-82
2.18700	-82
2.19067	-82
2.19433	-82
2.19800	-81
2.20167	-80
2.20533	-79
2.20900	-78
2.21267	-78
2.21633	-77
2.22000	-77
2.22367	-77
2.22733	-77
2.23100	-76
2.23467	-76
2.23833	-76
2.24200	-75
2.24567	-75
2.24933	-75
2.25300	-76
2.25667	-76
2.26033	-77
2.26400	-78
2.26767	-78
2.27133	-78
2.27500	-77
2.27867	-77
2.28233	-76
2.28600	-76
2.28967	-75
2.29333	-75
2.29700	-75
2.30067	-74
2.30433	-74
2.30800	-74
2.31167	-73
2.31533	-73
2.31900	-73
2.32267	-72
2.32633	-71
2.33000	-70
2.33367	-69
2.33733	-69
2.34100	-68
2.34467	-68
2.34833	-68
2.35200	-67
2.35567	-67
2.35933	-66
2.36300	-64
2.36667	-63
2.37033	-60
2.37400	-58
2.37767	-54
2.38133	-51
2.38500	-47
2.38867	-44
2.39233	-39
2.39600	-35
2.39967	-30
2.40333	-26
2.40700	-21
2.41067	-17
2.41433	-14
2.41800	-11
2.42167	-8
2.42533	-6
2.42900	-4
2.43267	-2
2.43633	-1
2.44000	1
2.44367	3
2.44733	4
2.45100	5
2.45467	7
2.45833	8
2.46200	9
2.46567	10
2.46933	10
2.47300	11
2.47667	11
2.48033	12
2.48400	12
2.48767	13
2.49133	14
2.49500	15
2.49867	15
2.50233	15
2.50600	15
2.50967	15
2.51333	15
2.51700	15
2.52067	15
2.52433	15
2.52800	14
2.53167	14
2.53533	13
2.53900	13
2.54267	12
2.54633	12
2.55000	11
2.55367	11
2.55733	11
2.56100	11
2.56467	11
2.56833	11
2.57200	12
2.57567	12
2.57933	13
2.58300	14
2.58667	15
2.59033	16
2.59400	17
2.59767	17
2.60133	18
2.60500	18
2.60867	18
2.61233	17
2.61600	17
2.61967	17
2.62333	18
2.62700	18
2.63067	19
2.63433	19
2.63800	20
2.64167	21
2.64533	21
2.64900	22
2.65267	22
2.65633	23
2.66000	23
2.66367	23
2.66733	23
2.67100	24
2.67467	24
2.67833	24
2.68200	24
2.68567	25
2.68933	25
2.69300	26
2.69667	26
2.70033	26
2.70400	26
2.70767	26
2.71133	26
2.71500	26
2.71867	25
2.72233	25
2.72600	25
2.72967	25
2.73333	25
2.73700	25
2.74067	25
2.74433	26
2.74800	26
2.75167	26
2.75533	26
2.75900	26
2.76267	26
2.76633	27
2.77000	27
2.77367	28
2.77733	29
2.78100	29
2.78467	29
2.78833	29
2.79200	29
2.79567	30
2.79933	30
2.80300	30
2.80667	30
2.81033	30
2.81400	30
2.81767	31
2.82133	31
2.82500	31
2.82867	31
2.83233	31
2.83600	31
2.83967	31
2.84333	31
2.84700	31
2.85067	30
2.85433	30
2.85800	28
2.86167	25
2.86533	20
2.86900	13
2.87267	3
2.87633	-11
2.88000	-30
2.88367	-54
2.88733	-83
2.89100	-117
2.89467	-157
2.89833	-202
2.90200	-251
2.90567	-304
2.90933	-361
2.91300	-420
2.91667	-481
2.92033	-543
2.92400	-606
2.92767	-669
2.93133	-730
2.93500	-789
2.93867	-844
2.94233	-896
2.94600	-949
2.94967	-1004
2.95333	-1055
2.95700	-1092
2.96067	-1108
2.96433	-1099
2.96800	-1065
2.97167	-1012
2.97533	-944
2.97900	-868
2.98267	-787
2.98633	-706
2.99000	-627
2.99367	-553
2.99733	-483
3.00100	-420
3.00467	-363
3.00833	-313
3.01200	-268
3.01567	-228
3.01933	-194
3.02300	-164
3.02667	-138
3.03033	-116
3.03400	-96
3.03767	-80
3.04133	-66
3.04500	-54
3.04867	-44
3.05233	-35
3.05600	-27
3.05967	-21
3.06333	-15
3.06700	-10
3.07067	-6
3.07433	-3
3.07800	1
3.08167	3
3.08533	5
3.08900	7
3.09267	8
3.09633	10
3.10000	11
3.10367	11
3.10733	12
3.11100	13
3.11467	14
3.11833	15
3.12200	15
3.12567	16
3.12933	17
3.13300	17
3.13667	17
3.14033	18
3.14400	18
3.14767	19
3.15133	19
3.15500	19
3.15867	19
3.16233	19
3.16600	19
3.16967	20
3.17333	20
3.17700	20
3.18067	20
3.18433	20
3.18800	21
3.19167	21
3.19533	21
3.19900	21
3.20267	21
3.20633	21
3.21000	21
3.21367	21
3.21733	21
3.22100	22
3.22467	22
3.22833	22
3.23200	23
3.23567	23
3.23933	24
3.24300	24
3.24667	24
3.25033	24
3.25400	24
3.25767	25
3.26133	25
3.26500	25
3.26867	25
3.27233	25
3.27600	25
3.27967	25
3.28333	25
3.28700	26
3.29067	26
3.29433	26
3.29800	26
3.30167	26
3.30533	27
3.30900	27
3.31267	27
3.31633	27
3.32000	28
3.32367	28
3.32733	28
3.33100	28
3.33467	28
3.33833	28
3.34200	28
3.34567	27
3.34933	27
3.35300	27
3.35667	27
3.36033	27
3.36400	27
3.36767	27
3.37133	28
3.37500	28
3.37867	28
3.38233	28
3.38600	28
3.38967	29
3.39333	29
3.39700	29
3.40067	29
3.40433	29
3.40800	29
3.41167	29
3.41533	29
3.41900	29
3.42267	29
3.42633	29
3.43000	29
3.43367	30
3.43733	30
3.44100	30
3.44467	30
3.44833	30
3.45200	30
3.45567	31
3.45933	31
3.46300	31
3.46667	31
3.47033	31
3.47400	31
3.47767	31
3.48133	31
3.48500	31
3.48867	30
3.49233	30
3.49600	30
3.49967	30
3.50333	30
3.50700	30
3.51067	30
3.51433	30
3.51800	30
3.52167	30
3.52533	30
3.52900	30
3.53267	30
3.53633	30
3.54000	30
3.54367	30
3.54733	30
3.55100	30
3.55467	30
3.55833	30
3.56200	30
3.56567	30
3.56933	30
3.57300	29
3.57667	29
3.58033	29
3.58400	29
3.58767	29
3.59133	29
3.59500	29
3.59867	29
3.60233	29
3.60600	29
3.60967	29
3.61333	30
3.61700	30
3.62067	30
3.62433	30
3.62800	30
3.63167	30
3.63533	30
3.63900	30
3.64267	30
3.64633	30
3.65000	30
3.65367	30
3.65733	30
3.66100	30
3.66467	30
3.66833	30
3.67200	30
3.67567	30
3.67933	30
3.68300	30
3.68667	30
3.69033	30
3.69400	30
3.69767	30
3.70133	30
3.70500	30
3.70867	30
3.71233	30
3.71600	30
3.71967	30
3.72333	30
3.72700	30
3.73067	30
3.73433	30
3.73800	30
3.74167	30
3.74533	31
3.74900	31
3.75267	31
3.75633	31
3.76000	30
3.76367	30
3.76733	30
3.77100	30
3.77467	30
3.77833	30
3.78200	30
3.78567	29
3.78933	29
3.79300	29
3.79667	29
3.80033	29
3.80400	29
3.80767	29
3.81133	30
3.81500	30
3.81867	30
3.82233	29
3.82600	29
3.82967	29
3.83333	29
3.83700	29
3.84067	29
3.84433	29
3.84800	29
3.85167	29
3.85533	29
3.85900	29
3.86267	29
3.86633	29
3.87000	29
3.87367	29
3.87733	29
3.88100	29
3.88467	30
3.88833	30
3.89200	30
3.89567	30
3.89933	30
3.90300	30
3.90667	29
3.91033	29
3.91400	29
3.91767	29
3.92133	29
3.92500	28
3.92867	28
3.93233	28
3.93600	28
3.93967	28
3.94333	28
3.94700	28
3.95067	28
3.95433	28
3.95800	28
3.96167	28
3.96533	28
3.96900	28
3.97267	28
3.97633	28
3.98000	28
3.98367	28
3.98733	28
3.99100	28
3.99467	28
3.99833	28

[Chromatogram (Ch3)]
Interval(msec)	220
# of Points	1091
Start Time(min)	0.002
End Time(min)	3.998
R.Time (min)	Intensity
0.00167	1
0.00533	2
0.00900	2
0.01267	3
0.01633	3
0.02000	2
0.02367	2
0.02733	2
0.03100	1
0.03467	2
0.03833	4
0.04200	4
0.04567	5
0.04933	5
0.05300	5
0.05667	6
0.06033	5
0.06400	5
0.06767	7
0.07133	10
0.07500	10
0.07867	8
0.08233	5
0.08600	4
0.08967	3
0.09333	4
0.09700	3
0.10067	1
0.10433	1
0.10800	3
0.11167	4
0.11533	6
0.11900	6
0.12267	6
0.12633	7
0.13000	8
0.13367	9
0.13733	10
0.14100	9
0.14467	9
0.14833	8
0.15200	5
0.15567	4
0.15933	8
0.16300	12
0.16667	15
0.17033	14
0.17400	10
0.17767	9
0.18133	10
0.18500	8
0.18867	8
0.19233	9
0.19600	8
0.19967	7
0.20333	7
0.20700	7
0.21067	7
0.21433	8
0.21800	9
0.22167	9
0.22533	9
0.22900	10
0.23267	10
0.23633	11
0.24000	13
0.24367	13
0.24733	12
0.25100	9
0.25467	8
0.25833	7
0.26200	6
0.26567	7
0.26933	7
0.27300	6
0.27667	6
0.28033	7
0.28400	9
0.28767	10
0.29133	9
0.29500	9
0.29867	9
0.30233	9
0.30600	9
0.30967	11
0.31333	12
0.31700	13
0.32067	13
0.32433	13
0.32800	11
0.33167	9
0.33533	7
0.33900	7
0.34267	7
0.34633	6
0.35000	8
0.35367	8
0.35733	7
0.36100	8
0.36467	10
0.36833	10
0.37200	9
0.37567	10
0.37933	10
0.38300	10
0.38667	11
0.39033	13
0.39400	14
0.39767	12
0.40133	10
0.40500	10
0.40867	11
0.41233	11
0.41600	12
0.41967	13
0.42333	13
0.42700	12
0.43067	12
0.43433	12
0.43800	12
0.44167	13
0.44533	13
0.44900	13
0.45267	13
0.45633	13
0.46000	12
0.46367	9
0.46733	9
0.47100	7
0.47467	6
0.47833	7
0.48200	8
0.48567	8
0.48933	7
0.49300	8
0.49667	12
0.50033	17
0.50400	18
0.50767	16
0.51133	13
0.51500	11
0.51867	11
0.52233	14
0.52600	16
0.52967	17
0.53333	18
0.53700	19
0.54067	17
0.54433	16
0.54800	14
0.55167	13
0.55533	13
0.55900	14
0.56267	15
0.56633	17
0.57000	19
0.57367	19
0.57733	17
0.58100	15
0.58467	15
0.58833	17
0.59200	18
0.59567	17
0.59933	18
0.60300	20
0.60667	21
0.61033	19
0.61400	18
0.61767	17
0.62133	15
0.62500	15
0.62867	14
0.63233	12
0.63600	11
0.63967	10
0.64333	11
0.64700	13
0.65067	14
0.65433	14
0.65800	14
0.66167	16
0.66533	16
0.66900	18
0.67267	17
0.67633	16
0.68000	16
0.68367	17
0.68733	18
0.69100	18
0.69467	16
0.69833	16
0.70200	15
0.70567	14
0.70933	16
0.71300	17
0.71667	16
0.72033	16
0.72400	17
0.72767	17
0.73133	16
0.73500	14
0.73867	14
0.74233	15
0.74600	16
0.74967	16
0.75333	17
0.75700	19
0.76067	21
0.76433	22
0.76800	22
0.77167	20
0.77533	18
0.77900	17
0.78267	17
0.78633	18
0.79000	17
0.79367	18
0.79733	16
0.80100	15
0.80467	17
0.80833	19
0.81200	21
0.81567	22
0.81933	22
0.82300	20
0.82667	18
0.83033	17
0.83400	17
0.83767	18
0.84133	19
0.84500	19
0.84867	18
0.85233	18
0.85600	17
0.85967	16
0.86333	16
0.86700	17
0.87067	19
0.87433	20
0.87800	20
0.88167	23
0.88533	25
0.88900	25
0.89267	23
0.89633	22
0.90000	21
0.90367	20
0.90733	21
0.91100	23
0.91467	26
0.91833	25
0.92200	25
0.92567	24
0.92933	25
0.93300	26
0.93667	27
0.94033	25
0.94400	24
0.94767	24
0.95133	25
0.95500	25
0.95867	23
0.96233	21
0.96600	23
0.96967	23
0.97333	23
0.97700	22
0.98067	24
0.98433	25
0.98800	24
0.99167	23
0.99533	22
0.99900	23
1.00267	23
1.00633	24
1.01000	24
1.01367	23
1.01733	24
1.02100	25
1.02467	25
1.02833	24
1.03200	23
1.03567	22
1.03933	22
1.04300	23
1.04667	24
1.05033	23
1.05400	23
1.05767	22
1.06133	23
1.06500	23
1.06867	22
1.07233	24
1.07600	26
1.07967	26
1.08333	28
1.08700	28
1.09067	28
1.09433	27
1.09800	25
1.10167	24
1.10533	24
1.10900	23
1.11267	23
1.11633	23
1.12000	23
1.12367	23
1.12733	26
1.13100	27
1.13467	26
1.13833	26
1.14200	26
1.14567	28
1.14933	29
1.15300	28
1.15667	29
1.16033	29
1.16400	28
1.16767	26
1.17133	27
1.17500	28
1.17867	29
1.18233	32
1.18600	33
1.18967	33
1.19333	33
1.19700	32
1.20067	32
1.20433	30
1.20800	28
1.21167	27
1.21533	28
1.21900	27
1.22267	25
1.22633	27
1.23000	29
1.23367	31
1.23733	31
1.24100	28
1.24467	25
1.24833	26
1.25200	27
1.25567	27
1.25933	28
1.26300	28
1.26667	27
1.27033	28
1.27400	28
1.27767	28
1.28133	28
1.28500	28
1.28867	28
1.29233	28
1.29600	27
1.29967	27
1.30333	26
1.30700	26
1.31067	26
1.31433	25
1.31800	25
1.32167	24
1.32533	24
1.32900	24
1.33267	27
1.33633	29
1.34000	32
1.34367	33
1.34733	32
1.35100	32
1.35467	32
1.35833	31
1.36200	30
1.36567	29
1.36933	27
1.37300	27
1.37667	28
1.38033	28
1.38400	30
1.38767	32
1.39133	31
1.39500	29
1.39867	30
1.40233	30
1.40600	29
1.40967	27
1.41333	26
1.41700	27
1.42067	28
1.42433	28
1.42800	28
1.43167	30
1.43533	32
1.43900	32
1.44267	32
1.44633	32
1.45000	31
1.45367	31
1.45733	32
1.46100	32
1.46467	30
1.46833	28
1.47200	28
1.47567	29
1.47933	29
1.48300	30
1.48667	31
1.49033	30
1.49400	30
1.49767	31
1.50133	31
1.50500	32
1.50867	33
1.51233	33
1.51600	32
1.51967	33
1.52333	33
1.52700	33
1.53067	33
1.53433	31
1.53800	29
1.54167	29
1.54533	28
1.54900	27
1.55267	27
1.55633	26
1.56000	29
1.56367	32
1.56733	33
1.57100	33
1.57467	34
1.57833	34
1.58200	34
1.58567	34
1.58933	34
1.59300	33
1.59667	34
1.60033	34
1.60400	34
1.60767	34
1.61133	35
1.61500	35
1.61867	34
1.62233	34
1.62600	34
1.62967	35
1.63333	36
1.63700	38
1.64067	38
1.64433	36
1.64800	36
1.65167	36
1.65533	36
1.65900	37
1.66267	37
1.66633	38
1.67000	38
1.67367	37
1.67733	39
1.68100	40
1.68467	42
1.68833	44
1.69200	45
1.69567	46
1.69933	47
1.70300	47
1.70667	46
1.71033	46
1.71400	46
1.71767	46
1.72133	47
1.72500	48
1.72867	48
1.73233	46
1.73600	44
1.73967	44
1.74333	43
1.74700	45
1.75067	46
1.75433	47
1.75800	48
1.76167	48
1.76533	49
1.76900	49
1.77267	52
1.77633	52
1.78000	51
1.78367	53
1.78733	52
1.79100	51
1.79467	50
1.79833	50
1.80200	51
1.80567	52
1.80933	54
1.81300	55
1.81667	54
1.82033	52
1.82400	51
1.82767	53
1.83133	57
1.83500	60
1.83867	61
1.84233	63
1.84600	65
1.84967	66
1.85333	66
1.85700	65
1.86067	64
1.86433	64
1.86800	65
1.87167	65
1.87533	65
1.87900	65
1.88267	65
1.88633	65
1.89000	64
1.89367	63
1.89733	64
1.90100	66
1.90467	69
1.90833	69
1.91200	67
1.91567	68
1.91933	71
1.92300	73
1.92667	77
1.93033	78
1.93400	80
1.93767	81
1.94133	78
1.94500	76
1.94867	76
1.95233	77
1.95600	80
1.95967	81
1.96333	82
1.96700	83
1.97067	84
1.97433	84
1.97800	85
1.98167	88
1.98533	90
1.98900	91
1.99267	91
1.99633	90
2.00000	90
2.00367	92
2.00733	92
2.01100	90
2.01467	91
2.01833	94
2.02200	97
2.02567	98
2.02933	97
2.03300	95
2.03667	94
2.04033	95
2.04400	96
2.04767	97
2.05133	97
2.05500	97
2.05867	98
2.06233	100
2.06600	102
2.06967	103
2.07333	103
2.07700	104
2.08067	105
2.08433	105
2.08800	106
2.09167	109
2.09533	109
2.09900	107
2.10267	107
2.10633	110
2.11000	112
2.11367	113
2.11733	112
2.12100	112
2.12467	113
2.12833	115
2.13200	115
2.13567	114
2.13933	114
2.14300	117
2.14667	119
2.15033	118
2.15400	118
2.15767	119
2.16133	119
2.16500	121
2.16867	121
2.17233	120
2.17600	121
2.17967	121
2.18333	120
2.18700	121
2.19067	121
2.19433	121
2.19800	122
2.20167	122
2.20533	121
2.20900	123
2.21267	124
2.21633	124
2.22000	123
2.22367	122
2.22733	122
2.23100	124
2.23467	126
2.23833	127
2.24200	129
2.24567	130
2.24933	130
2.25300	132
2.25667	133
2.26033	134
2.26400	134
2.26767	133
2.27133	132
2.27500	132
2.27867	134
2.28233	136
2.28600	136
2.28967	136
2.29333	138
2.29700	139
2.30067	138
2.30433	135
2.30800	134
2.31167	134
2.31533	134
2.31900	134
2.32267	136
2.32633	137
2.33000	139
2.33367	140
2.33733	142
2.34100	143
2.34467	144
2.34833	145
2.35200	147
2.35567	146
2.35933	144
2.36300	145
2.36667	144
2.37033	142
2.37400	141
2.37767	140
2.38133	138
2.38500	137
2.38867	138
2.39233	139
2.39600	142
2.39967	147
2.40333	150
2.40700	152
2.41067	153
2.41433	155
2.41800	157
2.42167	158
2.42533	158
2.42900	158
2.43267	158
2.43633	159
2.44000	169
2.44367	235
2.44733	355
2.45100	466
2.45467	547
2.45833	585
2.46200	584
2.46567	560
2.46933	534
2.47300	514
2.47667	499
2.48033	481
2.48400	455
2.48767	424
2.49133	394
2.49500	367
2.49867	344
2.50233	338
2.50600	359
2.50967	409
2.51333	484
2.51700	568
2.52067	641
2.52433	694
2.52800	730
2.53167	753
2.53533	769
2.53900	782
2.54267	791
2.54633	802
2.55000	817
2.55367	834
2.55733	855
2.56100	877
2.56467	901
2.56833	924
2.57200	947
2.57567	968
2.57933	986
2.58300	1000
2.58667	1008
2.59033	1011
2.59400	1010
2.59767	1002
2.60133	988
2.60500	970
2.60867	949
2.61233	927
2.61600	908
2.61967	891
2.62333	875
2.62700	860
2.63067	844
2.63433	828
2.63800	815
2.64167	805
2.64533	794
2.64900	787
2.65267	782
2.65633	780
2.66000	777
2.66367	776
2.66733	779
2.67100	781
2.67467	783
2.67833	788
2.68200	794
2.68567	798
2.68933	801
2.69300	803
2.69667	805
2.70033	811
2.70400	818
2.70767	825
2.71133	831
2.71500	838
2.71867	844
2.72233	848
2.72600	855
2.72967	862
2.73333	866
2.73700	866
2.74067	866
2.74433	866
2.74800	864
2.75167	859
2.75533	852
2.75900	846
2.76267	838
2.76633	829
2.77000	822
2.77367	815
2.77733	806
2.78100	796
2.78467	787
2.78833	777
2.79200	767
2.79567	759
2.79933	754
2.80300	750
2.80667	747
2.81033	746
2.81400	743
2.81767	738
2.82133	733
2.82500	729
2.82867	727
2.83233	730
2.83600	746
2.83967	784
2.84333	860
2.84700	998
2.85067	1223
2.85433	1551
2.85800	1983
2.86167	2507
2.86533	3096
2.86900	3708
2.87267	4292
2.87633	4797
2.88000	5182
2.88367	5426
2.88733	5520
2.89100	5475
2.89467	5311
2.89833	5057
2.90200	4746
2.90567	4404
2.90933	4051
2.91300	3704
2.91667	3373
2.92033	3063
2.92400	2779
2.92767	2522
2.93133	2293
2.93500	2089
2.93867	1909
2.94233	1750
2.94600	1610
2.94967	1487
2.95333	1379
2.95700	1289
2.96067	1210
2.96433	1142
2.96800	1085
2.97167	1037
2.97533	997
2.97900	960
2.98267	931
2.98633	904
2.99000	881
2.99367	860
2.99733	843
3.00100	829
3.00467	818
3.00833	809
3.01200	799
3.01567	792
3.01933	787
3.02300	781
3.02667	778
3.03033	775
3.03400	772
3.03767	768
3.04133	767
3.04500	768
3.04867	767
3.05233	766
3.05600	767
3.05967	767
3.06333	769
3.06700	770
3.07067	771
3.07433	771
3.07800	772
3.08167	771
3.08533	771
3.08900	772
3.09267	772
3.09633	773
3.10000	773
3.10367	773
3.10733	773
3.11100	771
3.11467	771
3.11833	770
3.12200	768
3.12567	767
3.12933	766
3.13300	766
3.13667	764
3.14033	763
3.14400	764
3.14767	767
3.15133	768
3.15500	769
3.15867	768
3.16233	768
3.16600	768
3.16967	768
3.17333	768
3.17700	768
3.18067	766
3.18433	762
3.18800	760
3.19167	759
3.19533	759
3.19900	759
3.20267	759
3.20633	756
3.21000	754
3.21367	752
3.21733	753
3.22100	755
3.22467	754
3.22833	753
3.23200	752
3.23567	749
3.23933	749
3.24300	750
3.24667	750
3.25033	749
3.25400	748
3.25767	749
3.26133	750
3.26500	750
3.26867	748
3.27233	745
3.27600	744
3.27967	742
3.28333	741
3.28700	740
3.29067	737
3.29433	735
3.29800	733
3.30167	731
3.30533	730
3.30900	729
3.31267	729
3.31633	728
3.32000	727
3.32367	724
3.32733	722
3.33100	721
3.33467	723
3.33833	722
3.34200	718
3.34567	717
3.34933	717
3.35300	717
3.35667	715
3.36033	712
3.36400	710
3.36767	709
3.37133	707
3.37500	701
3.37867	698
3.38233	696
3.38600	696
3.38967	694
3.39333	693
3.39700	691
3.40067	688
3.40433	685
3.40800	682
3.41167	680
3.41533	678
3.41900	676
3.42267	675
3.42633	673
3.43000	671
3.43367	669
3.43733	666
3.44100	663
3.44467	661
3.44833	660
3.45200	658
3.45567	654
3.45933	651
3.46300	649
3.46667	647
3.47033	645
3.47400	643
3.47767	643
3.48133	642
3.48500	642
3.48867	642
3.49233	639
3.49600	634
3.49967	629
3.50333	626
3.50700	624
3.51067	625
3.51433	628
3.51800	628
3.52167	627
3.52533	625
3.52900	623
3.53267	620
3.53633	618
3.54000	618
3.54367	615
3.54733	613
3.55100	609
3.55467	608
3.55833	606
3.56200	604
3.56567	602
3.56933	601
3.57300	600
3.57667	600
3.58033	598
3.58400	595
3.58767	593
3.59133	592
3.59500	590
3.59867	588
3.60233	586
3.60600	586
3.60967	585
3.61333	586
3.61700	586
3.62067	585
3.62433	582
3.62800	579
3.63167	575
3.63533	573
3.63900	574
3.64267	575
3.64633	574
3.65000	571
3.65367	567
3.65733	564
3.66100	563
3.66467	562
3.66833	561
3.67200	562
3.67567	561
3.67933	560
3.68300	559
3.68667	557
3.69033	556
3.69400	554
3.69767	551
3.70133	550
3.70500	548
3.70867	547
3.71233	548
3.71600	547
3.71967	545
3.72333	543
3.72700	542
3.73067	540
3.73433	537
3.73800	537
3.74167	536
3.74533	533
3.74900	533
3.75267	535
3.75633	534
3.76000	533
3.76367	533
3.76733	532
3.77100	530
3.77467	528
3.77833	525
3.78200	523
3.78567	521
3.78933	520
3.79300	520
3.79667	517
3.80033	514
3.80400	514
3.80767	514
3.81133	513
3.81500	511
3.81867	508
3.82233	508
3.82600	509
3.82967	508
3.83333	508
3.83700	507
3.84067	505
3.84433	503
3.84800	500
3.85167	498
3.85533	498
3.85900	497
3.86267	495
3.86633	493
3.87000	493
3.87367	492
3.87733	492
3.88100	493
3.88467	492
3.88833	489
3.89200	488
3.89567	486
3.89933	485
3.90300	484
3.90667	483
3.91033	483
3.91400	484
3.91767	483
3.92133	481
3.92500	478
3.92867	477
3.93233	476
3.93600	475
3.93967	472
3.94333	467
3.94700	463
3.95067	462
3.95433	462
3.95800	460
3.96167	458
3.96533	456
3.96900	453
3.97267	452
3.97633	449
3.98000	448
3.98367	447
3.98733	448
3.99100	446
3.99467	442
3.99833	436

[Status Trace (Column Oven Temperature)]
Interval(msec)	1000
# of Points	240
Start Time(min)	0.013
End Time(min)	3.997
Intensity Units	
Intensity Multiplier	1
R.Time (min)	Intensity
0.01348	35.07
0.03015	35.06
0.04682	35.05
0.06348	35.05
0.08015	35.06
0.09682	35.05
0.11348	35.04
0.13015	35.04
0.14682	35.04
0.16348	35.04
0.18015	35.04
0.19682	35.04
0.21348	35.04
0.23015	35.06
0.24682	35.06
0.26348	35.07
0.28015	35.08
0.29682	35.07
0.31348	35.07
0.33015	35.08
0.34682	35.08
0.36348	35.08
0.38015	35.06
0.39682	35.05
0.41348	35.05
0.43015	35.03
0.44682	35.03
0.46348	35.03
0.48015	35.03
0.49682	35.04
0.51348	35.05
0.53015	35.04
0.54682	35.04
0.56348	35.03
0.58015	35.03
0.59682	35.02
0.61348	35.00
0.63015	35.00
0.64682	35.00
0.66348	35.00
0.68015	35.00
0.69682	35.00
0.71348	35.01
0.73015	35.02
0.74682	35.03
0.76348	35.03
0.78015	35.02
0.79682	35.02
0.81348	35.01
0.83015	35.01
0.84682	35.01
0.86348	35.01
0.88015	35.01
0.89682	35.01
0.91348	35.01
0.93015	35.02
0.94682	35.01
0.96348	35.00
0.98015	35.00
0.99682	34.98
1.01348	34.98
1.03015	34.99
1.04682	35.00
1.06348	35.01
1.08015	35.01
1.09682	35.00
1.11348	35.00
1.13015	35.00
1.14682	35.00
1.16348	35.00
1.18015	34.99
1.19682	35.00
1.21348	35.01
1.23015	35.01
1.24682	35.02
1.26348	35.02
1.28015	35.01
1.29682	35.01
1.31348	35.01
1.33015	35.00
1.34682	35.00
1.36348	35.00
1.38015	35.00
1.39682	35.00
1.41348	35.01
1.43015	35.02
1.44682	35.02
1.46348	35.02
1.48015	35.01
1.49682	35.01
1.51348	35.01
1.53015	35.01
1.54682	35.00
1.56348	35.00
1.58015	34.99
1.59682	35.01
1.61348	35.08
1.63015	35.23
1.64682	35.43
1.66348	35.71
1.68015	36.08
1.69682	36.43
1.71348	36.78
1.73015	37.10
1.74682	37.43
1.76348	37.77
1.78015	38.11
1.79682	38.44
1.81348	38.76
1.83015	39.10
1.84682	39.43
1.86348	39.77
1.88015	40.10
1.89682	40.42
1.91348	40.75
1.93015	41.08
1.94682	41.39
1.96348	41.70
1.98015	42.04
1.99682	42.35
2.01348	42.68
2.03015	43.01
2.04682	43.35
2.06348	43.65
2.08015	43.98
2.09682	44.31
2.11348	44.65
2.13015	44.97
2.14682	45.29
2.16348	45.60
2.18015	45.95
2.19682	46.28
2.21348	46.60
2.23015	46.93
2.24682	47.25
2.26348	47.60
2.28015	47.92
2.29682	48.25
2.31348	48.59
2.33015	48.89
2.34682	49.26
2.36348	49.53
2.38015	49.67
2.39682	49.68
2.41348	49.68
2.43015	49.68
2.44682	49.68
2.46348	49.69
2.48015	49.70
2.49682	49.72
2.51348	49.73
2.53015	49.74
2.54682	49.74
2.56348	49.78
2.58015	49.80
2.59682	49.80
2.61348	49.83
2.63015	49.82
2.64682	49.82
2.66348	49.82
2.68015	49.82
2.69682	49.83
2.71348	49.84
2.73015	49.85
2.74682	49.87
2.76348	49.88
2.78015	49.87
2.79682	49.87
2.81348	49.86
2.83015	49.85
2.84682	49.86
2.86348	49.88
2.88015	49.90
2.89682	49.92
2.91348	49.93
2.93015	49.93
2.94682	49.94
2.96348	49.95
2.98015	49.96
2.99682	49.97
3.01348	49.96
3.03015	49.98
3.04682	49.99
3.06348	49.99
3.08015	49.98
3.09682	49.99
3.11348	50.01
3.13015	50.01
3.14682	50.03
3.16348	50.03
3.18015	50.04
3.19682	50.05
3.21348	50.06
3.23015	50.07
3.24682	50.08
3.26348	50.09
3.28015	50.09
3.29682	50.09
3.31348	50.09
3.33015	50.09
3.34682	50.09
3.36348	50.10
3.38015	50.11
3.39682	50.10
3.41348	50.10
3.43015	50.09
3.44682	50.08
3.46348	50.08
3.48015	50.07
3.49682	50.05
3.51348	50.06
3.53015	50.05
3.54682	50.06
3.56348	50.06
3.58015	50.07
3.59682	50.06
3.61348	50.05
3.63015	50.05
3.64682	50.05
3.66348	50.05
3.68015	50.04
3.69682	50.04
3.71348	50.04
3.73015	50.05
3.74682	50.04
3.76348	50.04
3.78015	50.05
3.79682	50.05
3.81348	50.05
3.83015	50.05
3.84682	50.05
3.86348	50.05
3.88015	50.04
3.89682	50.04
3.91348	50.05
3.93015	50.05
3.94682	50.06
3.96348	50.07
3.98015	50.08
3.99682	50.07

[Status Trace (Injection Unit Temperature)]
Interval(msec)	1000
# of Points	240
Start Time(min)	0.013
End Time(min)	3.997
Intensity Units	
Intensity Multiplier	1
R.Time (min)	Intensity
0.01348	99.98
0.03015	99.98
0.04682	99.98
0.06348	99.98
0.08015	99.98
0.09682	99.98
0.11348	99.99
0.13015	99.99
0.14682	99.98
0.16348	99.99
0.18015	99.99
0.19682	99.99
0.21348	99.99
0.23015	99.99
0.24682	99.99
0.26348	99.99
0.28015	99.99
0.29682	99.99
0.31348	99.99
0.33015	99.99
0.34682	99.99
0.36348	99.99
0.38015	99.99
0.39682	99.99
0.41348	99.99
0.43015	99.99
0.44682	99.99
0.46348	99.99
0.48015	99.99
0.49682	99.99
0.51348	99.99
0.53015	99.99
0.54682	99.99
0.56348	99.99
0.58015	99.99
0.59682	99.99
0.61348	99.99
0.63015	99.99
0.64682	99.99
0.66348	99.99
0.68015	99.99
0.69682	99.99
0.71348	99.99
0.73015	99.99
0.74682	99.99
0.76348	99.99
0.78015	99.99
0.79682	99.98
0.81348	99.99
0.83015	99.99
0.84682	99.98
0.86348	99.98
0.88015	99.99
0.89682	99.99
0.91348	99.98
0.93015	99.98
0.94682	99.98
0.96348	99.99
0.98015	99.99
0.99682	99.99
1.01348	99.99
1.03015	99.99
1.04682	99.98
1.06348	99.99
1.08015	99.99
1.09682	99.98
1.11348	99.98
1.13015	99.99
1.14682	99.98
1.16348	99.98
1.18015	99.98
1.19682	99.98
1.21348	99.98
1.23015	99.98
1.24682	99.99
1.26348	99.99
1.28015	99.99
1.29682	99.99
1.31348	99.99
1.33015	99.98
1.34682	99.99
1.36348	99.99
1.38015	99.98
1.39682	99.98
1.41348	99.99
1.43015	99.98
1.44682	99.99
1.46348	99.99
1.48015	99.99
1.49682	99.99
1.51348	99.99
1.53015	99.99
1.54682	99.99
1.56348	99.99
1.58015	99.99
1.59682	99.99
1.61348	99.99
1.63015	99.99
1.64682	99.99
1.66348	99.99
1.68015	99.99
1.69682	99.99
1.71348	99.99
1.73015	99.99
1.74682	99.99
1.76348	99.99
1.78015	99.98
1.79682	99.99
1.81348	99.99
1.83015	99.99
1.84682	99.99
1.86348	99.98
1.88015	99.99
1.89682	99.99
1.91348	99.98
1.93015	99.98
1.94682	99.98
1.96348	99.98
1.98015	99.98
1.99682	99.98
2.01348	99.98
2.03015	99.98
2.04682	99.98
2.06348	99.98
2.08015	99.97
2.09682	99.98
2.11348	99.98
2.13015	99.98
2.14682	99.98
2.16348	99.98
2.18015	99.98
2.19682	99.97
2.21348	99.98
2.23015	99.98
2.24682	99.98
2.26348	99.97
2.28015	99.98
2.29682	99.97
2.31348	99.98
2.33015	99.98
2.34682	99.97
2.36348	99.97
2.38015	99.98
2.39682	99.98
2.41348	99.98
2.43015	99.98
2.44682	99.98
2.46348	99.98
2.48015	99.98
2.49682	99.98
2.51348	99.98
2.53015	99.98
2.54682	99.98
2.56348	99.98
2.58015	99.99
2.59682	99.99
2.61348	99.98
2.63015	99.99
2.64682	99.99
2.66348	99.99
2.68015	99.99
2.69682	99.99
2.71348	100.00
2.73015	99.99
2.74682	100.00
2.76348	100.00
2.78015	100.00
2.79682	100.00
2.81348	100.00
2.83015	100.00
2.84682	100.01
2.86348	100.01
2.88015	100.01
2.89682	100.01
2.91348	100.01
2.93015	100.02
2.94682	100.02
2.96348	100.02
2.98015	100.02
2.99682	100.02
3.01348	100.02
3.03015	100.02
3.04682	100.02
3.06348	100.03
3.08015	100.02
3.09682	100.03
3.11348	100.03
3.13015	100.03
3.14682	100.03
3.16348	100.03
3.18015	100.03
3.19682	100.03
3.21348	100.04
3.23015	100.04
3.24682	100.04
3.26348	100.04
3.28015	100.04
3.29682	100.04
3.31348	100.03
3.33015	100.04
3.34682	100.04
3.36348	100.04
3.38015	100.04
3.39682	100.04
3.41348	100.04
3.43015	100.04
3.44682	100.04
3.46348	100.04
3.48015	100.04
3.49682	100.04
3.51348	100.05
3.53015	100.04
3.54682	100.05
3.56348	100.04
3.58015	100.05
3.59682	100.05
3.61348	100.05
3.63015	100.05
3.64682	100.05
3.66348	100.05
3.68015	100.05
3.69682	100.05
3.71348	100.05
3.73015	100.05
3.74682	100.05
3.76348	100.05
3.78015	100.05
3.79682	100.05
3.81348	100.05
3.83015	100.05
3.84682	100.05
3.86348	100.05
3.88015	100.05
3.89682	100.05
3.91348	100.05
3.93015	100.05
3.94682	100.05
3.96348	100.05
3.98015	100.05
3.99682	100.05

[Status Trace (Carrier Gas Pressure)]
Interval(msec)	1000
# of Points	240
Start Time(min)	0.013
End Time(min)	3.997
Intensity Units	
Intensity Multiplier	1
R.Time (min)	Intensity
0.01348	57.69
0.03015	55.11
0.04682	57.83
0.06348	59.80
0.08015	58.84
0.09682	57.99
0.11348	57.99
0.13015	58.01
0.14682	58.01
0.16348	58.00
0.18015	58.00
0.19682	58.00
0.21348	58.00
0.23015	58.00
0.24682	58.00
0.26348	58.00
0.28015	58.00
0.29682	58.00
0.31348	58.00
0.33015	58.00
0.34682	58.00
0.36348	58.00
0.38015	58.00
0.39682	58.00
0.41348	58.00
0.43015	58.00
0.44682	58.00
0.46348	58.00
0.48015	58.00
0.49682	58.00
0.51348	58.00
0.53015	58.00
0.54682	58.00
0.56348	58.00
0.58015	58.00
0.59682	58.00
0.61348	58.00
0.63015	58.00
0.64682	58.00
0.66348	58.00
0.68015	58.00
0.69682	58.00
0.71348	58.00
0.73015	58.00
0.74682	58.00
0.76348	58.00
0.78015	58.00
0.79682	58.00
0.81348	58.00
0.83015	58.00
0.84682	58.00
0.86348	58.00
0.88015	58.00
0.89682	58.00
0.91348	58.00
0.93015	58.00
0.94682	58.00
0.96348	58.00
0.98015	58.00
0.99682	58.00
1.01348	58.00
1.03015	58.00
1.04682	58.00
1.06348	58.00
1.08015	58.00
1.09682	58.00
1.11348	58.00
1.13015	58.00
1.14682	58.00
1.16348	58.00
1.18015	58.00
1.19682	58.00
1.21348	58.00
1.23015	58.00
1.24682	58.00
1.26348	58.00
1.28015	58.00
1.29682	58.00
1.31348	58.00
1.33015	58.00
1.34682	58.00
1.36348	58.00
1.38015	58.00
1.39682	58.00
1.41348	58.00
1.43015	58.00
1.44682	58.00
1.46348	58.00
1.48015	58.00
1.49682	58.00
1.51348	58.00
1.53015	58.00
1.54682	58.00
1.56348	58.00
1.58015	58.00
1.59682	58.00
1.61348	58.00
1.63015	58.01
1.64682	58.00
1.66348	58.01
1.68015	58.01
1.69682	58.00
1.71348	58.00
1.73015	58.00
1.74682	58.00
1.76348	58.00
1.78015	58.00
1.79682	58.00
1.81348	58.00
1.83015	58.00
1.84682	58.00
1.86348	58.00
1.88015	58.00
1.89682	58.00
1.91348	58.00
1.93015	58.00
1.94682	58.00
1.96348	58.00
1.98015	58.00
1.99682	58.00
2.01348	58.00
2.03015	58.00
2.04682	58.00
2.06348	58.00
2.08015	58.00
2.09682	58.00
2.11348	58.00
2.13015	58.00
2.14682	58.00
2.16348	58.00
2.18015	58.00
2.19682	58.00
2.21348	58.00
2.23015	58.00
2.24682	58.00
2.26348	58.00
2.28015	58.00
2.29682	58.00
2.31348	58.00
2.33015	58.00
2.34682	58.00
2.36348	58.00
2.38015	57.99
2.39682	57.99
2.41348	58.00
2.43015	58.00
2.44682	58.00
2.46348	58.00
2.48015	58.00
2.49682	58.00
2.51348	57.99
2.53015	57.99
2.54682	58.00
2.56348	58.00
2.58015	58.00
2.59682	58.00
2.61348	58.00
2.63015	58.00
2.64682	58.00
2.66348	58.00
2.68015	58.00
2.69682	58.00
2.71348	58.00
2.73015	58.00
2.74682	58.00
2.76348	58.00
2.78015	58.00
2.79682	58.00
2.81348	58.00
2.83015	58.00
2.84682	58.00
2.86348	58.00
2.88015	58.00
2.89682	58.00
2.91348	58.00
2.93015	58.00
2.94682	58.00
2.96348	58.00
2.98015	58.00
2.99682	58.00
3.01348	58.00
3.03015	58.00
3.04682	58.00
3.06348	58.00
3.08015	58.00
3.09682	58.00
3.11348	58.00
3.13015	58.00
3.14682	58.00
3.16348	58.00
3.18015	58.00
3.19682	58.00
3.21348	58.00
3.23015	58.00
3.24682	58.00
3.26348	58.00
3.28015	58.00
3.29682	58.00
3.31348	58.00
3.33015	58.00
3.34682	58.00
3.36348	58.00
3.38015	58.00
3.39682	58.00
3.41348	58.00
3.43015	58.00
3.44682	58.00
3.46348	58.00
3.48015	58.00
3.49682	58.00
3.51348	58.00
3.53015	58.00
3.54682	58.00
3.56348	58.00
3.58015	58.00
3.59682	58.00
3.61348	58.00
3.63015	58.00
3.64682	58.00
3.66348	58.00
3.68015	58.00
3.69682	58.00
3.71348	58.00
3.73015	58.00
3.74682	58.00
3.76348	58.00
3.78015	58.00
3.79682	58.00
3.81348	58.00
3.83015	58.00
3.84682	58.00
3.86348	58.00
3.88015	58.00
3.89682	58.00
3.91348	58.00
3.93015	58.00
3.94682	58.00
3.96348	58.00
3.98015	58.00
3.99682	58.00

[Status Trace (Carrier Gas Flow)]
Interval(msec)	1000
# of Points	240
Start Time(min)	0.013
End Time(min)	3.997
Intensity Units	
Intensity Multiplier	1
R.Time (min)	Intensity
0.01348	34.38
0.03015	34.54
0.04682	34.55
0.06348	34.52
0.08015	34.51
0.09682	34.52
0.11348	34.52
0.13015	34.51
0.14682	34.52
0.16348	34.52
0.18015	34.51
0.19682	34.52
0.21348	34.52
0.23015	34.52
0.24682	34.52
0.26348	34.52
0.28015	34.52
0.29682	34.52
0.31348	34.52
0.33015	34.52
0.34682	34.52
0.36348	34.52
0.38015	34.52
0.39682	34.52
0.41348	34.52
0.43015	34.52
0.44682	34.53
0.46348	34.51
0.48015	34.52
0.49682	34.52
0.51348	34.52
0.53015	34.51
0.54682	34.52
0.56348	34.52
0.58015	34.52
0.59682	34.52
0.61348	34.52
0.63015	34.52
0.64682	34.52
0.66348	34.52
0.68015	34.52
0.69682	34.52
0.71348	34.52
0.73015	34.52
0.74682	34.52
0.76348	34.52
0.78015	34.52
0.79682	34.52
0.81348	34.52
0.83015	34.52
0.84682	34.52
0.86348	34.52
0.88015	34.52
0.89682	34.52
0.91348	34.52
0.93015	34.52
0.94682	34.52
0.96348	34.52
0.98015	34.51
0.99682	34.52
1.01348	34.52
1.03015	34.52
1.04682	34.52
1.06348	34.51
1.08015	34.52
1.09682	34.52
1.11348	34.52
1.13015	34.52
1.14682	34.52
1.16348	34.52
1.18015	34.52
1.19682	34.52
1.21348	34.52
1.23015	34.52
1.24682	34.52
1.26348	34.52
1.28015	34.52
1.29682	34.52
1.31348	34.52
1.33015	34.52
1.34682	34.52
1.36348	34.52
1.38015	34.51
1.39682	34.52
1.41348	34.52
1.43015	34.51
1.44682	34.52
1.46348	34.52
1.48015	34.53
1.49682	34.52
1.51348	34.52
1.53015	34.52
1.54682	34.52
1.56348	34.51
1.58015	34.52
1.59682	34.52
1.61348	34.52
1.63015	34.52
1.64682	34.52
1.66348	34.51
1.68015	34.52
1.69682	34.52
1.71348	34.51
1.73015	34.51
1.74682	34.52
1.76348	34.52
1.78015	34.52
1.79682	34.52
1.81348	34.52
1.83015	34.52
1.84682	34.52
1.86348	34.52
1.88015	34.52
1.89682	34.52
1.91348	34.52
1.93015	34.52
1.94682	34.51
1.96348	34.52
1.98015	34.52
1.99682	34.52
2.01348	34.52
2.03015	34.52
2.04682	34.52
2.06348	34.52
2.08015	34.52
2.09682	34.52
2.11348	34.52
2.13015	34.52
2.14682	34.52
2.16348	34.52
2.18015	34.52
2.19682	34.52
2.21348	34.52
2.23015	34.51
2.24682	34.52
2.26348	34.52
2.28015	34.52
2.29682	34.52
2.31348	34.52
2.33015	34.52
2.34682	34.52
2.36348	34.52
2.38015	34.52
2.39682	34.53
2.41348	34.52
2.43015	34.51
2.44682	34.52
2.46348	34.52
2.48015	34.52
2.49682	34.52
2.51348	34.52
2.53015	34.51
2.54682	34.52
2.56348	34.52
2.58015	34.52
2.59682	34.51
2.61348	34.52
2.63015	34.52
2.64682	34.52
2.66348	34.52
2.68015	34.52
2.69682	34.52
2.71348	34.51
2.73015	34.52
2.74682	34.52
2.76348	34.52
2.78015	34.52
2.79682	34.52
2.81348	34.52
2.83015	34.52
2.84682	34.52
2.86348	34.52
2.88015	34.52
2.89682	34.52
2.91348	34.53
2.93015	34.52
2.94682	34.51
2.96348	34.52
2.98015	34.52
2.99682	34.51
3.01348	34.51
3.03015	34.52
3.04682	34.52
3.06348	34.52
3.08015	34.52
3.09682	34.52
3.11348	34.51
3.13015	34.52
3.14682	34.52
3.16348	34.52
3.18015	34.52
3.19682	34.51
3.21348	34.52
3.23015	34.52
3.24682	34.52
3.26348	34.52
3.28015	34.52
3.29682	34.51
3.31348	34.52
3.33015	34.52
3.34682	34.52
3.36348	34.52
3.38015	34.52
3.39682	34.52
3.41348	34.52
3.43015	34.52
3.44682	34.52
3.46348	34.51
3.48015	34.52
3.49682	34.52
3.51348	34.52
3.53015	34.52
3.54682	34.52
3.56348	34.52
3.58015	34.52
3.59682	34.52
3.61348	34.52
3.63015	34.51
3.64682	34.52
3.66348	34.52
3.68015	34.52
3.69682	34.51
3.71348	34.52
3.73015	34.52
3.74682	34.51
3.76348	34.52
3.78015	34.52
3.79682	34.52
3.81348	34.52
3.83015	34.52
3.84682	34.52
3.86348	34.52
3.88015	34.52
3.89682	34.52
3.91348	34.52
3.93015	34.52
3.94682	34.52
3.96348	34.52
3.98015	34.52
3.99682	34.52

[Status Trace (Column Flow)]
Interval(msec)	1000
# of Points	240
Start Time(min)	0.013
End Time(min)	3.997
Intensity Units	
Intensity Multiplier	1
R.Time (min)	Intensity
0.01348	5.46
0.03015	5.16
0.04682	5.47
0.06348	5.70
0.08015	5.59
0.09682	5.49
0.11348	5.49
0.13015	5.49
0.14682	5.49
0.16348	5.49
0.18015	5.49
0.19682	5.49
0.21348	5.49
0.23015	5.49
0.24682	5.49
0.26348	5.49
0.28015	5.49
0.29682	5.49
0.31348	5.49
0.33015	5.49
0.34682	5.49
0.36348	5.49
0.38015	5.49
0.39682	5.49
0.41348	5.49
0.43015	5.49
0.44682	5.49
0.46348	5.49
0.48015	5.49
0.49682	5.49
0.51348	5.49
0.53015	5.49
0.54682	5.49
0.56348	5.49
0.58015	5.49
0.59682	5.49
0.61348	5.49
0.63015	5.49
0.64682	5.49
0.66348	5.49
0.68015	5.49
0.69682	5.49
0.71348	5.49
0.73015	5.49
0.74682	5.49
0.76348	5.49
0.78015	5.49
0.79682	5.49
0.81348	5.49
0.83015	5.49
0.84682	5.49
0.86348	5.49
0.88015	5.49
0.89682	5.49
0.91348	5.49
0.93015	5.49
0.94682	5.49
0.96348	5.49
0.98015	5.49
0.99682	5.49
1.01348	5.49
1.03015	5.49
1.04682	5.49
1.06348	5.49
1.08015	5.49
1.09682	5.49
1.11348	5.49
1.13015	5.49
1.14682	5.49
1.16348	5.49
1.18015	5.49
1.19682	5.49
1.21348	5.49
1.23015	5.49
1.24682	5.49
1.26348	5.49
1.28015	5.49
1.29682	5.49
1.31348	5.49
1.33015	5.49
1.34682	5.49
1.36348	5.49
1.38015	5.49
1.39682	5.49
1.41348	5.49
1.43015	5.49
1.44682	5.49
1.46348	5.49
1.48015	5.49
1.49682	5.49
1.51348	5.49
1.53015	5.49
1.54682	5.49
1.56348	5.49
1.58015	5.49
1.59682	5.49
1.61348	5.49
1.63015	5.49
1.64682	5.48
1.66348	5.47
1.68015	5.46
1.69682	5.45
1.71348	5.44
1.73015	5.43
1.74682	5.42
1.76348	5.41
1.78015	5.40
1.79682	5.39
1.81348	5.38
1.83015	5.37
1.84682	5.36
1.86348	5.35
1.88015	5.34
1.89682	5.33
1.91348	5.32
1.93015	5.31
1.94682	5.30
1.96348	5.29
1.98015	5.28
1.99682	5.27
2.01348	5.26
2.03015	5.25
2.04682	5.24
2.06348	5.23
2.08015	5.22
2.09682	5.21
2.11348	5.20
2.13015	5.19
2.14682	5.19
2.16348	5.18
2.18015	5.17
2.19682	5.16
2.21348	5.15
2.23015	5.14
2.24682	5.13
2.26348	5.12
2.28015	5.11
2.29682	5.10
2.31348	5.09
2.33015	5.08
2.34682	5.07
2.36348	5.07
2.38015	5.06
2.39682	5.06
2.41348	5.06
2.43015	5.06
2.44682	5.06
2.46348	5.06
2.48015	5.06
2.49682	5.06
2.51348	5.06
2.53015	5.06
2.54682	5.06
2.56348	5.06
2.58015	5.06
2.59682	5.06
2.61348	5.06
2.63015	5.06
2.64682	5.06
2.66348	5.06
2.68015	5.06
2.69682	5.06
2.71348	5.06
2.73015	5.06
2.74682	5.06
2.76348	5.06
2.78015	5.06
2.79682	5.06
2.81348	5.06
2.83015	5.06
2.84682	5.06
2.86348	5.06
2.88015	5.06
2.89682	5.06
2.91348	5.06
2.93015	5.06
2.94682	5.05
2.96348	5.05
2.98015	5.05
2.99682	5.05
3.01348	5.05
3.03015	5.05
3.04682	5.05
3.06348	5.05
3.08015	5.05
3.09682	5.05
3.11348	5.05
3.13015	5.05
3.14682	5.05
3.16348	5.05
3.18015	5.05
3.19682	5.05
3.21348	5.05
3.23015	5.05
3.24682	5.05
3.26348	5.05
3.28015	5.05
3.29682	5.05
3.31348	5.05
3.33015	5.05
3.34682	5.05
3.36348	5.05
3.38015	5.05
3.39682	5.05
3.41348	5.05
3.43015	5.05
3.44682	5.05
3.46348	5.05
3.48015	5.05
3.49682	5.05
3.51348	5.05
3.53015	5.05
3.54682	5.05
3.56348	5.05
3.58015	5.05
3.59682	5.05
3.61348	5.05
3.63015	5.05
3.64682	5.05
3.66348	5.05
3.68015	5.05
3.69682	5.05
3.71348	5.05
3.73015	5.05
3.74682	5.05
3.76348	5.05
3.78015	5.05
3.79682	5.05
3.81348	5.05
3.83015	5.05
3.84682	5.05
3.86348	5.05
3.88015	5.05
3.89682	5.05
3.91348	5.05
3.93015	5.05
3.94682	5.05
3.96348	5.05
3.98015	5.05
3.99682	5.05

[Status Trace (Linear Velocity)]
Interval(msec)	1000
# of Points	240
Start Time(min)	0.013
End Time(min)	3.997
Intensity Units	
Intensity Multiplier	1
R.Time (min)	Intensity
0.01348	38.80
0.03015	37.11
0.04682	38.89
0.06348	40.19
0.08015	39.56
0.09682	39.00
0.11348	39.00
0.13015	39.01
0.14682	39.01
0.16348	39.01
0.18015	39.01
0.19682	39.01
0.21348	39.01
0.23015	39.01
0.24682	39.01
0.26348	39.00
0.28015	39.00
0.29682	39.00
0.31348	39.00
0.33015	39.00
0.34682	39.00
0.36348	39.00
0.38015	39.00
0.39682	39.01
0.41348	39.01
0.43015	39.01
0.44682	39.01
0.46348	39.01
0.48015	39.01
0.49682	39.01
0.51348	39.01
0.53015	39.01
0.54682	39.01
0.56348	39.01
0.58015	39.01
0.59682	39.01
0.61348	39.01
0.63015	39.01
0.64682	39.01
0.66348	39.01
0.68015	39.01
0.69682	39.01
0.71348	39.01
0.73015	39.01
0.74682	39.01
0.76348	39.01
0.78015	39.01
0.79682	39.01
0.81348	39.01
0.83015	39.01
0.84682	39.01
0.86348	39.01
0.88015	39.01
0.89682	39.01
0.91348	39.01
0.93015	39.01
0.94682	39.01
0.96348	39.01
0.98015	39.01
0.99682	39.01
1.01348	39.01
1.03015	39.01
1.04682	39.01
1.06348	39.01
1.08015	39.01
1.09682	39.01
1.11348	39.01
1.13015	39.01
1.14682	39.01
1.16348	39.01
1.18015	39.01
1.19682	39.01
1.21348	39.01
1.23015	39.01
1.24682	39.01
1.26348	39.01
1.28015	39.01
1.29682	39.01
1.31348	39.01
1.33015	39.01
1.34682	39.01
1.36348	39.01
1.38015	39.01
1.39682	39.01
1.41348	39.01
1.43015	39.01
1.44682	39.01
1.46348	39.01
1.48015	39.01
1.49682	39.01
1.51348	39.01
1.53015	39.01
1.54682	39.01
1.56348	39.01
1.58015	39.01
1.59682	39.01
1.61348	39.00
1.63015	38.99
1.64682	38.97
1.66348	38.94
1.68015	38.91
1.69682	38.87
1.71348	38.84
1.73015	38.81
1.74682	38.78
1.76348	38.75
1.78015	38.71
1.79682	38.68
1.81348	38.65
1.83015	38.62
1.84682	38.59
1.86348	38.56
1.88015	38.53
1.89682	38.50
1.91348	38.47
1.93015	38.44
1.94682	38.41
1.96348	38.38
1.98015	38.35
1.99682	38.32
2.01348	38.29
2.03015	38.26
2.04682	38.23
2.06348	38.20
2.08015	38.17
2.09682	38.14
2.11348	38.11
2.13015	38.08
2.14682	38.05
2.16348	38.02
2.18015	37.99
2.19682	37.96
2.21348	37.93
2.23015	37.90
2.24682	37.87
2.26348	37.84
2.28015	37.81
2.29682	37.78
2.31348	37.75
2.33015	37.72
2.34682	37.69
2.36348	37.67
2.38015	37.65
2.39682	37.65
2.41348	37.65
2.43015	37.65
2.44682	37.65
2.46348	37.65
2.48015	37.65
2.49682	37.65
2.51348	37.64
2.53015	37.64
2.54682	37.65
2.56348	37.65
2.58015	37.64
2.59682	37.64
2.61348	37.64
2.63015	37.64
2.64682	37.64
2.66348	37.64
2.68015	37.64
2.69682	37.64
2.71348	37.64
2.73015	37.64
2.74682	37.64
2.76348	37.64
2.78015	37.64
2.79682	37.64
2.81348	37.64
2.83015	37.64
2.84682	37.64
2.86348	37.64
2.88015	37.63
2.89682	37.63
2.91348	37.63
2.93015	37.63
2.94682	37.63
2.96348	37.63
2.98015	37.63
2.99682	37.63
3.01348	37.63
3.03015	37.63
3.04682	37.63
3.06348	37.63
3.08015	37.63
3.09682	37.63
3.11348	37.63
3.13015	37.62
3.14682	37.62
3.16348	37.62
3.18015	37.62
3.19682	37.62
3.21348	37.62
3.23015	37.62
3.24682	37.62
3.26348	37.62
3.28015	37.62
3.29682	37.62
3.31348	37.62
3.33015	37.62
3.34682	37.62
3.36348	37.62
3.38015	37.62
3.39682	37.62
3.41348	37.62
3.43015	37.62
3.44682	37.62
3.46348	37.62
3.48015	37.62
3.49682	37.62
3.51348	37.62
3.53015	37.62
3.54682	37.62
3.56348	37.62
3.58015	37.62
3.59682	37.62
3.61348	37.62
3.63015	37.62
3.64682	37.62
3.66348	37.62
3.68015	37.62
3.69682	37.62
3.71348	37.62
3.73015	37.62
3.74682	37.62
3.76348	37.62
3.78015	37.62
3.79682	37.62
3.81348	37.62
3.83015	37.62
3.84682	37.62
3.86348	37.62
3.88015	37.62
3.89682	37.62
3.91348	37.62
3.93015	37.62
3.94682	37.62
3.96348	37.62
3.98015	37.62
3.99682	37.62

