[Header]
Application Name	LabSolutions
Version	5.110
Data File Name	C:\Users\User\Desktop\Junior\UIC Prairie Sampling\6.15.23\06152023_093.gcd
Output Date	6/26/2023
Output Time	12:05:13 PM

[File Information]
Type	Data File
Generated	6/23/2023 10:16:40 PM
Generated by	System Administrator
Modified	6/23/2023 10:24:12 PM
Modified by	System Administrator

[Sample Information]
Operator Name	System Administrator
Acquired	6/23/2023 10:20:12 PM
Sample Type	0:Unknown
Level	0
Sample Name	093
Sample ID	093
ISTD Amount1	1
ISTD Amount2	1
ISTD Amount3	1
ISTD Amount4	1
ISTD Amount5	1
ISTD Amount6	1
ISTD Amount7	1
ISTD Amount8	1
ISTD Amount9	1
ISTD Amount10	1
ISTD Amount11	1
ISTD Amount12	1
ISTD Amount13	1
ISTD Amount14	1
ISTD Amount15	1
ISTD Amount16	1
ISTD Amount17	1
ISTD Amount18	1
ISTD Amount19	1
ISTD Amount20	1
ISTD Amount21	1
ISTD Amount22	1
ISTD Amount23	1
ISTD Amount24	1
ISTD Amount25	1
ISTD Amount26	1
ISTD Amount27	1
ISTD Amount28	1
ISTD Amount29	1
ISTD Amount30	1
ISTD Amount31	1
ISTD Amount32	1
Sample Amount	1
Dilution Factor	1
Vial#	92
Injection Volume	1
Injection Count	1
Bar Code	

[Original Files]
Data File	C:\Users\User\Desktop\Junior\UIC Prairie Sampling\6.15.23\06152023_093.gcd
Method File	C:\LabSolutions\Data\GHG_4min_2022\ghg3_togas_w_acet_4 min_new_int.gcm
Batch File	C:\LabSolutions\Data\AutoSamplerTesting\06152023.gcb
Report Format File	c:\LabSolutions\System\DEFAULT.lsr

[File Description]


[Configuration]
Instrument Name	C0B7VH3-Instrument1
Instrument #	1
Line #	1
# of Detectors	3
Detector ID	DET#1	DET#2	DET#3
Detector Name	FID	PTCD	ECD
# of Channels	1	1	1

[Peak Table(Ch1)]
# of Peaks	3
Peak#	R.Time	I.Time	F.Time	Area	Height	A/H	Conc.	Mark	ID#	Name	k'	Plate #	Plate Ht.	Tailing	Resolution	Sep.Factor	Area Ratio	Height Ratio	Conc. %	Norm Conc.
1	1.472	1.439	1.527	3576	1812	1.974	0.000	   	1	CO	0.000	10142	14.790	1.310	0.000	0.000	0	0	0.000	0.000
2	1.560	1.527	1.622	4105	2083	1.971	20.014	 V 	2	CH4	0.060	11695	12.825	1.282	1.515	0.000	0	0	2.966	2.966
3	1.989	1.941	2.719	3397334	1615434	2.103	654.729	   	3	CO2	0.351	17563	8.541	1.246	7.288	5.875	0	0	97.034	97.034

[Peak Table(Ch2)]
# of Peaks	0

[Peak Table(Ch3)]
# of Peaks	4
Peak#	R.Time	I.Time	F.Time	Area	Height	A/H	Conc.	Mark	ID#	Name	k'	Plate #	Plate Ht.	Tailing	Resolution	Sep.Factor	Area Ratio	Height Ratio	Conc. %	Norm Conc.
1	2.502	2.411	2.535	3826	826	4.631	0.000	   			0.000	1902	78.858	0.000	0.000	0.000	0	0	0.000	0.000
2	2.572	2.535	2.656	4812	774	6.220	0.000	 V 			0.028	406	369.818	0.000	0.188	0.000	0	0	0.000	0.000
3	2.726	2.656	2.825	5511	599	9.197	0.000	 V 			0.089	115	1306.650	0.000	0.202	3.211	0	0	0.000	0.000
4	2.887	2.825	3.753	35078	5153	6.807	0.519	 V 	1	N2O	0.154	11738	12.779	0.000	0.287	1.721	0	0	100.000	100.000

[Compound Results(Ch1)]
# of IDs	6
ID#	Name	R.Time	Area	Height	Conc.	Curve	3rd	2nd	1st	Constant	Area Ratio	Height Ratio	Conc. %	Norm Conc.
1	CO	1.472	3576	1812	0.000	Linear	0.000000e+00	0.000000e+00	0.000000e+00	0.000000e+00	0	0	0.000	0.000
2	CH4	1.560	4105	2083	20.014	Linear	0.000000e+00	0.000000e+00	2.051179e+002	0.000000e+00	0	0	2.966	2.966
3	CO2	1.989	3397334	1615434	654.729	Linear	0.000000e+00	0.000000e+00	5.188919e+003	0.000000e+00	0	0	97.034	97.034
4	Ethylene	0.000	0	0	0.000	Linear	0.000000e+00	0.000000e+00	0.000000e+00	0.000000e+00	0	0	0.000	0.000
5	Acetylene	0.000	0	0	0.000	Linear	0.000000e+00	0.000000e+00	0.000000e+00	0.000000e+00	0	0	0.000	0.000
6	Ethane	0.000	0	0	0.000	Linear	0.000000e+00	0.000000e+00	0.000000e+00	0.000000e+00	0	0	0.000	0.000

[Compound Results(Ch2)]
# of IDs	5
ID#	Name	R.Time	Area	Height	Conc.	Curve	3rd	2nd	1st	Constant	Area Ratio	Height Ratio	Conc. %	Norm Conc.
1	Hydrogen	0.000	0	0	0.000	Linear	0.000000e+00	0.000000e+00	0.000000e+00	0.000000e+00	0	0	0.000	0.000
2	Oxygen	0.000	0	0	0.000	Linear	0.000000e+00	0.000000e+00	0.000000e+00	0.000000e+00	0	0	0.000	0.000
3	Nitrogen	0.000	0	0	0.000	Linear	0.000000e+00	0.000000e+00	0.000000e+00	0.000000e+00	0	0	0.000	0.000
4	Methane	0.000	0	0	0.000	Linear	0.000000e+00	0.000000e+00	0.000000e+00	0.000000e+00	0	0	0.000	0.000
5	Carbon Monoxide	0.000	0	0	0.000	Linear	0.000000e+00	0.000000e+00	0.000000e+00	0.000000e+00	0	0	0.000	0.000

[Compound Results(Ch3)]
# of IDs	2
ID#	Name	R.Time	Area	Height	Conc.	Curve	3rd	2nd	1st	Constant	Area Ratio	Height Ratio	Conc. %	Norm Conc.
1	N2O	2.887	35078	5153	0.519	Linear	0.000000e+00	0.000000e+00	6.759880e+004	0.000000e+00	0	0	100.000	100.000
2	SF6	0.000	0	0	0.000	Linear	0.000000e+00	0.000000e+00	0.000000e+00	0.000000e+00	0	0	0.000	0.000

[Group Results(Ch1)]
# of Groups	0

[Group Results(Ch2)]
# of Groups	0

[Group Results(Ch3)]
# of Groups	0

[Chromatogram (Ch1)]
Interval(msec)	220
# of Points	1091
Start Time(min)	0.002
End Time(min)	3.998
R.Time (min)	Intensity
0.00167	-16
0.00533	-14
0.00900	-14
0.01267	-13
0.01633	-14
0.02000	-15
0.02367	-15
0.02733	-10
0.03100	-6
0.03467	-8
0.03833	-15
0.04200	-24
0.04567	-30
0.04933	-30
0.05300	-31
0.05667	-33
0.06033	-34
0.06400	-35
0.06767	-37
0.07133	-39
0.07500	-36
0.07867	-32
0.08233	-29
0.08600	-27
0.08967	-25
0.09333	-22
0.09700	-18
0.10067	-15
0.10433	-15
0.10800	-14
0.11167	-14
0.11533	-15
0.11900	-13
0.12267	-9
0.12633	-6
0.13000	-4
0.13367	-1
0.13733	-3
0.14100	-11
0.14467	-19
0.14833	-25
0.15200	-30
0.15567	-35
0.15933	-37
0.16300	-33
0.16667	-25
0.17033	-18
0.17400	-14
0.17767	-12
0.18133	-12
0.18500	-11
0.18867	-12
0.19233	-13
0.19600	-15
0.19967	-20
0.20333	-25
0.20700	-32
0.21067	-38
0.21433	-43
0.21800	-47
0.22167	-50
0.22533	-53
0.22900	-53
0.23267	-50
0.23633	-47
0.24000	-41
0.24367	-33
0.24733	-24
0.25100	-14
0.25467	-6
0.25833	-1
0.26200	2
0.26567	1
0.26933	-3
0.27300	-10
0.27667	-18
0.28033	-26
0.28400	-28
0.28767	-25
0.29133	-20
0.29500	-15
0.29867	-14
0.30233	-17
0.30600	-20
0.30967	-23
0.31333	-27
0.31700	-33
0.32067	-38
0.32433	-39
0.32800	-38
0.33167	-34
0.33533	-28
0.33900	-22
0.34267	-18
0.34633	-18
0.35000	-18
0.35367	-23
0.35733	-30
0.36100	-36
0.36467	-37
0.36833	-36
0.37200	-37
0.37567	-39
0.37933	-37
0.38300	-36
0.38667	-36
0.39033	-34
0.39400	-30
0.39767	-29
0.40133	-35
0.40500	-41
0.40867	-45
0.41233	-47
0.41600	-47
0.41967	-45
0.42333	-43
0.42700	-39
0.43067	-30
0.43433	-24
0.43800	-24
0.44167	-27
0.44533	-28
0.44900	-27
0.45267	-24
0.45633	-20
0.46000	-17
0.46367	-16
0.46733	-15
0.47100	-16
0.47467	-14
0.47833	-14
0.48200	-19
0.48567	-29
0.48933	-41
0.49300	-52
0.49667	-58
0.50033	-59
0.50400	-57
0.50767	-54
0.51133	-51
0.51500	-48
0.51867	-45
0.52233	-42
0.52600	-37
0.52967	-30
0.53333	-24
0.53700	-19
0.54067	-20
0.54433	-28
0.54800	-39
0.55167	-47
0.55533	-50
0.55900	-50
0.56267	-48
0.56633	-49
0.57000	-48
0.57367	-43
0.57733	-37
0.58100	-26
0.58467	-15
0.58833	-10
0.59200	-12
0.59567	-17
0.59933	-24
0.60300	-34
0.60667	-46
0.61033	-56
0.61400	-59
0.61767	-61
0.62133	-61
0.62500	-58
0.62867	-53
0.63233	-50
0.63600	-48
0.63967	-48
0.64333	-51
0.64700	-54
0.65067	-53
0.65433	-48
0.65800	-40
0.66167	-35
0.66533	-36
0.66900	-41
0.67267	-49
0.67633	-57
0.68000	-59
0.68367	-59
0.68733	-58
0.69100	-56
0.69467	-52
0.69833	-42
0.70200	-30
0.70567	-22
0.70933	-21
0.71300	-27
0.71667	-37
0.72033	-50
0.72400	-61
0.72767	-66
0.73133	-68
0.73500	-67
0.73867	-66
0.74233	-63
0.74600	-58
0.74967	-52
0.75333	-47
0.75700	-45
0.76067	-42
0.76433	-40
0.76800	-42
0.77167	-44
0.77533	-43
0.77900	-39
0.78267	-35
0.78633	-33
0.79000	-38
0.79367	-46
0.79733	-50
0.80100	-51
0.80467	-50
0.80833	-49
0.81200	-48
0.81567	-50
0.81933	-56
0.82300	-63
0.82667	-69
0.83033	-74
0.83400	-76
0.83767	-75
0.84133	-71
0.84500	-65
0.84867	-63
0.85233	-64
0.85600	-65
0.85967	-65
0.86333	-62
0.86700	-55
0.87067	-45
0.87433	-41
0.87800	-51
0.88167	-65
0.88533	-75
0.88900	-79
0.89267	-79
0.89633	-74
0.90000	-70
0.90367	-66
0.90733	-59
0.91100	-49
0.91467	-39
0.91833	-32
0.92200	-32
0.92567	-38
0.92933	-45
0.93300	-53
0.93667	-60
0.94033	-65
0.94400	-65
0.94767	-64
0.95133	-64
0.95500	-67
0.95867	-70
0.96233	-73
0.96600	-72
0.96967	-70
0.97333	-69
0.97700	-68
0.98067	-62
0.98433	-52
0.98800	-42
0.99167	-37
0.99533	-40
0.99900	-48
1.00267	-57
1.00633	-60
1.01000	-57
1.01367	-52
1.01733	-52
1.02100	-56
1.02467	-59
1.02833	-62
1.03200	-61
1.03567	-57
1.03933	-56
1.04300	-59
1.04667	-64
1.05033	-65
1.05400	-67
1.05767	-66
1.06133	-62
1.06500	-57
1.06867	-55
1.07233	-57
1.07600	-60
1.07967	-63
1.08333	-64
1.08700	-62
1.09067	-61
1.09433	-63
1.09800	-69
1.10167	-77
1.10533	-84
1.10900	-88
1.11267	-88
1.11633	-87
1.12000	-83
1.12367	-79
1.12733	-76
1.13100	-76
1.13467	-75
1.13833	-72
1.14200	-64
1.14567	-53
1.14933	-42
1.15300	-33
1.15667	-26
1.16033	-27
1.16400	-38
1.16767	-53
1.17133	-65
1.17500	-71
1.17867	-71
1.18233	-71
1.18600	-69
1.18967	-64
1.19333	-60
1.19700	-55
1.20067	-53
1.20433	-57
1.20800	-68
1.21167	-83
1.21533	-99
1.21900	-114
1.22267	-128
1.22633	-140
1.23000	-146
1.23367	-145
1.23733	-142
1.24100	-138
1.24467	-129
1.24833	-118
1.25200	-108
1.25567	-99
1.25933	-93
1.26300	-87
1.26667	-83
1.27033	-80
1.27400	-78
1.27767	-77
1.28133	-74
1.28500	-71
1.28867	-69
1.29233	-66
1.29600	-67
1.29967	-72
1.30333	-76
1.30700	-81
1.31067	-84
1.31433	-86
1.31800	-88
1.32167	-90
1.32533	-94
1.32900	-96
1.33267	-96
1.33633	-95
1.34000	-93
1.34367	-89
1.34733	-82
1.35100	-74
1.35467	-69
1.35833	-67
1.36200	-64
1.36567	-63
1.36933	-68
1.37300	-76
1.37667	-83
1.38033	-88
1.38400	-90
1.38767	-90
1.39133	-89
1.39500	-88
1.39867	-84
1.40233	-78
1.40600	-74
1.40967	-72
1.41333	-72
1.41700	-73
1.42067	-73
1.42433	-70
1.42800	-68
1.43167	-66
1.43533	-61
1.43900	-53
1.44267	-51
1.44633	-2
1.45000	181
1.45367	498
1.45733	866
1.46100	1206
1.46467	1483
1.46833	1676
1.47200	1751
1.47567	1686
1.47933	1496
1.48300	1228
1.48667	943
1.49033	684
1.49400	473
1.49767	311
1.50133	191
1.50500	110
1.50867	55
1.51233	20
1.51600	1
1.51967	-11
1.52333	-20
1.52700	-27
1.53067	-25
1.53433	13
1.53800	144
1.54167	414
1.54533	799
1.54900	1218
1.55267	1586
1.55633	1856
1.56000	2001
1.56367	1997
1.56733	1833
1.57100	1543
1.57467	1194
1.57833	859
1.58200	581
1.58567	368
1.58933	215
1.59300	111
1.59667	44
1.60033	4
1.60400	-20
1.60767	-36
1.61133	-50
1.61500	-66
1.61867	-83
1.62233	-97
1.62600	-105
1.62967	-105
1.63333	-99
1.63700	-90
1.64067	-85
1.64433	-84
1.64800	-84
1.65167	-87
1.65533	-92
1.65900	-98
1.66267	-106
1.66633	-113
1.67000	-116
1.67367	-115
1.67733	-112
1.68100	-103
1.68467	-96
1.68833	-94
1.69200	-93
1.69567	-91
1.69933	-90
1.70300	-93
1.70667	-98
1.71033	-104
1.71400	-108
1.71767	-107
1.72133	-103
1.72500	-100
1.72867	-98
1.73233	-96
1.73600	-97
1.73967	-101
1.74333	-105
1.74700	-106
1.75067	-102
1.75433	-96
1.75800	-92
1.76167	-93
1.76533	-99
1.76900	-105
1.77267	-109
1.77633	-116
1.78000	-122
1.78367	-128
1.78733	-129
1.79100	-125
1.79467	-124
1.79833	-123
1.80200	-115
1.80567	-104
1.80933	-93
1.81300	-89
1.81667	-92
1.82033	-99
1.82400	-107
1.82767	-113
1.83133	-118
1.83500	-123
1.83867	-125
1.84233	-127
1.84600	-129
1.84967	-129
1.85333	-125
1.85700	-122
1.86067	-120
1.86433	-117
1.86800	-112
1.87167	-104
1.87533	-96
1.87900	-91
1.88267	-90
1.88633	-94
1.89000	-102
1.89367	-113
1.89733	-121
1.90100	-121
1.90467	-118
1.90833	-117
1.91200	-119
1.91567	-122
1.91933	-124
1.92300	-124
1.92667	-120
1.93033	-118
1.93400	-118
1.93767	-116
1.94133	-109
1.94500	-64
1.94867	262
1.95233	2263
1.95600	11575
1.95967	44125
1.96333	130377
1.96700	303109
1.97067	567482
1.97433	885914
1.97800	1196621
1.98167	1443365
1.98533	1588340
1.98900	1615358
1.99267	1529803
1.99633	1356136
2.00000	1131179
2.00367	893935
2.00733	675411
2.01100	493043
2.01467	351588
2.01833	247542
2.02200	173789
2.02567	122772
2.02933	87987
2.03300	64416
2.03667	48426
2.04033	37497
2.04400	29927
2.04767	24584
2.05133	20730
2.05500	17881
2.05867	15717
2.06233	14028
2.06600	12675
2.06967	11570
2.07333	10654
2.07700	9878
2.08067	9211
2.08433	8630
2.08800	8117
2.09167	7659
2.09533	7251
2.09900	6884
2.10267	6550
2.10633	6242
2.11000	5961
2.11367	5701
2.11733	5460
2.12100	5243
2.12467	5044
2.12833	4859
2.13200	4686
2.13567	4526
2.13933	4372
2.14300	4223
2.14667	4074
2.15033	3928
2.15400	3791
2.15767	3667
2.16133	3553
2.16500	3448
2.16867	3352
2.17233	3263
2.17600	3178
2.17967	3095
2.18333	3014
2.18700	2939
2.19067	2868
2.19433	2798
2.19800	2728
2.20167	2662
2.20533	2597
2.20900	2533
2.21267	2471
2.21633	2412
2.22000	2357
2.22367	2306
2.22733	2260
2.23100	2214
2.23467	2168
2.23833	2121
2.24200	2073
2.24567	2028
2.24933	1986
2.25300	1943
2.25667	1901
2.26033	1867
2.26400	1835
2.26767	1808
2.27133	1780
2.27500	1750
2.27867	1719
2.28233	1686
2.28600	1651
2.28967	1615
2.29333	1581
2.29700	1548
2.30067	1520
2.30433	1490
2.30800	1459
2.31167	1427
2.31533	1399
2.31900	1375
2.32267	1357
2.32633	1343
2.33000	1331
2.33367	1314
2.33733	1291
2.34100	1267
2.34467	1246
2.34833	1227
2.35200	1208
2.35567	1190
2.35933	1175
2.36300	1161
2.36667	1147
2.37033	1131
2.37400	1113
2.37767	1097
2.38133	1080
2.38500	1065
2.38867	1052
2.39233	1043
2.39600	1037
2.39967	1032
2.40333	1024
2.40700	1015
2.41067	1008
2.41433	998
2.41800	986
2.42167	971
2.42533	954
2.42900	937
2.43267	923
2.43633	911
2.44000	904
2.44367	897
2.44733	888
2.45100	875
2.45467	856
2.45833	838
2.46200	822
2.46567	810
2.46933	801
2.47300	795
2.47667	788
2.48033	778
2.48400	768
2.48767	760
2.49133	756
2.49500	753
2.49867	751
2.50233	748
2.50600	741
2.50967	733
2.51333	724
2.51700	717
2.52067	713
2.52433	709
2.52800	703
2.53167	695
2.53533	682
2.53900	668
2.54267	657
2.54633	647
2.55000	639
2.55367	633
2.55733	629
2.56100	627
2.56467	621
2.56833	611
2.57200	605
2.57567	603
2.57933	598
2.58300	590
2.58667	584
2.59033	577
2.59400	571
2.59767	567
2.60133	564
2.60500	559
2.60867	551
2.61233	542
2.61600	533
2.61967	524
2.62333	516
2.62700	507
2.63067	502
2.63433	501
2.63800	503
2.64167	502
2.64533	497
2.64900	490
2.65267	484
2.65633	479
2.66000	472
2.66367	465
2.66733	456
2.67100	448
2.67467	445
2.67833	444
2.68200	444
2.68567	439
2.68933	432
2.69300	430
2.69667	434
2.70033	439
2.70400	441
2.70767	440
2.71133	438
2.71500	435
2.71867	429
2.72233	421
2.72600	418
2.72967	418
2.73333	420
2.73700	421
2.74067	417
2.74433	416
2.74800	416
2.75167	414
2.75533	407
2.75900	399
2.76267	392
2.76633	385
2.77000	381
2.77367	378
2.77733	374
2.78100	370
2.78467	368
2.78833	368
2.79200	366
2.79567	362
2.79933	357
2.80300	354
2.80667	354
2.81033	354
2.81400	352
2.81767	349
2.82133	347
2.82500	344
2.82867	337
2.83233	327
2.83600	317
2.83967	312
2.84333	311
2.84700	313
2.85067	319
2.85433	324
2.85800	328
2.86167	330
2.86533	335
2.86900	338
2.87267	334
2.87633	320
2.88000	307
2.88367	300
2.88733	298
2.89100	295
2.89467	290
2.89833	284
2.90200	279
2.90567	276
2.90933	273
2.91300	270
2.91667	266
2.92033	264
2.92400	267
2.92767	273
2.93133	278
2.93500	281
2.93867	283
2.94233	284
2.94600	287
2.94967	289
2.95333	285
2.95700	275
2.96067	265
2.96433	260
2.96800	260
2.97167	260
2.97533	259
2.97900	256
2.98267	254
2.98633	253
2.99000	253
2.99367	253
2.99733	251
3.00100	249
3.00467	249
3.00833	253
3.01200	257
3.01567	260
3.01933	258
3.02300	250
3.02667	244
3.03033	238
3.03400	234
3.03767	234
3.04133	237
3.04500	239
3.04867	238
3.05233	237
3.05600	238
3.05967	240
3.06333	240
3.06700	239
3.07067	233
3.07433	225
3.07800	220
3.08167	216
3.08533	214
3.08900	220
3.09267	232
3.09633	237
3.10000	230
3.10367	217
3.10733	203
3.11100	196
3.11467	197
3.11833	201
3.12200	202
3.12567	201
3.12933	197
3.13300	195
3.13667	196
3.14033	198
3.14400	198
3.14767	198
3.15133	199
3.15500	200
3.15867	200
3.16233	201
3.16600	203
3.16967	209
3.17333	213
3.17700	215
3.18067	217
3.18433	218
3.18800	218
3.19167	214
3.19533	202
3.19900	188
3.20267	176
3.20633	169
3.21000	166
3.21367	163
3.21733	157
3.22100	152
3.22467	149
3.22833	149
3.23200	154
3.23567	165
3.23933	177
3.24300	185
3.24667	187
3.25033	185
3.25400	181
3.25767	177
3.26133	173
3.26500	169
3.26867	164
3.27233	160
3.27600	159
3.27967	161
3.28333	161
3.28700	160
3.29067	160
3.29433	158
3.29800	156
3.30167	156
3.30533	157
3.30900	158
3.31267	159
3.31633	162
3.32000	161
3.32367	158
3.32733	153
3.33100	147
3.33467	144
3.33833	148
3.34200	155
3.34567	160
3.34933	162
3.35300	158
3.35667	150
3.36033	144
3.36400	140
3.36767	140
3.37133	140
3.37500	139
3.37867	137
3.38233	137
3.38600	137
3.38967	133
3.39333	130
3.39700	129
3.40067	133
3.40433	142
3.40800	149
3.41167	150
3.41533	148
3.41900	144
3.42267	140
3.42633	138
3.43000	138
3.43367	137
3.43733	133
3.44100	127
3.44467	120
3.44833	114
3.45200	111
3.45567	111
3.45933	111
3.46300	110
3.46667	112
3.47033	116
3.47400	117
3.47767	112
3.48133	107
3.48500	102
3.48867	100
3.49233	103
3.49600	109
3.49967	116
3.50333	119
3.50700	115
3.51067	111
3.51433	106
3.51800	103
3.52167	104
3.52533	111
3.52900	120
3.53267	121
3.53633	119
3.54000	114
3.54367	110
3.54733	107
3.55100	105
3.55467	103
3.55833	102
3.56200	103
3.56567	105
3.56933	108
3.57300	113
3.57667	120
3.58033	126
3.58400	126
3.58767	117
3.59133	103
3.59500	89
3.59867	77
3.60233	69
3.60600	63
3.60967	61
3.61333	64
3.61700	68
3.62067	71
3.62433	76
3.62800	81
3.63167	84
3.63533	86
3.63900	84
3.64267	81
3.64633	81
3.65000	84
3.65367	84
3.65733	76
3.66100	65
3.66467	58
3.66833	55
3.67200	56
3.67567	60
3.67933	65
3.68300	71
3.68667	73
3.69033	73
3.69400	73
3.69767	77
3.70133	83
3.70500	85
3.70867	83
3.71233	82
3.71600	83
3.71967	82
3.72333	81
3.72700	79
3.73067	77
3.73433	74
3.73800	69
3.74167	67
3.74533	65
3.74900	62
3.75267	61
3.75633	63
3.76000	67
3.76367	70
3.76733	68
3.77100	66
3.77467	64
3.77833	63
3.78200	63
3.78567	63
3.78933	62
3.79300	62
3.79667	59
3.80033	58
3.80400	59
3.80767	62
3.81133	65
3.81500	67
3.81867	71
3.82233	73
3.82600	73
3.82967	70
3.83333	67
3.83700	62
3.84067	59
3.84433	56
3.84800	50
3.85167	45
3.85533	43
3.85900	44
3.86267	48
3.86633	55
3.87000	60
3.87367	62
3.87733	64
3.88100	66
3.88467	66
3.88833	63
3.89200	60
3.89567	57
3.89933	55
3.90300	54
3.90667	57
3.91033	62
3.91400	64
3.91767	63
3.92133	63
3.92500	66
3.92867	71
3.93233	73
3.93600	77
3.93967	77
3.94333	73
3.94700	67
3.95067	64
3.95433	62
3.95800	62
3.96167	63
3.96533	64
3.96900	64
3.97267	56
3.97633	43
3.98000	36
3.98367	35
3.98733	36
3.99100	37
3.99467	38
3.99833	39

[Chromatogram (Ch2)]
Interval(msec)	220
# of Points	1091
Start Time(min)	0.002
End Time(min)	3.998
R.Time (min)	Intensity
0.00167	-1
0.00533	-1
0.00900	-1
0.01267	-1
0.01633	-1
0.02000	-1
0.02367	-1
0.02733	-1
0.03100	-1
0.03467	-1
0.03833	-1
0.04200	-1
0.04567	-1
0.04933	-1
0.05300	-1
0.05667	-1
0.06033	-0
0.06400	-0
0.06767	0
0.07133	0
0.07500	0
0.07867	0
0.08233	0
0.08600	0
0.08967	-0
0.09333	-0
0.09700	-0
0.10067	-0
0.10433	-0
0.10800	-0
0.11167	-0
0.11533	-1
0.11900	-1
0.12267	-1
0.12633	-0
0.13000	-0
0.13367	0
0.13733	1
0.14100	1
0.14467	1
0.14833	1
0.15200	1
0.15567	1
0.15933	1
0.16300	1
0.16667	0
0.17033	-0
0.17400	-1
0.17767	-1
0.18133	-1
0.18500	-2
0.18867	-2
0.19233	-2
0.19600	-2
0.19967	-2
0.20333	-2
0.20700	-2
0.21067	-2
0.21433	-2
0.21800	-2
0.22167	-2
0.22533	-1
0.22900	-1
0.23267	-1
0.23633	-1
0.24000	-1
0.24367	-1
0.24733	-1
0.25100	-1
0.25467	-1
0.25833	-1
0.26200	-1
0.26567	-1
0.26933	-1
0.27300	-0
0.27667	-0
0.28033	-0
0.28400	-0
0.28767	-0
0.29133	-0
0.29500	-0
0.29867	-0
0.30233	-1
0.30600	-1
0.30967	-1
0.31333	-1
0.31700	-1
0.32067	-1
0.32433	-1
0.32800	-1
0.33167	-0
0.33533	-0
0.33900	0
0.34267	0
0.34633	1
0.35000	1
0.35367	1
0.35733	1
0.36100	1
0.36467	1
0.36833	1
0.37200	1
0.37567	1
0.37933	1
0.38300	1
0.38667	1
0.39033	1
0.39400	0
0.39767	-0
0.40133	-1
0.40500	-1
0.40867	-2
0.41233	-2
0.41600	-2
0.41967	-2
0.42333	-3
0.42700	-3
0.43067	-3
0.43433	-3
0.43800	-3
0.44167	-3
0.44533	-3
0.44900	-3
0.45267	-3
0.45633	-3
0.46000	-3
0.46367	-3
0.46733	-3
0.47100	-3
0.47467	-3
0.47833	-2
0.48200	-2
0.48567	-2
0.48933	-2
0.49300	-2
0.49667	-2
0.50033	-2
0.50400	-2
0.50767	-1
0.51133	-1
0.51500	-1
0.51867	-1
0.52233	-1
0.52600	-1
0.52967	-1
0.53333	-1
0.53700	-1
0.54067	-1
0.54433	-1
0.54800	-1
0.55167	-1
0.55533	-1
0.55900	-1
0.56267	-1
0.56633	-2
0.57000	-2
0.57367	-2
0.57733	-2
0.58100	-2
0.58467	-2
0.58833	-3
0.59200	-3
0.59567	-3
0.59933	-3
0.60300	-3
0.60667	-3
0.61033	-3
0.61400	-3
0.61767	-3
0.62133	-3
0.62500	-3
0.62867	-3
0.63233	-3
0.63600	-3
0.63967	-3
0.64333	-3
0.64700	-3
0.65067	-3
0.65433	-3
0.65800	-3
0.66167	-3
0.66533	-3
0.66900	-2
0.67267	-2
0.67633	-2
0.68000	-2
0.68367	-2
0.68733	-2
0.69100	-2
0.69467	-2
0.69833	-2
0.70200	-2
0.70567	-2
0.70933	-1
0.71300	-1
0.71667	-1
0.72033	-1
0.72400	-1
0.72767	-0
0.73133	-0
0.73500	-0
0.73867	-0
0.74233	-0
0.74600	-0
0.74967	0
0.75333	-0
0.75700	-0
0.76067	-0
0.76433	-0
0.76800	0
0.77167	0
0.77533	1
0.77900	1
0.78267	0
0.78633	0
0.79000	-0
0.79367	-1
0.79733	-1
0.80100	-2
0.80467	-2
0.80833	-2
0.81200	-3
0.81567	-3
0.81933	-3
0.82300	-3
0.82667	-3
0.83033	-3
0.83400	-3
0.83767	-3
0.84133	-3
0.84500	-3
0.84867	-3
0.85233	-2
0.85600	-2
0.85967	-2
0.86333	-2
0.86700	-1
0.87067	-1
0.87433	-1
0.87800	-1
0.88167	-1
0.88533	-1
0.88900	-1
0.89267	-1
0.89633	-1
0.90000	-1
0.90367	-1
0.90733	-1
0.91100	-1
0.91467	-1
0.91833	-2
0.92200	-2
0.92567	-2
0.92933	-2
0.93300	-2
0.93667	-3
0.94033	-3
0.94400	-3
0.94767	-3
0.95133	-3
0.95500	-3
0.95867	-3
0.96233	-3
0.96600	-3
0.96967	-3
0.97333	-3
0.97700	-3
0.98067	-3
0.98433	-3
0.98800	-3
0.99167	-3
0.99533	-3
0.99900	-3
1.00267	-3
1.00633	-3
1.01000	-3
1.01367	-3
1.01733	-3
1.02100	-4
1.02467	-4
1.02833	-4
1.03200	-5
1.03567	-5
1.03933	-4
1.04300	-4
1.04667	-3
1.05033	-3
1.05400	-3
1.05767	-3
1.06133	-3
1.06500	-2
1.06867	-2
1.07233	-2
1.07600	-2
1.07967	-2
1.08333	-2
1.08700	-2
1.09067	-2
1.09433	-2
1.09800	-2
1.10167	-2
1.10533	-2
1.10900	-2
1.11267	-2
1.11633	-2
1.12000	-2
1.12367	-2
1.12733	-2
1.13100	-2
1.13467	-2
1.13833	-2
1.14200	-2
1.14567	-3
1.14933	-3
1.15300	-3
1.15667	-3
1.16033	-3
1.16400	-3
1.16767	-3
1.17133	-3
1.17500	-3
1.17867	-3
1.18233	-3
1.18600	-3
1.18967	-3
1.19333	-3
1.19700	-2
1.20067	-2
1.20433	-2
1.20800	-2
1.21167	-3
1.21533	-3
1.21900	-3
1.22267	-3
1.22633	-3
1.23000	-3
1.23367	-3
1.23733	-3
1.24100	-3
1.24467	-3
1.24833	-3
1.25200	-3
1.25567	-3
1.25933	-3
1.26300	-3
1.26667	-2
1.27033	-2
1.27400	-2
1.27767	-2
1.28133	-2
1.28500	-2
1.28867	-2
1.29233	-2
1.29600	-2
1.29967	-2
1.30333	-2
1.30700	-2
1.31067	-1
1.31433	-1
1.31800	-1
1.32167	-1
1.32533	-2
1.32900	-2
1.33267	-2
1.33633	-3
1.34000	-3
1.34367	-3
1.34733	-4
1.35100	-4
1.35467	-4
1.35833	-4
1.36200	-4
1.36567	-4
1.36933	-4
1.37300	-4
1.37667	-5
1.38033	-5
1.38400	-5
1.38767	-5
1.39133	-5
1.39500	-5
1.39867	-5
1.40233	-5
1.40600	-6
1.40967	-6
1.41333	-6
1.41700	-6
1.42067	-6
1.42433	-6
1.42800	-6
1.43167	-5
1.43533	-5
1.43900	-5
1.44267	-5
1.44633	-4
1.45000	-4
1.45367	-4
1.45733	-4
1.46100	-4
1.46467	-4
1.46833	-4
1.47200	-4
1.47567	-4
1.47933	-4
1.48300	-4
1.48667	-4
1.49033	-3
1.49400	-3
1.49767	-3
1.50133	-3
1.50500	-3
1.50867	-2
1.51233	-2
1.51600	-2
1.51967	-2
1.52333	-2
1.52700	-2
1.53067	-2
1.53433	-2
1.53800	-2
1.54167	-2
1.54533	-3
1.54900	-3
1.55267	-3
1.55633	-2
1.56000	-3
1.56367	-3
1.56733	-3
1.57100	-3
1.57467	-4
1.57833	-4
1.58200	-4
1.58567	-5
1.58933	-5
1.59300	-5
1.59667	-6
1.60033	-7
1.60400	-7
1.60767	-9
1.61133	-10
1.61500	-12
1.61867	-14
1.62233	-17
1.62600	-19
1.62967	-22
1.63333	-26
1.63700	-29
1.64067	-32
1.64433	-36
1.64800	-39
1.65167	-43
1.65533	-46
1.65900	-49
1.66267	-53
1.66633	-56
1.67000	-60
1.67367	-64
1.67733	-68
1.68100	-72
1.68467	-76
1.68833	-80
1.69200	-84
1.69567	-87
1.69933	-90
1.70300	-92
1.70667	-93
1.71033	-95
1.71400	-96
1.71767	-97
1.72133	-98
1.72500	-99
1.72867	-100
1.73233	-100
1.73600	-100
1.73967	-100
1.74333	-100
1.74700	-100
1.75067	-100
1.75433	-99
1.75800	-99
1.76167	-99
1.76533	-99
1.76900	-99
1.77267	-99
1.77633	-100
1.78000	-101
1.78367	-101
1.78733	-101
1.79100	-101
1.79467	-102
1.79833	-102
1.80200	-102
1.80567	-103
1.80933	-103
1.81300	-103
1.81667	-103
1.82033	-103
1.82400	-103
1.82767	-103
1.83133	-103
1.83500	-104
1.83867	-104
1.84233	-104
1.84600	-104
1.84967	-104
1.85333	-103
1.85700	-103
1.86067	-103
1.86433	-102
1.86800	-102
1.87167	-102
1.87533	-103
1.87900	-103
1.88267	-103
1.88633	-104
1.89000	-103
1.89367	-103
1.89733	-103
1.90100	-103
1.90467	-103
1.90833	-102
1.91200	-102
1.91567	-102
1.91933	-102
1.92300	-102
1.92667	-102
1.93033	-102
1.93400	-101
1.93767	-101
1.94133	-101
1.94500	-100
1.94867	-100
1.95233	-100
1.95600	-100
1.95967	-100
1.96333	-99
1.96700	-99
1.97067	-98
1.97433	-98
1.97800	-98
1.98167	-97
1.98533	-97
1.98900	-97
1.99267	-97
1.99633	-97
2.00000	-97
2.00367	-97
2.00733	-97
2.01100	-96
2.01467	-96
2.01833	-95
2.02200	-94
2.02567	-94
2.02933	-94
2.03300	-94
2.03667	-94
2.04033	-94
2.04400	-94
2.04767	-94
2.05133	-94
2.05500	-94
2.05867	-93
2.06233	-93
2.06600	-92
2.06967	-91
2.07333	-91
2.07700	-91
2.08067	-90
2.08433	-90
2.08800	-90
2.09167	-90
2.09533	-90
2.09900	-90
2.10267	-90
2.10633	-89
2.11000	-89
2.11367	-89
2.11733	-89
2.12100	-89
2.12467	-89
2.12833	-88
2.13200	-88
2.13567	-87
2.13933	-87
2.14300	-86
2.14667	-86
2.15033	-86
2.15400	-86
2.15767	-86
2.16133	-86
2.16500	-85
2.16867	-85
2.17233	-85
2.17600	-84
2.17967	-84
2.18333	-83
2.18700	-83
2.19067	-83
2.19433	-84
2.19800	-84
2.20167	-84
2.20533	-84
2.20900	-83
2.21267	-83
2.21633	-82
2.22000	-82
2.22367	-81
2.22733	-81
2.23100	-81
2.23467	-80
2.23833	-80
2.24200	-80
2.24567	-79
2.24933	-79
2.25300	-78
2.25667	-78
2.26033	-77
2.26400	-77
2.26767	-76
2.27133	-76
2.27500	-75
2.27867	-75
2.28233	-75
2.28600	-74
2.28967	-74
2.29333	-74
2.29700	-74
2.30067	-74
2.30433	-74
2.30800	-73
2.31167	-73
2.31533	-73
2.31900	-73
2.32267	-72
2.32633	-72
2.33000	-72
2.33367	-71
2.33733	-70
2.34100	-70
2.34467	-69
2.34833	-68
2.35200	-67
2.35567	-67
2.35933	-66
2.36300	-66
2.36667	-65
2.37033	-64
2.37400	-63
2.37767	-60
2.38133	-57
2.38500	-54
2.38867	-51
2.39233	-47
2.39600	-42
2.39967	-38
2.40333	-33
2.40700	-29
2.41067	-24
2.41433	-20
2.41800	-17
2.42167	-15
2.42533	-12
2.42900	-9
2.43267	-7
2.43633	-4
2.44000	-2
2.44367	-1
2.44733	1
2.45100	2
2.45467	3
2.45833	5
2.46200	6
2.46567	7
2.46933	8
2.47300	9
2.47667	10
2.48033	10
2.48400	11
2.48767	12
2.49133	13
2.49500	14
2.49867	14
2.50233	15
2.50600	15
2.50967	15
2.51333	15
2.51700	15
2.52067	14
2.52433	14
2.52800	14
2.53167	13
2.53533	13
2.53900	13
2.54267	12
2.54633	11
2.55000	10
2.55367	9
2.55733	8
2.56100	8
2.56467	8
2.56833	9
2.57200	10
2.57567	11
2.57933	12
2.58300	13
2.58667	13
2.59033	14
2.59400	14
2.59767	14
2.60133	15
2.60500	15
2.60867	16
2.61233	16
2.61600	17
2.61967	17
2.62333	17
2.62700	18
2.63067	18
2.63433	18
2.63800	18
2.64167	19
2.64533	19
2.64900	19
2.65267	19
2.65633	20
2.66000	20
2.66367	21
2.66733	21
2.67100	21
2.67467	21
2.67833	21
2.68200	21
2.68567	21
2.68933	22
2.69300	22
2.69667	23
2.70033	23
2.70400	23
2.70767	24
2.71133	24
2.71500	24
2.71867	24
2.72233	24
2.72600	24
2.72967	24
2.73333	24
2.73700	24
2.74067	24
2.74433	24
2.74800	24
2.75167	24
2.75533	25
2.75900	25
2.76267	25
2.76633	26
2.77000	26
2.77367	26
2.77733	27
2.78100	27
2.78467	28
2.78833	28
2.79200	28
2.79567	28
2.79933	28
2.80300	29
2.80667	28
2.81033	28
2.81400	28
2.81767	28
2.82133	28
2.82500	27
2.82867	27
2.83233	27
2.83600	27
2.83967	27
2.84333	27
2.84700	27
2.85067	27
2.85433	27
2.85800	26
2.86167	23
2.86533	19
2.86900	12
2.87267	2
2.87633	-12
2.88000	-30
2.88367	-54
2.88733	-83
2.89100	-117
2.89467	-157
2.89833	-201
2.90200	-250
2.90567	-303
2.90933	-359
2.91300	-417
2.91667	-478
2.92033	-540
2.92400	-602
2.92767	-664
2.93133	-725
2.93500	-784
2.93867	-838
2.94233	-890
2.94600	-943
2.94967	-997
2.95333	-1048
2.95700	-1085
2.96067	-1101
2.96433	-1092
2.96800	-1060
2.97167	-1007
2.97533	-940
2.97900	-865
2.98267	-785
2.98633	-704
2.99000	-626
2.99367	-553
2.99733	-484
3.00100	-422
3.00467	-366
3.00833	-316
3.01200	-271
3.01567	-232
3.01933	-198
3.02300	-168
3.02667	-143
3.03033	-120
3.03400	-101
3.03767	-85
3.04133	-71
3.04500	-59
3.04867	-48
3.05233	-39
3.05600	-32
3.05967	-25
3.06333	-20
3.06700	-15
3.07067	-11
3.07433	-7
3.07800	-4
3.08167	-1
3.08533	1
3.08900	4
3.09267	5
3.09633	7
3.10000	8
3.10367	9
3.10733	10
3.11100	11
3.11467	12
3.11833	13
3.12200	14
3.12567	14
3.12933	15
3.13300	16
3.13667	17
3.14033	17
3.14400	18
3.14767	18
3.15133	19
3.15500	19
3.15867	20
3.16233	20
3.16600	21
3.16967	21
3.17333	21
3.17700	21
3.18067	21
3.18433	21
3.18800	21
3.19167	22
3.19533	22
3.19900	22
3.20267	22
3.20633	22
3.21000	22
3.21367	22
3.21733	22
3.22100	22
3.22467	22
3.22833	22
3.23200	22
3.23567	22
3.23933	22
3.24300	22
3.24667	22
3.25033	22
3.25400	22
3.25767	22
3.26133	23
3.26500	23
3.26867	24
3.27233	24
3.27600	24
3.27967	25
3.28333	25
3.28700	24
3.29067	24
3.29433	24
3.29800	24
3.30167	24
3.30533	24
3.30900	24
3.31267	24
3.31633	25
3.32000	25
3.32367	25
3.32733	25
3.33100	25
3.33467	25
3.33833	25
3.34200	25
3.34567	25
3.34933	26
3.35300	26
3.35667	26
3.36033	27
3.36400	27
3.36767	28
3.37133	28
3.37500	28
3.37867	28
3.38233	28
3.38600	28
3.38967	28
3.39333	28
3.39700	28
3.40067	28
3.40433	28
3.40800	28
3.41167	28
3.41533	28
3.41900	28
3.42267	29
3.42633	29
3.43000	29
3.43367	29
3.43733	29
3.44100	29
3.44467	29
3.44833	29
3.45200	30
3.45567	29
3.45933	29
3.46300	29
3.46667	29
3.47033	29
3.47400	29
3.47767	29
3.48133	29
3.48500	29
3.48867	29
3.49233	29
3.49600	29
3.49967	29
3.50333	29
3.50700	29
3.51067	28
3.51433	28
3.51800	28
3.52167	28
3.52533	28
3.52900	28
3.53267	28
3.53633	28
3.54000	28
3.54367	28
3.54733	28
3.55100	28
3.55467	28
3.55833	28
3.56200	28
3.56567	28
3.56933	28
3.57300	28
3.57667	28
3.58033	28
3.58400	29
3.58767	29
3.59133	29
3.59500	29
3.59867	30
3.60233	30
3.60600	29
3.60967	29
3.61333	29
3.61700	29
3.62067	28
3.62433	28
3.62800	28
3.63167	28
3.63533	28
3.63900	28
3.64267	28
3.64633	28
3.65000	28
3.65367	28
3.65733	28
3.66100	28
3.66467	28
3.66833	28
3.67200	28
3.67567	28
3.67933	28
3.68300	28
3.68667	28
3.69033	28
3.69400	27
3.69767	27
3.70133	27
3.70500	27
3.70867	27
3.71233	27
3.71600	27
3.71967	27
3.72333	27
3.72700	27
3.73067	27
3.73433	26
3.73800	26
3.74167	26
3.74533	26
3.74900	26
3.75267	26
3.75633	26
3.76000	26
3.76367	27
3.76733	27
3.77100	27
3.77467	27
3.77833	27
3.78200	27
3.78567	28
3.78933	27
3.79300	27
3.79667	27
3.80033	27
3.80400	27
3.80767	27
3.81133	26
3.81500	26
3.81867	26
3.82233	26
3.82600	26
3.82967	26
3.83333	26
3.83700	26
3.84067	27
3.84433	27
3.84800	27
3.85167	27
3.85533	27
3.85900	27
3.86267	27
3.86633	27
3.87000	27
3.87367	27
3.87733	27
3.88100	27
3.88467	27
3.88833	28
3.89200	28
3.89567	28
3.89933	28
3.90300	28
3.90667	28
3.91033	28
3.91400	28
3.91767	28
3.92133	28
3.92500	28
3.92867	28
3.93233	28
3.93600	28
3.93967	28
3.94333	28
3.94700	28
3.95067	28
3.95433	28
3.95800	28
3.96167	28
3.96533	28
3.96900	28
3.97267	28
3.97633	28
3.98000	28
3.98367	28
3.98733	28
3.99100	28
3.99467	28
3.99833	27

[Chromatogram (Ch3)]
Interval(msec)	220
# of Points	1091
Start Time(min)	0.002
End Time(min)	3.998
R.Time (min)	Intensity
0.00167	0
0.00533	1
0.00900	-1
0.01267	-1
0.01633	0
0.02000	-3
0.02367	-5
0.02733	-4
0.03100	-4
0.03467	-5
0.03833	-3
0.04200	-2
0.04567	-4
0.04933	-5
0.05300	-7
0.05667	-6
0.06033	-5
0.06400	-5
0.06767	-6
0.07133	-5
0.07500	-5
0.07867	-4
0.08233	-3
0.08600	-1
0.08967	0
0.09333	1
0.09700	2
0.10067	0
0.10433	-0
0.10800	-0
0.11167	1
0.11533	1
0.11900	-1
0.12267	-4
0.12633	-5
0.13000	-4
0.13367	-3
0.13733	-3
0.14100	-0
0.14467	-1
0.14833	-0
0.15200	1
0.15567	-0
0.15933	-3
0.16300	-5
0.16667	-6
0.17033	-7
0.17400	-7
0.17767	-7
0.18133	-4
0.18500	-1
0.18867	1
0.19233	0
0.19600	1
0.19967	2
0.20333	4
0.20700	4
0.21067	3
0.21433	2
0.21800	1
0.22167	-0
0.22533	-1
0.22900	-3
0.23267	-3
0.23633	-1
0.24000	0
0.24367	-1
0.24733	-0
0.25100	2
0.25467	2
0.25833	4
0.26200	5
0.26567	5
0.26933	3
0.27300	3
0.27667	3
0.28033	2
0.28400	2
0.28767	-0
0.29133	-3
0.29500	-4
0.29867	-5
0.30233	-6
0.30600	-6
0.30967	-4
0.31333	-2
0.31700	-0
0.32067	-1
0.32433	-2
0.32800	-2
0.33167	-2
0.33533	-1
0.33900	-1
0.34267	-0
0.34633	-1
0.35000	-1
0.35367	-1
0.35733	0
0.36100	0
0.36467	-1
0.36833	-1
0.37200	-2
0.37567	-2
0.37933	-1
0.38300	1
0.38667	0
0.39033	0
0.39400	2
0.39767	3
0.40133	1
0.40500	0
0.40867	-0
0.41233	0
0.41600	2
0.41967	4
0.42333	5
0.42700	6
0.43067	8
0.43433	8
0.43800	7
0.44167	8
0.44533	11
0.44900	11
0.45267	9
0.45633	7
0.46000	8
0.46367	8
0.46733	6
0.47100	6
0.47467	4
0.47833	5
0.48200	6
0.48567	8
0.48933	10
0.49300	9
0.49667	6
0.50033	6
0.50400	7
0.50767	7
0.51133	6
0.51500	6
0.51867	7
0.52233	9
0.52600	9
0.52967	9
0.53333	10
0.53700	11
0.54067	13
0.54433	14
0.54800	13
0.55167	11
0.55533	10
0.55900	8
0.56267	5
0.56633	4
0.57000	2
0.57367	1
0.57733	3
0.58100	3
0.58467	3
0.58833	4
0.59200	4
0.59567	5
0.59933	8
0.60300	9
0.60667	10
0.61033	11
0.61400	11
0.61767	8
0.62133	7
0.62500	8
0.62867	9
0.63233	9
0.63600	8
0.63967	6
0.64333	6
0.64700	8
0.65067	10
0.65433	10
0.65800	10
0.66167	12
0.66533	12
0.66900	9
0.67267	5
0.67633	3
0.68000	5
0.68367	7
0.68733	9
0.69100	8
0.69467	6
0.69833	7
0.70200	9
0.70567	11
0.70933	11
0.71300	10
0.71667	9
0.72033	9
0.72400	7
0.72767	8
0.73133	9
0.73500	10
0.73867	11
0.74233	12
0.74600	12
0.74967	11
0.75333	10
0.75700	10
0.76067	9
0.76433	8
0.76800	8
0.77167	8
0.77533	9
0.77900	7
0.78267	6
0.78633	6
0.79000	7
0.79367	8
0.79733	11
0.80100	12
0.80467	11
0.80833	12
0.81200	12
0.81567	11
0.81933	9
0.82300	8
0.82667	9
0.83033	12
0.83400	15
0.83767	18
0.84133	18
0.84500	18
0.84867	17
0.85233	16
0.85600	15
0.85967	16
0.86333	17
0.86700	16
0.87067	15
0.87433	13
0.87800	13
0.88167	14
0.88533	12
0.88900	11
0.89267	12
0.89633	15
0.90000	15
0.90367	14
0.90733	14
0.91100	14
0.91467	14
0.91833	14
0.92200	14
0.92567	14
0.92933	14
0.93300	15
0.93667	15
0.94033	16
0.94400	14
0.94767	13
0.95133	15
0.95500	15
0.95867	16
0.96233	17
0.96600	17
0.96967	18
0.97333	18
0.97700	18
0.98067	18
0.98433	18
0.98800	15
0.99167	14
0.99533	14
0.99900	14
1.00267	14
1.00633	17
1.01000	19
1.01367	18
1.01733	17
1.02100	17
1.02467	17
1.02833	16
1.03200	17
1.03567	18
1.03933	19
1.04300	21
1.04667	23
1.05033	21
1.05400	17
1.05767	14
1.06133	13
1.06500	13
1.06867	13
1.07233	14
1.07600	15
1.07967	16
1.08333	16
1.08700	17
1.09067	16
1.09433	17
1.09800	19
1.10167	18
1.10533	19
1.10900	18
1.11267	18
1.11633	19
1.12000	18
1.12367	16
1.12733	15
1.13100	15
1.13467	18
1.13833	18
1.14200	17
1.14567	16
1.14933	16
1.15300	17
1.15667	17
1.16033	17
1.16400	16
1.16767	17
1.17133	16
1.17500	15
1.17867	18
1.18233	21
1.18600	23
1.18967	23
1.19333	22
1.19700	21
1.20067	20
1.20433	20
1.20800	22
1.21167	24
1.21533	26
1.21900	24
1.22267	21
1.22633	19
1.23000	18
1.23367	19
1.23733	19
1.24100	18
1.24467	20
1.24833	20
1.25200	20
1.25567	19
1.25933	18
1.26300	20
1.26667	20
1.27033	19
1.27400	17
1.27767	17
1.28133	18
1.28500	17
1.28867	18
1.29233	17
1.29600	17
1.29967	17
1.30333	18
1.30700	19
1.31067	18
1.31433	19
1.31800	18
1.32167	18
1.32533	19
1.32900	20
1.33267	20
1.33633	21
1.34000	20
1.34367	20
1.34733	19
1.35100	18
1.35467	20
1.35833	20
1.36200	18
1.36567	17
1.36933	17
1.37300	19
1.37667	21
1.38033	19
1.38400	16
1.38767	15
1.39133	13
1.39500	12
1.39867	14
1.40233	17
1.40600	18
1.40967	20
1.41333	21
1.41700	20
1.42067	17
1.42433	15
1.42800	15
1.43167	17
1.43533	21
1.43900	22
1.44267	22
1.44633	21
1.45000	19
1.45367	19
1.45733	21
1.46100	21
1.46467	21
1.46833	21
1.47200	21
1.47567	23
1.47933	23
1.48300	25
1.48667	25
1.49033	23
1.49400	21
1.49767	20
1.50133	21
1.50500	22
1.50867	21
1.51233	19
1.51600	17
1.51967	17
1.52333	18
1.52700	19
1.53067	21
1.53433	22
1.53800	22
1.54167	22
1.54533	22
1.54900	21
1.55267	20
1.55633	21
1.56000	21
1.56367	22
1.56733	23
1.57100	23
1.57467	22
1.57833	20
1.58200	20
1.58567	19
1.58933	19
1.59300	19
1.59667	20
1.60033	20
1.60400	20
1.60767	19
1.61133	19
1.61500	21
1.61867	25
1.62233	27
1.62600	28
1.62967	29
1.63333	27
1.63700	26
1.64067	25
1.64433	25
1.64800	25
1.65167	26
1.65533	26
1.65900	26
1.66267	24
1.66633	24
1.67000	24
1.67367	24
1.67733	25
1.68100	25
1.68467	26
1.68833	25
1.69200	25
1.69567	26
1.69933	27
1.70300	29
1.70667	31
1.71033	32
1.71400	33
1.71767	32
1.72133	30
1.72500	29
1.72867	29
1.73233	29
1.73600	30
1.73967	30
1.74333	31
1.74700	33
1.75067	35
1.75433	36
1.75800	36
1.76167	34
1.76533	33
1.76900	33
1.77267	31
1.77633	30
1.78000	30
1.78367	32
1.78733	34
1.79100	33
1.79467	32
1.79833	32
1.80200	34
1.80567	34
1.80933	35
1.81300	36
1.81667	37
1.82033	39
1.82400	41
1.82767	42
1.83133	43
1.83500	45
1.83867	44
1.84233	43
1.84600	43
1.84967	43
1.85333	43
1.85700	43
1.86067	43
1.86433	44
1.86800	45
1.87167	45
1.87533	44
1.87900	45
1.88267	48
1.88633	51
1.89000	51
1.89367	51
1.89733	52
1.90100	53
1.90467	54
1.90833	56
1.91200	56
1.91567	54
1.91933	52
1.92300	52
1.92667	56
1.93033	59
1.93400	59
1.93767	61
1.94133	60
1.94500	60
1.94867	62
1.95233	62
1.95600	63
1.95967	64
1.96333	65
1.96700	65
1.97067	63
1.97433	64
1.97800	67
1.98167	67
1.98533	66
1.98900	65
1.99267	66
1.99633	67
2.00000	70
2.00367	73
2.00733	73
2.01100	74
2.01467	74
2.01833	73
2.02200	73
2.02567	74
2.02933	75
2.03300	76
2.03667	79
2.04033	82
2.04400	83
2.04767	84
2.05133	84
2.05500	84
2.05867	84
2.06233	84
2.06600	85
2.06967	85
2.07333	84
2.07700	83
2.08067	82
2.08433	83
2.08800	86
2.09167	90
2.09533	92
2.09900	93
2.10267	95
2.10633	96
2.11000	95
2.11367	96
2.11733	96
2.12100	97
2.12467	97
2.12833	98
2.13200	97
2.13567	98
2.13933	100
2.14300	103
2.14667	105
2.15033	107
2.15400	108
2.15767	109
2.16133	108
2.16500	106
2.16867	106
2.17233	107
2.17600	107
2.17967	109
2.18333	110
2.18700	110
2.19067	109
2.19433	108
2.19800	108
2.20167	110
2.20533	113
2.20900	115
2.21267	115
2.21633	114
2.22000	115
2.22367	115
2.22733	114
2.23100	111
2.23467	110
2.23833	111
2.24200	113
2.24567	113
2.24933	116
2.25300	120
2.25667	121
2.26033	122
2.26400	121
2.26767	120
2.27133	119
2.27500	117
2.27867	116
2.28233	118
2.28600	119
2.28967	121
2.29333	120
2.29700	120
2.30067	122
2.30433	123
2.30800	123
2.31167	124
2.31533	125
2.31900	126
2.32267	127
2.32633	128
2.33000	128
2.33367	128
2.33733	128
2.34100	128
2.34467	129
2.34833	128
2.35200	128
2.35567	129
2.35933	129
2.36300	130
2.36667	131
2.37033	131
2.37400	128
2.37767	126
2.38133	127
2.38500	128
2.38867	127
2.39233	129
2.39600	131
2.39967	132
2.40333	134
2.40700	137
2.41067	141
2.41433	146
2.41800	150
2.42167	151
2.42533	151
2.42900	151
2.43267	150
2.43633	151
2.44000	159
2.44367	227
2.44733	367
2.45100	524
2.45467	648
2.45833	739
2.46200	810
2.46567	858
2.46933	882
2.47300	890
2.47667	894
2.48033	902
2.48400	917
2.48767	932
2.49133	949
2.49500	965
2.49867	976
2.50233	977
2.50600	964
2.50967	944
2.51333	923
2.51700	903
2.52067	886
2.52433	876
2.52800	870
2.53167	867
2.53533	865
2.53900	866
2.54267	868
2.54633	872
2.55000	877
2.55367	888
2.55733	899
2.56100	909
2.56467	919
2.56833	927
2.57200	932
2.57567	930
2.57933	919
2.58300	905
2.58667	888
2.59033	871
2.59400	854
2.59767	835
2.60133	816
2.60500	801
2.60867	790
2.61233	780
2.61600	771
2.61967	761
2.62333	751
2.62700	742
2.63067	735
2.63433	729
2.63800	723
2.64167	716
2.64533	709
2.64900	703
2.65267	701
2.65633	700
2.66000	702
2.66367	703
2.66733	703
2.67100	704
2.67467	704
2.67833	709
2.68200	715
2.68567	723
2.68933	728
2.69300	734
2.69667	740
2.70033	746
2.70400	751
2.70767	757
2.71133	763
2.71500	768
2.71867	772
2.72233	772
2.72600	774
2.72967	774
2.73333	772
2.73700	768
2.74067	763
2.74433	757
2.74800	753
2.75167	748
2.75533	743
2.75900	736
2.76267	727
2.76633	718
2.77000	711
2.77367	704
2.77733	698
2.78100	694
2.78467	690
2.78833	688
2.79200	685
2.79567	681
2.79933	679
2.80300	677
2.80667	672
2.81033	668
2.81400	666
2.81767	665
2.82133	664
2.82500	664
2.82867	667
2.83233	674
2.83600	691
2.83967	731
2.84333	811
2.84700	955
2.85067	1183
2.85433	1510
2.85800	1939
2.86167	2458
2.86533	3038
2.86900	3635
2.87267	4200
2.87633	4684
2.88000	5046
2.88367	5268
2.88733	5345
2.89100	5285
2.89467	5111
2.89833	4857
2.90200	4551
2.90567	4215
2.90933	3870
2.91300	3529
2.91667	3204
2.92033	2905
2.92400	2631
2.92767	2381
2.93133	2157
2.93500	1960
2.93867	1789
2.94233	1638
2.94600	1505
2.94967	1387
2.95333	1285
2.95700	1195
2.96067	1119
2.96433	1056
2.96800	1002
2.97167	954
2.97533	913
2.97900	879
2.98267	851
2.98633	828
2.99000	809
2.99367	793
2.99733	777
3.00100	764
3.00467	752
3.00833	741
3.01200	732
3.01567	726
3.01933	721
3.02300	717
3.02667	715
3.03033	713
3.03400	712
3.03767	711
3.04133	713
3.04500	714
3.04867	715
3.05233	713
3.05600	709
3.05967	707
3.06333	707
3.06700	706
3.07067	706
3.07433	708
3.07800	708
3.08167	708
3.08533	709
3.08900	710
3.09267	709
3.09633	708
3.10000	707
3.10367	706
3.10733	704
3.11100	703
3.11467	702
3.11833	702
3.12200	703
3.12567	703
3.12933	700
3.13300	698
3.13667	698
3.14033	696
3.14400	692
3.14767	688
3.15133	688
3.15500	690
3.15867	691
3.16233	692
3.16600	692
3.16967	693
3.17333	693
3.17700	692
3.18067	689
3.18433	686
3.18800	684
3.19167	684
3.19533	684
3.19900	683
3.20267	682
3.20633	683
3.21000	681
3.21367	678
3.21733	674
3.22100	672
3.22467	672
3.22833	669
3.23200	668
3.23567	668
3.23933	667
3.24300	666
3.24667	665
3.25033	664
3.25400	663
3.25767	659
3.26133	657
3.26500	655
3.26867	653
3.27233	652
3.27600	651
3.27967	650
3.28333	648
3.28700	645
3.29067	640
3.29433	634
3.29800	632
3.30167	630
3.30533	627
3.30900	623
3.31267	620
3.31633	618
3.32000	616
3.32367	613
3.32733	611
3.33100	609
3.33467	606
3.33833	603
3.34200	599
3.34567	596
3.34933	593
3.35300	588
3.35667	584
3.36033	582
3.36400	580
3.36767	577
3.37133	572
3.37500	568
3.37867	565
3.38233	562
3.38600	560
3.38967	555
3.39333	550
3.39700	545
3.40067	540
3.40433	535
3.40800	531
3.41167	527
3.41533	525
3.41900	523
3.42267	519
3.42633	516
3.43000	512
3.43367	508
3.43733	505
3.44100	504
3.44467	501
3.44833	498
3.45200	493
3.45567	486
3.45933	481
3.46300	478
3.46667	473
3.47033	468
3.47400	464
3.47767	463
3.48133	462
3.48500	460
3.48867	459
3.49233	457
3.49600	453
3.49967	450
3.50333	446
3.50700	443
3.51067	439
3.51433	435
3.51800	429
3.52167	422
3.52533	419
3.52900	416
3.53267	411
3.53633	408
3.54000	405
3.54367	402
3.54733	400
3.55100	397
3.55467	393
3.55833	390
3.56200	388
3.56567	388
3.56933	386
3.57300	383
3.57667	380
3.58033	377
3.58400	376
3.58767	375
3.59133	372
3.59500	366
3.59867	361
3.60233	356
3.60600	352
3.60967	350
3.61333	349
3.61700	346
3.62067	343
3.62433	342
3.62800	343
3.63167	342
3.63533	339
3.63900	336
3.64267	334
3.64633	332
3.65000	330
3.65367	327
3.65733	323
3.66100	319
3.66467	317
3.66833	315
3.67200	313
3.67567	313
3.67933	312
3.68300	310
3.68667	308
3.69033	304
3.69400	301
3.69767	298
3.70133	296
3.70500	296
3.70867	296
3.71233	295
3.71600	294
3.71967	292
3.72333	289
3.72700	289
3.73067	289
3.73433	290
3.73800	288
3.74167	286
3.74533	285
3.74900	286
3.75267	284
3.75633	281
3.76000	279
3.76367	278
3.76733	278
3.77100	277
3.77467	275
3.77833	273
3.78200	272
3.78567	270
3.78933	266
3.79300	266
3.79667	267
3.80033	266
3.80400	266
3.80767	266
3.81133	266
3.81500	267
3.81867	266
3.82233	266
3.82600	265
3.82967	264
3.83333	264
3.83700	265
3.84067	268
3.84433	270
3.84800	272
3.85167	272
3.85533	273
3.85900	273
3.86267	273
3.86633	274
3.87000	273
3.87367	272
3.87733	271
3.88100	270
3.88467	270
3.88833	271
3.89200	273
3.89567	275
3.89933	277
3.90300	277
3.90667	278
3.91033	280
3.91400	281
3.91767	285
3.92133	288
3.92500	291
3.92867	291
3.93233	290
3.93600	289
3.93967	289
3.94333	290
3.94700	292
3.95067	294
3.95433	295
3.95800	295
3.96167	294
3.96533	294
3.96900	294
3.97267	295
3.97633	300
3.98000	302
3.98367	303
3.98733	301
3.99100	298
3.99467	296
3.99833	295

[Status Trace (Column Oven Temperature)]
Interval(msec)	1000
# of Points	240
Start Time(min)	0.013
End Time(min)	3.997
Intensity Units	
Intensity Multiplier	1
R.Time (min)	Intensity
0.01348	35.07
0.03015	35.08
0.04682	35.08
0.06348	35.07
0.08015	35.06
0.09682	35.05
0.11348	35.06
0.13015	35.05
0.14682	35.05
0.16348	35.05
0.18015	35.05
0.19682	35.05
0.21348	35.05
0.23015	35.06
0.24682	35.05
0.26348	35.06
0.28015	35.05
0.29682	35.05
0.31348	35.04
0.33015	35.04
0.34682	35.03
0.36348	35.01
0.38015	35.01
0.39682	35.01
0.41348	35.02
0.43015	35.03
0.44682	35.02
0.46348	35.03
0.48015	35.02
0.49682	35.02
0.51348	35.01
0.53015	35.01
0.54682	35.01
0.56348	35.02
0.58015	35.02
0.59682	35.03
0.61348	35.02
0.63015	35.03
0.64682	35.04
0.66348	35.04
0.68015	35.03
0.69682	35.02
0.71348	35.01
0.73015	35.00
0.74682	35.00
0.76348	34.99
0.78015	34.99
0.79682	34.99
0.81348	34.99
0.83015	35.00
0.84682	34.99
0.86348	35.01
0.88015	35.00
0.89682	35.00
0.91348	35.00
0.93015	35.00
0.94682	35.01
0.96348	35.01
0.98015	35.01
0.99682	35.01
1.01348	35.02
1.03015	35.02
1.04682	35.02
1.06348	35.01
1.08015	35.01
1.09682	35.01
1.11348	35.00
1.13015	35.00
1.14682	35.00
1.16348	35.01
1.18015	35.02
1.19682	35.01
1.21348	35.01
1.23015	35.01
1.24682	35.01
1.26348	35.00
1.28015	35.00
1.29682	34.98
1.31348	34.98
1.33015	34.97
1.34682	34.98
1.36348	34.98
1.38015	35.00
1.39682	35.01
1.41348	35.02
1.43015	35.03
1.44682	35.03
1.46348	35.02
1.48015	35.02
1.49682	35.01
1.51348	35.00
1.53015	34.99
1.54682	34.99
1.56348	35.00
1.58015	35.00
1.59682	35.02
1.61348	35.10
1.63015	35.24
1.64682	35.46
1.66348	35.72
1.68015	36.06
1.69682	36.42
1.71348	36.77
1.73015	37.12
1.74682	37.44
1.76348	37.76
1.78015	38.09
1.79682	38.42
1.81348	38.75
1.83015	39.09
1.84682	39.43
1.86348	39.74
1.88015	40.07
1.89682	40.40
1.91348	40.73
1.93015	41.05
1.94682	41.40
1.96348	41.72
1.98015	42.03
1.99682	42.39
2.01348	42.68
2.03015	43.01
2.04682	43.34
2.06348	43.68
2.08015	43.99
2.09682	44.32
2.11348	44.66
2.13015	44.97
2.14682	45.30
2.16348	45.63
2.18015	45.95
2.19682	46.28
2.21348	46.60
2.23015	46.91
2.24682	47.27
2.26348	47.59
2.28015	47.92
2.29682	48.24
2.31348	48.59
2.33015	48.91
2.34682	49.21
2.36348	49.50
2.38015	49.69
2.39682	49.72
2.41348	49.73
2.43015	49.73
2.44682	49.74
2.46348	49.74
2.48015	49.75
2.49682	49.75
2.51348	49.75
2.53015	49.75
2.54682	49.77
2.56348	49.79
2.58015	49.81
2.59682	49.81
2.61348	49.81
2.63015	49.82
2.64682	49.82
2.66348	49.83
2.68015	49.83
2.69682	49.84
2.71348	49.85
2.73015	49.86
2.74682	49.87
2.76348	49.87
2.78015	49.86
2.79682	49.85
2.81348	49.86
2.83015	49.87
2.84682	49.88
2.86348	49.88
2.88015	49.89
2.89682	49.89
2.91348	49.89
2.93015	49.90
2.94682	49.91
2.96348	49.92
2.98015	49.93
2.99682	49.94
3.01348	49.97
3.03015	49.99
3.04682	50.01
3.06348	50.02
3.08015	50.03
3.09682	50.04
3.11348	50.05
3.13015	50.05
3.14682	50.05
3.16348	50.05
3.18015	50.06
3.19682	50.06
3.21348	50.07
3.23015	50.08
3.24682	50.10
3.26348	50.09
3.28015	50.09
3.29682	50.10
3.31348	50.10
3.33015	50.11
3.34682	50.12
3.36348	50.10
3.38015	50.09
3.39682	50.08
3.41348	50.07
3.43015	50.05
3.44682	50.04
3.46348	50.03
3.48015	50.02
3.49682	50.03
3.51348	50.04
3.53015	50.04
3.54682	50.03
3.56348	50.03
3.58015	50.02
3.59682	50.02
3.61348	50.02
3.63015	50.03
3.64682	50.03
3.66348	50.03
3.68015	50.03
3.69682	50.02
3.71348	50.03
3.73015	50.04
3.74682	50.05
3.76348	50.05
3.78015	50.05
3.79682	50.06
3.81348	50.06
3.83015	50.07
3.84682	50.07
3.86348	50.07
3.88015	50.08
3.89682	50.07
3.91348	50.07
3.93015	50.06
3.94682	50.07
3.96348	50.07
3.98015	50.07
3.99682	50.08

[Status Trace (Injection Unit Temperature)]
Interval(msec)	1000
# of Points	240
Start Time(min)	0.013
End Time(min)	3.997
Intensity Units	
Intensity Multiplier	1
R.Time (min)	Intensity
0.01348	99.98
0.03015	99.98
0.04682	99.98
0.06348	99.98
0.08015	99.98
0.09682	99.98
0.11348	99.98
0.13015	99.98
0.14682	99.98
0.16348	99.98
0.18015	99.99
0.19682	99.98
0.21348	99.99
0.23015	99.98
0.24682	99.98
0.26348	99.98
0.28015	99.99
0.29682	99.99
0.31348	99.99
0.33015	99.99
0.34682	99.99
0.36348	99.99
0.38015	99.99
0.39682	99.99
0.41348	99.99
0.43015	99.99
0.44682	99.99
0.46348	99.98
0.48015	99.99
0.49682	99.99
0.51348	99.98
0.53015	99.98
0.54682	99.99
0.56348	99.98
0.58015	99.98
0.59682	99.99
0.61348	99.99
0.63015	99.99
0.64682	99.98
0.66348	99.98
0.68015	99.98
0.69682	99.99
0.71348	99.98
0.73015	99.98
0.74682	99.98
0.76348	99.98
0.78015	99.98
0.79682	99.98
0.81348	99.99
0.83015	99.98
0.84682	99.98
0.86348	99.99
0.88015	99.98
0.89682	99.98
0.91348	99.98
0.93015	99.98
0.94682	99.99
0.96348	99.98
0.98015	99.98
0.99682	99.98
1.01348	99.98
1.03015	99.98
1.04682	99.98
1.06348	99.98
1.08015	99.98
1.09682	99.98
1.11348	99.99
1.13015	99.99
1.14682	99.98
1.16348	99.99
1.18015	99.99
1.19682	99.99
1.21348	99.99
1.23015	99.99
1.24682	99.99
1.26348	99.99
1.28015	99.98
1.29682	99.99
1.31348	99.98
1.33015	99.98
1.34682	99.99
1.36348	99.99
1.38015	99.99
1.39682	99.99
1.41348	99.99
1.43015	99.99
1.44682	99.99
1.46348	99.99
1.48015	99.99
1.49682	99.99
1.51348	99.99
1.53015	100.00
1.54682	99.99
1.56348	100.00
1.58015	100.00
1.59682	99.99
1.61348	99.99
1.63015	99.99
1.64682	99.99
1.66348	99.99
1.68015	99.99
1.69682	99.99
1.71348	100.00
1.73015	99.99
1.74682	99.99
1.76348	99.99
1.78015	99.99
1.79682	99.99
1.81348	99.99
1.83015	99.99
1.84682	100.00
1.86348	99.99
1.88015	99.99
1.89682	99.99
1.91348	99.99
1.93015	99.99
1.94682	99.99
1.96348	99.99
1.98015	99.99
1.99682	99.99
2.01348	99.99
2.03015	99.98
2.04682	99.99
2.06348	99.98
2.08015	99.98
2.09682	99.98
2.11348	99.98
2.13015	99.98
2.14682	99.98
2.16348	99.98
2.18015	99.98
2.19682	99.98
2.21348	99.98
2.23015	99.98
2.24682	99.98
2.26348	99.97
2.28015	99.98
2.29682	99.97
2.31348	99.97
2.33015	99.97
2.34682	99.97
2.36348	99.97
2.38015	99.97
2.39682	99.97
2.41348	99.97
2.43015	99.97
2.44682	99.97
2.46348	99.96
2.48015	99.96
2.49682	99.97
2.51348	99.97
2.53015	99.97
2.54682	99.97
2.56348	99.96
2.58015	99.97
2.59682	99.97
2.61348	99.97
2.63015	99.97
2.64682	99.97
2.66348	99.97
2.68015	99.98
2.69682	99.98
2.71348	99.98
2.73015	99.98
2.74682	99.98
2.76348	99.98
2.78015	99.98
2.79682	99.99
2.81348	99.98
2.83015	99.99
2.84682	99.99
2.86348	99.99
2.88015	99.99
2.89682	100.00
2.91348	100.00
2.93015	100.01
2.94682	100.01
2.96348	100.01
2.98015	100.01
2.99682	100.01
3.01348	100.01
3.03015	100.02
3.04682	100.02
3.06348	100.02
3.08015	100.02
3.09682	100.02
3.11348	100.02
3.13015	100.02
3.14682	100.03
3.16348	100.03
3.18015	100.03
3.19682	100.03
3.21348	100.03
3.23015	100.03
3.24682	100.03
3.26348	100.04
3.28015	100.04
3.29682	100.04
3.31348	100.04
3.33015	100.04
3.34682	100.04
3.36348	100.04
3.38015	100.04
3.39682	100.04
3.41348	100.05
3.43015	100.05
3.44682	100.05
3.46348	100.05
3.48015	100.05
3.49682	100.05
3.51348	100.05
3.53015	100.05
3.54682	100.04
3.56348	100.05
3.58015	100.05
3.59682	100.05
3.61348	100.05
3.63015	100.05
3.64682	100.05
3.66348	100.06
3.68015	100.05
3.69682	100.05
3.71348	100.05
3.73015	100.05
3.74682	100.05
3.76348	100.05
3.78015	100.05
3.79682	100.05
3.81348	100.05
3.83015	100.05
3.84682	100.05
3.86348	100.05
3.88015	100.05
3.89682	100.05
3.91348	100.05
3.93015	100.05
3.94682	100.05
3.96348	100.05
3.98015	100.05
3.99682	100.05

[Status Trace (Carrier Gas Pressure)]
Interval(msec)	1000
# of Points	240
Start Time(min)	0.013
End Time(min)	3.997
Intensity Units	
Intensity Multiplier	1
R.Time (min)	Intensity
0.01348	57.67
0.03015	55.12
0.04682	57.83
0.06348	59.81
0.08015	58.83
0.09682	57.99
0.11348	57.99
0.13015	58.01
0.14682	58.01
0.16348	58.01
0.18015	58.00
0.19682	58.00
0.21348	58.00
0.23015	58.00
0.24682	58.00
0.26348	58.00
0.28015	58.00
0.29682	58.00
0.31348	58.00
0.33015	58.00
0.34682	58.00
0.36348	58.00
0.38015	58.00
0.39682	58.00
0.41348	58.00
0.43015	58.00
0.44682	58.00
0.46348	58.00
0.48015	58.00
0.49682	58.00
0.51348	58.00
0.53015	58.00
0.54682	58.00
0.56348	58.00
0.58015	58.00
0.59682	58.00
0.61348	58.00
0.63015	58.00
0.64682	58.00
0.66348	58.00
0.68015	58.00
0.69682	58.00
0.71348	58.00
0.73015	58.00
0.74682	58.00
0.76348	58.00
0.78015	58.00
0.79682	58.00
0.81348	58.00
0.83015	58.00
0.84682	58.00
0.86348	58.00
0.88015	58.00
0.89682	58.00
0.91348	58.00
0.93015	58.00
0.94682	58.00
0.96348	58.00
0.98015	58.00
0.99682	58.00
1.01348	58.00
1.03015	58.00
1.04682	58.00
1.06348	58.00
1.08015	58.00
1.09682	58.00
1.11348	58.00
1.13015	58.00
1.14682	58.00
1.16348	58.00
1.18015	58.00
1.19682	58.00
1.21348	58.00
1.23015	58.00
1.24682	58.00
1.26348	58.00
1.28015	58.00
1.29682	58.00
1.31348	58.00
1.33015	58.00
1.34682	58.00
1.36348	58.00
1.38015	58.00
1.39682	58.00
1.41348	58.00
1.43015	58.00
1.44682	58.00
1.46348	58.00
1.48015	58.00
1.49682	58.00
1.51348	58.00
1.53015	58.00
1.54682	58.00
1.56348	58.00
1.58015	58.00
1.59682	58.00
1.61348	58.00
1.63015	58.01
1.64682	58.00
1.66348	58.00
1.68015	58.01
1.69682	58.00
1.71348	58.00
1.73015	58.00
1.74682	58.00
1.76348	58.00
1.78015	58.00
1.79682	58.00
1.81348	58.00
1.83015	58.00
1.84682	58.00
1.86348	58.00
1.88015	58.00
1.89682	58.00
1.91348	58.00
1.93015	58.00
1.94682	58.00
1.96348	58.00
1.98015	58.00
1.99682	58.00
2.01348	58.00
2.03015	58.00
2.04682	58.00
2.06348	58.00
2.08015	58.00
2.09682	58.00
2.11348	58.00
2.13015	58.00
2.14682	58.00
2.16348	58.00
2.18015	58.00
2.19682	58.00
2.21348	58.00
2.23015	58.00
2.24682	58.00
2.26348	58.00
2.28015	58.00
2.29682	58.00
2.31348	58.00
2.33015	58.00
2.34682	58.00
2.36348	58.00
2.38015	58.00
2.39682	57.99
2.41348	57.99
2.43015	58.00
2.44682	58.00
2.46348	58.00
2.48015	58.00
2.49682	58.00
2.51348	57.99
2.53015	57.99
2.54682	58.00
2.56348	58.00
2.58015	58.00
2.59682	58.00
2.61348	58.00
2.63015	58.00
2.64682	58.00
2.66348	58.00
2.68015	58.00
2.69682	58.00
2.71348	58.00
2.73015	58.00
2.74682	58.00
2.76348	58.00
2.78015	58.00
2.79682	58.00
2.81348	58.00
2.83015	58.00
2.84682	58.00
2.86348	58.00
2.88015	58.00
2.89682	58.00
2.91348	58.00
2.93015	58.00
2.94682	58.00
2.96348	58.00
2.98015	58.00
2.99682	58.00
3.01348	58.00
3.03015	58.00
3.04682	58.00
3.06348	58.00
3.08015	58.00
3.09682	58.00
3.11348	58.00
3.13015	58.00
3.14682	58.00
3.16348	58.00
3.18015	58.00
3.19682	58.00
3.21348	58.00
3.23015	58.00
3.24682	58.00
3.26348	58.00
3.28015	58.00
3.29682	58.00
3.31348	58.00
3.33015	58.00
3.34682	58.00
3.36348	58.00
3.38015	58.00
3.39682	58.00
3.41348	58.00
3.43015	58.00
3.44682	58.00
3.46348	58.00
3.48015	58.00
3.49682	58.00
3.51348	58.00
3.53015	58.00
3.54682	58.00
3.56348	58.00
3.58015	58.00
3.59682	58.00
3.61348	58.00
3.63015	58.00
3.64682	58.00
3.66348	58.00
3.68015	58.00
3.69682	58.00
3.71348	58.00
3.73015	58.00
3.74682	58.00
3.76348	58.00
3.78015	58.00
3.79682	58.00
3.81348	58.00
3.83015	58.00
3.84682	58.00
3.86348	58.00
3.88015	58.00
3.89682	58.00
3.91348	58.00
3.93015	58.00
3.94682	58.00
3.96348	58.00
3.98015	58.00
3.99682	58.00

[Status Trace (Carrier Gas Flow)]
Interval(msec)	1000
# of Points	240
Start Time(min)	0.013
End Time(min)	3.997
Intensity Units	
Intensity Multiplier	1
R.Time (min)	Intensity
0.01348	34.36
0.03015	34.54
0.04682	34.55
0.06348	34.52
0.08015	34.51
0.09682	34.52
0.11348	34.51
0.13015	34.52
0.14682	34.52
0.16348	34.52
0.18015	34.52
0.19682	34.52
0.21348	34.52
0.23015	34.52
0.24682	34.52
0.26348	34.52
0.28015	34.52
0.29682	34.52
0.31348	34.52
0.33015	34.52
0.34682	34.52
0.36348	34.52
0.38015	34.52
0.39682	34.52
0.41348	34.52
0.43015	34.52
0.44682	34.52
0.46348	34.51
0.48015	34.52
0.49682	34.52
0.51348	34.52
0.53015	34.52
0.54682	34.52
0.56348	34.52
0.58015	34.52
0.59682	34.52
0.61348	34.52
0.63015	34.52
0.64682	34.51
0.66348	34.52
0.68015	34.52
0.69682	34.52
0.71348	34.52
0.73015	34.52
0.74682	34.52
0.76348	34.52
0.78015	34.52
0.79682	34.52
0.81348	34.52
0.83015	34.52
0.84682	34.52
0.86348	34.52
0.88015	34.52
0.89682	34.52
0.91348	34.52
0.93015	34.52
0.94682	34.51
0.96348	34.52
0.98015	34.52
0.99682	34.52
1.01348	34.52
1.03015	34.52
1.04682	34.51
1.06348	34.51
1.08015	34.51
1.09682	34.52
1.11348	34.52
1.13015	34.52
1.14682	34.52
1.16348	34.52
1.18015	34.52
1.19682	34.52
1.21348	34.52
1.23015	34.51
1.24682	34.52
1.26348	34.52
1.28015	34.51
1.29682	34.51
1.31348	34.52
1.33015	34.52
1.34682	34.52
1.36348	34.52
1.38015	34.52
1.39682	34.52
1.41348	34.52
1.43015	34.52
1.44682	34.52
1.46348	34.52
1.48015	34.52
1.49682	34.52
1.51348	34.52
1.53015	34.52
1.54682	34.52
1.56348	34.52
1.58015	34.52
1.59682	34.52
1.61348	34.52
1.63015	34.52
1.64682	34.51
1.66348	34.52
1.68015	34.52
1.69682	34.52
1.71348	34.52
1.73015	34.52
1.74682	34.52
1.76348	34.52
1.78015	34.52
1.79682	34.52
1.81348	34.52
1.83015	34.52
1.84682	34.52
1.86348	34.52
1.88015	34.52
1.89682	34.52
1.91348	34.52
1.93015	34.52
1.94682	34.52
1.96348	34.52
1.98015	34.53
1.99682	34.52
2.01348	34.52
2.03015	34.52
2.04682	34.52
2.06348	34.52
2.08015	34.52
2.09682	34.52
2.11348	34.52
2.13015	34.52
2.14682	34.52
2.16348	34.52
2.18015	34.52
2.19682	34.52
2.21348	34.52
2.23015	34.52
2.24682	34.52
2.26348	34.52
2.28015	34.52
2.29682	34.52
2.31348	34.52
2.33015	34.52
2.34682	34.52
2.36348	34.52
2.38015	34.52
2.39682	34.52
2.41348	34.52
2.43015	34.52
2.44682	34.52
2.46348	34.53
2.48015	34.52
2.49682	34.52
2.51348	34.52
2.53015	34.52
2.54682	34.52
2.56348	34.52
2.58015	34.52
2.59682	34.52
2.61348	34.52
2.63015	34.52
2.64682	34.52
2.66348	34.52
2.68015	34.52
2.69682	34.52
2.71348	34.52
2.73015	34.51
2.74682	34.52
2.76348	34.52
2.78015	34.52
2.79682	34.52
2.81348	34.52
2.83015	34.52
2.84682	34.52
2.86348	34.52
2.88015	34.52
2.89682	34.52
2.91348	34.51
2.93015	34.52
2.94682	34.52
2.96348	34.52
2.98015	34.52
2.99682	34.52
3.01348	34.52
3.03015	34.52
3.04682	34.52
3.06348	34.52
3.08015	34.52
3.09682	34.52
3.11348	34.52
3.13015	34.51
3.14682	34.52
3.16348	34.52
3.18015	34.52
3.19682	34.52
3.21348	34.52
3.23015	34.52
3.24682	34.52
3.26348	34.52
3.28015	34.52
3.29682	34.52
3.31348	34.52
3.33015	34.52
3.34682	34.52
3.36348	34.52
3.38015	34.52
3.39682	34.52
3.41348	34.52
3.43015	34.52
3.44682	34.52
3.46348	34.52
3.48015	34.52
3.49682	34.52
3.51348	34.52
3.53015	34.52
3.54682	34.52
3.56348	34.52
3.58015	34.52
3.59682	34.52
3.61348	34.52
3.63015	34.51
3.64682	34.52
3.66348	34.52
3.68015	34.52
3.69682	34.51
3.71348	34.52
3.73015	34.52
3.74682	34.52
3.76348	34.52
3.78015	34.52
3.79682	34.52
3.81348	34.52
3.83015	34.52
3.84682	34.52
3.86348	34.52
3.88015	34.52
3.89682	34.52
3.91348	34.52
3.93015	34.52
3.94682	34.52
3.96348	34.52
3.98015	34.52
3.99682	34.52

[Status Trace (Column Flow)]
Interval(msec)	1000
# of Points	240
Start Time(min)	0.013
End Time(min)	3.997
Intensity Units	
Intensity Multiplier	1
R.Time (min)	Intensity
0.01348	5.46
0.03015	5.16
0.04682	5.47
0.06348	5.71
0.08015	5.59
0.09682	5.49
0.11348	5.49
0.13015	5.50
0.14682	5.50
0.16348	5.50
0.18015	5.50
0.19682	5.50
0.21348	5.50
0.23015	5.50
0.24682	5.50
0.26348	5.50
0.28015	5.50
0.29682	5.50
0.31348	5.50
0.33015	5.50
0.34682	5.50
0.36348	5.50
0.38015	5.50
0.39682	5.50
0.41348	5.50
0.43015	5.50
0.44682	5.50
0.46348	5.50
0.48015	5.50
0.49682	5.50
0.51348	5.50
0.53015	5.50
0.54682	5.50
0.56348	5.50
0.58015	5.50
0.59682	5.50
0.61348	5.50
0.63015	5.50
0.64682	5.50
0.66348	5.50
0.68015	5.50
0.69682	5.50
0.71348	5.50
0.73015	5.50
0.74682	5.50
0.76348	5.50
0.78015	5.50
0.79682	5.50
0.81348	5.50
0.83015	5.50
0.84682	5.50
0.86348	5.50
0.88015	5.50
0.89682	5.50
0.91348	5.50
0.93015	5.50
0.94682	5.50
0.96348	5.50
0.98015	5.50
0.99682	5.50
1.01348	5.50
1.03015	5.50
1.04682	5.50
1.06348	5.50
1.08015	5.50
1.09682	5.50
1.11348	5.50
1.13015	5.50
1.14682	5.50
1.16348	5.50
1.18015	5.50
1.19682	5.50
1.21348	5.50
1.23015	5.50
1.24682	5.50
1.26348	5.50
1.28015	5.50
1.29682	5.50
1.31348	5.50
1.33015	5.50
1.34682	5.50
1.36348	5.50
1.38015	5.50
1.39682	5.50
1.41348	5.50
1.43015	5.50
1.44682	5.50
1.46348	5.50
1.48015	5.50
1.49682	5.50
1.51348	5.50
1.53015	5.50
1.54682	5.50
1.56348	5.50
1.58015	5.50
1.59682	5.50
1.61348	5.49
1.63015	5.49
1.64682	5.48
1.66348	5.47
1.68015	5.46
1.69682	5.45
1.71348	5.44
1.73015	5.43
1.74682	5.42
1.76348	5.41
1.78015	5.40
1.79682	5.39
1.81348	5.38
1.83015	5.37
1.84682	5.36
1.86348	5.35
1.88015	5.34
1.89682	5.33
1.91348	5.32
1.93015	5.31
1.94682	5.30
1.96348	5.29
1.98015	5.28
1.99682	5.27
2.01348	5.26
2.03015	5.25
2.04682	5.24
2.06348	5.23
2.08015	5.23
2.09682	5.22
2.11348	5.21
2.13015	5.20
2.14682	5.19
2.16348	5.18
2.18015	5.17
2.19682	5.16
2.21348	5.15
2.23015	5.14
2.24682	5.13
2.26348	5.12
2.28015	5.11
2.29682	5.10
2.31348	5.09
2.33015	5.09
2.34682	5.08
2.36348	5.07
2.38015	5.06
2.39682	5.06
2.41348	5.06
2.43015	5.06
2.44682	5.06
2.46348	5.06
2.48015	5.06
2.49682	5.06
2.51348	5.06
2.53015	5.06
2.54682	5.06
2.56348	5.06
2.58015	5.06
2.59682	5.06
2.61348	5.06
2.63015	5.06
2.64682	5.06
2.66348	5.06
2.68015	5.06
2.69682	5.06
2.71348	5.06
2.73015	5.06
2.74682	5.06
2.76348	5.06
2.78015	5.06
2.79682	5.06
2.81348	5.06
2.83015	5.06
2.84682	5.06
2.86348	5.06
2.88015	5.06
2.89682	5.06
2.91348	5.06
2.93015	5.06
2.94682	5.06
2.96348	5.06
2.98015	5.06
2.99682	5.06
3.01348	5.06
3.03015	5.06
3.04682	5.05
3.06348	5.05
3.08015	5.05
3.09682	5.05
3.11348	5.05
3.13015	5.05
3.14682	5.05
3.16348	5.05
3.18015	5.05
3.19682	5.05
3.21348	5.05
3.23015	5.05
3.24682	5.05
3.26348	5.05
3.28015	5.05
3.29682	5.05
3.31348	5.05
3.33015	5.05
3.34682	5.05
3.36348	5.05
3.38015	5.05
3.39682	5.05
3.41348	5.05
3.43015	5.05
3.44682	5.05
3.46348	5.05
3.48015	5.05
3.49682	5.05
3.51348	5.05
3.53015	5.05
3.54682	5.05
3.56348	5.05
3.58015	5.05
3.59682	5.05
3.61348	5.05
3.63015	5.05
3.64682	5.05
3.66348	5.05
3.68015	5.05
3.69682	5.05
3.71348	5.05
3.73015	5.05
3.74682	5.05
3.76348	5.05
3.78015	5.05
3.79682	5.05
3.81348	5.05
3.83015	5.05
3.84682	5.05
3.86348	5.05
3.88015	5.05
3.89682	5.05
3.91348	5.05
3.93015	5.05
3.94682	5.05
3.96348	5.05
3.98015	5.05
3.99682	5.05

[Status Trace (Linear Velocity)]
Interval(msec)	1000
# of Points	240
Start Time(min)	0.013
End Time(min)	3.997
Intensity Units	
Intensity Multiplier	1
R.Time (min)	Intensity
0.01348	38.79
0.03015	37.11
0.04682	38.89
0.06348	40.19
0.08015	39.55
0.09682	39.00
0.11348	39.00
0.13015	39.01
0.14682	39.01
0.16348	39.01
0.18015	39.01
0.19682	39.01
0.21348	39.01
0.23015	39.01
0.24682	39.01
0.26348	39.01
0.28015	39.01
0.29682	39.01
0.31348	39.01
0.33015	39.01
0.34682	39.01
0.36348	39.01
0.38015	39.01
0.39682	39.01
0.41348	39.01
0.43015	39.01
0.44682	39.01
0.46348	39.01
0.48015	39.01
0.49682	39.01
0.51348	39.01
0.53015	39.01
0.54682	39.01
0.56348	39.01
0.58015	39.01
0.59682	39.01
0.61348	39.01
0.63015	39.01
0.64682	39.01
0.66348	39.01
0.68015	39.01
0.69682	39.01
0.71348	39.01
0.73015	39.01
0.74682	39.01
0.76348	39.01
0.78015	39.01
0.79682	39.01
0.81348	39.01
0.83015	39.01
0.84682	39.01
0.86348	39.01
0.88015	39.01
0.89682	39.01
0.91348	39.01
0.93015	39.01
0.94682	39.01
0.96348	39.01
0.98015	39.01
0.99682	39.01
1.01348	39.01
1.03015	39.01
1.04682	39.01
1.06348	39.01
1.08015	39.01
1.09682	39.01
1.11348	39.01
1.13015	39.01
1.14682	39.01
1.16348	39.01
1.18015	39.01
1.19682	39.01
1.21348	39.01
1.23015	39.01
1.24682	39.01
1.26348	39.01
1.28015	39.01
1.29682	39.01
1.31348	39.01
1.33015	39.01
1.34682	39.01
1.36348	39.01
1.38015	39.01
1.39682	39.01
1.41348	39.01
1.43015	39.01
1.44682	39.01
1.46348	39.01
1.48015	39.01
1.49682	39.01
1.51348	39.01
1.53015	39.01
1.54682	39.01
1.56348	39.01
1.58015	39.01
1.59682	39.01
1.61348	39.00
1.63015	38.99
1.64682	38.97
1.66348	38.94
1.68015	38.91
1.69682	38.88
1.71348	38.84
1.73015	38.81
1.74682	38.78
1.76348	38.75
1.78015	38.72
1.79682	38.68
1.81348	38.65
1.83015	38.62
1.84682	38.59
1.86348	38.56
1.88015	38.53
1.89682	38.50
1.91348	38.47
1.93015	38.44
1.94682	38.41
1.96348	38.38
1.98015	38.35
1.99682	38.32
2.01348	38.29
2.03015	38.26
2.04682	38.23
2.06348	38.20
2.08015	38.17
2.09682	38.14
2.11348	38.11
2.13015	38.08
2.14682	38.05
2.16348	38.02
2.18015	37.99
2.19682	37.96
2.21348	37.93
2.23015	37.90
2.24682	37.87
2.26348	37.84
2.28015	37.81
2.29682	37.78
2.31348	37.75
2.33015	37.72
2.34682	37.70
2.36348	37.67
2.38015	37.65
2.39682	37.65
2.41348	37.65
2.43015	37.65
2.44682	37.65
2.46348	37.65
2.48015	37.65
2.49682	37.65
2.51348	37.65
2.53015	37.64
2.54682	37.65
2.56348	37.65
2.58015	37.64
2.59682	37.64
2.61348	37.64
2.63015	37.64
2.64682	37.64
2.66348	37.64
2.68015	37.64
2.69682	37.64
2.71348	37.64
2.73015	37.64
2.74682	37.64
2.76348	37.64
2.78015	37.64
2.79682	37.64
2.81348	37.64
2.83015	37.64
2.84682	37.64
2.86348	37.64
2.88015	37.64
2.89682	37.64
2.91348	37.64
2.93015	37.64
2.94682	37.63
2.96348	37.63
2.98015	37.63
2.99682	37.63
3.01348	37.63
3.03015	37.63
3.04682	37.63
3.06348	37.62
3.08015	37.62
3.09682	37.62
3.11348	37.62
3.13015	37.62
3.14682	37.62
3.16348	37.62
3.18015	37.62
3.19682	37.62
3.21348	37.62
3.23015	37.62
3.24682	37.62
3.26348	37.62
3.28015	37.62
3.29682	37.62
3.31348	37.62
3.33015	37.62
3.34682	37.62
3.36348	37.62
3.38015	37.62
3.39682	37.62
3.41348	37.62
3.43015	37.62
3.44682	37.62
3.46348	37.62
3.48015	37.62
3.49682	37.62
3.51348	37.62
3.53015	37.62
3.54682	37.62
3.56348	37.62
3.58015	37.62
3.59682	37.62
3.61348	37.62
3.63015	37.62
3.64682	37.62
3.66348	37.62
3.68015	37.62
3.69682	37.62
3.71348	37.62
3.73015	37.62
3.74682	37.62
3.76348	37.62
3.78015	37.62
3.79682	37.62
3.81348	37.62
3.83015	37.62
3.84682	37.62
3.86348	37.62
3.88015	37.62
3.89682	37.62
3.91348	37.62
3.93015	37.62
3.94682	37.62
3.96348	37.62
3.98015	37.62
3.99682	37.62

