[Header]
Application Name	LabSolutions
Version	5.110
Data File Name	C:\Users\User\Desktop\Junior\UIC Prairie Sampling\6.15.23\06152023_084.gcd
Output Date	6/26/2023
Output Time	12:05:13 PM

[File Information]
Type	Data File
Generated	6/23/2023 9:08:02 PM
Generated by	System Administrator
Modified	6/23/2023 9:15:34 PM
Modified by	System Administrator

[Sample Information]
Operator Name	System Administrator
Acquired	6/23/2023 9:11:34 PM
Sample Type	0:Unknown
Level	0
Sample Name	084
Sample ID	084
ISTD Amount1	1
ISTD Amount2	1
ISTD Amount3	1
ISTD Amount4	1
ISTD Amount5	1
ISTD Amount6	1
ISTD Amount7	1
ISTD Amount8	1
ISTD Amount9	1
ISTD Amount10	1
ISTD Amount11	1
ISTD Amount12	1
ISTD Amount13	1
ISTD Amount14	1
ISTD Amount15	1
ISTD Amount16	1
ISTD Amount17	1
ISTD Amount18	1
ISTD Amount19	1
ISTD Amount20	1
ISTD Amount21	1
ISTD Amount22	1
ISTD Amount23	1
ISTD Amount24	1
ISTD Amount25	1
ISTD Amount26	1
ISTD Amount27	1
ISTD Amount28	1
ISTD Amount29	1
ISTD Amount30	1
ISTD Amount31	1
ISTD Amount32	1
Sample Amount	1
Dilution Factor	1
Vial#	83
Injection Volume	1
Injection Count	1
Bar Code	

[Original Files]
Data File	C:\Users\User\Desktop\Junior\UIC Prairie Sampling\6.15.23\06152023_084.gcd
Method File	C:\LabSolutions\Data\GHG_4min_2022\ghg3_togas_w_acet_4 min_new_int.gcm
Batch File	C:\LabSolutions\Data\AutoSamplerTesting\06152023.gcb
Report Format File	c:\LabSolutions\System\DEFAULT.lsr

[File Description]


[Configuration]
Instrument Name	C0B7VH3-Instrument1
Instrument #	1
Line #	1
# of Detectors	3
Detector ID	DET#1	DET#2	DET#3
Detector Name	FID	PTCD	ECD
# of Channels	1	1	1

[Peak Table(Ch1)]
# of Peaks	3
Peak#	R.Time	I.Time	F.Time	Area	Height	A/H	Conc.	Mark	ID#	Name	k'	Plate #	Plate Ht.	Tailing	Resolution	Sep.Factor	Area Ratio	Height Ratio	Conc. %	Norm Conc.
1	1.472	1.443	1.531	3597	1800	1.998	0.000	   	1	CO	0.000	9743	15.395	1.404	0.000	0.000	0	0	0.000	0.000
2	1.564	1.531	1.622	3910	1989	1.965	19.061	 V 	2	CH4	0.062	11757	12.758	1.172	1.563	0.000	0	0	2.651	2.651
3	1.989	1.941	2.528	3631544	1730551	2.098	699.865	   	3	CO2	0.351	17553	8.545	1.250	7.225	5.640	0	0	97.349	97.349

[Peak Table(Ch2)]
# of Peaks	0

[Peak Table(Ch3)]
# of Peaks	4
Peak#	R.Time	I.Time	F.Time	Area	Height	A/H	Conc.	Mark	ID#	Name	k'	Plate #	Plate Ht.	Tailing	Resolution	Sep.Factor	Area Ratio	Height Ratio	Conc. %	Norm Conc.
1	2.502	2.400	2.539	3971	820	4.842	0.000	   			0.000	1473	101.835	0.000	0.000	0.000	0	0	0.000	0.000
2	2.572	2.539	2.660	4763	768	6.199	0.000	 V 			0.028	378	397.164	0.000	0.176	0.000	0	0	0.000	0.000
3	2.730	2.660	2.825	5328	589	9.050	0.000	 V 			0.091	110	1358.391	0.000	0.201	3.263	0	0	0.000	0.000
4	2.887	2.825	3.866	39042	6076	6.425	0.578	 V 	1	N2O	0.154	11980	12.520	0.000	0.276	1.694	0	0	100.000	100.000

[Compound Results(Ch1)]
# of IDs	6
ID#	Name	R.Time	Area	Height	Conc.	Curve	3rd	2nd	1st	Constant	Area Ratio	Height Ratio	Conc. %	Norm Conc.
1	CO	1.472	3597	1800	0.000	Linear	0.000000e+00	0.000000e+00	0.000000e+00	0.000000e+00	0	0	0.000	0.000
2	CH4	1.564	3910	1989	19.061	Linear	0.000000e+00	0.000000e+00	2.051179e+002	0.000000e+00	0	0	2.651	2.651
3	CO2	1.989	3631544	1730551	699.865	Linear	0.000000e+00	0.000000e+00	5.188919e+003	0.000000e+00	0	0	97.349	97.349
4	Ethylene	0.000	0	0	0.000	Linear	0.000000e+00	0.000000e+00	0.000000e+00	0.000000e+00	0	0	0.000	0.000
5	Acetylene	0.000	0	0	0.000	Linear	0.000000e+00	0.000000e+00	0.000000e+00	0.000000e+00	0	0	0.000	0.000
6	Ethane	0.000	0	0	0.000	Linear	0.000000e+00	0.000000e+00	0.000000e+00	0.000000e+00	0	0	0.000	0.000

[Compound Results(Ch2)]
# of IDs	5
ID#	Name	R.Time	Area	Height	Conc.	Curve	3rd	2nd	1st	Constant	Area Ratio	Height Ratio	Conc. %	Norm Conc.
1	Hydrogen	0.000	0	0	0.000	Linear	0.000000e+00	0.000000e+00	0.000000e+00	0.000000e+00	0	0	0.000	0.000
2	Oxygen	0.000	0	0	0.000	Linear	0.000000e+00	0.000000e+00	0.000000e+00	0.000000e+00	0	0	0.000	0.000
3	Nitrogen	0.000	0	0	0.000	Linear	0.000000e+00	0.000000e+00	0.000000e+00	0.000000e+00	0	0	0.000	0.000
4	Methane	0.000	0	0	0.000	Linear	0.000000e+00	0.000000e+00	0.000000e+00	0.000000e+00	0	0	0.000	0.000
5	Carbon Monoxide	0.000	0	0	0.000	Linear	0.000000e+00	0.000000e+00	0.000000e+00	0.000000e+00	0	0	0.000	0.000

[Compound Results(Ch3)]
# of IDs	2
ID#	Name	R.Time	Area	Height	Conc.	Curve	3rd	2nd	1st	Constant	Area Ratio	Height Ratio	Conc. %	Norm Conc.
1	N2O	2.887	39042	6076	0.578	Linear	0.000000e+00	0.000000e+00	6.759880e+004	0.000000e+00	0	0	100.000	100.000
2	SF6	0.000	0	0	0.000	Linear	0.000000e+00	0.000000e+00	0.000000e+00	0.000000e+00	0	0	0.000	0.000

[Group Results(Ch1)]
# of Groups	0

[Group Results(Ch2)]
# of Groups	0

[Group Results(Ch3)]
# of Groups	0

[Chromatogram (Ch1)]
Interval(msec)	220
# of Points	1091
Start Time(min)	0.002
End Time(min)	3.998
R.Time (min)	Intensity
0.00167	18
0.00533	19
0.00900	18
0.01267	16
0.01633	15
0.02000	12
0.02367	11
0.02733	9
0.03100	8
0.03467	6
0.03833	3
0.04200	0
0.04567	-3
0.04933	-3
0.05300	-1
0.05667	1
0.06033	5
0.06400	8
0.06767	11
0.07133	15
0.07500	16
0.07867	17
0.08233	20
0.08600	25
0.08967	23
0.09333	17
0.09700	9
0.10067	4
0.10433	-1
0.10800	-4
0.11167	-6
0.11533	-5
0.11900	-2
0.12267	2
0.12633	3
0.13000	2
0.13367	1
0.13733	-0
0.14100	-4
0.14467	-10
0.14833	-15
0.15200	-16
0.15567	-14
0.15933	-8
0.16300	-2
0.16667	5
0.17033	14
0.17400	23
0.17767	24
0.18133	20
0.18500	13
0.18867	5
0.19233	-4
0.19600	-12
0.19967	-18
0.20333	-22
0.20700	-21
0.21067	-19
0.21433	-16
0.21800	-14
0.22167	-13
0.22533	-12
0.22900	-12
0.23267	-13
0.23633	-12
0.24000	-10
0.24367	-8
0.24733	-3
0.25100	2
0.25467	6
0.25833	10
0.26200	16
0.26567	17
0.26933	13
0.27300	7
0.27667	4
0.28033	3
0.28400	2
0.28767	3
0.29133	5
0.29500	9
0.29867	10
0.30233	9
0.30600	6
0.30967	2
0.31333	-0
0.31700	-0
0.32067	-0
0.32433	1
0.32800	5
0.33167	8
0.33533	8
0.33900	6
0.34267	5
0.34633	4
0.35000	2
0.35367	1
0.35733	0
0.36100	-4
0.36467	-8
0.36833	-10
0.37200	-12
0.37567	-13
0.37933	-10
0.38300	-7
0.38667	-1
0.39033	2
0.39400	-1
0.39767	-5
0.40133	-6
0.40500	-7
0.40867	-6
0.41233	-2
0.41600	2
0.41967	0
0.42333	-7
0.42700	-16
0.43067	-25
0.43433	-35
0.43800	-44
0.44167	-51
0.44533	-56
0.44900	-56
0.45267	-52
0.45633	-46
0.46000	-38
0.46367	-31
0.46733	-28
0.47100	-29
0.47467	-26
0.47833	-22
0.48200	-23
0.48567	-23
0.48933	-22
0.49300	-24
0.49667	-29
0.50033	-33
0.50400	-31
0.50767	-24
0.51133	-17
0.51500	-14
0.51867	-11
0.52233	-10
0.52600	-6
0.52967	-4
0.53333	-5
0.53700	-7
0.54067	-13
0.54433	-22
0.54800	-29
0.55167	-32
0.55533	-34
0.55900	-33
0.56267	-31
0.56633	-26
0.57000	-23
0.57367	-18
0.57733	-17
0.58100	-18
0.58467	-21
0.58833	-22
0.59200	-20
0.59567	-16
0.59933	-15
0.60300	-14
0.60667	-10
0.61033	-7
0.61400	-6
0.61767	-7
0.62133	-8
0.62500	-11
0.62867	-14
0.63233	-16
0.63600	-19
0.63967	-23
0.64333	-26
0.64700	-29
0.65067	-29
0.65433	-23
0.65800	-14
0.66167	-7
0.66533	-2
0.66900	-1
0.67267	-4
0.67633	-10
0.68000	-19
0.68367	-27
0.68733	-31
0.69100	-32
0.69467	-34
0.69833	-34
0.70200	-32
0.70567	-33
0.70933	-35
0.71300	-34
0.71667	-32
0.72033	-30
0.72400	-27
0.72767	-24
0.73133	-21
0.73500	-16
0.73867	-12
0.74233	-8
0.74600	-3
0.74967	-2
0.75333	-8
0.75700	-17
0.76067	-25
0.76433	-33
0.76800	-46
0.77167	-58
0.77533	-65
0.77900	-67
0.78267	-64
0.78633	-56
0.79000	-47
0.79367	-43
0.79733	-42
0.80100	-40
0.80467	-35
0.80833	-33
0.81200	-32
0.81567	-29
0.81933	-27
0.82300	-25
0.82667	-25
0.83033	-24
0.83400	-22
0.83767	-24
0.84133	-30
0.84500	-34
0.84867	-35
0.85233	-35
0.85600	-39
0.85967	-43
0.86333	-47
0.86700	-48
0.87067	-48
0.87433	-44
0.87800	-38
0.88167	-34
0.88533	-32
0.88900	-34
0.89267	-34
0.89633	-35
0.90000	-34
0.90367	-31
0.90733	-30
0.91100	-30
0.91467	-32
0.91833	-37
0.92200	-43
0.92567	-48
0.92933	-49
0.93300	-47
0.93667	-46
0.94033	-45
0.94400	-46
0.94767	-47
0.95133	-46
0.95500	-45
0.95867	-45
0.96233	-42
0.96600	-42
0.96967	-43
0.97333	-46
0.97700	-49
0.98067	-52
0.98433	-54
0.98800	-56
0.99167	-57
0.99533	-57
0.99900	-54
1.00267	-50
1.00633	-42
1.01000	-36
1.01367	-34
1.01733	-36
1.02100	-39
1.02467	-39
1.02833	-34
1.03200	-29
1.03567	-28
1.03933	-30
1.04300	-31
1.04667	-30
1.05033	-30
1.05400	-32
1.05767	-34
1.06133	-36
1.06500	-38
1.06867	-42
1.07233	-48
1.07600	-55
1.07967	-60
1.08333	-63
1.08700	-62
1.09067	-59
1.09433	-54
1.09800	-46
1.10167	-39
1.10533	-38
1.10900	-39
1.11267	-42
1.11633	-45
1.12000	-47
1.12367	-48
1.12733	-46
1.13100	-43
1.13467	-40
1.13833	-39
1.14200	-38
1.14567	-39
1.14933	-40
1.15300	-43
1.15667	-45
1.16033	-44
1.16400	-42
1.16767	-41
1.17133	-42
1.17500	-41
1.17867	-44
1.18233	-51
1.18600	-54
1.18967	-50
1.19333	-47
1.19700	-48
1.20067	-52
1.20433	-57
1.20800	-61
1.21167	-62
1.21533	-57
1.21900	-47
1.22267	-40
1.22633	-37
1.23000	-39
1.23367	-43
1.23733	-46
1.24100	-49
1.24467	-51
1.24833	-52
1.25200	-54
1.25567	-57
1.25933	-58
1.26300	-54
1.26667	-50
1.27033	-45
1.27400	-43
1.27767	-47
1.28133	-56
1.28500	-65
1.28867	-73
1.29233	-78
1.29600	-78
1.29967	-72
1.30333	-61
1.30700	-49
1.31067	-44
1.31433	-48
1.31800	-54
1.32167	-58
1.32533	-61
1.32900	-63
1.33267	-61
1.33633	-58
1.34000	-57
1.34367	-58
1.34733	-63
1.35100	-68
1.35467	-70
1.35833	-71
1.36200	-71
1.36567	-75
1.36933	-77
1.37300	-76
1.37667	-70
1.38033	-60
1.38400	-51
1.38767	-42
1.39133	-35
1.39500	-30
1.39867	-30
1.40233	-35
1.40600	-40
1.40967	-45
1.41333	-51
1.41700	-55
1.42067	-61
1.42433	-67
1.42800	-70
1.43167	-72
1.43533	-69
1.43900	-63
1.44267	-62
1.44633	-18
1.45000	154
1.45367	460
1.45733	820
1.46100	1164
1.46467	1451
1.46833	1652
1.47200	1738
1.47567	1686
1.47933	1504
1.48300	1237
1.48667	955
1.49033	703
1.49400	500
1.49767	344
1.50133	232
1.50500	154
1.50867	100
1.51233	62
1.51600	30
1.51967	4
1.52333	-18
1.52700	-32
1.53067	-34
1.53433	2
1.53800	129
1.54167	389
1.54533	757
1.54900	1155
1.55267	1509
1.55633	1775
1.56000	1923
1.56367	1924
1.56733	1769
1.57100	1492
1.57467	1163
1.57833	846
1.58200	581
1.58567	382
1.58933	240
1.59300	145
1.59667	84
1.60033	45
1.60400	16
1.60767	-10
1.61133	-32
1.61500	-47
1.61867	-58
1.62233	-67
1.62600	-71
1.62967	-69
1.63333	-66
1.63700	-62
1.64067	-62
1.64433	-64
1.64800	-71
1.65167	-83
1.65533	-93
1.65900	-97
1.66267	-97
1.66633	-95
1.67000	-87
1.67367	-78
1.67733	-74
1.68100	-73
1.68467	-71
1.68833	-68
1.69200	-65
1.69567	-63
1.69933	-60
1.70300	-57
1.70667	-50
1.71033	-46
1.71400	-48
1.71767	-56
1.72133	-67
1.72500	-77
1.72867	-86
1.73233	-91
1.73600	-94
1.73967	-95
1.74333	-95
1.74700	-95
1.75067	-94
1.75433	-90
1.75800	-83
1.76167	-78
1.76533	-74
1.76900	-74
1.77267	-74
1.77633	-72
1.78000	-68
1.78367	-66
1.78733	-64
1.79100	-60
1.79467	-56
1.79833	-54
1.80200	-56
1.80567	-56
1.80933	-50
1.81300	-45
1.81667	-44
1.82033	-47
1.82400	-55
1.82767	-66
1.83133	-76
1.83500	-83
1.83867	-86
1.84233	-89
1.84600	-92
1.84967	-94
1.85333	-96
1.85700	-100
1.86067	-104
1.86433	-106
1.86800	-105
1.87167	-103
1.87533	-101
1.87900	-98
1.88267	-93
1.88633	-88
1.89000	-85
1.89367	-83
1.89733	-79
1.90100	-73
1.90467	-66
1.90833	-63
1.91200	-63
1.91567	-66
1.91933	-70
1.92300	-72
1.92667	-73
1.93033	-75
1.93400	-77
1.93767	-74
1.94133	-63
1.94500	-14
1.94867	310
1.95233	2326
1.95600	11847
1.95967	45570
1.96333	136162
1.96700	319922
1.97067	603753
1.97433	946772
1.97800	1281119
1.98167	1545513
1.98533	1700905
1.98900	1730558
1.99267	1640031
1.99633	1455337
2.00000	1215626
2.00367	962254
2.00733	728127
2.01100	532141
2.01467	379750
2.01833	267462
2.02200	187772
2.02567	132602
2.02933	94970
2.03300	69462
2.03667	52163
2.04033	40345
2.04400	32164
2.04767	26397
2.05133	22241
2.05500	19166
2.05867	16830
2.06233	15012
2.06600	13562
2.06967	12378
2.07333	11393
2.07700	10560
2.08067	9846
2.08433	9228
2.08800	8683
2.09167	8194
2.09533	7757
2.09900	7367
2.10267	7017
2.10633	6699
2.11000	6404
2.11367	6130
2.11733	5878
2.12100	5642
2.12467	5419
2.12833	5214
2.13200	5024
2.13567	4849
2.13933	4684
2.14300	4528
2.14667	4379
2.15033	4236
2.15400	4101
2.15767	3978
2.16133	3864
2.16500	3754
2.16867	3644
2.17233	3538
2.17600	3441
2.17967	3352
2.18333	3269
2.18700	3187
2.19067	3103
2.19433	3022
2.19800	2946
2.20167	2874
2.20533	2805
2.20900	2737
2.21267	2672
2.21633	2608
2.22000	2549
2.22367	2498
2.22733	2450
2.23100	2404
2.23467	2360
2.23833	2316
2.24200	2268
2.24567	2217
2.24933	2164
2.25300	2111
2.25667	2064
2.26033	2020
2.26400	1978
2.26767	1940
2.27133	1906
2.27500	1872
2.27867	1839
2.28233	1811
2.28600	1784
2.28967	1757
2.29333	1733
2.29700	1709
2.30067	1685
2.30433	1661
2.30800	1636
2.31167	1606
2.31533	1576
2.31900	1546
2.32267	1520
2.32633	1498
2.33000	1477
2.33367	1458
2.33733	1438
2.34100	1419
2.34467	1403
2.34833	1386
2.35200	1368
2.35567	1347
2.35933	1324
2.36300	1302
2.36667	1280
2.37033	1260
2.37400	1241
2.37767	1224
2.38133	1208
2.38500	1195
2.38867	1182
2.39233	1167
2.39600	1151
2.39967	1138
2.40333	1128
2.40700	1118
2.41067	1108
2.41433	1097
2.41800	1090
2.42167	1082
2.42533	1072
2.42900	1062
2.43267	1050
2.43633	1038
2.44000	1029
2.44367	1018
2.44733	1006
2.45100	993
2.45467	981
2.45833	967
2.46200	949
2.46567	933
2.46933	921
2.47300	910
2.47667	899
2.48033	886
2.48400	876
2.48767	869
2.49133	865
2.49500	860
2.49867	849
2.50233	835
2.50600	824
2.50967	818
2.51333	815
2.51700	816
2.52067	815
2.52433	807
2.52800	797
2.53167	785
2.53533	777
2.53900	774
2.54267	772
2.54633	769
2.55000	762
2.55367	753
2.55733	736
2.56100	715
2.56467	696
2.56833	680
2.57200	667
2.57567	655
2.57933	650
2.58300	650
2.58667	651
2.59033	651
2.59400	650
2.59767	645
2.60133	635
2.60500	621
2.60867	611
2.61233	605
2.61600	604
2.61967	604
2.62333	607
2.62700	608
2.63067	607
2.63433	601
2.63800	596
2.64167	589
2.64533	581
2.64900	572
2.65267	567
2.65633	562
2.66000	556
2.66367	552
2.66733	550
2.67100	549
2.67467	550
2.67833	554
2.68200	558
2.68567	560
2.68933	556
2.69300	550
2.69667	543
2.70033	541
2.70400	540
2.70767	538
2.71133	534
2.71500	529
2.71867	520
2.72233	506
2.72600	493
2.72967	484
2.73333	478
2.73700	475
2.74067	476
2.74433	479
2.74800	482
2.75167	486
2.75533	487
2.75900	485
2.76267	482
2.76633	478
2.77000	469
2.77367	457
2.77733	452
2.78100	451
2.78467	449
2.78833	447
2.79200	445
2.79567	442
2.79933	437
2.80300	429
2.80667	418
2.81033	408
2.81400	400
2.81767	394
2.82133	389
2.82500	385
2.82867	381
2.83233	380
2.83600	381
2.83967	384
2.84333	389
2.84700	394
2.85067	395
2.85433	394
2.85800	393
2.86167	391
2.86533	390
2.86900	388
2.87267	386
2.87633	384
2.88000	384
2.88367	384
2.88733	382
2.89100	378
2.89467	375
2.89833	375
2.90200	375
2.90567	374
2.90933	371
2.91300	368
2.91667	367
2.92033	366
2.92400	365
2.92767	364
2.93133	367
2.93500	372
2.93867	375
2.94233	378
2.94600	377
2.94967	371
2.95333	362
2.95700	355
2.96067	350
2.96433	350
2.96800	350
2.97167	345
2.97533	338
2.97900	333
2.98267	333
2.98633	339
2.99000	349
2.99367	360
2.99733	371
3.00100	378
3.00467	376
3.00833	365
3.01200	349
3.01567	336
3.01933	328
3.02300	321
3.02667	316
3.03033	309
3.03400	302
3.03767	296
3.04133	295
3.04500	295
3.04867	292
3.05233	288
3.05600	287
3.05967	285
3.06333	283
3.06700	280
3.07067	279
3.07433	278
3.07800	282
3.08167	289
3.08533	295
3.08900	296
3.09267	295
3.09633	293
3.10000	288
3.10367	285
3.10733	282
3.11100	282
3.11467	284
3.11833	284
3.12200	287
3.12567	290
3.12933	291
3.13300	289
3.13667	282
3.14033	271
3.14400	260
3.14767	253
3.15133	251
3.15500	253
3.15867	256
3.16233	258
3.16600	260
3.16967	259
3.17333	257
3.17700	256
3.18067	260
3.18433	263
3.18800	259
3.19167	250
3.19533	244
3.19900	239
3.20267	236
3.20633	238
3.21000	240
3.21367	242
3.21733	243
3.22100	245
3.22467	248
3.22833	252
3.23200	255
3.23567	256
3.23933	255
3.24300	252
3.24667	250
3.25033	248
3.25400	247
3.25767	243
3.26133	238
3.26500	235
3.26867	230
3.27233	228
3.27600	229
3.27967	232
3.28333	235
3.28700	235
3.29067	235
3.29433	237
3.29800	237
3.30167	235
3.30533	229
3.30900	220
3.31267	211
3.31633	203
3.32000	194
3.32367	185
3.32733	177
3.33100	176
3.33467	183
3.33833	191
3.34200	195
3.34567	194
3.34933	192
3.35300	194
3.35667	200
3.36033	206
3.36400	209
3.36767	208
3.37133	205
3.37500	204
3.37867	202
3.38233	202
3.38600	207
3.38967	218
3.39333	231
3.39700	238
3.40067	234
3.40433	224
3.40800	210
3.41167	194
3.41533	181
3.41900	171
3.42267	164
3.42633	163
3.43000	167
3.43367	171
3.43733	176
3.44100	181
3.44467	184
3.44833	182
3.45200	177
3.45567	170
3.45933	164
3.46300	160
3.46667	161
3.47033	160
3.47400	158
3.47767	157
3.48133	153
3.48500	151
3.48867	152
3.49233	153
3.49600	151
3.49967	150
3.50333	153
3.50700	162
3.51067	171
3.51433	175
3.51800	171
3.52167	165
3.52533	160
3.52900	155
3.53267	153
3.53633	156
3.54000	161
3.54367	164
3.54733	166
3.55100	166
3.55467	166
3.55833	165
3.56200	165
3.56567	166
3.56933	167
3.57300	168
3.57667	169
3.58033	171
3.58400	171
3.58767	167
3.59133	160
3.59500	155
3.59867	154
3.60233	154
3.60600	156
3.60967	159
3.61333	157
3.61700	151
3.62067	142
3.62433	133
3.62800	127
3.63167	126
3.63533	127
3.63900	129
3.64267	132
3.64633	136
3.65000	137
3.65367	138
3.65733	142
3.66100	148
3.66467	154
3.66833	158
3.67200	156
3.67567	155
3.67933	154
3.68300	156
3.68667	160
3.69033	159
3.69400	154
3.69767	148
3.70133	143
3.70500	138
3.70867	136
3.71233	136
3.71600	137
3.71967	135
3.72333	132
3.72700	127
3.73067	122
3.73433	120
3.73800	120
3.74167	116
3.74533	110
3.74900	104
3.75267	98
3.75633	95
3.76000	96
3.76367	95
3.76733	97
3.77100	102
3.77467	110
3.77833	116
3.78200	119
3.78567	115
3.78933	110
3.79300	109
3.79667	111
3.80033	116
3.80400	123
3.80767	127
3.81133	128
3.81500	128
3.81867	125
3.82233	121
3.82600	117
3.82967	117
3.83333	121
3.83700	127
3.84067	132
3.84433	131
3.84800	125
3.85167	118
3.85533	113
3.85900	107
3.86267	98
3.86633	90
3.87000	85
3.87367	88
3.87733	96
3.88100	103
3.88467	107
3.88833	108
3.89200	108
3.89567	109
3.89933	108
3.90300	106
3.90667	102
3.91033	101
3.91400	103
3.91767	104
3.92133	103
3.92500	105
3.92867	109
3.93233	111
3.93600	109
3.93967	110
3.94333	112
3.94700	117
3.95067	126
3.95433	130
3.95800	127
3.96167	119
3.96533	106
3.96900	92
3.97267	83
3.97633	80
3.98000	81
3.98367	84
3.98733	86
3.99100	88
3.99467	93
3.99833	96

[Chromatogram (Ch2)]
Interval(msec)	220
# of Points	1091
Start Time(min)	0.002
End Time(min)	3.998
R.Time (min)	Intensity
0.00167	0
0.00533	0
0.00900	0
0.01267	0
0.01633	0
0.02000	-0
0.02367	-0
0.02733	-1
0.03100	-1
0.03467	-2
0.03833	-2
0.04200	-2
0.04567	-2
0.04933	-2
0.05300	-2
0.05667	-3
0.06033	-3
0.06400	-3
0.06767	-3
0.07133	-3
0.07500	-3
0.07867	-3
0.08233	-3
0.08600	-3
0.08967	-3
0.09333	-3
0.09700	-3
0.10067	-3
0.10433	-2
0.10800	-2
0.11167	-2
0.11533	-2
0.11900	-2
0.12267	-2
0.12633	-2
0.13000	-2
0.13367	-2
0.13733	-1
0.14100	-1
0.14467	-1
0.14833	-1
0.15200	-0
0.15567	-0
0.15933	-0
0.16300	-1
0.16667	-1
0.17033	-1
0.17400	-2
0.17767	-2
0.18133	-2
0.18500	-2
0.18867	-3
0.19233	-3
0.19600	-3
0.19967	-3
0.20333	-3
0.20700	-3
0.21067	-3
0.21433	-3
0.21800	-3
0.22167	-3
0.22533	-3
0.22900	-3
0.23267	-3
0.23633	-2
0.24000	-2
0.24367	-2
0.24733	-2
0.25100	-2
0.25467	-2
0.25833	-2
0.26200	-2
0.26567	-3
0.26933	-3
0.27300	-3
0.27667	-4
0.28033	-4
0.28400	-4
0.28767	-4
0.29133	-3
0.29500	-3
0.29867	-3
0.30233	-3
0.30600	-2
0.30967	-2
0.31333	-2
0.31700	-1
0.32067	-1
0.32433	-1
0.32800	-1
0.33167	-0
0.33533	-0
0.33900	-0
0.34267	-0
0.34633	-0
0.35000	-1
0.35367	-1
0.35733	-1
0.36100	-1
0.36467	-1
0.36833	-1
0.37200	-2
0.37567	-2
0.37933	-2
0.38300	-2
0.38667	-2
0.39033	-3
0.39400	-3
0.39767	-3
0.40133	-4
0.40500	-4
0.40867	-4
0.41233	-4
0.41600	-5
0.41967	-5
0.42333	-5
0.42700	-5
0.43067	-5
0.43433	-5
0.43800	-5
0.44167	-5
0.44533	-5
0.44900	-4
0.45267	-4
0.45633	-4
0.46000	-4
0.46367	-3
0.46733	-3
0.47100	-2
0.47467	-2
0.47833	-2
0.48200	-2
0.48567	-2
0.48933	-1
0.49300	-1
0.49667	-1
0.50033	-1
0.50400	-1
0.50767	-0
0.51133	-0
0.51500	-0
0.51867	-1
0.52233	-1
0.52600	-1
0.52967	-1
0.53333	-1
0.53700	-2
0.54067	-2
0.54433	-2
0.54800	-2
0.55167	-3
0.55533	-3
0.55900	-3
0.56267	-4
0.56633	-4
0.57000	-4
0.57367	-4
0.57733	-4
0.58100	-4
0.58467	-4
0.58833	-4
0.59200	-4
0.59567	-4
0.59933	-3
0.60300	-3
0.60667	-3
0.61033	-3
0.61400	-3
0.61767	-3
0.62133	-4
0.62500	-4
0.62867	-4
0.63233	-4
0.63600	-4
0.63967	-4
0.64333	-4
0.64700	-4
0.65067	-4
0.65433	-4
0.65800	-3
0.66167	-3
0.66533	-3
0.66900	-3
0.67267	-3
0.67633	-3
0.68000	-3
0.68367	-3
0.68733	-4
0.69100	-4
0.69467	-4
0.69833	-4
0.70200	-5
0.70567	-5
0.70933	-5
0.71300	-6
0.71667	-6
0.72033	-6
0.72400	-7
0.72767	-7
0.73133	-7
0.73500	-7
0.73867	-7
0.74233	-6
0.74600	-6
0.74967	-6
0.75333	-5
0.75700	-5
0.76067	-5
0.76433	-5
0.76800	-4
0.77167	-4
0.77533	-4
0.77900	-4
0.78267	-4
0.78633	-4
0.79000	-4
0.79367	-4
0.79733	-4
0.80100	-4
0.80467	-4
0.80833	-4
0.81200	-4
0.81567	-5
0.81933	-5
0.82300	-5
0.82667	-5
0.83033	-5
0.83400	-5
0.83767	-5
0.84133	-5
0.84500	-5
0.84867	-4
0.85233	-4
0.85600	-4
0.85967	-4
0.86333	-5
0.86700	-5
0.87067	-5
0.87433	-5
0.87800	-5
0.88167	-4
0.88533	-4
0.88900	-4
0.89267	-3
0.89633	-3
0.90000	-3
0.90367	-3
0.90733	-3
0.91100	-3
0.91467	-3
0.91833	-3
0.92200	-3
0.92567	-3
0.92933	-3
0.93300	-3
0.93667	-3
0.94033	-3
0.94400	-3
0.94767	-3
0.95133	-3
0.95500	-3
0.95867	-3
0.96233	-3
0.96600	-3
0.96967	-4
0.97333	-4
0.97700	-4
0.98067	-5
0.98433	-5
0.98800	-5
0.99167	-5
0.99533	-5
0.99900	-5
1.00267	-5
1.00633	-5
1.01000	-5
1.01367	-5
1.01733	-5
1.02100	-4
1.02467	-4
1.02833	-4
1.03200	-4
1.03567	-4
1.03933	-4
1.04300	-4
1.04667	-5
1.05033	-5
1.05400	-5
1.05767	-5
1.06133	-5
1.06500	-5
1.06867	-5
1.07233	-5
1.07600	-5
1.07967	-5
1.08333	-5
1.08700	-5
1.09067	-6
1.09433	-6
1.09800	-6
1.10167	-6
1.10533	-6
1.10900	-6
1.11267	-6
1.11633	-5
1.12000	-5
1.12367	-5
1.12733	-5
1.13100	-5
1.13467	-5
1.13833	-5
1.14200	-5
1.14567	-5
1.14933	-5
1.15300	-5
1.15667	-5
1.16033	-5
1.16400	-5
1.16767	-5
1.17133	-5
1.17500	-5
1.17867	-5
1.18233	-5
1.18600	-4
1.18967	-4
1.19333	-4
1.19700	-4
1.20067	-4
1.20433	-4
1.20800	-4
1.21167	-4
1.21533	-4
1.21900	-4
1.22267	-5
1.22633	-5
1.23000	-4
1.23367	-4
1.23733	-4
1.24100	-4
1.24467	-4
1.24833	-4
1.25200	-4
1.25567	-3
1.25933	-3
1.26300	-3
1.26667	-3
1.27033	-3
1.27400	-4
1.27767	-4
1.28133	-4
1.28500	-4
1.28867	-4
1.29233	-4
1.29600	-4
1.29967	-4
1.30333	-4
1.30700	-4
1.31067	-4
1.31433	-4
1.31800	-5
1.32167	-5
1.32533	-5
1.32900	-6
1.33267	-6
1.33633	-6
1.34000	-6
1.34367	-6
1.34733	-6
1.35100	-5
1.35467	-5
1.35833	-5
1.36200	-5
1.36567	-5
1.36933	-4
1.37300	-4
1.37667	-4
1.38033	-4
1.38400	-5
1.38767	-5
1.39133	-5
1.39500	-6
1.39867	-6
1.40233	-6
1.40600	-6
1.40967	-6
1.41333	-6
1.41700	-5
1.42067	-5
1.42433	-5
1.42800	-5
1.43167	-5
1.43533	-4
1.43900	-4
1.44267	-4
1.44633	-3
1.45000	-3
1.45367	-3
1.45733	-3
1.46100	-3
1.46467	-3
1.46833	-3
1.47200	-3
1.47567	-3
1.47933	-3
1.48300	-3
1.48667	-3
1.49033	-3
1.49400	-3
1.49767	-4
1.50133	-4
1.50500	-5
1.50867	-6
1.51233	-6
1.51600	-7
1.51967	-7
1.52333	-7
1.52700	-7
1.53067	-7
1.53433	-7
1.53800	-7
1.54167	-7
1.54533	-7
1.54900	-7
1.55267	-6
1.55633	-6
1.56000	-6
1.56367	-6
1.56733	-6
1.57100	-6
1.57467	-6
1.57833	-6
1.58200	-6
1.58567	-6
1.58933	-7
1.59300	-7
1.59667	-8
1.60033	-9
1.60400	-10
1.60767	-11
1.61133	-13
1.61500	-15
1.61867	-17
1.62233	-19
1.62600	-22
1.62967	-25
1.63333	-28
1.63700	-31
1.64067	-34
1.64433	-37
1.64800	-41
1.65167	-44
1.65533	-47
1.65900	-50
1.66267	-53
1.66633	-57
1.67000	-60
1.67367	-64
1.67733	-68
1.68100	-72
1.68467	-76
1.68833	-79
1.69200	-83
1.69567	-86
1.69933	-89
1.70300	-92
1.70667	-94
1.71033	-96
1.71400	-97
1.71767	-98
1.72133	-99
1.72500	-99
1.72867	-100
1.73233	-101
1.73600	-101
1.73967	-102
1.74333	-103
1.74700	-103
1.75067	-103
1.75433	-103
1.75800	-103
1.76167	-103
1.76533	-103
1.76900	-104
1.77267	-104
1.77633	-105
1.78000	-106
1.78367	-106
1.78733	-107
1.79100	-107
1.79467	-107
1.79833	-106
1.80200	-105
1.80567	-105
1.80933	-104
1.81300	-104
1.81667	-103
1.82033	-103
1.82400	-103
1.82767	-103
1.83133	-103
1.83500	-103
1.83867	-103
1.84233	-103
1.84600	-104
1.84967	-104
1.85333	-104
1.85700	-104
1.86067	-105
1.86433	-105
1.86800	-104
1.87167	-104
1.87533	-104
1.87900	-104
1.88267	-103
1.88633	-103
1.89000	-103
1.89367	-103
1.89733	-103
1.90100	-103
1.90467	-103
1.90833	-103
1.91200	-104
1.91567	-104
1.91933	-105
1.92300	-105
1.92667	-105
1.93033	-105
1.93400	-104
1.93767	-103
1.94133	-102
1.94500	-102
1.94867	-101
1.95233	-101
1.95600	-101
1.95967	-101
1.96333	-101
1.96700	-101
1.97067	-101
1.97433	-101
1.97800	-100
1.98167	-100
1.98533	-100
1.98900	-99
1.99267	-99
1.99633	-99
2.00000	-99
2.00367	-99
2.00733	-99
2.01100	-99
2.01467	-99
2.01833	-99
2.02200	-99
2.02567	-98
2.02933	-98
2.03300	-97
2.03667	-97
2.04033	-97
2.04400	-97
2.04767	-97
2.05133	-97
2.05500	-97
2.05867	-97
2.06233	-97
2.06600	-97
2.06967	-96
2.07333	-96
2.07700	-95
2.08067	-94
2.08433	-94
2.08800	-93
2.09167	-93
2.09533	-92
2.09900	-92
2.10267	-91
2.10633	-90
2.11000	-90
2.11367	-89
2.11733	-89
2.12100	-89
2.12467	-89
2.12833	-88
2.13200	-88
2.13567	-88
2.13933	-88
2.14300	-88
2.14667	-88
2.15033	-88
2.15400	-88
2.15767	-88
2.16133	-87
2.16500	-87
2.16867	-86
2.17233	-85
2.17600	-84
2.17967	-84
2.18333	-84
2.18700	-84
2.19067	-84
2.19433	-83
2.19800	-83
2.20167	-83
2.20533	-84
2.20900	-84
2.21267	-84
2.21633	-84
2.22000	-84
2.22367	-83
2.22733	-83
2.23100	-83
2.23467	-82
2.23833	-82
2.24200	-81
2.24567	-81
2.24933	-81
2.25300	-82
2.25667	-82
2.26033	-83
2.26400	-84
2.26767	-85
2.27133	-84
2.27500	-84
2.27867	-83
2.28233	-81
2.28600	-80
2.28967	-79
2.29333	-78
2.29700	-78
2.30067	-77
2.30433	-76
2.30800	-76
2.31167	-75
2.31533	-75
2.31900	-75
2.32267	-75
2.32633	-74
2.33000	-73
2.33367	-73
2.33733	-73
2.34100	-73
2.34467	-72
2.34833	-72
2.35200	-70
2.35567	-69
2.35933	-68
2.36300	-67
2.36667	-65
2.37033	-64
2.37400	-62
2.37767	-59
2.38133	-56
2.38500	-52
2.38867	-48
2.39233	-44
2.39600	-40
2.39967	-35
2.40333	-31
2.40700	-26
2.41067	-22
2.41433	-19
2.41800	-16
2.42167	-13
2.42533	-10
2.42900	-8
2.43267	-6
2.43633	-4
2.44000	-2
2.44367	-1
2.44733	1
2.45100	2
2.45467	3
2.45833	4
2.46200	5
2.46567	6
2.46933	7
2.47300	8
2.47667	9
2.48033	10
2.48400	11
2.48767	12
2.49133	12
2.49500	12
2.49867	13
2.50233	13
2.50600	13
2.50967	14
2.51333	14
2.51700	13
2.52067	13
2.52433	12
2.52800	11
2.53167	10
2.53533	9
2.53900	9
2.54267	8
2.54633	8
2.55000	8
2.55367	8
2.55733	8
2.56100	9
2.56467	9
2.56833	10
2.57200	11
2.57567	12
2.57933	12
2.58300	12
2.58667	11
2.59033	11
2.59400	12
2.59767	12
2.60133	12
2.60500	13
2.60867	13
2.61233	14
2.61600	14
2.61967	15
2.62333	16
2.62700	16
2.63067	17
2.63433	17
2.63800	18
2.64167	18
2.64533	18
2.64900	19
2.65267	19
2.65633	19
2.66000	20
2.66367	20
2.66733	20
2.67100	21
2.67467	21
2.67833	21
2.68200	21
2.68567	21
2.68933	21
2.69300	21
2.69667	21
2.70033	22
2.70400	22
2.70767	22
2.71133	22
2.71500	23
2.71867	23
2.72233	23
2.72600	23
2.72967	23
2.73333	23
2.73700	23
2.74067	23
2.74433	24
2.74800	24
2.75167	24
2.75533	25
2.75900	25
2.76267	26
2.76633	26
2.77000	27
2.77367	27
2.77733	28
2.78100	28
2.78467	28
2.78833	28
2.79200	28
2.79567	27
2.79933	27
2.80300	26
2.80667	26
2.81033	26
2.81400	25
2.81767	25
2.82133	25
2.82500	25
2.82867	25
2.83233	25
2.83600	25
2.83967	26
2.84333	26
2.84700	26
2.85067	27
2.85433	26
2.85800	25
2.86167	23
2.86533	19
2.86900	12
2.87267	2
2.87633	-11
2.88000	-30
2.88367	-53
2.88733	-82
2.89100	-116
2.89467	-155
2.89833	-200
2.90200	-248
2.90567	-301
2.90933	-357
2.91300	-416
2.91667	-477
2.92033	-539
2.92400	-602
2.92767	-664
2.93133	-726
2.93500	-785
2.93867	-840
2.94233	-893
2.94600	-946
2.94967	-1000
2.95333	-1051
2.95700	-1088
2.96067	-1103
2.96433	-1093
2.96800	-1059
2.97167	-1006
2.97533	-939
2.97900	-863
2.98267	-783
2.98633	-702
2.99000	-624
2.99367	-551
2.99733	-482
3.00100	-420
3.00467	-364
3.00833	-314
3.01200	-270
3.01567	-231
3.01933	-196
3.02300	-166
3.02667	-141
3.03033	-118
3.03400	-99
3.03767	-82
3.04133	-68
3.04500	-56
3.04867	-46
3.05233	-37
3.05600	-29
3.05967	-23
3.06333	-17
3.06700	-12
3.07067	-8
3.07433	-5
3.07800	-2
3.08167	0
3.08533	2
3.08900	4
3.09267	5
3.09633	6
3.10000	8
3.10367	9
3.10733	10
3.11100	11
3.11467	11
3.11833	12
3.12200	13
3.12567	14
3.12933	14
3.13300	15
3.13667	15
3.14033	16
3.14400	16
3.14767	17
3.15133	17
3.15500	18
3.15867	18
3.16233	18
3.16600	18
3.16967	19
3.17333	19
3.17700	19
3.18067	19
3.18433	19
3.18800	19
3.19167	19
3.19533	19
3.19900	19
3.20267	20
3.20633	20
3.21000	20
3.21367	20
3.21733	20
3.22100	21
3.22467	21
3.22833	21
3.23200	21
3.23567	21
3.23933	21
3.24300	21
3.24667	21
3.25033	21
3.25400	21
3.25767	22
3.26133	22
3.26500	22
3.26867	22
3.27233	22
3.27600	23
3.27967	23
3.28333	23
3.28700	23
3.29067	23
3.29433	23
3.29800	23
3.30167	23
3.30533	24
3.30900	24
3.31267	24
3.31633	24
3.32000	23
3.32367	24
3.32733	24
3.33100	24
3.33467	24
3.33833	24
3.34200	24
3.34567	23
3.34933	23
3.35300	23
3.35667	23
3.36033	23
3.36400	23
3.36767	23
3.37133	23
3.37500	23
3.37867	23
3.38233	23
3.38600	23
3.38967	23
3.39333	23
3.39700	23
3.40067	24
3.40433	24
3.40800	25
3.41167	25
3.41533	25
3.41900	26
3.42267	26
3.42633	26
3.43000	26
3.43367	27
3.43733	27
3.44100	27
3.44467	27
3.44833	27
3.45200	27
3.45567	28
3.45933	28
3.46300	28
3.46667	28
3.47033	28
3.47400	28
3.47767	28
3.48133	28
3.48500	28
3.48867	27
3.49233	27
3.49600	27
3.49967	26
3.50333	26
3.50700	26
3.51067	26
3.51433	26
3.51800	26
3.52167	26
3.52533	26
3.52900	25
3.53267	25
3.53633	25
3.54000	25
3.54367	25
3.54733	25
3.55100	25
3.55467	25
3.55833	25
3.56200	25
3.56567	25
3.56933	25
3.57300	25
3.57667	25
3.58033	25
3.58400	26
3.58767	26
3.59133	26
3.59500	26
3.59867	27
3.60233	27
3.60600	27
3.60967	27
3.61333	27
3.61700	27
3.62067	27
3.62433	27
3.62800	27
3.63167	27
3.63533	27
3.63900	27
3.64267	27
3.64633	27
3.65000	27
3.65367	27
3.65733	27
3.66100	27
3.66467	27
3.66833	26
3.67200	26
3.67567	26
3.67933	26
3.68300	25
3.68667	25
3.69033	25
3.69400	25
3.69767	25
3.70133	25
3.70500	25
3.70867	25
3.71233	26
3.71600	26
3.71967	26
3.72333	26
3.72700	26
3.73067	26
3.73433	26
3.73800	26
3.74167	26
3.74533	26
3.74900	26
3.75267	26
3.75633	26
3.76000	26
3.76367	26
3.76733	26
3.77100	26
3.77467	26
3.77833	26
3.78200	26
3.78567	26
3.78933	26
3.79300	26
3.79667	26
3.80033	26
3.80400	26
3.80767	26
3.81133	25
3.81500	25
3.81867	25
3.82233	25
3.82600	25
3.82967	25
3.83333	25
3.83700	25
3.84067	25
3.84433	25
3.84800	25
3.85167	25
3.85533	25
3.85900	26
3.86267	26
3.86633	26
3.87000	26
3.87367	26
3.87733	26
3.88100	27
3.88467	27
3.88833	27
3.89200	27
3.89567	27
3.89933	27
3.90300	27
3.90667	27
3.91033	27
3.91400	27
3.91767	26
3.92133	26
3.92500	26
3.92867	26
3.93233	26
3.93600	26
3.93967	26
3.94333	26
3.94700	26
3.95067	26
3.95433	26
3.95800	26
3.96167	26
3.96533	26
3.96900	26
3.97267	26
3.97633	26
3.98000	26
3.98367	26
3.98733	26
3.99100	26
3.99467	26
3.99833	26

[Chromatogram (Ch3)]
Interval(msec)	220
# of Points	1091
Start Time(min)	0.002
End Time(min)	3.998
R.Time (min)	Intensity
0.00167	0
0.00533	1
0.00900	1
0.01267	-0
0.01633	-1
0.02000	-1
0.02367	-2
0.02733	-5
0.03100	-7
0.03467	-11
0.03833	-13
0.04200	-11
0.04567	-10
0.04933	-9
0.05300	-7
0.05667	-4
0.06033	-3
0.06400	-4
0.06767	-4
0.07133	-3
0.07500	-0
0.07867	1
0.08233	0
0.08600	-2
0.08967	-2
0.09333	-2
0.09700	-1
0.10067	2
0.10433	4
0.10800	6
0.11167	7
0.11533	6
0.11900	3
0.12267	3
0.12633	2
0.13000	2
0.13367	3
0.13733	1
0.14100	-0
0.14467	0
0.14833	-1
0.15200	-1
0.15567	-2
0.15933	-2
0.16300	-1
0.16667	-0
0.17033	-2
0.17400	-3
0.17767	-1
0.18133	2
0.18500	3
0.18867	4
0.19233	3
0.19600	3
0.19967	1
0.20333	1
0.20700	2
0.21067	3
0.21433	3
0.21800	2
0.22167	2
0.22533	1
0.22900	-0
0.23267	1
0.23633	2
0.24000	4
0.24367	6
0.24733	5
0.25100	5
0.25467	5
0.25833	6
0.26200	6
0.26567	5
0.26933	6
0.27300	5
0.27667	5
0.28033	4
0.28400	1
0.28767	1
0.29133	3
0.29500	3
0.29867	4
0.30233	5
0.30600	5
0.30967	5
0.31333	5
0.31700	4
0.32067	4
0.32433	4
0.32800	5
0.33167	3
0.33533	2
0.33900	3
0.34267	2
0.34633	2
0.35000	1
0.35367	2
0.35733	1
0.36100	-0
0.36467	-0
0.36833	0
0.37200	1
0.37567	1
0.37933	2
0.38300	2
0.38667	3
0.39033	5
0.39400	6
0.39767	5
0.40133	5
0.40500	4
0.40867	5
0.41233	6
0.41600	7
0.41967	9
0.42333	8
0.42700	5
0.43067	4
0.43433	5
0.43800	7
0.44167	6
0.44533	6
0.44900	7
0.45267	8
0.45633	7
0.46000	7
0.46367	9
0.46733	11
0.47100	10
0.47467	8
0.47833	7
0.48200	5
0.48567	5
0.48933	6
0.49300	7
0.49667	7
0.50033	6
0.50400	6
0.50767	5
0.51133	4
0.51500	4
0.51867	5
0.52233	6
0.52600	7
0.52967	9
0.53333	10
0.53700	10
0.54067	8
0.54433	5
0.54800	4
0.55167	4
0.55533	4
0.55900	5
0.56267	6
0.56633	5
0.57000	7
0.57367	9
0.57733	9
0.58100	9
0.58467	8
0.58833	8
0.59200	8
0.59567	9
0.59933	9
0.60300	11
0.60667	12
0.61033	11
0.61400	12
0.61767	13
0.62133	14
0.62500	15
0.62867	14
0.63233	12
0.63600	11
0.63967	11
0.64333	10
0.64700	9
0.65067	10
0.65433	11
0.65800	11
0.66167	9
0.66533	8
0.66900	8
0.67267	5
0.67633	3
0.68000	4
0.68367	7
0.68733	10
0.69100	10
0.69467	10
0.69833	9
0.70200	9
0.70567	10
0.70933	10
0.71300	9
0.71667	10
0.72033	12
0.72400	14
0.72767	14
0.73133	14
0.73500	13
0.73867	13
0.74233	12
0.74600	13
0.74967	14
0.75333	15
0.75700	12
0.76067	11
0.76433	10
0.76800	10
0.77167	12
0.77533	14
0.77900	15
0.78267	17
0.78633	16
0.79000	16
0.79367	15
0.79733	13
0.80100	13
0.80467	14
0.80833	15
0.81200	12
0.81567	12
0.81933	13
0.82300	13
0.82667	13
0.83033	11
0.83400	12
0.83767	13
0.84133	14
0.84500	15
0.84867	13
0.85233	12
0.85600	14
0.85967	14
0.86333	15
0.86700	15
0.87067	15
0.87433	15
0.87800	14
0.88167	13
0.88533	11
0.88900	11
0.89267	12
0.89633	14
0.90000	15
0.90367	15
0.90733	16
0.91100	18
0.91467	20
0.91833	23
0.92200	22
0.92567	21
0.92933	20
0.93300	18
0.93667	18
0.94033	20
0.94400	20
0.94767	19
0.95133	17
0.95500	14
0.95867	14
0.96233	15
0.96600	16
0.96967	16
0.97333	19
0.97700	21
0.98067	21
0.98433	21
0.98800	22
0.99167	22
0.99533	22
0.99900	22
1.00267	20
1.00633	20
1.01000	20
1.01367	18
1.01733	18
1.02100	17
1.02467	17
1.02833	18
1.03200	18
1.03567	18
1.03933	18
1.04300	17
1.04667	18
1.05033	18
1.05400	18
1.05767	18
1.06133	18
1.06500	18
1.06867	19
1.07233	20
1.07600	21
1.07967	20
1.08333	20
1.08700	20
1.09067	21
1.09433	20
1.09800	22
1.10167	23
1.10533	23
1.10900	24
1.11267	23
1.11633	21
1.12000	19
1.12367	19
1.12733	20
1.13100	19
1.13467	18
1.13833	20
1.14200	20
1.14567	23
1.14933	24
1.15300	24
1.15667	24
1.16033	23
1.16400	23
1.16767	22
1.17133	19
1.17500	17
1.17867	18
1.18233	18
1.18600	19
1.18967	22
1.19333	22
1.19700	21
1.20067	20
1.20433	18
1.20800	16
1.21167	15
1.21533	14
1.21900	15
1.22267	14
1.22633	16
1.23000	19
1.23367	21
1.23733	22
1.24100	22
1.24467	22
1.24833	21
1.25200	22
1.25567	23
1.25933	23
1.26300	24
1.26667	24
1.27033	24
1.27400	26
1.27767	29
1.28133	30
1.28500	29
1.28867	28
1.29233	26
1.29600	23
1.29967	22
1.30333	21
1.30700	19
1.31067	20
1.31433	22
1.31800	23
1.32167	23
1.32533	24
1.32900	24
1.33267	27
1.33633	27
1.34000	26
1.34367	24
1.34733	24
1.35100	26
1.35467	27
1.35833	28
1.36200	27
1.36567	27
1.36933	27
1.37300	27
1.37667	26
1.38033	27
1.38400	26
1.38767	25
1.39133	23
1.39500	23
1.39867	21
1.40233	20
1.40600	21
1.40967	22
1.41333	23
1.41700	24
1.42067	25
1.42433	26
1.42800	24
1.43167	23
1.43533	23
1.43900	23
1.44267	24
1.44633	25
1.45000	24
1.45367	23
1.45733	22
1.46100	20
1.46467	20
1.46833	20
1.47200	22
1.47567	24
1.47933	26
1.48300	27
1.48667	27
1.49033	27
1.49400	26
1.49767	25
1.50133	26
1.50500	26
1.50867	24
1.51233	24
1.51600	25
1.51967	24
1.52333	23
1.52700	24
1.53067	26
1.53433	26
1.53800	27
1.54167	28
1.54533	28
1.54900	27
1.55267	25
1.55633	24
1.56000	22
1.56367	21
1.56733	23
1.57100	25
1.57467	26
1.57833	24
1.58200	22
1.58567	21
1.58933	21
1.59300	22
1.59667	21
1.60033	21
1.60400	23
1.60767	23
1.61133	23
1.61500	23
1.61867	23
1.62233	23
1.62600	25
1.62967	26
1.63333	28
1.63700	30
1.64067	30
1.64433	30
1.64800	29
1.65167	28
1.65533	27
1.65900	27
1.66267	29
1.66633	30
1.67000	30
1.67367	31
1.67733	33
1.68100	35
1.68467	39
1.68833	41
1.69200	41
1.69567	40
1.69933	40
1.70300	40
1.70667	40
1.71033	37
1.71400	34
1.71767	32
1.72133	33
1.72500	35
1.72867	37
1.73233	37
1.73600	38
1.73967	39
1.74333	39
1.74700	39
1.75067	39
1.75433	38
1.75800	38
1.76167	38
1.76533	39
1.76900	42
1.77267	44
1.77633	45
1.78000	45
1.78367	44
1.78733	44
1.79100	44
1.79467	44
1.79833	43
1.80200	43
1.80567	44
1.80933	45
1.81300	47
1.81667	47
1.82033	46
1.82400	46
1.82767	46
1.83133	46
1.83500	47
1.83867	46
1.84233	46
1.84600	48
1.84967	47
1.85333	49
1.85700	52
1.86067	53
1.86433	54
1.86800	54
1.87167	55
1.87533	58
1.87900	60
1.88267	63
1.88633	63
1.89000	61
1.89367	60
1.89733	61
1.90100	63
1.90467	63
1.90833	64
1.91200	66
1.91567	66
1.91933	67
1.92300	66
1.92667	68
1.93033	69
1.93400	70
1.93767	70
1.94133	70
1.94500	70
1.94867	69
1.95233	70
1.95600	70
1.95967	70
1.96333	73
1.96700	74
1.97067	75
1.97433	76
1.97800	77
1.98167	77
1.98533	77
1.98900	79
1.99267	81
1.99633	83
2.00000	85
2.00367	83
2.00733	82
2.01100	83
2.01467	83
2.01833	85
2.02200	86
2.02567	86
2.02933	86
2.03300	88
2.03667	90
2.04033	91
2.04400	92
2.04767	93
2.05133	94
2.05500	93
2.05867	94
2.06233	94
2.06600	95
2.06967	93
2.07333	92
2.07700	92
2.08067	93
2.08433	94
2.08800	95
2.09167	96
2.09533	97
2.09900	98
2.10267	98
2.10633	99
2.11000	100
2.11367	102
2.11733	102
2.12100	104
2.12467	107
2.12833	108
2.13200	107
2.13567	104
2.13933	102
2.14300	101
2.14667	102
2.15033	104
2.15400	108
2.15767	111
2.16133	113
2.16500	112
2.16867	111
2.17233	112
2.17600	113
2.17967	114
2.18333	114
2.18700	116
2.19067	117
2.19433	117
2.19800	116
2.20167	116
2.20533	117
2.20900	118
2.21267	119
2.21633	118
2.22000	117
2.22367	115
2.22733	114
2.23100	114
2.23467	115
2.23833	116
2.24200	117
2.24567	117
2.24933	117
2.25300	117
2.25667	118
2.26033	119
2.26400	120
2.26767	121
2.27133	123
2.27500	126
2.27867	130
2.28233	133
2.28600	132
2.28967	130
2.29333	127
2.29700	125
2.30067	125
2.30433	127
2.30800	128
2.31167	129
2.31533	130
2.31900	130
2.32267	132
2.32633	132
2.33000	131
2.33367	130
2.33733	130
2.34100	130
2.34467	131
2.34833	132
2.35200	133
2.35567	137
2.35933	137
2.36300	138
2.36667	140
2.37033	142
2.37400	143
2.37767	142
2.38133	139
2.38500	136
2.38867	134
2.39233	134
2.39600	136
2.39967	138
2.40333	140
2.40700	143
2.41067	147
2.41433	151
2.41800	154
2.42167	156
2.42533	158
2.42900	158
2.43267	157
2.43633	155
2.44000	160
2.44367	226
2.44733	365
2.45100	523
2.45467	648
2.45833	738
2.46200	804
2.46567	850
2.46933	876
2.47300	888
2.47667	895
2.48033	901
2.48400	911
2.48767	924
2.49133	942
2.49500	961
2.49867	974
2.50233	977
2.50600	970
2.50967	957
2.51333	938
2.51700	916
2.52067	896
2.52433	883
2.52800	878
2.53167	874
2.53533	873
2.53900	873
2.54267	875
2.54633	878
2.55000	884
2.55367	895
2.55733	906
2.56100	916
2.56467	925
2.56833	933
2.57200	937
2.57567	936
2.57933	930
2.58300	921
2.58667	907
2.59033	889
2.59400	868
2.59767	849
2.60133	833
2.60500	820
2.60867	809
2.61233	797
2.61600	784
2.61967	773
2.62333	764
2.62700	757
2.63067	750
2.63433	743
2.63800	736
2.64167	730
2.64533	724
2.64900	717
2.65267	710
2.65633	706
2.66000	707
2.66367	710
2.66733	711
2.67100	712
2.67467	714
2.67833	717
2.68200	722
2.68567	726
2.68933	733
2.69300	740
2.69667	747
2.70033	752
2.70400	757
2.70767	762
2.71133	768
2.71500	773
2.71867	780
2.72233	784
2.72600	785
2.72967	786
2.73333	786
2.73700	784
2.74067	781
2.74433	780
2.74800	777
2.75167	773
2.75533	768
2.75900	763
2.76267	757
2.76633	750
2.77000	743
2.77367	735
2.77733	726
2.78100	720
2.78467	714
2.78833	709
2.79200	705
2.79567	703
2.79933	701
2.80300	698
2.80667	696
2.81033	694
2.81400	693
2.81767	689
2.82133	686
2.82500	684
2.82867	688
2.83233	695
2.83600	715
2.83967	762
2.84333	857
2.84700	1025
2.85067	1295
2.85433	1685
2.85800	2201
2.86167	2823
2.86533	3517
2.86900	4234
2.87267	4912
2.87633	5491
2.88000	5932
2.88367	6205
2.88733	6302
2.89100	6239
2.89467	6042
2.89833	5745
2.90200	5385
2.90567	4989
2.90933	4579
2.91300	4171
2.91667	3781
2.92033	3416
2.92400	3083
2.92767	2782
2.93133	2514
2.93500	2273
2.93867	2061
2.94233	1875
2.94600	1715
2.94967	1575
2.95333	1453
2.95700	1349
2.96067	1260
2.96433	1182
2.96800	1113
2.97167	1055
2.97533	1003
2.97900	958
2.98267	920
2.98633	889
2.99000	862
2.99367	839
2.99733	820
3.00100	802
3.00467	789
3.00833	780
3.01200	771
3.01567	762
3.01933	754
3.02300	749
3.02667	748
3.03033	745
3.03400	744
3.03767	743
3.04133	742
3.04500	740
3.04867	736
3.05233	733
3.05600	730
3.05967	731
3.06333	733
3.06700	736
3.07067	738
3.07433	736
3.07800	733
3.08167	732
3.08533	731
3.08900	731
3.09267	732
3.09633	731
3.10000	731
3.10367	730
3.10733	729
3.11100	727
3.11467	724
3.11833	725
3.12200	726
3.12567	727
3.12933	728
3.13300	728
3.13667	724
3.14033	720
3.14400	718
3.14767	716
3.15133	714
3.15500	714
3.15867	713
3.16233	714
3.16600	716
3.16967	719
3.17333	720
3.17700	719
3.18067	717
3.18433	716
3.18800	714
3.19167	712
3.19533	712
3.19900	712
3.20267	711
3.20633	710
3.21000	710
3.21367	709
3.21733	706
3.22100	703
3.22467	701
3.22833	701
3.23200	702
3.23567	702
3.23933	698
3.24300	695
3.24667	695
3.25033	696
3.25400	698
3.25767	696
3.26133	693
3.26500	691
3.26867	689
3.27233	687
3.27600	686
3.27967	684
3.28333	685
3.28700	686
3.29067	685
3.29433	685
3.29800	686
3.30167	687
3.30533	685
3.30900	682
3.31267	678
3.31633	673
3.32000	668
3.32367	664
3.32733	662
3.33100	660
3.33467	657
3.33833	655
3.34200	653
3.34567	652
3.34933	650
3.35300	649
3.35667	649
3.36033	649
3.36400	649
3.36767	648
3.37133	647
3.37500	646
3.37867	643
3.38233	640
3.38600	638
3.38967	636
3.39333	631
3.39700	628
3.40067	624
3.40433	621
3.40800	618
3.41167	616
3.41533	613
3.41900	608
3.42267	604
3.42633	602
3.43000	598
3.43367	594
3.43733	592
3.44100	591
3.44467	589
3.44833	588
3.45200	587
3.45567	586
3.45933	584
3.46300	582
3.46667	580
3.47033	576
3.47400	573
3.47767	571
3.48133	571
3.48500	570
3.48867	567
3.49233	565
3.49600	562
3.49967	560
3.50333	557
3.50700	553
3.51067	549
3.51433	547
3.51800	546
3.52167	545
3.52533	543
3.52900	540
3.53267	537
3.53633	537
3.54000	536
3.54367	534
3.54733	533
3.55100	531
3.55467	529
3.55833	525
3.56200	519
3.56567	515
3.56933	512
3.57300	511
3.57667	509
3.58033	509
3.58400	508
3.58767	508
3.59133	507
3.59500	504
3.59867	500
3.60233	498
3.60600	495
3.60967	494
3.61333	492
3.61700	488
3.62067	484
3.62433	483
3.62800	481
3.63167	478
3.63533	476
3.63900	473
3.64267	472
3.64633	472
3.65000	466
3.65367	462
3.65733	461
3.66100	460
3.66467	460
3.66833	461
3.67200	460
3.67567	459
3.67933	457
3.68300	455
3.68667	454
3.69033	452
3.69400	449
3.69767	448
3.70133	446
3.70500	445
3.70867	443
3.71233	441
3.71600	440
3.71967	438
3.72333	435
3.72700	433
3.73067	433
3.73433	433
3.73800	435
3.74167	435
3.74533	434
3.74900	433
3.75267	430
3.75633	425
3.76000	422
3.76367	420
3.76733	420
3.77100	421
3.77467	421
3.77833	421
3.78200	419
3.78567	417
3.78933	414
3.79300	414
3.79667	412
3.80033	411
3.80400	411
3.80767	411
3.81133	412
3.81500	414
3.81867	415
3.82233	416
3.82600	416
3.82967	414
3.83333	412
3.83700	409
3.84067	408
3.84433	408
3.84800	409
3.85167	409
3.85533	408
3.85900	405
3.86267	403
3.86633	402
3.87000	402
3.87367	403
3.87733	405
3.88100	405
3.88467	404
3.88833	405
3.89200	403
3.89567	402
3.89933	402
3.90300	403
3.90667	402
3.91033	402
3.91400	401
3.91767	401
3.92133	401
3.92500	402
3.92867	403
3.93233	404
3.93600	407
3.93967	408
3.94333	408
3.94700	407
3.95067	406
3.95433	403
3.95800	401
3.96167	400
3.96533	400
3.96900	402
3.97267	403
3.97633	405
3.98000	404
3.98367	404
3.98733	405
3.99100	405
3.99467	403
3.99833	402

[Status Trace (Column Oven Temperature)]
Interval(msec)	1000
# of Points	240
Start Time(min)	0.004
End Time(min)	3.988
Intensity Units	
Intensity Multiplier	1
R.Time (min)	Intensity
0.00448	35.03
0.02115	35.03
0.03782	35.04
0.05448	35.05
0.07115	35.05
0.08782	35.06
0.10448	35.06
0.12115	35.05
0.13782	35.05
0.15448	35.04
0.17115	35.04
0.18782	35.04
0.20448	35.04
0.22115	35.04
0.23782	35.03
0.25448	35.03
0.27115	35.03
0.28782	35.04
0.30448	35.02
0.32115	35.00
0.33782	34.99
0.35448	34.99
0.37115	35.00
0.38782	35.01
0.40448	35.03
0.42115	35.03
0.43782	35.02
0.45448	35.02
0.47115	35.01
0.48782	35.00
0.50448	34.99
0.52115	34.99
0.53782	35.00
0.55448	35.00
0.57115	35.00
0.58782	35.00
0.60448	35.00
0.62115	35.01
0.63782	35.00
0.65448	35.01
0.67115	35.01
0.68782	35.01
0.70448	35.02
0.72115	35.02
0.73782	35.02
0.75448	35.01
0.77115	35.00
0.78782	35.01
0.80448	35.02
0.82115	35.03
0.83782	35.03
0.85448	35.03
0.87115	35.03
0.88782	35.02
0.90448	35.01
0.92115	35.00
0.93782	35.00
0.95448	35.00
0.97115	35.00
0.98782	35.01
1.00448	35.01
1.02115	35.01
1.03782	35.02
1.05448	35.02
1.07115	35.01
1.08782	35.02
1.10448	35.03
1.12115	35.03
1.13782	35.02
1.15448	35.02
1.17115	35.02
1.18782	35.02
1.20448	35.02
1.22115	35.01
1.23782	35.00
1.25448	35.00
1.27115	35.00
1.28782	35.00
1.30448	35.00
1.32115	35.00
1.33782	35.00
1.35448	35.00
1.37115	35.01
1.38782	35.01
1.40448	35.01
1.42115	35.00
1.43782	35.01
1.45448	34.99
1.47115	34.98
1.48782	34.97
1.50448	34.98
1.52115	34.99
1.53782	34.99
1.55448	34.99
1.57115	35.00
1.58782	35.01
1.60448	35.06
1.62115	35.17
1.63782	35.35
1.65448	35.56
1.67115	35.86
1.68782	36.21
1.70448	36.56
1.72115	36.90
1.73782	37.26
1.75448	37.58
1.77115	37.93
1.78782	38.27
1.80448	38.57
1.82115	38.89
1.83782	39.21
1.85448	39.55
1.87115	39.86
1.88782	40.20
1.90448	40.52
1.92115	40.86
1.93782	41.17
1.95448	41.50
1.97115	41.83
1.98782	42.16
2.00448	42.49
2.02115	42.82
2.03782	43.15
2.05448	43.49
2.07115	43.81
2.08782	44.13
2.10448	44.44
2.12115	44.76
2.13782	45.10
2.15448	45.43
2.17115	45.74
2.18782	46.06
2.20448	46.40
2.22115	46.74
2.23782	47.05
2.25448	47.43
2.27115	47.79
2.28782	48.10
2.30448	48.42
2.32115	48.75
2.33782	49.07
2.35448	49.35
2.37115	49.60
2.38782	49.70
2.40448	49.70
2.42115	49.70
2.43782	49.70
2.45448	49.70
2.47115	49.70
2.48782	49.70
2.50448	49.70
2.52115	49.75
2.53782	49.76
2.55448	49.78
2.57115	49.79
2.58782	49.82
2.60448	49.82
2.62115	49.83
2.63782	49.82
2.65448	49.84
2.67115	49.83
2.68782	49.84
2.70448	49.85
2.72115	49.85
2.73782	49.86
2.75448	49.86
2.77115	49.84
2.78782	49.85
2.80448	49.87
2.82115	49.88
2.83782	49.89
2.85448	49.87
2.87115	49.87
2.88782	49.86
2.90448	49.88
2.92115	49.90
2.93782	49.91
2.95448	49.92
2.97115	49.94
2.98782	49.95
3.00448	49.96
3.02115	49.96
3.03782	49.96
3.05448	49.97
3.07115	49.97
3.08782	49.98
3.10448	49.99
3.12115	50.00
3.13782	50.00
3.15448	50.01
3.17115	50.01
3.18782	50.01
3.20448	50.02
3.22115	50.03
3.23782	50.04
3.25448	50.05
3.27115	50.06
3.28782	50.05
3.30448	50.06
3.32115	50.07
3.33782	50.08
3.35448	50.08
3.37115	50.10
3.38782	50.11
3.40448	50.10
3.42115	50.09
3.43782	50.09
3.45448	50.07
3.47115	50.06
3.48782	50.06
3.50448	50.06
3.52115	50.07
3.53782	50.07
3.55448	50.08
3.57115	50.08
3.58782	50.07
3.60448	50.07
3.62115	50.07
3.63782	50.06
3.65448	50.06
3.67115	50.07
3.68782	50.07
3.70448	50.08
3.72115	50.08
3.73782	50.08
3.75448	50.08
3.77115	50.08
3.78782	50.08
3.80448	50.09
3.82115	50.09
3.83782	50.09
3.85448	50.10
3.87115	50.09
3.88782	50.08
3.90448	50.07
3.92115	50.07
3.93782	50.06
3.95448	50.07
3.97115	50.07
3.98782	50.07

[Status Trace (Injection Unit Temperature)]
Interval(msec)	1000
# of Points	240
Start Time(min)	0.004
End Time(min)	3.988
Intensity Units	
Intensity Multiplier	1
R.Time (min)	Intensity
0.00448	99.98
0.02115	99.98
0.03782	99.98
0.05448	99.98
0.07115	99.98
0.08782	99.98
0.10448	99.98
0.12115	99.98
0.13782	99.98
0.15448	99.98
0.17115	99.98
0.18782	99.98
0.20448	99.98
0.22115	99.98
0.23782	99.98
0.25448	99.98
0.27115	99.98
0.28782	99.98
0.30448	99.98
0.32115	99.99
0.33782	99.99
0.35448	99.98
0.37115	99.98
0.38782	99.98
0.40448	99.99
0.42115	99.99
0.43782	99.99
0.45448	99.98
0.47115	99.98
0.48782	99.98
0.50448	99.98
0.52115	99.99
0.53782	99.98
0.55448	99.99
0.57115	99.98
0.58782	99.99
0.60448	99.98
0.62115	99.98
0.63782	99.98
0.65448	99.99
0.67115	99.99
0.68782	99.99
0.70448	99.99
0.72115	99.99
0.73782	99.99
0.75448	99.99
0.77115	99.98
0.78782	99.99
0.80448	99.98
0.82115	99.98
0.83782	99.99
0.85448	99.99
0.87115	99.99
0.88782	99.99
0.90448	99.99
0.92115	99.99
0.93782	99.99
0.95448	99.99
0.97115	99.99
0.98782	99.99
1.00448	99.99
1.02115	99.99
1.03782	99.98
1.05448	99.98
1.07115	99.98
1.08782	99.98
1.10448	99.99
1.12115	99.98
1.13782	99.98
1.15448	99.99
1.17115	99.99
1.18782	99.98
1.20448	99.98
1.22115	99.98
1.23782	99.99
1.25448	99.99
1.27115	99.98
1.28782	99.99
1.30448	99.99
1.32115	99.98
1.33782	99.98
1.35448	99.99
1.37115	99.98
1.38782	99.99
1.40448	99.99
1.42115	99.99
1.43782	99.99
1.45448	99.99
1.47115	99.98
1.48782	99.99
1.50448	99.99
1.52115	99.98
1.53782	99.99
1.55448	99.99
1.57115	99.99
1.58782	99.99
1.60448	99.99
1.62115	99.99
1.63782	99.99
1.65448	99.99
1.67115	99.99
1.68782	99.99
1.70448	99.99
1.72115	99.99
1.73782	99.98
1.75448	99.99
1.77115	99.99
1.78782	99.98
1.80448	99.99
1.82115	99.98
1.83782	99.98
1.85448	99.99
1.87115	99.99
1.88782	99.98
1.90448	99.98
1.92115	99.98
1.93782	99.98
1.95448	99.98
1.97115	99.98
1.98782	99.98
2.00448	99.98
2.02115	99.98
2.03782	99.98
2.05448	99.98
2.07115	99.98
2.08782	99.97
2.10448	99.97
2.12115	99.98
2.13782	99.97
2.15448	99.97
2.17115	99.97
2.18782	99.97
2.20448	99.97
2.22115	99.97
2.23782	99.97
2.25448	99.97
2.27115	99.97
2.28782	99.97
2.30448	99.97
2.32115	99.97
2.33782	99.97
2.35448	99.97
2.37115	99.97
2.38782	99.98
2.40448	99.97
2.42115	99.97
2.43782	99.97
2.45448	99.98
2.47115	99.97
2.48782	99.97
2.50448	99.98
2.52115	99.98
2.53782	99.97
2.55448	99.98
2.57115	99.98
2.58782	99.97
2.60448	99.98
2.62115	99.98
2.63782	99.98
2.65448	99.98
2.67115	99.98
2.68782	99.99
2.70448	99.99
2.72115	99.99
2.73782	99.99
2.75448	99.99
2.77115	99.99
2.78782	99.99
2.80448	100.00
2.82115	100.00
2.83782	100.00
2.85448	100.00
2.87115	100.00
2.88782	100.00
2.90448	100.01
2.92115	100.01
2.93782	100.01
2.95448	100.00
2.97115	100.01
2.98782	100.01
3.00448	100.01
3.02115	100.01
3.03782	100.01
3.05448	100.01
3.07115	100.02
3.08782	100.02
3.10448	100.02
3.12115	100.01
3.13782	100.02
3.15448	100.02
3.17115	100.02
3.18782	100.02
3.20448	100.02
3.22115	100.02
3.23782	100.03
3.25448	100.02
3.27115	100.03
3.28782	100.02
3.30448	100.03
3.32115	100.03
3.33782	100.03
3.35448	100.03
3.37115	100.03
3.38782	100.03
3.40448	100.03
3.42115	100.03
3.43782	100.04
3.45448	100.04
3.47115	100.04
3.48782	100.04
3.50448	100.04
3.52115	100.04
3.53782	100.04
3.55448	100.04
3.57115	100.04
3.58782	100.04
3.60448	100.04
3.62115	100.04
3.63782	100.04
3.65448	100.05
3.67115	100.05
3.68782	100.04
3.70448	100.04
3.72115	100.05
3.73782	100.05
3.75448	100.05
3.77115	100.05
3.78782	100.05
3.80448	100.05
3.82115	100.05
3.83782	100.05
3.85448	100.05
3.87115	100.05
3.88782	100.05
3.90448	100.05
3.92115	100.05
3.93782	100.05
3.95448	100.05
3.97115	100.05
3.98782	100.05

[Status Trace (Carrier Gas Pressure)]
Interval(msec)	1000
# of Points	240
Start Time(min)	0.004
End Time(min)	3.988
Intensity Units	
Intensity Multiplier	1
R.Time (min)	Intensity
0.00448	58.00
0.02115	55.92
0.03782	56.64
0.05448	58.76
0.07115	59.77
0.08782	58.19
0.10448	57.97
0.12115	58.00
0.13782	58.01
0.15448	58.01
0.17115	58.00
0.18782	58.00
0.20448	58.00
0.22115	58.00
0.23782	58.00
0.25448	58.00
0.27115	58.00
0.28782	58.00
0.30448	58.00
0.32115	58.00
0.33782	58.00
0.35448	58.00
0.37115	58.00
0.38782	58.00
0.40448	58.00
0.42115	58.00
0.43782	58.00
0.45448	58.00
0.47115	58.00
0.48782	58.00
0.50448	58.00
0.52115	58.00
0.53782	58.00
0.55448	58.00
0.57115	58.00
0.58782	58.00
0.60448	58.00
0.62115	58.00
0.63782	58.00
0.65448	58.00
0.67115	58.00
0.68782	58.00
0.70448	58.00
0.72115	58.00
0.73782	58.00
0.75448	58.00
0.77115	58.00
0.78782	58.00
0.80448	58.00
0.82115	58.00
0.83782	58.00
0.85448	58.00
0.87115	58.00
0.88782	58.00
0.90448	58.00
0.92115	58.00
0.93782	58.00
0.95448	58.00
0.97115	58.00
0.98782	58.00
1.00448	58.00
1.02115	58.00
1.03782	58.00
1.05448	58.00
1.07115	58.00
1.08782	58.00
1.10448	58.00
1.12115	58.00
1.13782	58.00
1.15448	58.00
1.17115	58.00
1.18782	58.00
1.20448	58.00
1.22115	58.00
1.23782	58.00
1.25448	58.00
1.27115	58.00
1.28782	58.00
1.30448	58.00
1.32115	58.00
1.33782	58.00
1.35448	58.00
1.37115	58.00
1.38782	58.00
1.40448	58.00
1.42115	58.00
1.43782	58.00
1.45448	58.00
1.47115	58.00
1.48782	58.00
1.50448	58.00
1.52115	58.00
1.53782	58.00
1.55448	58.00
1.57115	58.00
1.58782	58.00
1.60448	58.00
1.62115	58.00
1.63782	58.00
1.65448	58.00
1.67115	58.00
1.68782	58.01
1.70448	58.00
1.72115	58.00
1.73782	58.00
1.75448	58.00
1.77115	58.00
1.78782	58.00
1.80448	58.00
1.82115	58.00
1.83782	58.00
1.85448	58.00
1.87115	58.00
1.88782	58.00
1.90448	58.00
1.92115	58.00
1.93782	58.00
1.95448	58.00
1.97115	58.00
1.98782	58.00
2.00448	58.00
2.02115	58.00
2.03782	58.00
2.05448	58.00
2.07115	58.00
2.08782	58.00
2.10448	58.00
2.12115	58.00
2.13782	58.00
2.15448	58.00
2.17115	58.00
2.18782	58.00
2.20448	58.00
2.22115	58.00
2.23782	58.00
2.25448	58.00
2.27115	58.00
2.28782	58.00
2.30448	58.00
2.32115	58.00
2.33782	58.00
2.35448	58.00
2.37115	58.00
2.38782	57.99
2.40448	57.99
2.42115	58.00
2.43782	58.00
2.45448	58.00
2.47115	58.00
2.48782	58.00
2.50448	57.98
2.52115	58.00
2.53782	57.99
2.55448	58.00
2.57115	58.00
2.58782	58.00
2.60448	58.00
2.62115	58.00
2.63782	58.00
2.65448	58.00
2.67115	58.00
2.68782	58.00
2.70448	58.00
2.72115	58.00
2.73782	58.00
2.75448	58.00
2.77115	58.00
2.78782	58.00
2.80448	58.00
2.82115	58.00
2.83782	58.00
2.85448	58.00
2.87115	58.00
2.88782	58.00
2.90448	58.00
2.92115	58.00
2.93782	58.00
2.95448	58.00
2.97115	58.00
2.98782	58.00
3.00448	58.00
3.02115	58.00
3.03782	58.00
3.05448	58.00
3.07115	58.00
3.08782	58.00
3.10448	58.00
3.12115	58.00
3.13782	58.00
3.15448	58.00
3.17115	58.00
3.18782	58.00
3.20448	58.00
3.22115	58.00
3.23782	58.00
3.25448	58.00
3.27115	58.00
3.28782	58.00
3.30448	58.00
3.32115	58.00
3.33782	58.00
3.35448	58.00
3.37115	58.00
3.38782	58.00
3.40448	58.00
3.42115	58.00
3.43782	58.00
3.45448	58.00
3.47115	58.00
3.48782	58.00
3.50448	58.00
3.52115	58.00
3.53782	58.00
3.55448	58.00
3.57115	58.00
3.58782	58.00
3.60448	58.00
3.62115	58.00
3.63782	58.00
3.65448	58.00
3.67115	58.00
3.68782	58.00
3.70448	58.00
3.72115	58.00
3.73782	58.00
3.75448	58.00
3.77115	58.00
3.78782	58.00
3.80448	58.00
3.82115	58.00
3.83782	58.00
3.85448	58.00
3.87115	58.00
3.88782	58.00
3.90448	58.00
3.92115	58.00
3.93782	58.00
3.95448	58.00
3.97115	58.00
3.98782	58.00

[Status Trace (Carrier Gas Flow)]
Interval(msec)	1000
# of Points	240
Start Time(min)	0.004
End Time(min)	3.988
Intensity Units	
Intensity Multiplier	1
R.Time (min)	Intensity
0.00448	34.52
0.02115	34.55
0.03782	34.54
0.05448	34.55
0.07115	34.49
0.08782	34.51
0.10448	34.52
0.12115	34.52
0.13782	34.51
0.15448	34.52
0.17115	34.52
0.18782	34.52
0.20448	34.52
0.22115	34.53
0.23782	34.51
0.25448	34.51
0.27115	34.52
0.28782	34.52
0.30448	34.51
0.32115	34.52
0.33782	34.52
0.35448	34.52
0.37115	34.52
0.38782	34.52
0.40448	34.52
0.42115	34.52
0.43782	34.52
0.45448	34.52
0.47115	34.52
0.48782	34.52
0.50448	34.52
0.52115	34.52
0.53782	34.52
0.55448	34.52
0.57115	34.52
0.58782	34.52
0.60448	34.52
0.62115	34.52
0.63782	34.52
0.65448	34.52
0.67115	34.52
0.68782	34.52
0.70448	34.52
0.72115	34.52
0.73782	34.52
0.75448	34.52
0.77115	34.52
0.78782	34.52
0.80448	34.52
0.82115	34.52
0.83782	34.53
0.85448	34.52
0.87115	34.52
0.88782	34.52
0.90448	34.52
0.92115	34.52
0.93782	34.52
0.95448	34.52
0.97115	34.52
0.98782	34.52
1.00448	34.52
1.02115	34.52
1.03782	34.52
1.05448	34.52
1.07115	34.52
1.08782	34.52
1.10448	34.51
1.12115	34.52
1.13782	34.52
1.15448	34.52
1.17115	34.52
1.18782	34.52
1.20448	34.52
1.22115	34.52
1.23782	34.52
1.25448	34.52
1.27115	34.52
1.28782	34.52
1.30448	34.52
1.32115	34.52
1.33782	34.52
1.35448	34.52
1.37115	34.52
1.38782	34.52
1.40448	34.52
1.42115	34.52
1.43782	34.52
1.45448	34.52
1.47115	34.52
1.48782	34.52
1.50448	34.52
1.52115	34.52
1.53782	34.52
1.55448	34.52
1.57115	34.52
1.58782	34.52
1.60448	34.52
1.62115	34.52
1.63782	34.51
1.65448	34.52
1.67115	34.52
1.68782	34.52
1.70448	34.52
1.72115	34.52
1.73782	34.52
1.75448	34.52
1.77115	34.52
1.78782	34.52
1.80448	34.52
1.82115	34.51
1.83782	34.52
1.85448	34.52
1.87115	34.51
1.88782	34.52
1.90448	34.52
1.92115	34.53
1.93782	34.51
1.95448	34.52
1.97115	34.53
1.98782	34.52
2.00448	34.52
2.02115	34.52
2.03782	34.53
2.05448	34.52
2.07115	34.52
2.08782	34.52
2.10448	34.52
2.12115	34.52
2.13782	34.52
2.15448	34.52
2.17115	34.52
2.18782	34.52
2.20448	34.52
2.22115	34.51
2.23782	34.52
2.25448	34.52
2.27115	34.52
2.28782	34.51
2.30448	34.52
2.32115	34.52
2.33782	34.51
2.35448	34.52
2.37115	34.52
2.38782	34.51
2.40448	34.52
2.42115	34.52
2.43782	34.52
2.45448	34.52
2.47115	34.52
2.48782	34.52
2.50448	34.61
2.52115	34.52
2.53782	34.52
2.55448	34.52
2.57115	34.52
2.58782	34.52
2.60448	34.52
2.62115	34.52
2.63782	34.51
2.65448	34.51
2.67115	34.52
2.68782	34.52
2.70448	34.52
2.72115	34.52
2.73782	34.52
2.75448	34.52
2.77115	34.52
2.78782	34.52
2.80448	34.53
2.82115	34.52
2.83782	34.52
2.85448	34.52
2.87115	34.52
2.88782	34.52
2.90448	34.51
2.92115	34.52
2.93782	34.53
2.95448	34.51
2.97115	34.51
2.98782	34.52
3.00448	34.52
3.02115	34.52
3.03782	34.52
3.05448	34.52
3.07115	34.52
3.08782	34.52
3.10448	34.52
3.12115	34.53
3.13782	34.52
3.15448	34.52
3.17115	34.52
3.18782	34.52
3.20448	34.52
3.22115	34.52
3.23782	34.52
3.25448	34.52
3.27115	34.52
3.28782	34.52
3.30448	34.52
3.32115	34.52
3.33782	34.53
3.35448	34.52
3.37115	34.51
3.38782	34.52
3.40448	34.52
3.42115	34.52
3.43782	34.52
3.45448	34.52
3.47115	34.51
3.48782	34.52
3.50448	34.52
3.52115	34.52
3.53782	34.52
3.55448	34.52
3.57115	34.52
3.58782	34.51
3.60448	34.52
3.62115	34.52
3.63782	34.52
3.65448	34.51
3.67115	34.52
3.68782	34.52
3.70448	34.51
3.72115	34.52
3.73782	34.52
3.75448	34.52
3.77115	34.52
3.78782	34.53
3.80448	34.52
3.82115	34.52
3.83782	34.51
3.85448	34.53
3.87115	34.52
3.88782	34.51
3.90448	34.52
3.92115	34.52
3.93782	34.52
3.95448	34.51
3.97115	34.52
3.98782	34.52

[Status Trace (Column Flow)]
Interval(msec)	1000
# of Points	240
Start Time(min)	0.004
End Time(min)	3.988
Intensity Units	
Intensity Multiplier	1
R.Time (min)	Intensity
0.00448	5.50
0.02115	5.26
0.03782	5.34
0.05448	5.58
0.07115	5.70
0.08782	5.52
0.10448	5.49
0.12115	5.50
0.13782	5.50
0.15448	5.50
0.17115	5.50
0.18782	5.50
0.20448	5.50
0.22115	5.50
0.23782	5.50
0.25448	5.50
0.27115	5.50
0.28782	5.50
0.30448	5.50
0.32115	5.50
0.33782	5.50
0.35448	5.50
0.37115	5.50
0.38782	5.50
0.40448	5.50
0.42115	5.50
0.43782	5.50
0.45448	5.50
0.47115	5.50
0.48782	5.50
0.50448	5.50
0.52115	5.50
0.53782	5.50
0.55448	5.50
0.57115	5.50
0.58782	5.50
0.60448	5.50
0.62115	5.50
0.63782	5.50
0.65448	5.50
0.67115	5.50
0.68782	5.50
0.70448	5.50
0.72115	5.50
0.73782	5.50
0.75448	5.50
0.77115	5.50
0.78782	5.50
0.80448	5.50
0.82115	5.50
0.83782	5.50
0.85448	5.50
0.87115	5.50
0.88782	5.50
0.90448	5.50
0.92115	5.50
0.93782	5.50
0.95448	5.50
0.97115	5.50
0.98782	5.50
1.00448	5.50
1.02115	5.50
1.03782	5.50
1.05448	5.50
1.07115	5.50
1.08782	5.50
1.10448	5.50
1.12115	5.50
1.13782	5.50
1.15448	5.50
1.17115	5.50
1.18782	5.50
1.20448	5.50
1.22115	5.50
1.23782	5.50
1.25448	5.50
1.27115	5.50
1.28782	5.50
1.30448	5.50
1.32115	5.50
1.33782	5.50
1.35448	5.50
1.37115	5.50
1.38782	5.50
1.40448	5.50
1.42115	5.50
1.43782	5.50
1.45448	5.50
1.47115	5.50
1.48782	5.50
1.50448	5.50
1.52115	5.50
1.53782	5.50
1.55448	5.50
1.57115	5.50
1.58782	5.50
1.60448	5.49
1.62115	5.49
1.63782	5.49
1.65448	5.48
1.67115	5.47
1.68782	5.46
1.70448	5.45
1.72115	5.44
1.73782	5.43
1.75448	5.42
1.77115	5.41
1.78782	5.40
1.80448	5.39
1.82115	5.38
1.83782	5.37
1.85448	5.36
1.87115	5.35
1.88782	5.34
1.90448	5.33
1.92115	5.32
1.93782	5.31
1.95448	5.30
1.97115	5.29
1.98782	5.28
2.00448	5.27
2.02115	5.26
2.03782	5.25
2.05448	5.24
2.07115	5.23
2.08782	5.22
2.10448	5.21
2.12115	5.20
2.13782	5.19
2.15448	5.18
2.17115	5.17
2.18782	5.17
2.20448	5.16
2.22115	5.15
2.23782	5.14
2.25448	5.13
2.27115	5.12
2.28782	5.11
2.30448	5.10
2.32115	5.09
2.33782	5.08
2.35448	5.07
2.37115	5.07
2.38782	5.06
2.40448	5.06
2.42115	5.06
2.43782	5.06
2.45448	5.06
2.47115	5.06
2.48782	5.06
2.50448	5.06
2.52115	5.06
2.53782	5.06
2.55448	5.06
2.57115	5.06
2.58782	5.06
2.60448	5.06
2.62115	5.06
2.63782	5.06
2.65448	5.06
2.67115	5.06
2.68782	5.06
2.70448	5.06
2.72115	5.06
2.73782	5.06
2.75448	5.06
2.77115	5.06
2.78782	5.06
2.80448	5.06
2.82115	5.06
2.83782	5.06
2.85448	5.06
2.87115	5.06
2.88782	5.06
2.90448	5.06
2.92115	5.06
2.93782	5.06
2.95448	5.06
2.97115	5.06
2.98782	5.06
3.00448	5.06
3.02115	5.06
3.03782	5.06
3.05448	5.06
3.07115	5.06
3.08782	5.06
3.10448	5.06
3.12115	5.06
3.13782	5.06
3.15448	5.05
3.17115	5.05
3.18782	5.05
3.20448	5.05
3.22115	5.05
3.23782	5.05
3.25448	5.05
3.27115	5.05
3.28782	5.05
3.30448	5.05
3.32115	5.05
3.33782	5.05
3.35448	5.05
3.37115	5.05
3.38782	5.05
3.40448	5.05
3.42115	5.05
3.43782	5.05
3.45448	5.05
3.47115	5.05
3.48782	5.05
3.50448	5.05
3.52115	5.05
3.53782	5.05
3.55448	5.05
3.57115	5.05
3.58782	5.05
3.60448	5.05
3.62115	5.05
3.63782	5.05
3.65448	5.05
3.67115	5.05
3.68782	5.05
3.70448	5.05
3.72115	5.05
3.73782	5.05
3.75448	5.05
3.77115	5.05
3.78782	5.05
3.80448	5.05
3.82115	5.05
3.83782	5.05
3.85448	5.05
3.87115	5.05
3.88782	5.05
3.90448	5.05
3.92115	5.05
3.93782	5.05
3.95448	5.05
3.97115	5.05
3.98782	5.05

[Status Trace (Linear Velocity)]
Interval(msec)	1000
# of Points	240
Start Time(min)	0.004
End Time(min)	3.988
Intensity Units	
Intensity Multiplier	1
R.Time (min)	Intensity
0.00448	39.01
0.02115	37.64
0.03782	38.11
0.05448	39.50
0.07115	40.17
0.08782	39.13
0.10448	38.99
0.12115	39.01
0.13782	39.01
0.15448	39.01
0.17115	39.01
0.18782	39.01
0.20448	39.01
0.22115	39.01
0.23782	39.01
0.25448	39.01
0.27115	39.01
0.28782	39.01
0.30448	39.01
0.32115	39.01
0.33782	39.01
0.35448	39.01
0.37115	39.01
0.38782	39.01
0.40448	39.01
0.42115	39.01
0.43782	39.01
0.45448	39.01
0.47115	39.01
0.48782	39.01
0.50448	39.01
0.52115	39.01
0.53782	39.01
0.55448	39.01
0.57115	39.01
0.58782	39.01
0.60448	39.01
0.62115	39.01
0.63782	39.01
0.65448	39.01
0.67115	39.01
0.68782	39.01
0.70448	39.01
0.72115	39.01
0.73782	39.01
0.75448	39.01
0.77115	39.01
0.78782	39.01
0.80448	39.01
0.82115	39.01
0.83782	39.01
0.85448	39.01
0.87115	39.01
0.88782	39.01
0.90448	39.01
0.92115	39.01
0.93782	39.01
0.95448	39.01
0.97115	39.01
0.98782	39.01
1.00448	39.01
1.02115	39.01
1.03782	39.01
1.05448	39.01
1.07115	39.01
1.08782	39.01
1.10448	39.01
1.12115	39.01
1.13782	39.01
1.15448	39.01
1.17115	39.01
1.18782	39.01
1.20448	39.01
1.22115	39.01
1.23782	39.01
1.25448	39.01
1.27115	39.01
1.28782	39.01
1.30448	39.01
1.32115	39.01
1.33782	39.01
1.35448	39.01
1.37115	39.01
1.38782	39.01
1.40448	39.01
1.42115	39.01
1.43782	39.01
1.45448	39.01
1.47115	39.01
1.48782	39.01
1.50448	39.01
1.52115	39.01
1.53782	39.01
1.55448	39.01
1.57115	39.01
1.58782	39.01
1.60448	39.01
1.62115	39.00
1.63782	38.98
1.65448	38.96
1.67115	38.93
1.68782	38.90
1.70448	38.86
1.72115	38.83
1.73782	38.80
1.75448	38.76
1.77115	38.73
1.78782	38.70
1.80448	38.67
1.82115	38.64
1.83782	38.61
1.85448	38.58
1.87115	38.55
1.88782	38.52
1.90448	38.49
1.92115	38.46
1.93782	38.43
1.95448	38.40
1.97115	38.37
1.98782	38.33
2.00448	38.30
2.02115	38.27
2.03782	38.24
2.05448	38.21
2.07115	38.18
2.08782	38.15
2.10448	38.13
2.12115	38.10
2.13782	38.07
2.15448	38.04
2.17115	38.01
2.18782	37.98
2.20448	37.95
2.22115	37.92
2.23782	37.89
2.25448	37.86
2.27115	37.82
2.28782	37.79
2.30448	37.77
2.32115	37.74
2.33782	37.71
2.35448	37.68
2.37115	37.66
2.38782	37.65
2.40448	37.65
2.42115	37.65
2.43782	37.65
2.45448	37.65
2.47115	37.65
2.48782	37.65
2.50448	37.64
2.52115	37.65
2.53782	37.64
2.55448	37.65
2.57115	37.65
2.58782	37.64
2.60448	37.64
2.62115	37.64
2.63782	37.64
2.65448	37.64
2.67115	37.64
2.68782	37.64
2.70448	37.64
2.72115	37.64
2.73782	37.64
2.75448	37.64
2.77115	37.64
2.78782	37.64
2.80448	37.64
2.82115	37.64
2.83782	37.64
2.85448	37.64
2.87115	37.64
2.88782	37.64
2.90448	37.64
2.92115	37.64
2.93782	37.63
2.95448	37.63
2.97115	37.63
2.98782	37.63
3.00448	37.63
3.02115	37.63
3.03782	37.63
3.05448	37.63
3.07115	37.63
3.08782	37.63
3.10448	37.63
3.12115	37.63
3.13782	37.63
3.15448	37.63
3.17115	37.63
3.18782	37.63
3.20448	37.63
3.22115	37.62
3.23782	37.62
3.25448	37.62
3.27115	37.62
3.28782	37.62
3.30448	37.62
3.32115	37.62
3.33782	37.62
3.35448	37.62
3.37115	37.62
3.38782	37.62
3.40448	37.62
3.42115	37.62
3.43782	37.62
3.45448	37.62
3.47115	37.62
3.48782	37.62
3.50448	37.62
3.52115	37.62
3.53782	37.62
3.55448	37.62
3.57115	37.62
3.58782	37.62
3.60448	37.62
3.62115	37.62
3.63782	37.62
3.65448	37.62
3.67115	37.62
3.68782	37.62
3.70448	37.62
3.72115	37.62
3.73782	37.62
3.75448	37.62
3.77115	37.62
3.78782	37.62
3.80448	37.62
3.82115	37.62
3.83782	37.62
3.85448	37.62
3.87115	37.62
3.88782	37.62
3.90448	37.62
3.92115	37.62
3.93782	37.62
3.95448	37.62
3.97115	37.62
3.98782	37.62

