[Header]
Application Name	LabSolutions
Version	5.110
Data File Name	C:\Users\User\Desktop\Junior\UIC Prairie Sampling\6.15.23\06152023_058.gcd
Output Date	6/26/2023
Output Time	12:05:10 PM

[File Information]
Type	Data File
Generated	6/23/2023 5:52:00 PM
Generated by	System Administrator
Modified	6/23/2023 5:59:20 PM
Modified by	System Administrator

[Sample Information]
Operator Name	System Administrator
Acquired	6/23/2023 5:55:19 PM
Sample Type	0:Unknown
Level	0
Sample Name	058
Sample ID	058
ISTD Amount1	1
ISTD Amount2	1
ISTD Amount3	1
ISTD Amount4	1
ISTD Amount5	1
ISTD Amount6	1
ISTD Amount7	1
ISTD Amount8	1
ISTD Amount9	1
ISTD Amount10	1
ISTD Amount11	1
ISTD Amount12	1
ISTD Amount13	1
ISTD Amount14	1
ISTD Amount15	1
ISTD Amount16	1
ISTD Amount17	1
ISTD Amount18	1
ISTD Amount19	1
ISTD Amount20	1
ISTD Amount21	1
ISTD Amount22	1
ISTD Amount23	1
ISTD Amount24	1
ISTD Amount25	1
ISTD Amount26	1
ISTD Amount27	1
ISTD Amount28	1
ISTD Amount29	1
ISTD Amount30	1
ISTD Amount31	1
ISTD Amount32	1
Sample Amount	1
Dilution Factor	1
Vial#	57
Injection Volume	1
Injection Count	1
Bar Code	

[Original Files]
Data File	C:\Users\User\Desktop\Junior\UIC Prairie Sampling\6.15.23\06152023_058.gcd
Method File	C:\LabSolutions\Data\GHG_4min_2022\ghg3_togas_w_acet_4 min_new_int.gcm
Batch File	C:\LabSolutions\Data\AutoSamplerTesting\06152023.gcb
Report Format File	c:\LabSolutions\System\DEFAULT.lsr

[File Description]


[Configuration]
Instrument Name	C0B7VH3-Instrument1
Instrument #	1
Line #	1
# of Detectors	3
Detector ID	DET#1	DET#2	DET#3
Detector Name	FID	PTCD	ECD
# of Channels	1	1	1

[Peak Table(Ch1)]
# of Peaks	3
Peak#	R.Time	I.Time	F.Time	Area	Height	A/H	Conc.	Mark	ID#	Name	k'	Plate #	Plate Ht.	Tailing	Resolution	Sep.Factor	Area Ratio	Height Ratio	Conc. %	Norm Conc.
1	1.472	1.432	1.523	3377	1678	2.012	0.000	   	1	CO	0.000	9733	15.412	1.364	0.000	0.000	0	0	0.000	0.000
2	1.564	1.523	1.630	4046	2037	1.986	19.725	 V 	2	CH4	0.062	11609	12.921	1.104	1.557	0.000	0	0	3.776	3.776
3	1.989	1.941	2.741	2608506	1245752	2.094	502.707	   	3	CO2	0.351	17351	8.645	1.287	7.182	5.640	0	0	96.224	96.224

[Peak Table(Ch2)]
# of Peaks	0

[Peak Table(Ch3)]
# of Peaks	4
Peak#	R.Time	I.Time	F.Time	Area	Height	A/H	Conc.	Mark	ID#	Name	k'	Plate #	Plate Ht.	Tailing	Resolution	Sep.Factor	Area Ratio	Height Ratio	Conc. %	Norm Conc.
1	2.462	2.436	2.491	936	418	2.239	0.000	   			0.000	10167	14.753	0.000	0.000	0.000	0	0	0.000	0.000
2	2.579	2.491	2.664	7161	863	8.293	0.000	 V 			0.048	1442	103.999	0.000	0.635	0.000	0	0	0.000	0.000
3	2.733	2.664	2.829	5981	671	8.908	0.088	 V 	1	N2O	0.110	70	2141.491	0.000	0.195	2.313	0	0	13.982	13.982
4	2.887	2.829	3.874	36795	5208	7.065	0.544	 V 	1	N2O	0.173	11611	12.919	0.000	0.218	1.568	0	0	86.018	86.018

[Compound Results(Ch1)]
# of IDs	6
ID#	Name	R.Time	Area	Height	Conc.	Curve	3rd	2nd	1st	Constant	Area Ratio	Height Ratio	Conc. %	Norm Conc.
1	CO	1.472	3377	1678	0.000	Linear	0.000000e+00	0.000000e+00	0.000000e+00	0.000000e+00	0	0	0.000	0.000
2	CH4	1.564	4046	2037	19.725	Linear	0.000000e+00	0.000000e+00	2.051179e+002	0.000000e+00	0	0	3.776	3.776
3	CO2	1.989	2608506	1245752	502.707	Linear	0.000000e+00	0.000000e+00	5.188919e+003	0.000000e+00	0	0	96.224	96.224
4	Ethylene	0.000	0	0	0.000	Linear	0.000000e+00	0.000000e+00	0.000000e+00	0.000000e+00	0	0	0.000	0.000
5	Acetylene	0.000	0	0	0.000	Linear	0.000000e+00	0.000000e+00	0.000000e+00	0.000000e+00	0	0	0.000	0.000
6	Ethane	0.000	0	0	0.000	Linear	0.000000e+00	0.000000e+00	0.000000e+00	0.000000e+00	0	0	0.000	0.000

[Compound Results(Ch2)]
# of IDs	5
ID#	Name	R.Time	Area	Height	Conc.	Curve	3rd	2nd	1st	Constant	Area Ratio	Height Ratio	Conc. %	Norm Conc.
1	Hydrogen	0.000	0	0	0.000	Linear	0.000000e+00	0.000000e+00	0.000000e+00	0.000000e+00	0	0	0.000	0.000
2	Oxygen	0.000	0	0	0.000	Linear	0.000000e+00	0.000000e+00	0.000000e+00	0.000000e+00	0	0	0.000	0.000
3	Nitrogen	0.000	0	0	0.000	Linear	0.000000e+00	0.000000e+00	0.000000e+00	0.000000e+00	0	0	0.000	0.000
4	Methane	0.000	0	0	0.000	Linear	0.000000e+00	0.000000e+00	0.000000e+00	0.000000e+00	0	0	0.000	0.000
5	Carbon Monoxide	0.000	0	0	0.000	Linear	0.000000e+00	0.000000e+00	0.000000e+00	0.000000e+00	0	0	0.000	0.000

[Compound Results(Ch3)]
# of IDs	2
ID#	Name	R.Time	Area	Height	Conc.	Curve	3rd	2nd	1st	Constant	Area Ratio	Height Ratio	Conc. %	Norm Conc.
1	N2O	2.887	42776	5879	0.633	Linear	0.000000e+00	0.000000e+00	6.759880e+004	0.000000e+00	0	0	100.000	100.000
2	SF6	0.000	0	0	0.000	Linear	0.000000e+00	0.000000e+00	0.000000e+00	0.000000e+00	0	0	0.000	0.000

[Group Results(Ch1)]
# of Groups	0

[Group Results(Ch2)]
# of Groups	0

[Group Results(Ch3)]
# of Groups	0

[Chromatogram (Ch1)]
Interval(msec)	220
# of Points	1091
Start Time(min)	0.002
End Time(min)	3.998
R.Time (min)	Intensity
0.00167	1
0.00533	12
0.00900	19
0.01267	23
0.01633	29
0.02000	36
0.02367	39
0.02733	39
0.03100	34
0.03467	29
0.03833	26
0.04200	26
0.04567	29
0.04933	30
0.05300	35
0.05667	40
0.06033	45
0.06400	48
0.06767	49
0.07133	46
0.07500	38
0.07867	33
0.08233	32
0.08600	31
0.08967	32
0.09333	35
0.09700	38
0.10067	38
0.10433	37
0.10800	37
0.11167	38
0.11533	42
0.11900	44
0.12267	45
0.12633	49
0.13000	54
0.13367	59
0.13733	62
0.14100	63
0.14467	61
0.14833	61
0.15200	62
0.15567	65
0.15933	67
0.16300	64
0.16667	53
0.17033	38
0.17400	29
0.17767	28
0.18133	33
0.18500	36
0.18867	32
0.19233	23
0.19600	15
0.19967	11
0.20333	10
0.20700	7
0.21067	3
0.21433	-3
0.21800	-11
0.22167	-12
0.22533	-13
0.22900	-15
0.23267	-14
0.23633	-11
0.24000	-5
0.24367	3
0.24733	10
0.25100	17
0.25467	22
0.25833	23
0.26200	19
0.26567	12
0.26933	10
0.27300	14
0.27667	21
0.28033	28
0.28400	31
0.28767	31
0.29133	30
0.29500	27
0.29867	23
0.30233	20
0.30600	17
0.30967	17
0.31333	19
0.31700	23
0.32067	31
0.32433	40
0.32800	45
0.33167	43
0.33533	32
0.33900	19
0.34267	10
0.34633	7
0.35000	7
0.35367	10
0.35733	16
0.36100	23
0.36467	29
0.36833	33
0.37200	33
0.37567	35
0.37933	41
0.38300	52
0.38667	62
0.39033	62
0.39400	50
0.39767	34
0.40133	17
0.40500	1
0.40867	-12
0.41233	-23
0.41600	-31
0.41967	-36
0.42333	-37
0.42700	-36
0.43067	-31
0.43433	-24
0.43800	-17
0.44167	-12
0.44533	-13
0.44900	-12
0.45267	-5
0.45633	2
0.46000	7
0.46367	12
0.46733	16
0.47100	17
0.47467	14
0.47833	8
0.48200	5
0.48567	6
0.48933	8
0.49300	10
0.49667	12
0.50033	16
0.50400	20
0.50767	19
0.51133	16
0.51500	17
0.51867	19
0.52233	21
0.52600	22
0.52967	23
0.53333	23
0.53700	19
0.54067	14
0.54433	9
0.54800	8
0.55167	9
0.55533	14
0.55900	21
0.56267	28
0.56633	33
0.57000	37
0.57367	37
0.57733	30
0.58100	22
0.58467	19
0.58833	20
0.59200	22
0.59567	27
0.59933	36
0.60300	42
0.60667	43
0.61033	43
0.61400	42
0.61767	40
0.62133	37
0.62500	31
0.62867	27
0.63233	22
0.63600	17
0.63967	11
0.64333	5
0.64700	-1
0.65067	-4
0.65433	-5
0.65800	-5
0.66167	-6
0.66533	-9
0.66900	-11
0.67267	-11
0.67633	-11
0.68000	-10
0.68367	-7
0.68733	-3
0.69100	1
0.69467	2
0.69833	-1
0.70200	-2
0.70567	-2
0.70933	-2
0.71300	-3
0.71667	-4
0.72033	-6
0.72400	-6
0.72767	-4
0.73133	-2
0.73500	0
0.73867	1
0.74233	-1
0.74600	-6
0.74967	-10
0.75333	-11
0.75700	-7
0.76067	-1
0.76433	7
0.76800	11
0.77167	11
0.77533	10
0.77900	7
0.78267	3
0.78633	-0
0.79000	-2
0.79367	-3
0.79733	-4
0.80100	-3
0.80467	-2
0.80833	-1
0.81200	0
0.81567	2
0.81933	4
0.82300	6
0.82667	5
0.83033	1
0.83400	-2
0.83767	-3
0.84133	-3
0.84500	-2
0.84867	-1
0.85233	2
0.85600	8
0.85967	15
0.86333	15
0.86700	10
0.87067	5
0.87433	3
0.87800	2
0.88167	-1
0.88533	-4
0.88900	-5
0.89267	-6
0.89633	-5
0.90000	-5
0.90367	-6
0.90733	-8
0.91100	-8
0.91467	-7
0.91833	-7
0.92200	-4
0.92567	-3
0.92933	-5
0.93300	-7
0.93667	-6
0.94033	-2
0.94400	5
0.94767	11
0.95133	12
0.95500	8
0.95867	5
0.96233	5
0.96600	3
0.96967	-0
0.97333	-4
0.97700	-8
0.98067	-12
0.98433	-14
0.98800	-15
0.99167	-14
0.99533	-13
0.99900	-15
1.00267	-18
1.00633	-21
1.01000	-23
1.01367	-26
1.01733	-29
1.02100	-32
1.02467	-33
1.02833	-28
1.03200	-22
1.03567	-17
1.03933	-18
1.04300	-19
1.04667	-17
1.05033	-13
1.05400	-10
1.05767	-9
1.06133	-12
1.06500	-17
1.06867	-22
1.07233	-24
1.07600	-26
1.07967	-27
1.08333	-27
1.08700	-25
1.09067	-19
1.09433	-14
1.09800	-13
1.10167	-14
1.10533	-16
1.10900	-18
1.11267	-18
1.11633	-20
1.12000	-22
1.12367	-23
1.12733	-24
1.13100	-21
1.13467	-18
1.13833	-18
1.14200	-23
1.14567	-27
1.14933	-28
1.15300	-24
1.15667	-18
1.16033	-14
1.16400	-15
1.16767	-20
1.17133	-26
1.17500	-32
1.17867	-36
1.18233	-36
1.18600	-35
1.18967	-33
1.19333	-31
1.19700	-29
1.20067	-30
1.20433	-33
1.20800	-33
1.21167	-30
1.21533	-25
1.21900	-20
1.22267	-16
1.22633	-13
1.23000	-12
1.23367	-12
1.23733	-15
1.24100	-21
1.24467	-25
1.24833	-30
1.25200	-32
1.25567	-32
1.25933	-34
1.26300	-38
1.26667	-41
1.27033	-40
1.27400	-35
1.27767	-29
1.28133	-25
1.28500	-23
1.28867	-23
1.29233	-27
1.29600	-35
1.29967	-39
1.30333	-40
1.30700	-36
1.31067	-29
1.31433	-23
1.31800	-19
1.32167	-20
1.32533	-21
1.32900	-19
1.33267	-18
1.33633	-20
1.34000	-23
1.34367	-27
1.34733	-35
1.35100	-41
1.35467	-49
1.35833	-58
1.36200	-60
1.36567	-54
1.36933	-48
1.37300	-48
1.37667	-49
1.38033	-52
1.38400	-54
1.38767	-55
1.39133	-56
1.39500	-54
1.39867	-50
1.40233	-44
1.40600	-40
1.40967	-38
1.41333	-39
1.41700	-40
1.42067	-42
1.42433	-41
1.42800	-39
1.43167	-34
1.43533	-22
1.43900	-3
1.44267	8
1.44633	39
1.45000	175
1.45367	438
1.45733	759
1.46100	1076
1.46467	1349
1.46833	1550
1.47200	1645
1.47567	1609
1.47933	1450
1.48300	1210
1.48667	949
1.49033	710
1.49400	512
1.49767	363
1.50133	256
1.50500	177
1.50867	119
1.51233	79
1.51600	50
1.51967	32
1.52333	24
1.52700	26
1.53067	38
1.53433	78
1.53800	190
1.54167	428
1.54533	785
1.54900	1184
1.55267	1543
1.55633	1817
1.56000	1982
1.56367	2006
1.56733	1872
1.57100	1602
1.57467	1265
1.57833	933
1.58200	653
1.58567	439
1.58933	285
1.59300	180
1.59667	111
1.60033	67
1.60400	38
1.60767	20
1.61133	8
1.61500	-2
1.61867	-11
1.62233	-17
1.62600	-24
1.62967	-30
1.63333	-32
1.63700	-31
1.64067	-31
1.64433	-31
1.64800	-30
1.65167	-28
1.65533	-27
1.65900	-29
1.66267	-33
1.66633	-38
1.67000	-44
1.67367	-51
1.67733	-54
1.68100	-54
1.68467	-52
1.68833	-47
1.69200	-41
1.69567	-34
1.69933	-28
1.70300	-27
1.70667	-29
1.71033	-32
1.71400	-37
1.71767	-42
1.72133	-45
1.72500	-48
1.72867	-46
1.73233	-45
1.73600	-43
1.73967	-42
1.74333	-44
1.74700	-50
1.75067	-54
1.75433	-57
1.75800	-60
1.76167	-65
1.76533	-67
1.76900	-67
1.77267	-63
1.77633	-58
1.78000	-54
1.78367	-50
1.78733	-46
1.79100	-44
1.79467	-45
1.79833	-48
1.80200	-54
1.80567	-62
1.80933	-68
1.81300	-70
1.81667	-70
1.82033	-69
1.82400	-64
1.82767	-60
1.83133	-57
1.83500	-56
1.83867	-55
1.84233	-56
1.84600	-60
1.84967	-63
1.85333	-66
1.85700	-65
1.86067	-60
1.86433	-57
1.86800	-57
1.87167	-60
1.87533	-66
1.87900	-72
1.88267	-78
1.88633	-81
1.89000	-80
1.89367	-78
1.89733	-73
1.90100	-66
1.90467	-60
1.90833	-52
1.91200	-46
1.91567	-44
1.91933	-45
1.92300	-52
1.92667	-64
1.93033	-78
1.93400	-87
1.93767	-93
1.94133	-95
1.94500	-72
1.94867	107
1.95233	1218
1.95600	6599
1.95967	26142
1.96333	79984
1.96700	193283
1.97067	376752
1.97433	611073
1.97800	854423
1.98167	1061588
1.98533	1197996
1.98900	1245686
1.99267	1202926
1.99633	1084224
2.00000	916817
2.00367	732256
2.00733	557501
2.01100	409052
2.01467	292575
2.01833	206250
2.02200	144760
2.02567	102098
2.02933	72965
2.03300	53226
2.03667	39855
2.04033	30736
2.04400	24436
2.04767	20004
2.05133	16818
2.05500	14466
2.05867	12682
2.06233	11297
2.06600	10197
2.06967	9302
2.07333	8559
2.07700	7933
2.08067	7397
2.08433	6930
2.08800	6518
2.09167	6149
2.09533	5817
2.09900	5520
2.10267	5254
2.10633	5010
2.11000	4786
2.11367	4580
2.11733	4391
2.12100	4215
2.12467	4048
2.12833	3895
2.13200	3755
2.13567	3624
2.13933	3498
2.14300	3380
2.14667	3267
2.15033	3162
2.15400	3062
2.15767	2970
2.16133	2886
2.16500	2807
2.16867	2725
2.17233	2641
2.17600	2562
2.17967	2494
2.18333	2434
2.18700	2375
2.19067	2313
2.19433	2253
2.19800	2194
2.20167	2136
2.20533	2082
2.20900	2033
2.21267	1987
2.21633	1941
2.22000	1895
2.22367	1849
2.22733	1806
2.23100	1768
2.23467	1730
2.23833	1694
2.24200	1661
2.24567	1633
2.24933	1605
2.25300	1576
2.25667	1546
2.26033	1516
2.26400	1488
2.26767	1459
2.27133	1428
2.27500	1400
2.27867	1373
2.28233	1346
2.28600	1320
2.28967	1298
2.29333	1280
2.29700	1264
2.30067	1249
2.30433	1234
2.30800	1217
2.31167	1200
2.31533	1182
2.31900	1165
2.32267	1147
2.32633	1125
2.33000	1101
2.33367	1079
2.33733	1059
2.34100	1040
2.34467	1021
2.34833	1004
2.35200	989
2.35567	979
2.35933	971
2.36300	960
2.36667	947
2.37033	933
2.37400	920
2.37767	909
2.38133	898
2.38500	885
2.38867	875
2.39233	866
2.39600	858
2.39967	851
2.40333	849
2.40700	844
2.41067	839
2.41433	836
2.41800	828
2.42167	815
2.42533	798
2.42900	779
2.43267	761
2.43633	747
2.44000	736
2.44367	729
2.44733	728
2.45100	725
2.45467	718
2.45833	709
2.46200	703
2.46567	700
2.46933	700
2.47300	699
2.47667	691
2.48033	678
2.48400	659
2.48767	644
2.49133	634
2.49500	628
2.49867	626
2.50233	622
2.50600	616
2.50967	610
2.51333	604
2.51700	597
2.52067	590
2.52433	585
2.52800	579
2.53167	578
2.53533	578
2.53900	577
2.54267	570
2.54633	558
2.55000	547
2.55367	541
2.55733	537
2.56100	533
2.56467	528
2.56833	524
2.57200	519
2.57567	513
2.57933	510
2.58300	511
2.58667	514
2.59033	515
2.59400	508
2.59767	498
2.60133	491
2.60500	486
2.60867	482
2.61233	476
2.61600	465
2.61967	456
2.62333	453
2.62700	452
2.63067	450
2.63433	446
2.63800	441
2.64167	437
2.64533	435
2.64900	436
2.65267	439
2.65633	440
2.66000	443
2.66367	448
2.66733	448
2.67100	443
2.67467	433
2.67833	421
2.68200	410
2.68567	407
2.68933	406
2.69300	404
2.69667	402
2.70033	400
2.70400	398
2.70767	398
2.71133	400
2.71500	402
2.71867	403
2.72233	399
2.72600	392
2.72967	386
2.73333	386
2.73700	387
2.74067	386
2.74433	384
2.74800	381
2.75167	379
2.75533	378
2.75900	376
2.76267	373
2.76633	371
2.77000	369
2.77367	364
2.77733	357
2.78100	353
2.78467	350
2.78833	350
2.79200	350
2.79567	350
2.79933	350
2.80300	351
2.80667	352
2.81033	351
2.81400	348
2.81767	343
2.82133	338
2.82500	334
2.82867	332
2.83233	332
2.83600	330
2.83967	328
2.84333	323
2.84700	317
2.85067	313
2.85433	312
2.85800	311
2.86167	307
2.86533	302
2.86900	300
2.87267	303
2.87633	311
2.88000	317
2.88367	320
2.88733	319
2.89100	315
2.89467	309
2.89833	300
2.90200	290
2.90567	284
2.90933	285
2.91300	292
2.91667	302
2.92033	310
2.92400	312
2.92767	310
2.93133	308
2.93500	309
2.93867	310
2.94233	309
2.94600	307
2.94967	305
2.95333	301
2.95700	296
2.96067	293
2.96433	291
2.96800	288
2.97167	288
2.97533	292
2.97900	294
2.98267	295
2.98633	294
2.99000	295
2.99367	296
2.99733	292
3.00100	289
3.00467	288
3.00833	286
3.01200	284
3.01567	285
3.01933	286
3.02300	287
3.02667	285
3.03033	280
3.03400	273
3.03767	267
3.04133	265
3.04500	263
3.04867	261
3.05233	262
3.05600	266
3.05967	271
3.06333	270
3.06700	261
3.07067	248
3.07433	238
3.07800	234
3.08167	235
3.08533	240
3.08900	249
3.09267	258
3.09633	266
3.10000	271
3.10367	270
3.10733	263
3.11100	253
3.11467	247
3.11833	244
3.12200	244
3.12567	247
3.12933	251
3.13300	253
3.13667	253
3.14033	253
3.14400	253
3.14767	254
3.15133	255
3.15500	255
3.15867	255
3.16233	249
3.16600	243
3.16967	241
3.17333	240
3.17700	241
3.18067	243
3.18433	241
3.18800	238
3.19167	235
3.19533	234
3.19900	232
3.20267	232
3.20633	232
3.21000	235
3.21367	236
3.21733	235
3.22100	232
3.22467	230
3.22833	231
3.23200	232
3.23567	234
3.23933	237
3.24300	239
3.24667	239
3.25033	239
3.25400	238
3.25767	237
3.26133	235
3.26500	235
3.26867	231
3.27233	226
3.27600	223
3.27967	221
3.28333	222
3.28700	228
3.29067	232
3.29433	234
3.29800	232
3.30167	228
3.30533	225
3.30900	223
3.31267	224
3.31633	226
3.32000	227
3.32367	226
3.32733	220
3.33100	216
3.33467	214
3.33833	214
3.34200	215
3.34567	217
3.34933	219
3.35300	219
3.35667	219
3.36033	220
3.36400	221
3.36767	220
3.37133	214
3.37500	210
3.37867	209
3.38233	209
3.38600	210
3.38967	215
3.39333	218
3.39700	217
3.40067	215
3.40433	214
3.40800	215
3.41167	220
3.41533	224
3.41900	225
3.42267	221
3.42633	214
3.43000	208
3.43367	204
3.43733	206
3.44100	211
3.44467	216
3.44833	217
3.45200	214
3.45567	208
3.45933	204
3.46300	205
3.46667	204
3.47033	196
3.47400	184
3.47767	174
3.48133	167
3.48500	162
3.48867	163
3.49233	167
3.49600	172
3.49967	175
3.50333	180
3.50700	183
3.51067	187
3.51433	190
3.51800	188
3.52167	185
3.52533	185
3.52900	188
3.53267	190
3.53633	188
3.54000	182
3.54367	176
3.54733	170
3.55100	165
3.55467	164
3.55833	165
3.56200	168
3.56567	173
3.56933	182
3.57300	187
3.57667	184
3.58033	182
3.58400	186
3.58767	191
3.59133	189
3.59500	183
3.59867	177
3.60233	174
3.60600	171
3.60967	169
3.61333	172
3.61700	173
3.62067	170
3.62433	161
3.62800	150
3.63167	143
3.63533	138
3.63900	136
3.64267	135
3.64633	137
3.65000	141
3.65367	147
3.65733	153
3.66100	160
3.66467	166
3.66833	170
3.67200	172
3.67567	171
3.67933	167
3.68300	165
3.68667	168
3.69033	170
3.69400	168
3.69767	163
3.70133	158
3.70500	155
3.70867	156
3.71233	155
3.71600	150
3.71967	141
3.72333	137
3.72700	137
3.73067	137
3.73433	138
3.73800	140
3.74167	142
3.74533	144
3.74900	145
3.75267	148
3.75633	154
3.76000	163
3.76367	168
3.76733	168
3.77100	168
3.77467	166
3.77833	164
3.78200	163
3.78567	166
3.78933	165
3.79300	162
3.79667	157
3.80033	152
3.80400	152
3.80767	154
3.81133	152
3.81500	147
3.81867	142
3.82233	138
3.82600	135
3.82967	132
3.83333	129
3.83700	126
3.84067	126
3.84433	127
3.84800	127
3.85167	126
3.85533	125
3.85900	128
3.86267	136
3.86633	145
3.87000	151
3.87367	150
3.87733	147
3.88100	142
3.88467	138
3.88833	137
3.89200	138
3.89567	140
3.89933	144
3.90300	146
3.90667	146
3.91033	142
3.91400	136
3.91767	128
3.92133	124
3.92500	125
3.92867	128
3.93233	133
3.93600	139
3.93967	142
3.94333	140
3.94700	139
3.95067	137
3.95433	135
3.95800	134
3.96167	132
3.96533	131
3.96900	131
3.97267	133
3.97633	142
3.98000	154
3.98367	162
3.98733	163
3.99100	159
3.99467	151
3.99833	142

[Chromatogram (Ch2)]
Interval(msec)	220
# of Points	1091
Start Time(min)	0.002
End Time(min)	3.998
R.Time (min)	Intensity
0.00167	0
0.00533	0
0.00900	0
0.01267	0
0.01633	0
0.02000	0
0.02367	0
0.02733	-0
0.03100	-0
0.03467	-0
0.03833	-0
0.04200	-0
0.04567	-1
0.04933	-1
0.05300	-1
0.05667	-1
0.06033	-1
0.06400	-1
0.06767	-1
0.07133	-1
0.07500	-1
0.07867	-1
0.08233	-1
0.08600	-1
0.08967	-1
0.09333	-1
0.09700	-1
0.10067	-1
0.10433	-1
0.10800	-1
0.11167	-1
0.11533	-1
0.11900	-1
0.12267	-2
0.12633	-2
0.13000	-2
0.13367	-2
0.13733	-2
0.14100	-2
0.14467	-3
0.14833	-3
0.15200	-3
0.15567	-3
0.15933	-4
0.16300	-4
0.16667	-4
0.17033	-4
0.17400	-4
0.17767	-4
0.18133	-4
0.18500	-5
0.18867	-5
0.19233	-5
0.19600	-5
0.19967	-5
0.20333	-5
0.20700	-4
0.21067	-4
0.21433	-4
0.21800	-4
0.22167	-4
0.22533	-4
0.22900	-4
0.23267	-3
0.23633	-3
0.24000	-3
0.24367	-3
0.24733	-3
0.25100	-3
0.25467	-3
0.25833	-2
0.26200	-2
0.26567	-2
0.26933	-2
0.27300	-1
0.27667	-1
0.28033	-1
0.28400	-1
0.28767	-1
0.29133	-1
0.29500	-1
0.29867	-1
0.30233	-1
0.30600	-2
0.30967	-2
0.31333	-2
0.31700	-2
0.32067	-2
0.32433	-2
0.32800	-2
0.33167	-2
0.33533	-3
0.33900	-3
0.34267	-2
0.34633	-2
0.35000	-2
0.35367	-1
0.35733	-1
0.36100	-1
0.36467	-2
0.36833	-2
0.37200	-2
0.37567	-2
0.37933	-3
0.38300	-3
0.38667	-3
0.39033	-3
0.39400	-4
0.39767	-4
0.40133	-4
0.40500	-4
0.40867	-4
0.41233	-4
0.41600	-4
0.41967	-4
0.42333	-3
0.42700	-3
0.43067	-3
0.43433	-3
0.43800	-3
0.44167	-3
0.44533	-3
0.44900	-3
0.45267	-3
0.45633	-3
0.46000	-3
0.46367	-3
0.46733	-2
0.47100	-2
0.47467	-2
0.47833	-2
0.48200	-1
0.48567	-1
0.48933	-1
0.49300	-1
0.49667	-1
0.50033	-1
0.50400	-1
0.50767	-1
0.51133	-1
0.51500	-2
0.51867	-2
0.52233	-3
0.52600	-3
0.52967	-4
0.53333	-4
0.53700	-4
0.54067	-4
0.54433	-4
0.54800	-4
0.55167	-4
0.55533	-5
0.55900	-5
0.56267	-5
0.56633	-5
0.57000	-5
0.57367	-6
0.57733	-6
0.58100	-6
0.58467	-6
0.58833	-6
0.59200	-6
0.59567	-7
0.59933	-7
0.60300	-7
0.60667	-6
0.61033	-6
0.61400	-6
0.61767	-6
0.62133	-6
0.62500	-6
0.62867	-6
0.63233	-6
0.63600	-6
0.63967	-6
0.64333	-6
0.64700	-6
0.65067	-5
0.65433	-5
0.65800	-5
0.66167	-5
0.66533	-5
0.66900	-5
0.67267	-4
0.67633	-4
0.68000	-4
0.68367	-4
0.68733	-4
0.69100	-4
0.69467	-4
0.69833	-3
0.70200	-3
0.70567	-3
0.70933	-3
0.71300	-3
0.71667	-3
0.72033	-3
0.72400	-3
0.72767	-3
0.73133	-4
0.73500	-4
0.73867	-4
0.74233	-4
0.74600	-4
0.74967	-4
0.75333	-4
0.75700	-4
0.76067	-3
0.76433	-3
0.76800	-3
0.77167	-3
0.77533	-3
0.77900	-3
0.78267	-3
0.78633	-3
0.79000	-3
0.79367	-3
0.79733	-3
0.80100	-3
0.80467	-3
0.80833	-3
0.81200	-4
0.81567	-4
0.81933	-4
0.82300	-4
0.82667	-4
0.83033	-4
0.83400	-4
0.83767	-4
0.84133	-4
0.84500	-4
0.84867	-4
0.85233	-4
0.85600	-4
0.85967	-4
0.86333	-5
0.86700	-5
0.87067	-5
0.87433	-5
0.87800	-5
0.88167	-5
0.88533	-5
0.88900	-5
0.89267	-5
0.89633	-5
0.90000	-5
0.90367	-5
0.90733	-5
0.91100	-5
0.91467	-5
0.91833	-5
0.92200	-5
0.92567	-4
0.92933	-4
0.93300	-4
0.93667	-4
0.94033	-3
0.94400	-3
0.94767	-3
0.95133	-3
0.95500	-3
0.95867	-3
0.96233	-3
0.96600	-3
0.96967	-4
0.97333	-4
0.97700	-4
0.98067	-4
0.98433	-4
0.98800	-4
0.99167	-4
0.99533	-5
0.99900	-5
1.00267	-5
1.00633	-5
1.01000	-5
1.01367	-5
1.01733	-5
1.02100	-4
1.02467	-4
1.02833	-4
1.03200	-4
1.03567	-5
1.03933	-5
1.04300	-5
1.04667	-5
1.05033	-5
1.05400	-5
1.05767	-5
1.06133	-5
1.06500	-5
1.06867	-5
1.07233	-5
1.07600	-5
1.07967	-5
1.08333	-5
1.08700	-5
1.09067	-5
1.09433	-4
1.09800	-4
1.10167	-4
1.10533	-4
1.10900	-4
1.11267	-4
1.11633	-4
1.12000	-4
1.12367	-4
1.12733	-4
1.13100	-3
1.13467	-3
1.13833	-4
1.14200	-4
1.14567	-4
1.14933	-4
1.15300	-4
1.15667	-4
1.16033	-4
1.16400	-4
1.16767	-4
1.17133	-5
1.17500	-5
1.17867	-5
1.18233	-6
1.18600	-6
1.18967	-6
1.19333	-6
1.19700	-6
1.20067	-5
1.20433	-5
1.20800	-5
1.21167	-5
1.21533	-5
1.21900	-5
1.22267	-5
1.22633	-5
1.23000	-4
1.23367	-4
1.23733	-3
1.24100	-3
1.24467	-3
1.24833	-3
1.25200	-4
1.25567	-4
1.25933	-4
1.26300	-5
1.26667	-5
1.27033	-5
1.27400	-5
1.27767	-5
1.28133	-5
1.28500	-6
1.28867	-6
1.29233	-6
1.29600	-6
1.29967	-6
1.30333	-6
1.30700	-6
1.31067	-6
1.31433	-5
1.31800	-5
1.32167	-5
1.32533	-5
1.32900	-6
1.33267	-6
1.33633	-6
1.34000	-6
1.34367	-6
1.34733	-6
1.35100	-6
1.35467	-7
1.35833	-7
1.36200	-6
1.36567	-6
1.36933	-6
1.37300	-6
1.37667	-6
1.38033	-6
1.38400	-6
1.38767	-6
1.39133	-6
1.39500	-6
1.39867	-7
1.40233	-7
1.40600	-7
1.40967	-7
1.41333	-7
1.41700	-7
1.42067	-7
1.42433	-7
1.42800	-7
1.43167	-7
1.43533	-7
1.43900	-7
1.44267	-7
1.44633	-7
1.45000	-7
1.45367	-7
1.45733	-7
1.46100	-7
1.46467	-8
1.46833	-8
1.47200	-8
1.47567	-8
1.47933	-8
1.48300	-8
1.48667	-8
1.49033	-8
1.49400	-7
1.49767	-7
1.50133	-6
1.50500	-6
1.50867	-6
1.51233	-5
1.51600	-5
1.51967	-5
1.52333	-5
1.52700	-5
1.53067	-4
1.53433	-5
1.53800	-5
1.54167	-5
1.54533	-5
1.54900	-5
1.55267	-5
1.55633	-4
1.56000	-4
1.56367	-4
1.56733	-3
1.57100	-3
1.57467	-3
1.57833	-3
1.58200	-3
1.58567	-3
1.58933	-4
1.59300	-5
1.59667	-6
1.60033	-7
1.60400	-9
1.60767	-11
1.61133	-13
1.61500	-15
1.61867	-17
1.62233	-20
1.62600	-22
1.62967	-25
1.63333	-28
1.63700	-31
1.64067	-34
1.64433	-37
1.64800	-40
1.65167	-43
1.65533	-46
1.65900	-50
1.66267	-53
1.66633	-57
1.67000	-61
1.67367	-65
1.67733	-70
1.68100	-74
1.68467	-78
1.68833	-82
1.69200	-86
1.69567	-89
1.69933	-91
1.70300	-93
1.70667	-95
1.71033	-97
1.71400	-98
1.71767	-99
1.72133	-100
1.72500	-101
1.72867	-102
1.73233	-103
1.73600	-103
1.73967	-104
1.74333	-104
1.74700	-104
1.75067	-103
1.75433	-103
1.75800	-102
1.76167	-101
1.76533	-100
1.76900	-100
1.77267	-100
1.77633	-100
1.78000	-100
1.78367	-101
1.78733	-102
1.79100	-103
1.79467	-104
1.79833	-105
1.80200	-106
1.80567	-107
1.80933	-107
1.81300	-108
1.81667	-109
1.82033	-109
1.82400	-109
1.82767	-109
1.83133	-109
1.83500	-108
1.83867	-108
1.84233	-108
1.84600	-108
1.84967	-108
1.85333	-108
1.85700	-109
1.86067	-109
1.86433	-108
1.86800	-107
1.87167	-107
1.87533	-106
1.87900	-106
1.88267	-105
1.88633	-105
1.89000	-105
1.89367	-105
1.89733	-105
1.90100	-105
1.90467	-105
1.90833	-105
1.91200	-104
1.91567	-104
1.91933	-103
1.92300	-103
1.92667	-103
1.93033	-103
1.93400	-102
1.93767	-102
1.94133	-101
1.94500	-101
1.94867	-101
1.95233	-102
1.95600	-102
1.95967	-102
1.96333	-102
1.96700	-102
1.97067	-102
1.97433	-101
1.97800	-100
1.98167	-100
1.98533	-100
1.98900	-99
1.99267	-99
1.99633	-98
2.00000	-98
2.00367	-98
2.00733	-99
2.01100	-99
2.01467	-99
2.01833	-99
2.02200	-99
2.02567	-99
2.02933	-99
2.03300	-99
2.03667	-99
2.04033	-99
2.04400	-98
2.04767	-97
2.05133	-96
2.05500	-95
2.05867	-94
2.06233	-93
2.06600	-93
2.06967	-93
2.07333	-92
2.07700	-92
2.08067	-92
2.08433	-91
2.08800	-91
2.09167	-91
2.09533	-91
2.09900	-91
2.10267	-91
2.10633	-91
2.11000	-91
2.11367	-91
2.11733	-91
2.12100	-91
2.12467	-91
2.12833	-90
2.13200	-90
2.13567	-89
2.13933	-88
2.14300	-88
2.14667	-87
2.15033	-86
2.15400	-85
2.15767	-85
2.16133	-85
2.16500	-85
2.16867	-85
2.17233	-85
2.17600	-86
2.17967	-86
2.18333	-87
2.18700	-87
2.19067	-86
2.19433	-86
2.19800	-85
2.20167	-85
2.20533	-84
2.20900	-84
2.21267	-83
2.21633	-83
2.22000	-82
2.22367	-82
2.22733	-81
2.23100	-81
2.23467	-82
2.23833	-83
2.24200	-83
2.24567	-84
2.24933	-84
2.25300	-83
2.25667	-83
2.26033	-82
2.26400	-81
2.26767	-81
2.27133	-80
2.27500	-79
2.27867	-78
2.28233	-77
2.28600	-77
2.28967	-76
2.29333	-76
2.29700	-76
2.30067	-77
2.30433	-79
2.30800	-80
2.31167	-81
2.31533	-82
2.31900	-82
2.32267	-81
2.32633	-80
2.33000	-79
2.33367	-78
2.33733	-76
2.34100	-75
2.34467	-73
2.34833	-72
2.35200	-71
2.35567	-70
2.35933	-68
2.36300	-67
2.36667	-65
2.37033	-63
2.37400	-60
2.37767	-56
2.38133	-52
2.38500	-48
2.38867	-44
2.39233	-41
2.39600	-37
2.39967	-33
2.40333	-30
2.40700	-26
2.41067	-22
2.41433	-19
2.41800	-16
2.42167	-13
2.42533	-11
2.42900	-9
2.43267	-8
2.43633	-6
2.44000	-4
2.44367	-2
2.44733	-1
2.45100	1
2.45467	2
2.45833	3
2.46200	4
2.46567	5
2.46933	5
2.47300	6
2.47667	6
2.48033	7
2.48400	7
2.48767	8
2.49133	8
2.49500	9
2.49867	9
2.50233	9
2.50600	10
2.50967	10
2.51333	10
2.51700	10
2.52067	11
2.52433	11
2.52800	11
2.53167	10
2.53533	10
2.53900	9
2.54267	9
2.54633	8
2.55000	8
2.55367	8
2.55733	8
2.56100	9
2.56467	9
2.56833	10
2.57200	10
2.57567	11
2.57933	11
2.58300	11
2.58667	11
2.59033	11
2.59400	11
2.59767	11
2.60133	12
2.60500	12
2.60867	13
2.61233	13
2.61600	13
2.61967	14
2.62333	14
2.62700	15
2.63067	15
2.63433	15
2.63800	16
2.64167	16
2.64533	16
2.64900	17
2.65267	17
2.65633	17
2.66000	18
2.66367	18
2.66733	19
2.67100	19
2.67467	19
2.67833	19
2.68200	20
2.68567	20
2.68933	20
2.69300	20
2.69667	20
2.70033	20
2.70400	20
2.70767	20
2.71133	20
2.71500	21
2.71867	21
2.72233	21
2.72600	21
2.72967	21
2.73333	22
2.73700	22
2.74067	22
2.74433	22
2.74800	22
2.75167	23
2.75533	23
2.75900	23
2.76267	24
2.76633	24
2.77000	24
2.77367	25
2.77733	25
2.78100	25
2.78467	25
2.78833	26
2.79200	26
2.79567	26
2.79933	26
2.80300	26
2.80667	26
2.81033	26
2.81400	26
2.81767	25
2.82133	25
2.82500	25
2.82867	24
2.83233	24
2.83600	24
2.83967	24
2.84333	24
2.84700	24
2.85067	24
2.85433	24
2.85800	23
2.86167	20
2.86533	16
2.86900	10
2.87267	-0
2.87633	-14
2.88000	-33
2.88367	-57
2.88733	-86
2.89100	-120
2.89467	-160
2.89833	-204
2.90200	-253
2.90567	-307
2.90933	-363
2.91300	-423
2.91667	-484
2.92033	-547
2.92400	-610
2.92767	-673
2.93133	-734
2.93500	-793
2.93867	-849
2.94233	-901
2.94600	-954
2.94967	-1009
2.95333	-1060
2.95700	-1097
2.96067	-1112
2.96433	-1102
2.96800	-1068
2.97167	-1014
2.97533	-946
2.97900	-869
2.98267	-789
2.98633	-708
2.99000	-629
2.99367	-555
2.99733	-487
3.00100	-424
3.00467	-367
3.00833	-317
3.01200	-272
3.01567	-233
3.01933	-199
3.02300	-170
3.02667	-144
3.03033	-121
3.03400	-102
3.03767	-86
3.04133	-72
3.04500	-59
3.04867	-49
3.05233	-40
3.05600	-32
3.05967	-25
3.06333	-19
3.06700	-15
3.07067	-10
3.07433	-7
3.07800	-4
3.08167	-1
3.08533	1
3.08900	3
3.09267	5
3.09633	6
3.10000	8
3.10367	9
3.10733	10
3.11100	11
3.11467	12
3.11833	13
3.12200	13
3.12567	14
3.12933	14
3.13300	15
3.13667	15
3.14033	15
3.14400	16
3.14767	16
3.15133	16
3.15500	16
3.15867	17
3.16233	17
3.16600	17
3.16967	17
3.17333	17
3.17700	17
3.18067	17
3.18433	17
3.18800	17
3.19167	17
3.19533	18
3.19900	18
3.20267	18
3.20633	18
3.21000	19
3.21367	19
3.21733	20
3.22100	20
3.22467	21
3.22833	21
3.23200	21
3.23567	21
3.23933	21
3.24300	21
3.24667	22
3.25033	22
3.25400	22
3.25767	22
3.26133	21
3.26500	21
3.26867	21
3.27233	21
3.27600	21
3.27967	21
3.28333	21
3.28700	22
3.29067	22
3.29433	22
3.29800	22
3.30167	22
3.30533	22
3.30900	22
3.31267	23
3.31633	23
3.32000	24
3.32367	24
3.32733	24
3.33100	25
3.33467	25
3.33833	25
3.34200	25
3.34567	25
3.34933	26
3.35300	26
3.35667	26
3.36033	25
3.36400	25
3.36767	25
3.37133	24
3.37500	24
3.37867	24
3.38233	24
3.38600	24
3.38967	24
3.39333	24
3.39700	24
3.40067	24
3.40433	23
3.40800	23
3.41167	23
3.41533	23
3.41900	23
3.42267	23
3.42633	23
3.43000	23
3.43367	22
3.43733	23
3.44100	23
3.44467	23
3.44833	23
3.45200	24
3.45567	24
3.45933	24
3.46300	25
3.46667	25
3.47033	25
3.47400	25
3.47767	26
3.48133	26
3.48500	26
3.48867	27
3.49233	27
3.49600	27
3.49967	27
3.50333	27
3.50700	27
3.51067	27
3.51433	27
3.51800	27
3.52167	27
3.52533	27
3.52900	27
3.53267	27
3.53633	26
3.54000	26
3.54367	26
3.54733	26
3.55100	26
3.55467	26
3.55833	26
3.56200	26
3.56567	26
3.56933	26
3.57300	25
3.57667	25
3.58033	25
3.58400	25
3.58767	24
3.59133	24
3.59500	24
3.59867	24
3.60233	24
3.60600	24
3.60967	24
3.61333	23
3.61700	23
3.62067	23
3.62433	23
3.62800	23
3.63167	24
3.63533	24
3.63900	24
3.64267	24
3.64633	24
3.65000	24
3.65367	24
3.65733	24
3.66100	24
3.66467	24
3.66833	24
3.67200	24
3.67567	24
3.67933	24
3.68300	24
3.68667	24
3.69033	24
3.69400	24
3.69767	24
3.70133	24
3.70500	24
3.70867	24
3.71233	24
3.71600	24
3.71967	25
3.72333	25
3.72700	26
3.73067	26
3.73433	26
3.73800	26
3.74167	26
3.74533	27
3.74900	27
3.75267	27
3.75633	27
3.76000	27
3.76367	27
3.76733	27
3.77100	27
3.77467	27
3.77833	27
3.78200	27
3.78567	27
3.78933	27
3.79300	27
3.79667	27
3.80033	26
3.80400	26
3.80767	26
3.81133	26
3.81500	25
3.81867	25
3.82233	25
3.82600	24
3.82967	24
3.83333	24
3.83700	24
3.84067	24
3.84433	25
3.84800	25
3.85167	25
3.85533	25
3.85900	25
3.86267	25
3.86633	25
3.87000	25
3.87367	25
3.87733	25
3.88100	25
3.88467	25
3.88833	26
3.89200	26
3.89567	26
3.89933	25
3.90300	25
3.90667	26
3.91033	26
3.91400	26
3.91767	26
3.92133	26
3.92500	26
3.92867	26
3.93233	26
3.93600	26
3.93967	26
3.94333	26
3.94700	27
3.95067	27
3.95433	27
3.95800	27
3.96167	27
3.96533	26
3.96900	26
3.97267	26
3.97633	25
3.98000	25
3.98367	25
3.98733	25
3.99100	25
3.99467	25
3.99833	24

[Chromatogram (Ch3)]
Interval(msec)	220
# of Points	1091
Start Time(min)	0.002
End Time(min)	3.998
R.Time (min)	Intensity
0.00167	0
0.00533	1
0.00900	-0
0.01267	-1
0.01633	-1
0.02000	0
0.02367	-0
0.02733	0
0.03100	1
0.03467	2
0.03833	3
0.04200	2
0.04567	-1
0.04933	-1
0.05300	0
0.05667	1
0.06033	1
0.06400	2
0.06767	4
0.07133	6
0.07500	7
0.07867	8
0.08233	10
0.08600	10
0.08967	9
0.09333	8
0.09700	5
0.10067	3
0.10433	3
0.10800	3
0.11167	3
0.11533	3
0.11900	3
0.12267	2
0.12633	2
0.13000	3
0.13367	5
0.13733	7
0.14100	7
0.14467	5
0.14833	3
0.15200	-0
0.15567	-1
0.15933	-2
0.16300	-4
0.16667	-6
0.17033	-5
0.17400	-5
0.17767	-4
0.18133	-1
0.18500	-0
0.18867	-1
0.19233	-0
0.19600	-2
0.19967	-3
0.20333	-4
0.20700	-4
0.21067	-4
0.21433	-5
0.21800	-5
0.22167	-3
0.22533	-3
0.22900	-3
0.23267	-2
0.23633	-1
0.24000	-1
0.24367	-1
0.24733	-1
0.25100	1
0.25467	2
0.25833	-0
0.26200	-2
0.26567	-5
0.26933	-4
0.27300	-1
0.27667	-0
0.28033	1
0.28400	1
0.28767	1
0.29133	3
0.29500	5
0.29867	5
0.30233	3
0.30600	3
0.30967	2
0.31333	1
0.31700	-0
0.32067	0
0.32433	0
0.32800	-0
0.33167	-1
0.33533	-2
0.33900	-1
0.34267	-1
0.34633	-1
0.35000	0
0.35367	1
0.35733	0
0.36100	-1
0.36467	-1
0.36833	2
0.37200	2
0.37567	3
0.37933	3
0.38300	4
0.38667	5
0.39033	5
0.39400	3
0.39767	3
0.40133	2
0.40500	3
0.40867	4
0.41233	6
0.41600	5
0.41967	5
0.42333	6
0.42700	5
0.43067	5
0.43433	4
0.43800	3
0.44167	4
0.44533	6
0.44900	7
0.45267	9
0.45633	11
0.46000	11
0.46367	9
0.46733	7
0.47100	5
0.47467	5
0.47833	4
0.48200	1
0.48567	-0
0.48933	-1
0.49300	2
0.49667	6
0.50033	7
0.50400	7
0.50767	6
0.51133	6
0.51500	6
0.51867	6
0.52233	6
0.52600	6
0.52967	6
0.53333	6
0.53700	6
0.54067	6
0.54433	7
0.54800	6
0.55167	6
0.55533	4
0.55900	3
0.56267	5
0.56633	6
0.57000	6
0.57367	5
0.57733	3
0.58100	4
0.58467	4
0.58833	6
0.59200	8
0.59567	8
0.59933	8
0.60300	9
0.60667	9
0.61033	9
0.61400	8
0.61767	6
0.62133	3
0.62500	4
0.62867	6
0.63233	6
0.63600	8
0.63967	9
0.64333	9
0.64700	9
0.65067	9
0.65433	7
0.65800	4
0.66167	2
0.66533	1
0.66900	2
0.67267	4
0.67633	7
0.68000	7
0.68367	8
0.68733	8
0.69100	6
0.69467	6
0.69833	7
0.70200	7
0.70567	8
0.70933	9
0.71300	11
0.71667	10
0.72033	9
0.72400	10
0.72767	9
0.73133	8
0.73500	7
0.73867	7
0.74233	8
0.74600	8
0.74967	9
0.75333	10
0.75700	9
0.76067	7
0.76433	7
0.76800	7
0.77167	10
0.77533	12
0.77900	12
0.78267	11
0.78633	10
0.79000	12
0.79367	13
0.79733	14
0.80100	13
0.80467	12
0.80833	11
0.81200	9
0.81567	10
0.81933	11
0.82300	10
0.82667	12
0.83033	15
0.83400	16
0.83767	18
0.84133	17
0.84500	19
0.84867	20
0.85233	19
0.85600	17
0.85967	17
0.86333	17
0.86700	16
0.87067	14
0.87433	12
0.87800	11
0.88167	11
0.88533	11
0.88900	13
0.89267	14
0.89633	16
0.90000	17
0.90367	18
0.90733	20
0.91100	20
0.91467	20
0.91833	19
0.92200	20
0.92567	21
0.92933	21
0.93300	19
0.93667	16
0.94033	15
0.94400	14
0.94767	13
0.95133	14
0.95500	13
0.95867	13
0.96233	13
0.96600	13
0.96967	12
0.97333	12
0.97700	11
0.98067	9
0.98433	10
0.98800	10
0.99167	10
0.99533	10
0.99900	11
1.00267	13
1.00633	15
1.01000	17
1.01367	17
1.01733	16
1.02100	15
1.02467	16
1.02833	17
1.03200	18
1.03567	20
1.03933	21
1.04300	21
1.04667	19
1.05033	16
1.05400	14
1.05767	12
1.06133	11
1.06500	11
1.06867	11
1.07233	12
1.07600	15
1.07967	16
1.08333	16
1.08700	14
1.09067	13
1.09433	14
1.09800	16
1.10167	17
1.10533	17
1.10900	16
1.11267	17
1.11633	18
1.12000	18
1.12367	17
1.12733	15
1.13100	16
1.13467	18
1.13833	19
1.14200	19
1.14567	18
1.14933	19
1.15300	18
1.15667	16
1.16033	15
1.16400	15
1.16767	16
1.17133	16
1.17500	18
1.17867	18
1.18233	19
1.18600	17
1.18967	17
1.19333	18
1.19700	18
1.20067	17
1.20433	16
1.20800	16
1.21167	18
1.21533	18
1.21900	18
1.22267	17
1.22633	18
1.23000	20
1.23367	21
1.23733	21
1.24100	23
1.24467	24
1.24833	25
1.25200	26
1.25567	26
1.25933	25
1.26300	25
1.26667	25
1.27033	25
1.27400	26
1.27767	27
1.28133	25
1.28500	22
1.28867	20
1.29233	18
1.29600	18
1.29967	17
1.30333	17
1.30700	17
1.31067	17
1.31433	20
1.31800	23
1.32167	24
1.32533	24
1.32900	22
1.33267	20
1.33633	17
1.34000	17
1.34367	19
1.34733	21
1.35100	23
1.35467	24
1.35833	25
1.36200	25
1.36567	22
1.36933	20
1.37300	19
1.37667	20
1.38033	22
1.38400	22
1.38767	24
1.39133	24
1.39500	26
1.39867	26
1.40233	26
1.40600	26
1.40967	24
1.41333	23
1.41700	23
1.42067	22
1.42433	23
1.42800	22
1.43167	24
1.43533	26
1.43900	25
1.44267	24
1.44633	23
1.45000	23
1.45367	23
1.45733	22
1.46100	22
1.46467	22
1.46833	23
1.47200	23
1.47567	21
1.47933	22
1.48300	22
1.48667	23
1.49033	23
1.49400	23
1.49767	24
1.50133	24
1.50500	24
1.50867	26
1.51233	26
1.51600	25
1.51967	24
1.52333	24
1.52700	24
1.53067	24
1.53433	26
1.53800	25
1.54167	23
1.54533	25
1.54900	26
1.55267	25
1.55633	25
1.56000	26
1.56367	27
1.56733	27
1.57100	27
1.57467	29
1.57833	31
1.58200	33
1.58567	32
1.58933	30
1.59300	28
1.59667	28
1.60033	28
1.60400	29
1.60767	29
1.61133	28
1.61500	28
1.61867	29
1.62233	29
1.62600	29
1.62967	28
1.63333	29
1.63700	30
1.64067	30
1.64433	30
1.64800	30
1.65167	30
1.65533	31
1.65900	32
1.66267	31
1.66633	30
1.67000	31
1.67367	33
1.67733	35
1.68100	36
1.68467	38
1.68833	38
1.69200	36
1.69567	35
1.69933	33
1.70300	33
1.70667	32
1.71033	32
1.71400	32
1.71767	33
1.72133	35
1.72500	37
1.72867	39
1.73233	38
1.73600	40
1.73967	41
1.74333	41
1.74700	40
1.75067	40
1.75433	39
1.75800	40
1.76167	40
1.76533	42
1.76900	44
1.77267	45
1.77633	43
1.78000	43
1.78367	45
1.78733	47
1.79100	49
1.79467	50
1.79833	50
1.80200	51
1.80567	52
1.80933	52
1.81300	55
1.81667	57
1.82033	58
1.82400	56
1.82767	56
1.83133	57
1.83500	57
1.83867	58
1.84233	59
1.84600	62
1.84967	63
1.85333	60
1.85700	60
1.86067	61
1.86433	61
1.86800	62
1.87167	64
1.87533	66
1.87900	68
1.88267	66
1.88633	65
1.89000	66
1.89367	67
1.89733	67
1.90100	67
1.90467	70
1.90833	74
1.91200	76
1.91567	78
1.91933	78
1.92300	79
1.92667	79
1.93033	79
1.93400	79
1.93767	80
1.94133	80
1.94500	81
1.94867	81
1.95233	81
1.95600	82
1.95967	84
1.96333	83
1.96700	84
1.97067	85
1.97433	82
1.97800	79
1.98167	80
1.98533	83
1.98900	85
1.99267	85
1.99633	87
2.00000	90
2.00367	89
2.00733	87
2.01100	86
2.01467	88
2.01833	89
2.02200	90
2.02567	93
2.02933	94
2.03300	93
2.03667	93
2.04033	93
2.04400	92
2.04767	91
2.05133	90
2.05500	91
2.05867	95
2.06233	96
2.06600	93
2.06967	93
2.07333	95
2.07700	96
2.08067	99
2.08433	103
2.08800	105
2.09167	106
2.09533	108
2.09900	109
2.10267	109
2.10633	107
2.11000	108
2.11367	108
2.11733	107
2.12100	106
2.12467	106
2.12833	107
2.13200	108
2.13567	109
2.13933	110
2.14300	111
2.14667	111
2.15033	107
2.15400	106
2.15767	107
2.16133	108
2.16500	109
2.16867	111
2.17233	114
2.17600	115
2.17967	116
2.18333	116
2.18700	117
2.19067	119
2.19433	117
2.19800	116
2.20167	116
2.20533	114
2.20900	113
2.21267	113
2.21633	115
2.22000	117
2.22367	117
2.22733	118
2.23100	119
2.23467	119
2.23833	120
2.24200	122
2.24567	121
2.24933	118
2.25300	117
2.25667	116
2.26033	118
2.26400	122
2.26767	124
2.27133	127
2.27500	129
2.27867	128
2.28233	127
2.28600	127
2.28967	128
2.29333	128
2.29700	128
2.30067	131
2.30433	134
2.30800	138
2.31167	140
2.31533	140
2.31900	140
2.32267	139
2.32633	139
2.33000	139
2.33367	137
2.33733	135
2.34100	133
2.34467	133
2.34833	133
2.35200	132
2.35567	133
2.35933	134
2.36300	133
2.36667	135
2.37033	136
2.37400	136
2.37767	135
2.38133	136
2.38500	136
2.38867	134
2.39233	136
2.39600	138
2.39967	140
2.40333	141
2.40700	143
2.41067	145
2.41433	146
2.41800	146
2.42167	149
2.42533	150
2.42900	149
2.43267	149
2.43633	148
2.44000	153
2.44367	217
2.44733	336
2.45100	446
2.45467	529
2.45833	572
2.46200	574
2.46567	555
2.46933	531
2.47300	512
2.47667	500
2.48033	486
2.48400	463
2.48767	438
2.49133	424
2.49500	433
2.49867	473
2.50233	543
2.50600	631
2.50967	716
2.51333	789
2.51700	840
2.52067	872
2.52433	891
2.52800	901
2.53167	906
2.53533	909
2.53900	912
2.54267	918
2.54633	929
2.55000	943
2.55367	958
2.55733	973
2.56100	990
2.56467	1007
2.56833	1022
2.57200	1036
2.57567	1048
2.57933	1053
2.58300	1054
2.58667	1049
2.59033	1037
2.59400	1022
2.59767	1003
2.60133	983
2.60500	963
2.60867	942
2.61233	924
2.61600	909
2.61967	898
2.62333	887
2.62700	876
2.63067	865
2.63433	858
2.63800	852
2.64167	845
2.64533	838
2.64900	833
2.65267	828
2.65633	823
2.66000	821
2.66367	822
2.66733	824
2.67100	828
2.67467	832
2.67833	835
2.68200	839
2.68567	841
2.68933	845
2.69300	851
2.69667	858
2.70033	865
2.70400	873
2.70767	880
2.71133	884
2.71500	889
2.71867	894
2.72233	898
2.72600	900
2.72967	903
2.73333	905
2.73700	905
2.74067	901
2.74433	895
2.74800	888
2.75167	881
2.75533	872
2.75900	863
2.76267	855
2.76633	846
2.77000	839
2.77367	831
2.77733	823
2.78100	815
2.78467	809
2.78833	806
2.79200	801
2.79567	795
2.79933	790
2.80300	785
2.80667	782
2.81033	779
2.81400	773
2.81767	768
2.82133	766
2.82500	765
2.82867	765
2.83233	770
2.83600	786
2.83967	820
2.84333	891
2.84700	1021
2.85067	1235
2.85433	1546
2.85800	1963
2.86167	2475
2.86533	3056
2.86900	3660
2.87267	4240
2.87633	4747
2.88000	5136
2.88367	5383
2.88733	5486
2.89100	5453
2.89467	5305
2.89833	5067
2.90200	4768
2.90567	4437
2.90933	4092
2.91300	3746
2.91667	3415
2.92033	3107
2.92400	2827
2.92767	2577
2.93133	2352
2.93500	2150
2.93867	1971
2.94233	1814
2.94600	1676
2.94967	1557
2.95333	1454
2.95700	1366
2.96067	1290
2.96433	1223
2.96800	1165
2.97167	1115
2.97533	1072
2.97900	1036
2.98267	1004
2.98633	976
2.99000	953
2.99367	932
2.99733	915
3.00100	902
3.00467	891
3.00833	881
3.01200	873
3.01567	866
3.01933	859
3.02300	852
3.02667	846
3.03033	843
3.03400	842
3.03767	841
3.04133	838
3.04500	837
3.04867	837
3.05233	839
3.05600	840
3.05967	840
3.06333	836
3.06700	834
3.07067	833
3.07433	834
3.07800	833
3.08167	833
3.08533	834
3.08900	833
3.09267	833
3.09633	830
3.10000	830
3.10367	831
3.10733	834
3.11100	835
3.11467	835
3.11833	835
3.12200	836
3.12567	836
3.12933	834
3.13300	830
3.13667	825
3.14033	824
3.14400	826
3.14767	825
3.15133	823
3.15500	820
3.15867	820
3.16233	819
3.16600	818
3.16967	820
3.17333	818
3.17700	817
3.18067	817
3.18433	817
3.18800	818
3.19167	818
3.19533	815
3.19900	813
3.20267	811
3.20633	810
3.21000	808
3.21367	806
3.21733	804
3.22100	803
3.22467	803
3.22833	802
3.23200	801
3.23567	801
3.23933	802
3.24300	801
3.24667	801
3.25033	800
3.25400	800
3.25767	801
3.26133	798
3.26500	797
3.26867	796
3.27233	796
3.27600	798
3.27967	799
3.28333	800
3.28700	798
3.29067	795
3.29433	793
3.29800	791
3.30167	789
3.30533	787
3.30900	785
3.31267	782
3.31633	778
3.32000	773
3.32367	773
3.32733	773
3.33100	775
3.33467	773
3.33833	772
3.34200	768
3.34567	766
3.34933	764
3.35300	763
3.35667	762
3.36033	760
3.36400	757
3.36767	756
3.37133	755
3.37500	754
3.37867	751
3.38233	747
3.38600	742
3.38967	740
3.39333	738
3.39700	734
3.40067	731
3.40433	729
3.40800	727
3.41167	726
3.41533	726
3.41900	725
3.42267	722
3.42633	718
3.43000	714
3.43367	711
3.43733	710
3.44100	712
3.44467	711
3.44833	707
3.45200	705
3.45567	701
3.45933	699
3.46300	697
3.46667	695
3.47033	691
3.47400	690
3.47767	689
3.48133	686
3.48500	685
3.48867	684
3.49233	683
3.49600	682
3.49967	680
3.50333	679
3.50700	677
3.51067	676
3.51433	676
3.51800	677
3.52167	674
3.52533	670
3.52900	667
3.53267	665
3.53633	664
3.54000	663
3.54367	661
3.54733	659
3.55100	655
3.55467	652
3.55833	651
3.56200	652
3.56567	651
3.56933	649
3.57300	649
3.57667	647
3.58033	645
3.58400	642
3.58767	639
3.59133	639
3.59500	641
3.59867	640
3.60233	637
3.60600	635
3.60967	634
3.61333	633
3.61700	630
3.62067	627
3.62433	625
3.62800	627
3.63167	626
3.63533	624
3.63900	623
3.64267	623
3.64633	620
3.65000	618
3.65367	616
3.65733	615
3.66100	614
3.66467	613
3.66833	611
3.67200	609
3.67567	607
3.67933	606
3.68300	607
3.68667	609
3.69033	607
3.69400	605
3.69767	604
3.70133	604
3.70500	603
3.70867	601
3.71233	602
3.71600	603
3.71967	604
3.72333	604
3.72700	603
3.73067	602
3.73433	599
3.73800	596
3.74167	594
3.74533	595
3.74900	596
3.75267	594
3.75633	591
3.76000	589
3.76367	589
3.76733	588
3.77100	586
3.77467	584
3.77833	584
3.78200	586
3.78567	586
3.78933	584
3.79300	580
3.79667	578
3.80033	576
3.80400	576
3.80767	577
3.81133	576
3.81500	575
3.81867	575
3.82233	574
3.82600	574
3.82967	572
3.83333	570
3.83700	572
3.84067	572
3.84433	570
3.84800	569
3.85167	569
3.85533	567
3.85900	565
3.86267	564
3.86633	563
3.87000	563
3.87367	562
3.87733	560
3.88100	559
3.88467	560
3.88833	560
3.89200	559
3.89567	558
3.89933	559
3.90300	559
3.90667	558
3.91033	555
3.91400	551
3.91767	549
3.92133	549
3.92500	550
3.92867	550
3.93233	550
3.93600	549
3.93967	548
3.94333	550
3.94700	549
3.95067	545
3.95433	542
3.95800	541
3.96167	541
3.96533	540
3.96900	538
3.97267	537
3.97633	536
3.98000	535
3.98367	537
3.98733	536
3.99100	536
3.99467	536
3.99833	532

[Status Trace (Column Oven Temperature)]
Interval(msec)	1000
# of Points	240
Start Time(min)	0.002
End Time(min)	3.985
Intensity Units	
Intensity Multiplier	1
R.Time (min)	Intensity
0.00168	35.04
0.01835	35.03
0.03502	35.02
0.05168	35.01
0.06835	35.01
0.08502	35.01
0.10168	35.01
0.11835	35.01
0.13502	35.01
0.15168	35.02
0.16835	35.03
0.18502	35.03
0.20168	35.04
0.21835	35.05
0.23502	35.05
0.25168	35.04
0.26835	35.03
0.28502	35.02
0.30168	35.01
0.31835	35.01
0.33502	35.00
0.35168	34.99
0.36835	34.98
0.38502	34.98
0.40168	34.98
0.41835	34.99
0.43502	35.00
0.45168	35.00
0.46835	34.98
0.48502	34.97
0.50168	34.96
0.51835	34.96
0.53502	34.96
0.55168	34.97
0.56835	34.99
0.58502	35.01
0.60168	35.02
0.61835	35.02
0.63502	35.02
0.65168	35.02
0.66835	35.01
0.68502	35.01
0.70168	35.01
0.71835	35.02
0.73502	35.01
0.75168	35.01
0.76835	35.02
0.78502	35.02
0.80168	35.02
0.81835	35.02
0.83502	35.02
0.85168	35.02
0.86835	35.02
0.88502	35.03
0.90168	35.03
0.91835	35.03
0.93502	35.02
0.95168	35.01
0.96835	35.00
0.98502	35.01
1.00168	35.01
1.01835	35.00
1.03502	35.02
1.05168	35.01
1.06835	35.02
1.08502	35.00
1.10168	34.99
1.11835	34.99
1.13502	34.99
1.15168	34.99
1.16835	34.99
1.18502	34.98
1.20168	34.99
1.21835	35.00
1.23502	34.99
1.25168	34.99
1.26835	34.99
1.28502	34.99
1.30168	35.00
1.31835	35.00
1.33502	35.01
1.35168	35.02
1.36835	35.01
1.38502	35.00
1.40168	35.01
1.41835	35.02
1.43502	35.03
1.45168	35.04
1.46835	35.04
1.48502	35.03
1.50168	35.02
1.51835	35.01
1.53502	35.02
1.55168	35.01
1.56835	35.00
1.58502	35.00
1.60168	35.04
1.61835	35.13
1.63502	35.31
1.65168	35.51
1.66835	35.80
1.68502	36.21
1.70168	36.52
1.71835	36.87
1.73502	37.26
1.75168	37.54
1.76835	37.85
1.78502	38.22
1.80168	38.52
1.81835	38.87
1.83502	39.23
1.85168	39.54
1.86835	39.87
1.88502	40.23
1.90168	40.53
1.91835	40.85
1.93502	41.21
1.95168	41.50
1.96835	41.83
1.98502	42.19
2.00168	42.49
2.01835	42.80
2.03502	43.17
2.05168	43.43
2.06835	43.76
2.08502	44.10
2.10168	44.40
2.11835	44.74
2.13502	45.08
2.15168	45.37
2.16835	45.69
2.18502	46.05
2.20168	46.35
2.21835	46.67
2.23502	47.07
2.25168	47.37
2.26835	47.69
2.28502	48.03
2.30168	48.39
2.31835	48.77
2.33502	49.10
2.35168	49.35
2.36835	49.57
2.38502	49.65
2.40168	49.65
2.41835	49.65
2.43502	49.67
2.45168	49.67
2.46835	49.68
2.48502	49.69
2.50168	49.71
2.51835	49.72
2.53502	49.73
2.55168	49.74
2.56835	49.75
2.58502	49.80
2.60168	49.81
2.61835	49.81
2.63502	49.82
2.65168	49.81
2.66835	49.81
2.68502	49.83
2.70168	49.83
2.71835	49.85
2.73502	49.86
2.75168	49.86
2.76835	49.86
2.78502	49.85
2.80168	49.85
2.81835	49.86
2.83502	49.87
2.85168	49.87
2.86835	49.87
2.88502	49.88
2.90168	49.90
2.91835	49.91
2.93502	49.92
2.95168	49.93
2.96835	49.94
2.98502	49.94
3.00168	49.95
3.01835	49.97
3.03502	49.99
3.05168	49.99
3.06835	49.99
3.08502	49.99
3.10168	49.99
3.11835	49.99
3.13502	50.01
3.15168	50.02
3.16835	50.04
3.18502	50.05
3.20168	50.05
3.21835	50.05
3.23502	50.05
3.25168	50.06
3.26835	50.06
3.28502	50.07
3.30168	50.07
3.31835	50.06
3.33502	50.05
3.35168	50.06
3.36835	50.07
3.38502	50.09
3.40168	50.09
3.41835	50.11
3.43502	50.11
3.45168	50.10
3.46835	50.09
3.48502	50.08
3.50168	50.06
3.51835	50.05
3.53502	50.04
3.55168	50.03
3.56835	50.03
3.58502	50.05
3.60168	50.06
3.61835	50.07
3.63502	50.08
3.65168	50.09
3.66835	50.09
3.68502	50.10
3.70168	50.10
3.71835	50.09
3.73502	50.08
3.75168	50.07
3.76835	50.07
3.78502	50.07
3.80168	50.06
3.81835	50.06
3.83502	50.07
3.85168	50.07
3.86835	50.06
3.88502	50.06
3.90168	50.06
3.91835	50.06
3.93502	50.05
3.95168	50.04
3.96835	50.05
3.98502	50.05

[Status Trace (Injection Unit Temperature)]
Interval(msec)	1000
# of Points	240
Start Time(min)	0.002
End Time(min)	3.985
Intensity Units	
Intensity Multiplier	1
R.Time (min)	Intensity
0.00168	99.97
0.01835	99.97
0.03502	99.98
0.05168	99.98
0.06835	99.98
0.08502	99.97
0.10168	99.98
0.11835	99.98
0.13502	99.97
0.15168	99.98
0.16835	99.97
0.18502	99.98
0.20168	99.98
0.21835	99.98
0.23502	99.98
0.25168	99.98
0.26835	99.98
0.28502	99.98
0.30168	99.98
0.31835	99.98
0.33502	99.98
0.35168	99.98
0.36835	99.98
0.38502	99.98
0.40168	99.98
0.41835	99.98
0.43502	99.98
0.45168	99.98
0.46835	99.98
0.48502	99.98
0.50168	99.99
0.51835	99.98
0.53502	99.98
0.55168	99.98
0.56835	99.98
0.58502	99.98
0.60168	99.98
0.61835	99.98
0.63502	99.98
0.65168	99.98
0.66835	99.99
0.68502	99.99
0.70168	99.98
0.71835	99.98
0.73502	99.99
0.75168	99.99
0.76835	99.98
0.78502	99.99
0.80168	99.99
0.81835	99.99
0.83502	99.98
0.85168	99.99
0.86835	99.99
0.88502	99.99
0.90168	99.99
0.91835	99.99
0.93502	99.99
0.95168	99.99
0.96835	99.99
0.98502	99.99
1.00168	99.99
1.01835	99.99
1.03502	99.99
1.05168	99.99
1.06835	99.98
1.08502	99.99
1.10168	99.98
1.11835	99.99
1.13502	99.99
1.15168	99.99
1.16835	99.99
1.18502	99.99
1.20168	99.99
1.21835	99.99
1.23502	99.99
1.25168	99.99
1.26835	99.99
1.28502	99.99
1.30168	99.99
1.31835	99.99
1.33502	99.99
1.35168	99.99
1.36835	99.99
1.38502	99.99
1.40168	99.99
1.41835	99.99
1.43502	99.99
1.45168	99.99
1.46835	99.99
1.48502	99.99
1.50168	99.99
1.51835	100.00
1.53502	99.99
1.55168	99.99
1.56835	99.99
1.58502	99.99
1.60168	99.99
1.61835	99.99
1.63502	99.99
1.65168	99.99
1.66835	99.99
1.68502	99.99
1.70168	99.99
1.71835	99.99
1.73502	99.99
1.75168	99.99
1.76835	99.99
1.78502	99.99
1.80168	99.99
1.81835	99.99
1.83502	99.99
1.85168	99.99
1.86835	99.99
1.88502	99.98
1.90168	99.99
1.91835	99.99
1.93502	99.98
1.95168	99.98
1.96835	99.98
1.98502	99.98
2.00168	99.98
2.01835	99.97
2.03502	99.97
2.05168	99.97
2.06835	99.97
2.08502	99.97
2.10168	99.97
2.11835	99.97
2.13502	99.97
2.15168	99.97
2.16835	99.97
2.18502	99.97
2.20168	99.97
2.21835	99.97
2.23502	99.96
2.25168	99.97
2.26835	99.97
2.28502	99.96
2.30168	99.96
2.31835	99.96
2.33502	99.96
2.35168	99.96
2.36835	99.96
2.38502	99.96
2.40168	99.96
2.41835	99.96
2.43502	99.96
2.45168	99.97
2.46835	99.97
2.48502	99.96
2.50168	99.97
2.51835	99.97
2.53502	99.97
2.55168	99.97
2.56835	99.97
2.58502	99.97
2.60168	99.97
2.61835	99.97
2.63502	99.97
2.65168	99.97
2.66835	99.98
2.68502	99.98
2.70168	99.98
2.71835	99.98
2.73502	99.98
2.75168	99.99
2.76835	99.98
2.78502	99.99
2.80168	99.99
2.81835	99.99
2.83502	99.99
2.85168	99.99
2.86835	99.99
2.88502	99.99
2.90168	100.00
2.91835	100.00
2.93502	100.00
2.95168	100.00
2.96835	100.00
2.98502	100.01
3.00168	100.01
3.01835	100.01
3.03502	100.01
3.05168	100.02
3.06835	100.01
3.08502	100.01
3.10168	100.02
3.11835	100.02
3.13502	100.02
3.15168	100.02
3.16835	100.02
3.18502	100.02
3.20168	100.02
3.21835	100.02
3.23502	100.02
3.25168	100.03
3.26835	100.03
3.28502	100.03
3.30168	100.03
3.31835	100.03
3.33502	100.03
3.35168	100.03
3.36835	100.04
3.38502	100.04
3.40168	100.04
3.41835	100.04
3.43502	100.04
3.45168	100.04
3.46835	100.04
3.48502	100.04
3.50168	100.05
3.51835	100.04
3.53502	100.04
3.55168	100.05
3.56835	100.04
3.58502	100.05
3.60168	100.05
3.61835	100.05
3.63502	100.06
3.65168	100.05
3.66835	100.05
3.68502	100.06
3.70168	100.06
3.71835	100.06
3.73502	100.06
3.75168	100.06
3.76835	100.06
3.78502	100.06
3.80168	100.06
3.81835	100.06
3.83502	100.06
3.85168	100.06
3.86835	100.06
3.88502	100.06
3.90168	100.06
3.91835	100.07
3.93502	100.06
3.95168	100.06
3.96835	100.07
3.98502	100.07

[Status Trace (Carrier Gas Pressure)]
Interval(msec)	1000
# of Points	240
Start Time(min)	0.002
End Time(min)	3.985
Intensity Units	
Intensity Multiplier	1
R.Time (min)	Intensity
0.00168	58.00
0.01835	56.44
0.03502	56.21
0.05168	58.40
0.06835	59.90
0.08502	58.35
0.10168	57.97
0.11835	58.00
0.13502	58.01
0.15168	58.01
0.16835	58.00
0.18502	58.00
0.20168	58.00
0.21835	58.00
0.23502	58.00
0.25168	58.00
0.26835	58.00
0.28502	58.00
0.30168	58.00
0.31835	58.00
0.33502	58.00
0.35168	58.00
0.36835	58.00
0.38502	58.00
0.40168	58.00
0.41835	58.00
0.43502	58.00
0.45168	58.00
0.46835	58.00
0.48502	58.00
0.50168	58.00
0.51835	58.00
0.53502	58.00
0.55168	58.00
0.56835	58.00
0.58502	58.00
0.60168	58.00
0.61835	58.00
0.63502	58.00
0.65168	58.00
0.66835	58.00
0.68502	58.00
0.70168	58.00
0.71835	58.00
0.73502	58.00
0.75168	58.00
0.76835	58.00
0.78502	58.00
0.80168	58.00
0.81835	58.00
0.83502	58.00
0.85168	58.00
0.86835	58.00
0.88502	58.00
0.90168	58.00
0.91835	58.00
0.93502	58.00
0.95168	58.00
0.96835	58.00
0.98502	58.00
1.00168	58.00
1.01835	58.00
1.03502	58.00
1.05168	58.00
1.06835	58.00
1.08502	58.00
1.10168	58.00
1.11835	58.00
1.13502	58.00
1.15168	58.00
1.16835	58.00
1.18502	58.00
1.20168	58.00
1.21835	58.00
1.23502	58.00
1.25168	58.00
1.26835	58.00
1.28502	58.00
1.30168	58.00
1.31835	58.00
1.33502	58.00
1.35168	58.00
1.36835	58.00
1.38502	58.00
1.40168	58.00
1.41835	58.00
1.43502	58.00
1.45168	58.00
1.46835	58.00
1.48502	58.00
1.50168	58.00
1.51835	58.00
1.53502	58.00
1.55168	58.00
1.56835	58.00
1.58502	58.00
1.60168	58.00
1.61835	58.00
1.63502	58.00
1.65168	58.00
1.66835	58.01
1.68502	58.01
1.70168	58.00
1.71835	58.00
1.73502	58.00
1.75168	58.00
1.76835	58.00
1.78502	58.00
1.80168	58.00
1.81835	58.00
1.83502	58.00
1.85168	58.00
1.86835	58.00
1.88502	58.00
1.90168	58.00
1.91835	58.00
1.93502	58.00
1.95168	58.00
1.96835	58.00
1.98502	58.00
2.00168	58.00
2.01835	58.00
2.03502	58.00
2.05168	58.00
2.06835	58.00
2.08502	58.00
2.10168	58.00
2.11835	58.00
2.13502	58.00
2.15168	58.00
2.16835	58.00
2.18502	58.00
2.20168	58.00
2.21835	58.00
2.23502	58.00
2.25168	58.00
2.26835	58.00
2.28502	58.00
2.30168	58.00
2.31835	58.00
2.33502	58.00
2.35168	58.00
2.36835	58.00
2.38502	57.99
2.40168	58.00
2.41835	58.00
2.43502	58.00
2.45168	58.00
2.46835	58.00
2.48502	58.00
2.50168	58.00
2.51835	58.00
2.53502	57.99
2.55168	58.00
2.56835	58.00
2.58502	58.00
2.60168	58.00
2.61835	58.00
2.63502	58.00
2.65168	58.00
2.66835	58.00
2.68502	58.00
2.70168	58.00
2.71835	58.00
2.73502	58.00
2.75168	58.00
2.76835	58.00
2.78502	58.00
2.80168	58.00
2.81835	58.00
2.83502	58.00
2.85168	58.00
2.86835	58.00
2.88502	58.00
2.90168	58.00
2.91835	58.00
2.93502	58.00
2.95168	58.00
2.96835	58.00
2.98502	58.00
3.00168	58.00
3.01835	58.00
3.03502	58.00
3.05168	58.00
3.06835	58.00
3.08502	58.00
3.10168	58.00
3.11835	58.00
3.13502	58.00
3.15168	58.00
3.16835	58.00
3.18502	58.00
3.20168	58.00
3.21835	58.00
3.23502	58.00
3.25168	58.00
3.26835	58.00
3.28502	58.00
3.30168	58.00
3.31835	58.00
3.33502	58.00
3.35168	58.00
3.36835	58.00
3.38502	58.00
3.40168	58.00
3.41835	58.00
3.43502	58.00
3.45168	58.00
3.46835	58.00
3.48502	58.00
3.50168	58.00
3.51835	58.00
3.53502	58.00
3.55168	58.00
3.56835	58.00
3.58502	58.00
3.60168	58.00
3.61835	58.00
3.63502	58.00
3.65168	58.00
3.66835	58.00
3.68502	58.00
3.70168	58.00
3.71835	58.00
3.73502	58.00
3.75168	58.00
3.76835	58.00
3.78502	58.00
3.80168	58.00
3.81835	58.00
3.83502	58.00
3.85168	58.00
3.86835	58.00
3.88502	58.00
3.90168	58.00
3.91835	58.00
3.93502	58.00
3.95168	58.00
3.96835	58.00
3.98502	58.00

[Status Trace (Carrier Gas Flow)]
Interval(msec)	1000
# of Points	240
Start Time(min)	0.002
End Time(min)	3.985
Intensity Units	
Intensity Multiplier	1
R.Time (min)	Intensity
0.00168	34.52
0.01835	34.35
0.03502	34.54
0.05168	34.54
0.06835	34.50
0.08502	34.52
0.10168	34.51
0.11835	34.52
0.13502	34.52
0.15168	34.51
0.16835	34.52
0.18502	34.52
0.20168	34.51
0.21835	34.52
0.23502	34.52
0.25168	34.52
0.26835	34.51
0.28502	34.51
0.30168	34.52
0.31835	34.52
0.33502	34.52
0.35168	34.52
0.36835	34.51
0.38502	34.52
0.40168	34.52
0.41835	34.52
0.43502	34.52
0.45168	34.52
0.46835	34.51
0.48502	34.52
0.50168	34.52
0.51835	34.52
0.53502	34.51
0.55168	34.52
0.56835	34.52
0.58502	34.52
0.60168	34.52
0.61835	34.53
0.63502	34.52
0.65168	34.52
0.66835	34.52
0.68502	34.52
0.70168	34.51
0.71835	34.52
0.73502	34.53
0.75168	34.51
0.76835	34.51
0.78502	34.52
0.80168	34.52
0.81835	34.52
0.83502	34.52
0.85168	34.52
0.86835	34.52
0.88502	34.52
0.90168	34.52
0.91835	34.52
0.93502	34.52
0.95168	34.52
0.96835	34.52
0.98502	34.52
1.00168	34.52
1.01835	34.52
1.03502	34.52
1.05168	34.51
1.06835	34.52
1.08502	34.52
1.10168	34.52
1.11835	34.52
1.13502	34.52
1.15168	34.52
1.16835	34.52
1.18502	34.52
1.20168	34.52
1.21835	34.52
1.23502	34.52
1.25168	34.52
1.26835	34.52
1.28502	34.52
1.30168	34.52
1.31835	34.52
1.33502	34.52
1.35168	34.52
1.36835	34.52
1.38502	34.52
1.40168	34.52
1.41835	34.52
1.43502	34.52
1.45168	34.52
1.46835	34.52
1.48502	34.52
1.50168	34.51
1.51835	34.52
1.53502	34.52
1.55168	34.52
1.56835	34.52
1.58502	34.51
1.60168	34.52
1.61835	34.52
1.63502	34.52
1.65168	34.52
1.66835	34.52
1.68502	34.52
1.70168	34.52
1.71835	34.52
1.73502	34.52
1.75168	34.52
1.76835	34.52
1.78502	34.52
1.80168	34.52
1.81835	34.52
1.83502	34.52
1.85168	34.52
1.86835	34.51
1.88502	34.52
1.90168	34.52
1.91835	34.52
1.93502	34.52
1.95168	34.52
1.96835	34.52
1.98502	34.52
2.00168	34.51
2.01835	34.52
2.03502	34.52
2.05168	34.51
2.06835	34.52
2.08502	34.52
2.10168	34.52
2.11835	34.52
2.13502	34.52
2.15168	34.52
2.16835	34.52
2.18502	34.52
2.20168	34.53
2.21835	34.52
2.23502	34.52
2.25168	34.52
2.26835	34.52
2.28502	34.52
2.30168	34.52
2.31835	34.52
2.33502	34.52
2.35168	34.51
2.36835	34.52
2.38502	34.53
2.40168	34.52
2.41835	34.52
2.43502	34.52
2.45168	34.53
2.46835	34.52
2.48502	34.52
2.50168	34.52
2.51835	34.53
2.53502	34.51
2.55168	34.51
2.56835	34.52
2.58502	34.52
2.60168	34.52
2.61835	34.52
2.63502	34.52
2.65168	34.52
2.66835	34.51
2.68502	34.52
2.70168	34.52
2.71835	34.52
2.73502	34.52
2.75168	34.52
2.76835	34.51
2.78502	34.52
2.80168	34.52
2.81835	34.52
2.83502	34.52
2.85168	34.52
2.86835	34.52
2.88502	34.52
2.90168	34.52
2.91835	34.52
2.93502	34.52
2.95168	34.52
2.96835	34.52
2.98502	34.52
3.00168	34.52
3.01835	34.52
3.03502	34.52
3.05168	34.52
3.06835	34.52
3.08502	34.52
3.10168	34.52
3.11835	34.52
3.13502	34.52
3.15168	34.52
3.16835	34.51
3.18502	34.52
3.20168	34.52
3.21835	34.52
3.23502	34.52
3.25168	34.52
3.26835	34.52
3.28502	34.52
3.30168	34.52
3.31835	34.52
3.33502	34.52
3.35168	34.52
3.36835	34.52
3.38502	34.52
3.40168	34.52
3.41835	34.52
3.43502	34.52
3.45168	34.52
3.46835	34.52
3.48502	34.51
3.50168	34.52
3.51835	34.52
3.53502	34.51
3.55168	34.52
3.56835	34.52
3.58502	34.52
3.60168	34.52
3.61835	34.53
3.63502	34.52
3.65168	34.51
3.66835	34.52
3.68502	34.52
3.70168	34.52
3.71835	34.52
3.73502	34.52
3.75168	34.53
3.76835	34.51
3.78502	34.52
3.80168	34.52
3.81835	34.52
3.83502	34.52
3.85168	34.52
3.86835	34.52
3.88502	34.52
3.90168	34.52
3.91835	34.52
3.93502	34.52
3.95168	34.52
3.96835	34.52
3.98502	34.51

[Status Trace (Column Flow)]
Interval(msec)	1000
# of Points	240
Start Time(min)	0.002
End Time(min)	3.985
Intensity Units	
Intensity Multiplier	1
R.Time (min)	Intensity
0.00168	5.49
0.01835	5.31
0.03502	5.29
0.05168	5.54
0.06835	5.72
0.08502	5.53
0.10168	5.49
0.11835	5.49
0.13502	5.49
0.15168	5.49
0.16835	5.49
0.18502	5.49
0.20168	5.49
0.21835	5.49
0.23502	5.49
0.25168	5.49
0.26835	5.49
0.28502	5.49
0.30168	5.49
0.31835	5.49
0.33502	5.49
0.35168	5.49
0.36835	5.49
0.38502	5.49
0.40168	5.49
0.41835	5.49
0.43502	5.49
0.45168	5.49
0.46835	5.49
0.48502	5.49
0.50168	5.49
0.51835	5.49
0.53502	5.49
0.55168	5.49
0.56835	5.49
0.58502	5.49
0.60168	5.49
0.61835	5.49
0.63502	5.49
0.65168	5.49
0.66835	5.49
0.68502	5.49
0.70168	5.49
0.71835	5.49
0.73502	5.49
0.75168	5.49
0.76835	5.49
0.78502	5.49
0.80168	5.49
0.81835	5.49
0.83502	5.49
0.85168	5.49
0.86835	5.49
0.88502	5.49
0.90168	5.49
0.91835	5.49
0.93502	5.49
0.95168	5.49
0.96835	5.49
0.98502	5.49
1.00168	5.49
1.01835	5.49
1.03502	5.49
1.05168	5.49
1.06835	5.49
1.08502	5.49
1.10168	5.49
1.11835	5.49
1.13502	5.49
1.15168	5.49
1.16835	5.49
1.18502	5.49
1.20168	5.49
1.21835	5.49
1.23502	5.49
1.25168	5.49
1.26835	5.49
1.28502	5.49
1.30168	5.49
1.31835	5.49
1.33502	5.49
1.35168	5.49
1.36835	5.49
1.38502	5.49
1.40168	5.49
1.41835	5.49
1.43502	5.49
1.45168	5.49
1.46835	5.49
1.48502	5.49
1.50168	5.49
1.51835	5.49
1.53502	5.49
1.55168	5.49
1.56835	5.49
1.58502	5.49
1.60168	5.49
1.61835	5.49
1.63502	5.48
1.65168	5.48
1.66835	5.47
1.68502	5.46
1.70168	5.45
1.71835	5.44
1.73502	5.42
1.75168	5.41
1.76835	5.40
1.78502	5.40
1.80168	5.38
1.81835	5.37
1.83502	5.36
1.85168	5.35
1.86835	5.34
1.88502	5.33
1.90168	5.32
1.91835	5.31
1.93502	5.30
1.95168	5.30
1.96835	5.29
1.98502	5.28
2.00168	5.27
2.01835	5.26
2.03502	5.25
2.05168	5.24
2.06835	5.23
2.08502	5.22
2.10168	5.21
2.11835	5.20
2.13502	5.19
2.15168	5.18
2.16835	5.17
2.18502	5.16
2.20168	5.15
2.21835	5.15
2.23502	5.14
2.25168	5.13
2.26835	5.12
2.28502	5.11
2.30168	5.10
2.31835	5.09
2.33502	5.08
2.35168	5.07
2.36835	5.06
2.38502	5.06
2.40168	5.06
2.41835	5.06
2.43502	5.06
2.45168	5.06
2.46835	5.06
2.48502	5.06
2.50168	5.06
2.51835	5.06
2.53502	5.06
2.55168	5.06
2.56835	5.06
2.58502	5.06
2.60168	5.06
2.61835	5.06
2.63502	5.06
2.65168	5.06
2.66835	5.06
2.68502	5.06
2.70168	5.06
2.71835	5.06
2.73502	5.06
2.75168	5.06
2.76835	5.06
2.78502	5.06
2.80168	5.06
2.81835	5.06
2.83502	5.06
2.85168	5.06
2.86835	5.06
2.88502	5.06
2.90168	5.06
2.91835	5.05
2.93502	5.05
2.95168	5.05
2.96835	5.05
2.98502	5.05
3.00168	5.05
3.01835	5.05
3.03502	5.05
3.05168	5.05
3.06835	5.05
3.08502	5.05
3.10168	5.05
3.11835	5.05
3.13502	5.05
3.15168	5.05
3.16835	5.05
3.18502	5.05
3.20168	5.05
3.21835	5.05
3.23502	5.05
3.25168	5.05
3.26835	5.05
3.28502	5.05
3.30168	5.05
3.31835	5.05
3.33502	5.05
3.35168	5.05
3.36835	5.05
3.38502	5.05
3.40168	5.05
3.41835	5.05
3.43502	5.05
3.45168	5.05
3.46835	5.05
3.48502	5.05
3.50168	5.05
3.51835	5.05
3.53502	5.05
3.55168	5.05
3.56835	5.05
3.58502	5.05
3.60168	5.05
3.61835	5.05
3.63502	5.05
3.65168	5.05
3.66835	5.05
3.68502	5.05
3.70168	5.05
3.71835	5.05
3.73502	5.05
3.75168	5.05
3.76835	5.05
3.78502	5.05
3.80168	5.05
3.81835	5.05
3.83502	5.05
3.85168	5.05
3.86835	5.05
3.88502	5.05
3.90168	5.05
3.91835	5.05
3.93502	5.05
3.95168	5.05
3.96835	5.05
3.98502	5.05

[Status Trace (Linear Velocity)]
Interval(msec)	1000
# of Points	240
Start Time(min)	0.002
End Time(min)	3.985
Intensity Units	
Intensity Multiplier	1
R.Time (min)	Intensity
0.00168	39.01
0.01835	37.98
0.03502	37.84
0.05168	39.27
0.06835	40.26
0.08502	39.24
0.10168	38.99
0.11835	39.01
0.13502	39.02
0.15168	39.01
0.16835	39.01
0.18502	39.01
0.20168	39.01
0.21835	39.01
0.23502	39.01
0.25168	39.01
0.26835	39.01
0.28502	39.01
0.30168	39.01
0.31835	39.01
0.33502	39.01
0.35168	39.01
0.36835	39.01
0.38502	39.01
0.40168	39.01
0.41835	39.01
0.43502	39.01
0.45168	39.01
0.46835	39.01
0.48502	39.01
0.50168	39.01
0.51835	39.01
0.53502	39.01
0.55168	39.01
0.56835	39.01
0.58502	39.01
0.60168	39.01
0.61835	39.01
0.63502	39.01
0.65168	39.01
0.66835	39.01
0.68502	39.01
0.70168	39.01
0.71835	39.01
0.73502	39.01
0.75168	39.01
0.76835	39.01
0.78502	39.01
0.80168	39.01
0.81835	39.01
0.83502	39.01
0.85168	39.01
0.86835	39.01
0.88502	39.01
0.90168	39.01
0.91835	39.01
0.93502	39.01
0.95168	39.01
0.96835	39.01
0.98502	39.01
1.00168	39.01
1.01835	39.01
1.03502	39.01
1.05168	39.01
1.06835	39.01
1.08502	39.01
1.10168	39.01
1.11835	39.01
1.13502	39.01
1.15168	39.01
1.16835	39.01
1.18502	39.01
1.20168	39.01
1.21835	39.01
1.23502	39.01
1.25168	39.01
1.26835	39.01
1.28502	39.01
1.30168	39.01
1.31835	39.01
1.33502	39.01
1.35168	39.01
1.36835	39.01
1.38502	39.01
1.40168	39.01
1.41835	39.01
1.43502	39.01
1.45168	39.01
1.46835	39.01
1.48502	39.01
1.50168	39.01
1.51835	39.01
1.53502	39.01
1.55168	39.01
1.56835	39.01
1.58502	39.01
1.60168	39.01
1.61835	39.00
1.63502	38.98
1.65168	38.96
1.66835	38.94
1.68502	38.90
1.70168	38.87
1.71835	38.83
1.73502	38.80
1.75168	38.77
1.76835	38.74
1.78502	38.71
1.80168	38.68
1.81835	38.64
1.83502	38.61
1.85168	38.58
1.86835	38.55
1.88502	38.52
1.90168	38.49
1.91835	38.46
1.93502	38.43
1.95168	38.40
1.96835	38.36
1.98502	38.33
2.00168	38.30
2.01835	38.27
2.03502	38.24
2.05168	38.22
2.06835	38.19
2.08502	38.16
2.10168	38.13
2.11835	38.10
2.13502	38.07
2.15168	38.04
2.16835	38.01
2.18502	37.98
2.20168	37.95
2.21835	37.92
2.23502	37.89
2.25168	37.86
2.26835	37.83
2.28502	37.80
2.30168	37.77
2.31835	37.73
2.33502	37.71
2.35168	37.68
2.36835	37.66
2.38502	37.65
2.40168	37.65
2.41835	37.66
2.43502	37.66
2.45168	37.65
2.46835	37.65
2.48502	37.65
2.50168	37.65
2.51835	37.65
2.53502	37.65
2.55168	37.65
2.56835	37.65
2.58502	37.64
2.60168	37.64
2.61835	37.64
2.63502	37.64
2.65168	37.64
2.66835	37.64
2.68502	37.64
2.70168	37.64
2.71835	37.64
2.73502	37.64
2.75168	37.64
2.76835	37.64
2.78502	37.64
2.80168	37.64
2.81835	37.64
2.83502	37.64
2.85168	37.64
2.86835	37.64
2.88502	37.64
2.90168	37.64
2.91835	37.63
2.93502	37.63
2.95168	37.63
2.96835	37.63
2.98502	37.63
3.00168	37.63
3.01835	37.63
3.03502	37.63
3.05168	37.63
3.06835	37.63
3.08502	37.63
3.10168	37.63
3.11835	37.63
3.13502	37.63
3.15168	37.62
3.16835	37.62
3.18502	37.62
3.20168	37.62
3.21835	37.62
3.23502	37.62
3.25168	37.62
3.26835	37.62
3.28502	37.62
3.30168	37.62
3.31835	37.62
3.33502	37.62
3.35168	37.62
3.36835	37.62
3.38502	37.62
3.40168	37.62
3.41835	37.62
3.43502	37.62
3.45168	37.62
3.46835	37.62
3.48502	37.62
3.50168	37.62
3.51835	37.62
3.53502	37.62
3.55168	37.62
3.56835	37.62
3.58502	37.62
3.60168	37.62
3.61835	37.62
3.63502	37.62
3.65168	37.62
3.66835	37.62
3.68502	37.62
3.70168	37.62
3.71835	37.62
3.73502	37.62
3.75168	37.62
3.76835	37.62
3.78502	37.62
3.80168	37.62
3.81835	37.62
3.83502	37.62
3.85168	37.62
3.86835	37.62
3.88502	37.62
3.90168	37.62
3.91835	37.62
3.93502	37.62
3.95168	37.62
3.96835	37.62
3.98502	37.62

