[Header]
Application Name	LabSolutions
Version	5.110
Data File Name	C:\Users\User\Desktop\Junior\UIC Prairie Sampling\6.15.23\06152023_076.gcd
Output Date	6/26/2023
Output Time	12:05:12 PM

[File Information]
Type	Data File
Generated	6/23/2023 8:07:18 PM
Generated by	System Administrator
Modified	6/23/2023 8:14:47 PM
Modified by	System Administrator

[Sample Information]
Operator Name	System Administrator
Acquired	6/23/2023 8:10:46 PM
Sample Type	0:Unknown
Level	0
Sample Name	076
Sample ID	076
ISTD Amount1	1
ISTD Amount2	1
ISTD Amount3	1
ISTD Amount4	1
ISTD Amount5	1
ISTD Amount6	1
ISTD Amount7	1
ISTD Amount8	1
ISTD Amount9	1
ISTD Amount10	1
ISTD Amount11	1
ISTD Amount12	1
ISTD Amount13	1
ISTD Amount14	1
ISTD Amount15	1
ISTD Amount16	1
ISTD Amount17	1
ISTD Amount18	1
ISTD Amount19	1
ISTD Amount20	1
ISTD Amount21	1
ISTD Amount22	1
ISTD Amount23	1
ISTD Amount24	1
ISTD Amount25	1
ISTD Amount26	1
ISTD Amount27	1
ISTD Amount28	1
ISTD Amount29	1
ISTD Amount30	1
ISTD Amount31	1
ISTD Amount32	1
Sample Amount	1
Dilution Factor	1
Vial#	75
Injection Volume	1
Injection Count	1
Bar Code	

[Original Files]
Data File	C:\Users\User\Desktop\Junior\UIC Prairie Sampling\6.15.23\06152023_076.gcd
Method File	C:\LabSolutions\Data\GHG_4min_2022\ghg3_togas_w_acet_4 min_new_int.gcm
Batch File	C:\LabSolutions\Data\AutoSamplerTesting\06152023.gcb
Report Format File	c:\LabSolutions\System\DEFAULT.lsr

[File Description]


[Configuration]
Instrument Name	C0B7VH3-Instrument1
Instrument #	1
Line #	1
# of Detectors	3
Detector ID	DET#1	DET#2	DET#3
Detector Name	FID	PTCD	ECD
# of Channels	1	1	1

[Peak Table(Ch1)]
# of Peaks	3
Peak#	R.Time	I.Time	F.Time	Area	Height	A/H	Conc.	Mark	ID#	Name	k'	Plate #	Plate Ht.	Tailing	Resolution	Sep.Factor	Area Ratio	Height Ratio	Conc. %	Norm Conc.
1	1.472	1.443	1.527	4295	2174	1.975	0.000	   	1	CO	0.000	9831	15.258	1.353	0.000	0.000	0	0	0.000	0.000
2	1.564	1.527	1.622	3931	2015	1.951	19.163	 V 	2	CH4	0.062	11737	12.780	1.090	1.565	0.000	0	0	2.691	2.691
3	1.989	1.941	2.686	3596280	1710619	2.102	693.069	   	3	CO2	0.351	17573	8.536	1.249	7.224	5.640	0	0	97.309	97.309

[Peak Table(Ch2)]
# of Peaks	0

[Peak Table(Ch3)]
# of Peaks	4
Peak#	R.Time	I.Time	F.Time	Area	Height	A/H	Conc.	Mark	ID#	Name	k'	Plate #	Plate Ht.	Tailing	Resolution	Sep.Factor	Area Ratio	Height Ratio	Conc. %	Norm Conc.
1	2.499	2.440	2.539	4053	851	4.763	0.000	   			0.000	1786	83.976	0.000	0.000	0.000	0	0	0.000	0.000
2	2.572	2.539	2.667	4906	770	6.368	0.000	 V 			0.029	386	388.806	0.000	0.193	0.000	0	0	0.000	0.000
3	2.722	2.667	2.825	4778	560	8.530	0.000	 V 			0.090	118	1272.554	0.000	0.197	3.050	0	0	0.000	0.000
4	2.887	2.825	3.632	30156	5167	5.836	0.446	 V 	1	N2O	0.156	12003	12.497	0.000	0.298	1.738	0	0	100.000	100.000

[Compound Results(Ch1)]
# of IDs	6
ID#	Name	R.Time	Area	Height	Conc.	Curve	3rd	2nd	1st	Constant	Area Ratio	Height Ratio	Conc. %	Norm Conc.
1	CO	1.472	4295	2174	0.000	Linear	0.000000e+00	0.000000e+00	0.000000e+00	0.000000e+00	0	0	0.000	0.000
2	CH4	1.564	3931	2015	19.163	Linear	0.000000e+00	0.000000e+00	2.051179e+002	0.000000e+00	0	0	2.691	2.691
3	CO2	1.989	3596280	1710619	693.069	Linear	0.000000e+00	0.000000e+00	5.188919e+003	0.000000e+00	0	0	97.309	97.309
4	Ethylene	0.000	0	0	0.000	Linear	0.000000e+00	0.000000e+00	0.000000e+00	0.000000e+00	0	0	0.000	0.000
5	Acetylene	0.000	0	0	0.000	Linear	0.000000e+00	0.000000e+00	0.000000e+00	0.000000e+00	0	0	0.000	0.000
6	Ethane	0.000	0	0	0.000	Linear	0.000000e+00	0.000000e+00	0.000000e+00	0.000000e+00	0	0	0.000	0.000

[Compound Results(Ch2)]
# of IDs	5
ID#	Name	R.Time	Area	Height	Conc.	Curve	3rd	2nd	1st	Constant	Area Ratio	Height Ratio	Conc. %	Norm Conc.
1	Hydrogen	0.000	0	0	0.000	Linear	0.000000e+00	0.000000e+00	0.000000e+00	0.000000e+00	0	0	0.000	0.000
2	Oxygen	0.000	0	0	0.000	Linear	0.000000e+00	0.000000e+00	0.000000e+00	0.000000e+00	0	0	0.000	0.000
3	Nitrogen	0.000	0	0	0.000	Linear	0.000000e+00	0.000000e+00	0.000000e+00	0.000000e+00	0	0	0.000	0.000
4	Methane	0.000	0	0	0.000	Linear	0.000000e+00	0.000000e+00	0.000000e+00	0.000000e+00	0	0	0.000	0.000
5	Carbon Monoxide	0.000	0	0	0.000	Linear	0.000000e+00	0.000000e+00	0.000000e+00	0.000000e+00	0	0	0.000	0.000

[Compound Results(Ch3)]
# of IDs	2
ID#	Name	R.Time	Area	Height	Conc.	Curve	3rd	2nd	1st	Constant	Area Ratio	Height Ratio	Conc. %	Norm Conc.
1	N2O	2.887	30156	5167	0.446	Linear	0.000000e+00	0.000000e+00	6.759880e+004	0.000000e+00	0	0	100.000	100.000
2	SF6	0.000	0	0	0.000	Linear	0.000000e+00	0.000000e+00	0.000000e+00	0.000000e+00	0	0	0.000	0.000

[Group Results(Ch1)]
# of Groups	0

[Group Results(Ch2)]
# of Groups	0

[Group Results(Ch3)]
# of Groups	0

[Chromatogram (Ch1)]
Interval(msec)	220
# of Points	1091
Start Time(min)	0.002
End Time(min)	3.998
R.Time (min)	Intensity
0.00167	-9
0.00533	-19
0.00900	-29
0.01267	-38
0.01633	-39
0.02000	-34
0.02367	-25
0.02733	-19
0.03100	-19
0.03467	-21
0.03833	-24
0.04200	-27
0.04567	-29
0.04933	-26
0.05300	-23
0.05667	-22
0.06033	-23
0.06400	-26
0.06767	-28
0.07133	-26
0.07500	-23
0.07867	-19
0.08233	-14
0.08600	-11
0.08967	-10
0.09333	-12
0.09700	-10
0.10067	-1
0.10433	5
0.10800	10
0.11167	10
0.11533	3
0.11900	-5
0.12267	-14
0.12633	-21
0.13000	-25
0.13367	-26
0.13733	-25
0.14100	-29
0.14467	-32
0.14833	-31
0.15200	-27
0.15567	-18
0.15933	-8
0.16300	-7
0.16667	-13
0.17033	-17
0.17400	-20
0.17767	-23
0.18133	-27
0.18500	-33
0.18867	-38
0.19233	-40
0.19600	-37
0.19967	-32
0.20333	-25
0.20700	-23
0.21067	-29
0.21433	-34
0.21800	-33
0.22167	-30
0.22533	-26
0.22900	-23
0.23267	-20
0.23633	-17
0.24000	-17
0.24367	-21
0.24733	-24
0.25100	-25
0.25467	-25
0.25833	-27
0.26200	-29
0.26567	-30
0.26933	-30
0.27300	-26
0.27667	-18
0.28033	-10
0.28400	-3
0.28767	2
0.29133	3
0.29500	-0
0.29867	-3
0.30233	-10
0.30600	-21
0.30967	-33
0.31333	-42
0.31700	-48
0.32067	-53
0.32433	-55
0.32800	-52
0.33167	-47
0.33533	-45
0.33900	-45
0.34267	-43
0.34633	-38
0.35000	-34
0.35367	-30
0.35733	-26
0.36100	-22
0.36467	-18
0.36833	-13
0.37200	-8
0.37567	-7
0.37933	-10
0.38300	-14
0.38667	-19
0.39033	-25
0.39400	-33
0.39767	-41
0.40133	-49
0.40500	-52
0.40867	-53
0.41233	-54
0.41600	-53
0.41967	-48
0.42333	-41
0.42700	-37
0.43067	-35
0.43433	-34
0.43800	-32
0.44167	-31
0.44533	-28
0.44900	-25
0.45267	-22
0.45633	-19
0.46000	-17
0.46367	-18
0.46733	-23
0.47100	-29
0.47467	-34
0.47833	-34
0.48200	-35
0.48567	-34
0.48933	-27
0.49300	-20
0.49667	-14
0.50033	-9
0.50400	-5
0.50767	-8
0.51133	-13
0.51500	-19
0.51867	-25
0.52233	-28
0.52600	-31
0.52967	-34
0.53333	-35
0.53700	-33
0.54067	-31
0.54433	-30
0.54800	-29
0.55167	-29
0.55533	-26
0.55900	-22
0.56267	-20
0.56633	-19
0.57000	-19
0.57367	-19
0.57733	-23
0.58100	-33
0.58467	-42
0.58833	-46
0.59200	-43
0.59567	-38
0.59933	-31
0.60300	-25
0.60667	-21
0.61033	-20
0.61400	-22
0.61767	-22
0.62133	-22
0.62500	-21
0.62867	-21
0.63233	-23
0.63600	-27
0.63967	-32
0.64333	-35
0.64700	-33
0.65067	-28
0.65433	-23
0.65800	-22
0.66167	-23
0.66533	-23
0.66900	-21
0.67267	-16
0.67633	-14
0.68000	-16
0.68367	-20
0.68733	-24
0.69100	-29
0.69467	-40
0.69833	-49
0.70200	-53
0.70567	-51
0.70933	-47
0.71300	-44
0.71667	-42
0.72033	-41
0.72400	-37
0.72767	-33
0.73133	-31
0.73500	-31
0.73867	-31
0.74233	-30
0.74600	-27
0.74967	-26
0.75333	-28
0.75700	-30
0.76067	-29
0.76433	-26
0.76800	-22
0.77167	-21
0.77533	-21
0.77900	-22
0.78267	-22
0.78633	-23
0.79000	-23
0.79367	-25
0.79733	-29
0.80100	-30
0.80467	-28
0.80833	-26
0.81200	-26
0.81567	-24
0.81933	-24
0.82300	-30
0.82667	-38
0.83033	-47
0.83400	-54
0.83767	-55
0.84133	-50
0.84500	-43
0.84867	-37
0.85233	-34
0.85600	-39
0.85967	-48
0.86333	-57
0.86700	-62
0.87067	-60
0.87433	-58
0.87800	-56
0.88167	-54
0.88533	-50
0.88900	-43
0.89267	-36
0.89633	-31
0.90000	-29
0.90367	-31
0.90733	-36
0.91100	-40
0.91467	-41
0.91833	-40
0.92200	-39
0.92567	-40
0.92933	-39
0.93300	-38
0.93667	-40
0.94033	-44
0.94400	-46
0.94767	-48
0.95133	-51
0.95500	-54
0.95867	-57
0.96233	-58
0.96600	-60
0.96967	-56
0.97333	-47
0.97700	-36
0.98067	-30
0.98433	-28
0.98800	-27
0.99167	-26
0.99533	-25
0.99900	-27
1.00267	-34
1.00633	-47
1.01000	-62
1.01367	-70
1.01733	-70
1.02100	-69
1.02467	-69
1.02833	-66
1.03200	-64
1.03567	-62
1.03933	-61
1.04300	-59
1.04667	-57
1.05033	-58
1.05400	-60
1.05767	-62
1.06133	-62
1.06500	-55
1.06867	-45
1.07233	-35
1.07600	-29
1.07967	-25
1.08333	-23
1.08700	-23
1.09067	-23
1.09433	-26
1.09800	-29
1.10167	-31
1.10533	-32
1.10900	-35
1.11267	-39
1.11633	-38
1.12000	-37
1.12367	-37
1.12733	-38
1.13100	-38
1.13467	-39
1.13833	-41
1.14200	-43
1.14567	-40
1.14933	-35
1.15300	-31
1.15667	-30
1.16033	-32
1.16400	-35
1.16767	-37
1.17133	-41
1.17500	-43
1.17867	-45
1.18233	-48
1.18600	-51
1.18967	-51
1.19333	-49
1.19700	-47
1.20067	-46
1.20433	-42
1.20800	-39
1.21167	-39
1.21533	-39
1.21900	-36
1.22267	-32
1.22633	-32
1.23000	-37
1.23367	-44
1.23733	-51
1.24100	-55
1.24467	-56
1.24833	-54
1.25200	-47
1.25567	-37
1.25933	-33
1.26300	-31
1.26667	-33
1.27033	-37
1.27400	-45
1.27767	-52
1.28133	-58
1.28500	-60
1.28867	-60
1.29233	-60
1.29600	-61
1.29967	-60
1.30333	-57
1.30700	-54
1.31067	-51
1.31433	-51
1.31800	-51
1.32167	-50
1.32533	-48
1.32900	-48
1.33267	-50
1.33633	-51
1.34000	-52
1.34367	-51
1.34733	-45
1.35100	-38
1.35467	-34
1.35833	-34
1.36200	-37
1.36567	-37
1.36933	-35
1.37300	-30
1.37667	-27
1.38033	-28
1.38400	-32
1.38767	-36
1.39133	-40
1.39500	-45
1.39867	-51
1.40233	-58
1.40600	-63
1.40967	-64
1.41333	-60
1.41700	-52
1.42067	-44
1.42433	-39
1.42800	-40
1.43167	-42
1.43533	-44
1.43900	-42
1.44267	-42
1.44633	15
1.45000	232
1.45367	612
1.45733	1054
1.46100	1469
1.46467	1810
1.46833	2043
1.47200	2130
1.47567	2049
1.47933	1820
1.48300	1499
1.48667	1158
1.49033	851
1.49400	603
1.49767	414
1.50133	279
1.50500	183
1.50867	119
1.51233	77
1.51600	49
1.51967	29
1.52333	14
1.52700	3
1.53067	3
1.53433	36
1.53800	160
1.54167	417
1.54533	785
1.54900	1186
1.55267	1539
1.55633	1803
1.56000	1955
1.56367	1964
1.56733	1815
1.57100	1538
1.57467	1203
1.57833	878
1.58200	604
1.58567	392
1.58933	238
1.59300	132
1.59667	61
1.60033	14
1.60400	-14
1.60767	-28
1.61133	-37
1.61500	-43
1.61867	-49
1.62233	-55
1.62600	-61
1.62967	-64
1.63333	-61
1.63700	-59
1.64067	-61
1.64433	-65
1.64800	-68
1.65167	-69
1.65533	-71
1.65900	-70
1.66267	-69
1.66633	-69
1.67000	-69
1.67367	-67
1.67733	-66
1.68100	-67
1.68467	-70
1.68833	-75
1.69200	-79
1.69567	-83
1.69933	-85
1.70300	-87
1.70667	-85
1.71033	-79
1.71400	-73
1.71767	-70
1.72133	-71
1.72500	-75
1.72867	-78
1.73233	-79
1.73600	-76
1.73967	-69
1.74333	-65
1.74700	-65
1.75067	-65
1.75433	-62
1.75800	-62
1.76167	-68
1.76533	-76
1.76900	-79
1.77267	-75
1.77633	-71
1.78000	-69
1.78367	-71
1.78733	-77
1.79100	-84
1.79467	-89
1.79833	-91
1.80200	-95
1.80567	-97
1.80933	-99
1.81300	-96
1.81667	-93
1.82033	-90
1.82400	-87
1.82767	-85
1.83133	-83
1.83500	-80
1.83867	-78
1.84233	-76
1.84600	-74
1.84967	-70
1.85333	-65
1.85700	-62
1.86067	-61
1.86433	-66
1.86800	-71
1.87167	-74
1.87533	-75
1.87900	-76
1.88267	-77
1.88633	-77
1.89000	-77
1.89367	-75
1.89733	-74
1.90100	-76
1.90467	-77
1.90833	-77
1.91200	-73
1.91567	-66
1.91933	-60
1.92300	-58
1.92667	-62
1.93033	-70
1.93400	-79
1.93767	-88
1.94133	-88
1.94500	-49
1.94867	273
1.95233	2295
1.95600	11792
1.95967	45325
1.96333	135136
1.96700	316656
1.97067	596678
1.97433	935344
1.97800	1265991
1.98167	1527801
1.98533	1681396
1.98900	1710570
1.99267	1620877
1.99633	1437922
2.00000	1200528
2.00367	949769
2.00733	718298
2.01100	524742
2.01467	374372
2.01833	263632
2.02200	185072
2.02567	130700
2.02933	93613
2.03300	68477
2.03667	51427
2.04033	39779
2.04400	31709
2.04767	26017
2.05133	21916
2.05500	18887
2.05867	16591
2.06233	14804
2.06600	13381
2.06967	12221
2.07333	11257
2.07700	10441
2.08067	9737
2.08433	9121
2.08800	8574
2.09167	8084
2.09533	7646
2.09900	7255
2.10267	6902
2.10633	6579
2.11000	6280
2.11367	6002
2.11733	5749
2.12100	5517
2.12467	5304
2.12833	5108
2.13200	4928
2.13567	4759
2.13933	4601
2.14300	4447
2.14667	4299
2.15033	4161
2.15400	4032
2.15767	3912
2.16133	3800
2.16500	3692
2.16867	3587
2.17233	3485
2.17600	3391
2.17967	3302
2.18333	3217
2.18700	3139
2.19067	3064
2.19433	2991
2.19800	2920
2.20167	2850
2.20533	2783
2.20900	2715
2.21267	2649
2.21633	2587
2.22000	2528
2.22367	2466
2.22733	2406
2.23100	2354
2.23467	2304
2.23833	2252
2.24200	2206
2.24567	2160
2.24933	2112
2.25300	2065
2.25667	2020
2.26033	1980
2.26400	1945
2.26767	1914
2.27133	1886
2.27500	1855
2.27867	1822
2.28233	1790
2.28600	1759
2.28967	1730
2.29333	1701
2.29700	1675
2.30067	1648
2.30433	1618
2.30800	1590
2.31167	1564
2.31533	1540
2.31900	1515
2.32267	1493
2.32633	1474
2.33000	1456
2.33367	1439
2.33733	1424
2.34100	1413
2.34467	1401
2.34833	1382
2.35200	1359
2.35567	1330
2.35933	1301
2.36300	1274
2.36667	1251
2.37033	1230
2.37400	1213
2.37767	1199
2.38133	1187
2.38500	1175
2.38867	1165
2.39233	1158
2.39600	1148
2.39967	1133
2.40333	1115
2.40700	1098
2.41067	1084
2.41433	1074
2.41800	1064
2.42167	1049
2.42533	1032
2.42900	1017
2.43267	1005
2.43633	995
2.44000	987
2.44367	980
2.44733	974
2.45100	965
2.45467	955
2.45833	943
2.46200	927
2.46567	911
2.46933	897
2.47300	886
2.47667	874
2.48033	866
2.48400	859
2.48767	850
2.49133	842
2.49500	835
2.49867	828
2.50233	822
2.50600	816
2.50967	810
2.51333	805
2.51700	800
2.52067	797
2.52433	793
2.52800	785
2.53167	774
2.53533	763
2.53900	750
2.54267	735
2.54633	720
2.55000	708
2.55367	703
2.55733	699
2.56100	692
2.56467	685
2.56833	677
2.57200	668
2.57567	663
2.57933	660
2.58300	657
2.58667	652
2.59033	646
2.59400	645
2.59767	648
2.60133	651
2.60500	653
2.60867	651
2.61233	644
2.61600	629
2.61967	608
2.62333	587
2.62700	568
2.63067	556
2.63433	551
2.63800	549
2.64167	545
2.64533	543
2.64900	544
2.65267	545
2.65633	547
2.66000	552
2.66367	557
2.66733	559
2.67100	558
2.67467	551
2.67833	538
2.68200	527
2.68567	522
2.68933	517
2.69300	515
2.69667	515
2.70033	517
2.70400	517
2.70767	514
2.71133	509
2.71500	501
2.71867	491
2.72233	482
2.72600	478
2.72967	478
2.73333	478
2.73700	480
2.74067	482
2.74433	480
2.74800	474
2.75167	466
2.75533	461
2.75900	460
2.76267	461
2.76633	459
2.77000	454
2.77367	443
2.77733	435
2.78100	430
2.78467	425
2.78833	421
2.79200	420
2.79567	421
2.79933	420
2.80300	416
2.80667	411
2.81033	410
2.81400	410
2.81767	412
2.82133	412
2.82500	410
2.82867	407
2.83233	402
2.83600	396
2.83967	392
2.84333	387
2.84700	381
2.85067	374
2.85433	369
2.85800	367
2.86167	366
2.86533	365
2.86900	365
2.87267	367
2.87633	367
2.88000	368
2.88367	369
2.88733	372
2.89100	377
2.89467	378
2.89833	374
2.90200	367
2.90567	356
2.90933	345
2.91300	337
2.91667	332
2.92033	334
2.92400	333
2.92767	328
2.93133	324
2.93500	326
2.93867	331
2.94233	338
2.94600	345
2.94967	348
2.95333	349
2.95700	351
2.96067	348
2.96433	342
2.96800	334
2.97167	325
2.97533	320
2.97900	317
2.98267	320
2.98633	324
2.99000	328
2.99367	332
2.99733	334
3.00100	331
3.00467	327
3.00833	321
3.01200	318
3.01567	318
3.01933	320
3.02300	320
3.02667	318
3.03033	313
3.03400	307
3.03767	302
3.04133	300
3.04500	298
3.04867	295
3.05233	291
3.05600	290
3.05967	290
3.06333	294
3.06700	297
3.07067	299
3.07433	300
3.07800	295
3.08167	286
3.08533	279
3.08900	273
3.09267	270
3.09633	267
3.10000	264
3.10367	262
3.10733	261
3.11100	258
3.11467	252
3.11833	250
3.12200	254
3.12567	260
3.12933	267
3.13300	272
3.13667	272
3.14033	270
3.14400	270
3.14767	268
3.15133	269
3.15500	271
3.15867	271
3.16233	267
3.16600	263
3.16967	258
3.17333	259
3.17700	263
3.18067	268
3.18433	266
3.18800	260
3.19167	253
3.19533	246
3.19900	240
3.20267	233
3.20633	226
3.21000	224
3.21367	228
3.21733	236
3.22100	243
3.22467	250
3.22833	256
3.23200	257
3.23567	253
3.23933	244
3.24300	233
3.24667	223
3.25033	215
3.25400	211
3.25767	210
3.26133	209
3.26500	209
3.26867	211
3.27233	213
3.27600	216
3.27967	218
3.28333	217
3.28700	213
3.29067	212
3.29433	215
3.29800	215
3.30167	217
3.30533	222
3.30900	227
3.31267	229
3.31633	229
3.32000	230
3.32367	232
3.32733	232
3.33100	229
3.33467	224
3.33833	216
3.34200	212
3.34567	209
3.34933	207
3.35300	207
3.35667	211
3.36033	215
3.36400	213
3.36767	206
3.37133	199
3.37500	194
3.37867	194
3.38233	195
3.38600	195
3.38967	191
3.39333	187
3.39700	181
3.40067	180
3.40433	183
3.40800	187
3.41167	189
3.41533	193
3.41900	198
3.42267	201
3.42633	198
3.43000	196
3.43367	196
3.43733	198
3.44100	201
3.44467	204
3.44833	202
3.45200	197
3.45567	191
3.45933	186
3.46300	183
3.46667	183
3.47033	184
3.47400	189
3.47767	195
3.48133	201
3.48500	206
3.48867	206
3.49233	203
3.49600	198
3.49967	193
3.50333	186
3.50700	180
3.51067	175
3.51433	171
3.51800	168
3.52167	167
3.52533	170
3.52900	174
3.53267	172
3.53633	167
3.54000	163
3.54367	165
3.54733	168
3.55100	171
3.55467	173
3.55833	174
3.56200	173
3.56567	170
3.56933	166
3.57300	163
3.57667	160
3.58033	159
3.58400	164
3.58767	172
3.59133	175
3.59500	176
3.59867	177
3.60233	181
3.60600	183
3.60967	183
3.61333	186
3.61700	192
3.62067	197
3.62433	200
3.62800	201
3.63167	198
3.63533	190
3.63900	180
3.64267	170
3.64633	164
3.65000	161
3.65367	161
3.65733	160
3.66100	160
3.66467	161
3.66833	164
3.67200	170
3.67567	177
3.67933	186
3.68300	192
3.68667	193
3.69033	191
3.69400	183
3.69767	172
3.70133	163
3.70500	154
3.70867	150
3.71233	152
3.71600	157
3.71967	165
3.72333	174
3.72700	183
3.73067	186
3.73433	179
3.73800	170
3.74167	166
3.74533	167
3.74900	171
3.75267	178
3.75633	186
3.76000	187
3.76367	181
3.76733	170
3.77100	156
3.77467	142
3.77833	130
3.78200	124
3.78567	119
3.78933	116
3.79300	114
3.79667	116
3.80033	122
3.80400	128
3.80767	132
3.81133	136
3.81500	140
3.81867	144
3.82233	152
3.82600	162
3.82967	167
3.83333	166
3.83700	161
3.84067	156
3.84433	152
3.84800	150
3.85167	150
3.85533	150
3.85900	151
3.86267	149
3.86633	144
3.87000	137
3.87367	133
3.87733	134
3.88100	134
3.88467	134
3.88833	134
3.89200	133
3.89567	128
3.89933	123
3.90300	124
3.90667	130
3.91033	140
3.91400	147
3.91767	149
3.92133	148
3.92500	145
3.92867	140
3.93233	138
3.93600	141
3.93967	144
3.94333	145
3.94700	145
3.95067	145
3.95433	143
3.95800	137
3.96167	132
3.96533	127
3.96900	125
3.97267	120
3.97633	113
3.98000	111
3.98367	113
3.98733	118
3.99100	122
3.99467	120
3.99833	115

[Chromatogram (Ch2)]
Interval(msec)	220
# of Points	1091
Start Time(min)	0.002
End Time(min)	3.998
R.Time (min)	Intensity
0.00167	0
0.00533	0
0.00900	0
0.01267	-0
0.01633	-0
0.02000	-0
0.02367	-1
0.02733	-1
0.03100	-1
0.03467	-1
0.03833	-1
0.04200	-1
0.04567	-1
0.04933	-1
0.05300	-1
0.05667	-1
0.06033	-1
0.06400	-0
0.06767	-0
0.07133	-0
0.07500	0
0.07867	0
0.08233	0
0.08600	1
0.08967	1
0.09333	1
0.09700	1
0.10067	1
0.10433	1
0.10800	0
0.11167	0
0.11533	0
0.11900	0
0.12267	0
0.12633	0
0.13000	0
0.13367	-0
0.13733	-1
0.14100	-1
0.14467	-1
0.14833	-1
0.15200	-1
0.15567	-1
0.15933	-1
0.16300	-1
0.16667	-1
0.17033	-0
0.17400	-0
0.17767	0
0.18133	0
0.18500	0
0.18867	0
0.19233	0
0.19600	0
0.19967	0
0.20333	0
0.20700	1
0.21067	1
0.21433	1
0.21800	1
0.22167	1
0.22533	0
0.22900	0
0.23267	-0
0.23633	-0
0.24000	-1
0.24367	-1
0.24733	-0
0.25100	-0
0.25467	-0
0.25833	-0
0.26200	-0
0.26567	-0
0.26933	-1
0.27300	-1
0.27667	-1
0.28033	-1
0.28400	-1
0.28767	-1
0.29133	-1
0.29500	-0
0.29867	-0
0.30233	0
0.30600	0
0.30967	0
0.31333	0
0.31700	0
0.32067	0
0.32433	-0
0.32800	-1
0.33167	-1
0.33533	-2
0.33900	-2
0.34267	-2
0.34633	-2
0.35000	-2
0.35367	-2
0.35733	-2
0.36100	-1
0.36467	-1
0.36833	-1
0.37200	-1
0.37567	-1
0.37933	-1
0.38300	-1
0.38667	-1
0.39033	-1
0.39400	-1
0.39767	-1
0.40133	-2
0.40500	-2
0.40867	-3
0.41233	-3
0.41600	-3
0.41967	-3
0.42333	-3
0.42700	-3
0.43067	-3
0.43433	-3
0.43800	-3
0.44167	-3
0.44533	-3
0.44900	-2
0.45267	-2
0.45633	-3
0.46000	-3
0.46367	-3
0.46733	-2
0.47100	-2
0.47467	-2
0.47833	-2
0.48200	-2
0.48567	-2
0.48933	-2
0.49300	-2
0.49667	-2
0.50033	-2
0.50400	-2
0.50767	-2
0.51133	-2
0.51500	-2
0.51867	-2
0.52233	-2
0.52600	-2
0.52967	-2
0.53333	-2
0.53700	-2
0.54067	-2
0.54433	-2
0.54800	-2
0.55167	-2
0.55533	-1
0.55900	-1
0.56267	-1
0.56633	-1
0.57000	-1
0.57367	-1
0.57733	-1
0.58100	-1
0.58467	-2
0.58833	-2
0.59200	-2
0.59567	-2
0.59933	-2
0.60300	-2
0.60667	-2
0.61033	-2
0.61400	-2
0.61767	-2
0.62133	-2
0.62500	-2
0.62867	-2
0.63233	-1
0.63600	-1
0.63967	-1
0.64333	-1
0.64700	-1
0.65067	-1
0.65433	-0
0.65800	-0
0.66167	-0
0.66533	-1
0.66900	-1
0.67267	-1
0.67633	-1
0.68000	-1
0.68367	-2
0.68733	-2
0.69100	-2
0.69467	-2
0.69833	-2
0.70200	-1
0.70567	-1
0.70933	-1
0.71300	-1
0.71667	-1
0.72033	-1
0.72400	-1
0.72767	-1
0.73133	-1
0.73500	-1
0.73867	-2
0.74233	-2
0.74600	-3
0.74967	-3
0.75333	-3
0.75700	-4
0.76067	-4
0.76433	-4
0.76800	-4
0.77167	-5
0.77533	-5
0.77900	-4
0.78267	-4
0.78633	-4
0.79000	-4
0.79367	-4
0.79733	-4
0.80100	-4
0.80467	-4
0.80833	-4
0.81200	-4
0.81567	-4
0.81933	-4
0.82300	-4
0.82667	-3
0.83033	-3
0.83400	-3
0.83767	-3
0.84133	-3
0.84500	-3
0.84867	-3
0.85233	-3
0.85600	-3
0.85967	-3
0.86333	-3
0.86700	-3
0.87067	-3
0.87433	-3
0.87800	-2
0.88167	-2
0.88533	-2
0.88900	-2
0.89267	-2
0.89633	-3
0.90000	-3
0.90367	-3
0.90733	-3
0.91100	-4
0.91467	-4
0.91833	-4
0.92200	-4
0.92567	-4
0.92933	-4
0.93300	-4
0.93667	-4
0.94033	-4
0.94400	-4
0.94767	-4
0.95133	-4
0.95500	-4
0.95867	-4
0.96233	-4
0.96600	-3
0.96967	-3
0.97333	-3
0.97700	-3
0.98067	-3
0.98433	-3
0.98800	-3
0.99167	-3
0.99533	-3
0.99900	-3
1.00267	-3
1.00633	-2
1.01000	-2
1.01367	-2
1.01733	-2
1.02100	-3
1.02467	-3
1.02833	-3
1.03200	-3
1.03567	-3
1.03933	-4
1.04300	-4
1.04667	-4
1.05033	-4
1.05400	-4
1.05767	-4
1.06133	-4
1.06500	-4
1.06867	-4
1.07233	-4
1.07600	-4
1.07967	-4
1.08333	-4
1.08700	-5
1.09067	-5
1.09433	-5
1.09800	-4
1.10167	-4
1.10533	-5
1.10900	-5
1.11267	-5
1.11633	-4
1.12000	-4
1.12367	-4
1.12733	-4
1.13100	-4
1.13467	-4
1.13833	-4
1.14200	-4
1.14567	-4
1.14933	-4
1.15300	-4
1.15667	-4
1.16033	-4
1.16400	-4
1.16767	-3
1.17133	-3
1.17500	-4
1.17867	-4
1.18233	-4
1.18600	-4
1.18967	-4
1.19333	-4
1.19700	-4
1.20067	-4
1.20433	-4
1.20800	-4
1.21167	-3
1.21533	-3
1.21900	-3
1.22267	-3
1.22633	-3
1.23000	-3
1.23367	-3
1.23733	-4
1.24100	-4
1.24467	-4
1.24833	-4
1.25200	-4
1.25567	-4
1.25933	-4
1.26300	-3
1.26667	-3
1.27033	-3
1.27400	-3
1.27767	-3
1.28133	-3
1.28500	-3
1.28867	-3
1.29233	-3
1.29600	-3
1.29967	-3
1.30333	-3
1.30700	-3
1.31067	-4
1.31433	-4
1.31800	-5
1.32167	-5
1.32533	-5
1.32900	-5
1.33267	-5
1.33633	-5
1.34000	-5
1.34367	-6
1.34733	-6
1.35100	-5
1.35467	-5
1.35833	-6
1.36200	-5
1.36567	-5
1.36933	-5
1.37300	-5
1.37667	-5
1.38033	-5
1.38400	-5
1.38767	-5
1.39133	-5
1.39500	-5
1.39867	-4
1.40233	-4
1.40600	-4
1.40967	-4
1.41333	-3
1.41700	-3
1.42067	-3
1.42433	-3
1.42800	-3
1.43167	-3
1.43533	-3
1.43900	-3
1.44267	-3
1.44633	-3
1.45000	-4
1.45367	-4
1.45733	-4
1.46100	-4
1.46467	-4
1.46833	-4
1.47200	-3
1.47567	-3
1.47933	-4
1.48300	-4
1.48667	-4
1.49033	-4
1.49400	-4
1.49767	-5
1.50133	-5
1.50500	-5
1.50867	-5
1.51233	-5
1.51600	-5
1.51967	-4
1.52333	-4
1.52700	-4
1.53067	-4
1.53433	-3
1.53800	-3
1.54167	-3
1.54533	-3
1.54900	-3
1.55267	-3
1.55633	-3
1.56000	-2
1.56367	-2
1.56733	-2
1.57100	-2
1.57467	-3
1.57833	-3
1.58200	-3
1.58567	-3
1.58933	-4
1.59300	-4
1.59667	-5
1.60033	-6
1.60400	-7
1.60767	-8
1.61133	-10
1.61500	-12
1.61867	-15
1.62233	-18
1.62600	-21
1.62967	-24
1.63333	-27
1.63700	-30
1.64067	-34
1.64433	-37
1.64800	-40
1.65167	-43
1.65533	-47
1.65900	-50
1.66267	-53
1.66633	-56
1.67000	-60
1.67367	-64
1.67733	-68
1.68100	-71
1.68467	-75
1.68833	-79
1.69200	-82
1.69567	-85
1.69933	-87
1.70300	-89
1.70667	-91
1.71033	-93
1.71400	-94
1.71767	-95
1.72133	-96
1.72500	-97
1.72867	-98
1.73233	-99
1.73600	-99
1.73967	-100
1.74333	-101
1.74700	-102
1.75067	-102
1.75433	-102
1.75800	-101
1.76167	-101
1.76533	-101
1.76900	-100
1.77267	-99
1.77633	-99
1.78000	-99
1.78367	-99
1.78733	-99
1.79100	-100
1.79467	-100
1.79833	-101
1.80200	-102
1.80567	-102
1.80933	-103
1.81300	-103
1.81667	-104
1.82033	-104
1.82400	-105
1.82767	-105
1.83133	-105
1.83500	-105
1.83867	-105
1.84233	-105
1.84600	-104
1.84967	-104
1.85333	-104
1.85700	-104
1.86067	-104
1.86433	-104
1.86800	-104
1.87167	-104
1.87533	-104
1.87900	-104
1.88267	-105
1.88633	-105
1.89000	-105
1.89367	-105
1.89733	-104
1.90100	-104
1.90467	-103
1.90833	-103
1.91200	-102
1.91567	-102
1.91933	-102
1.92300	-102
1.92667	-102
1.93033	-102
1.93400	-102
1.93767	-101
1.94133	-101
1.94500	-100
1.94867	-100
1.95233	-99
1.95600	-98
1.95967	-98
1.96333	-98
1.96700	-98
1.97067	-98
1.97433	-99
1.97800	-99
1.98167	-99
1.98533	-100
1.98900	-100
1.99267	-100
1.99633	-99
2.00000	-99
2.00367	-99
2.00733	-98
2.01100	-97
2.01467	-96
2.01833	-95
2.02200	-94
2.02567	-94
2.02933	-94
2.03300	-94
2.03667	-94
2.04033	-94
2.04400	-94
2.04767	-93
2.05133	-93
2.05500	-93
2.05867	-92
2.06233	-92
2.06600	-92
2.06967	-91
2.07333	-91
2.07700	-91
2.08067	-90
2.08433	-90
2.08800	-90
2.09167	-90
2.09533	-90
2.09900	-89
2.10267	-89
2.10633	-89
2.11000	-88
2.11367	-88
2.11733	-88
2.12100	-88
2.12467	-89
2.12833	-89
2.13200	-88
2.13567	-88
2.13933	-87
2.14300	-87
2.14667	-87
2.15033	-87
2.15400	-87
2.15767	-86
2.16133	-85
2.16500	-85
2.16867	-84
2.17233	-84
2.17600	-83
2.17967	-83
2.18333	-82
2.18700	-82
2.19067	-82
2.19433	-82
2.19800	-81
2.20167	-81
2.20533	-81
2.20900	-81
2.21267	-80
2.21633	-80
2.22000	-79
2.22367	-79
2.22733	-79
2.23100	-79
2.23467	-80
2.23833	-80
2.24200	-80
2.24567	-79
2.24933	-79
2.25300	-78
2.25667	-78
2.26033	-78
2.26400	-77
2.26767	-77
2.27133	-76
2.27500	-75
2.27867	-75
2.28233	-75
2.28600	-76
2.28967	-76
2.29333	-76
2.29700	-77
2.30067	-77
2.30433	-77
2.30800	-76
2.31167	-75
2.31533	-75
2.31900	-75
2.32267	-74
2.32633	-73
2.33000	-73
2.33367	-72
2.33733	-71
2.34100	-70
2.34467	-69
2.34833	-68
2.35200	-67
2.35567	-65
2.35933	-64
2.36300	-62
2.36667	-61
2.37033	-59
2.37400	-57
2.37767	-54
2.38133	-52
2.38500	-48
2.38867	-44
2.39233	-40
2.39600	-36
2.39967	-32
2.40333	-28
2.40700	-24
2.41067	-20
2.41433	-17
2.41800	-14
2.42167	-12
2.42533	-10
2.42900	-8
2.43267	-6
2.43633	-4
2.44000	-3
2.44367	-1
2.44733	1
2.45100	3
2.45467	4
2.45833	5
2.46200	6
2.46567	7
2.46933	8
2.47300	9
2.47667	11
2.48033	11
2.48400	12
2.48767	12
2.49133	12
2.49500	12
2.49867	13
2.50233	13
2.50600	13
2.50967	14
2.51333	14
2.51700	14
2.52067	14
2.52433	14
2.52800	13
2.53167	13
2.53533	12
2.53900	12
2.54267	11
2.54633	11
2.55000	11
2.55367	11
2.55733	11
2.56100	12
2.56467	12
2.56833	13
2.57200	14
2.57567	15
2.57933	15
2.58300	16
2.58667	16
2.59033	16
2.59400	16
2.59767	15
2.60133	15
2.60500	14
2.60867	14
2.61233	14
2.61600	14
2.61967	14
2.62333	15
2.62700	15
2.63067	16
2.63433	17
2.63800	17
2.64167	17
2.64533	17
2.64900	17
2.65267	17
2.65633	17
2.66000	18
2.66367	18
2.66733	19
2.67100	20
2.67467	20
2.67833	20
2.68200	21
2.68567	21
2.68933	21
2.69300	22
2.69667	22
2.70033	23
2.70400	23
2.70767	24
2.71133	24
2.71500	24
2.71867	24
2.72233	24
2.72600	24
2.72967	25
2.73333	25
2.73700	26
2.74067	26
2.74433	26
2.74800	26
2.75167	26
2.75533	25
2.75900	25
2.76267	25
2.76633	25
2.77000	25
2.77367	25
2.77733	25
2.78100	25
2.78467	25
2.78833	26
2.79200	26
2.79567	26
2.79933	27
2.80300	27
2.80667	27
2.81033	27
2.81400	28
2.81767	28
2.82133	28
2.82500	28
2.82867	28
2.83233	28
2.83600	28
2.83967	28
2.84333	28
2.84700	27
2.85067	27
2.85433	26
2.85800	25
2.86167	22
2.86533	18
2.86900	11
2.87267	1
2.87633	-13
2.88000	-32
2.88367	-56
2.88733	-85
2.89100	-120
2.89467	-159
2.89833	-204
2.90200	-253
2.90567	-306
2.90933	-363
2.91300	-421
2.91667	-482
2.92033	-545
2.92400	-607
2.92767	-669
2.93133	-730
2.93500	-788
2.93867	-843
2.94233	-895
2.94600	-947
2.94967	-1001
2.95333	-1051
2.95700	-1088
2.96067	-1102
2.96433	-1092
2.96800	-1058
2.97167	-1005
2.97533	-938
2.97900	-862
2.98267	-782
2.98633	-702
2.99000	-624
2.99367	-551
2.99733	-483
3.00100	-421
3.00467	-365
3.00833	-315
3.01200	-270
3.01567	-231
3.01933	-197
3.02300	-168
3.02667	-142
3.03033	-120
3.03400	-101
3.03767	-85
3.04133	-70
3.04500	-58
3.04867	-48
3.05233	-39
3.05600	-31
3.05967	-24
3.06333	-19
3.06700	-14
3.07067	-9
3.07433	-6
3.07800	-3
3.08167	-0
3.08533	2
3.08900	4
3.09267	6
3.09633	7
3.10000	9
3.10367	10
3.10733	12
3.11100	13
3.11467	13
3.11833	14
3.12200	15
3.12567	15
3.12933	16
3.13300	16
3.13667	17
3.14033	17
3.14400	17
3.14767	17
3.15133	18
3.15500	18
3.15867	18
3.16233	18
3.16600	18
3.16967	18
3.17333	18
3.17700	18
3.18067	19
3.18433	19
3.18800	19
3.19167	19
3.19533	19
3.19900	19
3.20267	19
3.20633	19
3.21000	19
3.21367	19
3.21733	20
3.22100	20
3.22467	20
3.22833	20
3.23200	21
3.23567	21
3.23933	22
3.24300	22
3.24667	22
3.25033	23
3.25400	23
3.25767	23
3.26133	24
3.26500	24
3.26867	24
3.27233	24
3.27600	24
3.27967	24
3.28333	24
3.28700	24
3.29067	24
3.29433	24
3.29800	24
3.30167	24
3.30533	24
3.30900	24
3.31267	23
3.31633	23
3.32000	23
3.32367	23
3.32733	23
3.33100	24
3.33467	24
3.33833	24
3.34200	24
3.34567	24
3.34933	25
3.35300	25
3.35667	25
3.36033	25
3.36400	25
3.36767	25
3.37133	25
3.37500	25
3.37867	26
3.38233	26
3.38600	26
3.38967	26
3.39333	26
3.39700	26
3.40067	26
3.40433	26
3.40800	26
3.41167	26
3.41533	26
3.41900	26
3.42267	26
3.42633	26
3.43000	26
3.43367	26
3.43733	26
3.44100	26
3.44467	26
3.44833	26
3.45200	26
3.45567	27
3.45933	27
3.46300	27
3.46667	27
3.47033	27
3.47400	27
3.47767	28
3.48133	28
3.48500	28
3.48867	28
3.49233	28
3.49600	28
3.49967	28
3.50333	28
3.50700	28
3.51067	28
3.51433	28
3.51800	27
3.52167	27
3.52533	27
3.52900	27
3.53267	27
3.53633	27
3.54000	26
3.54367	26
3.54733	26
3.55100	26
3.55467	26
3.55833	26
3.56200	27
3.56567	27
3.56933	27
3.57300	27
3.57667	27
3.58033	27
3.58400	27
3.58767	27
3.59133	27
3.59500	27
3.59867	27
3.60233	27
3.60600	27
3.60967	27
3.61333	27
3.61700	27
3.62067	27
3.62433	27
3.62800	27
3.63167	27
3.63533	27
3.63900	27
3.64267	27
3.64633	27
3.65000	27
3.65367	27
3.65733	27
3.66100	27
3.66467	28
3.66833	28
3.67200	28
3.67567	28
3.67933	28
3.68300	28
3.68667	28
3.69033	28
3.69400	28
3.69767	28
3.70133	28
3.70500	28
3.70867	27
3.71233	27
3.71600	27
3.71967	27
3.72333	27
3.72700	27
3.73067	27
3.73433	27
3.73800	27
3.74167	26
3.74533	26
3.74900	26
3.75267	26
3.75633	26
3.76000	26
3.76367	26
3.76733	27
3.77100	27
3.77467	27
3.77833	27
3.78200	27
3.78567	27
3.78933	27
3.79300	27
3.79667	27
3.80033	27
3.80400	27
3.80767	27
3.81133	27
3.81500	27
3.81867	27
3.82233	27
3.82600	27
3.82967	28
3.83333	28
3.83700	28
3.84067	28
3.84433	28
3.84800	28
3.85167	28
3.85533	28
3.85900	28
3.86267	28
3.86633	29
3.87000	29
3.87367	29
3.87733	29
3.88100	29
3.88467	29
3.88833	29
3.89200	29
3.89567	29
3.89933	29
3.90300	29
3.90667	29
3.91033	28
3.91400	28
3.91767	28
3.92133	28
3.92500	27
3.92867	27
3.93233	27
3.93600	26
3.93967	26
3.94333	26
3.94700	26
3.95067	26
3.95433	26
3.95800	25
3.96167	25
3.96533	25
3.96900	26
3.97267	26
3.97633	26
3.98000	26
3.98367	26
3.98733	27
3.99100	27
3.99467	27
3.99833	27

[Chromatogram (Ch3)]
Interval(msec)	220
# of Points	1091
Start Time(min)	0.002
End Time(min)	3.998
R.Time (min)	Intensity
0.00167	1
0.00533	2
0.00900	2
0.01267	-1
0.01633	-3
0.02000	-4
0.02367	-5
0.02733	-7
0.03100	-8
0.03467	-7
0.03833	-6
0.04200	-6
0.04567	-5
0.04933	-5
0.05300	-5
0.05667	-4
0.06033	-1
0.06400	1
0.06767	2
0.07133	2
0.07500	1
0.07867	1
0.08233	3
0.08600	3
0.08967	3
0.09333	3
0.09700	4
0.10067	4
0.10433	3
0.10800	3
0.11167	3
0.11533	4
0.11900	3
0.12267	2
0.12633	2
0.13000	2
0.13367	3
0.13733	5
0.14100	5
0.14467	5
0.14833	5
0.15200	4
0.15567	3
0.15933	3
0.16300	2
0.16667	2
0.17033	2
0.17400	1
0.17767	1
0.18133	1
0.18500	2
0.18867	4
0.19233	7
0.19600	10
0.19967	9
0.20333	7
0.20700	4
0.21067	4
0.21433	5
0.21800	6
0.22167	6
0.22533	6
0.22900	6
0.23267	5
0.23633	4
0.24000	4
0.24367	4
0.24733	7
0.25100	9
0.25467	11
0.25833	9
0.26200	6
0.26567	4
0.26933	1
0.27300	-2
0.27667	-3
0.28033	-3
0.28400	-2
0.28767	-2
0.29133	-1
0.29500	3
0.29867	4
0.30233	5
0.30600	3
0.30967	3
0.31333	2
0.31700	1
0.32067	1
0.32433	1
0.32800	2
0.33167	2
0.33533	4
0.33900	5
0.34267	5
0.34633	6
0.35000	7
0.35367	7
0.35733	8
0.36100	9
0.36467	9
0.36833	8
0.37200	8
0.37567	7
0.37933	8
0.38300	8
0.38667	8
0.39033	9
0.39400	9
0.39767	9
0.40133	9
0.40500	9
0.40867	7
0.41233	6
0.41600	6
0.41967	6
0.42333	7
0.42700	7
0.43067	7
0.43433	8
0.43800	9
0.44167	9
0.44533	9
0.44900	10
0.45267	9
0.45633	7
0.46000	7
0.46367	7
0.46733	5
0.47100	4
0.47467	4
0.47833	4
0.48200	4
0.48567	5
0.48933	6
0.49300	6
0.49667	7
0.50033	7
0.50400	8
0.50767	8
0.51133	9
0.51500	8
0.51867	9
0.52233	10
0.52600	11
0.52967	12
0.53333	13
0.53700	13
0.54067	12
0.54433	12
0.54800	11
0.55167	9
0.55533	8
0.55900	8
0.56267	8
0.56633	8
0.57000	8
0.57367	10
0.57733	10
0.58100	9
0.58467	7
0.58833	7
0.59200	6
0.59567	6
0.59933	6
0.60300	5
0.60667	5
0.61033	4
0.61400	5
0.61767	6
0.62133	9
0.62500	12
0.62867	10
0.63233	9
0.63600	11
0.63967	10
0.64333	10
0.64700	10
0.65067	10
0.65433	7
0.65800	6
0.66167	7
0.66533	8
0.66900	9
0.67267	10
0.67633	10
0.68000	8
0.68367	9
0.68733	10
0.69100	11
0.69467	12
0.69833	12
0.70200	15
0.70567	16
0.70933	16
0.71300	16
0.71667	18
0.72033	18
0.72400	16
0.72767	15
0.73133	16
0.73500	16
0.73867	17
0.74233	16
0.74600	16
0.74967	14
0.75333	13
0.75700	12
0.76067	11
0.76433	11
0.76800	11
0.77167	11
0.77533	13
0.77900	15
0.78267	13
0.78633	11
0.79000	10
0.79367	11
0.79733	14
0.80100	14
0.80467	15
0.80833	16
0.81200	15
0.81567	16
0.81933	18
0.82300	18
0.82667	18
0.83033	18
0.83400	19
0.83767	20
0.84133	20
0.84500	19
0.84867	19
0.85233	19
0.85600	22
0.85967	24
0.86333	26
0.86700	27
0.87067	24
0.87433	19
0.87800	17
0.88167	19
0.88533	21
0.88900	21
0.89267	20
0.89633	17
0.90000	16
0.90367	15
0.90733	17
0.91100	17
0.91467	18
0.91833	19
0.92200	19
0.92567	18
0.92933	17
0.93300	18
0.93667	20
0.94033	21
0.94400	21
0.94767	20
0.95133	18
0.95500	16
0.95867	17
0.96233	19
0.96600	21
0.96967	21
0.97333	20
0.97700	21
0.98067	22
0.98433	21
0.98800	20
0.99167	19
0.99533	20
0.99900	19
1.00267	20
1.00633	20
1.01000	19
1.01367	20
1.01733	21
1.02100	22
1.02467	24
1.02833	25
1.03200	24
1.03567	22
1.03933	22
1.04300	21
1.04667	19
1.05033	20
1.05400	22
1.05767	21
1.06133	24
1.06500	24
1.06867	23
1.07233	22
1.07600	21
1.07967	20
1.08333	20
1.08700	22
1.09067	24
1.09433	24
1.09800	25
1.10167	25
1.10533	25
1.10900	25
1.11267	24
1.11633	24
1.12000	22
1.12367	20
1.12733	19
1.13100	18
1.13467	18
1.13833	21
1.14200	23
1.14567	25
1.14933	25
1.15300	25
1.15667	26
1.16033	25
1.16400	24
1.16767	23
1.17133	22
1.17500	21
1.17867	19
1.18233	20
1.18600	21
1.18967	21
1.19333	21
1.19700	22
1.20067	23
1.20433	25
1.20800	25
1.21167	23
1.21533	25
1.21900	26
1.22267	24
1.22633	23
1.23000	23
1.23367	22
1.23733	23
1.24100	23
1.24467	22
1.24833	22
1.25200	23
1.25567	23
1.25933	24
1.26300	25
1.26667	25
1.27033	24
1.27400	25
1.27767	27
1.28133	27
1.28500	28
1.28867	28
1.29233	27
1.29600	26
1.29967	27
1.30333	28
1.30700	27
1.31067	27
1.31433	28
1.31800	27
1.32167	27
1.32533	26
1.32900	25
1.33267	26
1.33633	27
1.34000	29
1.34367	28
1.34733	26
1.35100	27
1.35467	29
1.35833	29
1.36200	27
1.36567	24
1.36933	24
1.37300	24
1.37667	25
1.38033	26
1.38400	26
1.38767	25
1.39133	25
1.39500	27
1.39867	30
1.40233	30
1.40600	27
1.40967	25
1.41333	26
1.41700	27
1.42067	27
1.42433	27
1.42800	26
1.43167	25
1.43533	26
1.43900	27
1.44267	27
1.44633	25
1.45000	25
1.45367	25
1.45733	24
1.46100	23
1.46467	23
1.46833	25
1.47200	26
1.47567	27
1.47933	27
1.48300	26
1.48667	23
1.49033	22
1.49400	22
1.49767	21
1.50133	22
1.50500	23
1.50867	23
1.51233	23
1.51600	24
1.51967	26
1.52333	29
1.52700	30
1.53067	29
1.53433	27
1.53800	24
1.54167	22
1.54533	22
1.54900	23
1.55267	25
1.55633	27
1.56000	26
1.56367	24
1.56733	21
1.57100	21
1.57467	23
1.57833	24
1.58200	24
1.58567	23
1.58933	24
1.59300	25
1.59667	27
1.60033	28
1.60400	29
1.60767	29
1.61133	28
1.61500	28
1.61867	31
1.62233	34
1.62600	34
1.62967	35
1.63333	34
1.63700	32
1.64067	30
1.64433	30
1.64800	32
1.65167	33
1.65533	33
1.65900	33
1.66267	33
1.66633	33
1.67000	33
1.67367	33
1.67733	33
1.68100	31
1.68467	31
1.68833	33
1.69200	37
1.69567	40
1.69933	42
1.70300	42
1.70667	42
1.71033	41
1.71400	39
1.71767	39
1.72133	39
1.72500	39
1.72867	39
1.73233	38
1.73600	38
1.73967	40
1.74333	40
1.74700	40
1.75067	42
1.75433	44
1.75800	47
1.76167	47
1.76533	45
1.76900	45
1.77267	44
1.77633	42
1.78000	43
1.78367	44
1.78733	44
1.79100	46
1.79467	49
1.79833	51
1.80200	52
1.80567	53
1.80933	52
1.81300	52
1.81667	51
1.82033	50
1.82400	50
1.82767	51
1.83133	50
1.83500	47
1.83867	46
1.84233	46
1.84600	47
1.84967	49
1.85333	50
1.85700	52
1.86067	50
1.86433	48
1.86800	49
1.87167	52
1.87533	52
1.87900	53
1.88267	53
1.88633	54
1.89000	55
1.89367	56
1.89733	58
1.90100	62
1.90467	63
1.90833	61
1.91200	60
1.91567	61
1.91933	64
1.92300	66
1.92667	67
1.93033	67
1.93400	68
1.93767	70
1.94133	69
1.94500	68
1.94867	68
1.95233	68
1.95600	68
1.95967	67
1.96333	66
1.96700	66
1.97067	69
1.97433	73
1.97800	73
1.98167	74
1.98533	78
1.98900	81
1.99267	81
1.99633	79
2.00000	79
2.00367	79
2.00733	78
2.01100	80
2.01467	82
2.01833	84
2.02200	86
2.02567	87
2.02933	87
2.03300	88
2.03667	91
2.04033	94
2.04400	95
2.04767	96
2.05133	97
2.05500	98
2.05867	96
2.06233	94
2.06600	94
2.06967	97
2.07333	100
2.07700	99
2.08067	97
2.08433	95
2.08800	95
2.09167	95
2.09533	95
2.09900	97
2.10267	98
2.10633	100
2.11000	100
2.11367	99
2.11733	100
2.12100	103
2.12467	106
2.12833	108
2.13200	108
2.13567	107
2.13933	105
2.14300	107
2.14667	109
2.15033	109
2.15400	111
2.15767	111
2.16133	110
2.16500	110
2.16867	112
2.17233	113
2.17600	112
2.17967	110
2.18333	110
2.18700	111
2.19067	113
2.19433	114
2.19800	115
2.20167	116
2.20533	117
2.20900	119
2.21267	121
2.21633	119
2.22000	117
2.22367	116
2.22733	117
2.23100	118
2.23467	120
2.23833	122
2.24200	123
2.24567	123
2.24933	123
2.25300	122
2.25667	121
2.26033	123
2.26400	125
2.26767	125
2.27133	125
2.27500	124
2.27867	126
2.28233	127
2.28600	126
2.28967	125
2.29333	126
2.29700	128
2.30067	130
2.30433	129
2.30800	129
2.31167	128
2.31533	128
2.31900	128
2.32267	130
2.32633	133
2.33000	134
2.33367	132
2.33733	131
2.34100	131
2.34467	131
2.34833	132
2.35200	133
2.35567	132
2.35933	131
2.36300	132
2.36667	134
2.37033	135
2.37400	137
2.37767	138
2.38133	138
2.38500	137
2.38867	133
2.39233	131
2.39600	131
2.39967	133
2.40333	137
2.40700	141
2.41067	146
2.41433	152
2.41800	156
2.42167	158
2.42533	159
2.42900	159
2.43267	157
2.43633	156
2.44000	165
2.44367	235
2.44733	381
2.45100	547
2.45467	682
2.45833	780
2.46200	852
2.46567	902
2.46933	929
2.47300	940
2.47667	945
2.48033	954
2.48400	967
2.48767	984
2.49133	1005
2.49500	1024
2.49867	1035
2.50233	1034
2.50600	1023
2.50967	1002
2.51333	979
2.51700	960
2.52067	943
2.52433	930
2.52800	918
2.53167	912
2.53533	910
2.53900	910
2.54267	913
2.54633	918
2.55000	924
2.55367	932
2.55733	944
2.56100	957
2.56467	967
2.56833	976
2.57200	978
2.57567	973
2.57933	963
2.58300	947
2.58667	931
2.59033	915
2.59400	894
2.59767	878
2.60133	863
2.60500	850
2.60867	837
2.61233	824
2.61600	811
2.61967	801
2.62333	792
2.62700	783
2.63067	776
2.63433	769
2.63800	763
2.64167	757
2.64533	751
2.64900	744
2.65267	741
2.65633	739
2.66000	739
2.66367	740
2.66733	740
2.67100	743
2.67467	745
2.67833	748
2.68200	753
2.68567	759
2.68933	765
2.69300	772
2.69667	779
2.70033	784
2.70400	790
2.70767	796
2.71133	802
2.71500	808
2.71867	813
2.72233	816
2.72600	816
2.72967	816
2.73333	816
2.73700	815
2.74067	812
2.74433	807
2.74800	800
2.75167	793
2.75533	785
2.75900	780
2.76267	774
2.76633	765
2.77000	758
2.77367	753
2.77733	748
2.78100	743
2.78467	741
2.78833	740
2.79200	740
2.79567	736
2.79933	732
2.80300	729
2.80667	728
2.81033	727
2.81400	728
2.81767	729
2.82133	730
2.82500	730
2.82867	734
2.83233	741
2.83600	759
2.83967	801
2.84333	884
2.84700	1028
2.85067	1256
2.85433	1586
2.85800	2021
2.86167	2547
2.86533	3133
2.86900	3735
2.87267	4307
2.87633	4798
2.88000	5169
2.88367	5396
2.88733	5476
2.89100	5422
2.89467	5256
2.89833	5003
2.90200	4691
2.90567	4347
2.90933	3992
2.91300	3643
2.91667	3314
2.92033	3007
2.92400	2727
2.92767	2475
2.93133	2248
2.93500	2045
2.93867	1866
2.94233	1710
2.94600	1575
2.94967	1457
2.95333	1352
2.95700	1261
2.96067	1184
2.96433	1116
2.96800	1057
2.97167	1007
2.97533	965
2.97900	928
2.98267	896
2.98633	870
2.99000	848
2.99367	831
2.99733	817
3.00100	806
3.00467	796
3.00833	787
3.01200	780
3.01567	775
3.01933	772
3.02300	767
3.02667	763
3.03033	759
3.03400	758
3.03767	756
3.04133	754
3.04500	754
3.04867	754
3.05233	754
3.05600	756
3.05967	758
3.06333	760
3.06700	761
3.07067	761
3.07433	758
3.07800	758
3.08167	758
3.08533	758
3.08900	756
3.09267	753
3.09633	752
3.10000	752
3.10367	752
3.10733	750
3.11100	747
3.11467	745
3.11833	744
3.12200	746
3.12567	748
3.12933	749
3.13300	747
3.13667	745
3.14033	744
3.14400	744
3.14767	742
3.15133	741
3.15500	739
3.15867	739
3.16233	739
3.16600	738
3.16967	734
3.17333	732
3.17700	733
3.18067	733
3.18433	731
3.18800	730
3.19167	730
3.19533	730
3.19900	728
3.20267	725
3.20633	721
3.21000	721
3.21367	722
3.21733	723
3.22100	722
3.22467	720
3.22833	721
3.23200	720
3.23567	718
3.23933	715
3.24300	715
3.24667	716
3.25033	715
3.25400	712
3.25767	710
3.26133	710
3.26500	710
3.26867	709
3.27233	708
3.27600	706
3.27967	704
3.28333	704
3.28700	705
3.29067	705
3.29433	705
3.29800	701
3.30167	696
3.30533	694
3.30900	692
3.31267	691
3.31633	689
3.32000	690
3.32367	691
3.32733	688
3.33100	685
3.33467	681
3.33833	678
3.34200	677
3.34567	676
3.34933	674
3.35300	673
3.35667	672
3.36033	671
3.36400	670
3.36767	668
3.37133	664
3.37500	662
3.37867	660
3.38233	659
3.38600	658
3.38967	658
3.39333	655
3.39700	653
3.40067	652
3.40433	652
3.40800	651
3.41167	650
3.41533	647
3.41900	645
3.42267	642
3.42633	638
3.43000	635
3.43367	633
3.43733	632
3.44100	630
3.44467	628
3.44833	626
3.45200	625
3.45567	622
3.45933	620
3.46300	618
3.46667	615
3.47033	611
3.47400	608
3.47767	603
3.48133	601
3.48500	603
3.48867	604
3.49233	603
3.49600	600
3.49967	596
3.50333	594
3.50700	592
3.51067	589
3.51433	587
3.51800	586
3.52167	584
3.52533	581
3.52900	579
3.53267	578
3.53633	580
3.54000	583
3.54367	582
3.54733	581
3.55100	579
3.55467	577
3.55833	574
3.56200	571
3.56567	568
3.56933	565
3.57300	563
3.57667	561
3.58033	558
3.58400	555
3.58767	554
3.59133	551
3.59500	551
3.59867	552
3.60233	553
3.60600	554
3.60967	552
3.61333	550
3.61700	548
3.62067	547
3.62433	549
3.62800	550
3.63167	548
3.63533	547
3.63900	546
3.64267	545
3.64633	544
3.65000	541
3.65367	539
3.65733	538
3.66100	538
3.66467	537
3.66833	536
3.67200	535
3.67567	533
3.67933	532
3.68300	530
3.68667	529
3.69033	529
3.69400	529
3.69767	529
3.70133	527
3.70500	526
3.70867	525
3.71233	525
3.71600	525
3.71967	522
3.72333	522
3.72700	523
3.73067	524
3.73433	523
3.73800	521
3.74167	518
3.74533	516
3.74900	514
3.75267	514
3.75633	513
3.76000	511
3.76367	512
3.76733	513
3.77100	512
3.77467	511
3.77833	508
3.78200	506
3.78567	503
3.78933	500
3.79300	499
3.79667	498
3.80033	496
3.80400	493
3.80767	492
3.81133	491
3.81500	492
3.81867	493
3.82233	495
3.82600	495
3.82967	493
3.83333	493
3.83700	494
3.84067	494
3.84433	494
3.84800	493
3.85167	492
3.85533	491
3.85900	489
3.86267	488
3.86633	487
3.87000	486
3.87367	484
3.87733	483
3.88100	482
3.88467	481
3.88833	481
3.89200	480
3.89567	479
3.89933	478
3.90300	478
3.90667	477
3.91033	475
3.91400	473
3.91767	472
3.92133	472
3.92500	471
3.92867	470
3.93233	470
3.93600	470
3.93967	469
3.94333	471
3.94700	471
3.95067	471
3.95433	470
3.95800	468
3.96167	467
3.96533	466
3.96900	463
3.97267	461
3.97633	459
3.98000	460
3.98367	458
3.98733	456
3.99100	454
3.99467	453
3.99833	449

[Status Trace (Column Oven Temperature)]
Interval(msec)	1000
# of Points	240
Start Time(min)	0.015
End Time(min)	3.998
Intensity Units	
Intensity Multiplier	1
R.Time (min)	Intensity
0.01465	35.07
0.03132	35.07
0.04798	35.07
0.06465	35.06
0.08132	35.06
0.09798	35.07
0.11465	35.06
0.13132	35.06
0.14798	35.06
0.16465	35.05
0.18132	35.05
0.19798	35.05
0.21465	35.04
0.23132	35.04
0.24798	35.04
0.26465	35.03
0.28132	35.02
0.29798	35.00
0.31465	35.00
0.33132	35.02
0.34798	35.01
0.36465	35.01
0.38132	35.01
0.39798	35.02
0.41465	35.02
0.43132	35.02
0.44798	35.03
0.46465	35.03
0.48132	35.03
0.49798	35.03
0.51465	35.02
0.53132	35.03
0.54798	35.03
0.56465	35.02
0.58132	35.02
0.59798	35.02
0.61465	35.03
0.63132	35.01
0.64798	35.00
0.66465	35.00
0.68132	35.00
0.69798	34.99
0.71465	34.99
0.73132	34.99
0.74798	35.00
0.76465	35.00
0.78132	35.01
0.79798	35.01
0.81465	35.01
0.83132	35.01
0.84798	35.01
0.86465	34.99
0.88132	34.99
0.89798	34.98
0.91465	35.00
0.93132	35.02
0.94798	35.01
0.96465	35.01
0.98132	35.00
0.99798	35.00
1.01465	35.00
1.03132	35.01
1.04798	35.01
1.06465	35.01
1.08132	35.01
1.09798	35.01
1.11465	35.01
1.13132	35.01
1.14798	35.01
1.16465	35.00
1.18132	35.00
1.19798	35.00
1.21465	35.00
1.23132	35.00
1.24798	35.00
1.26465	34.98
1.28132	34.99
1.29798	34.99
1.31465	35.00
1.33132	35.00
1.34798	35.01
1.36465	35.01
1.38132	35.01
1.39798	35.01
1.41465	35.00
1.43132	35.01
1.44798	35.00
1.46465	35.01
1.48132	35.00
1.49798	35.01
1.51465	35.01
1.53132	35.00
1.54798	35.00
1.56465	35.00
1.58132	35.00
1.59798	35.03
1.61465	35.11
1.63132	35.26
1.64798	35.47
1.66465	35.74
1.68132	36.10
1.69798	36.45
1.71465	36.79
1.73132	37.14
1.74798	37.48
1.76465	37.78
1.78132	38.10
1.79798	38.44
1.81465	38.77
1.83132	39.12
1.84798	39.45
1.86465	39.76
1.88132	40.11
1.89798	40.44
1.91465	40.75
1.93132	41.10
1.94798	41.40
1.96465	41.73
1.98132	42.06
1.99798	42.38
2.01465	42.68
2.03132	43.02
2.04798	43.35
2.06465	43.67
2.08132	43.98
2.09798	44.32
2.11465	44.65
2.13132	44.96
2.14798	45.29
2.16465	45.62
2.18132	45.95
2.19798	46.29
2.21465	46.60
2.23132	46.96
2.24798	47.29
2.26465	47.61
2.28132	47.94
2.29798	48.28
2.31465	48.62
2.33132	48.95
2.34798	49.24
2.36465	49.49
2.38132	49.62
2.39798	49.65
2.41465	49.65
2.43132	49.65
2.44798	49.66
2.46465	49.66
2.48132	49.68
2.49798	49.69
2.51465	49.70
2.53132	49.71
2.54798	49.72
2.56465	49.73
2.58132	49.73
2.59798	49.77
2.61465	49.79
2.63132	49.80
2.64798	49.82
2.66465	49.83
2.68132	49.84
2.69798	49.84
2.71465	49.85
2.73132	49.84
2.74798	49.85
2.76465	49.87
2.78132	49.87
2.79798	49.86
2.81465	49.86
2.83132	49.84
2.84798	49.87
2.86465	49.88
2.88132	49.89
2.89798	49.90
2.91465	49.89
2.93132	49.90
2.94798	49.91
2.96465	49.92
2.98132	49.94
2.99798	49.96
3.01465	49.97
3.03132	49.98
3.04798	50.00
3.06465	50.00
3.08132	50.00
3.09798	50.00
3.11465	50.00
3.13132	50.00
3.14798	50.00
3.16465	50.01
3.18132	50.02
3.19798	50.05
3.21465	50.06
3.23132	50.07
3.24798	50.07
3.26465	50.07
3.28132	50.07
3.29798	50.08
3.31465	50.09
3.33132	50.09
3.34798	50.09
3.36465	50.09
3.38132	50.10
3.39798	50.10
3.41465	50.11
3.43132	50.10
3.44798	50.10
3.46465	50.09
3.48132	50.07
3.49798	50.07
3.51465	50.07
3.53132	50.08
3.54798	50.09
3.56465	50.08
3.58132	50.08
3.59798	50.08
3.61465	50.09
3.63132	50.08
3.64798	50.07
3.66465	50.07
3.68132	50.06
3.69798	50.06
3.71465	50.06
3.73132	50.06
3.74798	50.07
3.76465	50.08
3.78132	50.08
3.79798	50.08
3.81465	50.08
3.83132	50.07
3.84798	50.07
3.86465	50.05
3.88132	50.05
3.89798	50.05
3.91465	50.05
3.93132	50.06
3.94798	50.07
3.96465	50.08
3.98132	50.08
3.99798	50.08

[Status Trace (Injection Unit Temperature)]
Interval(msec)	1000
# of Points	240
Start Time(min)	0.015
End Time(min)	3.998
Intensity Units	
Intensity Multiplier	1
R.Time (min)	Intensity
0.01465	99.98
0.03132	99.98
0.04798	99.98
0.06465	99.98
0.08132	99.98
0.09798	99.98
0.11465	99.98
0.13132	99.98
0.14798	99.99
0.16465	99.98
0.18132	99.98
0.19798	99.98
0.21465	99.98
0.23132	99.98
0.24798	99.98
0.26465	99.99
0.28132	99.99
0.29798	99.98
0.31465	99.98
0.33132	99.99
0.34798	99.98
0.36465	99.99
0.38132	99.98
0.39798	99.98
0.41465	99.98
0.43132	99.98
0.44798	99.98
0.46465	99.98
0.48132	99.98
0.49798	99.99
0.51465	99.98
0.53132	99.98
0.54798	99.98
0.56465	99.98
0.58132	99.98
0.59798	99.98
0.61465	99.98
0.63132	99.98
0.64798	99.98
0.66465	99.98
0.68132	99.98
0.69798	99.99
0.71465	99.98
0.73132	99.98
0.74798	99.98
0.76465	99.98
0.78132	99.98
0.79798	99.98
0.81465	99.99
0.83132	99.98
0.84798	99.98
0.86465	99.99
0.88132	99.98
0.89798	99.98
0.91465	99.99
0.93132	99.99
0.94798	99.98
0.96465	99.99
0.98132	99.98
0.99798	99.99
1.01465	99.98
1.03132	99.99
1.04798	99.99
1.06465	99.99
1.08132	99.98
1.09798	99.98
1.11465	99.98
1.13132	99.99
1.14798	99.99
1.16465	99.98
1.18132	99.99
1.19798	99.99
1.21465	99.99
1.23132	99.98
1.24798	99.99
1.26465	99.98
1.28132	99.99
1.29798	99.99
1.31465	99.99
1.33132	99.99
1.34798	99.99
1.36465	99.99
1.38132	99.99
1.39798	99.99
1.41465	99.99
1.43132	99.98
1.44798	99.99
1.46465	99.99
1.48132	99.99
1.49798	99.99
1.51465	99.98
1.53132	99.98
1.54798	99.99
1.56465	99.99
1.58132	99.99
1.59798	99.99
1.61465	99.98
1.63132	99.99
1.64798	99.99
1.66465	99.99
1.68132	99.99
1.69798	99.99
1.71465	99.99
1.73132	99.99
1.74798	99.98
1.76465	99.99
1.78132	99.99
1.79798	99.99
1.81465	99.99
1.83132	99.99
1.84798	99.98
1.86465	99.99
1.88132	99.98
1.89798	99.98
1.91465	99.98
1.93132	99.98
1.94798	99.98
1.96465	99.98
1.98132	99.98
1.99798	99.98
2.01465	99.98
2.03132	99.98
2.04798	99.98
2.06465	99.98
2.08132	99.98
2.09798	99.98
2.11465	99.97
2.13132	99.97
2.14798	99.98
2.16465	99.97
2.18132	99.97
2.19798	99.97
2.21465	99.98
2.23132	99.97
2.24798	99.97
2.26465	99.97
2.28132	99.98
2.29798	99.97
2.31465	99.98
2.33132	99.97
2.34798	99.97
2.36465	99.98
2.38132	99.97
2.39798	99.97
2.41465	99.97
2.43132	99.97
2.44798	99.97
2.46465	99.97
2.48132	99.97
2.49798	99.97
2.51465	99.97
2.53132	99.97
2.54798	99.97
2.56465	99.97
2.58132	99.98
2.59798	99.98
2.61465	99.98
2.63132	99.98
2.64798	99.98
2.66465	99.98
2.68132	99.98
2.69798	99.99
2.71465	99.98
2.73132	99.99
2.74798	99.99
2.76465	99.99
2.78132	99.99
2.79798	99.99
2.81465	99.99
2.83132	100.00
2.84798	99.99
2.86465	100.00
2.88132	100.00
2.89798	100.00
2.91465	100.00
2.93132	100.00
2.94798	100.00
2.96465	100.00
2.98132	100.01
2.99798	100.00
3.01465	100.01
3.03132	100.01
3.04798	100.01
3.06465	100.01
3.08132	100.01
3.09798	100.01
3.11465	100.01
3.13132	100.02
3.14798	100.02
3.16465	100.01
3.18132	100.02
3.19798	100.02
3.21465	100.02
3.23132	100.02
3.24798	100.02
3.26465	100.02
3.28132	100.02
3.29798	100.02
3.31465	100.02
3.33132	100.02
3.34798	100.03
3.36465	100.03
3.38132	100.02
3.39798	100.02
3.41465	100.03
3.43132	100.03
3.44798	100.03
3.46465	100.03
3.48132	100.03
3.49798	100.03
3.51465	100.03
3.53132	100.03
3.54798	100.03
3.56465	100.03
3.58132	100.03
3.59798	100.03
3.61465	100.03
3.63132	100.04
3.64798	100.03
3.66465	100.04
3.68132	100.04
3.69798	100.03
3.71465	100.04
3.73132	100.03
3.74798	100.04
3.76465	100.04
3.78132	100.04
3.79798	100.04
3.81465	100.04
3.83132	100.04
3.84798	100.04
3.86465	100.04
3.88132	100.04
3.89798	100.05
3.91465	100.04
3.93132	100.05
3.94798	100.04
3.96465	100.04
3.98132	100.05
3.99798	100.04

[Status Trace (Carrier Gas Pressure)]
Interval(msec)	1000
# of Points	240
Start Time(min)	0.015
End Time(min)	3.998
Intensity Units	
Intensity Multiplier	1
R.Time (min)	Intensity
0.01465	57.35
0.03132	55.62
0.04798	57.93
0.06465	59.85
0.08132	58.64
0.09798	57.98
0.11465	57.99
0.13132	58.01
0.14798	58.01
0.16465	58.00
0.18132	58.00
0.19798	58.00
0.21465	58.00
0.23132	58.00
0.24798	58.00
0.26465	58.00
0.28132	58.00
0.29798	58.00
0.31465	58.00
0.33132	58.00
0.34798	58.00
0.36465	58.00
0.38132	58.00
0.39798	58.00
0.41465	58.00
0.43132	58.00
0.44798	58.00
0.46465	58.00
0.48132	58.00
0.49798	58.00
0.51465	58.00
0.53132	58.00
0.54798	58.00
0.56465	58.00
0.58132	58.00
0.59798	58.00
0.61465	58.00
0.63132	58.00
0.64798	58.00
0.66465	58.00
0.68132	58.00
0.69798	58.00
0.71465	58.00
0.73132	58.00
0.74798	58.00
0.76465	58.00
0.78132	58.00
0.79798	58.00
0.81465	58.00
0.83132	58.00
0.84798	58.00
0.86465	58.00
0.88132	58.00
0.89798	58.00
0.91465	58.00
0.93132	58.00
0.94798	58.00
0.96465	58.00
0.98132	58.00
0.99798	58.00
1.01465	58.00
1.03132	58.00
1.04798	58.00
1.06465	58.00
1.08132	58.00
1.09798	58.00
1.11465	58.00
1.13132	58.00
1.14798	58.00
1.16465	58.00
1.18132	58.00
1.19798	58.00
1.21465	58.00
1.23132	58.00
1.24798	58.00
1.26465	58.00
1.28132	58.00
1.29798	58.00
1.31465	58.00
1.33132	58.00
1.34798	58.00
1.36465	58.00
1.38132	58.00
1.39798	58.00
1.41465	58.00
1.43132	58.00
1.44798	58.00
1.46465	58.00
1.48132	58.00
1.49798	58.00
1.51465	58.00
1.53132	58.00
1.54798	58.00
1.56465	58.00
1.58132	58.00
1.59798	58.00
1.61465	58.00
1.63132	58.00
1.64798	58.00
1.66465	58.00
1.68132	58.01
1.69798	58.00
1.71465	58.00
1.73132	58.00
1.74798	58.00
1.76465	58.00
1.78132	58.00
1.79798	58.00
1.81465	58.00
1.83132	58.00
1.84798	58.00
1.86465	58.00
1.88132	58.00
1.89798	58.00
1.91465	58.00
1.93132	58.00
1.94798	58.00
1.96465	58.00
1.98132	58.00
1.99798	58.00
2.01465	58.00
2.03132	58.00
2.04798	58.00
2.06465	58.00
2.08132	58.00
2.09798	58.00
2.11465	58.00
2.13132	58.00
2.14798	58.00
2.16465	58.00
2.18132	58.00
2.19798	58.00
2.21465	58.00
2.23132	58.00
2.24798	58.00
2.26465	58.00
2.28132	58.00
2.29798	58.00
2.31465	58.00
2.33132	58.00
2.34798	58.00
2.36465	58.00
2.38132	58.00
2.39798	58.00
2.41465	58.00
2.43132	58.00
2.44798	58.00
2.46465	58.00
2.48132	58.00
2.49798	58.00
2.51465	57.99
2.53132	57.99
2.54798	58.00
2.56465	58.00
2.58132	58.00
2.59798	58.00
2.61465	58.00
2.63132	58.00
2.64798	58.00
2.66465	58.00
2.68132	58.00
2.69798	58.00
2.71465	58.00
2.73132	58.00
2.74798	58.00
2.76465	58.00
2.78132	58.00
2.79798	58.00
2.81465	58.00
2.83132	58.00
2.84798	58.00
2.86465	58.00
2.88132	58.00
2.89798	58.00
2.91465	58.00
2.93132	58.00
2.94798	58.00
2.96465	58.00
2.98132	58.00
2.99798	58.00
3.01465	58.00
3.03132	58.00
3.04798	58.00
3.06465	58.00
3.08132	58.00
3.09798	58.00
3.11465	58.00
3.13132	58.00
3.14798	58.00
3.16465	58.00
3.18132	58.00
3.19798	58.00
3.21465	58.00
3.23132	58.00
3.24798	58.00
3.26465	58.00
3.28132	58.00
3.29798	58.00
3.31465	58.00
3.33132	58.00
3.34798	58.00
3.36465	58.00
3.38132	58.00
3.39798	58.00
3.41465	58.00
3.43132	58.00
3.44798	58.00
3.46465	58.00
3.48132	58.00
3.49798	58.00
3.51465	58.00
3.53132	58.00
3.54798	58.00
3.56465	58.00
3.58132	58.00
3.59798	58.00
3.61465	58.00
3.63132	58.00
3.64798	58.00
3.66465	58.00
3.68132	58.00
3.69798	58.00
3.71465	58.00
3.73132	58.00
3.74798	58.00
3.76465	58.00
3.78132	58.00
3.79798	58.00
3.81465	58.00
3.83132	58.00
3.84798	58.00
3.86465	58.00
3.88132	58.00
3.89798	58.00
3.91465	58.00
3.93132	58.00
3.94798	58.00
3.96465	58.00
3.98132	58.00
3.99798	58.00

[Status Trace (Carrier Gas Flow)]
Interval(msec)	1000
# of Points	240
Start Time(min)	0.015
End Time(min)	3.998
Intensity Units	
Intensity Multiplier	1
R.Time (min)	Intensity
0.01465	33.97
0.03132	34.53
0.04798	34.55
0.06465	34.51
0.08132	34.51
0.09798	34.52
0.11465	34.52
0.13132	34.52
0.14798	34.52
0.16465	34.52
0.18132	34.52
0.19798	34.52
0.21465	34.52
0.23132	34.52
0.24798	34.52
0.26465	34.52
0.28132	34.52
0.29798	34.52
0.31465	34.52
0.33132	34.52
0.34798	34.52
0.36465	34.52
0.38132	34.52
0.39798	34.52
0.41465	34.52
0.43132	34.52
0.44798	34.52
0.46465	34.52
0.48132	34.52
0.49798	34.52
0.51465	34.52
0.53132	34.52
0.54798	34.52
0.56465	34.52
0.58132	34.52
0.59798	34.52
0.61465	34.52
0.63132	34.52
0.64798	34.52
0.66465	34.52
0.68132	34.52
0.69798	34.52
0.71465	34.52
0.73132	34.52
0.74798	34.52
0.76465	34.52
0.78132	34.52
0.79798	34.52
0.81465	34.52
0.83132	34.52
0.84798	34.52
0.86465	34.52
0.88132	34.52
0.89798	34.51
0.91465	34.52
0.93132	34.52
0.94798	34.52
0.96465	34.52
0.98132	34.52
0.99798	34.52
1.01465	34.51
1.03132	34.52
1.04798	34.52
1.06465	34.52
1.08132	34.52
1.09798	34.53
1.11465	34.52
1.13132	34.52
1.14798	34.52
1.16465	34.52
1.18132	34.52
1.19798	34.52
1.21465	34.52
1.23132	34.52
1.24798	34.52
1.26465	34.52
1.28132	34.52
1.29798	34.52
1.31465	34.51
1.33132	34.52
1.34798	34.52
1.36465	34.52
1.38132	34.52
1.39798	34.52
1.41465	34.52
1.43132	34.52
1.44798	34.52
1.46465	34.52
1.48132	34.52
1.49798	34.52
1.51465	34.52
1.53132	34.52
1.54798	34.52
1.56465	34.52
1.58132	34.52
1.59798	34.52
1.61465	34.52
1.63132	34.52
1.64798	34.52
1.66465	34.52
1.68132	34.52
1.69798	34.52
1.71465	34.51
1.73132	34.52
1.74798	34.52
1.76465	34.52
1.78132	34.52
1.79798	34.52
1.81465	34.52
1.83132	34.51
1.84798	34.52
1.86465	34.52
1.88132	34.52
1.89798	34.52
1.91465	34.52
1.93132	34.51
1.94798	34.52
1.96465	34.52
1.98132	34.52
1.99798	34.52
2.01465	34.52
2.03132	34.52
2.04798	34.52
2.06465	34.52
2.08132	34.52
2.09798	34.52
2.11465	34.52
2.13132	34.52
2.14798	34.52
2.16465	34.52
2.18132	34.52
2.19798	34.52
2.21465	34.52
2.23132	34.52
2.24798	34.52
2.26465	34.52
2.28132	34.52
2.29798	34.52
2.31465	34.52
2.33132	34.52
2.34798	34.52
2.36465	34.52
2.38132	34.52
2.39798	34.52
2.41465	34.52
2.43132	34.52
2.44798	34.52
2.46465	34.52
2.48132	34.51
2.49798	34.52
2.51465	34.52
2.53132	34.52
2.54798	34.52
2.56465	34.52
2.58132	34.52
2.59798	34.52
2.61465	34.52
2.63132	34.52
2.64798	34.52
2.66465	34.52
2.68132	34.52
2.69798	34.52
2.71465	34.52
2.73132	34.51
2.74798	34.52
2.76465	34.52
2.78132	34.52
2.79798	34.52
2.81465	34.52
2.83132	34.52
2.84798	34.51
2.86465	34.52
2.88132	34.52
2.89798	34.52
2.91465	34.52
2.93132	34.52
2.94798	34.52
2.96465	34.52
2.98132	34.52
2.99798	34.52
3.01465	34.52
3.03132	34.52
3.04798	34.52
3.06465	34.52
3.08132	34.52
3.09798	34.52
3.11465	34.52
3.13132	34.52
3.14798	34.51
3.16465	34.51
3.18132	34.52
3.19798	34.52
3.21465	34.51
3.23132	34.51
3.24798	34.52
3.26465	34.52
3.28132	34.52
3.29798	34.52
3.31465	34.52
3.33132	34.52
3.34798	34.52
3.36465	34.52
3.38132	34.52
3.39798	34.52
3.41465	34.52
3.43132	34.52
3.44798	34.51
3.46465	34.52
3.48132	34.52
3.49798	34.52
3.51465	34.52
3.53132	34.51
3.54798	34.52
3.56465	34.52
3.58132	34.51
3.59798	34.52
3.61465	34.52
3.63132	34.52
3.64798	34.52
3.66465	34.52
3.68132	34.52
3.69798	34.52
3.71465	34.51
3.73132	34.52
3.74798	34.51
3.76465	34.52
3.78132	34.52
3.79798	34.52
3.81465	34.52
3.83132	34.52
3.84798	34.52
3.86465	34.52
3.88132	34.51
3.89798	34.52
3.91465	34.52
3.93132	34.51
3.94798	34.52
3.96465	34.52
3.98132	34.52
3.99798	34.51

[Status Trace (Column Flow)]
Interval(msec)	1000
# of Points	240
Start Time(min)	0.015
End Time(min)	3.998
Intensity Units	
Intensity Multiplier	1
R.Time (min)	Intensity
0.01465	5.42
0.03132	5.22
0.04798	5.49
0.06465	5.71
0.08132	5.57
0.09798	5.49
0.11465	5.49
0.13132	5.49
0.14798	5.49
0.16465	5.49
0.18132	5.49
0.19798	5.49
0.21465	5.49
0.23132	5.49
0.24798	5.49
0.26465	5.49
0.28132	5.49
0.29798	5.50
0.31465	5.50
0.33132	5.50
0.34798	5.49
0.36465	5.49
0.38132	5.50
0.39798	5.50
0.41465	5.49
0.43132	5.49
0.44798	5.49
0.46465	5.49
0.48132	5.49
0.49798	5.49
0.51465	5.49
0.53132	5.49
0.54798	5.49
0.56465	5.50
0.58132	5.50
0.59798	5.49
0.61465	5.49
0.63132	5.50
0.64798	5.50
0.66465	5.50
0.68132	5.50
0.69798	5.50
0.71465	5.50
0.73132	5.50
0.74798	5.50
0.76465	5.50
0.78132	5.50
0.79798	5.50
0.81465	5.50
0.83132	5.50
0.84798	5.50
0.86465	5.50
0.88132	5.50
0.89798	5.50
0.91465	5.50
0.93132	5.49
0.94798	5.50
0.96465	5.50
0.98132	5.50
0.99798	5.50
1.01465	5.50
1.03132	5.50
1.04798	5.50
1.06465	5.50
1.08132	5.49
1.09798	5.50
1.11465	5.49
1.13132	5.50
1.14798	5.50
1.16465	5.50
1.18132	5.50
1.19798	5.50
1.21465	5.50
1.23132	5.50
1.24798	5.50
1.26465	5.50
1.28132	5.50
1.29798	5.50
1.31465	5.50
1.33132	5.50
1.34798	5.50
1.36465	5.49
1.38132	5.50
1.39798	5.49
1.41465	5.50
1.43132	5.50
1.44798	5.50
1.46465	5.50
1.48132	5.50
1.49798	5.49
1.51465	5.49
1.53132	5.50
1.54798	5.50
1.56465	5.50
1.58132	5.50
1.59798	5.49
1.61465	5.49
1.63132	5.49
1.64798	5.48
1.66465	5.47
1.68132	5.46
1.69798	5.45
1.71465	5.44
1.73132	5.43
1.74798	5.42
1.76465	5.41
1.78132	5.40
1.79798	5.39
1.81465	5.38
1.83132	5.37
1.84798	5.36
1.86465	5.35
1.88132	5.34
1.89798	5.33
1.91465	5.32
1.93132	5.31
1.94798	5.30
1.96465	5.29
1.98132	5.28
1.99798	5.27
2.01465	5.26
2.03132	5.25
2.04798	5.24
2.06465	5.23
2.08132	5.22
2.09798	5.21
2.11465	5.20
2.13132	5.20
2.14798	5.19
2.16465	5.18
2.18132	5.17
2.19798	5.16
2.21465	5.15
2.23132	5.14
2.24798	5.13
2.26465	5.12
2.28132	5.11
2.29798	5.10
2.31465	5.09
2.33132	5.08
2.34798	5.08
2.36465	5.07
2.38132	5.06
2.39798	5.06
2.41465	5.06
2.43132	5.06
2.44798	5.06
2.46465	5.06
2.48132	5.06
2.49798	5.06
2.51465	5.06
2.53132	5.06
2.54798	5.06
2.56465	5.06
2.58132	5.06
2.59798	5.06
2.61465	5.06
2.63132	5.06
2.64798	5.06
2.66465	5.06
2.68132	5.06
2.69798	5.06
2.71465	5.06
2.73132	5.06
2.74798	5.06
2.76465	5.06
2.78132	5.06
2.79798	5.06
2.81465	5.06
2.83132	5.06
2.84798	5.06
2.86465	5.06
2.88132	5.06
2.89798	5.06
2.91465	5.06
2.93132	5.06
2.94798	5.06
2.96465	5.06
2.98132	5.06
2.99798	5.06
3.01465	5.06
3.03132	5.05
3.04798	5.05
3.06465	5.05
3.08132	5.05
3.09798	5.05
3.11465	5.05
3.13132	5.05
3.14798	5.05
3.16465	5.05
3.18132	5.05
3.19798	5.05
3.21465	5.05
3.23132	5.05
3.24798	5.05
3.26465	5.05
3.28132	5.05
3.29798	5.05
3.31465	5.05
3.33132	5.05
3.34798	5.05
3.36465	5.05
3.38132	5.05
3.39798	5.05
3.41465	5.05
3.43132	5.05
3.44798	5.05
3.46465	5.05
3.48132	5.05
3.49798	5.05
3.51465	5.05
3.53132	5.05
3.54798	5.05
3.56465	5.05
3.58132	5.05
3.59798	5.05
3.61465	5.05
3.63132	5.05
3.64798	5.05
3.66465	5.05
3.68132	5.05
3.69798	5.05
3.71465	5.05
3.73132	5.05
3.74798	5.05
3.76465	5.05
3.78132	5.05
3.79798	5.05
3.81465	5.05
3.83132	5.05
3.84798	5.05
3.86465	5.05
3.88132	5.05
3.89798	5.05
3.91465	5.05
3.93132	5.05
3.94798	5.05
3.96465	5.05
3.98132	5.05
3.99798	5.05

[Status Trace (Linear Velocity)]
Interval(msec)	1000
# of Points	240
Start Time(min)	0.015
End Time(min)	3.998
Intensity Units	
Intensity Multiplier	1
R.Time (min)	Intensity
0.01465	38.58
0.03132	37.44
0.04798	38.96
0.06465	40.22
0.08132	39.43
0.09798	38.99
0.11465	39.00
0.13132	39.01
0.14798	39.01
0.16465	39.01
0.18132	39.01
0.19798	39.01
0.21465	39.01
0.23132	39.01
0.24798	39.01
0.26465	39.01
0.28132	39.01
0.29798	39.01
0.31465	39.01
0.33132	39.01
0.34798	39.01
0.36465	39.01
0.38132	39.01
0.39798	39.01
0.41465	39.01
0.43132	39.01
0.44798	39.01
0.46465	39.01
0.48132	39.01
0.49798	39.01
0.51465	39.01
0.53132	39.01
0.54798	39.01
0.56465	39.01
0.58132	39.01
0.59798	39.01
0.61465	39.01
0.63132	39.01
0.64798	39.01
0.66465	39.01
0.68132	39.01
0.69798	39.01
0.71465	39.01
0.73132	39.01
0.74798	39.01
0.76465	39.01
0.78132	39.01
0.79798	39.01
0.81465	39.01
0.83132	39.01
0.84798	39.01
0.86465	39.01
0.88132	39.01
0.89798	39.01
0.91465	39.01
0.93132	39.01
0.94798	39.01
0.96465	39.01
0.98132	39.01
0.99798	39.01
1.01465	39.01
1.03132	39.01
1.04798	39.01
1.06465	39.01
1.08132	39.01
1.09798	39.01
1.11465	39.01
1.13132	39.01
1.14798	39.01
1.16465	39.01
1.18132	39.01
1.19798	39.01
1.21465	39.01
1.23132	39.01
1.24798	39.01
1.26465	39.01
1.28132	39.01
1.29798	39.01
1.31465	39.01
1.33132	39.01
1.34798	39.01
1.36465	39.01
1.38132	39.01
1.39798	39.01
1.41465	39.01
1.43132	39.01
1.44798	39.01
1.46465	39.01
1.48132	39.01
1.49798	39.01
1.51465	39.01
1.53132	39.01
1.54798	39.01
1.56465	39.01
1.58132	39.01
1.59798	39.01
1.61465	39.00
1.63132	38.99
1.64798	38.97
1.66465	38.94
1.68132	38.91
1.69798	38.87
1.71465	38.84
1.73132	38.81
1.74798	38.77
1.76465	38.74
1.78132	38.71
1.79798	38.68
1.81465	38.65
1.83132	38.62
1.84798	38.59
1.86465	38.56
1.88132	38.53
1.89798	38.49
1.91465	38.46
1.93132	38.43
1.94798	38.40
1.96465	38.38
1.98132	38.34
1.99798	38.31
2.01465	38.29
2.03132	38.26
2.04798	38.23
2.06465	38.20
2.08132	38.17
2.09798	38.14
2.11465	38.11
2.13132	38.08
2.14798	38.05
2.16465	38.02
2.18132	37.99
2.19798	37.96
2.21465	37.93
2.23132	37.90
2.24798	37.87
2.26465	37.84
2.28132	37.81
2.29798	37.78
2.31465	37.75
2.33132	37.72
2.34798	37.69
2.36465	37.67
2.38132	37.66
2.39798	37.65
2.41465	37.66
2.43132	37.66
2.44798	37.66
2.46465	37.65
2.48132	37.65
2.49798	37.65
2.51465	37.65
2.53132	37.64
2.54798	37.65
2.56465	37.65
2.58132	37.65
2.59798	37.65
2.61465	37.64
2.63132	37.64
2.64798	37.64
2.66465	37.64
2.68132	37.64
2.69798	37.64
2.71465	37.64
2.73132	37.64
2.74798	37.64
2.76465	37.64
2.78132	37.64
2.79798	37.64
2.81465	37.64
2.83132	37.64
2.84798	37.64
2.86465	37.64
2.88132	37.64
2.89798	37.64
2.91465	37.64
2.93132	37.64
2.94798	37.63
2.96465	37.63
2.98132	37.63
2.99798	37.63
3.01465	37.63
3.03132	37.63
3.04798	37.63
3.06465	37.63
3.08132	37.63
3.09798	37.63
3.11465	37.63
3.13132	37.63
3.14798	37.63
3.16465	37.63
3.18132	37.62
3.19798	37.62
3.21465	37.62
3.23132	37.62
3.24798	37.62
3.26465	37.62
3.28132	37.62
3.29798	37.62
3.31465	37.62
3.33132	37.62
3.34798	37.62
3.36465	37.62
3.38132	37.62
3.39798	37.62
3.41465	37.62
3.43132	37.62
3.44798	37.62
3.46465	37.62
3.48132	37.62
3.49798	37.62
3.51465	37.62
3.53132	37.62
3.54798	37.62
3.56465	37.62
3.58132	37.62
3.59798	37.62
3.61465	37.62
3.63132	37.62
3.64798	37.62
3.66465	37.62
3.68132	37.62
3.69798	37.62
3.71465	37.62
3.73132	37.62
3.74798	37.62
3.76465	37.62
3.78132	37.62
3.79798	37.62
3.81465	37.62
3.83132	37.62
3.84798	37.62
3.86465	37.62
3.88132	37.62
3.89798	37.62
3.91465	37.62
3.93132	37.62
3.94798	37.62
3.96465	37.62
3.98132	37.62
3.99798	37.62

