[Header]
Application Name	LabSolutions
Version	5.110
Data File Name	C:\Users\User\Desktop\Junior\UIC Prairie Sampling\6.15.23\06152023_037.gcd
Output Date	6/26/2023
Output Time	12:05:09 PM

[File Information]
Type	Data File
Generated	6/23/2023 3:15:47 PM
Generated by	System Administrator
Modified	6/23/2023 3:23:13 PM
Modified by	System Administrator

[Sample Information]
Operator Name	System Administrator
Acquired	6/23/2023 3:19:13 PM
Sample Type	0:Unknown
Level	0
Sample Name	037
Sample ID	037
ISTD Amount1	1
ISTD Amount2	1
ISTD Amount3	1
ISTD Amount4	1
ISTD Amount5	1
ISTD Amount6	1
ISTD Amount7	1
ISTD Amount8	1
ISTD Amount9	1
ISTD Amount10	1
ISTD Amount11	1
ISTD Amount12	1
ISTD Amount13	1
ISTD Amount14	1
ISTD Amount15	1
ISTD Amount16	1
ISTD Amount17	1
ISTD Amount18	1
ISTD Amount19	1
ISTD Amount20	1
ISTD Amount21	1
ISTD Amount22	1
ISTD Amount23	1
ISTD Amount24	1
ISTD Amount25	1
ISTD Amount26	1
ISTD Amount27	1
ISTD Amount28	1
ISTD Amount29	1
ISTD Amount30	1
ISTD Amount31	1
ISTD Amount32	1
Sample Amount	1
Dilution Factor	1
Vial#	36
Injection Volume	1
Injection Count	1
Bar Code	

[Original Files]
Data File	C:\Users\User\Desktop\Junior\UIC Prairie Sampling\6.15.23\06152023_037.gcd
Method File	C:\LabSolutions\Data\GHG_4min_2022\ghg3_togas_w_acet_4 min_new_int.gcm
Batch File	C:\LabSolutions\Data\AutoSamplerTesting\06152023.gcb
Report Format File	c:\LabSolutions\System\DEFAULT.lsr

[File Description]


[Configuration]
Instrument Name	C0B7VH3-Instrument1
Instrument #	1
Line #	1
# of Detectors	3
Detector ID	DET#1	DET#2	DET#3
Detector Name	FID	PTCD	ECD
# of Channels	1	1	1

[Peak Table(Ch1)]
# of Peaks	3
Peak#	R.Time	I.Time	F.Time	Area	Height	A/H	Conc.	Mark	ID#	Name	k'	Plate #	Plate Ht.	Tailing	Resolution	Sep.Factor	Area Ratio	Height Ratio	Conc. %	Norm Conc.
1	1.472	1.432	1.527	3484	1705	2.044	0.000	   	1	CO	0.000	9389	15.977	1.406	0.000	0.000	0	0	0.000	0.000
2	1.564	1.527	1.633	4298	2176	1.976	20.955	 V 	2	CH4	0.062	11649	12.876	1.131	1.544	0.000	0	0	7.444	7.444
3	1.989	1.941	2.429	1351973	648601	2.084	260.550	   	3	CO2	0.351	17476	8.583	1.287	7.201	5.640	0	0	92.556	92.556

[Peak Table(Ch2)]
# of Peaks	0

[Peak Table(Ch3)]
# of Peaks	4
Peak#	R.Time	I.Time	F.Time	Area	Height	A/H	Conc.	Mark	ID#	Name	k'	Plate #	Plate Ht.	Tailing	Resolution	Sep.Factor	Area Ratio	Height Ratio	Conc. %	Norm Conc.
1	2.499	2.440	2.539	3929	826	4.754	0.000	   			0.000	1296	115.702	0.000	0.000	0.000	0	0	0.000	0.000
2	2.568	2.539	2.660	4792	782	6.124	0.000	 V 			0.028	369	406.137	0.000	0.172	0.000	0	0	0.000	0.000
3	2.719	2.660	2.818	5064	594	8.521	0.000	 V 			0.088	112	1343.566	0.000	0.192	3.158	0	0	0.000	0.000
4	2.887	2.818	3.701	32561	5160	6.310	0.482	 V 	1	N2O	0.156	11871	12.635	0.000	0.297	1.767	0	0	100.000	100.000

[Compound Results(Ch1)]
# of IDs	6
ID#	Name	R.Time	Area	Height	Conc.	Curve	3rd	2nd	1st	Constant	Area Ratio	Height Ratio	Conc. %	Norm Conc.
1	CO	1.472	3484	1705	0.000	Linear	0.000000e+00	0.000000e+00	0.000000e+00	0.000000e+00	0	0	0.000	0.000
2	CH4	1.564	4298	2176	20.955	Linear	0.000000e+00	0.000000e+00	2.051179e+002	0.000000e+00	0	0	7.444	7.444
3	CO2	1.989	1351973	648601	260.550	Linear	0.000000e+00	0.000000e+00	5.188919e+003	0.000000e+00	0	0	92.556	92.556
4	Ethylene	0.000	0	0	0.000	Linear	0.000000e+00	0.000000e+00	0.000000e+00	0.000000e+00	0	0	0.000	0.000
5	Acetylene	0.000	0	0	0.000	Linear	0.000000e+00	0.000000e+00	0.000000e+00	0.000000e+00	0	0	0.000	0.000
6	Ethane	0.000	0	0	0.000	Linear	0.000000e+00	0.000000e+00	0.000000e+00	0.000000e+00	0	0	0.000	0.000

[Compound Results(Ch2)]
# of IDs	5
ID#	Name	R.Time	Area	Height	Conc.	Curve	3rd	2nd	1st	Constant	Area Ratio	Height Ratio	Conc. %	Norm Conc.
1	Hydrogen	0.000	0	0	0.000	Linear	0.000000e+00	0.000000e+00	0.000000e+00	0.000000e+00	0	0	0.000	0.000
2	Oxygen	0.000	0	0	0.000	Linear	0.000000e+00	0.000000e+00	0.000000e+00	0.000000e+00	0	0	0.000	0.000
3	Nitrogen	0.000	0	0	0.000	Linear	0.000000e+00	0.000000e+00	0.000000e+00	0.000000e+00	0	0	0.000	0.000
4	Methane	0.000	0	0	0.000	Linear	0.000000e+00	0.000000e+00	0.000000e+00	0.000000e+00	0	0	0.000	0.000
5	Carbon Monoxide	0.000	0	0	0.000	Linear	0.000000e+00	0.000000e+00	0.000000e+00	0.000000e+00	0	0	0.000	0.000

[Compound Results(Ch3)]
# of IDs	2
ID#	Name	R.Time	Area	Height	Conc.	Curve	3rd	2nd	1st	Constant	Area Ratio	Height Ratio	Conc. %	Norm Conc.
1	N2O	2.887	32561	5160	0.482	Linear	0.000000e+00	0.000000e+00	6.759880e+004	0.000000e+00	0	0	100.000	100.000
2	SF6	0.000	0	0	0.000	Linear	0.000000e+00	0.000000e+00	0.000000e+00	0.000000e+00	0	0	0.000	0.000

[Group Results(Ch1)]
# of Groups	0

[Group Results(Ch2)]
# of Groups	0

[Group Results(Ch3)]
# of Groups	0

[Chromatogram (Ch1)]
Interval(msec)	220
# of Points	1091
Start Time(min)	0.002
End Time(min)	3.998
R.Time (min)	Intensity
0.00167	-25
0.00533	-23
0.00900	-22
0.01267	-20
0.01633	-14
0.02000	-7
0.02367	-0
0.02733	5
0.03100	12
0.03467	15
0.03833	16
0.04200	14
0.04567	8
0.04933	-0
0.05300	-5
0.05667	-6
0.06033	-7
0.06400	-6
0.06767	0
0.07133	11
0.07500	17
0.07867	14
0.08233	8
0.08600	1
0.08967	-5
0.09333	-8
0.09700	-7
0.10067	-3
0.10433	-1
0.10800	-1
0.11167	-0
0.11533	1
0.11900	2
0.12267	4
0.12633	6
0.13000	5
0.13367	1
0.13733	-4
0.14100	-6
0.14467	-3
0.14833	2
0.15200	6
0.15567	7
0.15933	5
0.16300	-3
0.16667	-12
0.17033	-19
0.17400	-20
0.17767	-20
0.18133	-15
0.18500	-8
0.18867	-2
0.19233	1
0.19600	3
0.19967	6
0.20333	9
0.20700	8
0.21067	4
0.21433	1
0.21800	-5
0.22167	-9
0.22533	-12
0.22900	-13
0.23267	-11
0.23633	-7
0.24000	-4
0.24367	1
0.24733	8
0.25100	13
0.25467	20
0.25833	21
0.26200	16
0.26567	6
0.26933	-1
0.27300	-3
0.27667	-3
0.28033	0
0.28400	2
0.28767	3
0.29133	7
0.29500	12
0.29867	11
0.30233	5
0.30600	-1
0.30967	-3
0.31333	-5
0.31700	-6
0.32067	-5
0.32433	-5
0.32800	-6
0.33167	-9
0.33533	-14
0.33900	-20
0.34267	-20
0.34633	-18
0.35000	-13
0.35367	-4
0.35733	4
0.36100	7
0.36467	12
0.36833	17
0.37200	17
0.37567	16
0.37933	14
0.38300	9
0.38667	1
0.39033	-7
0.39400	-12
0.39767	-15
0.40133	-16
0.40500	-18
0.40867	-19
0.41233	-16
0.41600	-11
0.41967	-6
0.42333	-3
0.42700	-4
0.43067	-3
0.43433	-0
0.43800	2
0.44167	4
0.44533	5
0.44900	2
0.45267	-4
0.45633	-9
0.46000	-11
0.46367	-10
0.46733	-8
0.47100	-5
0.47467	-2
0.47833	3
0.48200	7
0.48567	6
0.48933	5
0.49300	5
0.49667	3
0.50033	-2
0.50400	-8
0.50767	-15
0.51133	-18
0.51500	-15
0.51867	-10
0.52233	-8
0.52600	-6
0.52967	-3
0.53333	-1
0.53700	-0
0.54067	4
0.54433	8
0.54800	7
0.55167	5
0.55533	2
0.55900	-1
0.56267	-4
0.56633	-4
0.57000	-1
0.57367	-4
0.57733	-10
0.58100	-15
0.58467	-20
0.58833	-23
0.59200	-23
0.59567	-19
0.59933	-14
0.60300	-10
0.60667	-11
0.61033	-14
0.61400	-22
0.61767	-26
0.62133	-26
0.62500	-22
0.62867	-16
0.63233	-13
0.63600	-15
0.63967	-17
0.64333	-19
0.64700	-21
0.65067	-26
0.65433	-33
0.65800	-39
0.66167	-40
0.66533	-34
0.66900	-24
0.67267	-15
0.67633	-13
0.68000	-15
0.68367	-14
0.68733	-10
0.69100	-8
0.69467	-9
0.69833	-13
0.70200	-16
0.70567	-17
0.70933	-15
0.71300	-9
0.71667	-3
0.72033	0
0.72400	-0
0.72767	-5
0.73133	-13
0.73500	-20
0.73867	-28
0.74233	-34
0.74600	-35
0.74967	-35
0.75333	-33
0.75700	-25
0.76067	-19
0.76433	-15
0.76800	-16
0.77167	-16
0.77533	-12
0.77900	-8
0.78267	-8
0.78633	-12
0.79000	-16
0.79367	-17
0.79733	-19
0.80100	-18
0.80467	-18
0.80833	-17
0.81200	-16
0.81567	-15
0.81933	-14
0.82300	-14
0.82667	-13
0.83033	-11
0.83400	-9
0.83767	-4
0.84133	2
0.84500	3
0.84867	5
0.85233	7
0.85600	2
0.85967	-10
0.86333	-23
0.86700	-33
0.87067	-41
0.87433	-50
0.87800	-56
0.88167	-57
0.88533	-55
0.88900	-54
0.89267	-51
0.89633	-46
0.90000	-43
0.90367	-45
0.90733	-51
0.91100	-53
0.91467	-50
0.91833	-45
0.92200	-37
0.92567	-27
0.92933	-23
0.93300	-24
0.93667	-28
0.94033	-33
0.94400	-36
0.94767	-34
0.95133	-26
0.95500	-17
0.95867	-9
0.96233	-6
0.96600	-11
0.96967	-19
0.97333	-29
0.97700	-40
0.98067	-46
0.98433	-47
0.98800	-42
0.99167	-35
0.99533	-30
0.99900	-27
1.00267	-28
1.00633	-31
1.01000	-35
1.01367	-34
1.01733	-31
1.02100	-30
1.02467	-30
1.02833	-30
1.03200	-35
1.03567	-40
1.03933	-41
1.04300	-39
1.04667	-35
1.05033	-34
1.05400	-36
1.05767	-37
1.06133	-39
1.06500	-39
1.06867	-40
1.07233	-38
1.07600	-34
1.07967	-30
1.08333	-27
1.08700	-26
1.09067	-27
1.09433	-28
1.09800	-30
1.10167	-34
1.10533	-40
1.10900	-47
1.11267	-50
1.11633	-50
1.12000	-45
1.12367	-41
1.12733	-39
1.13100	-37
1.13467	-35
1.13833	-32
1.14200	-27
1.14567	-22
1.14933	-19
1.15300	-16
1.15667	-19
1.16033	-28
1.16400	-41
1.16767	-52
1.17133	-61
1.17500	-63
1.17867	-59
1.18233	-50
1.18600	-41
1.18967	-38
1.19333	-41
1.19700	-44
1.20067	-48
1.20433	-54
1.20800	-56
1.21167	-54
1.21533	-49
1.21900	-44
1.22267	-41
1.22633	-38
1.23000	-35
1.23367	-30
1.23733	-28
1.24100	-28
1.24467	-32
1.24833	-38
1.25200	-44
1.25567	-41
1.25933	-37
1.26300	-38
1.26667	-46
1.27033	-56
1.27400	-64
1.27767	-69
1.28133	-72
1.28500	-76
1.28867	-77
1.29233	-76
1.29600	-71
1.29967	-63
1.30333	-57
1.30700	-52
1.31067	-51
1.31433	-55
1.31800	-59
1.32167	-62
1.32533	-62
1.32900	-59
1.33267	-56
1.33633	-55
1.34000	-57
1.34367	-60
1.34733	-64
1.35100	-66
1.35467	-64
1.35833	-62
1.36200	-62
1.36567	-63
1.36933	-62
1.37300	-59
1.37667	-54
1.38033	-52
1.38400	-53
1.38767	-57
1.39133	-57
1.39500	-53
1.39867	-46
1.40233	-41
1.40600	-42
1.40967	-47
1.41333	-52
1.41700	-54
1.42067	-53
1.42433	-54
1.42800	-53
1.43167	-47
1.43533	-33
1.43900	-14
1.44267	-7
1.44633	28
1.45000	185
1.45367	468
1.45733	801
1.46100	1115
1.46467	1378
1.46833	1568
1.47200	1654
1.47567	1610
1.47933	1444
1.48300	1200
1.48667	935
1.49033	693
1.49400	496
1.49767	348
1.50133	244
1.50500	170
1.50867	117
1.51233	76
1.51600	46
1.51967	21
1.52333	1
1.52700	-13
1.53067	-14
1.53433	25
1.53800	159
1.54167	436
1.54533	829
1.54900	1258
1.55267	1643
1.55633	1935
1.56000	2104
1.56367	2118
1.56733	1962
1.57100	1667
1.57467	1309
1.57833	963
1.58200	672
1.58567	447
1.58933	284
1.59300	171
1.59667	92
1.60033	39
1.60400	6
1.60767	-14
1.61133	-23
1.61500	-27
1.61867	-31
1.62233	-35
1.62600	-42
1.62967	-52
1.63333	-62
1.63700	-72
1.64067	-79
1.64433	-81
1.64800	-81
1.65167	-80
1.65533	-81
1.65900	-84
1.66267	-86
1.66633	-85
1.67000	-79
1.67367	-68
1.67733	-55
1.68100	-46
1.68467	-44
1.68833	-49
1.69200	-53
1.69567	-55
1.69933	-57
1.70300	-62
1.70667	-70
1.71033	-77
1.71400	-76
1.71767	-72
1.72133	-66
1.72500	-62
1.72867	-63
1.73233	-68
1.73600	-73
1.73967	-78
1.74333	-83
1.74700	-86
1.75067	-88
1.75433	-91
1.75800	-94
1.76167	-94
1.76533	-94
1.76900	-96
1.77267	-97
1.77633	-93
1.78000	-85
1.78367	-76
1.78733	-68
1.79100	-60
1.79467	-56
1.79833	-58
1.80200	-64
1.80567	-74
1.80933	-81
1.81300	-81
1.81667	-76
1.82033	-71
1.82400	-71
1.82767	-74
1.83133	-77
1.83500	-78
1.83867	-80
1.84233	-83
1.84600	-85
1.84967	-84
1.85333	-79
1.85700	-78
1.86067	-80
1.86433	-84
1.86800	-90
1.87167	-93
1.87533	-92
1.87900	-89
1.88267	-85
1.88633	-81
1.89000	-75
1.89367	-72
1.89733	-71
1.90100	-72
1.90467	-76
1.90833	-80
1.91200	-84
1.91567	-82
1.91933	-79
1.92300	-76
1.92667	-73
1.93033	-68
1.93400	-64
1.93767	-61
1.94133	-57
1.94500	-37
1.94867	80
1.95233	754
1.95600	3831
1.95967	14476
1.96333	42568
1.96700	99930
1.97067	191994
1.97433	310557
1.97800	435618
1.98167	544545
1.98533	619199
1.98900	648587
1.99267	629939
1.99633	569672
2.00000	482123
2.00367	384821
2.00733	292655
2.01100	214518
2.01467	153365
2.01833	108151
2.02200	76010
2.02567	53748
2.02933	38556
2.03300	28256
2.03667	21267
2.04033	16488
2.04400	13174
2.04767	10828
2.05133	9132
2.05500	7875
2.05867	6921
2.06233	6181
2.06600	5593
2.06967	5113
2.07333	4713
2.07700	4371
2.08067	4074
2.08433	3812
2.08800	3583
2.09167	3380
2.09533	3195
2.09900	3027
2.10267	2880
2.10633	2748
2.11000	2625
2.11367	2510
2.11733	2405
2.12100	2309
2.12467	2220
2.12833	2137
2.13200	2061
2.13567	1989
2.13933	1916
2.14300	1844
2.14667	1779
2.15033	1719
2.15400	1663
2.15767	1612
2.16133	1565
2.16500	1519
2.16867	1471
2.17233	1424
2.17600	1380
2.17967	1336
2.18333	1293
2.18700	1254
2.19067	1222
2.19433	1199
2.19800	1180
2.20167	1160
2.20533	1134
2.20900	1107
2.21267	1081
2.21633	1053
2.22000	1022
2.22367	991
2.22733	959
2.23100	931
2.23467	912
2.23833	898
2.24200	882
2.24567	860
2.24933	839
2.25300	820
2.25667	807
2.26033	796
2.26400	783
2.26767	768
2.27133	753
2.27500	737
2.27867	721
2.28233	706
2.28600	693
2.28967	684
2.29333	674
2.29700	664
2.30067	654
2.30433	644
2.30800	632
2.31167	620
2.31533	607
2.31900	593
2.32267	582
2.32633	574
2.33000	564
2.33367	552
2.33733	539
2.34100	528
2.34467	520
2.34833	514
2.35200	507
2.35567	500
2.35933	494
2.36300	486
2.36667	475
2.37033	466
2.37400	462
2.37767	456
2.38133	448
2.38500	440
2.38867	436
2.39233	432
2.39600	430
2.39967	430
2.40333	426
2.40700	413
2.41067	400
2.41433	389
2.41800	384
2.42167	381
2.42533	379
2.42900	381
2.43267	385
2.43633	390
2.44000	387
2.44367	378
2.44733	365
2.45100	353
2.45467	344
2.45833	340
2.46200	344
2.46567	345
2.46933	339
2.47300	326
2.47667	307
2.48033	289
2.48400	274
2.48767	267
2.49133	265
2.49500	267
2.49867	269
2.50233	270
2.50600	274
2.50967	280
2.51333	286
2.51700	287
2.52067	284
2.52433	277
2.52800	270
2.53167	262
2.53533	251
2.53900	243
2.54267	240
2.54633	240
2.55000	243
2.55367	245
2.55733	244
2.56100	242
2.56467	240
2.56833	240
2.57200	242
2.57567	247
2.57933	249
2.58300	247
2.58667	243
2.59033	240
2.59400	236
2.59767	231
2.60133	223
2.60500	218
2.60867	216
2.61233	217
2.61600	218
2.61967	216
2.62333	213
2.62700	211
2.63067	210
2.63433	208
2.63800	207
2.64167	207
2.64533	206
2.64900	205
2.65267	204
2.65633	203
2.66000	200
2.66367	194
2.66733	187
2.67100	183
2.67467	182
2.67833	180
2.68200	179
2.68567	180
2.68933	181
2.69300	185
2.69667	185
2.70033	180
2.70400	177
2.70767	172
2.71133	167
2.71500	166
2.71867	164
2.72233	163
2.72600	162
2.72967	156
2.73333	150
2.73700	150
2.74067	156
2.74433	160
2.74800	165
2.75167	169
2.75533	168
2.75900	166
2.76267	163
2.76633	164
2.77000	165
2.77367	166
2.77733	168
2.78100	166
2.78467	160
2.78833	153
2.79200	150
2.79567	148
2.79933	146
2.80300	146
2.80667	147
2.81033	147
2.81400	141
2.81767	134
2.82133	127
2.82500	120
2.82867	116
2.83233	117
2.83600	121
2.83967	126
2.84333	126
2.84700	123
2.85067	120
2.85433	121
2.85800	124
2.86167	128
2.86533	133
2.86900	138
2.87267	141
2.87633	142
2.88000	143
2.88367	141
2.88733	139
2.89100	137
2.89467	130
2.89833	124
2.90200	119
2.90567	114
2.90933	110
2.91300	105
2.91667	99
2.92033	97
2.92400	98
2.92767	101
2.93133	106
2.93500	113
2.93867	121
2.94233	130
2.94600	136
2.94967	135
2.95333	129
2.95700	124
2.96067	119
2.96433	116
2.96800	110
2.97167	102
2.97533	95
2.97900	89
2.98267	89
2.98633	93
2.99000	101
2.99367	106
2.99733	106
3.00100	101
3.00467	94
3.00833	88
3.01200	86
3.01567	90
3.01933	96
3.02300	96
3.02667	91
3.03033	87
3.03400	86
3.03767	87
3.04133	93
3.04500	102
3.04867	108
3.05233	106
3.05600	103
3.05967	101
3.06333	104
3.06700	112
3.07067	124
3.07433	135
3.07800	139
3.08167	131
3.08533	116
3.08900	100
3.09267	87
3.09633	77
3.10000	65
3.10367	55
3.10733	54
3.11100	60
3.11467	67
3.11833	75
3.12200	80
3.12567	80
3.12933	79
3.13300	78
3.13667	76
3.14033	75
3.14400	74
3.14767	78
3.15133	89
3.15500	100
3.15867	106
3.16233	106
3.16600	102
3.16967	97
3.17333	92
3.17700	91
3.18067	92
3.18433	94
3.18800	91
3.19167	85
3.19533	80
3.19900	76
3.20267	73
3.20633	72
3.21000	71
3.21367	66
3.21733	66
3.22100	71
3.22467	81
3.22833	86
3.23200	83
3.23567	77
3.23933	73
3.24300	75
3.24667	81
3.25033	84
3.25400	84
3.25767	83
3.26133	80
3.26500	75
3.26867	71
3.27233	72
3.27600	72
3.27967	71
3.28333	71
3.28700	71
3.29067	69
3.29433	67
3.29800	64
3.30167	63
3.30533	64
3.30900	65
3.31267	67
3.31633	67
3.32000	65
3.32367	63
3.32733	63
3.33100	66
3.33467	68
3.33833	68
3.34200	66
3.34567	62
3.34933	59
3.35300	60
3.35667	65
3.36033	67
3.36400	66
3.36767	65
3.37133	64
3.37500	64
3.37867	63
3.38233	63
3.38600	70
3.38967	82
3.39333	91
3.39700	90
3.40067	86
3.40433	83
3.40800	82
3.41167	80
3.41533	73
3.41900	67
3.42267	65
3.42633	63
3.43000	61
3.43367	62
3.43733	61
3.44100	61
3.44467	59
3.44833	57
3.45200	56
3.45567	54
3.45933	49
3.46300	44
3.46667	41
3.47033	39
3.47400	37
3.47767	33
3.48133	33
3.48500	36
3.48867	39
3.49233	40
3.49600	40
3.49967	38
3.50333	38
3.50700	41
3.51067	44
3.51433	46
3.51800	50
3.52167	53
3.52533	53
3.52900	53
3.53267	56
3.53633	61
3.54000	61
3.54367	55
3.54733	46
3.55100	37
3.55467	29
3.55833	22
3.56200	17
3.56567	15
3.56933	17
3.57300	22
3.57667	30
3.58033	36
3.58400	40
3.58767	41
3.59133	43
3.59500	48
3.59867	52
3.60233	55
3.60600	56
3.60967	55
3.61333	50
3.61700	39
3.62067	26
3.62433	17
3.62800	13
3.63167	9
3.63533	4
3.63900	2
3.64267	-0
3.64633	-4
3.65000	-5
3.65367	1
3.65733	7
3.66100	13
3.66467	18
3.66833	21
3.67200	23
3.67567	28
3.67933	38
3.68300	46
3.68667	52
3.69033	59
3.69400	64
3.69767	63
3.70133	58
3.70500	51
3.70867	46
3.71233	46
3.71600	47
3.71967	45
3.72333	43
3.72700	40
3.73067	36
3.73433	32
3.73800	31
3.74167	31
3.74533	33
3.74900	33
3.75267	30
3.75633	24
3.76000	19
3.76367	15
3.76733	14
3.77100	14
3.77467	13
3.77833	13
3.78200	12
3.78567	12
3.78933	12
3.79300	13
3.79667	15
3.80033	20
3.80400	23
3.80767	26
3.81133	29
3.81500	30
3.81867	30
3.82233	31
3.82600	31
3.82967	33
3.83333	32
3.83700	27
3.84067	22
3.84433	23
3.84800	25
3.85167	27
3.85533	28
3.85900	29
3.86267	31
3.86633	32
3.87000	36
3.87367	39
3.87733	44
3.88100	50
3.88467	54
3.88833	52
3.89200	47
3.89567	41
3.89933	34
3.90300	31
3.90667	30
3.91033	31
3.91400	35
3.91767	34
3.92133	30
3.92500	29
3.92867	31
3.93233	33
3.93600	33
3.93967	32
3.94333	36
3.94700	42
3.95067	46
3.95433	46
3.95800	42
3.96167	34
3.96533	26
3.96900	21
3.97267	24
3.97633	32
3.98000	40
3.98367	45
3.98733	43
3.99100	40
3.99467	37
3.99833	34

[Chromatogram (Ch2)]
Interval(msec)	220
# of Points	1091
Start Time(min)	0.002
End Time(min)	3.998
R.Time (min)	Intensity
0.00167	-0
0.00533	-0
0.00900	-0
0.01267	-0
0.01633	-0
0.02000	-0
0.02367	-0
0.02733	-0
0.03100	-1
0.03467	-1
0.03833	-1
0.04200	-0
0.04567	-0
0.04933	0
0.05300	0
0.05667	0
0.06033	0
0.06400	0
0.06767	1
0.07133	1
0.07500	1
0.07867	1
0.08233	1
0.08600	1
0.08967	2
0.09333	2
0.09700	2
0.10067	2
0.10433	2
0.10800	3
0.11167	3
0.11533	3
0.11900	4
0.12267	4
0.12633	4
0.13000	4
0.13367	4
0.13733	4
0.14100	4
0.14467	4
0.14833	4
0.15200	3
0.15567	3
0.15933	3
0.16300	3
0.16667	3
0.17033	2
0.17400	1
0.17767	1
0.18133	1
0.18500	0
0.18867	0
0.19233	-0
0.19600	-0
0.19967	-0
0.20333	-1
0.20700	-1
0.21067	-1
0.21433	-1
0.21800	-1
0.22167	-1
0.22533	-1
0.22900	-2
0.23267	-2
0.23633	-2
0.24000	-2
0.24367	-2
0.24733	-2
0.25100	-2
0.25467	-2
0.25833	-2
0.26200	-2
0.26567	-2
0.26933	-2
0.27300	-1
0.27667	-1
0.28033	-1
0.28400	-1
0.28767	-1
0.29133	-1
0.29500	-1
0.29867	-1
0.30233	-1
0.30600	-0
0.30967	-0
0.31333	0
0.31700	0
0.32067	0
0.32433	1
0.32800	1
0.33167	1
0.33533	1
0.33900	2
0.34267	2
0.34633	2
0.35000	3
0.35367	3
0.35733	3
0.36100	3
0.36467	3
0.36833	2
0.37200	2
0.37567	1
0.37933	1
0.38300	0
0.38667	-0
0.39033	-1
0.39400	-1
0.39767	-1
0.40133	-1
0.40500	-1
0.40867	-1
0.41233	-1
0.41600	-1
0.41967	-1
0.42333	-1
0.42700	-1
0.43067	-1
0.43433	-1
0.43800	-1
0.44167	-1
0.44533	-1
0.44900	-1
0.45267	-1
0.45633	-1
0.46000	-1
0.46367	-1
0.46733	-0
0.47100	-0
0.47467	-0
0.47833	-0
0.48200	-0
0.48567	-1
0.48933	-1
0.49300	-1
0.49667	-1
0.50033	-1
0.50400	-1
0.50767	-1
0.51133	-1
0.51500	-1
0.51867	-1
0.52233	-1
0.52600	-1
0.52967	-1
0.53333	-1
0.53700	-1
0.54067	-1
0.54433	-1
0.54800	-1
0.55167	-1
0.55533	-1
0.55900	-1
0.56267	-1
0.56633	-1
0.57000	-1
0.57367	-1
0.57733	-1
0.58100	-1
0.58467	-0
0.58833	-0
0.59200	-0
0.59567	-0
0.59933	-0
0.60300	-0
0.60667	-0
0.61033	0
0.61400	1
0.61767	1
0.62133	1
0.62500	2
0.62867	2
0.63233	2
0.63600	1
0.63967	1
0.64333	1
0.64700	1
0.65067	1
0.65433	1
0.65800	0
0.66167	0
0.66533	-0
0.66900	-0
0.67267	-0
0.67633	-1
0.68000	-1
0.68367	-1
0.68733	-1
0.69100	-1
0.69467	-1
0.69833	-1
0.70200	-1
0.70567	-1
0.70933	-1
0.71300	-1
0.71667	-1
0.72033	-1
0.72400	-1
0.72767	-1
0.73133	-0
0.73500	0
0.73867	0
0.74233	0
0.74600	1
0.74967	0
0.75333	0
0.75700	0
0.76067	0
0.76433	0
0.76800	0
0.77167	-0
0.77533	-1
0.77900	-1
0.78267	-1
0.78633	-1
0.79000	-1
0.79367	-1
0.79733	-1
0.80100	-1
0.80467	-1
0.80833	-0
0.81200	-0
0.81567	-0
0.81933	-0
0.82300	-0
0.82667	-1
0.83033	-1
0.83400	-1
0.83767	-1
0.84133	-1
0.84500	-1
0.84867	-2
0.85233	-2
0.85600	-2
0.85967	-2
0.86333	-3
0.86700	-3
0.87067	-3
0.87433	-3
0.87800	-3
0.88167	-3
0.88533	-2
0.88900	-2
0.89267	-1
0.89633	-1
0.90000	-0
0.90367	0
0.90733	0
0.91100	1
0.91467	0
0.91833	0
0.92200	0
0.92567	0
0.92933	-0
0.93300	-0
0.93667	-1
0.94033	-1
0.94400	-1
0.94767	-1
0.95133	-2
0.95500	-2
0.95867	-2
0.96233	-2
0.96600	-2
0.96967	-2
0.97333	-2
0.97700	-1
0.98067	-1
0.98433	-1
0.98800	-1
0.99167	-1
0.99533	-1
0.99900	-1
1.00267	-1
1.00633	-1
1.01000	-1
1.01367	-1
1.01733	-1
1.02100	-1
1.02467	-1
1.02833	-2
1.03200	-1
1.03567	-1
1.03933	-1
1.04300	-0
1.04667	0
1.05033	0
1.05400	0
1.05767	0
1.06133	0
1.06500	0
1.06867	0
1.07233	1
1.07600	1
1.07967	1
1.08333	1
1.08700	1
1.09067	1
1.09433	1
1.09800	0
1.10167	-0
1.10533	-0
1.10900	-1
1.11267	-1
1.11633	-2
1.12000	-2
1.12367	-3
1.12733	-3
1.13100	-3
1.13467	-4
1.13833	-4
1.14200	-4
1.14567	-4
1.14933	-4
1.15300	-4
1.15667	-4
1.16033	-3
1.16400	-3
1.16767	-3
1.17133	-2
1.17500	-2
1.17867	-2
1.18233	-2
1.18600	-2
1.18967	-2
1.19333	-2
1.19700	-2
1.20067	-2
1.20433	-2
1.20800	-2
1.21167	-2
1.21533	-2
1.21900	-3
1.22267	-3
1.22633	-3
1.23000	-4
1.23367	-4
1.23733	-4
1.24100	-5
1.24467	-5
1.24833	-5
1.25200	-5
1.25567	-5
1.25933	-6
1.26300	-6
1.26667	-6
1.27033	-5
1.27400	-5
1.27767	-5
1.28133	-5
1.28500	-5
1.28867	-5
1.29233	-6
1.29600	-6
1.29967	-6
1.30333	-6
1.30700	-5
1.31067	-5
1.31433	-5
1.31800	-5
1.32167	-5
1.32533	-4
1.32900	-4
1.33267	-4
1.33633	-4
1.34000	-4
1.34367	-3
1.34733	-3
1.35100	-3
1.35467	-3
1.35833	-3
1.36200	-4
1.36567	-3
1.36933	-3
1.37300	-3
1.37667	-3
1.38033	-3
1.38400	-3
1.38767	-3
1.39133	-2
1.39500	-2
1.39867	-2
1.40233	-1
1.40600	-1
1.40967	-0
1.41333	-0
1.41700	-0
1.42067	-1
1.42433	-1
1.42800	-1
1.43167	-1
1.43533	-2
1.43900	-2
1.44267	-2
1.44633	-2
1.45000	-2
1.45367	-2
1.45733	-2
1.46100	-1
1.46467	-1
1.46833	-1
1.47200	-1
1.47567	-1
1.47933	-1
1.48300	-1
1.48667	-1
1.49033	-0
1.49400	-0
1.49767	-0
1.50133	-0
1.50500	0
1.50867	0
1.51233	-0
1.51600	-0
1.51967	-1
1.52333	-1
1.52700	-2
1.53067	-3
1.53433	-3
1.53800	-4
1.54167	-4
1.54533	-5
1.54900	-5
1.55267	-5
1.55633	-5
1.56000	-5
1.56367	-5
1.56733	-5
1.57100	-5
1.57467	-5
1.57833	-5
1.58200	-6
1.58567	-6
1.58933	-6
1.59300	-6
1.59667	-7
1.60033	-8
1.60400	-9
1.60767	-10
1.61133	-11
1.61500	-13
1.61867	-15
1.62233	-17
1.62600	-19
1.62967	-22
1.63333	-25
1.63700	-28
1.64067	-31
1.64433	-34
1.64800	-38
1.65167	-41
1.65533	-44
1.65900	-47
1.66267	-50
1.66633	-54
1.67000	-57
1.67367	-61
1.67733	-65
1.68100	-69
1.68467	-73
1.68833	-77
1.69200	-81
1.69567	-84
1.69933	-87
1.70300	-89
1.70667	-91
1.71033	-93
1.71400	-94
1.71767	-95
1.72133	-95
1.72500	-96
1.72867	-96
1.73233	-97
1.73600	-98
1.73967	-99
1.74333	-100
1.74700	-100
1.75067	-101
1.75433	-101
1.75800	-101
1.76167	-102
1.76533	-102
1.76900	-102
1.77267	-102
1.77633	-102
1.78000	-102
1.78367	-102
1.78733	-102
1.79100	-101
1.79467	-101
1.79833	-101
1.80200	-101
1.80567	-101
1.80933	-102
1.81300	-102
1.81667	-103
1.82033	-103
1.82400	-104
1.82767	-104
1.83133	-104
1.83500	-103
1.83867	-103
1.84233	-103
1.84600	-103
1.84967	-103
1.85333	-103
1.85700	-103
1.86067	-102
1.86433	-102
1.86800	-102
1.87167	-102
1.87533	-102
1.87900	-102
1.88267	-102
1.88633	-102
1.89000	-102
1.89367	-102
1.89733	-102
1.90100	-102
1.90467	-102
1.90833	-101
1.91200	-101
1.91567	-101
1.91933	-101
1.92300	-100
1.92667	-100
1.93033	-100
1.93400	-100
1.93767	-100
1.94133	-100
1.94500	-99
1.94867	-99
1.95233	-98
1.95600	-97
1.95967	-96
1.96333	-95
1.96700	-95
1.97067	-95
1.97433	-95
1.97800	-95
1.98167	-95
1.98533	-95
1.98900	-96
1.99267	-96
1.99633	-96
2.00000	-96
2.00367	-96
2.00733	-95
2.01100	-95
2.01467	-94
2.01833	-94
2.02200	-94
2.02567	-94
2.02933	-94
2.03300	-94
2.03667	-93
2.04033	-93
2.04400	-93
2.04767	-92
2.05133	-92
2.05500	-91
2.05867	-91
2.06233	-90
2.06600	-90
2.06967	-90
2.07333	-90
2.07700	-90
2.08067	-90
2.08433	-89
2.08800	-89
2.09167	-89
2.09533	-88
2.09900	-88
2.10267	-88
2.10633	-87
2.11000	-87
2.11367	-87
2.11733	-86
2.12100	-86
2.12467	-86
2.12833	-86
2.13200	-87
2.13567	-87
2.13933	-87
2.14300	-87
2.14667	-87
2.15033	-87
2.15400	-86
2.15767	-86
2.16133	-86
2.16500	-86
2.16867	-86
2.17233	-85
2.17600	-85
2.17967	-84
2.18333	-84
2.18700	-83
2.19067	-83
2.19433	-82
2.19800	-82
2.20167	-81
2.20533	-81
2.20900	-82
2.21267	-82
2.21633	-82
2.22000	-82
2.22367	-82
2.22733	-81
2.23100	-81
2.23467	-80
2.23833	-80
2.24200	-79
2.24567	-78
2.24933	-77
2.25300	-76
2.25667	-75
2.26033	-75
2.26400	-76
2.26767	-76
2.27133	-77
2.27500	-76
2.27867	-76
2.28233	-76
2.28600	-75
2.28967	-75
2.29333	-74
2.29700	-74
2.30067	-75
2.30433	-76
2.30800	-77
2.31167	-77
2.31533	-78
2.31900	-78
2.32267	-77
2.32633	-76
2.33000	-75
2.33367	-73
2.33733	-72
2.34100	-72
2.34467	-71
2.34833	-69
2.35200	-68
2.35567	-67
2.35933	-65
2.36300	-64
2.36667	-63
2.37033	-61
2.37400	-59
2.37767	-57
2.38133	-55
2.38500	-52
2.38867	-49
2.39233	-45
2.39600	-41
2.39967	-36
2.40333	-31
2.40700	-27
2.41067	-22
2.41433	-18
2.41800	-14
2.42167	-11
2.42533	-9
2.42900	-6
2.43267	-4
2.43633	-2
2.44000	-1
2.44367	1
2.44733	2
2.45100	3
2.45467	4
2.45833	5
2.46200	7
2.46567	8
2.46933	9
2.47300	10
2.47667	11
2.48033	12
2.48400	13
2.48767	13
2.49133	14
2.49500	14
2.49867	14
2.50233	15
2.50600	15
2.50967	15
2.51333	15
2.51700	15
2.52067	15
2.52433	15
2.52800	14
2.53167	14
2.53533	13
2.53900	12
2.54267	12
2.54633	11
2.55000	11
2.55367	11
2.55733	11
2.56100	12
2.56467	12
2.56833	12
2.57200	12
2.57567	13
2.57933	14
2.58300	15
2.58667	16
2.59033	16
2.59400	17
2.59767	17
2.60133	17
2.60500	17
2.60867	17
2.61233	17
2.61600	17
2.61967	18
2.62333	18
2.62700	18
2.63067	19
2.63433	20
2.63800	20
2.64167	21
2.64533	21
2.64900	21
2.65267	21
2.65633	21
2.66000	21
2.66367	21
2.66733	21
2.67100	21
2.67467	22
2.67833	22
2.68200	23
2.68567	23
2.68933	23
2.69300	23
2.69667	23
2.70033	23
2.70400	23
2.70767	23
2.71133	23
2.71500	23
2.71867	23
2.72233	23
2.72600	23
2.72967	23
2.73333	24
2.73700	24
2.74067	25
2.74433	25
2.74800	26
2.75167	27
2.75533	28
2.75900	28
2.76267	28
2.76633	28
2.77000	27
2.77367	26
2.77733	26
2.78100	25
2.78467	25
2.78833	24
2.79200	24
2.79567	24
2.79933	24
2.80300	24
2.80667	24
2.81033	24
2.81400	25
2.81767	25
2.82133	26
2.82500	26
2.82867	27
2.83233	27
2.83600	27
2.83967	28
2.84333	28
2.84700	28
2.85067	28
2.85433	28
2.85800	26
2.86167	24
2.86533	19
2.86900	12
2.87267	1
2.87633	-13
2.88000	-33
2.88367	-57
2.88733	-87
2.89100	-122
2.89467	-162
2.89833	-207
2.90200	-257
2.90567	-310
2.90933	-366
2.91300	-425
2.91667	-486
2.92033	-548
2.92400	-611
2.92767	-673
2.93133	-734
2.93500	-792
2.93867	-847
2.94233	-899
2.94600	-952
2.94967	-1007
2.95333	-1057
2.95700	-1094
2.96067	-1108
2.96433	-1097
2.96800	-1063
2.97167	-1009
2.97533	-940
2.97900	-864
2.98267	-783
2.98633	-702
2.99000	-624
2.99367	-550
2.99733	-482
3.00100	-419
3.00467	-363
3.00833	-312
3.01200	-268
3.01567	-229
3.01933	-195
3.02300	-166
3.02667	-140
3.03033	-118
3.03400	-99
3.03767	-82
3.04133	-68
3.04500	-56
3.04867	-46
3.05233	-37
3.05600	-29
3.05967	-22
3.06333	-17
3.06700	-12
3.07067	-8
3.07433	-4
3.07800	-1
3.08167	1
3.08533	4
3.08900	5
3.09267	7
3.09633	8
3.10000	10
3.10367	11
3.10733	12
3.11100	13
3.11467	13
3.11833	14
3.12200	15
3.12567	15
3.12933	16
3.13300	16
3.13667	16
3.14033	17
3.14400	17
3.14767	18
3.15133	18
3.15500	19
3.15867	19
3.16233	20
3.16600	20
3.16967	20
3.17333	20
3.17700	21
3.18067	21
3.18433	21
3.18800	21
3.19167	22
3.19533	22
3.19900	22
3.20267	22
3.20633	22
3.21000	22
3.21367	22
3.21733	22
3.22100	22
3.22467	22
3.22833	22
3.23200	22
3.23567	22
3.23933	22
3.24300	22
3.24667	22
3.25033	22
3.25400	22
3.25767	23
3.26133	23
3.26500	23
3.26867	23
3.27233	23
3.27600	23
3.27967	23
3.28333	23
3.28700	23
3.29067	23
3.29433	23
3.29800	24
3.30167	24
3.30533	24
3.30900	24
3.31267	25
3.31633	25
3.32000	25
3.32367	25
3.32733	25
3.33100	26
3.33467	26
3.33833	26
3.34200	27
3.34567	27
3.34933	27
3.35300	27
3.35667	27
3.36033	27
3.36400	27
3.36767	27
3.37133	27
3.37500	27
3.37867	27
3.38233	26
3.38600	26
3.38967	27
3.39333	27
3.39700	27
3.40067	27
3.40433	27
3.40800	26
3.41167	26
3.41533	26
3.41900	26
3.42267	26
3.42633	26
3.43000	27
3.43367	27
3.43733	27
3.44100	27
3.44467	27
3.44833	28
3.45200	28
3.45567	28
3.45933	28
3.46300	28
3.46667	28
3.47033	28
3.47400	28
3.47767	28
3.48133	28
3.48500	28
3.48867	28
3.49233	29
3.49600	29
3.49967	29
3.50333	29
3.50700	29
3.51067	29
3.51433	29
3.51800	28
3.52167	28
3.52533	28
3.52900	28
3.53267	29
3.53633	29
3.54000	29
3.54367	29
3.54733	29
3.55100	29
3.55467	29
3.55833	29
3.56200	28
3.56567	28
3.56933	28
3.57300	28
3.57667	28
3.58033	28
3.58400	28
3.58767	28
3.59133	28
3.59500	28
3.59867	28
3.60233	28
3.60600	28
3.60967	28
3.61333	28
3.61700	28
3.62067	28
3.62433	28
3.62800	28
3.63167	28
3.63533	28
3.63900	28
3.64267	28
3.64633	28
3.65000	28
3.65367	28
3.65733	29
3.66100	29
3.66467	29
3.66833	30
3.67200	30
3.67567	30
3.67933	30
3.68300	30
3.68667	30
3.69033	29
3.69400	29
3.69767	29
3.70133	29
3.70500	28
3.70867	28
3.71233	27
3.71600	27
3.71967	27
3.72333	27
3.72700	27
3.73067	26
3.73433	26
3.73800	26
3.74167	26
3.74533	26
3.74900	26
3.75267	26
3.75633	26
3.76000	26
3.76367	26
3.76733	26
3.77100	26
3.77467	26
3.77833	26
3.78200	27
3.78567	27
3.78933	27
3.79300	27
3.79667	27
3.80033	27
3.80400	27
3.80767	27
3.81133	27
3.81500	27
3.81867	27
3.82233	27
3.82600	27
3.82967	27
3.83333	27
3.83700	27
3.84067	27
3.84433	27
3.84800	26
3.85167	26
3.85533	27
3.85900	27
3.86267	27
3.86633	27
3.87000	27
3.87367	28
3.87733	28
3.88100	28
3.88467	28
3.88833	28
3.89200	28
3.89567	28
3.89933	28
3.90300	29
3.90667	29
3.91033	29
3.91400	29
3.91767	30
3.92133	30
3.92500	30
3.92867	30
3.93233	30
3.93600	30
3.93967	30
3.94333	30
3.94700	30
3.95067	30
3.95433	30
3.95800	30
3.96167	30
3.96533	30
3.96900	29
3.97267	29
3.97633	29
3.98000	29
3.98367	29
3.98733	29
3.99100	29
3.99467	29
3.99833	29

[Chromatogram (Ch3)]
Interval(msec)	220
# of Points	1091
Start Time(min)	0.002
End Time(min)	3.998
R.Time (min)	Intensity
0.00167	1
0.00533	2
0.00900	3
0.01267	2
0.01633	1
0.02000	-2
0.02367	-4
0.02733	-4
0.03100	-4
0.03467	-5
0.03833	-7
0.04200	-8
0.04567	-8
0.04933	-7
0.05300	-6
0.05667	-6
0.06033	-7
0.06400	-5
0.06767	-6
0.07133	-7
0.07500	-6
0.07867	-4
0.08233	-1
0.08600	2
0.08967	1
0.09333	1
0.09700	-0
0.10067	-1
0.10433	-1
0.10800	-2
0.11167	-4
0.11533	-4
0.11900	-3
0.12267	-3
0.12633	-4
0.13000	-4
0.13367	-7
0.13733	-7
0.14100	-7
0.14467	-6
0.14833	-6
0.15200	-6
0.15567	-6
0.15933	-5
0.16300	-4
0.16667	-3
0.17033	-3
0.17400	-5
0.17767	-7
0.18133	-8
0.18500	-7
0.18867	-5
0.19233	-6
0.19600	-7
0.19967	-7
0.20333	-6
0.20700	-3
0.21067	-2
0.21433	-2
0.21800	-2
0.22167	-2
0.22533	-2
0.22900	-1
0.23267	0
0.23633	2
0.24000	3
0.24367	1
0.24733	1
0.25100	0
0.25467	1
0.25833	1
0.26200	1
0.26567	-1
0.26933	-3
0.27300	-5
0.27667	-7
0.28033	-8
0.28400	-8
0.28767	-6
0.29133	-5
0.29500	-3
0.29867	-2
0.30233	-2
0.30600	-2
0.30967	-1
0.31333	-0
0.31700	1
0.32067	2
0.32433	4
0.32800	4
0.33167	3
0.33533	2
0.33900	1
0.34267	1
0.34633	1
0.35000	1
0.35367	1
0.35733	1
0.36100	1
0.36467	1
0.36833	3
0.37200	4
0.37567	4
0.37933	4
0.38300	4
0.38667	2
0.39033	1
0.39400	1
0.39767	1
0.40133	1
0.40500	3
0.40867	4
0.41233	3
0.41600	2
0.41967	1
0.42333	2
0.42700	2
0.43067	4
0.43433	5
0.43800	3
0.44167	3
0.44533	5
0.44900	4
0.45267	5
0.45633	5
0.46000	5
0.46367	5
0.46733	5
0.47100	5
0.47467	7
0.47833	6
0.48200	4
0.48567	5
0.48933	7
0.49300	9
0.49667	8
0.50033	6
0.50400	6
0.50767	6
0.51133	6
0.51500	5
0.51867	5
0.52233	7
0.52600	9
0.52967	11
0.53333	12
0.53700	12
0.54067	11
0.54433	12
0.54800	12
0.55167	12
0.55533	13
0.55900	10
0.56267	8
0.56633	7
0.57000	8
0.57367	11
0.57733	14
0.58100	15
0.58467	16
0.58833	14
0.59200	12
0.59567	10
0.59933	6
0.60300	4
0.60667	3
0.61033	4
0.61400	4
0.61767	7
0.62133	8
0.62500	10
0.62867	12
0.63233	11
0.63600	10
0.63967	9
0.64333	9
0.64700	8
0.65067	8
0.65433	7
0.65800	7
0.66167	6
0.66533	6
0.66900	6
0.67267	8
0.67633	8
0.68000	8
0.68367	10
0.68733	10
0.69100	12
0.69467	14
0.69833	16
0.70200	17
0.70567	15
0.70933	14
0.71300	12
0.71667	11
0.72033	13
0.72400	12
0.72767	10
0.73133	11
0.73500	13
0.73867	15
0.74233	15
0.74600	14
0.74967	14
0.75333	11
0.75700	11
0.76067	11
0.76433	13
0.76800	14
0.77167	14
0.77533	13
0.77900	12
0.78267	10
0.78633	10
0.79000	10
0.79367	11
0.79733	12
0.80100	12
0.80467	10
0.80833	9
0.81200	9
0.81567	11
0.81933	12
0.82300	11
0.82667	12
0.83033	14
0.83400	16
0.83767	15
0.84133	14
0.84500	14
0.84867	14
0.85233	13
0.85600	12
0.85967	11
0.86333	13
0.86700	12
0.87067	12
0.87433	13
0.87800	13
0.88167	14
0.88533	14
0.88900	14
0.89267	14
0.89633	15
0.90000	14
0.90367	15
0.90733	14
0.91100	12
0.91467	12
0.91833	12
0.92200	13
0.92567	16
0.92933	16
0.93300	14
0.93667	12
0.94033	11
0.94400	11
0.94767	13
0.95133	16
0.95500	17
0.95867	17
0.96233	18
0.96600	18
0.96967	18
0.97333	19
0.97700	20
0.98067	20
0.98433	18
0.98800	17
0.99167	15
0.99533	15
0.99900	15
1.00267	15
1.00633	16
1.01000	17
1.01367	17
1.01733	17
1.02100	18
1.02467	18
1.02833	17
1.03200	16
1.03567	17
1.03933	19
1.04300	20
1.04667	21
1.05033	22
1.05400	21
1.05767	18
1.06133	17
1.06500	18
1.06867	19
1.07233	20
1.07600	20
1.07967	18
1.08333	18
1.08700	18
1.09067	17
1.09433	18
1.09800	20
1.10167	21
1.10533	20
1.10900	20
1.11267	18
1.11633	17
1.12000	17
1.12367	19
1.12733	18
1.13100	17
1.13467	16
1.13833	18
1.14200	19
1.14567	20
1.14933	21
1.15300	22
1.15667	23
1.16033	25
1.16400	25
1.16767	23
1.17133	19
1.17500	18
1.17867	18
1.18233	18
1.18600	20
1.18967	21
1.19333	21
1.19700	20
1.20067	19
1.20433	17
1.20800	16
1.21167	18
1.21533	18
1.21900	19
1.22267	18
1.22633	17
1.23000	18
1.23367	20
1.23733	22
1.24100	24
1.24467	24
1.24833	23
1.25200	23
1.25567	24
1.25933	22
1.26300	21
1.26667	20
1.27033	21
1.27400	22
1.27767	23
1.28133	23
1.28500	23
1.28867	21
1.29233	21
1.29600	22
1.29967	23
1.30333	25
1.30700	26
1.31067	25
1.31433	25
1.31800	27
1.32167	29
1.32533	31
1.32900	30
1.33267	29
1.33633	29
1.34000	28
1.34367	26
1.34733	26
1.35100	25
1.35467	24
1.35833	22
1.36200	22
1.36567	23
1.36933	24
1.37300	22
1.37667	18
1.38033	15
1.38400	15
1.38767	17
1.39133	19
1.39500	23
1.39867	24
1.40233	25
1.40600	24
1.40967	23
1.41333	22
1.41700	23
1.42067	24
1.42433	25
1.42800	26
1.43167	27
1.43533	27
1.43900	24
1.44267	22
1.44633	20
1.45000	19
1.45367	19
1.45733	20
1.46100	21
1.46467	22
1.46833	21
1.47200	19
1.47567	18
1.47933	17
1.48300	20
1.48667	22
1.49033	22
1.49400	24
1.49767	24
1.50133	25
1.50500	26
1.50867	27
1.51233	29
1.51600	30
1.51967	29
1.52333	28
1.52700	27
1.53067	27
1.53433	26
1.53800	23
1.54167	23
1.54533	24
1.54900	23
1.55267	21
1.55633	19
1.56000	18
1.56367	19
1.56733	22
1.57100	21
1.57467	18
1.57833	16
1.58200	18
1.58567	20
1.58933	20
1.59300	20
1.59667	21
1.60033	21
1.60400	20
1.60767	21
1.61133	23
1.61500	26
1.61867	27
1.62233	27
1.62600	27
1.62967	28
1.63333	30
1.63700	30
1.64067	29
1.64433	30
1.64800	32
1.65167	32
1.65533	33
1.65900	34
1.66267	35
1.66633	35
1.67000	35
1.67367	35
1.67733	35
1.68100	35
1.68467	36
1.68833	38
1.69200	39
1.69567	40
1.69933	38
1.70300	36
1.70667	36
1.71033	35
1.71400	34
1.71767	36
1.72133	37
1.72500	38
1.72867	38
1.73233	39
1.73600	40
1.73967	41
1.74333	42
1.74700	43
1.75067	45
1.75433	46
1.75800	46
1.76167	44
1.76533	43
1.76900	42
1.77267	43
1.77633	44
1.78000	45
1.78367	46
1.78733	47
1.79100	49
1.79467	49
1.79833	49
1.80200	50
1.80567	50
1.80933	48
1.81300	47
1.81667	48
1.82033	50
1.82400	50
1.82767	52
1.83133	53
1.83500	53
1.83867	52
1.84233	52
1.84600	52
1.84967	52
1.85333	54
1.85700	55
1.86067	56
1.86433	58
1.86800	60
1.87167	61
1.87533	62
1.87900	65
1.88267	66
1.88633	68
1.89000	69
1.89367	69
1.89733	68
1.90100	70
1.90467	72
1.90833	73
1.91200	72
1.91567	72
1.91933	71
1.92300	71
1.92667	72
1.93033	73
1.93400	72
1.93767	73
1.94133	72
1.94500	72
1.94867	70
1.95233	70
1.95600	72
1.95967	75
1.96333	77
1.96700	78
1.97067	80
1.97433	81
1.97800	82
1.98167	84
1.98533	86
1.98900	88
1.99267	89
1.99633	89
2.00000	90
2.00367	92
2.00733	94
2.01100	98
2.01467	100
2.01833	99
2.02200	99
2.02567	99
2.02933	98
2.03300	97
2.03667	96
2.04033	96
2.04400	96
2.04767	99
2.05133	101
2.05500	102
2.05867	100
2.06233	99
2.06600	98
2.06967	99
2.07333	101
2.07700	102
2.08067	102
2.08433	102
2.08800	105
2.09167	108
2.09533	111
2.09900	112
2.10267	114
2.10633	116
2.11000	115
2.11367	115
2.11733	115
2.12100	115
2.12467	113
2.12833	112
2.13200	112
2.13567	110
2.13933	111
2.14300	111
2.14667	112
2.15033	114
2.15400	116
2.15767	117
2.16133	118
2.16500	118
2.16867	117
2.17233	118
2.17600	117
2.17967	114
2.18333	113
2.18700	112
2.19067	113
2.19433	115
2.19800	119
2.20167	121
2.20533	123
2.20900	125
2.21267	126
2.21633	128
2.22000	128
2.22367	128
2.22733	127
2.23100	129
2.23467	129
2.23833	127
2.24200	127
2.24567	126
2.24933	124
2.25300	124
2.25667	127
2.26033	127
2.26400	127
2.26767	128
2.27133	129
2.27500	130
2.27867	129
2.28233	127
2.28600	129
2.28967	132
2.29333	134
2.29700	134
2.30067	133
2.30433	133
2.30800	135
2.31167	135
2.31533	135
2.31900	135
2.32267	136
2.32633	138
2.33000	137
2.33367	135
2.33733	136
2.34100	135
2.34467	133
2.34833	132
2.35200	132
2.35567	132
2.35933	132
2.36300	130
2.36667	128
2.37033	128
2.37400	128
2.37767	130
2.38133	131
2.38500	131
2.38867	128
2.39233	128
2.39600	131
2.39967	133
2.40333	135
2.40700	137
2.41067	140
2.41433	143
2.41800	145
2.42167	147
2.42533	148
2.42900	149
2.43267	149
2.43633	149
2.44000	155
2.44367	218
2.44733	354
2.45100	507
2.45467	630
2.45833	722
2.46200	793
2.46567	844
2.46933	875
2.47300	890
2.47667	901
2.48033	914
2.48400	932
2.48767	950
2.49133	969
2.49500	988
2.49867	999
2.50233	998
2.50600	987
2.50967	971
2.51333	953
2.51700	935
2.52067	922
2.52433	915
2.52800	912
2.53167	911
2.53533	912
2.53900	912
2.54267	915
2.54633	919
2.55000	926
2.55367	937
2.55733	949
2.56100	962
2.56467	972
2.56833	976
2.57200	972
2.57567	962
2.57933	949
2.58300	934
2.58667	917
2.59033	897
2.59400	878
2.59767	861
2.60133	846
2.60500	832
2.60867	823
2.61233	814
2.61600	807
2.61967	802
2.62333	796
2.62700	791
2.63067	788
2.63433	783
2.63800	779
2.64167	774
2.64533	769
2.64900	766
2.65267	764
2.65633	764
2.66000	765
2.66367	767
2.66733	770
2.67100	773
2.67467	778
2.67833	780
2.68200	784
2.68567	788
2.68933	793
2.69300	798
2.69667	805
2.70033	812
2.70400	818
2.70767	824
2.71133	828
2.71500	830
2.71867	832
2.72233	830
2.72600	828
2.72967	824
2.73333	820
2.73700	816
2.74067	813
2.74433	806
2.74800	799
2.75167	790
2.75533	781
2.75900	773
2.76267	765
2.76633	762
2.77000	759
2.77367	754
2.77733	749
2.78100	743
2.78467	740
2.78833	739
2.79200	736
2.79567	734
2.79933	731
2.80300	728
2.80667	725
2.81033	723
2.81400	721
2.81767	720
2.82133	721
2.82500	723
2.82867	727
2.83233	734
2.83600	751
2.83967	787
2.84333	861
2.84700	997
2.85067	1216
2.85433	1535
2.85800	1961
2.86167	2481
2.86533	3064
2.86900	3667
2.87267	4240
2.87633	4735
2.88000	5114
2.88367	5356
2.88733	5448
2.89100	5403
2.89467	5242
2.89833	4995
2.90200	4693
2.90567	4358
2.90933	4009
2.91300	3664
2.91667	3333
2.92033	3027
2.92400	2747
2.92767	2493
2.93133	2265
2.93500	2064
2.93867	1887
2.94233	1733
2.94600	1596
2.94967	1477
2.95333	1374
2.95700	1286
2.96067	1210
2.96433	1142
2.96800	1084
2.97167	1035
2.97533	995
2.97900	960
2.98267	929
2.98633	905
2.99000	883
2.99367	864
2.99733	849
3.00100	835
3.00467	824
3.00833	816
3.01200	809
3.01567	804
3.01933	799
3.02300	797
3.02667	792
3.03033	787
3.03400	784
3.03767	781
3.04133	781
3.04500	782
3.04867	781
3.05233	779
3.05600	777
3.05967	777
3.06333	778
3.06700	778
3.07067	779
3.07433	780
3.07800	780
3.08167	779
3.08533	778
3.08900	778
3.09267	779
3.09633	779
3.10000	779
3.10367	777
3.10733	777
3.11100	777
3.11467	776
3.11833	774
3.12200	772
3.12567	771
3.12933	769
3.13300	769
3.13667	768
3.14033	767
3.14400	765
3.14767	762
3.15133	760
3.15500	758
3.15867	756
3.16233	756
3.16600	754
3.16967	752
3.17333	751
3.17700	752
3.18067	753
3.18433	752
3.18800	751
3.19167	751
3.19533	750
3.19900	748
3.20267	745
3.20633	744
3.21000	745
3.21367	743
3.21733	742
3.22100	741
3.22467	741
3.22833	741
3.23200	742
3.23567	742
3.23933	740
3.24300	738
3.24667	738
3.25033	736
3.25400	735
3.25767	734
3.26133	735
3.26500	735
3.26867	734
3.27233	733
3.27600	731
3.27967	726
3.28333	726
3.28700	724
3.29067	723
3.29433	720
3.29800	717
3.30167	715
3.30533	713
3.30900	713
3.31267	712
3.31633	712
3.32000	713
3.32367	712
3.32733	708
3.33100	704
3.33467	700
3.33833	698
3.34200	695
3.34567	691
3.34933	688
3.35300	687
3.35667	687
3.36033	686
3.36400	686
3.36767	685
3.37133	684
3.37500	683
3.37867	682
3.38233	680
3.38600	678
3.38967	676
3.39333	674
3.39700	671
3.40067	669
3.40433	665
3.40800	662
3.41167	658
3.41533	654
3.41900	653
3.42267	650
3.42633	648
3.43000	645
3.43367	642
3.43733	639
3.44100	639
3.44467	639
3.44833	638
3.45200	635
3.45567	633
3.45933	630
3.46300	627
3.46667	624
3.47033	621
3.47400	619
3.47767	620
3.48133	620
3.48500	620
3.48867	618
3.49233	617
3.49600	615
3.49967	613
3.50333	612
3.50700	612
3.51067	610
3.51433	608
3.51800	606
3.52167	606
3.52533	606
3.52900	603
3.53267	600
3.53633	598
3.54000	598
3.54367	597
3.54733	594
3.55100	593
3.55467	591
3.55833	589
3.56200	588
3.56567	587
3.56933	585
3.57300	584
3.57667	582
3.58033	581
3.58400	580
3.58767	577
3.59133	574
3.59500	574
3.59867	573
3.60233	571
3.60600	570
3.60967	569
3.61333	568
3.61700	567
3.62067	566
3.62433	565
3.62800	564
3.63167	560
3.63533	557
3.63900	555
3.64267	556
3.64633	557
3.65000	556
3.65367	556
3.65733	557
3.66100	555
3.66467	552
3.66833	551
3.67200	549
3.67567	547
3.67933	543
3.68300	539
3.68667	536
3.69033	536
3.69400	535
3.69767	533
3.70133	531
3.70500	532
3.70867	532
3.71233	532
3.71600	531
3.71967	532
3.72333	532
3.72700	532
3.73067	532
3.73433	532
3.73800	531
3.74167	529
3.74533	528
3.74900	527
3.75267	527
3.75633	528
3.76000	528
3.76367	527
3.76733	524
3.77100	522
3.77467	522
3.77833	523
3.78200	522
3.78567	521
3.78933	523
3.79300	522
3.79667	519
3.80033	518
3.80400	517
3.80767	515
3.81133	515
3.81500	516
3.81867	514
3.82233	513
3.82600	512
3.82967	510
3.83333	507
3.83700	506
3.84067	506
3.84433	504
3.84800	502
3.85167	501
3.85533	500
3.85900	500
3.86267	499
3.86633	499
3.87000	498
3.87367	496
3.87733	495
3.88100	496
3.88467	496
3.88833	496
3.89200	495
3.89567	492
3.89933	491
3.90300	491
3.90667	489
3.91033	488
3.91400	488
3.91767	489
3.92133	488
3.92500	486
3.92867	483
3.93233	480
3.93600	479
3.93967	476
3.94333	476
3.94700	477
3.95067	477
3.95433	477
3.95800	476
3.96167	475
3.96533	475
3.96900	476
3.97267	476
3.97633	477
3.98000	477
3.98367	475
3.98733	475
3.99100	473
3.99467	472
3.99833	469

[Status Trace (Column Oven Temperature)]
Interval(msec)	1000
# of Points	239
Start Time(min)	0.015
End Time(min)	3.981
Intensity Units	
Intensity Multiplier	1
R.Time (min)	Intensity
0.01465	35.07
0.03132	35.07
0.04798	35.06
0.06465	35.06
0.08132	35.04
0.09798	35.04
0.11465	35.03
0.13132	35.02
0.14798	35.02
0.16465	35.02
0.18132	35.03
0.19798	35.03
0.21465	35.04
0.23132	35.06
0.24798	35.07
0.26465	35.07
0.28132	35.06
0.29798	35.06
0.31465	35.06
0.33132	35.05
0.34798	35.03
0.36465	35.03
0.38132	35.04
0.39798	35.04
0.41465	35.04
0.43132	35.04
0.44798	35.04
0.46465	35.04
0.48132	35.04
0.49798	35.05
0.51465	35.05
0.53132	35.06
0.54798	35.05
0.56465	35.05
0.58132	35.04
0.59798	35.04
0.61465	35.04
0.63132	35.03
0.64798	35.01
0.66465	35.01
0.68132	35.03
0.69798	35.03
0.71465	35.02
0.73132	35.02
0.74798	35.02
0.76465	35.02
0.78132	35.02
0.79798	35.01
0.81465	35.00
0.83132	35.00
0.84798	35.00
0.86465	35.01
0.88132	35.01
0.89798	35.01
0.91465	34.99
0.93132	34.99
0.94798	34.99
0.96465	35.00
0.98132	34.99
0.99798	34.99
1.01465	34.99
1.03132	34.98
1.04798	34.97
1.06465	34.97
1.08132	34.95
1.09798	34.95
1.11465	34.96
1.13132	34.98
1.14798	34.99
1.16465	34.97
1.18132	34.97
1.19798	34.96
1.21465	34.97
1.23132	34.99
1.24798	35.01
1.26465	35.02
1.28132	35.02
1.29798	35.04
1.31465	35.05
1.33132	35.05
1.34798	35.05
1.36465	35.04
1.38132	35.03
1.39798	35.02
1.41465	35.01
1.43132	35.00
1.44798	34.99
1.46465	34.99
1.48132	34.97
1.49798	34.96
1.51465	34.97
1.53132	34.97
1.54798	34.99
1.56465	35.00
1.58132	35.01
1.59798	35.05
1.61465	35.12
1.63132	35.27
1.64798	35.47
1.66465	35.73
1.68132	36.07
1.69798	36.43
1.71465	36.77
1.73132	37.11
1.74798	37.46
1.76465	37.80
1.78132	38.12
1.79798	38.43
1.81465	38.78
1.83132	39.11
1.84798	39.45
1.86465	39.78
1.88132	40.10
1.89798	40.43
1.91465	40.75
1.93132	41.08
1.94798	41.40
1.96465	41.70
1.98132	42.03
1.99798	42.36
2.01465	42.68
2.03132	43.01
2.04798	43.33
2.06465	43.65
2.08132	43.98
2.09798	44.31
2.11465	44.61
2.13132	44.95
2.14798	45.28
2.16465	45.61
2.18132	45.95
2.19798	46.28
2.21465	46.60
2.23132	46.95
2.24798	47.27
2.26465	47.62
2.28132	47.93
2.29798	48.27
2.31465	48.64
2.33132	48.95
2.34798	49.24
2.36465	49.52
2.38132	49.68
2.39798	49.71
2.41465	49.71
2.43132	49.71
2.44798	49.72
2.46465	49.72
2.48132	49.73
2.49798	49.76
2.51465	49.76
2.53132	49.78
2.54798	49.78
2.56465	49.80
2.58132	49.80
2.59798	49.82
2.61465	49.82
2.63132	49.83
2.64798	49.83
2.66465	49.85
2.68132	49.84
2.69798	49.85
2.71465	49.86
2.73132	49.86
2.74798	49.84
2.76465	49.85
2.78132	49.88
2.79798	49.90
2.81465	49.91
2.83132	49.91
2.84798	49.90
2.86465	49.91
2.88132	49.92
2.89798	49.92
2.91465	49.93
2.93132	49.93
2.94798	49.93
2.96465	49.94
2.98132	49.96
2.99798	49.97
3.01465	49.98
3.03132	49.99
3.04798	50.00
3.06465	50.00
3.08132	50.00
3.09798	50.02
3.11465	50.03
3.13132	50.04
3.14798	50.04
3.16465	50.04
3.18132	50.03
3.19798	50.04
3.21465	50.05
3.23132	50.06
3.24798	50.07
3.26465	50.09
3.28132	50.09
3.29798	50.10
3.31465	50.10
3.33132	50.10
3.34798	50.10
3.36465	50.10
3.38132	50.09
3.39798	50.10
3.41465	50.10
3.43132	50.09
3.44798	50.09
3.46465	50.08
3.48132	50.08
3.49798	50.07
3.51465	50.07
3.53132	50.06
3.54798	50.05
3.56465	50.05
3.58132	50.05
3.59798	50.04
3.61465	50.04
3.63132	50.04
3.64798	50.03
3.66465	50.01
3.68132	50.01
3.69798	50.02
3.71465	50.02
3.73132	50.03
3.74798	50.04
3.76465	50.05
3.78132	50.04
3.79798	50.04
3.81465	50.05
3.83132	50.06
3.84798	50.06
3.86465	50.07
3.88132	50.06
3.89798	50.06
3.91465	50.05
3.93132	50.05
3.94798	50.04
3.96465	50.04
3.98132	50.04

[Status Trace (Injection Unit Temperature)]
Interval(msec)	1000
# of Points	239
Start Time(min)	0.015
End Time(min)	3.981
Intensity Units	
Intensity Multiplier	1
R.Time (min)	Intensity
0.01465	99.98
0.03132	99.97
0.04798	99.98
0.06465	99.98
0.08132	99.98
0.09798	99.98
0.11465	99.98
0.13132	99.98
0.14798	99.98
0.16465	99.98
0.18132	99.98
0.19798	99.98
0.21465	99.98
0.23132	99.98
0.24798	99.98
0.26465	99.98
0.28132	99.98
0.29798	99.98
0.31465	99.98
0.33132	99.98
0.34798	99.99
0.36465	99.98
0.38132	99.99
0.39798	99.98
0.41465	99.99
0.43132	99.98
0.44798	99.99
0.46465	99.98
0.48132	99.98
0.49798	99.99
0.51465	99.99
0.53132	99.99
0.54798	99.98
0.56465	99.99
0.58132	99.98
0.59798	99.98
0.61465	99.98
0.63132	99.99
0.64798	99.99
0.66465	99.99
0.68132	99.99
0.69798	99.99
0.71465	99.99
0.73132	99.98
0.74798	99.99
0.76465	99.98
0.78132	99.99
0.79798	99.99
0.81465	99.99
0.83132	99.98
0.84798	99.98
0.86465	99.99
0.88132	99.99
0.89798	99.98
0.91465	99.99
0.93132	99.99
0.94798	99.99
0.96465	99.98
0.98132	99.99
0.99798	99.99
1.01465	99.98
1.03132	99.98
1.04798	99.98
1.06465	99.99
1.08132	99.99
1.09798	99.99
1.11465	99.99
1.13132	99.98
1.14798	99.99
1.16465	99.99
1.18132	99.99
1.19798	99.98
1.21465	99.99
1.23132	99.98
1.24798	99.99
1.26465	99.99
1.28132	99.99
1.29798	99.99
1.31465	99.99
1.33132	99.99
1.34798	99.99
1.36465	99.99
1.38132	99.99
1.39798	99.99
1.41465	99.99
1.43132	99.99
1.44798	99.99
1.46465	99.99
1.48132	99.99
1.49798	99.99
1.51465	99.99
1.53132	99.99
1.54798	99.99
1.56465	99.99
1.58132	99.99
1.59798	99.99
1.61465	99.99
1.63132	99.99
1.64798	99.99
1.66465	99.99
1.68132	99.99
1.69798	99.99
1.71465	99.98
1.73132	99.99
1.74798	99.99
1.76465	99.99
1.78132	99.99
1.79798	99.99
1.81465	99.98
1.83132	99.99
1.84798	99.99
1.86465	99.98
1.88132	99.98
1.89798	99.98
1.91465	99.98
1.93132	99.98
1.94798	99.98
1.96465	99.98
1.98132	99.98
1.99798	99.98
2.01465	99.98
2.03132	99.98
2.04798	99.97
2.06465	99.98
2.08132	99.97
2.09798	99.97
2.11465	99.98
2.13132	99.97
2.14798	99.97
2.16465	99.97
2.18132	99.97
2.19798	99.97
2.21465	99.97
2.23132	99.97
2.24798	99.97
2.26465	99.97
2.28132	99.97
2.29798	99.97
2.31465	99.97
2.33132	99.96
2.34798	99.96
2.36465	99.97
2.38132	99.97
2.39798	99.97
2.41465	99.97
2.43132	99.97
2.44798	99.97
2.46465	99.97
2.48132	99.97
2.49798	99.97
2.51465	99.97
2.53132	99.96
2.54798	99.97
2.56465	99.97
2.58132	99.97
2.59798	99.97
2.61465	99.97
2.63132	99.97
2.64798	99.97
2.66465	99.98
2.68132	99.98
2.69798	99.98
2.71465	99.98
2.73132	99.99
2.74798	99.99
2.76465	99.99
2.78132	99.99
2.79798	99.99
2.81465	100.00
2.83132	100.00
2.84798	100.00
2.86465	100.00
2.88132	100.01
2.89798	100.01
2.91465	100.01
2.93132	100.01
2.94798	100.01
2.96465	100.01
2.98132	100.01
2.99798	100.01
3.01465	100.02
3.03132	100.02
3.04798	100.02
3.06465	100.02
3.08132	100.02
3.09798	100.02
3.11465	100.02
3.13132	100.03
3.14798	100.03
3.16465	100.03
3.18132	100.03
3.19798	100.03
3.21465	100.03
3.23132	100.03
3.24798	100.03
3.26465	100.03
3.28132	100.03
3.29798	100.04
3.31465	100.04
3.33132	100.04
3.34798	100.04
3.36465	100.04
3.38132	100.04
3.39798	100.04
3.41465	100.04
3.43132	100.04
3.44798	100.04
3.46465	100.04
3.48132	100.04
3.49798	100.04
3.51465	100.05
3.53132	100.04
3.54798	100.04
3.56465	100.04
3.58132	100.04
3.59798	100.04
3.61465	100.04
3.63132	100.05
3.64798	100.05
3.66465	100.05
3.68132	100.05
3.69798	100.05
3.71465	100.04
3.73132	100.04
3.74798	100.05
3.76465	100.04
3.78132	100.04
3.79798	100.05
3.81465	100.05
3.83132	100.04
3.84798	100.05
3.86465	100.05
3.88132	100.05
3.89798	100.05
3.91465	100.04
3.93132	100.04
3.94798	100.05
3.96465	100.04
3.98132	100.05

[Status Trace (Carrier Gas Pressure)]
Interval(msec)	1000
# of Points	239
Start Time(min)	0.015
End Time(min)	3.981
Intensity Units	
Intensity Multiplier	1
R.Time (min)	Intensity
0.01465	57.46
0.03132	55.54
0.04798	58.02
0.06465	59.83
0.08132	58.69
0.09798	57.98
0.11465	57.99
0.13132	58.01
0.14798	58.01
0.16465	58.01
0.18132	58.00
0.19798	58.00
0.21465	58.00
0.23132	58.00
0.24798	58.00
0.26465	58.00
0.28132	58.00
0.29798	58.00
0.31465	58.00
0.33132	58.00
0.34798	58.00
0.36465	58.00
0.38132	58.00
0.39798	58.00
0.41465	58.00
0.43132	58.00
0.44798	58.00
0.46465	58.00
0.48132	58.00
0.49798	58.00
0.51465	58.00
0.53132	58.00
0.54798	58.00
0.56465	58.00
0.58132	58.00
0.59798	58.00
0.61465	58.00
0.63132	58.00
0.64798	58.00
0.66465	58.00
0.68132	58.00
0.69798	58.00
0.71465	58.00
0.73132	58.00
0.74798	58.00
0.76465	58.00
0.78132	58.00
0.79798	58.00
0.81465	58.00
0.83132	58.00
0.84798	58.00
0.86465	58.00
0.88132	58.00
0.89798	58.00
0.91465	58.00
0.93132	58.00
0.94798	58.00
0.96465	58.00
0.98132	58.00
0.99798	58.00
1.01465	58.00
1.03132	58.00
1.04798	58.00
1.06465	58.00
1.08132	58.00
1.09798	58.00
1.11465	58.00
1.13132	58.00
1.14798	58.00
1.16465	58.00
1.18132	58.00
1.19798	58.00
1.21465	58.00
1.23132	58.00
1.24798	58.00
1.26465	58.00
1.28132	58.00
1.29798	58.00
1.31465	58.00
1.33132	58.00
1.34798	58.00
1.36465	58.00
1.38132	58.00
1.39798	58.00
1.41465	58.00
1.43132	58.00
1.44798	58.00
1.46465	58.00
1.48132	58.00
1.49798	58.00
1.51465	58.00
1.53132	58.00
1.54798	58.00
1.56465	58.00
1.58132	58.00
1.59798	58.00
1.61465	58.00
1.63132	58.00
1.64798	58.00
1.66465	58.00
1.68132	58.01
1.69798	58.00
1.71465	58.00
1.73132	58.00
1.74798	58.00
1.76465	58.00
1.78132	58.00
1.79798	58.00
1.81465	58.00
1.83132	58.00
1.84798	58.00
1.86465	58.00
1.88132	58.00
1.89798	58.00
1.91465	58.00
1.93132	58.00
1.94798	58.00
1.96465	58.00
1.98132	58.00
1.99798	58.00
2.01465	58.00
2.03132	58.00
2.04798	58.00
2.06465	58.00
2.08132	58.00
2.09798	58.00
2.11465	58.00
2.13132	58.00
2.14798	58.00
2.16465	58.00
2.18132	58.00
2.19798	58.00
2.21465	58.00
2.23132	58.00
2.24798	58.00
2.26465	58.00
2.28132	58.00
2.29798	58.00
2.31465	58.00
2.33132	58.00
2.34798	58.00
2.36465	58.00
2.38132	58.00
2.39798	57.99
2.41465	57.99
2.43132	58.00
2.44798	58.00
2.46465	58.00
2.48132	58.00
2.49798	58.00
2.51465	57.99
2.53132	57.99
2.54798	58.00
2.56465	58.00
2.58132	58.00
2.59798	58.00
2.61465	58.00
2.63132	58.00
2.64798	58.00
2.66465	58.00
2.68132	58.00
2.69798	58.00
2.71465	58.00
2.73132	58.00
2.74798	58.00
2.76465	58.00
2.78132	58.00
2.79798	58.00
2.81465	58.00
2.83132	58.00
2.84798	58.00
2.86465	58.00
2.88132	58.00
2.89798	58.00
2.91465	58.00
2.93132	58.00
2.94798	58.00
2.96465	58.00
2.98132	58.00
2.99798	58.00
3.01465	58.00
3.03132	58.00
3.04798	58.00
3.06465	58.00
3.08132	58.00
3.09798	58.00
3.11465	58.00
3.13132	58.00
3.14798	58.00
3.16465	58.00
3.18132	58.00
3.19798	58.00
3.21465	58.00
3.23132	58.00
3.24798	58.00
3.26465	58.00
3.28132	58.00
3.29798	58.00
3.31465	58.00
3.33132	58.00
3.34798	58.00
3.36465	58.00
3.38132	58.00
3.39798	58.00
3.41465	58.00
3.43132	58.00
3.44798	58.00
3.46465	58.00
3.48132	58.00
3.49798	58.00
3.51465	58.00
3.53132	58.00
3.54798	58.00
3.56465	58.00
3.58132	58.00
3.59798	58.00
3.61465	58.00
3.63132	58.00
3.64798	58.00
3.66465	58.00
3.68132	58.00
3.69798	58.00
3.71465	58.00
3.73132	58.00
3.74798	58.00
3.76465	58.00
3.78132	58.00
3.79798	58.00
3.81465	58.00
3.83132	58.00
3.84798	58.00
3.86465	58.00
3.88132	58.00
3.89798	58.00
3.91465	58.00
3.93132	58.00
3.94798	58.00
3.96465	58.00
3.98132	58.00

[Status Trace (Carrier Gas Flow)]
Interval(msec)	1000
# of Points	239
Start Time(min)	0.015
End Time(min)	3.981
Intensity Units	
Intensity Multiplier	1
R.Time (min)	Intensity
0.01465	34.08
0.03132	34.54
0.04798	34.54
0.06465	34.52
0.08132	34.51
0.09798	34.52
0.11465	34.52
0.13132	34.52
0.14798	34.52
0.16465	34.52
0.18132	34.52
0.19798	34.52
0.21465	34.52
0.23132	34.52
0.24798	34.52
0.26465	34.52
0.28132	34.52
0.29798	34.52
0.31465	34.52
0.33132	34.52
0.34798	34.51
0.36465	34.52
0.38132	34.52
0.39798	34.52
0.41465	34.52
0.43132	34.52
0.44798	34.53
0.46465	34.52
0.48132	34.52
0.49798	34.53
0.51465	34.51
0.53132	34.52
0.54798	34.51
0.56465	34.52
0.58132	34.52
0.59798	34.52
0.61465	34.51
0.63132	34.52
0.64798	34.52
0.66465	34.52
0.68132	34.52
0.69798	34.52
0.71465	34.52
0.73132	34.52
0.74798	34.52
0.76465	34.52
0.78132	34.52
0.79798	34.52
0.81465	34.52
0.83132	34.52
0.84798	34.52
0.86465	34.52
0.88132	34.52
0.89798	34.52
0.91465	34.52
0.93132	34.52
0.94798	34.52
0.96465	34.52
0.98132	34.52
0.99798	34.52
1.01465	34.52
1.03132	34.52
1.04798	34.52
1.06465	34.52
1.08132	34.52
1.09798	34.53
1.11465	34.52
1.13132	34.52
1.14798	34.52
1.16465	34.52
1.18132	34.52
1.19798	34.52
1.21465	34.52
1.23132	34.52
1.24798	34.52
1.26465	34.52
1.28132	34.52
1.29798	34.52
1.31465	34.51
1.33132	34.52
1.34798	34.52
1.36465	34.52
1.38132	34.52
1.39798	34.52
1.41465	34.52
1.43132	34.52
1.44798	34.52
1.46465	34.52
1.48132	34.52
1.49798	34.52
1.51465	34.52
1.53132	34.52
1.54798	34.52
1.56465	34.52
1.58132	34.52
1.59798	34.52
1.61465	34.51
1.63132	34.52
1.64798	34.52
1.66465	34.51
1.68132	34.52
1.69798	34.52
1.71465	34.51
1.73132	34.51
1.74798	34.52
1.76465	34.52
1.78132	34.52
1.79798	34.52
1.81465	34.52
1.83132	34.52
1.84798	34.51
1.86465	34.52
1.88132	34.52
1.89798	34.52
1.91465	34.51
1.93132	34.52
1.94798	34.53
1.96465	34.51
1.98132	34.51
1.99798	34.52
2.01465	34.53
2.03132	34.52
2.04798	34.52
2.06465	34.52
2.08132	34.52
2.09798	34.52
2.11465	34.52
2.13132	34.52
2.14798	34.52
2.16465	34.52
2.18132	34.52
2.19798	34.52
2.21465	34.52
2.23132	34.51
2.24798	34.52
2.26465	34.52
2.28132	34.52
2.29798	34.52
2.31465	34.52
2.33132	34.52
2.34798	34.52
2.36465	34.52
2.38132	34.52
2.39798	34.52
2.41465	34.52
2.43132	34.52
2.44798	34.52
2.46465	34.51
2.48132	34.51
2.49798	34.53
2.51465	34.51
2.53132	34.52
2.54798	34.52
2.56465	34.52
2.58132	34.52
2.59798	34.51
2.61465	34.52
2.63132	34.52
2.64798	34.52
2.66465	34.51
2.68132	34.52
2.69798	34.52
2.71465	34.52
2.73132	34.52
2.74798	34.51
2.76465	34.52
2.78132	34.52
2.79798	34.51
2.81465	34.52
2.83132	34.53
2.84798	34.52
2.86465	34.52
2.88132	34.52
2.89798	34.52
2.91465	34.51
2.93132	34.51
2.94798	34.52
2.96465	34.51
2.98132	34.51
2.99798	34.51
3.01465	34.52
3.03132	34.52
3.04798	34.52
3.06465	34.53
3.08132	34.51
3.09798	34.52
3.11465	34.52
3.13132	34.53
3.14798	34.51
3.16465	34.52
3.18132	34.52
3.19798	34.52
3.21465	34.52
3.23132	34.52
3.24798	34.52
3.26465	34.52
3.28132	34.52
3.29798	34.52
3.31465	34.52
3.33132	34.52
3.34798	34.51
3.36465	34.53
3.38132	34.51
3.39798	34.52
3.41465	34.52
3.43132	34.52
3.44798	34.53
3.46465	34.51
3.48132	34.51
3.49798	34.52
3.51465	34.52
3.53132	34.52
3.54798	34.52
3.56465	34.52
3.58132	34.51
3.59798	34.52
3.61465	34.51
3.63132	34.52
3.64798	34.52
3.66465	34.53
3.68132	34.52
3.69798	34.51
3.71465	34.52
3.73132	34.52
3.74798	34.52
3.76465	34.52
3.78132	34.52
3.79798	34.52
3.81465	34.52
3.83132	34.52
3.84798	34.52
3.86465	34.52
3.88132	34.51
3.89798	34.52
3.91465	34.52
3.93132	34.52
3.94798	34.52
3.96465	34.52
3.98132	34.52

[Status Trace (Column Flow)]
Interval(msec)	1000
# of Points	239
Start Time(min)	0.015
End Time(min)	3.981
Intensity Units	
Intensity Multiplier	1
R.Time (min)	Intensity
0.01465	5.43
0.03132	5.21
0.04798	5.50
0.06465	5.71
0.08132	5.58
0.09798	5.49
0.11465	5.50
0.13132	5.50
0.14798	5.50
0.16465	5.50
0.18132	5.50
0.19798	5.50
0.21465	5.50
0.23132	5.50
0.24798	5.50
0.26465	5.50
0.28132	5.50
0.29798	5.50
0.31465	5.50
0.33132	5.50
0.34798	5.50
0.36465	5.50
0.38132	5.50
0.39798	5.50
0.41465	5.50
0.43132	5.50
0.44798	5.50
0.46465	5.50
0.48132	5.50
0.49798	5.50
0.51465	5.50
0.53132	5.50
0.54798	5.50
0.56465	5.50
0.58132	5.50
0.59798	5.50
0.61465	5.50
0.63132	5.50
0.64798	5.50
0.66465	5.50
0.68132	5.50
0.69798	5.50
0.71465	5.50
0.73132	5.50
0.74798	5.50
0.76465	5.50
0.78132	5.50
0.79798	5.50
0.81465	5.50
0.83132	5.50
0.84798	5.50
0.86465	5.50
0.88132	5.50
0.89798	5.50
0.91465	5.50
0.93132	5.50
0.94798	5.50
0.96465	5.50
0.98132	5.50
0.99798	5.50
1.01465	5.50
1.03132	5.50
1.04798	5.50
1.06465	5.50
1.08132	5.50
1.09798	5.50
1.11465	5.50
1.13132	5.50
1.14798	5.50
1.16465	5.50
1.18132	5.50
1.19798	5.50
1.21465	5.50
1.23132	5.50
1.24798	5.50
1.26465	5.50
1.28132	5.50
1.29798	5.50
1.31465	5.50
1.33132	5.50
1.34798	5.50
1.36465	5.50
1.38132	5.50
1.39798	5.50
1.41465	5.50
1.43132	5.50
1.44798	5.50
1.46465	5.50
1.48132	5.50
1.49798	5.50
1.51465	5.50
1.53132	5.50
1.54798	5.50
1.56465	5.50
1.58132	5.50
1.59798	5.50
1.61465	5.49
1.63132	5.49
1.64798	5.48
1.66465	5.47
1.68132	5.46
1.69798	5.45
1.71465	5.44
1.73132	5.43
1.74798	5.42
1.76465	5.41
1.78132	5.40
1.79798	5.39
1.81465	5.38
1.83132	5.37
1.84798	5.36
1.86465	5.35
1.88132	5.34
1.89798	5.33
1.91465	5.32
1.93132	5.31
1.94798	5.30
1.96465	5.29
1.98132	5.28
1.99798	5.27
2.01465	5.26
2.03132	5.25
2.04798	5.25
2.06465	5.24
2.08132	5.23
2.09798	5.22
2.11465	5.21
2.13132	5.20
2.14798	5.19
2.16465	5.18
2.18132	5.17
2.19798	5.16
2.21465	5.15
2.23132	5.14
2.24798	5.13
2.26465	5.12
2.28132	5.11
2.29798	5.10
2.31465	5.09
2.33132	5.08
2.34798	5.08
2.36465	5.07
2.38132	5.06
2.39798	5.06
2.41465	5.06
2.43132	5.06
2.44798	5.06
2.46465	5.06
2.48132	5.06
2.49798	5.06
2.51465	5.06
2.53132	5.06
2.54798	5.06
2.56465	5.06
2.58132	5.06
2.59798	5.06
2.61465	5.06
2.63132	5.06
2.64798	5.06
2.66465	5.06
2.68132	5.06
2.69798	5.06
2.71465	5.06
2.73132	5.06
2.74798	5.06
2.76465	5.06
2.78132	5.06
2.79798	5.06
2.81465	5.06
2.83132	5.06
2.84798	5.06
2.86465	5.06
2.88132	5.06
2.89798	5.06
2.91465	5.06
2.93132	5.06
2.94798	5.06
2.96465	5.06
2.98132	5.06
2.99798	5.06
3.01465	5.06
3.03132	5.06
3.04798	5.06
3.06465	5.06
3.08132	5.06
3.09798	5.06
3.11465	5.05
3.13132	5.05
3.14798	5.05
3.16465	5.05
3.18132	5.05
3.19798	5.05
3.21465	5.05
3.23132	5.05
3.24798	5.05
3.26465	5.05
3.28132	5.05
3.29798	5.05
3.31465	5.05
3.33132	5.05
3.34798	5.05
3.36465	5.05
3.38132	5.05
3.39798	5.05
3.41465	5.05
3.43132	5.05
3.44798	5.05
3.46465	5.05
3.48132	5.05
3.49798	5.05
3.51465	5.05
3.53132	5.05
3.54798	5.05
3.56465	5.05
3.58132	5.05
3.59798	5.05
3.61465	5.05
3.63132	5.05
3.64798	5.06
3.66465	5.06
3.68132	5.06
3.69798	5.06
3.71465	5.06
3.73132	5.06
3.74798	5.05
3.76465	5.05
3.78132	5.05
3.79798	5.05
3.81465	5.05
3.83132	5.05
3.84798	5.05
3.86465	5.05
3.88132	5.05
3.89798	5.05
3.91465	5.05
3.93132	5.05
3.94798	5.05
3.96465	5.06
3.98132	5.06

[Status Trace (Linear Velocity)]
Interval(msec)	1000
# of Points	239
Start Time(min)	0.015
End Time(min)	3.981
Intensity Units	
Intensity Multiplier	1
R.Time (min)	Intensity
0.01465	38.65
0.03132	37.39
0.04798	39.02
0.06465	40.20
0.08132	39.46
0.09798	38.99
0.11465	39.00
0.13132	39.02
0.14798	39.01
0.16465	39.01
0.18132	39.01
0.19798	39.01
0.21465	39.01
0.23132	39.01
0.24798	39.01
0.26465	39.01
0.28132	39.01
0.29798	39.01
0.31465	39.01
0.33132	39.01
0.34798	39.01
0.36465	39.01
0.38132	39.01
0.39798	39.01
0.41465	39.01
0.43132	39.01
0.44798	39.01
0.46465	39.01
0.48132	39.01
0.49798	39.01
0.51465	39.01
0.53132	39.01
0.54798	39.01
0.56465	39.01
0.58132	39.01
0.59798	39.01
0.61465	39.01
0.63132	39.01
0.64798	39.01
0.66465	39.01
0.68132	39.01
0.69798	39.01
0.71465	39.01
0.73132	39.01
0.74798	39.01
0.76465	39.01
0.78132	39.01
0.79798	39.01
0.81465	39.01
0.83132	39.01
0.84798	39.01
0.86465	39.01
0.88132	39.01
0.89798	39.01
0.91465	39.01
0.93132	39.01
0.94798	39.01
0.96465	39.01
0.98132	39.01
0.99798	39.01
1.01465	39.01
1.03132	39.01
1.04798	39.01
1.06465	39.01
1.08132	39.02
1.09798	39.02
1.11465	39.02
1.13132	39.01
1.14798	39.01
1.16465	39.01
1.18132	39.01
1.19798	39.01
1.21465	39.01
1.23132	39.01
1.24798	39.01
1.26465	39.01
1.28132	39.01
1.29798	39.01
1.31465	39.01
1.33132	39.01
1.34798	39.01
1.36465	39.01
1.38132	39.01
1.39798	39.01
1.41465	39.01
1.43132	39.01
1.44798	39.01
1.46465	39.01
1.48132	39.01
1.49798	39.01
1.51465	39.01
1.53132	39.01
1.54798	39.01
1.56465	39.01
1.58132	39.01
1.59798	39.01
1.61465	39.00
1.63132	38.99
1.64798	38.97
1.66465	38.94
1.68132	38.91
1.69798	38.88
1.71465	38.84
1.73132	38.81
1.74798	38.78
1.76465	38.74
1.78132	38.71
1.79798	38.68
1.81465	38.65
1.83132	38.62
1.84798	38.59
1.86465	38.56
1.88132	38.53
1.89798	38.50
1.91465	38.47
1.93132	38.44
1.94798	38.41
1.96465	38.38
1.98132	38.35
1.99798	38.32
2.01465	38.29
2.03132	38.26
2.04798	38.23
2.06465	38.20
2.08132	38.17
2.09798	38.14
2.11465	38.11
2.13132	38.08
2.14798	38.05
2.16465	38.02
2.18132	37.99
2.19798	37.96
2.21465	37.93
2.23132	37.90
2.24798	37.87
2.26465	37.84
2.28132	37.81
2.29798	37.78
2.31465	37.75
2.33132	37.72
2.34798	37.69
2.36465	37.67
2.38132	37.65
2.39798	37.65
2.41465	37.65
2.43132	37.65
2.44798	37.65
2.46465	37.65
2.48132	37.65
2.49798	37.65
2.51465	37.64
2.53132	37.64
2.54798	37.65
2.56465	37.65
2.58132	37.64
2.59798	37.64
2.61465	37.64
2.63132	37.64
2.64798	37.64
2.66465	37.64
2.68132	37.64
2.69798	37.64
2.71465	37.64
2.73132	37.64
2.74798	37.64
2.76465	37.64
2.78132	37.64
2.79798	37.64
2.81465	37.63
2.83132	37.64
2.84798	37.64
2.86465	37.63
2.88132	37.63
2.89798	37.63
2.91465	37.63
2.93132	37.63
2.94798	37.63
2.96465	37.63
2.98132	37.63
2.99798	37.63
3.01465	37.63
3.03132	37.63
3.04798	37.63
3.06465	37.63
3.08132	37.63
3.09798	37.63
3.11465	37.62
3.13132	37.62
3.14798	37.62
3.16465	37.62
3.18132	37.62
3.19798	37.62
3.21465	37.62
3.23132	37.62
3.24798	37.62
3.26465	37.62
3.28132	37.62
3.29798	37.62
3.31465	37.62
3.33132	37.62
3.34798	37.62
3.36465	37.62
3.38132	37.62
3.39798	37.62
3.41465	37.62
3.43132	37.62
3.44798	37.62
3.46465	37.62
3.48132	37.62
3.49798	37.62
3.51465	37.62
3.53132	37.62
3.54798	37.62
3.56465	37.62
3.58132	37.62
3.59798	37.62
3.61465	37.62
3.63132	37.62
3.64798	37.62
3.66465	37.63
3.68132	37.63
3.69798	37.63
3.71465	37.63
3.73132	37.62
3.74798	37.62
3.76465	37.62
3.78132	37.62
3.79798	37.62
3.81465	37.62
3.83132	37.62
3.84798	37.62
3.86465	37.62
3.88132	37.62
3.89798	37.62
3.91465	37.62
3.93132	37.62
3.94798	37.62
3.96465	37.62
3.98132	37.62

