[Header]
Application Name	LabSolutions
Version	5.110
Data File Name	C:\Users\User\Desktop\Junior\UIC Prairie Sampling\6.15.23\06152023_089.gcd
Output Date	6/26/2023
Output Time	12:05:13 PM

[File Information]
Type	Data File
Generated	6/23/2023 9:46:13 PM
Generated by	System Administrator
Modified	6/23/2023 9:53:44 PM
Modified by	System Administrator

[Sample Information]
Operator Name	System Administrator
Acquired	6/23/2023 9:49:43 PM
Sample Type	0:Unknown
Level	0
Sample Name	089
Sample ID	089
ISTD Amount1	1
ISTD Amount2	1
ISTD Amount3	1
ISTD Amount4	1
ISTD Amount5	1
ISTD Amount6	1
ISTD Amount7	1
ISTD Amount8	1
ISTD Amount9	1
ISTD Amount10	1
ISTD Amount11	1
ISTD Amount12	1
ISTD Amount13	1
ISTD Amount14	1
ISTD Amount15	1
ISTD Amount16	1
ISTD Amount17	1
ISTD Amount18	1
ISTD Amount19	1
ISTD Amount20	1
ISTD Amount21	1
ISTD Amount22	1
ISTD Amount23	1
ISTD Amount24	1
ISTD Amount25	1
ISTD Amount26	1
ISTD Amount27	1
ISTD Amount28	1
ISTD Amount29	1
ISTD Amount30	1
ISTD Amount31	1
ISTD Amount32	1
Sample Amount	1
Dilution Factor	1
Vial#	88
Injection Volume	1
Injection Count	1
Bar Code	

[Original Files]
Data File	C:\Users\User\Desktop\Junior\UIC Prairie Sampling\6.15.23\06152023_089.gcd
Method File	C:\LabSolutions\Data\GHG_4min_2022\ghg3_togas_w_acet_4 min_new_int.gcm
Batch File	C:\LabSolutions\Data\AutoSamplerTesting\06152023.gcb
Report Format File	c:\LabSolutions\System\DEFAULT.lsr

[File Description]


[Configuration]
Instrument Name	C0B7VH3-Instrument1
Instrument #	1
Line #	1
# of Detectors	3
Detector ID	DET#1	DET#2	DET#3
Detector Name	FID	PTCD	ECD
# of Channels	1	1	1

[Peak Table(Ch1)]
# of Peaks	3
Peak#	R.Time	I.Time	F.Time	Area	Height	A/H	Conc.	Mark	ID#	Name	k'	Plate #	Plate Ht.	Tailing	Resolution	Sep.Factor	Area Ratio	Height Ratio	Conc. %	Norm Conc.
1	1.472	1.421	1.527	4070	2034	2.002	0.000	   	1	CO	0.000	9630	15.576	1.329	0.000	0.000	0	0	0.000	0.000
2	1.564	1.527	1.622	4089	2079	1.967	19.937	 V 	2	CH4	0.062	11676	12.847	1.101	1.555	0.000	0	0	2.895	2.895
3	1.989	1.941	2.539	3470223	1654570	2.097	668.776	   	3	CO2	0.351	17456	8.593	1.269	7.203	5.640	0	0	97.105	97.105

[Peak Table(Ch2)]
# of Peaks	0

[Peak Table(Ch3)]
# of Peaks	5
Peak#	R.Time	I.Time	F.Time	Area	Height	A/H	Conc.	Mark	ID#	Name	k'	Plate #	Plate Ht.	Tailing	Resolution	Sep.Factor	Area Ratio	Height Ratio	Conc. %	Norm Conc.
1	2.458	2.268	2.513	1470	455	3.230	0.000	   			0.000	11837	12.673	0.000	0.000	0.000	0	0	0.000	0.000
2	2.528	2.513	2.579	502	187	2.689	0.000	 V 			0.028	4289	34.971	0.000	0.569	0.000	0	0	0.000	0.000
3	2.627	2.579	2.697	505	127	3.964	0.000	 V 			0.069	8129	18.453	0.000	0.731	2.421	0	0	0.000	0.000
4	2.887	2.832	3.126	24425	5154	4.739	0.361	   	1	N2O	0.175	11969	12.532	0.000	2.344	2.543	0	0	100.000	100.000
5	3.232	3.126	3.929	10512	435	24.146	0.000	 V 	2	SF6	0.315	122	1231.198	0.000	0.540	1.803	0	0	0.000	0.000

[Compound Results(Ch1)]
# of IDs	6
ID#	Name	R.Time	Area	Height	Conc.	Curve	3rd	2nd	1st	Constant	Area Ratio	Height Ratio	Conc. %	Norm Conc.
1	CO	1.472	4070	2034	0.000	Linear	0.000000e+00	0.000000e+00	0.000000e+00	0.000000e+00	0	0	0.000	0.000
2	CH4	1.564	4089	2079	19.937	Linear	0.000000e+00	0.000000e+00	2.051179e+002	0.000000e+00	0	0	2.895	2.895
3	CO2	1.989	3470223	1654570	668.776	Linear	0.000000e+00	0.000000e+00	5.188919e+003	0.000000e+00	0	0	97.105	97.105
4	Ethylene	0.000	0	0	0.000	Linear	0.000000e+00	0.000000e+00	0.000000e+00	0.000000e+00	0	0	0.000	0.000
5	Acetylene	0.000	0	0	0.000	Linear	0.000000e+00	0.000000e+00	0.000000e+00	0.000000e+00	0	0	0.000	0.000
6	Ethane	0.000	0	0	0.000	Linear	0.000000e+00	0.000000e+00	0.000000e+00	0.000000e+00	0	0	0.000	0.000

[Compound Results(Ch2)]
# of IDs	5
ID#	Name	R.Time	Area	Height	Conc.	Curve	3rd	2nd	1st	Constant	Area Ratio	Height Ratio	Conc. %	Norm Conc.
1	Hydrogen	0.000	0	0	0.000	Linear	0.000000e+00	0.000000e+00	0.000000e+00	0.000000e+00	0	0	0.000	0.000
2	Oxygen	0.000	0	0	0.000	Linear	0.000000e+00	0.000000e+00	0.000000e+00	0.000000e+00	0	0	0.000	0.000
3	Nitrogen	0.000	0	0	0.000	Linear	0.000000e+00	0.000000e+00	0.000000e+00	0.000000e+00	0	0	0.000	0.000
4	Methane	0.000	0	0	0.000	Linear	0.000000e+00	0.000000e+00	0.000000e+00	0.000000e+00	0	0	0.000	0.000
5	Carbon Monoxide	0.000	0	0	0.000	Linear	0.000000e+00	0.000000e+00	0.000000e+00	0.000000e+00	0	0	0.000	0.000

[Compound Results(Ch3)]
# of IDs	2
ID#	Name	R.Time	Area	Height	Conc.	Curve	3rd	2nd	1st	Constant	Area Ratio	Height Ratio	Conc. %	Norm Conc.
1	N2O	2.887	24425	5154	0.361	Linear	0.000000e+00	0.000000e+00	6.759880e+004	0.000000e+00	0	0	100.000	100.000
2	SF6	3.232	10512	435	0.000	Linear	0.000000e+00	0.000000e+00	0.000000e+00	0.000000e+00	0	0	0.000	0.000

[Group Results(Ch1)]
# of Groups	0

[Group Results(Ch2)]
# of Groups	0

[Group Results(Ch3)]
# of Groups	0

[Chromatogram (Ch1)]
Interval(msec)	220
# of Points	1091
Start Time(min)	0.002
End Time(min)	3.998
R.Time (min)	Intensity
0.00167	1
0.00533	6
0.00900	7
0.01267	8
0.01633	9
0.02000	8
0.02367	10
0.02733	15
0.03100	19
0.03467	21
0.03833	22
0.04200	23
0.04567	22
0.04933	25
0.05300	27
0.05667	24
0.06033	21
0.06400	17
0.06767	14
0.07133	11
0.07500	13
0.07867	16
0.08233	16
0.08600	19
0.08967	22
0.09333	24
0.09700	25
0.10067	29
0.10433	35
0.10800	36
0.11167	31
0.11533	23
0.11900	15
0.12267	10
0.12633	12
0.13000	17
0.13367	23
0.13733	26
0.14100	24
0.14467	19
0.14833	11
0.15200	2
0.15567	-8
0.15933	-12
0.16300	-9
0.16667	-2
0.17033	5
0.17400	8
0.17767	12
0.18133	13
0.18500	11
0.18867	8
0.19233	7
0.19600	4
0.19967	-0
0.20333	-5
0.20700	-6
0.21067	-5
0.21433	-1
0.21800	1
0.22167	2
0.22533	4
0.22900	5
0.23267	4
0.23633	3
0.24000	2
0.24367	6
0.24733	12
0.25100	17
0.25467	21
0.25833	22
0.26200	21
0.26567	16
0.26933	10
0.27300	9
0.27667	7
0.28033	2
0.28400	-2
0.28767	-2
0.29133	1
0.29500	3
0.29867	5
0.30233	9
0.30600	14
0.30967	17
0.31333	18
0.31700	20
0.32067	24
0.32433	25
0.32800	21
0.33167	14
0.33533	4
0.33900	-6
0.34267	-13
0.34633	-17
0.35000	-19
0.35367	-18
0.35733	-14
0.36100	-11
0.36467	-7
0.36833	-3
0.37200	2
0.37567	5
0.37933	5
0.38300	1
0.38667	-3
0.39033	-4
0.39400	-3
0.39767	-0
0.40133	1
0.40500	-2
0.40867	-6
0.41233	-8
0.41600	-11
0.41967	-12
0.42333	-8
0.42700	-4
0.43067	2
0.43433	6
0.43800	7
0.44167	6
0.44533	6
0.44900	6
0.45267	7
0.45633	7
0.46000	6
0.46367	5
0.46733	4
0.47100	4
0.47467	5
0.47833	6
0.48200	5
0.48567	0
0.48933	-6
0.49300	-11
0.49667	-15
0.50033	-17
0.50400	-18
0.50767	-18
0.51133	-17
0.51500	-14
0.51867	-8
0.52233	-4
0.52600	-5
0.52967	-9
0.53333	-12
0.53700	-14
0.54067	-14
0.54433	-14
0.54800	-10
0.55167	-4
0.55533	-1
0.55900	-1
0.56267	-4
0.56633	-11
0.57000	-18
0.57367	-23
0.57733	-25
0.58100	-25
0.58467	-24
0.58833	-22
0.59200	-19
0.59567	-14
0.59933	-9
0.60300	-4
0.60667	-2
0.61033	-0
0.61400	-1
0.61767	-3
0.62133	-4
0.62500	-6
0.62867	-10
0.63233	-15
0.63600	-20
0.63967	-25
0.64333	-28
0.64700	-28
0.65067	-27
0.65433	-23
0.65800	-20
0.66167	-18
0.66533	-18
0.66900	-18
0.67267	-17
0.67633	-17
0.68000	-17
0.68367	-15
0.68733	-12
0.69100	-13
0.69467	-18
0.69833	-25
0.70200	-32
0.70567	-36
0.70933	-39
0.71300	-39
0.71667	-39
0.72033	-39
0.72400	-38
0.72767	-37
0.73133	-34
0.73500	-30
0.73867	-22
0.74233	-16
0.74600	-17
0.74967	-22
0.75333	-24
0.75700	-22
0.76067	-23
0.76433	-26
0.76800	-27
0.77167	-27
0.77533	-28
0.77900	-31
0.78267	-33
0.78633	-32
0.79000	-32
0.79367	-34
0.79733	-32
0.80100	-30
0.80467	-28
0.80833	-24
0.81200	-18
0.81567	-16
0.81933	-20
0.82300	-26
0.82667	-31
0.83033	-34
0.83400	-37
0.83767	-39
0.84133	-38
0.84500	-36
0.84867	-37
0.85233	-39
0.85600	-42
0.85967	-44
0.86333	-42
0.86700	-40
0.87067	-40
0.87433	-37
0.87800	-32
0.88167	-29
0.88533	-33
0.88900	-43
0.89267	-52
0.89633	-60
0.90000	-64
0.90367	-64
0.90733	-61
0.91100	-57
0.91467	-54
0.91833	-51
0.92200	-45
0.92567	-40
0.92933	-42
0.93300	-45
0.93667	-48
0.94033	-48
0.94400	-44
0.94767	-41
0.95133	-41
0.95500	-41
0.95867	-42
0.96233	-45
0.96600	-46
0.96967	-47
0.97333	-51
0.97700	-54
0.98067	-54
0.98433	-51
0.98800	-43
0.99167	-36
0.99533	-35
0.99900	-38
1.00267	-39
1.00633	-38
1.01000	-36
1.01367	-33
1.01733	-32
1.02100	-35
1.02467	-38
1.02833	-40
1.03200	-40
1.03567	-36
1.03933	-30
1.04300	-26
1.04667	-23
1.05033	-24
1.05400	-31
1.05767	-40
1.06133	-48
1.06500	-54
1.06867	-58
1.07233	-60
1.07600	-58
1.07967	-53
1.08333	-49
1.08700	-47
1.09067	-45
1.09433	-40
1.09800	-32
1.10167	-25
1.10533	-21
1.10900	-20
1.11267	-24
1.11633	-34
1.12000	-47
1.12367	-59
1.12733	-66
1.13100	-71
1.13467	-73
1.13833	-76
1.14200	-77
1.14567	-78
1.14933	-79
1.15300	-79
1.15667	-76
1.16033	-73
1.16400	-69
1.16767	-67
1.17133	-68
1.17500	-67
1.17867	-62
1.18233	-58
1.18600	-55
1.18967	-51
1.19333	-49
1.19700	-48
1.20067	-46
1.20433	-41
1.20800	-36
1.21167	-32
1.21533	-31
1.21900	-33
1.22267	-38
1.22633	-43
1.23000	-45
1.23367	-50
1.23733	-57
1.24100	-58
1.24467	-57
1.24833	-55
1.25200	-50
1.25567	-46
1.25933	-45
1.26300	-48
1.26667	-56
1.27033	-65
1.27400	-73
1.27767	-78
1.28133	-78
1.28500	-73
1.28867	-70
1.29233	-68
1.29600	-68
1.29967	-67
1.30333	-63
1.30700	-58
1.31067	-56
1.31433	-58
1.31800	-62
1.32167	-65
1.32533	-68
1.32900	-71
1.33267	-74
1.33633	-77
1.34000	-76
1.34367	-71
1.34733	-68
1.35100	-70
1.35467	-75
1.35833	-78
1.36200	-80
1.36567	-79
1.36933	-76
1.37300	-74
1.37667	-71
1.38033	-67
1.38400	-61
1.38767	-54
1.39133	-47
1.39500	-47
1.39867	-53
1.40233	-61
1.40600	-69
1.40967	-75
1.41333	-75
1.41700	-72
1.42067	-67
1.42433	-62
1.42800	-56
1.43167	-51
1.43533	-47
1.43900	-39
1.44267	-36
1.44633	16
1.45000	212
1.45367	559
1.45733	969
1.46100	1353
1.46467	1667
1.46833	1883
1.47200	1966
1.47567	1892
1.47933	1679
1.48300	1384
1.48667	1070
1.49033	785
1.49400	551
1.49767	372
1.50133	241
1.50500	151
1.50867	89
1.51233	46
1.51600	16
1.51967	-5
1.52333	-21
1.52700	-27
1.53067	-17
1.53433	31
1.53800	166
1.54167	433
1.54533	810
1.54900	1219
1.55267	1581
1.55633	1851
1.56000	2003
1.56367	2009
1.56733	1854
1.57100	1567
1.57467	1219
1.57833	882
1.58200	597
1.58567	380
1.58933	227
1.59300	125
1.59667	58
1.60033	16
1.60400	-10
1.60767	-26
1.61133	-41
1.61500	-54
1.61867	-64
1.62233	-71
1.62600	-76
1.62967	-79
1.63333	-80
1.63700	-78
1.64067	-77
1.64433	-75
1.64800	-72
1.65167	-70
1.65533	-70
1.65900	-72
1.66267	-76
1.66633	-81
1.67000	-85
1.67367	-89
1.67733	-90
1.68100	-89
1.68467	-85
1.68833	-77
1.69200	-68
1.69567	-66
1.69933	-68
1.70300	-74
1.70667	-81
1.71033	-88
1.71400	-93
1.71767	-96
1.72133	-97
1.72500	-95
1.72867	-93
1.73233	-89
1.73600	-87
1.73967	-90
1.74333	-95
1.74700	-100
1.75067	-104
1.75433	-103
1.75800	-101
1.76167	-99
1.76533	-97
1.76900	-95
1.77267	-97
1.77633	-100
1.78000	-100
1.78367	-98
1.78733	-93
1.79100	-86
1.79467	-78
1.79833	-74
1.80200	-73
1.80567	-73
1.80933	-77
1.81300	-85
1.81667	-95
1.82033	-104
1.82400	-111
1.82767	-112
1.83133	-110
1.83500	-107
1.83867	-102
1.84233	-94
1.84600	-87
1.84967	-84
1.85333	-82
1.85700	-81
1.86067	-87
1.86433	-95
1.86800	-99
1.87167	-102
1.87533	-103
1.87900	-103
1.88267	-100
1.88633	-97
1.89000	-95
1.89367	-94
1.89733	-94
1.90100	-92
1.90467	-89
1.90833	-86
1.91200	-85
1.91567	-84
1.91933	-84
1.92300	-83
1.92667	-84
1.93033	-87
1.93400	-94
1.93767	-101
1.94133	-105
1.94500	-78
1.94867	171
1.95233	1805
1.95600	9753
1.95967	38577
1.96333	117804
1.96700	282297
1.97067	542787
1.97433	865143
1.97800	1186761
1.98167	1448728
1.98533	1611020
1.98900	1654529
1.99267	1581652
1.99633	1414541
2.00000	1189713
2.00367	947288
2.00733	720192
2.01100	528198
2.01467	377815
2.01833	266398
2.02200	187028
2.02567	131948
2.02933	94324
2.03300	68809
2.03667	51502
2.04033	39688
2.04400	31526
2.04767	25790
2.05133	21667
2.05500	18631
2.05867	16334
2.06233	14549
2.06600	13124
2.06967	11966
2.07333	11004
2.07700	10192
2.08067	9496
2.08433	8891
2.08800	8355
2.09167	7879
2.09533	7459
2.09900	7081
2.10267	6737
2.10633	6422
2.11000	6134
2.11367	5868
2.11733	5623
2.12100	5395
2.12467	5183
2.12833	4991
2.13200	4816
2.13567	4651
2.13933	4491
2.14300	4337
2.14667	4188
2.15033	4045
2.15400	3907
2.15767	3777
2.16133	3658
2.16500	3549
2.16867	3450
2.17233	3356
2.17600	3265
2.17967	3179
2.18333	3095
2.18700	3011
2.19067	2930
2.19433	2854
2.19800	2784
2.20167	2722
2.20533	2662
2.20900	2599
2.21267	2535
2.21633	2476
2.22000	2419
2.22367	2364
2.22733	2313
2.23100	2264
2.23467	2216
2.23833	2167
2.24200	2124
2.24567	2083
2.24933	2044
2.25300	2008
2.25667	1969
2.26033	1928
2.26400	1889
2.26767	1854
2.27133	1821
2.27500	1787
2.27867	1754
2.28233	1722
2.28600	1691
2.28967	1660
2.29333	1627
2.29700	1595
2.30067	1565
2.30433	1535
2.30800	1504
2.31167	1474
2.31533	1446
2.31900	1422
2.32267	1404
2.32633	1390
2.33000	1377
2.33367	1361
2.33733	1345
2.34100	1328
2.34467	1309
2.34833	1288
2.35200	1267
2.35567	1246
2.35933	1223
2.36300	1195
2.36667	1169
2.37033	1149
2.37400	1136
2.37767	1126
2.38133	1118
2.38500	1107
2.38867	1093
2.39233	1079
2.39600	1065
2.39967	1053
2.40333	1041
2.40700	1027
2.41067	1012
2.41433	997
2.41800	982
2.42167	971
2.42533	965
2.42900	962
2.43267	955
2.43633	944
2.44000	932
2.44367	918
2.44733	906
2.45100	899
2.45467	889
2.45833	876
2.46200	859
2.46567	844
2.46933	829
2.47300	813
2.47667	801
2.48033	792
2.48400	783
2.48767	774
2.49133	767
2.49500	761
2.49867	755
2.50233	751
2.50600	747
2.50967	742
2.51333	736
2.51700	731
2.52067	728
2.52433	724
2.52800	720
2.53167	713
2.53533	703
2.53900	694
2.54267	689
2.54633	685
2.55000	680
2.55367	674
2.55733	664
2.56100	655
2.56467	653
2.56833	650
2.57200	644
2.57567	633
2.57933	618
2.58300	601
2.58667	587
2.59033	580
2.59400	580
2.59767	580
2.60133	576
2.60500	568
2.60867	563
2.61233	560
2.61600	558
2.61967	555
2.62333	555
2.62700	556
2.63067	557
2.63433	553
2.63800	546
2.64167	535
2.64533	520
2.64900	505
2.65267	493
2.65633	488
2.66000	483
2.66367	476
2.66733	469
2.67100	462
2.67467	457
2.67833	455
2.68200	459
2.68567	466
2.68933	472
2.69300	471
2.69667	462
2.70033	449
2.70400	435
2.70767	428
2.71133	427
2.71500	429
2.71867	429
2.72233	426
2.72600	428
2.72967	433
2.73333	435
2.73700	433
2.74067	427
2.74433	421
2.74800	415
2.75167	409
2.75533	403
2.75900	396
2.76267	390
2.76633	388
2.77000	386
2.77367	388
2.77733	391
2.78100	393
2.78467	391
2.78833	386
2.79200	382
2.79567	380
2.79933	383
2.80300	388
2.80667	390
2.81033	390
2.81400	387
2.81767	382
2.82133	376
2.82500	370
2.82867	364
2.83233	361
2.83600	361
2.83967	360
2.84333	357
2.84700	352
2.85067	346
2.85433	343
2.85800	342
2.86167	343
2.86533	341
2.86900	338
2.87267	333
2.87633	330
2.88000	329
2.88367	329
2.88733	328
2.89100	327
2.89467	326
2.89833	329
2.90200	331
2.90567	334
2.90933	335
2.91300	336
2.91667	337
2.92033	335
2.92400	328
2.92767	315
2.93133	301
2.93500	289
2.93867	280
2.94233	274
2.94600	273
2.94967	277
2.95333	279
2.95700	273
2.96067	267
2.96433	266
2.96800	268
2.97167	268
2.97533	266
2.97900	268
2.98267	272
2.98633	277
2.99000	284
2.99367	292
2.99733	295
3.00100	295
3.00467	293
3.00833	291
3.01200	289
3.01567	288
3.01933	283
3.02300	275
3.02667	266
3.03033	259
3.03400	254
3.03767	254
3.04133	253
3.04500	251
3.04867	247
3.05233	245
3.05600	246
3.05967	252
3.06333	260
3.06700	267
3.07067	269
3.07433	264
3.07800	255
3.08167	246
3.08533	240
3.08900	239
3.09267	237
3.09633	231
3.10000	227
3.10367	225
3.10733	224
3.11100	223
3.11467	223
3.11833	222
3.12200	217
3.12567	212
3.12933	208
3.13300	211
3.13667	217
3.14033	224
3.14400	232
3.14767	235
3.15133	232
3.15500	227
3.15867	224
3.16233	225
3.16600	225
3.16967	222
3.17333	216
3.17700	211
3.18067	208
3.18433	211
3.18800	216
3.19167	220
3.19533	221
3.19900	216
3.20267	207
3.20633	200
3.21000	199
3.21367	199
3.21733	199
3.22100	200
3.22467	199
3.22833	195
3.23200	190
3.23567	184
3.23933	179
3.24300	176
3.24667	177
3.25033	177
3.25400	179
3.25767	182
3.26133	184
3.26500	183
3.26867	179
3.27233	176
3.27600	176
3.27967	180
3.28333	187
3.28700	194
3.29067	198
3.29433	197
3.29800	192
3.30167	187
3.30533	184
3.30900	183
3.31267	184
3.31633	184
3.32000	181
3.32367	175
3.32733	169
3.33100	165
3.33467	165
3.33833	165
3.34200	163
3.34567	158
3.34933	154
3.35300	154
3.35667	157
3.36033	161
3.36400	164
3.36767	166
3.37133	170
3.37500	175
3.37867	180
3.38233	181
3.38600	177
3.38967	173
3.39333	171
3.39700	173
3.40067	175
3.40433	178
3.40800	180
3.41167	186
3.41533	190
3.41900	189
3.42267	184
3.42633	177
3.43000	168
3.43367	162
3.43733	159
3.44100	157
3.44467	155
3.44833	154
3.45200	154
3.45567	154
3.45933	154
3.46300	156
3.46667	158
3.47033	160
3.47400	160
3.47767	158
3.48133	156
3.48500	154
3.48867	149
3.49233	146
3.49600	147
3.49967	151
3.50333	150
3.50700	146
3.51067	144
3.51433	144
3.51800	146
3.52167	150
3.52533	157
3.52900	159
3.53267	156
3.53633	156
3.54000	159
3.54367	161
3.54733	164
3.55100	167
3.55467	169
3.55833	169
3.56200	167
3.56567	165
3.56933	160
3.57300	155
3.57667	149
3.58033	145
3.58400	142
3.58767	141
3.59133	143
3.59500	150
3.59867	154
3.60233	157
3.60600	159
3.60967	160
3.61333	161
3.61700	157
3.62067	152
3.62433	147
3.62800	143
3.63167	143
3.63533	146
3.63900	148
3.64267	149
3.64633	149
3.65000	147
3.65367	145
3.65733	143
3.66100	139
3.66467	137
3.66833	134
3.67200	133
3.67567	133
3.67933	135
3.68300	135
3.68667	136
3.69033	138
3.69400	145
3.69767	153
3.70133	158
3.70500	161
3.70867	161
3.71233	160
3.71600	154
3.71967	144
3.72333	132
3.72700	121
3.73067	113
3.73433	108
3.73800	104
3.74167	100
3.74533	96
3.74900	95
3.75267	100
3.75633	109
3.76000	119
3.76367	126
3.76733	128
3.77100	125
3.77467	119
3.77833	117
3.78200	121
3.78567	126
3.78933	129
3.79300	131
3.79667	128
3.80033	123
3.80400	117
3.80767	116
3.81133	118
3.81500	117
3.81867	111
3.82233	107
3.82600	108
3.82967	112
3.83333	116
3.83700	116
3.84067	112
3.84433	106
3.84800	102
3.85167	97
3.85533	91
3.85900	85
3.86267	79
3.86633	79
3.87000	83
3.87367	89
3.87733	95
3.88100	98
3.88467	101
3.88833	103
3.89200	103
3.89567	105
3.89933	112
3.90300	119
3.90667	122
3.91033	120
3.91400	116
3.91767	113
3.92133	107
3.92500	100
3.92867	93
3.93233	90
3.93600	93
3.93967	96
3.94333	95
3.94700	90
3.95067	84
3.95433	80
3.95800	77
3.96167	76
3.96533	74
3.96900	72
3.97267	70
3.97633	67
3.98000	66
3.98367	68
3.98733	68
3.99100	65
3.99467	64
3.99833	66

[Chromatogram (Ch2)]
Interval(msec)	220
# of Points	1091
Start Time(min)	0.002
End Time(min)	3.998
R.Time (min)	Intensity
0.00167	0
0.00533	0
0.00900	-0
0.01267	-0
0.01633	-0
0.02000	-0
0.02367	-1
0.02733	-1
0.03100	-1
0.03467	-1
0.03833	-2
0.04200	-2
0.04567	-2
0.04933	-2
0.05300	-2
0.05667	-2
0.06033	-2
0.06400	-2
0.06767	-2
0.07133	-2
0.07500	-2
0.07867	-2
0.08233	-2
0.08600	-2
0.08967	-1
0.09333	-1
0.09700	-1
0.10067	-0
0.10433	0
0.10800	1
0.11167	1
0.11533	1
0.11900	1
0.12267	0
0.12633	0
0.13000	-0
0.13367	-1
0.13733	-1
0.14100	-2
0.14467	-2
0.14833	-2
0.15200	-2
0.15567	-3
0.15933	-3
0.16300	-3
0.16667	-4
0.17033	-4
0.17400	-4
0.17767	-4
0.18133	-4
0.18500	-4
0.18867	-5
0.19233	-5
0.19600	-5
0.19967	-5
0.20333	-5
0.20700	-5
0.21067	-5
0.21433	-5
0.21800	-5
0.22167	-5
0.22533	-5
0.22900	-5
0.23267	-5
0.23633	-5
0.24000	-4
0.24367	-4
0.24733	-3
0.25100	-3
0.25467	-3
0.25833	-3
0.26200	-3
0.26567	-3
0.26933	-3
0.27300	-3
0.27667	-3
0.28033	-3
0.28400	-3
0.28767	-3
0.29133	-3
0.29500	-2
0.29867	-2
0.30233	-2
0.30600	-2
0.30967	-2
0.31333	-2
0.31700	-3
0.32067	-3
0.32433	-3
0.32800	-4
0.33167	-4
0.33533	-4
0.33900	-4
0.34267	-4
0.34633	-4
0.35000	-4
0.35367	-4
0.35733	-4
0.36100	-4
0.36467	-4
0.36833	-4
0.37200	-4
0.37567	-4
0.37933	-4
0.38300	-4
0.38667	-4
0.39033	-4
0.39400	-4
0.39767	-4
0.40133	-4
0.40500	-4
0.40867	-4
0.41233	-4
0.41600	-4
0.41967	-4
0.42333	-4
0.42700	-4
0.43067	-4
0.43433	-4
0.43800	-4
0.44167	-4
0.44533	-4
0.44900	-4
0.45267	-4
0.45633	-4
0.46000	-4
0.46367	-4
0.46733	-4
0.47100	-4
0.47467	-5
0.47833	-5
0.48200	-5
0.48567	-5
0.48933	-5
0.49300	-6
0.49667	-6
0.50033	-5
0.50400	-5
0.50767	-4
0.51133	-4
0.51500	-3
0.51867	-3
0.52233	-3
0.52600	-3
0.52967	-4
0.53333	-4
0.53700	-4
0.54067	-4
0.54433	-3
0.54800	-3
0.55167	-3
0.55533	-2
0.55900	-2
0.56267	-1
0.56633	-1
0.57000	-1
0.57367	-1
0.57733	-1
0.58100	-2
0.58467	-2
0.58833	-2
0.59200	-3
0.59567	-3
0.59933	-3
0.60300	-3
0.60667	-3
0.61033	-4
0.61400	-4
0.61767	-4
0.62133	-3
0.62500	-3
0.62867	-3
0.63233	-3
0.63600	-3
0.63967	-3
0.64333	-2
0.64700	-2
0.65067	-2
0.65433	-3
0.65800	-3
0.66167	-3
0.66533	-4
0.66900	-4
0.67267	-4
0.67633	-5
0.68000	-5
0.68367	-5
0.68733	-5
0.69100	-5
0.69467	-5
0.69833	-5
0.70200	-6
0.70567	-6
0.70933	-7
0.71300	-7
0.71667	-7
0.72033	-7
0.72400	-7
0.72767	-7
0.73133	-6
0.73500	-6
0.73867	-6
0.74233	-6
0.74600	-6
0.74967	-6
0.75333	-6
0.75700	-6
0.76067	-5
0.76433	-5
0.76800	-5
0.77167	-5
0.77533	-5
0.77900	-5
0.78267	-5
0.78633	-5
0.79000	-6
0.79367	-6
0.79733	-6
0.80100	-6
0.80467	-6
0.80833	-6
0.81200	-6
0.81567	-6
0.81933	-6
0.82300	-5
0.82667	-5
0.83033	-5
0.83400	-4
0.83767	-4
0.84133	-4
0.84500	-4
0.84867	-4
0.85233	-4
0.85600	-4
0.85967	-4
0.86333	-4
0.86700	-4
0.87067	-4
0.87433	-4
0.87800	-4
0.88167	-5
0.88533	-5
0.88900	-6
0.89267	-6
0.89633	-6
0.90000	-6
0.90367	-6
0.90733	-6
0.91100	-6
0.91467	-5
0.91833	-5
0.92200	-5
0.92567	-5
0.92933	-6
0.93300	-6
0.93667	-6
0.94033	-6
0.94400	-6
0.94767	-6
0.95133	-6
0.95500	-6
0.95867	-6
0.96233	-7
0.96600	-7
0.96967	-7
0.97333	-7
0.97700	-7
0.98067	-7
0.98433	-7
0.98800	-6
0.99167	-6
0.99533	-6
0.99900	-6
1.00267	-6
1.00633	-6
1.01000	-6
1.01367	-6
1.01733	-6
1.02100	-7
1.02467	-7
1.02833	-7
1.03200	-7
1.03567	-8
1.03933	-8
1.04300	-8
1.04667	-7
1.05033	-7
1.05400	-7
1.05767	-7
1.06133	-7
1.06500	-7
1.06867	-7
1.07233	-7
1.07600	-6
1.07967	-6
1.08333	-5
1.08700	-5
1.09067	-5
1.09433	-5
1.09800	-5
1.10167	-5
1.10533	-6
1.10900	-5
1.11267	-6
1.11633	-6
1.12000	-6
1.12367	-6
1.12733	-6
1.13100	-6
1.13467	-6
1.13833	-6
1.14200	-6
1.14567	-6
1.14933	-7
1.15300	-6
1.15667	-6
1.16033	-7
1.16400	-7
1.16767	-6
1.17133	-6
1.17500	-6
1.17867	-6
1.18233	-6
1.18600	-6
1.18967	-6
1.19333	-6
1.19700	-6
1.20067	-6
1.20433	-6
1.20800	-6
1.21167	-6
1.21533	-6
1.21900	-6
1.22267	-5
1.22633	-5
1.23000	-5
1.23367	-4
1.23733	-4
1.24100	-4
1.24467	-4
1.24833	-4
1.25200	-5
1.25567	-5
1.25933	-5
1.26300	-6
1.26667	-6
1.27033	-6
1.27400	-6
1.27767	-6
1.28133	-6
1.28500	-6
1.28867	-6
1.29233	-6
1.29600	-6
1.29967	-6
1.30333	-6
1.30700	-5
1.31067	-6
1.31433	-6
1.31800	-6
1.32167	-6
1.32533	-6
1.32900	-7
1.33267	-7
1.33633	-7
1.34000	-7
1.34367	-6
1.34733	-7
1.35100	-7
1.35467	-7
1.35833	-7
1.36200	-7
1.36567	-7
1.36933	-7
1.37300	-7
1.37667	-7
1.38033	-7
1.38400	-7
1.38767	-7
1.39133	-7
1.39500	-6
1.39867	-6
1.40233	-6
1.40600	-7
1.40967	-7
1.41333	-7
1.41700	-8
1.42067	-8
1.42433	-8
1.42800	-8
1.43167	-8
1.43533	-8
1.43900	-8
1.44267	-8
1.44633	-7
1.45000	-7
1.45367	-7
1.45733	-7
1.46100	-7
1.46467	-7
1.46833	-7
1.47200	-7
1.47567	-7
1.47933	-7
1.48300	-6
1.48667	-6
1.49033	-6
1.49400	-5
1.49767	-5
1.50133	-5
1.50500	-5
1.50867	-5
1.51233	-5
1.51600	-5
1.51967	-5
1.52333	-6
1.52700	-6
1.53067	-6
1.53433	-6
1.53800	-6
1.54167	-6
1.54533	-6
1.54900	-6
1.55267	-7
1.55633	-7
1.56000	-7
1.56367	-7
1.56733	-6
1.57100	-6
1.57467	-6
1.57833	-6
1.58200	-6
1.58567	-6
1.58933	-7
1.59300	-7
1.59667	-8
1.60033	-9
1.60400	-11
1.60767	-12
1.61133	-14
1.61500	-16
1.61867	-18
1.62233	-21
1.62600	-23
1.62967	-26
1.63333	-29
1.63700	-32
1.64067	-35
1.64433	-38
1.64800	-41
1.65167	-44
1.65533	-47
1.65900	-50
1.66267	-53
1.66633	-56
1.67000	-59
1.67367	-63
1.67733	-67
1.68100	-71
1.68467	-75
1.68833	-79
1.69200	-83
1.69567	-86
1.69933	-90
1.70300	-92
1.70667	-95
1.71033	-97
1.71400	-98
1.71767	-99
1.72133	-100
1.72500	-101
1.72867	-101
1.73233	-102
1.73600	-102
1.73967	-102
1.74333	-103
1.74700	-103
1.75067	-103
1.75433	-103
1.75800	-103
1.76167	-103
1.76533	-103
1.76900	-103
1.77267	-103
1.77633	-104
1.78000	-104
1.78367	-105
1.78733	-105
1.79100	-106
1.79467	-106
1.79833	-106
1.80200	-106
1.80567	-105
1.80933	-104
1.81300	-104
1.81667	-103
1.82033	-103
1.82400	-103
1.82767	-104
1.83133	-104
1.83500	-104
1.83867	-105
1.84233	-105
1.84600	-106
1.84967	-107
1.85333	-107
1.85700	-107
1.86067	-107
1.86433	-107
1.86800	-107
1.87167	-107
1.87533	-107
1.87900	-107
1.88267	-107
1.88633	-107
1.89000	-107
1.89367	-107
1.89733	-106
1.90100	-106
1.90467	-106
1.90833	-106
1.91200	-105
1.91567	-105
1.91933	-104
1.92300	-104
1.92667	-104
1.93033	-103
1.93400	-104
1.93767	-104
1.94133	-104
1.94500	-103
1.94867	-103
1.95233	-102
1.95600	-102
1.95967	-102
1.96333	-102
1.96700	-102
1.97067	-102
1.97433	-102
1.97800	-102
1.98167	-102
1.98533	-101
1.98900	-101
1.99267	-100
1.99633	-100
2.00000	-99
2.00367	-99
2.00733	-99
2.01100	-99
2.01467	-99
2.01833	-99
2.02200	-99
2.02567	-99
2.02933	-98
2.03300	-98
2.03667	-97
2.04033	-97
2.04400	-97
2.04767	-96
2.05133	-96
2.05500	-96
2.05867	-96
2.06233	-95
2.06600	-95
2.06967	-95
2.07333	-95
2.07700	-95
2.08067	-94
2.08433	-94
2.08800	-93
2.09167	-92
2.09533	-91
2.09900	-91
2.10267	-90
2.10633	-90
2.11000	-89
2.11367	-89
2.11733	-89
2.12100	-90
2.12467	-90
2.12833	-91
2.13200	-91
2.13567	-90
2.13933	-90
2.14300	-90
2.14667	-89
2.15033	-89
2.15400	-88
2.15767	-88
2.16133	-88
2.16500	-87
2.16867	-87
2.17233	-87
2.17600	-87
2.17967	-87
2.18333	-86
2.18700	-86
2.19067	-86
2.19433	-86
2.19800	-85
2.20167	-85
2.20533	-84
2.20900	-84
2.21267	-83
2.21633	-82
2.22000	-82
2.22367	-81
2.22733	-80
2.23100	-80
2.23467	-80
2.23833	-80
2.24200	-80
2.24567	-81
2.24933	-82
2.25300	-83
2.25667	-84
2.26033	-84
2.26400	-84
2.26767	-83
2.27133	-82
2.27500	-81
2.27867	-80
2.28233	-80
2.28600	-79
2.28967	-79
2.29333	-79
2.29700	-79
2.30067	-78
2.30433	-78
2.30800	-77
2.31167	-76
2.31533	-76
2.31900	-75
2.32267	-75
2.32633	-74
2.33000	-74
2.33367	-73
2.33733	-73
2.34100	-72
2.34467	-72
2.34833	-71
2.35200	-70
2.35567	-70
2.35933	-69
2.36300	-67
2.36667	-65
2.37033	-63
2.37400	-60
2.37767	-56
2.38133	-53
2.38500	-49
2.38867	-45
2.39233	-41
2.39600	-36
2.39967	-32
2.40333	-28
2.40700	-24
2.41067	-21
2.41433	-18
2.41800	-15
2.42167	-13
2.42533	-10
2.42900	-8
2.43267	-5
2.43633	-3
2.44000	-2
2.44367	-0
2.44733	0
2.45100	1
2.45467	2
2.45833	3
2.46200	4
2.46567	5
2.46933	6
2.47300	8
2.47667	9
2.48033	9
2.48400	10
2.48767	10
2.49133	11
2.49500	11
2.49867	11
2.50233	12
2.50600	12
2.50967	12
2.51333	12
2.51700	12
2.52067	11
2.52433	11
2.52800	10
2.53167	10
2.53533	9
2.53900	9
2.54267	9
2.54633	9
2.55000	9
2.55367	9
2.55733	9
2.56100	9
2.56467	9
2.56833	10
2.57200	11
2.57567	11
2.57933	12
2.58300	12
2.58667	12
2.59033	12
2.59400	12
2.59767	12
2.60133	12
2.60500	12
2.60867	13
2.61233	13
2.61600	13
2.61967	14
2.62333	14
2.62700	14
2.63067	14
2.63433	15
2.63800	15
2.64167	15
2.64533	15
2.64900	15
2.65267	16
2.65633	16
2.66000	16
2.66367	17
2.66733	17
2.67100	17
2.67467	17
2.67833	18
2.68200	18
2.68567	18
2.68933	19
2.69300	19
2.69667	19
2.70033	20
2.70400	20
2.70767	20
2.71133	20
2.71500	20
2.71867	20
2.72233	20
2.72600	21
2.72967	22
2.73333	22
2.73700	23
2.74067	24
2.74433	24
2.74800	25
2.75167	25
2.75533	25
2.75900	26
2.76267	26
2.76633	25
2.77000	25
2.77367	24
2.77733	24
2.78100	23
2.78467	23
2.78833	23
2.79200	23
2.79567	23
2.79933	23
2.80300	23
2.80667	23
2.81033	23
2.81400	23
2.81767	23
2.82133	23
2.82500	24
2.82867	24
2.83233	24
2.83600	25
2.83967	25
2.84333	25
2.84700	26
2.85067	26
2.85433	26
2.85800	25
2.86167	23
2.86533	18
2.86900	12
2.87267	2
2.87633	-12
2.88000	-30
2.88367	-54
2.88733	-82
2.89100	-116
2.89467	-155
2.89833	-199
2.90200	-247
2.90567	-300
2.90933	-355
2.91300	-414
2.91667	-474
2.92033	-536
2.92400	-599
2.92767	-661
2.93133	-723
2.93500	-782
2.93867	-837
2.94233	-890
2.94600	-942
2.94967	-997
2.95333	-1049
2.95700	-1089
2.96067	-1107
2.96433	-1100
2.96800	-1069
2.97167	-1018
2.97533	-952
2.97900	-877
2.98267	-797
2.98633	-716
2.99000	-638
2.99367	-563
2.99733	-494
3.00100	-431
3.00467	-374
3.00833	-323
3.01200	-278
3.01567	-238
3.01933	-203
3.02300	-173
3.02667	-147
3.03033	-124
3.03400	-105
3.03767	-88
3.04133	-74
3.04500	-61
3.04867	-51
3.05233	-42
3.05600	-34
3.05967	-28
3.06333	-23
3.06700	-18
3.07067	-14
3.07433	-10
3.07800	-7
3.08167	-4
3.08533	-2
3.08900	0
3.09267	2
3.09633	4
3.10000	5
3.10367	6
3.10733	7
3.11100	8
3.11467	9
3.11833	10
3.12200	11
3.12567	11
3.12933	12
3.13300	12
3.13667	12
3.14033	13
3.14400	13
3.14767	14
3.15133	14
3.15500	15
3.15867	15
3.16233	15
3.16600	15
3.16967	15
3.17333	16
3.17700	16
3.18067	16
3.18433	17
3.18800	17
3.19167	17
3.19533	18
3.19900	18
3.20267	18
3.20633	19
3.21000	19
3.21367	19
3.21733	19
3.22100	19
3.22467	19
3.22833	19
3.23200	19
3.23567	19
3.23933	19
3.24300	19
3.24667	19
3.25033	19
3.25400	19
3.25767	19
3.26133	19
3.26500	19
3.26867	20
3.27233	20
3.27600	20
3.27967	20
3.28333	20
3.28700	20
3.29067	20
3.29433	20
3.29800	20
3.30167	20
3.30533	20
3.30900	20
3.31267	20
3.31633	21
3.32000	21
3.32367	21
3.32733	22
3.33100	22
3.33467	22
3.33833	22
3.34200	22
3.34567	22
3.34933	22
3.35300	22
3.35667	22
3.36033	22
3.36400	22
3.36767	22
3.37133	22
3.37500	22
3.37867	22
3.38233	22
3.38600	23
3.38967	23
3.39333	23
3.39700	23
3.40067	24
3.40433	24
3.40800	24
3.41167	24
3.41533	24
3.41900	25
3.42267	25
3.42633	25
3.43000	25
3.43367	25
3.43733	25
3.44100	25
3.44467	25
3.44833	25
3.45200	25
3.45567	25
3.45933	26
3.46300	26
3.46667	26
3.47033	26
3.47400	26
3.47767	26
3.48133	26
3.48500	26
3.48867	26
3.49233	26
3.49600	26
3.49967	25
3.50333	25
3.50700	25
3.51067	25
3.51433	25
3.51800	25
3.52167	26
3.52533	26
3.52900	26
3.53267	26
3.53633	26
3.54000	26
3.54367	26
3.54733	26
3.55100	26
3.55467	26
3.55833	26
3.56200	26
3.56567	26
3.56933	26
3.57300	26
3.57667	25
3.58033	25
3.58400	25
3.58767	25
3.59133	25
3.59500	25
3.59867	25
3.60233	25
3.60600	25
3.60967	25
3.61333	25
3.61700	24
3.62067	24
3.62433	24
3.62800	24
3.63167	24
3.63533	24
3.63900	24
3.64267	24
3.64633	24
3.65000	24
3.65367	24
3.65733	24
3.66100	24
3.66467	24
3.66833	24
3.67200	24
3.67567	24
3.67933	24
3.68300	24
3.68667	24
3.69033	24
3.69400	24
3.69767	24
3.70133	24
3.70500	24
3.70867	24
3.71233	24
3.71600	23
3.71967	23
3.72333	23
3.72700	23
3.73067	23
3.73433	23
3.73800	23
3.74167	23
3.74533	23
3.74900	23
3.75267	23
3.75633	23
3.76000	23
3.76367	24
3.76733	24
3.77100	24
3.77467	24
3.77833	25
3.78200	25
3.78567	25
3.78933	25
3.79300	25
3.79667	25
3.80033	25
3.80400	25
3.80767	25
3.81133	25
3.81500	24
3.81867	24
3.82233	24
3.82600	24
3.82967	25
3.83333	25
3.83700	25
3.84067	25
3.84433	25
3.84800	25
3.85167	24
3.85533	24
3.85900	24
3.86267	24
3.86633	24
3.87000	24
3.87367	24
3.87733	24
3.88100	24
3.88467	24
3.88833	24
3.89200	24
3.89567	24
3.89933	24
3.90300	24
3.90667	24
3.91033	24
3.91400	24
3.91767	24
3.92133	24
3.92500	24
3.92867	24
3.93233	24
3.93600	24
3.93967	24
3.94333	24
3.94700	24
3.95067	24
3.95433	24
3.95800	24
3.96167	24
3.96533	23
3.96900	23
3.97267	23
3.97633	24
3.98000	24
3.98367	24
3.98733	24
3.99100	24
3.99467	25
3.99833	25

[Chromatogram (Ch3)]
Interval(msec)	220
# of Points	1091
Start Time(min)	0.002
End Time(min)	3.998
R.Time (min)	Intensity
0.00167	0
0.00533	-2
0.00900	-4
0.01267	-3
0.01633	-2
0.02000	-5
0.02367	-6
0.02733	-7
0.03100	-6
0.03467	-5
0.03833	-5
0.04200	-3
0.04567	-3
0.04933	-2
0.05300	-3
0.05667	-2
0.06033	-2
0.06400	-4
0.06767	-5
0.07133	-5
0.07500	-4
0.07867	-3
0.08233	-3
0.08600	-2
0.08967	-0
0.09333	-1
0.09700	-2
0.10067	-2
0.10433	-2
0.10800	-3
0.11167	-3
0.11533	-2
0.11900	-1
0.12267	-2
0.12633	-3
0.13000	-5
0.13367	-7
0.13733	-6
0.14100	-6
0.14467	-6
0.14833	-4
0.15200	-3
0.15567	-1
0.15933	-1
0.16300	-1
0.16667	-1
0.17033	1
0.17400	1
0.17767	-0
0.18133	0
0.18500	-0
0.18867	-0
0.19233	1
0.19600	1
0.19967	1
0.20333	1
0.20700	1
0.21067	1
0.21433	1
0.21800	-1
0.22167	-2
0.22533	-4
0.22900	-5
0.23267	-2
0.23633	-0
0.24000	0
0.24367	-0
0.24733	-3
0.25100	-4
0.25467	-5
0.25833	-6
0.26200	-4
0.26567	-4
0.26933	-3
0.27300	-1
0.27667	-1
0.28033	0
0.28400	0
0.28767	-3
0.29133	-4
0.29500	-3
0.29867	-5
0.30233	-4
0.30600	-2
0.30967	0
0.31333	2
0.31700	3
0.32067	2
0.32433	3
0.32800	7
0.33167	8
0.33533	9
0.33900	9
0.34267	6
0.34633	4
0.35000	3
0.35367	1
0.35733	1
0.36100	1
0.36467	2
0.36833	3
0.37200	2
0.37567	4
0.37933	5
0.38300	5
0.38667	5
0.39033	4
0.39400	3
0.39767	1
0.40133	-1
0.40500	-1
0.40867	1
0.41233	3
0.41600	5
0.41967	6
0.42333	6
0.42700	6
0.43067	6
0.43433	5
0.43800	5
0.44167	5
0.44533	4
0.44900	3
0.45267	5
0.45633	7
0.46000	9
0.46367	11
0.46733	10
0.47100	7
0.47467	7
0.47833	8
0.48200	10
0.48567	11
0.48933	10
0.49300	9
0.49667	6
0.50033	6
0.50400	5
0.50767	4
0.51133	5
0.51500	5
0.51867	4
0.52233	3
0.52600	3
0.52967	6
0.53333	7
0.53700	9
0.54067	9
0.54433	10
0.54800	10
0.55167	9
0.55533	8
0.55900	8
0.56267	7
0.56633	8
0.57000	9
0.57367	9
0.57733	7
0.58100	6
0.58467	7
0.58833	8
0.59200	10
0.59567	12
0.59933	13
0.60300	12
0.60667	10
0.61033	11
0.61400	10
0.61767	10
0.62133	10
0.62500	12
0.62867	12
0.63233	10
0.63600	9
0.63967	8
0.64333	7
0.64700	8
0.65067	7
0.65433	6
0.65800	6
0.66167	6
0.66533	7
0.66900	8
0.67267	7
0.67633	9
0.68000	11
0.68367	12
0.68733	12
0.69100	13
0.69467	14
0.69833	13
0.70200	12
0.70567	10
0.70933	10
0.71300	11
0.71667	11
0.72033	13
0.72400	12
0.72767	12
0.73133	12
0.73500	11
0.73867	11
0.74233	11
0.74600	12
0.74967	13
0.75333	12
0.75700	12
0.76067	12
0.76433	11
0.76800	10
0.77167	8
0.77533	7
0.77900	9
0.78267	10
0.78633	10
0.79000	10
0.79367	13
0.79733	14
0.80100	15
0.80467	15
0.80833	15
0.81200	15
0.81567	16
0.81933	17
0.82300	17
0.82667	17
0.83033	17
0.83400	17
0.83767	19
0.84133	19
0.84500	17
0.84867	16
0.85233	17
0.85600	18
0.85967	17
0.86333	15
0.86700	15
0.87067	14
0.87433	13
0.87800	11
0.88167	11
0.88533	13
0.88900	14
0.89267	16
0.89633	17
0.90000	17
0.90367	18
0.90733	19
0.91100	20
0.91467	18
0.91833	18
0.92200	17
0.92567	16
0.92933	14
0.93300	12
0.93667	11
0.94033	11
0.94400	13
0.94767	13
0.95133	16
0.95500	18
0.95867	19
0.96233	19
0.96600	19
0.96967	19
0.97333	20
0.97700	18
0.98067	17
0.98433	17
0.98800	20
0.99167	21
0.99533	20
0.99900	20
1.00267	22
1.00633	21
1.01000	19
1.01367	19
1.01733	21
1.02100	22
1.02467	22
1.02833	22
1.03200	22
1.03567	21
1.03933	18
1.04300	17
1.04667	17
1.05033	19
1.05400	19
1.05767	17
1.06133	14
1.06500	15
1.06867	16
1.07233	16
1.07600	17
1.07967	17
1.08333	17
1.08700	16
1.09067	17
1.09433	19
1.09800	20
1.10167	22
1.10533	24
1.10900	23
1.11267	22
1.11633	22
1.12000	21
1.12367	22
1.12733	21
1.13100	21
1.13467	20
1.13833	19
1.14200	18
1.14567	17
1.14933	18
1.15300	19
1.15667	19
1.16033	19
1.16400	19
1.16767	18
1.17133	18
1.17500	19
1.17867	19
1.18233	19
1.18600	18
1.18967	20
1.19333	21
1.19700	22
1.20067	22
1.20433	19
1.20800	20
1.21167	22
1.21533	22
1.21900	22
1.22267	21
1.22633	20
1.23000	19
1.23367	19
1.23733	19
1.24100	21
1.24467	23
1.24833	23
1.25200	23
1.25567	23
1.25933	23
1.26300	24
1.26667	25
1.27033	26
1.27400	26
1.27767	26
1.28133	27
1.28500	27
1.28867	25
1.29233	24
1.29600	23
1.29967	19
1.30333	19
1.30700	20
1.31067	21
1.31433	20
1.31800	20
1.32167	22
1.32533	21
1.32900	21
1.33267	23
1.33633	24
1.34000	25
1.34367	25
1.34733	24
1.35100	25
1.35467	24
1.35833	23
1.36200	24
1.36567	24
1.36933	24
1.37300	24
1.37667	25
1.38033	25
1.38400	24
1.38767	23
1.39133	23
1.39500	23
1.39867	22
1.40233	22
1.40600	23
1.40967	23
1.41333	22
1.41700	23
1.42067	25
1.42433	26
1.42800	26
1.43167	26
1.43533	23
1.43900	21
1.44267	24
1.44633	26
1.45000	27
1.45367	28
1.45733	29
1.46100	28
1.46467	27
1.46833	27
1.47200	26
1.47567	27
1.47933	25
1.48300	24
1.48667	23
1.49033	22
1.49400	22
1.49767	22
1.50133	22
1.50500	22
1.50867	24
1.51233	25
1.51600	25
1.51967	25
1.52333	26
1.52700	26
1.53067	25
1.53433	24
1.53800	24
1.54167	25
1.54533	26
1.54900	24
1.55267	23
1.55633	23
1.56000	24
1.56367	25
1.56733	27
1.57100	27
1.57467	26
1.57833	25
1.58200	24
1.58567	23
1.58933	23
1.59300	23
1.59667	22
1.60033	20
1.60400	21
1.60767	22
1.61133	22
1.61500	21
1.61867	21
1.62233	22
1.62600	24
1.62967	25
1.63333	26
1.63700	28
1.64067	29
1.64433	30
1.64800	30
1.65167	29
1.65533	29
1.65900	30
1.66267	31
1.66633	30
1.67000	31
1.67367	32
1.67733	34
1.68100	34
1.68467	33
1.68833	32
1.69200	32
1.69567	32
1.69933	34
1.70300	37
1.70667	37
1.71033	35
1.71400	33
1.71767	33
1.72133	35
1.72500	37
1.72867	37
1.73233	36
1.73600	34
1.73967	33
1.74333	32
1.74700	33
1.75067	34
1.75433	34
1.75800	35
1.76167	38
1.76533	40
1.76900	40
1.77267	39
1.77633	36
1.78000	38
1.78367	41
1.78733	42
1.79100	42
1.79467	43
1.79833	44
1.80200	46
1.80567	46
1.80933	47
1.81300	47
1.81667	48
1.82033	48
1.82400	49
1.82767	49
1.83133	47
1.83500	46
1.83867	47
1.84233	46
1.84600	46
1.84967	47
1.85333	47
1.85700	48
1.86067	47
1.86433	47
1.86800	49
1.87167	52
1.87533	53
1.87900	54
1.88267	55
1.88633	56
1.89000	58
1.89367	58
1.89733	57
1.90100	56
1.90467	56
1.90833	57
1.91200	57
1.91567	56
1.91933	57
1.92300	59
1.92667	61
1.93033	62
1.93400	63
1.93767	63
1.94133	65
1.94500	66
1.94867	66
1.95233	67
1.95600	67
1.95967	67
1.96333	68
1.96700	70
1.97067	70
1.97433	72
1.97800	74
1.98167	74
1.98533	73
1.98900	73
1.99267	75
1.99633	75
2.00000	76
2.00367	77
2.00733	78
2.01100	79
2.01467	80
2.01833	83
2.02200	84
2.02567	85
2.02933	87
2.03300	88
2.03667	89
2.04033	89
2.04400	90
2.04767	92
2.05133	95
2.05500	95
2.05867	94
2.06233	93
2.06600	93
2.06967	94
2.07333	94
2.07700	96
2.08067	98
2.08433	100
2.08800	101
2.09167	101
2.09533	100
2.09900	100
2.10267	98
2.10633	96
2.11000	98
2.11367	99
2.11733	100
2.12100	103
2.12467	105
2.12833	105
2.13200	106
2.13567	107
2.13933	109
2.14300	112
2.14667	114
2.15033	114
2.15400	112
2.15767	112
2.16133	112
2.16500	112
2.16867	112
2.17233	112
2.17600	112
2.17967	112
2.18333	114
2.18700	115
2.19067	115
2.19433	116
2.19800	118
2.20167	118
2.20533	119
2.20900	120
2.21267	118
2.21633	118
2.22000	120
2.22367	121
2.22733	122
2.23100	121
2.23467	121
2.23833	121
2.24200	123
2.24567	124
2.24933	124
2.25300	123
2.25667	121
2.26033	117
2.26400	117
2.26767	119
2.27133	122
2.27500	122
2.27867	122
2.28233	122
2.28600	120
2.28967	121
2.29333	124
2.29700	127
2.30067	127
2.30433	126
2.30800	126
2.31167	126
2.31533	124
2.31900	126
2.32267	126
2.32633	126
2.33000	126
2.33367	127
2.33733	129
2.34100	130
2.34467	129
2.34833	128
2.35200	129
2.35567	131
2.35933	132
2.36300	133
2.36667	133
2.37033	134
2.37400	135
2.37767	136
2.38133	137
2.38500	135
2.38867	134
2.39233	134
2.39600	133
2.39967	133
2.40333	135
2.40700	138
2.41067	142
2.41433	145
2.41800	147
2.42167	148
2.42533	148
2.42900	147
2.43267	146
2.43633	147
2.44000	154
2.44367	217
2.44733	332
2.45100	440
2.45467	519
2.45833	560
2.46200	557
2.46567	531
2.46933	500
2.47300	478
2.47667	460
2.48033	441
2.48400	415
2.48767	385
2.49133	351
2.49500	321
2.49867	298
2.50233	280
2.50600	268
2.50967	263
2.51333	264
2.51700	269
2.52067	277
2.52433	284
2.52800	286
2.53167	282
2.53533	273
2.53900	260
2.54267	245
2.54633	230
2.55000	215
2.55367	202
2.55733	190
2.56100	180
2.56467	170
2.56833	162
2.57200	157
2.57567	154
2.57933	152
2.58300	152
2.58667	154
2.59033	156
2.59400	159
2.59767	164
2.60133	171
2.60500	180
2.60867	190
2.61233	201
2.61600	209
2.61967	215
2.62333	219
2.62700	219
2.63067	217
2.63433	212
2.63800	206
2.64167	198
2.64533	189
2.64900	178
2.65267	168
2.65633	155
2.66000	146
2.66367	138
2.66733	132
2.67100	127
2.67467	121
2.67833	114
2.68200	107
2.68567	101
2.68933	97
2.69300	91
2.69667	86
2.70033	84
2.70400	84
2.70767	84
2.71133	85
2.71500	86
2.71867	85
2.72233	86
2.72600	85
2.72967	84
2.73333	84
2.73700	84
2.74067	87
2.74433	90
2.74800	91
2.75167	92
2.75533	92
2.75900	96
2.76267	101
2.76633	106
2.77000	107
2.77367	108
2.77733	107
2.78100	107
2.78467	109
2.78833	114
2.79200	120
2.79567	123
2.79933	125
2.80300	129
2.80667	133
2.81033	135
2.81400	138
2.81767	142
2.82133	142
2.82500	118
2.82867	90
2.83233	88
2.83600	122
2.83967	195
2.84333	316
2.84700	508
2.85067	784
2.85433	1160
2.85800	1634
2.86167	2192
2.86533	2805
2.86900	3431
2.87267	4021
2.87633	4526
2.88000	4911
2.88367	5155
2.88733	5255
2.89100	5219
2.89467	5066
2.89833	4824
2.90200	4524
2.90567	4194
2.90933	3853
2.91300	3516
2.91667	3190
2.92033	2888
2.92400	2611
2.92767	2358
2.93133	2129
2.93500	1927
2.93867	1748
2.94233	1590
2.94600	1453
2.94967	1333
2.95333	1230
2.95700	1141
2.96067	1060
2.96433	988
2.96800	926
2.97167	874
2.97533	830
2.97900	794
2.98267	763
2.98633	736
2.99000	713
2.99367	693
2.99733	675
3.00100	660
3.00467	647
3.00833	635
3.01200	623
3.01567	614
3.01933	605
3.02300	600
3.02667	596
3.03033	593
3.03400	590
3.03767	586
3.04133	586
3.04500	583
3.04867	578
3.05233	574
3.05600	572
3.05967	570
3.06333	569
3.06700	570
3.07067	571
3.07433	569
3.07800	568
3.08167	566
3.08533	564
3.08900	562
3.09267	564
3.09633	564
3.10000	563
3.10367	564
3.10733	562
3.11100	559
3.11467	557
3.11833	556
3.12200	556
3.12567	558
3.12933	562
3.13300	566
3.13667	567
3.14033	567
3.14400	566
3.14767	568
3.15133	571
3.15500	575
3.15867	579
3.16233	584
3.16600	588
3.16967	589
3.17333	591
3.17700	592
3.18067	594
3.18433	595
3.18800	598
3.19167	602
3.19533	606
3.19900	609
3.20267	612
3.20633	612
3.21000	611
3.21367	609
3.21733	610
3.22100	615
3.22467	618
3.22833	620
3.23200	623
3.23567	623
3.23933	623
3.24300	624
3.24667	624
3.25033	622
3.25400	620
3.25767	622
3.26133	623
3.26500	624
3.26867	624
3.27233	623
3.27600	622
3.27967	618
3.28333	614
3.28700	611
3.29067	609
3.29433	607
3.29800	605
3.30167	604
3.30533	605
3.30900	603
3.31267	601
3.31633	598
3.32000	595
3.32367	593
3.32733	591
3.33100	589
3.33467	586
3.33833	583
3.34200	581
3.34567	577
3.34933	576
3.35300	576
3.35667	572
3.36033	568
3.36400	565
3.36767	562
3.37133	558
3.37500	554
3.37867	550
3.38233	548
3.38600	549
3.38967	551
3.39333	549
3.39700	543
3.40067	539
3.40433	536
3.40800	534
3.41167	532
3.41533	531
3.41900	530
3.42267	529
3.42633	530
3.43000	528
3.43367	525
3.43733	522
3.44100	517
3.44467	513
3.44833	510
3.45200	507
3.45567	506
3.45933	505
3.46300	505
3.46667	503
3.47033	499
3.47400	496
3.47767	493
3.48133	492
3.48500	491
3.48867	490
3.49233	488
3.49600	486
3.49967	482
3.50333	481
3.50700	481
3.51067	480
3.51433	478
3.51800	475
3.52167	472
3.52533	472
3.52900	472
3.53267	471
3.53633	470
3.54000	468
3.54367	468
3.54733	467
3.55100	465
3.55467	462
3.55833	460
3.56200	458
3.56567	457
3.56933	454
3.57300	449
3.57667	446
3.58033	444
3.58400	442
3.58767	441
3.59133	441
3.59500	441
3.59867	440
3.60233	439
3.60600	438
3.60967	436
3.61333	434
3.61700	432
3.62067	431
3.62433	429
3.62800	426
3.63167	424
3.63533	422
3.63900	421
3.64267	421
3.64633	419
3.65000	417
3.65367	414
3.65733	413
3.66100	412
3.66467	412
3.66833	411
3.67200	408
3.67567	404
3.67933	401
3.68300	396
3.68667	393
3.69033	392
3.69400	393
3.69767	392
3.70133	390
3.70500	388
3.70867	387
3.71233	387
3.71600	386
3.71967	383
3.72333	381
3.72700	379
3.73067	378
3.73433	377
3.73800	375
3.74167	373
3.74533	369
3.74900	370
3.75267	374
3.75633	374
3.76000	369
3.76367	366
3.76733	367
3.77100	367
3.77467	365
3.77833	362
3.78200	360
3.78567	363
3.78933	364
3.79300	362
3.79667	361
3.80033	360
3.80400	360
3.80767	362
3.81133	362
3.81500	360
3.81867	358
3.82233	356
3.82600	356
3.82967	357
3.83333	357
3.83700	357
3.84067	358
3.84433	360
3.84800	363
3.85167	364
3.85533	364
3.85900	364
3.86267	364
3.86633	363
3.87000	361
3.87367	359
3.87733	359
3.88100	361
3.88467	361
3.88833	363
3.89200	365
3.89567	365
3.89933	364
3.90300	361
3.90667	360
3.91033	359
3.91400	361
3.91767	363
3.92133	364
3.92500	363
3.92867	362
3.93233	361
3.93600	361
3.93967	362
3.94333	363
3.94700	364
3.95067	366
3.95433	365
3.95800	364
3.96167	364
3.96533	364
3.96900	366
3.97267	367
3.97633	368
3.98000	369
3.98367	371
3.98733	373
3.99100	375
3.99467	376
3.99833	377

[Status Trace (Column Oven Temperature)]
Interval(msec)	1000
# of Points	240
Start Time(min)	0.013
End Time(min)	3.996
Intensity Units	
Intensity Multiplier	1
R.Time (min)	Intensity
0.01298	35.05
0.02965	35.04
0.04632	35.03
0.06298	35.03
0.07965	35.03
0.09632	35.02
0.11298	35.02
0.12965	35.03
0.14632	35.02
0.16298	35.02
0.17965	35.03
0.19632	35.03
0.21298	35.04
0.22965	35.03
0.24632	35.03
0.26298	35.02
0.27965	35.03
0.29632	35.02
0.31298	35.02
0.32965	35.01
0.34632	35.01
0.36298	35.01
0.37965	35.02
0.39632	35.02
0.41298	35.02
0.42965	35.02
0.44632	35.02
0.46298	35.02
0.47965	35.02
0.49632	35.02
0.51298	35.01
0.52965	35.02
0.54632	35.01
0.56298	34.99
0.57965	34.98
0.59632	34.98
0.61298	34.97
0.62965	34.96
0.64632	34.96
0.66298	34.96
0.67965	34.97
0.69632	34.97
0.71298	34.99
0.72965	34.99
0.74632	35.00
0.76298	34.99
0.77965	35.00
0.79632	35.00
0.81298	35.01
0.82965	35.00
0.84632	34.98
0.86298	34.97
0.87965	34.98
0.89632	34.98
0.91298	34.99
0.92965	34.99
0.94632	34.99
0.96298	35.01
0.97965	35.00
0.99632	35.01
1.01298	35.01
1.02965	35.02
1.04632	35.02
1.06298	35.02
1.07965	35.01
1.09632	35.01
1.11298	35.02
1.12965	35.03
1.14632	35.03
1.16298	35.03
1.17965	35.02
1.19632	35.03
1.21298	35.02
1.22965	35.00
1.24632	35.01
1.26298	35.01
1.27965	35.01
1.29632	35.01
1.31298	35.01
1.32965	35.01
1.34632	35.01
1.36298	35.02
1.37965	35.02
1.39632	35.01
1.41298	35.02
1.42965	35.02
1.44632	35.02
1.46298	35.02
1.47965	35.01
1.49632	35.00
1.51298	34.99
1.52965	35.00
1.54632	35.00
1.56298	35.00
1.57965	35.00
1.59632	35.03
1.61298	35.11
1.62965	35.25
1.64632	35.44
1.66298	35.69
1.67965	36.03
1.69632	36.39
1.71298	36.75
1.72965	37.09
1.74632	37.43
1.76298	37.76
1.77965	38.10
1.79632	38.43
1.81298	38.74
1.82965	39.06
1.84632	39.41
1.86298	39.73
1.87965	40.06
1.89632	40.40
1.91298	40.71
1.92965	41.05
1.94632	41.37
1.96298	41.70
1.97965	42.02
1.99632	42.33
2.01298	42.66
2.02965	42.98
2.04632	43.30
2.06298	43.62
2.07965	43.96
2.09632	44.27
2.11298	44.59
2.12965	44.94
2.14632	45.25
2.16298	45.58
2.17965	45.92
2.19632	46.25
2.21298	46.58
2.22965	46.89
2.24632	47.28
2.26298	47.60
2.27965	47.92
2.29632	48.27
2.31298	48.60
2.32965	48.93
2.34632	49.25
2.36298	49.50
2.37965	49.62
2.39632	49.63
2.41298	49.64
2.42965	49.62
2.44632	49.65
2.46298	49.65
2.47965	49.66
2.49632	49.68
2.51298	49.69
2.52965	49.70
2.54632	49.71
2.56298	49.72
2.57965	49.73
2.59632	49.75
2.61298	49.77
2.62965	49.78
2.64632	49.80
2.66298	49.83
2.67965	49.83
2.69632	49.85
2.71298	49.87
2.72965	49.86
2.74632	49.84
2.76298	49.84
2.77965	49.87
2.79632	49.88
2.81298	49.88
2.82965	49.88
2.84632	49.87
2.86298	49.86
2.87965	49.86
2.89632	49.86
2.91298	49.86
2.92965	49.88
2.94632	49.90
2.96298	49.90
2.97965	49.91
2.99632	49.92
3.01298	49.94
3.02965	49.95
3.04632	49.96
3.06298	49.98
3.07965	50.00
3.09632	50.00
3.11298	50.02
3.12965	50.03
3.14632	50.03
3.16298	50.04
3.17965	50.05
3.19632	50.05
3.21298	50.05
3.22965	50.06
3.24632	50.06
3.26298	50.07
3.27965	50.08
3.29632	50.09
3.31298	50.11
3.32965	50.10
3.34632	50.10
3.36298	50.11
3.37965	50.11
3.39632	50.10
3.41298	50.09
3.42965	50.08
3.44632	50.07
3.46298	50.05
3.47965	50.05
3.49632	50.05
3.51298	50.05
3.52965	50.04
3.54632	50.04
3.56298	50.03
3.57965	50.03
3.59632	50.03
3.61298	50.04
3.62965	50.05
3.64632	50.04
3.66298	50.05
3.67965	50.05
3.69632	50.05
3.71298	50.06
3.72965	50.07
3.74632	50.07
3.76298	50.07
3.77965	50.06
3.79632	50.06
3.81298	50.05
3.82965	50.06
3.84632	50.06
3.86298	50.06
3.87965	50.06
3.89632	50.06
3.91298	50.06
3.92965	50.07
3.94632	50.07
3.96298	50.07
3.97965	50.07
3.99632	50.07

[Status Trace (Injection Unit Temperature)]
Interval(msec)	1000
# of Points	240
Start Time(min)	0.013
End Time(min)	3.996
Intensity Units	
Intensity Multiplier	1
R.Time (min)	Intensity
0.01298	99.98
0.02965	99.98
0.04632	99.98
0.06298	99.98
0.07965	99.98
0.09632	99.98
0.11298	99.99
0.12965	99.98
0.14632	99.98
0.16298	99.98
0.17965	99.98
0.19632	99.99
0.21298	99.98
0.22965	99.98
0.24632	99.99
0.26298	99.98
0.27965	99.99
0.29632	99.99
0.31298	99.99
0.32965	99.98
0.34632	99.99
0.36298	99.99
0.37965	99.99
0.39632	99.99
0.41298	99.99
0.42965	99.99
0.44632	99.99
0.46298	99.99
0.47965	99.99
0.49632	99.99
0.51298	99.99
0.52965	99.99
0.54632	99.98
0.56298	99.99
0.57965	99.98
0.59632	99.98
0.61298	99.99
0.62965	99.99
0.64632	99.99
0.66298	99.99
0.67965	99.99
0.69632	99.99
0.71298	99.99
0.72965	99.98
0.74632	99.98
0.76298	99.99
0.77965	99.98
0.79632	99.99
0.81298	99.99
0.82965	99.99
0.84632	99.99
0.86298	99.99
0.87965	99.98
0.89632	99.99
0.91298	99.99
0.92965	99.99
0.94632	99.99
0.96298	99.99
0.97965	99.98
0.99632	99.98
1.01298	99.98
1.02965	99.99
1.04632	99.98
1.06298	99.99
1.07965	99.98
1.09632	99.98
1.11298	99.99
1.12965	99.98
1.14632	99.98
1.16298	99.98
1.17965	99.99
1.19632	99.98
1.21298	99.98
1.22965	99.98
1.24632	99.98
1.26298	99.98
1.27965	99.98
1.29632	99.98
1.31298	99.98
1.32965	99.99
1.34632	99.98
1.36298	99.98
1.37965	99.98
1.39632	99.99
1.41298	99.98
1.42965	99.98
1.44632	99.99
1.46298	99.99
1.47965	99.98
1.49632	99.98
1.51298	99.99
1.52965	99.99
1.54632	99.99
1.56298	99.99
1.57965	99.99
1.59632	99.99
1.61298	99.99
1.62965	99.99
1.64632	99.98
1.66298	99.99
1.67965	99.99
1.69632	99.99
1.71298	99.99
1.72965	99.99
1.74632	99.99
1.76298	99.98
1.77965	99.99
1.79632	99.99
1.81298	99.99
1.82965	99.99
1.84632	99.99
1.86298	99.99
1.87965	99.99
1.89632	99.98
1.91298	99.99
1.92965	99.98
1.94632	99.99
1.96298	99.98
1.97965	99.98
1.99632	99.98
2.01298	99.98
2.02965	99.98
2.04632	99.98
2.06298	99.98
2.07965	99.98
2.09632	99.97
2.11298	99.98
2.12965	99.97
2.14632	99.97
2.16298	99.97
2.17965	99.97
2.19632	99.97
2.21298	99.97
2.22965	99.97
2.24632	99.97
2.26298	99.97
2.27965	99.97
2.29632	99.97
2.31298	99.97
2.32965	99.97
2.34632	99.97
2.36298	99.97
2.37965	99.96
2.39632	99.97
2.41298	99.96
2.42965	99.97
2.44632	99.97
2.46298	99.97
2.47965	99.97
2.49632	99.97
2.51298	99.96
2.52965	99.97
2.54632	99.98
2.56298	99.98
2.57965	99.98
2.59632	99.98
2.61298	99.98
2.62965	99.98
2.64632	99.98
2.66298	99.98
2.67965	99.98
2.69632	99.98
2.71298	99.99
2.72965	99.99
2.74632	99.99
2.76298	99.99
2.77965	99.99
2.79632	100.00
2.81298	100.00
2.82965	100.00
2.84632	100.00
2.86298	100.00
2.87965	100.00
2.89632	100.00
2.91298	100.01
2.92965	100.01
2.94632	100.01
2.96298	100.01
2.97965	100.02
2.99632	100.02
3.01298	100.02
3.02965	100.02
3.04632	100.02
3.06298	100.02
3.07965	100.02
3.09632	100.03
3.11298	100.03
3.12965	100.03
3.14632	100.03
3.16298	100.03
3.17965	100.03
3.19632	100.04
3.21298	100.03
3.22965	100.03
3.24632	100.04
3.26298	100.04
3.27965	100.04
3.29632	100.04
3.31298	100.04
3.32965	100.04
3.34632	100.04
3.36298	100.04
3.37965	100.04
3.39632	100.04
3.41298	100.05
3.42965	100.04
3.44632	100.04
3.46298	100.05
3.47965	100.05
3.49632	100.05
3.51298	100.05
3.52965	100.05
3.54632	100.05
3.56298	100.05
3.57965	100.05
3.59632	100.05
3.61298	100.05
3.62965	100.06
3.64632	100.05
3.66298	100.05
3.67965	100.05
3.69632	100.05
3.71298	100.05
3.72965	100.05
3.74632	100.05
3.76298	100.05
3.77965	100.05
3.79632	100.05
3.81298	100.05
3.82965	100.05
3.84632	100.05
3.86298	100.05
3.87965	100.05
3.89632	100.05
3.91298	100.05
3.92965	100.05
3.94632	100.04
3.96298	100.05
3.97965	100.05
3.99632	100.05

[Status Trace (Carrier Gas Pressure)]
Interval(msec)	1000
# of Points	240
Start Time(min)	0.013
End Time(min)	3.996
Intensity Units	
Intensity Multiplier	1
R.Time (min)	Intensity
0.01298	57.97
0.02965	55.08
0.04632	57.81
0.06298	59.73
0.07965	58.86
0.09632	57.99
0.11298	57.99
0.12965	58.01
0.14632	58.01
0.16298	58.00
0.17965	58.00
0.19632	58.00
0.21298	58.00
0.22965	58.00
0.24632	58.00
0.26298	58.00
0.27965	58.00
0.29632	58.00
0.31298	58.00
0.32965	58.00
0.34632	58.00
0.36298	58.00
0.37965	58.00
0.39632	58.00
0.41298	58.00
0.42965	58.00
0.44632	58.00
0.46298	58.00
0.47965	58.00
0.49632	58.00
0.51298	58.00
0.52965	58.00
0.54632	58.00
0.56298	58.00
0.57965	58.00
0.59632	58.00
0.61298	58.00
0.62965	58.00
0.64632	58.00
0.66298	58.00
0.67965	58.00
0.69632	58.00
0.71298	58.00
0.72965	58.00
0.74632	58.00
0.76298	58.00
0.77965	58.00
0.79632	58.00
0.81298	58.00
0.82965	58.00
0.84632	58.00
0.86298	58.00
0.87965	58.00
0.89632	58.00
0.91298	58.00
0.92965	58.00
0.94632	58.00
0.96298	58.00
0.97965	58.00
0.99632	58.00
1.01298	58.00
1.02965	58.00
1.04632	58.00
1.06298	58.00
1.07965	58.00
1.09632	58.00
1.11298	58.00
1.12965	58.00
1.14632	58.00
1.16298	58.00
1.17965	58.00
1.19632	58.00
1.21298	58.00
1.22965	58.00
1.24632	58.00
1.26298	58.00
1.27965	58.00
1.29632	58.00
1.31298	58.00
1.32965	58.00
1.34632	58.00
1.36298	58.00
1.37965	58.00
1.39632	58.00
1.41298	58.00
1.42965	58.00
1.44632	58.00
1.46298	58.00
1.47965	58.00
1.49632	58.00
1.51298	58.00
1.52965	58.00
1.54632	58.00
1.56298	58.00
1.57965	58.00
1.59632	58.00
1.61298	58.00
1.62965	58.00
1.64632	58.00
1.66298	58.00
1.67965	58.01
1.69632	58.00
1.71298	58.00
1.72965	58.00
1.74632	58.00
1.76298	58.00
1.77965	58.00
1.79632	58.00
1.81298	58.00
1.82965	58.00
1.84632	58.00
1.86298	58.00
1.87965	58.00
1.89632	58.00
1.91298	58.00
1.92965	58.00
1.94632	58.00
1.96298	58.00
1.97965	58.00
1.99632	58.00
2.01298	58.00
2.02965	58.00
2.04632	58.00
2.06298	58.00
2.07965	58.00
2.09632	58.00
2.11298	58.00
2.12965	58.00
2.14632	58.00
2.16298	58.00
2.17965	58.00
2.19632	58.00
2.21298	58.00
2.22965	58.00
2.24632	58.00
2.26298	58.00
2.27965	58.00
2.29632	58.00
2.31298	58.00
2.32965	58.00
2.34632	58.00
2.36298	58.00
2.37965	57.99
2.39632	57.99
2.41298	58.00
2.42965	58.00
2.44632	58.00
2.46298	58.00
2.47965	58.00
2.49632	58.00
2.51298	58.00
2.52965	57.99
2.54632	58.00
2.56298	58.00
2.57965	58.00
2.59632	58.00
2.61298	58.00
2.62965	58.00
2.64632	58.00
2.66298	58.00
2.67965	58.00
2.69632	58.00
2.71298	58.00
2.72965	58.00
2.74632	58.00
2.76298	58.00
2.77965	58.00
2.79632	58.00
2.81298	58.00
2.82965	58.00
2.84632	58.00
2.86298	58.00
2.87965	58.00
2.89632	58.00
2.91298	58.00
2.92965	58.00
2.94632	58.00
2.96298	58.00
2.97965	58.00
2.99632	58.00
3.01298	58.00
3.02965	58.00
3.04632	58.00
3.06298	58.00
3.07965	58.00
3.09632	58.00
3.11298	58.00
3.12965	58.00
3.14632	58.00
3.16298	58.00
3.17965	58.00
3.19632	58.00
3.21298	58.00
3.22965	58.00
3.24632	58.00
3.26298	58.00
3.27965	58.00
3.29632	58.00
3.31298	58.00
3.32965	58.00
3.34632	58.00
3.36298	58.00
3.37965	58.00
3.39632	58.00
3.41298	58.00
3.42965	58.00
3.44632	58.00
3.46298	58.00
3.47965	58.00
3.49632	58.00
3.51298	58.00
3.52965	58.00
3.54632	58.00
3.56298	58.00
3.57965	58.00
3.59632	58.00
3.61298	58.00
3.62965	58.00
3.64632	58.00
3.66298	58.00
3.67965	58.00
3.69632	58.00
3.71298	58.00
3.72965	58.00
3.74632	58.00
3.76298	58.00
3.77965	58.00
3.79632	58.00
3.81298	58.00
3.82965	58.00
3.84632	58.00
3.86298	58.00
3.87965	58.00
3.89632	58.00
3.91298	58.00
3.92965	58.00
3.94632	58.00
3.96298	58.00
3.97965	58.00
3.99632	58.00

[Status Trace (Carrier Gas Flow)]
Interval(msec)	1000
# of Points	240
Start Time(min)	0.013
End Time(min)	3.996
Intensity Units	
Intensity Multiplier	1
R.Time (min)	Intensity
0.01298	34.60
0.02965	34.54
0.04632	34.55
0.06298	34.53
0.07965	34.50
0.09632	34.52
0.11298	34.52
0.12965	34.52
0.14632	34.52
0.16298	34.52
0.17965	34.52
0.19632	34.52
0.21298	34.52
0.22965	34.51
0.24632	34.52
0.26298	34.52
0.27965	34.53
0.29632	34.51
0.31298	34.52
0.32965	34.52
0.34632	34.52
0.36298	34.52
0.37965	34.52
0.39632	34.52
0.41298	34.51
0.42965	34.52
0.44632	34.52
0.46298	34.52
0.47965	34.52
0.49632	34.52
0.51298	34.52
0.52965	34.52
0.54632	34.52
0.56298	34.52
0.57965	34.52
0.59632	34.52
0.61298	34.52
0.62965	34.52
0.64632	34.52
0.66298	34.52
0.67965	34.52
0.69632	34.52
0.71298	34.51
0.72965	34.52
0.74632	34.52
0.76298	34.51
0.77965	34.52
0.79632	34.52
0.81298	34.52
0.82965	34.52
0.84632	34.52
0.86298	34.53
0.87965	34.52
0.89632	34.51
0.91298	34.52
0.92965	34.52
0.94632	34.51
0.96298	34.52
0.97965	34.53
0.99632	34.52
1.01298	34.52
1.02965	34.52
1.04632	34.52
1.06298	34.52
1.07965	34.52
1.09632	34.52
1.11298	34.52
1.12965	34.51
1.14632	34.53
1.16298	34.51
1.17965	34.52
1.19632	34.51
1.21298	34.52
1.22965	34.52
1.24632	34.52
1.26298	34.51
1.27965	34.52
1.29632	34.53
1.31298	34.52
1.32965	34.52
1.34632	34.52
1.36298	34.52
1.37965	34.51
1.39632	34.52
1.41298	34.52
1.42965	34.52
1.44632	34.52
1.46298	34.51
1.47965	34.51
1.49632	34.52
1.51298	34.53
1.52965	34.51
1.54632	34.52
1.56298	34.52
1.57965	34.51
1.59632	34.52
1.61298	34.52
1.62965	34.52
1.64632	34.52
1.66298	34.52
1.67965	34.51
1.69632	34.52
1.71298	34.52
1.72965	34.52
1.74632	34.52
1.76298	34.52
1.77965	34.52
1.79632	34.52
1.81298	34.51
1.82965	34.52
1.84632	34.52
1.86298	34.52
1.87965	34.51
1.89632	34.52
1.91298	34.52
1.92965	34.52
1.94632	34.52
1.96298	34.52
1.97965	34.52
1.99632	34.52
2.01298	34.52
2.02965	34.52
2.04632	34.52
2.06298	34.52
2.07965	34.52
2.09632	34.52
2.11298	34.52
2.12965	34.53
2.14632	34.52
2.16298	34.52
2.17965	34.52
2.19632	34.52
2.21298	34.52
2.22965	34.52
2.24632	34.52
2.26298	34.52
2.27965	34.52
2.29632	34.52
2.31298	34.52
2.32965	34.52
2.34632	34.52
2.36298	34.52
2.37965	34.52
2.39632	34.52
2.41298	34.52
2.42965	34.52
2.44632	34.52
2.46298	34.51
2.47965	34.52
2.49632	34.52
2.51298	34.52
2.52965	34.52
2.54632	34.52
2.56298	34.51
2.57965	34.51
2.59632	34.52
2.61298	34.53
2.62965	34.52
2.64632	34.52
2.66298	34.53
2.67965	34.51
2.69632	34.52
2.71298	34.52
2.72965	34.52
2.74632	34.52
2.76298	34.52
2.77965	34.52
2.79632	34.53
2.81298	34.52
2.82965	34.52
2.84632	34.52
2.86298	34.51
2.87965	34.52
2.89632	34.52
2.91298	34.52
2.92965	34.52
2.94632	34.52
2.96298	34.52
2.97965	34.52
2.99632	34.52
3.01298	34.52
3.02965	34.52
3.04632	34.51
3.06298	34.52
3.07965	34.52
3.09632	34.52
3.11298	34.52
3.12965	34.52
3.14632	34.52
3.16298	34.52
3.17965	34.52
3.19632	34.52
3.21298	34.52
3.22965	34.52
3.24632	34.52
3.26298	34.52
3.27965	34.52
3.29632	34.52
3.31298	34.52
3.32965	34.52
3.34632	34.52
3.36298	34.52
3.37965	34.52
3.39632	34.52
3.41298	34.52
3.42965	34.53
3.44632	34.52
3.46298	34.52
3.47965	34.52
3.49632	34.52
3.51298	34.52
3.52965	34.52
3.54632	34.52
3.56298	34.51
3.57965	34.52
3.59632	34.52
3.61298	34.52
3.62965	34.51
3.64632	34.52
3.66298	34.52
3.67965	34.52
3.69632	34.52
3.71298	34.52
3.72965	34.52
3.74632	34.52
3.76298	34.53
3.77965	34.52
3.79632	34.51
3.81298	34.52
3.82965	34.52
3.84632	34.52
3.86298	34.52
3.87965	34.52
3.89632	34.52
3.91298	34.52
3.92965	34.52
3.94632	34.52
3.96298	34.52
3.97965	34.52
3.99632	34.52

[Status Trace (Column Flow)]
Interval(msec)	1000
# of Points	240
Start Time(min)	0.013
End Time(min)	3.996
Intensity Units	
Intensity Multiplier	1
R.Time (min)	Intensity
0.01298	5.49
0.02965	5.16
0.04632	5.47
0.06298	5.70
0.07965	5.60
0.09632	5.49
0.11298	5.50
0.12965	5.50
0.14632	5.50
0.16298	5.50
0.17965	5.50
0.19632	5.50
0.21298	5.50
0.22965	5.50
0.24632	5.50
0.26298	5.50
0.27965	5.50
0.29632	5.50
0.31298	5.50
0.32965	5.50
0.34632	5.50
0.36298	5.50
0.37965	5.50
0.39632	5.50
0.41298	5.50
0.42965	5.50
0.44632	5.50
0.46298	5.50
0.47965	5.50
0.49632	5.50
0.51298	5.50
0.52965	5.50
0.54632	5.50
0.56298	5.50
0.57965	5.50
0.59632	5.50
0.61298	5.50
0.62965	5.50
0.64632	5.50
0.66298	5.50
0.67965	5.50
0.69632	5.50
0.71298	5.50
0.72965	5.50
0.74632	5.50
0.76298	5.50
0.77965	5.50
0.79632	5.50
0.81298	5.50
0.82965	5.50
0.84632	5.50
0.86298	5.50
0.87965	5.50
0.89632	5.50
0.91298	5.50
0.92965	5.50
0.94632	5.50
0.96298	5.50
0.97965	5.50
0.99632	5.50
1.01298	5.50
1.02965	5.50
1.04632	5.50
1.06298	5.50
1.07965	5.50
1.09632	5.50
1.11298	5.50
1.12965	5.50
1.14632	5.50
1.16298	5.50
1.17965	5.50
1.19632	5.50
1.21298	5.50
1.22965	5.50
1.24632	5.50
1.26298	5.50
1.27965	5.50
1.29632	5.50
1.31298	5.50
1.32965	5.50
1.34632	5.50
1.36298	5.50
1.37965	5.50
1.39632	5.50
1.41298	5.50
1.42965	5.50
1.44632	5.50
1.46298	5.50
1.47965	5.50
1.49632	5.50
1.51298	5.50
1.52965	5.50
1.54632	5.50
1.56298	5.50
1.57965	5.50
1.59632	5.50
1.61298	5.49
1.62965	5.49
1.64632	5.48
1.66298	5.48
1.67965	5.47
1.69632	5.45
1.71298	5.44
1.72965	5.43
1.74632	5.42
1.76298	5.41
1.77965	5.40
1.79632	5.39
1.81298	5.38
1.82965	5.37
1.84632	5.36
1.86298	5.35
1.87965	5.34
1.89632	5.33
1.91298	5.32
1.92965	5.31
1.94632	5.30
1.96298	5.29
1.97965	5.28
1.99632	5.27
2.01298	5.26
2.02965	5.25
2.04632	5.25
2.06298	5.24
2.07965	5.23
2.09632	5.22
2.11298	5.21
2.12965	5.20
2.14632	5.19
2.16298	5.18
2.17965	5.17
2.19632	5.16
2.21298	5.15
2.22965	5.14
2.24632	5.13
2.26298	5.12
2.27965	5.11
2.29632	5.10
2.31298	5.09
2.32965	5.09
2.34632	5.08
2.36298	5.07
2.37965	5.07
2.39632	5.06
2.41298	5.07
2.42965	5.07
2.44632	5.07
2.46298	5.07
2.47965	5.06
2.49632	5.06
2.51298	5.06
2.52965	5.06
2.54632	5.06
2.56298	5.06
2.57965	5.06
2.59632	5.06
2.61298	5.06
2.62965	5.06
2.64632	5.06
2.66298	5.06
2.67965	5.06
2.69632	5.06
2.71298	5.06
2.72965	5.06
2.74632	5.06
2.76298	5.06
2.77965	5.06
2.79632	5.06
2.81298	5.06
2.82965	5.06
2.84632	5.06
2.86298	5.06
2.87965	5.06
2.89632	5.06
2.91298	5.06
2.92965	5.06
2.94632	5.06
2.96298	5.06
2.97965	5.06
2.99632	5.06
3.01298	5.06
3.02965	5.06
3.04632	5.06
3.06298	5.06
3.07965	5.06
3.09632	5.06
3.11298	5.06
3.12965	5.05
3.14632	5.05
3.16298	5.05
3.17965	5.05
3.19632	5.05
3.21298	5.05
3.22965	5.05
3.24632	5.05
3.26298	5.05
3.27965	5.05
3.29632	5.05
3.31298	5.05
3.32965	5.05
3.34632	5.05
3.36298	5.05
3.37965	5.05
3.39632	5.05
3.41298	5.05
3.42965	5.05
3.44632	5.05
3.46298	5.05
3.47965	5.05
3.49632	5.05
3.51298	5.05
3.52965	5.05
3.54632	5.05
3.56298	5.05
3.57965	5.05
3.59632	5.05
3.61298	5.05
3.62965	5.05
3.64632	5.05
3.66298	5.05
3.67965	5.05
3.69632	5.05
3.71298	5.05
3.72965	5.05
3.74632	5.05
3.76298	5.05
3.77965	5.05
3.79632	5.05
3.81298	5.05
3.82965	5.05
3.84632	5.05
3.86298	5.05
3.87965	5.05
3.89632	5.05
3.91298	5.05
3.92965	5.05
3.94632	5.05
3.96298	5.05
3.97965	5.05
3.99632	5.05

[Status Trace (Linear Velocity)]
Interval(msec)	1000
# of Points	240
Start Time(min)	0.013
End Time(min)	3.996
Intensity Units	
Intensity Multiplier	1
R.Time (min)	Intensity
0.01298	38.99
0.02965	37.09
0.04632	38.88
0.06298	40.14
0.07965	39.57
0.09632	39.00
0.11298	39.00
0.12965	39.02
0.14632	39.01
0.16298	39.01
0.17965	39.01
0.19632	39.01
0.21298	39.01
0.22965	39.01
0.24632	39.01
0.26298	39.01
0.27965	39.01
0.29632	39.01
0.31298	39.01
0.32965	39.01
0.34632	39.01
0.36298	39.01
0.37965	39.01
0.39632	39.01
0.41298	39.01
0.42965	39.01
0.44632	39.01
0.46298	39.01
0.47965	39.01
0.49632	39.01
0.51298	39.01
0.52965	39.01
0.54632	39.01
0.56298	39.01
0.57965	39.01
0.59632	39.01
0.61298	39.01
0.62965	39.01
0.64632	39.01
0.66298	39.02
0.67965	39.01
0.69632	39.01
0.71298	39.01
0.72965	39.01
0.74632	39.01
0.76298	39.01
0.77965	39.01
0.79632	39.01
0.81298	39.01
0.82965	39.01
0.84632	39.01
0.86298	39.01
0.87965	39.01
0.89632	39.01
0.91298	39.01
0.92965	39.01
0.94632	39.01
0.96298	39.01
0.97965	39.01
0.99632	39.01
1.01298	39.01
1.02965	39.01
1.04632	39.01
1.06298	39.01
1.07965	39.01
1.09632	39.01
1.11298	39.01
1.12965	39.01
1.14632	39.01
1.16298	39.01
1.17965	39.01
1.19632	39.01
1.21298	39.01
1.22965	39.01
1.24632	39.01
1.26298	39.01
1.27965	39.01
1.29632	39.01
1.31298	39.01
1.32965	39.01
1.34632	39.01
1.36298	39.01
1.37965	39.01
1.39632	39.01
1.41298	39.01
1.42965	39.01
1.44632	39.01
1.46298	39.01
1.47965	39.01
1.49632	39.01
1.51298	39.01
1.52965	39.01
1.54632	39.01
1.56298	39.01
1.57965	39.01
1.59632	39.01
1.61298	39.00
1.62965	38.99
1.64632	38.97
1.66298	38.95
1.67965	38.92
1.69632	38.88
1.71298	38.84
1.72965	38.81
1.74632	38.78
1.76298	38.75
1.77965	38.72
1.79632	38.68
1.81298	38.65
1.82965	38.62
1.84632	38.59
1.86298	38.56
1.87965	38.53
1.89632	38.50
1.91298	38.47
1.92965	38.44
1.94632	38.41
1.96298	38.38
1.97965	38.35
1.99632	38.32
2.01298	38.29
2.02965	38.26
2.04632	38.23
2.06298	38.20
2.07965	38.17
2.09632	38.14
2.11298	38.11
2.12965	38.08
2.14632	38.05
2.16298	38.02
2.17965	37.99
2.19632	37.96
2.21298	37.93
2.22965	37.90
2.24632	37.87
2.26298	37.84
2.27965	37.81
2.29632	37.78
2.31298	37.75
2.32965	37.72
2.34632	37.69
2.36298	37.67
2.37965	37.66
2.39632	37.65
2.41298	37.66
2.42965	37.66
2.44632	37.66
2.46298	37.66
2.47965	37.66
2.49632	37.66
2.51298	37.65
2.52965	37.65
2.54632	37.65
2.56298	37.65
2.57965	37.65
2.59632	37.65
2.61298	37.65
2.62965	37.65
2.64632	37.64
2.66298	37.64
2.67965	37.64
2.69632	37.64
2.71298	37.64
2.72965	37.64
2.74632	37.64
2.76298	37.64
2.77965	37.64
2.79632	37.64
2.81298	37.64
2.82965	37.64
2.84632	37.64
2.86298	37.64
2.87965	37.64
2.89632	37.64
2.91298	37.64
2.92965	37.64
2.94632	37.64
2.96298	37.64
2.97965	37.63
2.99632	37.63
3.01298	37.63
3.02965	37.63
3.04632	37.63
3.06298	37.63
3.07965	37.63
3.09632	37.63
3.11298	37.63
3.12965	37.62
3.14632	37.62
3.16298	37.62
3.17965	37.62
3.19632	37.62
3.21298	37.62
3.22965	37.62
3.24632	37.62
3.26298	37.62
3.27965	37.62
3.29632	37.62
3.31298	37.62
3.32965	37.62
3.34632	37.62
3.36298	37.62
3.37965	37.62
3.39632	37.62
3.41298	37.62
3.42965	37.62
3.44632	37.62
3.46298	37.62
3.47965	37.62
3.49632	37.62
3.51298	37.62
3.52965	37.62
3.54632	37.62
3.56298	37.62
3.57965	37.62
3.59632	37.62
3.61298	37.62
3.62965	37.62
3.64632	37.62
3.66298	37.62
3.67965	37.62
3.69632	37.62
3.71298	37.62
3.72965	37.62
3.74632	37.62
3.76298	37.62
3.77965	37.62
3.79632	37.62
3.81298	37.62
3.82965	37.62
3.84632	37.62
3.86298	37.62
3.87965	37.62
3.89632	37.62
3.91298	37.62
3.92965	37.62
3.94632	37.62
3.96298	37.62
3.97965	37.62
3.99632	37.62

