[Header]
Application Name	LabSolutions
Version	5.110
Data File Name	C:\Users\User\Desktop\Junior\UIC Prairie Sampling\6.15.23\06152023_095.gcd
Output Date	6/26/2023
Output Time	12:05:13 PM

[File Information]
Type	Data File
Generated	6/23/2023 10:31:56 PM
Generated by	System Administrator
Modified	6/23/2023 10:39:26 PM
Modified by	System Administrator

[Sample Information]
Operator Name	System Administrator
Acquired	6/23/2023 10:35:25 PM
Sample Type	0:Unknown
Level	0
Sample Name	095
Sample ID	095
ISTD Amount1	1
ISTD Amount2	1
ISTD Amount3	1
ISTD Amount4	1
ISTD Amount5	1
ISTD Amount6	1
ISTD Amount7	1
ISTD Amount8	1
ISTD Amount9	1
ISTD Amount10	1
ISTD Amount11	1
ISTD Amount12	1
ISTD Amount13	1
ISTD Amount14	1
ISTD Amount15	1
ISTD Amount16	1
ISTD Amount17	1
ISTD Amount18	1
ISTD Amount19	1
ISTD Amount20	1
ISTD Amount21	1
ISTD Amount22	1
ISTD Amount23	1
ISTD Amount24	1
ISTD Amount25	1
ISTD Amount26	1
ISTD Amount27	1
ISTD Amount28	1
ISTD Amount29	1
ISTD Amount30	1
ISTD Amount31	1
ISTD Amount32	1
Sample Amount	1
Dilution Factor	1
Vial#	94
Injection Volume	1
Injection Count	1
Bar Code	

[Original Files]
Data File	C:\Users\User\Desktop\Junior\UIC Prairie Sampling\6.15.23\06152023_095.gcd
Method File	C:\LabSolutions\Data\GHG_4min_2022\ghg3_togas_w_acet_4 min_new_int.gcm
Batch File	C:\LabSolutions\Data\AutoSamplerTesting\06152023.gcb
Report Format File	c:\LabSolutions\System\DEFAULT.lsr

[File Description]


[Configuration]
Instrument Name	C0B7VH3-Instrument1
Instrument #	1
Line #	1
# of Detectors	3
Detector ID	DET#1	DET#2	DET#3
Detector Name	FID	PTCD	ECD
# of Channels	1	1	1

[Peak Table(Ch1)]
# of Peaks	3
Peak#	R.Time	I.Time	F.Time	Area	Height	A/H	Conc.	Mark	ID#	Name	k'	Plate #	Plate Ht.	Tailing	Resolution	Sep.Factor	Area Ratio	Height Ratio	Conc. %	Norm Conc.
1	1.472	1.428	1.527	5029	2461	2.044	0.000	   	1	CO	0.000	9673	15.507	1.314	0.000	0.000	0	0	0.000	0.000
2	1.564	1.527	1.630	4197	2097	2.002	20.460	 V 	2	CH4	0.062	11405	13.152	1.127	1.548	0.000	0	0	3.683	3.683
3	1.989	1.941	2.752	2776312	1322304	2.100	535.046	   	3	CO2	0.351	17563	8.541	1.255	7.173	5.640	0	0	96.317	96.317

[Peak Table(Ch2)]
# of Peaks	0

[Peak Table(Ch3)]
# of Peaks	4
Peak#	R.Time	I.Time	F.Time	Area	Height	A/H	Conc.	Mark	ID#	Name	k'	Plate #	Plate Ht.	Tailing	Resolution	Sep.Factor	Area Ratio	Height Ratio	Conc. %	Norm Conc.
1	2.499	2.396	2.532	3861	866	4.459	0.000	   			0.000	1319	113.696	0.000	0.000	0.000	0	0	0.000	0.000
2	2.572	2.532	2.667	5665	813	6.970	0.000	 V 			0.029	205	732.600	0.000	0.148	0.000	0	0	0.000	0.000
3	2.715	2.667	2.810	5167	642	8.046	0.000	 V 			0.087	215	697.274	0.000	0.196	2.950	0	0	0.000	0.000
4	2.887	2.810	3.811	38706	5410	7.154	0.573	 V 	1	N2O	0.156	11492	13.052	0.000	0.406	1.797	0	0	100.000	100.000

[Compound Results(Ch1)]
# of IDs	6
ID#	Name	R.Time	Area	Height	Conc.	Curve	3rd	2nd	1st	Constant	Area Ratio	Height Ratio	Conc. %	Norm Conc.
1	CO	1.472	5029	2461	0.000	Linear	0.000000e+00	0.000000e+00	0.000000e+00	0.000000e+00	0	0	0.000	0.000
2	CH4	1.564	4197	2097	20.460	Linear	0.000000e+00	0.000000e+00	2.051179e+002	0.000000e+00	0	0	3.683	3.683
3	CO2	1.989	2776312	1322304	535.046	Linear	0.000000e+00	0.000000e+00	5.188919e+003	0.000000e+00	0	0	96.317	96.317
4	Ethylene	0.000	0	0	0.000	Linear	0.000000e+00	0.000000e+00	0.000000e+00	0.000000e+00	0	0	0.000	0.000
5	Acetylene	0.000	0	0	0.000	Linear	0.000000e+00	0.000000e+00	0.000000e+00	0.000000e+00	0	0	0.000	0.000
6	Ethane	0.000	0	0	0.000	Linear	0.000000e+00	0.000000e+00	0.000000e+00	0.000000e+00	0	0	0.000	0.000

[Compound Results(Ch2)]
# of IDs	5
ID#	Name	R.Time	Area	Height	Conc.	Curve	3rd	2nd	1st	Constant	Area Ratio	Height Ratio	Conc. %	Norm Conc.
1	Hydrogen	0.000	0	0	0.000	Linear	0.000000e+00	0.000000e+00	0.000000e+00	0.000000e+00	0	0	0.000	0.000
2	Oxygen	0.000	0	0	0.000	Linear	0.000000e+00	0.000000e+00	0.000000e+00	0.000000e+00	0	0	0.000	0.000
3	Nitrogen	0.000	0	0	0.000	Linear	0.000000e+00	0.000000e+00	0.000000e+00	0.000000e+00	0	0	0.000	0.000
4	Methane	0.000	0	0	0.000	Linear	0.000000e+00	0.000000e+00	0.000000e+00	0.000000e+00	0	0	0.000	0.000
5	Carbon Monoxide	0.000	0	0	0.000	Linear	0.000000e+00	0.000000e+00	0.000000e+00	0.000000e+00	0	0	0.000	0.000

[Compound Results(Ch3)]
# of IDs	2
ID#	Name	R.Time	Area	Height	Conc.	Curve	3rd	2nd	1st	Constant	Area Ratio	Height Ratio	Conc. %	Norm Conc.
1	N2O	2.887	38706	5410	0.573	Linear	0.000000e+00	0.000000e+00	6.759880e+004	0.000000e+00	0	0	100.000	100.000
2	SF6	0.000	0	0	0.000	Linear	0.000000e+00	0.000000e+00	0.000000e+00	0.000000e+00	0	0	0.000	0.000

[Group Results(Ch1)]
# of Groups	0

[Group Results(Ch2)]
# of Groups	0

[Group Results(Ch3)]
# of Groups	0

[Chromatogram (Ch1)]
Interval(msec)	220
# of Points	1091
Start Time(min)	0.002
End Time(min)	3.998
R.Time (min)	Intensity
0.00167	-6
0.00533	-10
0.00900	-11
0.01267	-13
0.01633	-18
0.02000	-24
0.02367	-32
0.02733	-39
0.03100	-41
0.03467	-44
0.03833	-44
0.04200	-41
0.04567	-34
0.04933	-29
0.05300	-29
0.05667	-33
0.06033	-38
0.06400	-42
0.06767	-45
0.07133	-46
0.07500	-44
0.07867	-40
0.08233	-36
0.08600	-33
0.08967	-29
0.09333	-24
0.09700	-18
0.10067	-15
0.10433	-13
0.10800	-9
0.11167	-0
0.11533	9
0.11900	12
0.12267	5
0.12633	-8
0.13000	-17
0.13367	-21
0.13733	-22
0.14100	-22
0.14467	-23
0.14833	-22
0.15200	-20
0.15567	-18
0.15933	-19
0.16300	-22
0.16667	-24
0.17033	-25
0.17400	-31
0.17767	-36
0.18133	-37
0.18500	-37
0.18867	-41
0.19233	-49
0.19600	-55
0.19967	-59
0.20333	-59
0.20700	-57
0.21067	-57
0.21433	-59
0.21800	-61
0.22167	-61
0.22533	-59
0.22900	-52
0.23267	-44
0.23633	-36
0.24000	-31
0.24367	-29
0.24733	-27
0.25100	-29
0.25467	-32
0.25833	-37
0.26200	-36
0.26567	-28
0.26933	-18
0.27300	-13
0.27667	-10
0.28033	-9
0.28400	-11
0.28767	-16
0.29133	-27
0.29500	-40
0.29867	-52
0.30233	-58
0.30600	-59
0.30967	-55
0.31333	-50
0.31700	-44
0.32067	-43
0.32433	-45
0.32800	-49
0.33167	-52
0.33533	-55
0.33900	-53
0.34267	-48
0.34633	-42
0.35000	-39
0.35367	-40
0.35733	-44
0.36100	-46
0.36467	-47
0.36833	-47
0.37200	-46
0.37567	-43
0.37933	-39
0.38300	-32
0.38667	-23
0.39033	-17
0.39400	-15
0.39767	-17
0.40133	-23
0.40500	-27
0.40867	-31
0.41233	-35
0.41600	-40
0.41967	-42
0.42333	-41
0.42700	-41
0.43067	-43
0.43433	-45
0.43800	-44
0.44167	-41
0.44533	-39
0.44900	-42
0.45267	-48
0.45633	-53
0.46000	-57
0.46367	-53
0.46733	-44
0.47100	-36
0.47467	-30
0.47833	-24
0.48200	-18
0.48567	-17
0.48933	-25
0.49300	-38
0.49667	-52
0.50033	-63
0.50400	-73
0.50767	-82
0.51133	-88
0.51500	-90
0.51867	-85
0.52233	-72
0.52600	-56
0.52967	-51
0.53333	-51
0.53700	-51
0.54067	-51
0.54433	-50
0.54800	-49
0.55167	-43
0.55533	-40
0.55900	-39
0.56267	-38
0.56633	-37
0.57000	-37
0.57367	-37
0.57733	-37
0.58100	-37
0.58467	-37
0.58833	-36
0.59200	-36
0.59567	-38
0.59933	-39
0.60300	-39
0.60667	-36
0.61033	-29
0.61400	-25
0.61767	-23
0.62133	-23
0.62500	-23
0.62867	-23
0.63233	-26
0.63600	-30
0.63967	-29
0.64333	-24
0.64700	-23
0.65067	-25
0.65433	-31
0.65800	-38
0.66167	-43
0.66533	-44
0.66900	-42
0.67267	-40
0.67633	-40
0.68000	-42
0.68367	-46
0.68733	-52
0.69100	-55
0.69467	-57
0.69833	-53
0.70200	-44
0.70567	-33
0.70933	-27
0.71300	-29
0.71667	-36
0.72033	-43
0.72400	-47
0.72767	-51
0.73133	-54
0.73500	-57
0.73867	-60
0.74233	-63
0.74600	-63
0.74967	-57
0.75333	-50
0.75700	-44
0.76067	-41
0.76433	-39
0.76800	-40
0.77167	-42
0.77533	-42
0.77900	-42
0.78267	-43
0.78633	-44
0.79000	-46
0.79367	-51
0.79733	-60
0.80100	-66
0.80467	-67
0.80833	-68
0.81200	-69
0.81567	-69
0.81933	-68
0.82300	-66
0.82667	-62
0.83033	-56
0.83400	-53
0.83767	-50
0.84133	-47
0.84500	-48
0.84867	-53
0.85233	-58
0.85600	-60
0.85967	-60
0.86333	-59
0.86700	-58
0.87067	-58
0.87433	-60
0.87800	-67
0.88167	-72
0.88533	-71
0.88900	-66
0.89267	-58
0.89633	-54
0.90000	-48
0.90367	-42
0.90733	-35
0.91100	-27
0.91467	-19
0.91833	-20
0.92200	-27
0.92567	-36
0.92933	-43
0.93300	-48
0.93667	-53
0.94033	-57
0.94400	-62
0.94767	-69
0.95133	-71
0.95500	-70
0.95867	-70
0.96233	-71
0.96600	-67
0.96967	-63
0.97333	-60
0.97700	-60
0.98067	-62
0.98433	-63
0.98800	-63
0.99167	-61
0.99533	-56
0.99900	-47
1.00267	-39
1.00633	-38
1.01000	-37
1.01367	-33
1.01733	-33
1.02100	-36
1.02467	-42
1.02833	-50
1.03200	-59
1.03567	-65
1.03933	-66
1.04300	-66
1.04667	-66
1.05033	-67
1.05400	-70
1.05767	-75
1.06133	-82
1.06500	-86
1.06867	-83
1.07233	-79
1.07600	-76
1.07967	-74
1.08333	-70
1.08700	-65
1.09067	-61
1.09433	-59
1.09800	-55
1.10167	-48
1.10533	-38
1.10900	-30
1.11267	-31
1.11633	-37
1.12000	-46
1.12367	-56
1.12733	-64
1.13100	-68
1.13467	-73
1.13833	-76
1.14200	-79
1.14567	-80
1.14933	-75
1.15300	-69
1.15667	-66
1.16033	-62
1.16400	-59
1.16767	-55
1.17133	-53
1.17500	-54
1.17867	-57
1.18233	-65
1.18600	-73
1.18967	-79
1.19333	-82
1.19700	-84
1.20067	-82
1.20433	-80
1.20800	-77
1.21167	-76
1.21533	-78
1.21900	-80
1.22267	-79
1.22633	-75
1.23000	-72
1.23367	-69
1.23733	-67
1.24100	-66
1.24467	-65
1.24833	-65
1.25200	-67
1.25567	-71
1.25933	-76
1.26300	-81
1.26667	-83
1.27033	-82
1.27400	-76
1.27767	-71
1.28133	-69
1.28500	-69
1.28867	-67
1.29233	-65
1.29600	-63
1.29967	-62
1.30333	-63
1.30700	-63
1.31067	-61
1.31433	-57
1.31800	-51
1.32167	-49
1.32533	-52
1.32900	-52
1.33267	-53
1.33633	-58
1.34000	-63
1.34367	-70
1.34733	-78
1.35100	-85
1.35467	-89
1.35833	-89
1.36200	-86
1.36567	-82
1.36933	-78
1.37300	-73
1.37667	-71
1.38033	-73
1.38400	-77
1.38767	-80
1.39133	-80
1.39500	-75
1.39867	-70
1.40233	-68
1.40600	-68
1.40967	-73
1.41333	-80
1.41700	-90
1.42067	-101
1.42433	-106
1.42800	-102
1.43167	-90
1.43533	-75
1.43900	-57
1.44267	-37
1.44633	48
1.45000	308
1.45367	739
1.45733	1228
1.46100	1682
1.46467	2046
1.46833	2285
1.47200	2363
1.47567	2257
1.47933	1993
1.48300	1637
1.48667	1266
1.49033	932
1.49400	659
1.49767	451
1.50133	300
1.50500	195
1.50867	120
1.51233	64
1.51600	25
1.51967	-3
1.52333	-21
1.52700	-33
1.53067	-33
1.53433	8
1.53800	146
1.54167	421
1.54533	806
1.54900	1218
1.55267	1580
1.55633	1850
1.56000	2002
1.56367	2008
1.56733	1852
1.57100	1567
1.57467	1225
1.57833	894
1.58200	618
1.58567	405
1.58933	248
1.59300	140
1.59667	69
1.60033	20
1.60400	-15
1.60767	-35
1.61133	-45
1.61500	-51
1.61867	-58
1.62233	-67
1.62600	-76
1.62967	-82
1.63333	-83
1.63700	-81
1.64067	-78
1.64433	-77
1.64800	-79
1.65167	-83
1.65533	-88
1.65900	-92
1.66267	-89
1.66633	-82
1.67000	-75
1.67367	-73
1.67733	-75
1.68100	-77
1.68467	-82
1.68833	-87
1.69200	-88
1.69567	-88
1.69933	-88
1.70300	-87
1.70667	-82
1.71033	-79
1.71400	-78
1.71767	-77
1.72133	-77
1.72500	-78
1.72867	-81
1.73233	-83
1.73600	-83
1.73967	-84
1.74333	-82
1.74700	-79
1.75067	-74
1.75433	-71
1.75800	-71
1.76167	-76
1.76533	-80
1.76900	-81
1.77267	-80
1.77633	-75
1.78000	-71
1.78367	-72
1.78733	-75
1.79100	-79
1.79467	-80
1.79833	-79
1.80200	-74
1.80567	-70
1.80933	-74
1.81300	-81
1.81667	-84
1.82033	-84
1.82400	-82
1.82767	-80
1.83133	-75
1.83500	-74
1.83867	-81
1.84233	-87
1.84600	-91
1.84967	-94
1.85333	-98
1.85700	-99
1.86067	-99
1.86433	-99
1.86800	-95
1.87167	-87
1.87533	-80
1.87900	-75
1.88267	-72
1.88633	-71
1.89000	-71
1.89367	-74
1.89733	-75
1.90100	-75
1.90467	-75
1.90833	-74
1.91200	-74
1.91567	-77
1.91933	-80
1.92300	-81
1.92667	-80
1.93033	-78
1.93400	-75
1.93767	-73
1.94133	-68
1.94500	-33
1.94867	229
1.95233	1833
1.95600	9204
1.95967	34675
1.96333	101640
1.96700	236104
1.97067	444285
1.97433	699498
1.97800	953959
1.98167	1161529
1.98533	1289630
1.98900	1322262
1.99267	1260828
1.99633	1123447
2.00000	940324
2.00367	744674
2.00733	563270
2.01100	411395
2.01467	293431
2.01833	206617
2.02200	145070
2.02567	102501
2.02933	73481
2.03300	53816
2.03667	40474
2.04033	31352
2.04400	25033
2.04767	20577
2.05133	17364
2.05500	14990
2.05867	13191
2.06233	11791
2.06600	10672
2.06967	9753
2.07333	8982
2.07700	8327
2.08067	7761
2.08433	7268
2.08800	6833
2.09167	6448
2.09533	6105
2.09900	5799
2.10267	5527
2.10633	5278
2.11000	5047
2.11367	4835
2.11733	4638
2.12100	4453
2.12467	4277
2.12833	4113
2.13200	3960
2.13567	3817
2.13933	3684
2.14300	3563
2.14667	3451
2.15033	3346
2.15400	3245
2.15767	3147
2.16133	3053
2.16500	2963
2.16867	2878
2.17233	2797
2.17600	2720
2.17967	2644
2.18333	2570
2.18700	2501
2.19067	2437
2.19433	2377
2.19800	2322
2.20167	2268
2.20533	2214
2.20900	2160
2.21267	2107
2.21633	2054
2.22000	2004
2.22367	1960
2.22733	1921
2.23100	1885
2.23467	1850
2.23833	1815
2.24200	1781
2.24567	1743
2.24933	1703
2.25300	1662
2.25667	1624
2.26033	1591
2.26400	1561
2.26767	1530
2.27133	1496
2.27500	1463
2.27867	1433
2.28233	1411
2.28600	1394
2.28967	1377
2.29333	1359
2.29700	1337
2.30067	1316
2.30433	1298
2.30800	1282
2.31167	1267
2.31533	1249
2.31900	1231
2.32267	1211
2.32633	1193
2.33000	1174
2.33367	1152
2.33733	1127
2.34100	1101
2.34467	1075
2.34833	1048
2.35200	1028
2.35567	1018
2.35933	1013
2.36300	1008
2.36667	1001
2.37033	990
2.37400	978
2.37767	962
2.38133	946
2.38500	932
2.38867	924
2.39233	920
2.39600	913
2.39967	903
2.40333	892
2.40700	882
2.41067	869
2.41433	856
2.41800	844
2.42167	834
2.42533	827
2.42900	821
2.43267	815
2.43633	809
2.44000	803
2.44367	797
2.44733	788
2.45100	778
2.45467	769
2.45833	760
2.46200	749
2.46567	738
2.46933	727
2.47300	719
2.47667	716
2.48033	711
2.48400	705
2.48767	698
2.49133	689
2.49500	678
2.49867	670
2.50233	663
2.50600	656
2.50967	648
2.51333	640
2.51700	630
2.52067	618
2.52433	609
2.52800	603
2.53167	601
2.53533	598
2.53900	592
2.54267	586
2.54633	579
2.55000	570
2.55367	561
2.55733	554
2.56100	549
2.56467	547
2.56833	547
2.57200	547
2.57567	545
2.57933	543
2.58300	542
2.58667	541
2.59033	535
2.59400	523
2.59767	512
2.60133	504
2.60500	499
2.60867	494
2.61233	488
2.61600	482
2.61967	476
2.62333	471
2.62700	468
2.63067	465
2.63433	460
2.63800	455
2.64167	452
2.64533	452
2.64900	453
2.65267	454
2.65633	454
2.66000	453
2.66367	449
2.66733	442
2.67100	434
2.67467	426
2.67833	422
2.68200	418
2.68567	415
2.68933	416
2.69300	418
2.69667	420
2.70033	421
2.70400	420
2.70767	418
2.71133	416
2.71500	410
2.71867	399
2.72233	388
2.72600	380
2.72967	375
2.73333	375
2.73700	377
2.74067	378
2.74433	378
2.74800	376
2.75167	374
2.75533	369
2.75900	367
2.76267	367
2.76633	366
2.77000	363
2.77367	361
2.77733	363
2.78100	366
2.78467	366
2.78833	362
2.79200	357
2.79567	352
2.79933	342
2.80300	331
2.80667	321
2.81033	311
2.81400	302
2.81767	295
2.82133	289
2.82500	285
2.82867	286
2.83233	292
2.83600	301
2.83967	310
2.84333	316
2.84700	320
2.85067	320
2.85433	316
2.85800	309
2.86167	303
2.86533	298
2.86900	297
2.87267	301
2.87633	303
2.88000	307
2.88367	308
2.88733	304
2.89100	298
2.89467	295
2.89833	294
2.90200	292
2.90567	290
2.90933	288
2.91300	286
2.91667	282
2.92033	276
2.92400	269
2.92767	264
2.93133	265
2.93500	268
2.93867	269
2.94233	272
2.94600	276
2.94967	281
2.95333	283
2.95700	279
2.96067	274
2.96433	269
2.96800	265
2.97167	261
2.97533	258
2.97900	259
2.98267	262
2.98633	267
2.99000	269
2.99367	270
2.99733	269
3.00100	265
3.00467	259
3.00833	250
3.01200	244
3.01567	242
3.01933	241
3.02300	243
3.02667	242
3.03033	237
3.03400	233
3.03767	227
3.04133	225
3.04500	228
3.04867	232
3.05233	232
3.05600	231
3.05967	235
3.06333	238
3.06700	238
3.07067	235
3.07433	229
3.07800	221
3.08167	210
3.08533	201
3.08900	197
3.09267	200
3.09633	207
3.10000	212
3.10367	217
3.10733	222
3.11100	225
3.11467	224
3.11833	218
3.12200	212
3.12567	206
3.12933	202
3.13300	197
3.13667	194
3.14033	194
3.14400	194
3.14767	195
3.15133	199
3.15500	204
3.15867	206
3.16233	202
3.16600	195
3.16967	189
3.17333	184
3.17700	179
3.18067	176
3.18433	174
3.18800	170
3.19167	168
3.19533	167
3.19900	168
3.20267	171
3.20633	177
3.21000	179
3.21367	177
3.21733	174
3.22100	169
3.22467	165
3.22833	163
3.23200	164
3.23567	168
3.23933	174
3.24300	175
3.24667	171
3.25033	167
3.25400	163
3.25767	158
3.26133	154
3.26500	152
3.26867	156
3.27233	162
3.27600	166
3.27967	168
3.28333	170
3.28700	172
3.29067	173
3.29433	174
3.29800	173
3.30167	170
3.30533	165
3.30900	161
3.31267	159
3.31633	160
3.32000	158
3.32367	153
3.32733	146
3.33100	142
3.33467	140
3.33833	140
3.34200	141
3.34567	141
3.34933	143
3.35300	145
3.35667	148
3.36033	150
3.36400	149
3.36767	148
3.37133	148
3.37500	149
3.37867	150
3.38233	151
3.38600	149
3.38967	147
3.39333	144
3.39700	141
3.40067	140
3.40433	140
3.40800	140
3.41167	138
3.41533	135
3.41900	134
3.42267	136
3.42633	140
3.43000	144
3.43367	145
3.43733	141
3.44100	135
3.44467	130
3.44833	127
3.45200	124
3.45567	125
3.45933	129
3.46300	135
3.46667	140
3.47033	141
3.47400	135
3.47767	126
3.48133	117
3.48500	111
3.48867	108
3.49233	108
3.49600	109
3.49967	114
3.50333	120
3.50700	122
3.51067	119
3.51433	114
3.51800	113
3.52167	116
3.52533	119
3.52900	118
3.53267	116
3.53633	114
3.54000	115
3.54367	114
3.54733	113
3.55100	111
3.55467	108
3.55833	104
3.56200	105
3.56567	108
3.56933	112
3.57300	116
3.57667	121
3.58033	120
3.58400	114
3.58767	108
3.59133	106
3.59500	104
3.59867	101
3.60233	98
3.60600	95
3.60967	95
3.61333	99
3.61700	103
3.62067	108
3.62433	112
3.62800	112
3.63167	106
3.63533	102
3.63900	96
3.64267	88
3.64633	82
3.65000	82
3.65367	90
3.65733	104
3.66100	112
3.66467	113
3.66833	109
3.67200	102
3.67567	94
3.67933	88
3.68300	84
3.68667	84
3.69033	87
3.69400	92
3.69767	98
3.70133	101
3.70500	102
3.70867	100
3.71233	94
3.71600	86
3.71967	80
3.72333	77
3.72700	76
3.73067	74
3.73433	75
3.73800	80
3.74167	85
3.74533	84
3.74900	81
3.75267	79
3.75633	78
3.76000	80
3.76367	84
3.76733	90
3.77100	96
3.77467	100
3.77833	101
3.78200	98
3.78567	93
3.78933	87
3.79300	76
3.79667	65
3.80033	59
3.80400	54
3.80767	53
3.81133	57
3.81500	63
3.81867	65
3.82233	65
3.82600	67
3.82967	69
3.83333	69
3.83700	69
3.84067	71
3.84433	72
3.84800	70
3.85167	66
3.85533	62
3.85900	61
3.86267	62
3.86633	66
3.87000	75
3.87367	84
3.87733	93
3.88100	99
3.88467	98
3.88833	93
3.89200	86
3.89567	78
3.89933	71
3.90300	64
3.90667	59
3.91033	56
3.91400	58
3.91767	63
3.92133	67
3.92500	70
3.92867	71
3.93233	71
3.93600	68
3.93967	63
3.94333	58
3.94700	52
3.95067	46
3.95433	41
3.95800	38
3.96167	36
3.96533	38
3.96900	43
3.97267	49
3.97633	56
3.98000	61
3.98367	63
3.98733	60
3.99100	52
3.99467	45
3.99833	39

[Chromatogram (Ch2)]
Interval(msec)	220
# of Points	1091
Start Time(min)	0.002
End Time(min)	3.998
R.Time (min)	Intensity
0.00167	0
0.00533	0
0.00900	0
0.01267	-0
0.01633	-0
0.02000	-1
0.02367	-1
0.02733	-1
0.03100	-1
0.03467	-0
0.03833	-0
0.04200	-0
0.04567	-0
0.04933	-0
0.05300	-0
0.05667	-0
0.06033	-1
0.06400	-1
0.06767	-0
0.07133	0
0.07500	1
0.07867	1
0.08233	2
0.08600	2
0.08967	3
0.09333	3
0.09700	3
0.10067	3
0.10433	3
0.10800	4
0.11167	4
0.11533	4
0.11900	3
0.12267	3
0.12633	3
0.13000	3
0.13367	2
0.13733	2
0.14100	2
0.14467	1
0.14833	1
0.15200	0
0.15567	0
0.15933	-0
0.16300	-0
0.16667	-0
0.17033	-0
0.17400	-0
0.17767	-0
0.18133	-0
0.18500	-0
0.18867	0
0.19233	0
0.19600	1
0.19967	1
0.20333	1
0.20700	1
0.21067	1
0.21433	1
0.21800	1
0.22167	2
0.22533	1
0.22900	2
0.23267	1
0.23633	1
0.24000	1
0.24367	1
0.24733	1
0.25100	1
0.25467	1
0.25833	1
0.26200	2
0.26567	2
0.26933	2
0.27300	2
0.27667	2
0.28033	1
0.28400	1
0.28767	1
0.29133	1
0.29500	1
0.29867	1
0.30233	1
0.30600	1
0.30967	1
0.31333	1
0.31700	1
0.32067	1
0.32433	1
0.32800	1
0.33167	1
0.33533	1
0.33900	1
0.34267	1
0.34633	1
0.35000	1
0.35367	1
0.35733	1
0.36100	1
0.36467	1
0.36833	1
0.37200	1
0.37567	1
0.37933	0
0.38300	0
0.38667	0
0.39033	0
0.39400	0
0.39767	0
0.40133	0
0.40500	0
0.40867	-0
0.41233	-0
0.41600	-0
0.41967	-1
0.42333	-1
0.42700	-1
0.43067	-1
0.43433	-2
0.43800	-2
0.44167	-1
0.44533	-1
0.44900	-1
0.45267	-1
0.45633	-1
0.46000	-1
0.46367	-1
0.46733	-1
0.47100	-1
0.47467	-0
0.47833	-0
0.48200	0
0.48567	1
0.48933	1
0.49300	1
0.49667	1
0.50033	1
0.50400	1
0.50767	2
0.51133	2
0.51500	2
0.51867	2
0.52233	2
0.52600	2
0.52967	1
0.53333	1
0.53700	1
0.54067	1
0.54433	0
0.54800	0
0.55167	0
0.55533	-0
0.55900	-1
0.56267	-1
0.56633	-1
0.57000	-2
0.57367	-2
0.57733	-2
0.58100	-2
0.58467	-3
0.58833	-3
0.59200	-3
0.59567	-3
0.59933	-3
0.60300	-3
0.60667	-3
0.61033	-3
0.61400	-3
0.61767	-2
0.62133	-2
0.62500	-2
0.62867	-2
0.63233	-2
0.63600	-2
0.63967	-2
0.64333	-2
0.64700	-3
0.65067	-3
0.65433	-3
0.65800	-3
0.66167	-4
0.66533	-4
0.66900	-4
0.67267	-4
0.67633	-4
0.68000	-3
0.68367	-3
0.68733	-3
0.69100	-4
0.69467	-4
0.69833	-4
0.70200	-3
0.70567	-3
0.70933	-3
0.71300	-2
0.71667	-2
0.72033	-2
0.72400	-1
0.72767	-1
0.73133	-1
0.73500	-1
0.73867	-1
0.74233	-1
0.74600	-1
0.74967	-1
0.75333	-1
0.75700	-1
0.76067	-1
0.76433	-2
0.76800	-2
0.77167	-2
0.77533	-2
0.77900	-2
0.78267	-1
0.78633	-1
0.79000	-1
0.79367	-1
0.79733	-1
0.80100	-1
0.80467	-1
0.80833	-0
0.81200	-0
0.81567	-0
0.81933	-0
0.82300	-0
0.82667	-0
0.83033	-0
0.83400	-0
0.83767	-0
0.84133	-0
0.84500	-0
0.84867	-0
0.85233	-0
0.85600	-0
0.85967	-0
0.86333	-0
0.86700	-0
0.87067	-0
0.87433	-1
0.87800	-1
0.88167	-1
0.88533	-1
0.88900	-1
0.89267	-1
0.89633	-1
0.90000	-1
0.90367	-1
0.90733	-1
0.91100	-1
0.91467	-2
0.91833	-2
0.92200	-3
0.92567	-3
0.92933	-3
0.93300	-3
0.93667	-3
0.94033	-3
0.94400	-3
0.94767	-3
0.95133	-3
0.95500	-3
0.95867	-3
0.96233	-3
0.96600	-3
0.96967	-3
0.97333	-3
0.97700	-3
0.98067	-3
0.98433	-3
0.98800	-2
0.99167	-2
0.99533	-2
0.99900	-1
1.00267	-1
1.00633	-1
1.01000	-0
1.01367	-0
1.01733	0
1.02100	1
1.02467	1
1.02833	1
1.03200	0
1.03567	0
1.03933	0
1.04300	0
1.04667	0
1.05033	-0
1.05400	-0
1.05767	-1
1.06133	-1
1.06500	-1
1.06867	-1
1.07233	-1
1.07600	-1
1.07967	-1
1.08333	-1
1.08700	-1
1.09067	-1
1.09433	-1
1.09800	-1
1.10167	-2
1.10533	-2
1.10900	-2
1.11267	-2
1.11633	-2
1.12000	-2
1.12367	-2
1.12733	-2
1.13100	-2
1.13467	-1
1.13833	-1
1.14200	-1
1.14567	-0
1.14933	0
1.15300	0
1.15667	0
1.16033	0
1.16400	-0
1.16767	-0
1.17133	-0
1.17500	-1
1.17867	-1
1.18233	-1
1.18600	-1
1.18967	-1
1.19333	-1
1.19700	-1
1.20067	-1
1.20433	-2
1.20800	-2
1.21167	-2
1.21533	-2
1.21900	-3
1.22267	-3
1.22633	-3
1.23000	-2
1.23367	-2
1.23733	-2
1.24100	-2
1.24467	-2
1.24833	-2
1.25200	-2
1.25567	-2
1.25933	-3
1.26300	-3
1.26667	-3
1.27033	-2
1.27400	-2
1.27767	-2
1.28133	-2
1.28500	-2
1.28867	-2
1.29233	-2
1.29600	-2
1.29967	-2
1.30333	-2
1.30700	-2
1.31067	-2
1.31433	-2
1.31800	-2
1.32167	-2
1.32533	-2
1.32900	-2
1.33267	-2
1.33633	-2
1.34000	-2
1.34367	-2
1.34733	-2
1.35100	-3
1.35467	-3
1.35833	-3
1.36200	-3
1.36567	-3
1.36933	-2
1.37300	-2
1.37667	-2
1.38033	-2
1.38400	-2
1.38767	-2
1.39133	-3
1.39500	-3
1.39867	-4
1.40233	-4
1.40600	-4
1.40967	-4
1.41333	-4
1.41700	-4
1.42067	-4
1.42433	-3
1.42800	-3
1.43167	-3
1.43533	-3
1.43900	-3
1.44267	-3
1.44633	-3
1.45000	-3
1.45367	-3
1.45733	-3
1.46100	-3
1.46467	-2
1.46833	-2
1.47200	-2
1.47567	-2
1.47933	-1
1.48300	-1
1.48667	-1
1.49033	-1
1.49400	-1
1.49767	-2
1.50133	-2
1.50500	-2
1.50867	-3
1.51233	-3
1.51600	-3
1.51967	-3
1.52333	-3
1.52700	-2
1.53067	-2
1.53433	-2
1.53800	-2
1.54167	-2
1.54533	-2
1.54900	-2
1.55267	-2
1.55633	-2
1.56000	-2
1.56367	-3
1.56733	-3
1.57100	-3
1.57467	-3
1.57833	-3
1.58200	-4
1.58567	-4
1.58933	-4
1.59300	-4
1.59667	-4
1.60033	-5
1.60400	-6
1.60767	-8
1.61133	-9
1.61500	-11
1.61867	-13
1.62233	-16
1.62600	-18
1.62967	-21
1.63333	-24
1.63700	-27
1.64067	-31
1.64433	-34
1.64800	-38
1.65167	-41
1.65533	-44
1.65900	-47
1.66267	-51
1.66633	-54
1.67000	-58
1.67367	-61
1.67733	-65
1.68100	-70
1.68467	-74
1.68833	-78
1.69200	-81
1.69567	-84
1.69933	-87
1.70300	-89
1.70667	-91
1.71033	-92
1.71400	-94
1.71767	-95
1.72133	-97
1.72500	-98
1.72867	-99
1.73233	-100
1.73600	-101
1.73967	-101
1.74333	-101
1.74700	-101
1.75067	-101
1.75433	-101
1.75800	-100
1.76167	-100
1.76533	-99
1.76900	-99
1.77267	-99
1.77633	-99
1.78000	-99
1.78367	-100
1.78733	-100
1.79100	-101
1.79467	-101
1.79833	-102
1.80200	-102
1.80567	-102
1.80933	-102
1.81300	-101
1.81667	-101
1.82033	-100
1.82400	-100
1.82767	-100
1.83133	-100
1.83500	-100
1.83867	-100
1.84233	-101
1.84600	-101
1.84967	-101
1.85333	-101
1.85700	-101
1.86067	-101
1.86433	-102
1.86800	-101
1.87167	-101
1.87533	-101
1.87900	-101
1.88267	-101
1.88633	-101
1.89000	-101
1.89367	-102
1.89733	-102
1.90100	-102
1.90467	-102
1.90833	-102
1.91200	-103
1.91567	-103
1.91933	-102
1.92300	-102
1.92667	-101
1.93033	-100
1.93400	-99
1.93767	-99
1.94133	-98
1.94500	-98
1.94867	-98
1.95233	-98
1.95600	-98
1.95967	-98
1.96333	-98
1.96700	-98
1.97067	-98
1.97433	-98
1.97800	-98
1.98167	-97
1.98533	-97
1.98900	-96
1.99267	-96
1.99633	-96
2.00000	-95
2.00367	-95
2.00733	-95
2.01100	-95
2.01467	-95
2.01833	-95
2.02200	-95
2.02567	-95
2.02933	-95
2.03300	-95
2.03667	-95
2.04033	-94
2.04400	-93
2.04767	-93
2.05133	-92
2.05500	-92
2.05867	-92
2.06233	-92
2.06600	-92
2.06967	-92
2.07333	-92
2.07700	-92
2.08067	-91
2.08433	-91
2.08800	-90
2.09167	-90
2.09533	-90
2.09900	-89
2.10267	-89
2.10633	-88
2.11000	-88
2.11367	-88
2.11733	-87
2.12100	-87
2.12467	-87
2.12833	-86
2.13200	-86
2.13567	-85
2.13933	-85
2.14300	-85
2.14667	-85
2.15033	-84
2.15400	-84
2.15767	-84
2.16133	-83
2.16500	-83
2.16867	-82
2.17233	-82
2.17600	-81
2.17967	-80
2.18333	-80
2.18700	-80
2.19067	-80
2.19433	-80
2.19800	-80
2.20167	-80
2.20533	-80
2.20900	-81
2.21267	-81
2.21633	-81
2.22000	-81
2.22367	-81
2.22733	-81
2.23100	-80
2.23467	-80
2.23833	-79
2.24200	-79
2.24567	-78
2.24933	-78
2.25300	-78
2.25667	-78
2.26033	-77
2.26400	-77
2.26767	-76
2.27133	-75
2.27500	-75
2.27867	-75
2.28233	-75
2.28600	-75
2.28967	-75
2.29333	-74
2.29700	-73
2.30067	-73
2.30433	-73
2.30800	-73
2.31167	-74
2.31533	-74
2.31900	-74
2.32267	-74
2.32633	-74
2.33000	-73
2.33367	-72
2.33733	-71
2.34100	-70
2.34467	-69
2.34833	-67
2.35200	-66
2.35567	-65
2.35933	-64
2.36300	-63
2.36667	-62
2.37033	-61
2.37400	-59
2.37767	-57
2.38133	-54
2.38500	-50
2.38867	-47
2.39233	-42
2.39600	-38
2.39967	-34
2.40333	-30
2.40700	-26
2.41067	-22
2.41433	-19
2.41800	-16
2.42167	-13
2.42533	-10
2.42900	-8
2.43267	-5
2.43633	-3
2.44000	-0
2.44367	1
2.44733	3
2.45100	4
2.45467	5
2.45833	6
2.46200	7
2.46567	8
2.46933	9
2.47300	10
2.47667	11
2.48033	12
2.48400	12
2.48767	13
2.49133	13
2.49500	13
2.49867	13
2.50233	13
2.50600	13
2.50967	13
2.51333	13
2.51700	13
2.52067	13
2.52433	13
2.52800	13
2.53167	13
2.53533	13
2.53900	12
2.54267	12
2.54633	11
2.55000	11
2.55367	11
2.55733	11
2.56100	11
2.56467	12
2.56833	13
2.57200	13
2.57567	14
2.57933	15
2.58300	15
2.58667	16
2.59033	16
2.59400	16
2.59767	16
2.60133	17
2.60500	17
2.60867	17
2.61233	18
2.61600	18
2.61967	18
2.62333	19
2.62700	19
2.63067	19
2.63433	20
2.63800	20
2.64167	20
2.64533	21
2.64900	21
2.65267	21
2.65633	21
2.66000	21
2.66367	22
2.66733	22
2.67100	23
2.67467	23
2.67833	23
2.68200	23
2.68567	24
2.68933	24
2.69300	25
2.69667	25
2.70033	25
2.70400	25
2.70767	25
2.71133	25
2.71500	25
2.71867	25
2.72233	25
2.72600	25
2.72967	25
2.73333	25
2.73700	25
2.74067	26
2.74433	26
2.74800	26
2.75167	26
2.75533	27
2.75900	28
2.76267	28
2.76633	29
2.77000	29
2.77367	30
2.77733	30
2.78100	30
2.78467	30
2.78833	31
2.79200	31
2.79567	30
2.79933	30
2.80300	29
2.80667	29
2.81033	29
2.81400	28
2.81767	28
2.82133	28
2.82500	28
2.82867	28
2.83233	28
2.83600	28
2.83967	28
2.84333	28
2.84700	28
2.85067	28
2.85433	27
2.85800	26
2.86167	24
2.86533	20
2.86900	13
2.87267	3
2.87633	-11
2.88000	-30
2.88367	-54
2.88733	-84
2.89100	-118
2.89467	-158
2.89833	-203
2.90200	-252
2.90567	-305
2.90933	-362
2.91300	-421
2.91667	-482
2.92033	-545
2.92400	-608
2.92767	-671
2.93133	-732
2.93500	-791
2.93867	-847
2.94233	-900
2.94600	-953
2.94967	-1008
2.95333	-1059
2.95700	-1095
2.96067	-1109
2.96433	-1098
2.96800	-1063
2.97167	-1008
2.97533	-940
2.97900	-863
2.98267	-783
2.98633	-702
2.99000	-624
2.99367	-550
2.99733	-481
3.00100	-418
3.00467	-362
3.00833	-312
3.01200	-267
3.01567	-228
3.01933	-194
3.02300	-164
3.02667	-138
3.03033	-116
3.03400	-97
3.03767	-81
3.04133	-66
3.04500	-54
3.04867	-44
3.05233	-35
3.05600	-28
3.05967	-21
3.06333	-16
3.06700	-11
3.07067	-7
3.07433	-3
3.07800	-0
3.08167	2
3.08533	4
3.08900	6
3.09267	8
3.09633	9
3.10000	10
3.10367	12
3.10733	13
3.11100	14
3.11467	14
3.11833	15
3.12200	16
3.12567	16
3.12933	17
3.13300	17
3.13667	17
3.14033	18
3.14400	18
3.14767	18
3.15133	18
3.15500	18
3.15867	19
3.16233	19
3.16600	19
3.16967	19
3.17333	20
3.17700	20
3.18067	20
3.18433	20
3.18800	20
3.19167	21
3.19533	21
3.19900	21
3.20267	22
3.20633	22
3.21000	22
3.21367	23
3.21733	23
3.22100	23
3.22467	23
3.22833	24
3.23200	24
3.23567	24
3.23933	25
3.24300	25
3.24667	26
3.25033	26
3.25400	26
3.25767	26
3.26133	25
3.26500	25
3.26867	25
3.27233	25
3.27600	25
3.27967	25
3.28333	25
3.28700	25
3.29067	25
3.29433	25
3.29800	25
3.30167	25
3.30533	25
3.30900	25
3.31267	25
3.31633	25
3.32000	25
3.32367	25
3.32733	25
3.33100	25
3.33467	25
3.33833	26
3.34200	26
3.34567	26
3.34933	26
3.35300	26
3.35667	26
3.36033	26
3.36400	27
3.36767	27
3.37133	27
3.37500	28
3.37867	28
3.38233	29
3.38600	29
3.38967	29
3.39333	30
3.39700	30
3.40067	30
3.40433	30
3.40800	31
3.41167	31
3.41533	31
3.41900	31
3.42267	31
3.42633	31
3.43000	31
3.43367	31
3.43733	31
3.44100	31
3.44467	31
3.44833	31
3.45200	31
3.45567	31
3.45933	31
3.46300	31
3.46667	31
3.47033	31
3.47400	31
3.47767	31
3.48133	30
3.48500	30
3.48867	30
3.49233	30
3.49600	30
3.49967	30
3.50333	30
3.50700	30
3.51067	30
3.51433	30
3.51800	30
3.52167	31
3.52533	31
3.52900	31
3.53267	31
3.53633	31
3.54000	31
3.54367	31
3.54733	31
3.55100	31
3.55467	30
3.55833	30
3.56200	30
3.56567	30
3.56933	30
3.57300	30
3.57667	30
3.58033	30
3.58400	30
3.58767	29
3.59133	29
3.59500	29
3.59867	29
3.60233	29
3.60600	29
3.60967	29
3.61333	29
3.61700	29
3.62067	29
3.62433	29
3.62800	29
3.63167	29
3.63533	29
3.63900	29
3.64267	29
3.64633	29
3.65000	29
3.65367	29
3.65733	29
3.66100	28
3.66467	29
3.66833	29
3.67200	29
3.67567	29
3.67933	29
3.68300	30
3.68667	30
3.69033	29
3.69400	29
3.69767	29
3.70133	29
3.70500	28
3.70867	28
3.71233	28
3.71600	28
3.71967	28
3.72333	28
3.72700	28
3.73067	28
3.73433	28
3.73800	28
3.74167	28
3.74533	28
3.74900	28
3.75267	28
3.75633	28
3.76000	28
3.76367	29
3.76733	29
3.77100	29
3.77467	28
3.77833	28
3.78200	28
3.78567	28
3.78933	28
3.79300	29
3.79667	29
3.80033	28
3.80400	28
3.80767	28
3.81133	28
3.81500	28
3.81867	29
3.82233	29
3.82600	29
3.82967	29
3.83333	29
3.83700	28
3.84067	28
3.84433	28
3.84800	28
3.85167	28
3.85533	28
3.85900	28
3.86267	28
3.86633	27
3.87000	27
3.87367	27
3.87733	27
3.88100	27
3.88467	27
3.88833	27
3.89200	27
3.89567	27
3.89933	27
3.90300	27
3.90667	28
3.91033	28
3.91400	28
3.91767	28
3.92133	28
3.92500	28
3.92867	28
3.93233	28
3.93600	28
3.93967	28
3.94333	28
3.94700	28
3.95067	28
3.95433	28
3.95800	28
3.96167	28
3.96533	28
3.96900	28
3.97267	28
3.97633	28
3.98000	28
3.98367	29
3.98733	29
3.99100	29
3.99467	29
3.99833	28

[Chromatogram (Ch3)]
Interval(msec)	220
# of Points	1091
Start Time(min)	0.002
End Time(min)	3.998
R.Time (min)	Intensity
0.00167	-1
0.00533	-1
0.00900	-1
0.01267	1
0.01633	1
0.02000	-2
0.02367	-3
0.02733	-5
0.03100	-5
0.03467	-3
0.03833	-4
0.04200	-5
0.04567	-4
0.04933	-0
0.05300	2
0.05667	0
0.06033	1
0.06400	1
0.06767	1
0.07133	-1
0.07500	-4
0.07867	-5
0.08233	-8
0.08600	-8
0.08967	-8
0.09333	-7
0.09700	-5
0.10067	-3
0.10433	-2
0.10800	-3
0.11167	-3
0.11533	-5
0.11900	-5
0.12267	-3
0.12633	-1
0.13000	1
0.13367	3
0.13733	5
0.14100	4
0.14467	2
0.14833	-0
0.15200	-0
0.15567	-1
0.15933	0
0.16300	0
0.16667	1
0.17033	1
0.17400	-0
0.17767	-2
0.18133	-2
0.18500	-2
0.18867	-2
0.19233	-2
0.19600	-2
0.19967	-2
0.20333	-1
0.20700	0
0.21067	1
0.21433	2
0.21800	-0
0.22167	1
0.22533	3
0.22900	3
0.23267	3
0.23633	4
0.24000	3
0.24367	2
0.24733	1
0.25100	-0
0.25467	-2
0.25833	-2
0.26200	-2
0.26567	-1
0.26933	-1
0.27300	1
0.27667	1
0.28033	2
0.28400	4
0.28767	5
0.29133	4
0.29500	4
0.29867	4
0.30233	4
0.30600	4
0.30967	5
0.31333	5
0.31700	5
0.32067	5
0.32433	6
0.32800	7
0.33167	8
0.33533	8
0.33900	8
0.34267	7
0.34633	5
0.35000	4
0.35367	3
0.35733	4
0.36100	6
0.36467	5
0.36833	5
0.37200	5
0.37567	4
0.37933	3
0.38300	1
0.38667	2
0.39033	4
0.39400	4
0.39767	6
0.40133	7
0.40500	8
0.40867	8
0.41233	7
0.41600	7
0.41967	6
0.42333	6
0.42700	4
0.43067	4
0.43433	4
0.43800	5
0.44167	7
0.44533	7
0.44900	7
0.45267	7
0.45633	5
0.46000	5
0.46367	4
0.46733	4
0.47100	4
0.47467	6
0.47833	8
0.48200	9
0.48567	8
0.48933	6
0.49300	5
0.49667	3
0.50033	2
0.50400	1
0.50767	-1
0.51133	1
0.51500	2
0.51867	4
0.52233	4
0.52600	4
0.52967	4
0.53333	3
0.53700	2
0.54067	3
0.54433	5
0.54800	4
0.55167	6
0.55533	9
0.55900	10
0.56267	12
0.56633	12
0.57000	12
0.57367	12
0.57733	13
0.58100	13
0.58467	12
0.58833	13
0.59200	14
0.59567	15
0.59933	16
0.60300	15
0.60667	13
0.61033	11
0.61400	9
0.61767	9
0.62133	11
0.62500	10
0.62867	10
0.63233	9
0.63600	10
0.63967	10
0.64333	9
0.64700	8
0.65067	9
0.65433	10
0.65800	9
0.66167	8
0.66533	9
0.66900	10
0.67267	10
0.67633	10
0.68000	9
0.68367	8
0.68733	8
0.69100	10
0.69467	11
0.69833	10
0.70200	8
0.70567	5
0.70933	4
0.71300	5
0.71667	7
0.72033	9
0.72400	10
0.72767	9
0.73133	8
0.73500	7
0.73867	8
0.74233	8
0.74600	10
0.74967	12
0.75333	15
0.75700	17
0.76067	17
0.76433	17
0.76800	16
0.77167	12
0.77533	10
0.77900	8
0.78267	8
0.78633	10
0.79000	12
0.79367	13
0.79733	13
0.80100	13
0.80467	14
0.80833	15
0.81200	14
0.81567	12
0.81933	13
0.82300	13
0.82667	16
0.83033	19
0.83400	20
0.83767	20
0.84133	21
0.84500	22
0.84867	22
0.85233	22
0.85600	20
0.85967	18
0.86333	16
0.86700	13
0.87067	12
0.87433	13
0.87800	15
0.88167	19
0.88533	20
0.88900	19
0.89267	19
0.89633	18
0.90000	19
0.90367	18
0.90733	18
0.91100	18
0.91467	16
0.91833	15
0.92200	15
0.92567	15
0.92933	16
0.93300	17
0.93667	17
0.94033	16
0.94400	17
0.94767	18
0.95133	18
0.95500	18
0.95867	18
0.96233	18
0.96600	19
0.96967	20
0.97333	21
0.97700	22
0.98067	21
0.98433	22
0.98800	21
0.99167	21
0.99533	22
0.99900	23
1.00267	21
1.00633	21
1.01000	19
1.01367	18
1.01733	18
1.02100	20
1.02467	21
1.02833	21
1.03200	21
1.03567	21
1.03933	20
1.04300	18
1.04667	19
1.05033	18
1.05400	17
1.05767	19
1.06133	18
1.06500	18
1.06867	17
1.07233	18
1.07600	19
1.07967	18
1.08333	18
1.08700	18
1.09067	18
1.09433	19
1.09800	19
1.10167	18
1.10533	16
1.10900	17
1.11267	18
1.11633	19
1.12000	20
1.12367	19
1.12733	18
1.13100	17
1.13467	15
1.13833	15
1.14200	16
1.14567	17
1.14933	18
1.15300	21
1.15667	21
1.16033	21
1.16400	20
1.16767	18
1.17133	16
1.17500	16
1.17867	16
1.18233	17
1.18600	19
1.18967	21
1.19333	21
1.19700	21
1.20067	18
1.20433	17
1.20800	16
1.21167	16
1.21533	17
1.21900	16
1.22267	18
1.22633	19
1.23000	19
1.23367	18
1.23733	19
1.24100	19
1.24467	19
1.24833	19
1.25200	20
1.25567	19
1.25933	20
1.26300	23
1.26667	23
1.27033	22
1.27400	21
1.27767	22
1.28133	22
1.28500	23
1.28867	25
1.29233	25
1.29600	26
1.29967	24
1.30333	24
1.30700	24
1.31067	24
1.31433	25
1.31800	25
1.32167	23
1.32533	21
1.32900	19
1.33267	18
1.33633	19
1.34000	20
1.34367	20
1.34733	20
1.35100	19
1.35467	18
1.35833	16
1.36200	16
1.36567	17
1.36933	18
1.37300	19
1.37667	19
1.38033	20
1.38400	21
1.38767	22
1.39133	23
1.39500	22
1.39867	21
1.40233	20
1.40600	21
1.40967	23
1.41333	24
1.41700	25
1.42067	28
1.42433	29
1.42800	29
1.43167	29
1.43533	28
1.43900	27
1.44267	24
1.44633	22
1.45000	22
1.45367	22
1.45733	22
1.46100	22
1.46467	20
1.46833	20
1.47200	21
1.47567	20
1.47933	21
1.48300	24
1.48667	25
1.49033	25
1.49400	23
1.49767	22
1.50133	21
1.50500	21
1.50867	22
1.51233	22
1.51600	21
1.51967	21
1.52333	21
1.52700	21
1.53067	21
1.53433	22
1.53800	23
1.54167	23
1.54533	22
1.54900	23
1.55267	25
1.55633	24
1.56000	24
1.56367	23
1.56733	24
1.57100	24
1.57467	24
1.57833	24
1.58200	27
1.58567	27
1.58933	25
1.59300	24
1.59667	24
1.60033	23
1.60400	24
1.60767	25
1.61133	26
1.61500	27
1.61867	27
1.62233	27
1.62600	26
1.62967	26
1.63333	26
1.63700	27
1.64067	28
1.64433	30
1.64800	33
1.65167	34
1.65533	33
1.65900	30
1.66267	28
1.66633	28
1.67000	29
1.67367	30
1.67733	32
1.68100	32
1.68467	31
1.68833	31
1.69200	31
1.69567	32
1.69933	32
1.70300	33
1.70667	33
1.71033	30
1.71400	29
1.71767	32
1.72133	36
1.72500	35
1.72867	32
1.73233	30
1.73600	31
1.73967	30
1.74333	28
1.74700	28
1.75067	28
1.75433	28
1.75800	28
1.76167	30
1.76533	32
1.76900	33
1.77267	33
1.77633	34
1.78000	36
1.78367	37
1.78733	37
1.79100	38
1.79467	40
1.79833	44
1.80200	45
1.80567	45
1.80933	44
1.81300	43
1.81667	44
1.82033	44
1.82400	44
1.82767	41
1.83133	39
1.83500	40
1.83867	41
1.84233	41
1.84600	43
1.84967	45
1.85333	47
1.85700	49
1.86067	49
1.86433	49
1.86800	50
1.87167	52
1.87533	53
1.87900	52
1.88267	52
1.88633	52
1.89000	53
1.89367	55
1.89733	57
1.90100	60
1.90467	63
1.90833	64
1.91200	63
1.91567	65
1.91933	64
1.92300	63
1.92667	62
1.93033	63
1.93400	62
1.93767	64
1.94133	67
1.94500	69
1.94867	72
1.95233	73
1.95600	72
1.95967	73
1.96333	71
1.96700	71
1.97067	71
1.97433	70
1.97800	68
1.98167	69
1.98533	70
1.98900	72
1.99267	74
1.99633	74
2.00000	74
2.00367	74
2.00733	76
2.01100	79
2.01467	81
2.01833	84
2.02200	85
2.02567	84
2.02933	82
2.03300	81
2.03667	82
2.04033	82
2.04400	83
2.04767	84
2.05133	83
2.05500	82
2.05867	83
2.06233	86
2.06600	87
2.06967	88
2.07333	89
2.07700	89
2.08067	90
2.08433	93
2.08800	96
2.09167	95
2.09533	98
2.09900	98
2.10267	96
2.10633	95
2.11000	96
2.11367	98
2.11733	101
2.12100	104
2.12467	107
2.12833	107
2.13200	105
2.13567	103
2.13933	101
2.14300	102
2.14667	105
2.15033	107
2.15400	108
2.15767	108
2.16133	108
2.16500	108
2.16867	109
2.17233	110
2.17600	110
2.17967	109
2.18333	110
2.18700	111
2.19067	111
2.19433	112
2.19800	114
2.20167	114
2.20533	114
2.20900	113
2.21267	112
2.21633	112
2.22000	112
2.22367	112
2.22733	113
2.23100	113
2.23467	114
2.23833	115
2.24200	117
2.24567	120
2.24933	123
2.25300	126
2.25667	128
2.26033	129
2.26400	127
2.26767	127
2.27133	126
2.27500	127
2.27867	127
2.28233	126
2.28600	125
2.28967	123
2.29333	123
2.29700	125
2.30067	130
2.30433	134
2.30800	134
2.31167	131
2.31533	128
2.31900	127
2.32267	127
2.32633	128
2.33000	128
2.33367	129
2.33733	132
2.34100	133
2.34467	133
2.34833	132
2.35200	133
2.35567	135
2.35933	137
2.36300	137
2.36667	137
2.37033	135
2.37400	134
2.37767	134
2.38133	135
2.38500	136
2.38867	135
2.39233	135
2.39600	137
2.39967	140
2.40333	144
2.40700	146
2.41067	146
2.41433	147
2.41800	149
2.42167	152
2.42533	152
2.42900	153
2.43267	153
2.43633	153
2.44000	160
2.44367	227
2.44733	369
2.45100	528
2.45467	657
2.45833	754
2.46200	827
2.46567	879
2.46933	908
2.47300	920
2.47667	927
2.48033	938
2.48400	953
2.48767	970
2.49133	987
2.49500	1002
2.49867	1012
2.50233	1012
2.50600	1001
2.50967	984
2.51333	965
2.51700	945
2.52067	927
2.52433	916
2.52800	910
2.53167	907
2.53533	910
2.53900	913
2.54267	913
2.54633	912
2.55000	914
2.55367	922
2.55733	933
2.56100	946
2.56467	957
2.56833	964
2.57200	966
2.57567	961
2.57933	950
2.58300	934
2.58667	916
2.59033	896
2.59400	877
2.59767	862
2.60133	848
2.60500	835
2.60867	825
2.61233	815
2.61600	807
2.61967	801
2.62333	793
2.62700	784
2.63067	774
2.63433	766
2.63800	759
2.64167	753
2.64533	750
2.64900	747
2.65267	745
2.65633	744
2.66000	743
2.66367	742
2.66733	740
2.67100	742
2.67467	744
2.67833	746
2.68200	748
2.68567	751
2.68933	756
2.69300	764
2.69667	771
2.70033	780
2.70400	789
2.70767	797
2.71133	804
2.71500	808
2.71867	809
2.72233	808
2.72600	809
2.72967	809
2.73333	807
2.73700	806
2.74067	804
2.74433	801
2.74800	796
2.75167	792
2.75533	786
2.75900	780
2.76267	774
2.76633	767
2.77000	760
2.77367	755
2.77733	752
2.78100	749
2.78467	745
2.78833	741
2.79200	738
2.79567	735
2.79933	733
2.80300	731
2.80667	729
2.81033	729
2.81400	729
2.81767	732
2.82133	733
2.82500	734
2.82867	738
2.83233	746
2.83600	765
2.83967	806
2.84333	890
2.84700	1038
2.85067	1277
2.85433	1621
2.85800	2072
2.86167	2613
2.86533	3212
2.86900	3830
2.87267	4415
2.87633	4914
2.88000	5289
2.88367	5516
2.88733	5593
2.89100	5530
2.89467	5350
2.89833	5085
2.90200	4765
2.90567	4415
2.90933	4057
2.91300	3705
2.91667	3367
2.92033	3050
2.92400	2759
2.92767	2498
2.93133	2265
2.93500	2060
2.93867	1879
2.94233	1720
2.94600	1580
2.94967	1460
2.95333	1357
2.95700	1267
2.96067	1188
2.96433	1119
2.96800	1059
2.97167	1011
2.97533	968
2.97900	931
2.98267	898
2.98633	871
2.99000	851
2.99367	833
2.99733	818
3.00100	803
3.00467	792
3.00833	784
3.01200	778
3.01567	771
3.01933	764
3.02300	759
3.02667	756
3.03033	756
3.03400	753
3.03767	752
3.04133	750
3.04500	751
3.04867	751
3.05233	750
3.05600	752
3.05967	751
3.06333	749
3.06700	748
3.07067	747
3.07433	746
3.07800	745
3.08167	744
3.08533	743
3.08900	744
3.09267	746
3.09633	746
3.10000	745
3.10367	743
3.10733	739
3.11100	735
3.11467	732
3.11833	730
3.12200	730
3.12567	732
3.12933	734
3.13300	733
3.13667	733
3.14033	733
3.14400	733
3.14767	733
3.15133	730
3.15500	726
3.15867	723
3.16233	722
3.16600	723
3.16967	724
3.17333	723
3.17700	720
3.18067	717
3.18433	716
3.18800	716
3.19167	715
3.19533	715
3.19900	716
3.20267	715
3.20633	713
3.21000	709
3.21367	707
3.21733	705
3.22100	706
3.22467	705
3.22833	701
3.23200	699
3.23567	698
3.23933	696
3.24300	694
3.24667	694
3.25033	695
3.25400	695
3.25767	691
3.26133	688
3.26500	685
3.26867	681
3.27233	678
3.27600	677
3.27967	674
3.28333	672
3.28700	670
3.29067	667
3.29433	665
3.29800	664
3.30167	660
3.30533	656
3.30900	652
3.31267	651
3.31633	649
3.32000	646
3.32367	643
3.32733	642
3.33100	639
3.33467	636
3.33833	633
3.34200	631
3.34567	628
3.34933	625
3.35300	623
3.35667	619
3.36033	615
3.36400	611
3.36767	609
3.37133	603
3.37500	596
3.37867	591
3.38233	587
3.38600	583
3.38967	579
3.39333	574
3.39700	570
3.40067	565
3.40433	562
3.40800	558
3.41167	555
3.41533	553
3.41900	551
3.42267	549
3.42633	544
3.43000	537
3.43367	532
3.43733	527
3.44100	523
3.44467	519
3.44833	516
3.45200	512
3.45567	508
3.45933	503
3.46300	500
3.46667	495
3.47033	490
3.47400	486
3.47767	485
3.48133	483
3.48500	480
3.48867	475
3.49233	468
3.49600	463
3.49967	459
3.50333	457
3.50700	453
3.51067	449
3.51433	444
3.51800	439
3.52167	436
3.52533	436
3.52900	433
3.53267	429
3.53633	425
3.54000	421
3.54367	418
3.54733	416
3.55100	412
3.55467	406
3.55833	401
3.56200	396
3.56567	393
3.56933	389
3.57300	385
3.57667	381
3.58033	380
3.58400	377
3.58767	372
3.59133	367
3.59500	364
3.59867	363
3.60233	362
3.60600	359
3.60967	356
3.61333	352
3.61700	350
3.62067	349
3.62433	347
3.62800	345
3.63167	345
3.63533	343
3.63900	340
3.64267	336
3.64633	333
3.65000	329
3.65367	326
3.65733	324
3.66100	324
3.66467	323
3.66833	318
3.67200	316
3.67567	314
3.67933	310
3.68300	307
3.68667	305
3.69033	303
3.69400	300
3.69767	297
3.70133	293
3.70500	290
3.70867	289
3.71233	289
3.71600	288
3.71967	285
3.72333	284
3.72700	283
3.73067	281
3.73433	278
3.73800	277
3.74167	277
3.74533	279
3.74900	280
3.75267	279
3.75633	277
3.76000	276
3.76367	275
3.76733	272
3.77100	270
3.77467	270
3.77833	270
3.78200	270
3.78567	271
3.78933	273
3.79300	273
3.79667	271
3.80033	269
3.80400	268
3.80767	269
3.81133	268
3.81500	268
3.81867	270
3.82233	270
3.82600	269
3.82967	269
3.83333	269
3.83700	268
3.84067	268
3.84433	269
3.84800	270
3.85167	275
3.85533	279
3.85900	280
3.86267	279
3.86633	280
3.87000	280
3.87367	279
3.87733	277
3.88100	276
3.88467	276
3.88833	278
3.89200	281
3.89567	284
3.89933	285
3.90300	286
3.90667	288
3.91033	290
3.91400	293
3.91767	297
3.92133	299
3.92500	299
3.92867	300
3.93233	302
3.93600	305
3.93967	307
3.94333	309
3.94700	308
3.95067	307
3.95433	307
3.95800	305
3.96167	305
3.96533	307
3.96900	308
3.97267	309
3.97633	310
3.98000	312
3.98367	316
3.98733	318
3.99100	320
3.99467	320
3.99833	319

[Status Trace (Column Oven Temperature)]
Interval(msec)	1000
# of Points	240
Start Time(min)	0.008
End Time(min)	3.991
Intensity Units	
Intensity Multiplier	1
R.Time (min)	Intensity
0.00798	35.08
0.02465	35.08
0.04132	35.08
0.05798	35.08
0.07465	35.07
0.09132	35.06
0.10798	35.05
0.12465	35.05
0.14132	35.06
0.15798	35.07
0.17465	35.08
0.19132	35.06
0.20798	35.05
0.22465	35.04
0.24132	35.03
0.25798	35.02
0.27465	35.02
0.29132	35.02
0.30798	35.01
0.32465	35.00
0.34132	35.01
0.35798	35.01
0.37465	35.00
0.39132	35.00
0.40798	35.01
0.42465	35.01
0.44132	35.02
0.45798	35.02
0.47465	35.01
0.49132	35.00
0.50798	34.99
0.52465	34.98
0.54132	34.98
0.55798	34.98
0.57465	35.00
0.59132	35.00
0.60798	35.01
0.62465	35.00
0.64132	35.01
0.65798	35.02
0.67465	35.03
0.69132	35.03
0.70798	35.04
0.72465	35.04
0.74132	35.04
0.75798	35.04
0.77465	35.04
0.79132	35.05
0.80798	35.04
0.82465	35.03
0.84132	35.02
0.85798	35.01
0.87465	35.01
0.89132	35.01
0.90798	35.01
0.92465	35.01
0.94132	35.02
0.95798	35.02
0.97465	35.02
0.99132	35.02
1.00798	35.02
1.02465	35.03
1.04132	35.02
1.05798	35.01
1.07465	35.02
1.09132	35.01
1.10798	35.01
1.12465	35.00
1.14132	34.99
1.15798	34.99
1.17465	34.98
1.19132	34.97
1.20798	34.97
1.22465	34.97
1.24132	34.97
1.25798	34.99
1.27465	35.00
1.29132	35.01
1.30798	35.01
1.32465	35.01
1.34132	35.00
1.35798	35.00
1.37465	35.01
1.39132	35.01
1.40798	35.02
1.42465	35.02
1.44132	35.02
1.45798	35.02
1.47465	35.01
1.49132	35.01
1.50798	35.01
1.52465	35.02
1.54132	35.01
1.55798	35.02
1.57465	35.02
1.59132	35.03
1.60798	35.09
1.62465	35.20
1.64132	35.39
1.65798	35.62
1.67465	35.93
1.69132	36.30
1.70798	36.64
1.72465	37.00
1.74132	37.34
1.75798	37.65
1.77465	37.99
1.79132	38.33
1.80798	38.65
1.82465	38.97
1.84132	39.30
1.85798	39.64
1.87465	39.97
1.89132	40.30
1.90798	40.64
1.92465	40.94
1.94132	41.28
1.95798	41.60
1.97465	41.93
1.99132	42.25
2.00798	42.57
2.02465	42.91
2.04132	43.22
2.05798	43.55
2.07465	43.88
2.09132	44.20
2.10798	44.53
2.12465	44.85
2.14132	45.17
2.15798	45.50
2.17465	45.81
2.19132	46.14
2.20798	46.48
2.22465	46.81
2.24132	47.14
2.25798	47.46
2.27465	47.82
2.29132	48.14
2.30798	48.48
2.32465	48.84
2.34132	49.14
2.35798	49.41
2.37465	49.63
2.39132	49.71
2.40798	49.71
2.42465	49.72
2.44132	49.72
2.45798	49.72
2.47465	49.72
2.49132	49.74
2.50798	49.76
2.52465	49.76
2.54132	49.78
2.55798	49.79
2.57465	49.80
2.59132	49.82
2.60798	49.82
2.62465	49.82
2.64132	49.82
2.65798	49.83
2.67465	49.84
2.69132	49.84
2.70798	49.86
2.72465	49.88
2.74132	49.88
2.75798	49.87
2.77465	49.85
2.79132	49.85
2.80798	49.87
2.82465	49.87
2.84132	49.87
2.85798	49.88
2.87465	49.89
2.89132	49.89
2.90798	49.91
2.92465	49.92
2.94132	49.94
2.95798	49.95
2.97465	49.96
2.99132	49.97
3.00798	49.98
3.02465	49.98
3.04132	49.99
3.05798	50.01
3.07465	50.01
3.09132	50.01
3.10798	50.02
3.12465	50.03
3.14132	50.04
3.15798	50.05
3.17465	50.07
3.19132	50.07
3.20798	50.07
3.22465	50.07
3.24132	50.08
3.25798	50.08
3.27465	50.08
3.29132	50.09
3.30798	50.10
3.32465	50.11
3.34132	50.11
3.35798	50.11
3.37465	50.10
3.39132	50.08
3.40798	50.08
3.42465	50.07
3.44132	50.06
3.45798	50.05
3.47465	50.05
3.49132	50.04
3.50798	50.03
3.52465	50.02
3.54132	50.02
3.55798	50.01
3.57465	50.02
3.59132	50.02
3.60798	50.02
3.62465	50.02
3.64132	50.02
3.65798	50.02
3.67465	50.02
3.69132	50.03
3.70798	50.03
3.72465	50.04
3.74132	50.04
3.75798	50.04
3.77465	50.05
3.79132	50.05
3.80798	50.05
3.82465	50.04
3.84132	50.05
3.85798	50.06
3.87465	50.05
3.89132	50.05
3.90798	50.05
3.92465	50.05
3.94132	50.06
3.95798	50.06
3.97465	50.06
3.99132	50.06

[Status Trace (Injection Unit Temperature)]
Interval(msec)	1000
# of Points	240
Start Time(min)	0.008
End Time(min)	3.991
Intensity Units	
Intensity Multiplier	1
R.Time (min)	Intensity
0.00798	99.98
0.02465	99.98
0.04132	99.98
0.05798	99.98
0.07465	99.98
0.09132	99.98
0.10798	99.98
0.12465	99.98
0.14132	99.98
0.15798	99.98
0.17465	99.98
0.19132	99.98
0.20798	99.98
0.22465	99.98
0.24132	99.98
0.25798	99.98
0.27465	99.98
0.29132	99.98
0.30798	99.98
0.32465	99.99
0.34132	99.98
0.35798	99.98
0.37465	99.97
0.39132	99.98
0.40798	99.99
0.42465	99.98
0.44132	99.98
0.45798	99.98
0.47465	99.98
0.49132	99.98
0.50798	99.98
0.52465	99.98
0.54132	99.98
0.55798	99.99
0.57465	99.98
0.59132	99.98
0.60798	99.99
0.62465	99.98
0.64132	99.98
0.65798	99.98
0.67465	99.98
0.69132	99.98
0.70798	99.99
0.72465	99.98
0.74132	99.98
0.75798	99.98
0.77465	99.99
0.79132	99.98
0.80798	99.99
0.82465	99.98
0.84132	99.98
0.85798	99.98
0.87465	99.98
0.89132	99.98
0.90798	99.98
0.92465	99.98
0.94132	99.99
0.95798	99.98
0.97465	99.98
0.99132	99.98
1.00798	99.99
1.02465	99.99
1.04132	99.99
1.05798	99.98
1.07465	99.98
1.09132	99.98
1.10798	99.99
1.12465	99.99
1.14132	99.99
1.15798	99.99
1.17465	99.98
1.19132	99.99
1.20798	99.99
1.22465	99.99
1.24132	99.99
1.25798	99.99
1.27465	99.99
1.29132	99.98
1.30798	99.99
1.32465	99.99
1.34132	99.99
1.35798	99.99
1.37465	99.99
1.39132	99.99
1.40798	99.99
1.42465	99.99
1.44132	99.99
1.45798	99.99
1.47465	99.99
1.49132	99.99
1.50798	99.99
1.52465	99.99
1.54132	99.99
1.55798	99.99
1.57465	99.99
1.59132	99.99
1.60798	99.99
1.62465	99.99
1.64132	99.99
1.65798	99.99
1.67465	99.99
1.69132	99.99
1.70798	99.99
1.72465	99.99
1.74132	99.99
1.75798	99.99
1.77465	99.99
1.79132	99.99
1.80798	99.98
1.82465	99.99
1.84132	99.98
1.85798	99.98
1.87465	99.98
1.89132	99.98
1.90798	99.98
1.92465	99.98
1.94132	99.98
1.95798	99.98
1.97465	99.98
1.99132	99.98
2.00798	99.98
2.02465	99.97
2.04132	99.98
2.05798	99.98
2.07465	99.98
2.09132	99.98
2.10798	99.97
2.12465	99.98
2.14132	99.97
2.15798	99.97
2.17465	99.98
2.19132	99.97
2.20798	99.97
2.22465	99.97
2.24132	99.97
2.25798	99.97
2.27465	99.97
2.29132	99.97
2.30798	99.97
2.32465	99.97
2.34132	99.97
2.35798	99.97
2.37465	99.97
2.39132	99.98
2.40798	99.98
2.42465	99.97
2.44132	99.97
2.45798	99.98
2.47465	99.98
2.49132	99.98
2.50798	99.98
2.52465	99.98
2.54132	99.98
2.55798	99.98
2.57465	99.98
2.59132	99.98
2.60798	99.98
2.62465	99.98
2.64132	99.99
2.65798	99.99
2.67465	99.99
2.69132	99.99
2.70798	100.00
2.72465	99.99
2.74132	99.99
2.75798	100.00
2.77465	100.00
2.79132	100.00
2.80798	100.00
2.82465	100.00
2.84132	100.00
2.85798	100.00
2.87465	100.01
2.89132	100.01
2.90798	100.01
2.92465	100.01
2.94132	100.00
2.95798	100.01
2.97465	100.01
2.99132	100.01
3.00798	100.01
3.02465	100.01
3.04132	100.01
3.05798	100.02
3.07465	100.01
3.09132	100.02
3.10798	100.02
3.12465	100.02
3.14132	100.02
3.15798	100.02
3.17465	100.03
3.19132	100.03
3.20798	100.03
3.22465	100.03
3.24132	100.03
3.25798	100.03
3.27465	100.03
3.29132	100.03
3.30798	100.03
3.32465	100.03
3.34132	100.03
3.35798	100.04
3.37465	100.04
3.39132	100.04
3.40798	100.04
3.42465	100.04
3.44132	100.04
3.45798	100.04
3.47465	100.04
3.49132	100.04
3.50798	100.04
3.52465	100.04
3.54132	100.05
3.55798	100.05
3.57465	100.05
3.59132	100.05
3.60798	100.05
3.62465	100.05
3.64132	100.05
3.65798	100.05
3.67465	100.05
3.69132	100.05
3.70798	100.05
3.72465	100.06
3.74132	100.05
3.75798	100.05
3.77465	100.06
3.79132	100.06
3.80798	100.06
3.82465	100.06
3.84132	100.06
3.85798	100.06
3.87465	100.06
3.89132	100.06
3.90798	100.06
3.92465	100.06
3.94132	100.06
3.95798	100.06
3.97465	100.05
3.99132	100.06

[Status Trace (Carrier Gas Pressure)]
Interval(msec)	1000
# of Points	240
Start Time(min)	0.008
End Time(min)	3.991
Intensity Units	
Intensity Multiplier	1
R.Time (min)	Intensity
0.00798	58.00
0.02465	55.39
0.04132	57.13
0.05798	59.18
0.07465	59.46
0.09132	58.07
0.10798	57.98
0.12465	58.01
0.14132	58.01
0.15798	58.01
0.17465	58.00
0.19132	58.00
0.20798	58.00
0.22465	58.00
0.24132	58.00
0.25798	58.00
0.27465	58.00
0.29132	58.00
0.30798	58.00
0.32465	58.00
0.34132	58.00
0.35798	58.00
0.37465	58.00
0.39132	58.00
0.40798	58.00
0.42465	58.00
0.44132	58.00
0.45798	58.00
0.47465	58.00
0.49132	58.00
0.50798	58.00
0.52465	58.00
0.54132	58.00
0.55798	58.00
0.57465	58.00
0.59132	58.00
0.60798	58.00
0.62465	58.00
0.64132	58.00
0.65798	58.00
0.67465	58.00
0.69132	58.00
0.70798	58.00
0.72465	58.00
0.74132	58.00
0.75798	58.00
0.77465	58.00
0.79132	58.00
0.80798	58.00
0.82465	58.00
0.84132	58.00
0.85798	58.00
0.87465	58.00
0.89132	58.00
0.90798	58.00
0.92465	58.00
0.94132	58.00
0.95798	58.00
0.97465	58.00
0.99132	58.00
1.00798	58.00
1.02465	58.00
1.04132	58.00
1.05798	58.00
1.07465	58.00
1.09132	58.00
1.10798	58.00
1.12465	58.00
1.14132	58.00
1.15798	58.00
1.17465	58.00
1.19132	58.00
1.20798	58.00
1.22465	58.00
1.24132	58.00
1.25798	58.00
1.27465	58.00
1.29132	58.00
1.30798	58.00
1.32465	58.00
1.34132	58.00
1.35798	58.00
1.37465	58.00
1.39132	58.00
1.40798	58.00
1.42465	58.00
1.44132	58.00
1.45798	58.00
1.47465	58.00
1.49132	58.00
1.50798	58.00
1.52465	58.00
1.54132	58.00
1.55798	58.00
1.57465	58.00
1.59132	58.00
1.60798	58.00
1.62465	58.00
1.64132	58.00
1.65798	58.00
1.67465	58.00
1.69132	58.01
1.70798	58.00
1.72465	58.00
1.74132	58.00
1.75798	58.00
1.77465	58.00
1.79132	58.00
1.80798	58.00
1.82465	58.00
1.84132	58.00
1.85798	58.00
1.87465	58.00
1.89132	58.00
1.90798	58.00
1.92465	58.00
1.94132	58.00
1.95798	58.00
1.97465	58.00
1.99132	58.00
2.00798	58.00
2.02465	58.00
2.04132	58.00
2.05798	58.00
2.07465	58.00
2.09132	58.00
2.10798	58.00
2.12465	58.00
2.14132	58.00
2.15798	58.00
2.17465	58.00
2.19132	58.00
2.20798	58.00
2.22465	58.00
2.24132	58.00
2.25798	58.00
2.27465	58.00
2.29132	58.00
2.30798	58.00
2.32465	58.00
2.34132	58.00
2.35798	58.00
2.37465	58.00
2.39132	57.99
2.40798	57.99
2.42465	58.00
2.44132	58.00
2.45798	58.00
2.47465	58.00
2.49132	58.00
2.50798	58.00
2.52465	57.99
2.54132	58.00
2.55798	58.00
2.57465	58.00
2.59132	58.00
2.60798	58.00
2.62465	58.00
2.64132	58.00
2.65798	58.00
2.67465	58.00
2.69132	58.00
2.70798	58.00
2.72465	58.00
2.74132	58.00
2.75798	58.00
2.77465	58.00
2.79132	58.00
2.80798	58.00
2.82465	58.00
2.84132	58.00
2.85798	58.00
2.87465	58.00
2.89132	58.00
2.90798	58.00
2.92465	58.00
2.94132	58.00
2.95798	58.00
2.97465	58.00
2.99132	58.00
3.00798	58.00
3.02465	58.00
3.04132	58.00
3.05798	58.00
3.07465	58.00
3.09132	58.00
3.10798	58.00
3.12465	58.00
3.14132	58.00
3.15798	58.00
3.17465	58.00
3.19132	58.00
3.20798	58.00
3.22465	58.00
3.24132	58.00
3.25798	58.00
3.27465	58.00
3.29132	58.00
3.30798	58.00
3.32465	58.00
3.34132	58.00
3.35798	58.00
3.37465	58.00
3.39132	58.00
3.40798	58.00
3.42465	58.00
3.44132	58.00
3.45798	58.00
3.47465	58.00
3.49132	58.00
3.50798	58.00
3.52465	58.00
3.54132	58.00
3.55798	58.00
3.57465	58.00
3.59132	58.00
3.60798	58.00
3.62465	58.00
3.64132	58.00
3.65798	58.00
3.67465	58.00
3.69132	58.00
3.70798	58.00
3.72465	58.00
3.74132	58.00
3.75798	58.00
3.77465	58.00
3.79132	58.00
3.80798	58.00
3.82465	58.00
3.84132	58.00
3.85798	58.00
3.87465	58.00
3.89132	58.00
3.90798	58.00
3.92465	58.00
3.94132	58.00
3.95798	58.00
3.97465	58.00
3.99132	58.00

[Status Trace (Carrier Gas Flow)]
Interval(msec)	1000
# of Points	240
Start Time(min)	0.008
End Time(min)	3.991
Intensity Units	
Intensity Multiplier	1
R.Time (min)	Intensity
0.00798	34.52
0.02465	34.54
0.04132	34.55
0.05798	34.54
0.07465	34.50
0.09132	34.52
0.10798	34.52
0.12465	34.52
0.14132	34.52
0.15798	34.52
0.17465	34.52
0.19132	34.52
0.20798	34.52
0.22465	34.52
0.24132	34.52
0.25798	34.52
0.27465	34.52
0.29132	34.52
0.30798	34.52
0.32465	34.52
0.34132	34.52
0.35798	34.52
0.37465	34.52
0.39132	34.52
0.40798	34.51
0.42465	34.52
0.44132	34.52
0.45798	34.51
0.47465	34.52
0.49132	34.52
0.50798	34.52
0.52465	34.52
0.54132	34.52
0.55798	34.52
0.57465	34.52
0.59132	34.52
0.60798	34.52
0.62465	34.52
0.64132	34.52
0.65798	34.52
0.67465	34.52
0.69132	34.52
0.70798	34.52
0.72465	34.52
0.74132	34.52
0.75798	34.52
0.77465	34.51
0.79132	34.52
0.80798	34.52
0.82465	34.52
0.84132	34.52
0.85798	34.52
0.87465	34.52
0.89132	34.51
0.90798	34.51
0.92465	34.52
0.94132	34.52
0.95798	34.51
0.97465	34.52
0.99132	34.52
1.00798	34.52
1.02465	34.52
1.04132	34.53
1.05798	34.52
1.07465	34.52
1.09132	34.51
1.10798	34.52
1.12465	34.52
1.14132	34.52
1.15798	34.52
1.17465	34.51
1.19132	34.52
1.20798	34.52
1.22465	34.52
1.24132	34.51
1.25798	34.52
1.27465	34.52
1.29132	34.52
1.30798	34.52
1.32465	34.52
1.34132	34.52
1.35798	34.52
1.37465	34.52
1.39132	34.52
1.40798	34.52
1.42465	34.51
1.44132	34.52
1.45798	34.52
1.47465	34.52
1.49132	34.52
1.50798	34.52
1.52465	34.51
1.54132	34.52
1.55798	34.52
1.57465	34.52
1.59132	34.52
1.60798	34.52
1.62465	34.52
1.64132	34.52
1.65798	34.52
1.67465	34.52
1.69132	34.52
1.70798	34.52
1.72465	34.52
1.74132	34.52
1.75798	34.52
1.77465	34.52
1.79132	34.52
1.80798	34.52
1.82465	34.52
1.84132	34.52
1.85798	34.52
1.87465	34.52
1.89132	34.52
1.90798	34.52
1.92465	34.52
1.94132	34.52
1.95798	34.52
1.97465	34.52
1.99132	34.52
2.00798	34.52
2.02465	34.52
2.04132	34.52
2.05798	34.52
2.07465	34.52
2.09132	34.52
2.10798	34.52
2.12465	34.52
2.14132	34.52
2.15798	34.52
2.17465	34.52
2.19132	34.53
2.20798	34.52
2.22465	34.52
2.24132	34.52
2.25798	34.52
2.27465	34.52
2.29132	34.52
2.30798	34.52
2.32465	34.52
2.34132	34.52
2.35798	34.53
2.37465	34.52
2.39132	34.51
2.40798	34.52
2.42465	34.53
2.44132	34.52
2.45798	34.52
2.47465	34.51
2.49132	34.52
2.50798	34.35
2.52465	34.52
2.54132	34.52
2.55798	34.52
2.57465	34.52
2.59132	34.52
2.60798	34.52
2.62465	34.52
2.64132	34.52
2.65798	34.52
2.67465	34.52
2.69132	34.52
2.70798	34.52
2.72465	34.52
2.74132	34.52
2.75798	34.52
2.77465	34.52
2.79132	34.51
2.80798	34.52
2.82465	34.52
2.84132	34.52
2.85798	34.51
2.87465	34.52
2.89132	34.52
2.90798	34.52
2.92465	34.52
2.94132	34.52
2.95798	34.51
2.97465	34.52
2.99132	34.52
3.00798	34.52
3.02465	34.52
3.04132	34.52
3.05798	34.52
3.07465	34.52
3.09132	34.51
3.10798	34.52
3.12465	34.52
3.14132	34.52
3.15798	34.51
3.17465	34.52
3.19132	34.52
3.20798	34.52
3.22465	34.52
3.24132	34.52
3.25798	34.52
3.27465	34.52
3.29132	34.53
3.30798	34.52
3.32465	34.52
3.34132	34.52
3.35798	34.51
3.37465	34.52
3.39132	34.52
3.40798	34.52
3.42465	34.52
3.44132	34.51
3.45798	34.52
3.47465	34.52
3.49132	34.52
3.50798	34.52
3.52465	34.52
3.54132	34.52
3.55798	34.51
3.57465	34.52
3.59132	34.52
3.60798	34.52
3.62465	34.52
3.64132	34.52
3.65798	34.51
3.67465	34.52
3.69132	34.52
3.70798	34.52
3.72465	34.52
3.74132	34.52
3.75798	34.52
3.77465	34.52
3.79132	34.51
3.80798	34.52
3.82465	34.52
3.84132	34.52
3.85798	34.51
3.87465	34.53
3.89132	34.52
3.90798	34.52
3.92465	34.52
3.94132	34.52
3.95798	34.52
3.97465	34.52
3.99132	34.52

[Status Trace (Column Flow)]
Interval(msec)	1000
# of Points	240
Start Time(min)	0.008
End Time(min)	3.991
Intensity Units	
Intensity Multiplier	1
R.Time (min)	Intensity
0.00798	5.49
0.02465	5.19
0.04132	5.39
0.05798	5.63
0.07465	5.66
0.09132	5.50
0.10798	5.49
0.12465	5.50
0.14132	5.50
0.15798	5.50
0.17465	5.49
0.19132	5.49
0.20798	5.50
0.22465	5.50
0.24132	5.50
0.25798	5.50
0.27465	5.50
0.29132	5.50
0.30798	5.50
0.32465	5.50
0.34132	5.50
0.35798	5.50
0.37465	5.50
0.39132	5.50
0.40798	5.50
0.42465	5.50
0.44132	5.50
0.45798	5.50
0.47465	5.50
0.49132	5.50
0.50798	5.50
0.52465	5.50
0.54132	5.50
0.55798	5.50
0.57465	5.50
0.59132	5.50
0.60798	5.50
0.62465	5.50
0.64132	5.50
0.65798	5.50
0.67465	5.50
0.69132	5.50
0.70798	5.50
0.72465	5.50
0.74132	5.50
0.75798	5.50
0.77465	5.50
0.79132	5.50
0.80798	5.50
0.82465	5.50
0.84132	5.50
0.85798	5.50
0.87465	5.50
0.89132	5.50
0.90798	5.50
0.92465	5.50
0.94132	5.50
0.95798	5.50
0.97465	5.50
0.99132	5.50
1.00798	5.50
1.02465	5.50
1.04132	5.50
1.05798	5.50
1.07465	5.50
1.09132	5.50
1.10798	5.50
1.12465	5.50
1.14132	5.50
1.15798	5.50
1.17465	5.50
1.19132	5.50
1.20798	5.50
1.22465	5.50
1.24132	5.50
1.25798	5.50
1.27465	5.50
1.29132	5.50
1.30798	5.50
1.32465	5.50
1.34132	5.50
1.35798	5.50
1.37465	5.50
1.39132	5.50
1.40798	5.50
1.42465	5.50
1.44132	5.50
1.45798	5.50
1.47465	5.50
1.49132	5.50
1.50798	5.50
1.52465	5.50
1.54132	5.50
1.55798	5.50
1.57465	5.50
1.59132	5.50
1.60798	5.49
1.62465	5.49
1.64132	5.48
1.65798	5.48
1.67465	5.47
1.69132	5.46
1.70798	5.45
1.72465	5.43
1.74132	5.42
1.75798	5.41
1.77465	5.40
1.79132	5.39
1.80798	5.38
1.82465	5.37
1.84132	5.36
1.85798	5.35
1.87465	5.34
1.89132	5.33
1.90798	5.32
1.92465	5.31
1.94132	5.30
1.95798	5.30
1.97465	5.29
1.99132	5.28
2.00798	5.27
2.02465	5.26
2.04132	5.25
2.05798	5.24
2.07465	5.23
2.09132	5.22
2.10798	5.21
2.12465	5.20
2.14132	5.19
2.15798	5.18
2.17465	5.17
2.19132	5.16
2.20798	5.15
2.22465	5.14
2.24132	5.13
2.25798	5.13
2.27465	5.12
2.29132	5.11
2.30798	5.10
2.32465	5.09
2.34132	5.08
2.35798	5.07
2.37465	5.07
2.39132	5.06
2.40798	5.06
2.42465	5.06
2.44132	5.06
2.45798	5.06
2.47465	5.06
2.49132	5.06
2.50798	5.06
2.52465	5.06
2.54132	5.06
2.55798	5.06
2.57465	5.06
2.59132	5.06
2.60798	5.06
2.62465	5.06
2.64132	5.06
2.65798	5.06
2.67465	5.06
2.69132	5.06
2.70798	5.06
2.72465	5.06
2.74132	5.06
2.75798	5.06
2.77465	5.06
2.79132	5.06
2.80798	5.06
2.82465	5.06
2.84132	5.06
2.85798	5.06
2.87465	5.06
2.89132	5.06
2.90798	5.06
2.92465	5.06
2.94132	5.06
2.95798	5.06
2.97465	5.06
2.99132	5.06
3.00798	5.06
3.02465	5.06
3.04132	5.06
3.05798	5.05
3.07465	5.05
3.09132	5.05
3.10798	5.05
3.12465	5.05
3.14132	5.05
3.15798	5.05
3.17465	5.05
3.19132	5.05
3.20798	5.05
3.22465	5.05
3.24132	5.05
3.25798	5.05
3.27465	5.05
3.29132	5.05
3.30798	5.05
3.32465	5.05
3.34132	5.05
3.35798	5.05
3.37465	5.05
3.39132	5.05
3.40798	5.05
3.42465	5.05
3.44132	5.05
3.45798	5.05
3.47465	5.05
3.49132	5.05
3.50798	5.05
3.52465	5.05
3.54132	5.05
3.55798	5.05
3.57465	5.05
3.59132	5.05
3.60798	5.05
3.62465	5.05
3.64132	5.05
3.65798	5.05
3.67465	5.05
3.69132	5.05
3.70798	5.05
3.72465	5.05
3.74132	5.05
3.75798	5.05
3.77465	5.05
3.79132	5.05
3.80798	5.05
3.82465	5.05
3.84132	5.05
3.85798	5.05
3.87465	5.05
3.89132	5.05
3.90798	5.05
3.92465	5.05
3.94132	5.05
3.95798	5.05
3.97465	5.05
3.99132	5.05

[Status Trace (Linear Velocity)]
Interval(msec)	1000
# of Points	240
Start Time(min)	0.008
End Time(min)	3.991
Intensity Units	
Intensity Multiplier	1
R.Time (min)	Intensity
0.00798	39.00
0.02465	37.29
0.04132	38.43
0.05798	39.78
0.07465	39.96
0.09132	39.05
0.10798	38.99
0.12465	39.01
0.14132	39.01
0.15798	39.01
0.17465	39.01
0.19132	39.01
0.20798	39.01
0.22465	39.01
0.24132	39.01
0.25798	39.01
0.27465	39.01
0.29132	39.01
0.30798	39.01
0.32465	39.01
0.34132	39.01
0.35798	39.01
0.37465	39.01
0.39132	39.01
0.40798	39.01
0.42465	39.01
0.44132	39.01
0.45798	39.01
0.47465	39.01
0.49132	39.01
0.50798	39.01
0.52465	39.01
0.54132	39.01
0.55798	39.01
0.57465	39.01
0.59132	39.01
0.60798	39.01
0.62465	39.01
0.64132	39.01
0.65798	39.01
0.67465	39.01
0.69132	39.01
0.70798	39.01
0.72465	39.01
0.74132	39.01
0.75798	39.01
0.77465	39.01
0.79132	39.01
0.80798	39.01
0.82465	39.01
0.84132	39.01
0.85798	39.01
0.87465	39.01
0.89132	39.01
0.90798	39.01
0.92465	39.01
0.94132	39.01
0.95798	39.01
0.97465	39.01
0.99132	39.01
1.00798	39.01
1.02465	39.01
1.04132	39.01
1.05798	39.01
1.07465	39.01
1.09132	39.01
1.10798	39.01
1.12465	39.01
1.14132	39.01
1.15798	39.01
1.17465	39.01
1.19132	39.01
1.20798	39.01
1.22465	39.01
1.24132	39.01
1.25798	39.01
1.27465	39.01
1.29132	39.01
1.30798	39.01
1.32465	39.01
1.34132	39.01
1.35798	39.01
1.37465	39.01
1.39132	39.01
1.40798	39.01
1.42465	39.01
1.44132	39.01
1.45798	39.01
1.47465	39.01
1.49132	39.01
1.50798	39.01
1.52465	39.01
1.54132	39.01
1.55798	39.01
1.57465	39.01
1.59132	39.01
1.60798	39.00
1.62465	38.99
1.64132	38.98
1.65798	38.95
1.67465	38.92
1.69132	38.89
1.70798	38.85
1.72465	38.82
1.74132	38.79
1.75798	38.76
1.77465	38.73
1.79132	38.69
1.80798	38.66
1.82465	38.63
1.84132	38.60
1.85798	38.57
1.87465	38.54
1.89132	38.51
1.90798	38.48
1.92465	38.45
1.94132	38.42
1.95798	38.39
1.97465	38.36
1.99132	38.33
2.00798	38.30
2.02465	38.27
2.04132	38.24
2.05798	38.21
2.07465	38.18
2.09132	38.15
2.10798	38.12
2.12465	38.09
2.14132	38.06
2.15798	38.03
2.17465	38.00
2.19132	37.97
2.20798	37.94
2.22465	37.91
2.24132	37.88
2.25798	37.85
2.27465	37.82
2.29132	37.79
2.30798	37.76
2.32465	37.73
2.34132	37.70
2.35798	37.68
2.37465	37.66
2.39132	37.65
2.40798	37.65
2.42465	37.65
2.44132	37.65
2.45798	37.65
2.47465	37.65
2.49132	37.65
2.50798	37.65
2.52465	37.64
2.54132	37.64
2.55798	37.65
2.57465	37.64
2.59132	37.64
2.60798	37.64
2.62465	37.64
2.64132	37.64
2.65798	37.64
2.67465	37.64
2.69132	37.64
2.70798	37.64
2.72465	37.64
2.74132	37.64
2.75798	37.64
2.77465	37.64
2.79132	37.64
2.80798	37.64
2.82465	37.64
2.84132	37.64
2.85798	37.64
2.87465	37.64
2.89132	37.64
2.90798	37.63
2.92465	37.63
2.94132	37.63
2.95798	37.63
2.97465	37.63
2.99132	37.63
3.00798	37.63
3.02465	37.63
3.04132	37.63
3.05798	37.63
3.07465	37.63
3.09132	37.63
3.10798	37.62
3.12465	37.62
3.14132	37.62
3.15798	37.62
3.17465	37.62
3.19132	37.62
3.20798	37.62
3.22465	37.62
3.24132	37.62
3.25798	37.62
3.27465	37.62
3.29132	37.62
3.30798	37.62
3.32465	37.62
3.34132	37.62
3.35798	37.62
3.37465	37.62
3.39132	37.62
3.40798	37.62
3.42465	37.62
3.44132	37.62
3.45798	37.62
3.47465	37.62
3.49132	37.62
3.50798	37.62
3.52465	37.62
3.54132	37.63
3.55798	37.63
3.57465	37.63
3.59132	37.62
3.60798	37.62
3.62465	37.62
3.64132	37.62
3.65798	37.63
3.67465	37.62
3.69132	37.62
3.70798	37.62
3.72465	37.62
3.74132	37.62
3.75798	37.62
3.77465	37.62
3.79132	37.62
3.80798	37.62
3.82465	37.62
3.84132	37.62
3.85798	37.62
3.87465	37.62
3.89132	37.62
3.90798	37.62
3.92465	37.62
3.94132	37.62
3.95798	37.62
3.97465	37.62
3.99132	37.62

