[Header]
Application Name	LabSolutions
Version	5.110
Data File Name	C:\Users\User\Desktop\Junior\UIC Prairie Sampling\6.15.23\06152023_065.gcd
Output Date	6/26/2023
Output Time	12:05:11 PM

[File Information]
Type	Data File
Generated	6/23/2023 6:44:07 PM
Generated by	System Administrator
Modified	6/23/2023 6:51:29 PM
Modified by	System Administrator

[Sample Information]
Operator Name	System Administrator
Acquired	6/23/2023 6:47:28 PM
Sample Type	0:Unknown
Level	0
Sample Name	065
Sample ID	065
ISTD Amount1	1
ISTD Amount2	1
ISTD Amount3	1
ISTD Amount4	1
ISTD Amount5	1
ISTD Amount6	1
ISTD Amount7	1
ISTD Amount8	1
ISTD Amount9	1
ISTD Amount10	1
ISTD Amount11	1
ISTD Amount12	1
ISTD Amount13	1
ISTD Amount14	1
ISTD Amount15	1
ISTD Amount16	1
ISTD Amount17	1
ISTD Amount18	1
ISTD Amount19	1
ISTD Amount20	1
ISTD Amount21	1
ISTD Amount22	1
ISTD Amount23	1
ISTD Amount24	1
ISTD Amount25	1
ISTD Amount26	1
ISTD Amount27	1
ISTD Amount28	1
ISTD Amount29	1
ISTD Amount30	1
ISTD Amount31	1
ISTD Amount32	1
Sample Amount	1
Dilution Factor	1
Vial#	64
Injection Volume	1
Injection Count	1
Bar Code	

[Original Files]
Data File	C:\Users\User\Desktop\Junior\UIC Prairie Sampling\6.15.23\06152023_065.gcd
Method File	C:\LabSolutions\Data\GHG_4min_2022\ghg3_togas_w_acet_4 min_new_int.gcm
Batch File	C:\LabSolutions\Data\AutoSamplerTesting\06152023.gcb
Report Format File	c:\LabSolutions\System\DEFAULT.lsr

[File Description]


[Configuration]
Instrument Name	C0B7VH3-Instrument1
Instrument #	1
Line #	1
# of Detectors	3
Detector ID	DET#1	DET#2	DET#3
Detector Name	FID	PTCD	ECD
# of Channels	1	1	1

[Peak Table(Ch1)]
# of Peaks	3
Peak#	R.Time	I.Time	F.Time	Area	Height	A/H	Conc.	Mark	ID#	Name	k'	Plate #	Plate Ht.	Tailing	Resolution	Sep.Factor	Area Ratio	Height Ratio	Conc. %	Norm Conc.
1	1.472	1.443	1.527	3005	1514	1.985	0.000	   	1	CO	0.000	10090	14.866	1.417	0.000	0.000	0	0	0.000	0.000
2	1.564	1.527	1.630	4324	2175	1.988	21.081	 V 	2	CH4	0.062	11523	13.017	1.131	1.569	0.000	0	0	4.829	4.829
3	1.989	1.945	2.524	2155881	1032297	2.088	415.478	   	3	CO2	0.351	17428	8.607	1.294	7.177	5.640	0	0	95.171	95.171

[Peak Table(Ch2)]
# of Peaks	0

[Peak Table(Ch3)]
# of Peaks	6
Peak#	R.Time	I.Time	F.Time	Area	Height	A/H	Conc.	Mark	ID#	Name	k'	Plate #	Plate Ht.	Tailing	Resolution	Sep.Factor	Area Ratio	Height Ratio	Conc. %	Norm Conc.
1	2.095	1.963	2.183	110	16	6.889	0.000	   			0.000	4426	33.892	0.822	0.000	0.000	0	0	0.000	0.000
2	2.458	2.407	2.510	1072	403	2.657	0.000	   			0.173	13693	10.955	0.000	3.457	0.000	0	0	0.000	0.000
3	2.528	2.510	2.550	322	157	2.049	0.000	 V 			0.206	6772	22.151	0.000	0.673	1.192	0	0	0.000	0.000
4	2.612	2.550	2.678	4046	756	5.350	0.000	 V 			0.247	2398	62.541	0.000	0.502	1.195	0	0	0.000	0.000
5	2.752	2.678	2.829	5221	629	8.304	0.077	 V 	1	N2O	0.313	203	737.642	0.000	0.283	1.270	0	0	12.584	12.584
6	2.887	2.829	3.877	36266	5203	6.970	0.536	 V 	1	N2O	0.378	11816	12.695	0.000	0.309	1.207	0	0	87.416	87.416

[Compound Results(Ch1)]
# of IDs	6
ID#	Name	R.Time	Area	Height	Conc.	Curve	3rd	2nd	1st	Constant	Area Ratio	Height Ratio	Conc. %	Norm Conc.
1	CO	1.472	3005	1514	0.000	Linear	0.000000e+00	0.000000e+00	0.000000e+00	0.000000e+00	0	0	0.000	0.000
2	CH4	1.564	4324	2175	21.081	Linear	0.000000e+00	0.000000e+00	2.051179e+002	0.000000e+00	0	0	4.829	4.829
3	CO2	1.989	2155881	1032297	415.478	Linear	0.000000e+00	0.000000e+00	5.188919e+003	0.000000e+00	0	0	95.171	95.171
4	Ethylene	0.000	0	0	0.000	Linear	0.000000e+00	0.000000e+00	0.000000e+00	0.000000e+00	0	0	0.000	0.000
5	Acetylene	0.000	0	0	0.000	Linear	0.000000e+00	0.000000e+00	0.000000e+00	0.000000e+00	0	0	0.000	0.000
6	Ethane	0.000	0	0	0.000	Linear	0.000000e+00	0.000000e+00	0.000000e+00	0.000000e+00	0	0	0.000	0.000

[Compound Results(Ch2)]
# of IDs	5
ID#	Name	R.Time	Area	Height	Conc.	Curve	3rd	2nd	1st	Constant	Area Ratio	Height Ratio	Conc. %	Norm Conc.
1	Hydrogen	0.000	0	0	0.000	Linear	0.000000e+00	0.000000e+00	0.000000e+00	0.000000e+00	0	0	0.000	0.000
2	Oxygen	0.000	0	0	0.000	Linear	0.000000e+00	0.000000e+00	0.000000e+00	0.000000e+00	0	0	0.000	0.000
3	Nitrogen	0.000	0	0	0.000	Linear	0.000000e+00	0.000000e+00	0.000000e+00	0.000000e+00	0	0	0.000	0.000
4	Methane	0.000	0	0	0.000	Linear	0.000000e+00	0.000000e+00	0.000000e+00	0.000000e+00	0	0	0.000	0.000
5	Carbon Monoxide	0.000	0	0	0.000	Linear	0.000000e+00	0.000000e+00	0.000000e+00	0.000000e+00	0	0	0.000	0.000

[Compound Results(Ch3)]
# of IDs	2
ID#	Name	R.Time	Area	Height	Conc.	Curve	3rd	2nd	1st	Constant	Area Ratio	Height Ratio	Conc. %	Norm Conc.
1	N2O	2.887	41487	5832	0.614	Linear	0.000000e+00	0.000000e+00	6.759880e+004	0.000000e+00	0	0	100.000	100.000
2	SF6	0.000	0	0	0.000	Linear	0.000000e+00	0.000000e+00	0.000000e+00	0.000000e+00	0	0	0.000	0.000

[Group Results(Ch1)]
# of Groups	0

[Group Results(Ch2)]
# of Groups	0

[Group Results(Ch3)]
# of Groups	0

[Chromatogram (Ch1)]
Interval(msec)	220
# of Points	1091
Start Time(min)	0.002
End Time(min)	3.998
R.Time (min)	Intensity
0.00167	-7
0.00533	-1
0.00900	5
0.01267	9
0.01633	12
0.02000	13
0.02367	17
0.02733	21
0.03100	22
0.03467	22
0.03833	23
0.04200	24
0.04567	21
0.04933	16
0.05300	13
0.05667	15
0.06033	21
0.06400	27
0.06767	30
0.07133	29
0.07500	26
0.07867	20
0.08233	11
0.08600	2
0.08967	-2
0.09333	-2
0.09700	0
0.10067	0
0.10433	-1
0.10800	1
0.11167	7
0.11533	16
0.11900	20
0.12267	21
0.12633	21
0.13000	18
0.13367	14
0.13733	11
0.14100	7
0.14467	4
0.14833	4
0.15200	9
0.15567	16
0.15933	25
0.16300	33
0.16667	35
0.17033	31
0.17400	24
0.17767	20
0.18133	16
0.18500	10
0.18867	8
0.19233	11
0.19600	13
0.19967	12
0.20333	11
0.20700	10
0.21067	10
0.21433	8
0.21800	6
0.22167	8
0.22533	9
0.22900	9
0.23267	7
0.23633	6
0.24000	6
0.24367	8
0.24733	12
0.25100	20
0.25467	26
0.25833	28
0.26200	22
0.26567	13
0.26933	6
0.27300	-0
0.27667	-4
0.28033	-2
0.28400	6
0.28767	12
0.29133	15
0.29500	15
0.29867	18
0.30233	24
0.30600	30
0.30967	31
0.31333	28
0.31700	18
0.32067	9
0.32433	2
0.32800	-5
0.33167	-9
0.33533	-10
0.33900	-13
0.34267	-18
0.34633	-20
0.35000	-20
0.35367	-17
0.35733	-14
0.36100	-11
0.36467	-5
0.36833	1
0.37200	7
0.37567	10
0.37933	5
0.38300	-4
0.38667	-10
0.39033	-10
0.39400	-9
0.39767	-10
0.40133	-11
0.40500	-6
0.40867	-1
0.41233	2
0.41600	3
0.41967	2
0.42333	-3
0.42700	-8
0.43067	-9
0.43433	-5
0.43800	-1
0.44167	-1
0.44533	-1
0.44900	-2
0.45267	-5
0.45633	-8
0.46000	-13
0.46367	-16
0.46733	-16
0.47100	-15
0.47467	-15
0.47833	-15
0.48200	-14
0.48567	-11
0.48933	-7
0.49300	-2
0.49667	2
0.50033	2
0.50400	2
0.50767	2
0.51133	4
0.51500	8
0.51867	12
0.52233	12
0.52600	7
0.52967	-2
0.53333	-8
0.53700	-10
0.54067	-11
0.54433	-11
0.54800	-11
0.55167	-6
0.55533	3
0.55900	11
0.56267	14
0.56633	11
0.57000	3
0.57367	-8
0.57733	-18
0.58100	-23
0.58467	-23
0.58833	-22
0.59200	-21
0.59567	-18
0.59933	-15
0.60300	-12
0.60667	-11
0.61033	-11
0.61400	-11
0.61767	-11
0.62133	-8
0.62500	-3
0.62867	1
0.63233	-0
0.63600	-6
0.63967	-10
0.64333	-12
0.64700	-16
0.65067	-23
0.65433	-28
0.65800	-33
0.66167	-36
0.66533	-37
0.66900	-37
0.67267	-36
0.67633	-33
0.68000	-30
0.68367	-29
0.68733	-26
0.69100	-22
0.69467	-18
0.69833	-16
0.70200	-17
0.70567	-21
0.70933	-25
0.71300	-28
0.71667	-29
0.72033	-26
0.72400	-22
0.72767	-19
0.73133	-17
0.73500	-14
0.73867	-10
0.74233	-5
0.74600	-2
0.74967	-3
0.75333	-3
0.75700	-2
0.76067	1
0.76433	2
0.76800	-1
0.77167	-7
0.77533	-13
0.77900	-16
0.78267	-18
0.78633	-15
0.79000	-6
0.79367	6
0.79733	11
0.80100	3
0.80467	-11
0.80833	-27
0.81200	-37
0.81567	-43
0.81933	-46
0.82300	-49
0.82667	-50
0.83033	-47
0.83400	-40
0.83767	-31
0.84133	-19
0.84500	-9
0.84867	-8
0.85233	-15
0.85600	-25
0.85967	-33
0.86333	-36
0.86700	-37
0.87067	-34
0.87433	-26
0.87800	-15
0.88167	-4
0.88533	3
0.88900	3
0.89267	-3
0.89633	-11
0.90000	-18
0.90367	-21
0.90733	-23
0.91100	-29
0.91467	-36
0.91833	-42
0.92200	-42
0.92567	-39
0.92933	-35
0.93300	-32
0.93667	-29
0.94033	-26
0.94400	-25
0.94767	-24
0.95133	-20
0.95500	-14
0.95867	-12
0.96233	-14
0.96600	-15
0.96967	-16
0.97333	-15
0.97700	-13
0.98067	-13
0.98433	-13
0.98800	-10
0.99167	-8
0.99533	-6
0.99900	-7
1.00267	-11
1.00633	-20
1.01000	-31
1.01367	-41
1.01733	-49
1.02100	-54
1.02467	-54
1.02833	-50
1.03200	-41
1.03567	-30
1.03933	-24
1.04300	-24
1.04667	-25
1.05033	-26
1.05400	-28
1.05767	-30
1.06133	-28
1.06500	-23
1.06867	-18
1.07233	-12
1.07600	-9
1.07967	-11
1.08333	-16
1.08700	-19
1.09067	-17
1.09433	-14
1.09800	-15
1.10167	-24
1.10533	-33
1.10900	-39
1.11267	-39
1.11633	-34
1.12000	-26
1.12367	-14
1.12733	-4
1.13100	-6
1.13467	-15
1.13833	-30
1.14200	-45
1.14567	-53
1.14933	-53
1.15300	-50
1.15667	-47
1.16033	-45
1.16400	-46
1.16767	-46
1.17133	-42
1.17500	-37
1.17867	-33
1.18233	-31
1.18600	-27
1.18967	-26
1.19333	-24
1.19700	-20
1.20067	-13
1.20433	-9
1.20800	-12
1.21167	-17
1.21533	-18
1.21900	-16
1.22267	-19
1.22633	-24
1.23000	-30
1.23367	-33
1.23733	-34
1.24100	-32
1.24467	-32
1.24833	-35
1.25200	-42
1.25567	-48
1.25933	-55
1.26300	-60
1.26667	-61
1.27033	-60
1.27400	-55
1.27767	-50
1.28133	-43
1.28500	-35
1.28867	-30
1.29233	-29
1.29600	-29
1.29967	-30
1.30333	-33
1.30700	-32
1.31067	-30
1.31433	-30
1.31800	-29
1.32167	-31
1.32533	-33
1.32900	-32
1.33267	-34
1.33633	-39
1.34000	-41
1.34367	-40
1.34733	-34
1.35100	-27
1.35467	-19
1.35833	-14
1.36200	-13
1.36567	-17
1.36933	-19
1.37300	-22
1.37667	-25
1.38033	-31
1.38400	-37
1.38767	-39
1.39133	-36
1.39500	-31
1.39867	-22
1.40233	-12
1.40600	-3
1.40967	-0
1.41333	-2
1.41700	-7
1.42067	-17
1.42433	-30
1.42800	-44
1.43167	-53
1.43533	-50
1.43900	-35
1.44267	-29
1.44633	-8
1.45000	112
1.45367	350
1.45733	643
1.46100	933
1.46467	1188
1.46833	1381
1.47200	1481
1.47567	1462
1.47933	1325
1.48300	1106
1.48667	862
1.49033	639
1.49400	458
1.49767	324
1.50133	228
1.50500	159
1.50867	108
1.51233	69
1.51600	39
1.51967	21
1.52333	12
1.52700	7
1.53067	10
1.53433	48
1.53800	177
1.54167	449
1.54533	844
1.54900	1275
1.55267	1659
1.55633	1950
1.56000	2117
1.56367	2133
1.56733	1983
1.57100	1699
1.57467	1346
1.57833	999
1.58200	703
1.58567	472
1.58933	304
1.59300	188
1.59667	109
1.60033	57
1.60400	26
1.60767	9
1.61133	-0
1.61500	-9
1.61867	-21
1.62233	-32
1.62600	-42
1.62967	-49
1.63333	-54
1.63700	-58
1.64067	-61
1.64433	-62
1.64800	-60
1.65167	-57
1.65533	-54
1.65900	-53
1.66267	-53
1.66633	-52
1.67000	-50
1.67367	-47
1.67733	-46
1.68100	-48
1.68467	-53
1.68833	-55
1.69200	-53
1.69567	-51
1.69933	-50
1.70300	-47
1.70667	-45
1.71033	-44
1.71400	-46
1.71767	-47
1.72133	-44
1.72500	-37
1.72867	-33
1.73233	-36
1.73600	-42
1.73967	-49
1.74333	-55
1.74700	-57
1.75067	-59
1.75433	-60
1.75800	-59
1.76167	-60
1.76533	-65
1.76900	-68
1.77267	-72
1.77633	-76
1.78000	-76
1.78367	-71
1.78733	-64
1.79100	-56
1.79467	-48
1.79833	-44
1.80200	-39
1.80567	-34
1.80933	-29
1.81300	-30
1.81667	-36
1.82033	-45
1.82400	-53
1.82767	-60
1.83133	-63
1.83500	-65
1.83867	-65
1.84233	-64
1.84600	-62
1.84967	-57
1.85333	-52
1.85700	-46
1.86067	-41
1.86433	-36
1.86800	-31
1.87167	-27
1.87533	-28
1.87900	-40
1.88267	-53
1.88633	-66
1.89000	-76
1.89367	-84
1.89733	-87
1.90100	-87
1.90467	-84
1.90833	-85
1.91200	-91
1.91567	-95
1.91933	-95
1.92300	-89
1.92667	-81
1.93033	-73
1.93400	-67
1.93767	-63
1.94133	-61
1.94500	-42
1.94867	105
1.95233	1020
1.95600	5428
1.95967	21263
1.96333	64499
1.96700	155268
1.97067	303181
1.97433	494306
1.97800	695247
1.98167	868832
1.98533	986611
1.98900	1032297
1.99267	1002472
1.99633	907487
2.00000	769650
2.00367	615904
2.00733	469479
2.01100	344683
2.01467	246590
2.01833	173838
2.02200	122008
2.02567	86054
2.02933	61512
2.03300	44883
2.03667	33617
2.04033	25930
2.04400	20620
2.04767	16887
2.05133	14200
2.05500	12218
2.05867	10721
2.06233	9559
2.06600	8631
2.06967	7875
2.07333	7249
2.07700	6716
2.08067	6256
2.08433	5858
2.08800	5507
2.09167	5195
2.09533	4917
2.09900	4664
2.10267	4435
2.10633	4226
2.11000	4033
2.11367	3858
2.11733	3702
2.12100	3559
2.12467	3426
2.12833	3299
2.13200	3176
2.13567	3055
2.13933	2941
2.14300	2836
2.14667	2739
2.15033	2648
2.15400	2563
2.15767	2484
2.16133	2417
2.16500	2358
2.16867	2301
2.17233	2241
2.17600	2175
2.17967	2109
2.18333	2044
2.18700	1985
2.19067	1931
2.19433	1879
2.19800	1829
2.20167	1781
2.20533	1735
2.20900	1693
2.21267	1653
2.21633	1616
2.22000	1581
2.22367	1546
2.22733	1514
2.23100	1486
2.23467	1459
2.23833	1432
2.24200	1402
2.24567	1372
2.24933	1344
2.25300	1314
2.25667	1289
2.26033	1269
2.26400	1250
2.26767	1227
2.27133	1202
2.27500	1176
2.27867	1154
2.28233	1138
2.28600	1122
2.28967	1103
2.29333	1083
2.29700	1064
2.30067	1048
2.30433	1032
2.30800	1013
2.31167	993
2.31533	974
2.31900	956
2.32267	940
2.32633	925
2.33000	912
2.33367	903
2.33733	899
2.34100	892
2.34467	880
2.34833	867
2.35200	850
2.35567	828
2.35933	804
2.36300	781
2.36667	765
2.37033	755
2.37400	747
2.37767	742
2.38133	737
2.38500	734
2.38867	732
2.39233	731
2.39600	730
2.39967	724
2.40333	716
2.40700	704
2.41067	689
2.41433	675
2.41800	665
2.42167	663
2.42533	661
2.42900	656
2.43267	647
2.43633	635
2.44000	624
2.44367	615
2.44733	610
2.45100	607
2.45467	605
2.45833	600
2.46200	594
2.46567	589
2.46933	583
2.47300	571
2.47667	558
2.48033	549
2.48400	541
2.48767	535
2.49133	527
2.49500	520
2.49867	516
2.50233	516
2.50600	519
2.50967	521
2.51333	520
2.51700	519
2.52067	516
2.52433	507
2.52800	495
2.53167	485
2.53533	479
2.53900	476
2.54267	474
2.54633	470
2.55000	464
2.55367	459
2.55733	453
2.56100	444
2.56467	434
2.56833	422
2.57200	413
2.57567	407
2.57933	406
2.58300	405
2.58667	408
2.59033	416
2.59400	421
2.59767	415
2.60133	400
2.60500	383
2.60867	374
2.61233	368
2.61600	365
2.61967	363
2.62333	364
2.62700	364
2.63067	362
2.63433	359
2.63800	361
2.64167	366
2.64533	372
2.64900	376
2.65267	377
2.65633	372
2.66000	364
2.66367	356
2.66733	344
2.67100	333
2.67467	326
2.67833	321
2.68200	319
2.68567	320
2.68933	322
2.69300	323
2.69667	323
2.70033	323
2.70400	322
2.70767	322
2.71133	323
2.71500	325
2.71867	327
2.72233	328
2.72600	326
2.72967	324
2.73333	324
2.73700	324
2.74067	322
2.74433	319
2.74800	315
2.75167	310
2.75533	306
2.75900	305
2.76267	307
2.76633	311
2.77000	314
2.77367	312
2.77733	307
2.78100	302
2.78467	295
2.78833	289
2.79200	286
2.79567	289
2.79933	297
2.80300	307
2.80667	312
2.81033	308
2.81400	299
2.81767	290
2.82133	286
2.82500	284
2.82867	285
2.83233	286
2.83600	284
2.83967	282
2.84333	282
2.84700	283
2.85067	286
2.85433	288
2.85800	286
2.86167	282
2.86533	279
2.86900	276
2.87267	270
2.87633	263
2.88000	256
2.88367	251
2.88733	248
2.89100	249
2.89467	253
2.89833	258
2.90200	262
2.90567	266
2.90933	268
2.91300	271
2.91667	271
2.92033	269
2.92400	264
2.92767	255
2.93133	248
2.93500	246
2.93867	246
2.94233	244
2.94600	240
2.94967	235
2.95333	232
2.95700	231
2.96067	233
2.96433	235
2.96800	237
2.97167	238
2.97533	240
2.97900	241
2.98267	242
2.98633	246
2.99000	254
2.99367	259
2.99733	262
3.00100	265
3.00467	269
3.00833	269
3.01200	269
3.01567	270
3.01933	270
3.02300	268
3.02667	263
3.03033	256
3.03400	250
3.03767	241
3.04133	228
3.04500	215
3.04867	205
3.05233	198
3.05600	196
3.05967	199
3.06333	200
3.06700	196
3.07067	190
3.07433	186
3.07800	183
3.08167	183
3.08533	186
3.08900	193
3.09267	200
3.09633	207
3.10000	214
3.10367	222
3.10733	228
3.11100	228
3.11467	221
3.11833	213
3.12200	205
3.12567	201
3.12933	200
3.13300	201
3.13667	203
3.14033	205
3.14400	207
3.14767	211
3.15133	218
3.15500	225
3.15867	229
3.16233	226
3.16600	218
3.16967	211
3.17333	206
3.17700	203
3.18067	200
3.18433	194
3.18800	186
3.19167	182
3.19533	184
3.19900	188
3.20267	193
3.20633	199
3.21000	205
3.21367	212
3.21733	218
3.22100	222
3.22467	219
3.22833	210
3.23200	197
3.23567	185
3.23933	178
3.24300	175
3.24667	175
3.25033	174
3.25400	175
3.25767	178
3.26133	179
3.26500	177
3.26867	176
3.27233	179
3.27600	180
3.27967	182
3.28333	187
3.28700	195
3.29067	203
3.29433	207
3.29800	206
3.30167	199
3.30533	192
3.30900	189
3.31267	189
3.31633	189
3.32000	188
3.32367	188
3.32733	188
3.33100	191
3.33467	195
3.33833	197
3.34200	196
3.34567	198
3.34933	199
3.35300	196
3.35667	190
3.36033	184
3.36400	180
3.36767	179
3.37133	178
3.37500	178
3.37867	178
3.38233	179
3.38600	178
3.38967	176
3.39333	174
3.39700	175
3.40067	175
3.40433	175
3.40800	176
3.41167	178
3.41533	182
3.41900	186
3.42267	188
3.42633	187
3.43000	184
3.43367	178
3.43733	174
3.44100	170
3.44467	168
3.44833	172
3.45200	173
3.45567	174
3.45933	174
3.46300	172
3.46667	169
3.47033	166
3.47400	163
3.47767	156
3.48133	147
3.48500	141
3.48867	138
3.49233	140
3.49600	145
3.49967	148
3.50333	151
3.50700	156
3.51067	161
3.51433	161
3.51800	159
3.52167	158
3.52533	156
3.52900	157
3.53267	161
3.53633	165
3.54000	169
3.54367	173
3.54733	174
3.55100	175
3.55467	175
3.55833	172
3.56200	168
3.56567	166
3.56933	165
3.57300	167
3.57667	167
3.58033	167
3.58400	168
3.58767	172
3.59133	174
3.59500	170
3.59867	160
3.60233	147
3.60600	134
3.60967	126
3.61333	120
3.61700	116
3.62067	113
3.62433	114
3.62800	123
3.63167	131
3.63533	135
3.63900	135
3.64267	132
3.64633	124
3.65000	115
3.65367	108
3.65733	108
3.66100	113
3.66467	121
3.66833	130
3.67200	137
3.67567	144
3.67933	151
3.68300	155
3.68667	156
3.69033	153
3.69400	149
3.69767	143
3.70133	137
3.70500	132
3.70867	132
3.71233	136
3.71600	139
3.71967	141
3.72333	139
3.72700	138
3.73067	139
3.73433	141
3.73800	142
3.74167	142
3.74533	143
3.74900	145
3.75267	149
3.75633	153
3.76000	156
3.76367	157
3.76733	156
3.77100	153
3.77467	150
3.77833	142
3.78200	129
3.78567	118
3.78933	113
3.79300	114
3.79667	121
3.80033	133
3.80400	140
3.80767	143
3.81133	144
3.81500	145
3.81867	147
3.82233	145
3.82600	139
3.82967	131
3.83333	124
3.83700	120
3.84067	116
3.84433	117
3.84800	119
3.85167	121
3.85533	122
3.85900	123
3.86267	121
3.86633	122
3.87000	128
3.87367	138
3.87733	149
3.88100	154
3.88467	151
3.88833	141
3.89200	128
3.89567	115
3.89933	106
3.90300	101
3.90667	100
3.91033	97
3.91400	95
3.91767	96
3.92133	100
3.92500	104
3.92867	106
3.93233	108
3.93600	109
3.93967	114
3.94333	123
3.94700	134
3.95067	145
3.95433	152
3.95800	151
3.96167	144
3.96533	133
3.96900	125
3.97267	118
3.97633	115
3.98000	116
3.98367	120
3.98733	124
3.99100	127
3.99467	126
3.99833	123

[Chromatogram (Ch2)]
Interval(msec)	220
# of Points	1091
Start Time(min)	0.002
End Time(min)	3.998
R.Time (min)	Intensity
0.00167	0
0.00533	0
0.00900	0
0.01267	0
0.01633	-0
0.02000	-0
0.02367	-0
0.02733	0
0.03100	0
0.03467	0
0.03833	0
0.04200	1
0.04567	0
0.04933	0
0.05300	0
0.05667	0
0.06033	0
0.06400	0
0.06767	0
0.07133	-0
0.07500	-0
0.07867	-0
0.08233	-0
0.08600	-0
0.08967	-0
0.09333	-0
0.09700	-0
0.10067	-0
0.10433	-0
0.10800	0
0.11167	0
0.11533	0
0.11900	0
0.12267	0
0.12633	0
0.13000	-0
0.13367	-1
0.13733	-1
0.14100	-1
0.14467	-1
0.14833	-1
0.15200	-1
0.15567	-1
0.15933	-1
0.16300	-1
0.16667	-1
0.17033	-2
0.17400	-2
0.17767	-2
0.18133	-2
0.18500	-3
0.18867	-3
0.19233	-4
0.19600	-4
0.19967	-4
0.20333	-4
0.20700	-5
0.21067	-5
0.21433	-5
0.21800	-5
0.22167	-5
0.22533	-5
0.22900	-5
0.23267	-5
0.23633	-5
0.24000	-5
0.24367	-4
0.24733	-4
0.25100	-4
0.25467	-4
0.25833	-3
0.26200	-3
0.26567	-3
0.26933	-3
0.27300	-3
0.27667	-3
0.28033	-3
0.28400	-3
0.28767	-3
0.29133	-3
0.29500	-3
0.29867	-3
0.30233	-3
0.30600	-3
0.30967	-3
0.31333	-3
0.31700	-3
0.32067	-3
0.32433	-2
0.32800	-2
0.33167	-2
0.33533	-2
0.33900	-1
0.34267	-1
0.34633	-1
0.35000	-0
0.35367	-0
0.35733	0
0.36100	0
0.36467	0
0.36833	0
0.37200	1
0.37567	1
0.37933	1
0.38300	1
0.38667	0
0.39033	-0
0.39400	-0
0.39767	-1
0.40133	-1
0.40500	-1
0.40867	-2
0.41233	-2
0.41600	-2
0.41967	-2
0.42333	-1
0.42700	-1
0.43067	-1
0.43433	-1
0.43800	-1
0.44167	-1
0.44533	-1
0.44900	-2
0.45267	-2
0.45633	-2
0.46000	-3
0.46367	-3
0.46733	-3
0.47100	-4
0.47467	-4
0.47833	-5
0.48200	-5
0.48567	-5
0.48933	-5
0.49300	-5
0.49667	-6
0.50033	-5
0.50400	-5
0.50767	-5
0.51133	-5
0.51500	-4
0.51867	-4
0.52233	-4
0.52600	-4
0.52967	-4
0.53333	-3
0.53700	-3
0.54067	-4
0.54433	-3
0.54800	-4
0.55167	-4
0.55533	-4
0.55900	-4
0.56267	-4
0.56633	-4
0.57000	-4
0.57367	-4
0.57733	-4
0.58100	-4
0.58467	-4
0.58833	-4
0.59200	-4
0.59567	-4
0.59933	-5
0.60300	-5
0.60667	-5
0.61033	-5
0.61400	-4
0.61767	-4
0.62133	-4
0.62500	-4
0.62867	-4
0.63233	-4
0.63600	-3
0.63967	-3
0.64333	-2
0.64700	-2
0.65067	-2
0.65433	-1
0.65800	-1
0.66167	-0
0.66533	-0
0.66900	-0
0.67267	-0
0.67633	-1
0.68000	-1
0.68367	-2
0.68733	-3
0.69100	-3
0.69467	-4
0.69833	-5
0.70200	-5
0.70567	-5
0.70933	-5
0.71300	-5
0.71667	-5
0.72033	-5
0.72400	-5
0.72767	-4
0.73133	-4
0.73500	-4
0.73867	-4
0.74233	-4
0.74600	-4
0.74967	-4
0.75333	-4
0.75700	-4
0.76067	-4
0.76433	-4
0.76800	-4
0.77167	-3
0.77533	-3
0.77900	-3
0.78267	-3
0.78633	-4
0.79000	-4
0.79367	-4
0.79733	-4
0.80100	-4
0.80467	-4
0.80833	-4
0.81200	-4
0.81567	-4
0.81933	-4
0.82300	-4
0.82667	-4
0.83033	-4
0.83400	-4
0.83767	-4
0.84133	-4
0.84500	-4
0.84867	-4
0.85233	-4
0.85600	-4
0.85967	-4
0.86333	-4
0.86700	-3
0.87067	-3
0.87433	-3
0.87800	-3
0.88167	-3
0.88533	-3
0.88900	-3
0.89267	-3
0.89633	-3
0.90000	-3
0.90367	-3
0.90733	-3
0.91100	-4
0.91467	-4
0.91833	-4
0.92200	-4
0.92567	-4
0.92933	-4
0.93300	-4
0.93667	-5
0.94033	-5
0.94400	-5
0.94767	-6
0.95133	-6
0.95500	-6
0.95867	-6
0.96233	-6
0.96600	-6
0.96967	-5
0.97333	-5
0.97700	-5
0.98067	-4
0.98433	-4
0.98800	-4
0.99167	-3
0.99533	-3
0.99900	-2
1.00267	-2
1.00633	-2
1.01000	-2
1.01367	-2
1.01733	-2
1.02100	-2
1.02467	-2
1.02833	-2
1.03200	-2
1.03567	-2
1.03933	-3
1.04300	-3
1.04667	-3
1.05033	-3
1.05400	-3
1.05767	-4
1.06133	-4
1.06500	-4
1.06867	-5
1.07233	-5
1.07600	-6
1.07967	-6
1.08333	-6
1.08700	-6
1.09067	-6
1.09433	-6
1.09800	-6
1.10167	-7
1.10533	-7
1.10900	-7
1.11267	-7
1.11633	-7
1.12000	-6
1.12367	-6
1.12733	-6
1.13100	-5
1.13467	-5
1.13833	-5
1.14200	-5
1.14567	-5
1.14933	-5
1.15300	-4
1.15667	-4
1.16033	-4
1.16400	-4
1.16767	-4
1.17133	-4
1.17500	-3
1.17867	-3
1.18233	-2
1.18600	-2
1.18967	-2
1.19333	-2
1.19700	-2
1.20067	-2
1.20433	-2
1.20800	-2
1.21167	-3
1.21533	-3
1.21900	-4
1.22267	-4
1.22633	-4
1.23000	-4
1.23367	-5
1.23733	-5
1.24100	-6
1.24467	-6
1.24833	-6
1.25200	-7
1.25567	-7
1.25933	-7
1.26300	-7
1.26667	-7
1.27033	-7
1.27400	-7
1.27767	-6
1.28133	-6
1.28500	-6
1.28867	-6
1.29233	-6
1.29600	-5
1.29967	-5
1.30333	-5
1.30700	-5
1.31067	-5
1.31433	-6
1.31800	-6
1.32167	-6
1.32533	-6
1.32900	-7
1.33267	-7
1.33633	-7
1.34000	-8
1.34367	-7
1.34733	-7
1.35100	-7
1.35467	-7
1.35833	-7
1.36200	-6
1.36567	-6
1.36933	-6
1.37300	-6
1.37667	-5
1.38033	-5
1.38400	-5
1.38767	-5
1.39133	-5
1.39500	-5
1.39867	-5
1.40233	-4
1.40600	-4
1.40967	-4
1.41333	-3
1.41700	-3
1.42067	-3
1.42433	-3
1.42800	-3
1.43167	-3
1.43533	-3
1.43900	-3
1.44267	-3
1.44633	-3
1.45000	-3
1.45367	-4
1.45733	-4
1.46100	-4
1.46467	-5
1.46833	-5
1.47200	-6
1.47567	-6
1.47933	-7
1.48300	-7
1.48667	-7
1.49033	-7
1.49400	-7
1.49767	-7
1.50133	-7
1.50500	-7
1.50867	-7
1.51233	-7
1.51600	-7
1.51967	-8
1.52333	-8
1.52700	-8
1.53067	-8
1.53433	-8
1.53800	-9
1.54167	-9
1.54533	-9
1.54900	-9
1.55267	-10
1.55633	-10
1.56000	-10
1.56367	-9
1.56733	-9
1.57100	-9
1.57467	-9
1.57833	-9
1.58200	-9
1.58567	-9
1.58933	-9
1.59300	-9
1.59667	-9
1.60033	-10
1.60400	-10
1.60767	-11
1.61133	-13
1.61500	-14
1.61867	-16
1.62233	-18
1.62600	-21
1.62967	-23
1.63333	-26
1.63700	-29
1.64067	-33
1.64433	-36
1.64800	-39
1.65167	-43
1.65533	-46
1.65900	-50
1.66267	-53
1.66633	-57
1.67000	-61
1.67367	-65
1.67733	-70
1.68100	-74
1.68467	-78
1.68833	-82
1.69200	-86
1.69567	-89
1.69933	-92
1.70300	-94
1.70667	-96
1.71033	-97
1.71400	-98
1.71767	-99
1.72133	-100
1.72500	-100
1.72867	-101
1.73233	-101
1.73600	-102
1.73967	-103
1.74333	-103
1.74700	-103
1.75067	-104
1.75433	-103
1.75800	-103
1.76167	-103
1.76533	-103
1.76900	-103
1.77267	-103
1.77633	-104
1.78000	-104
1.78367	-105
1.78733	-105
1.79100	-106
1.79467	-106
1.79833	-106
1.80200	-106
1.80567	-106
1.80933	-106
1.81300	-107
1.81667	-107
1.82033	-107
1.82400	-107
1.82767	-106
1.83133	-106
1.83500	-106
1.83867	-106
1.84233	-107
1.84600	-107
1.84967	-107
1.85333	-108
1.85700	-108
1.86067	-107
1.86433	-107
1.86800	-107
1.87167	-107
1.87533	-106
1.87900	-106
1.88267	-105
1.88633	-105
1.89000	-105
1.89367	-105
1.89733	-104
1.90100	-103
1.90467	-103
1.90833	-103
1.91200	-103
1.91567	-103
1.91933	-103
1.92300	-103
1.92667	-103
1.93033	-103
1.93400	-102
1.93767	-102
1.94133	-101
1.94500	-101
1.94867	-101
1.95233	-101
1.95600	-101
1.95967	-101
1.96333	-101
1.96700	-100
1.97067	-100
1.97433	-100
1.97800	-100
1.98167	-100
1.98533	-100
1.98900	-100
1.99267	-99
1.99633	-99
2.00000	-98
2.00367	-98
2.00733	-97
2.01100	-97
2.01467	-96
2.01833	-96
2.02200	-96
2.02567	-95
2.02933	-95
2.03300	-95
2.03667	-95
2.04033	-95
2.04400	-95
2.04767	-95
2.05133	-95
2.05500	-95
2.05867	-95
2.06233	-95
2.06600	-95
2.06967	-95
2.07333	-94
2.07700	-94
2.08067	-93
2.08433	-92
2.08800	-91
2.09167	-91
2.09533	-90
2.09900	-89
2.10267	-88
2.10633	-88
2.11000	-88
2.11367	-88
2.11733	-88
2.12100	-88
2.12467	-89
2.12833	-89
2.13200	-89
2.13567	-89
2.13933	-89
2.14300	-89
2.14667	-89
2.15033	-88
2.15400	-87
2.15767	-87
2.16133	-86
2.16500	-85
2.16867	-85
2.17233	-85
2.17600	-84
2.17967	-84
2.18333	-84
2.18700	-84
2.19067	-84
2.19433	-84
2.19800	-84
2.20167	-84
2.20533	-84
2.20900	-83
2.21267	-82
2.21633	-82
2.22000	-81
2.22367	-81
2.22733	-82
2.23100	-82
2.23467	-83
2.23833	-83
2.24200	-83
2.24567	-83
2.24933	-82
2.25300	-81
2.25667	-80
2.26033	-79
2.26400	-78
2.26767	-78
2.27133	-78
2.27500	-77
2.27867	-77
2.28233	-76
2.28600	-76
2.28967	-77
2.29333	-77
2.29700	-77
2.30067	-77
2.30433	-77
2.30800	-76
2.31167	-76
2.31533	-75
2.31900	-74
2.32267	-74
2.32633	-73
2.33000	-73
2.33367	-73
2.33733	-73
2.34100	-73
2.34467	-73
2.34833	-73
2.35200	-72
2.35567	-71
2.35933	-70
2.36300	-68
2.36667	-66
2.37033	-64
2.37400	-61
2.37767	-57
2.38133	-54
2.38500	-50
2.38867	-46
2.39233	-41
2.39600	-37
2.39967	-32
2.40333	-28
2.40700	-24
2.41067	-20
2.41433	-17
2.41800	-14
2.42167	-12
2.42533	-9
2.42900	-7
2.43267	-5
2.43633	-3
2.44000	-1
2.44367	0
2.44733	1
2.45100	2
2.45467	3
2.45833	4
2.46200	5
2.46567	6
2.46933	7
2.47300	7
2.47667	8
2.48033	9
2.48400	10
2.48767	11
2.49133	12
2.49500	13
2.49867	13
2.50233	13
2.50600	13
2.50967	13
2.51333	13
2.51700	13
2.52067	13
2.52433	13
2.52800	13
2.53167	12
2.53533	11
2.53900	11
2.54267	10
2.54633	10
2.55000	10
2.55367	9
2.55733	9
2.56100	9
2.56467	9
2.56833	10
2.57200	11
2.57567	12
2.57933	12
2.58300	13
2.58667	13
2.59033	13
2.59400	13
2.59767	13
2.60133	13
2.60500	13
2.60867	13
2.61233	13
2.61600	13
2.61967	13
2.62333	14
2.62700	14
2.63067	14
2.63433	14
2.63800	15
2.64167	16
2.64533	16
2.64900	17
2.65267	17
2.65633	18
2.66000	18
2.66367	18
2.66733	19
2.67100	19
2.67467	20
2.67833	20
2.68200	20
2.68567	21
2.68933	21
2.69300	21
2.69667	21
2.70033	21
2.70400	21
2.70767	21
2.71133	21
2.71500	22
2.71867	22
2.72233	23
2.72600	23
2.72967	24
2.73333	24
2.73700	24
2.74067	24
2.74433	24
2.74800	24
2.75167	24
2.75533	24
2.75900	24
2.76267	24
2.76633	25
2.77000	25
2.77367	26
2.77733	26
2.78100	27
2.78467	27
2.78833	27
2.79200	27
2.79567	27
2.79933	27
2.80300	26
2.80667	26
2.81033	25
2.81400	25
2.81767	25
2.82133	24
2.82500	24
2.82867	23
2.83233	23
2.83600	23
2.83967	23
2.84333	23
2.84700	23
2.85067	23
2.85433	23
2.85800	22
2.86167	20
2.86533	16
2.86900	9
2.87267	-1
2.87633	-15
2.88000	-34
2.88367	-58
2.88733	-87
2.89100	-122
2.89467	-161
2.89833	-206
2.90200	-254
2.90567	-307
2.90933	-363
2.91300	-422
2.91667	-483
2.92033	-544
2.92400	-607
2.92767	-669
2.93133	-729
2.93500	-788
2.93867	-843
2.94233	-895
2.94600	-947
2.94967	-1001
2.95333	-1052
2.95700	-1091
2.96067	-1108
2.96433	-1101
2.96800	-1069
2.97167	-1017
2.97533	-951
2.97900	-875
2.98267	-794
2.98633	-714
2.99000	-635
2.99367	-561
2.99733	-491
3.00100	-428
3.00467	-371
3.00833	-320
3.01200	-275
3.01567	-235
3.01933	-200
3.02300	-170
3.02667	-143
3.03033	-120
3.03400	-100
3.03767	-83
3.04133	-69
3.04500	-57
3.04867	-46
3.05233	-38
3.05600	-30
3.05967	-24
3.06333	-18
3.06700	-14
3.07067	-10
3.07433	-6
3.07800	-4
3.08167	-1
3.08533	1
3.08900	3
3.09267	5
3.09633	6
3.10000	7
3.10367	9
3.10733	10
3.11100	10
3.11467	11
3.11833	11
3.12200	12
3.12567	12
3.12933	12
3.13300	13
3.13667	13
3.14033	13
3.14400	14
3.14767	14
3.15133	14
3.15500	14
3.15867	15
3.16233	15
3.16600	15
3.16967	16
3.17333	16
3.17700	16
3.18067	16
3.18433	17
3.18800	17
3.19167	17
3.19533	18
3.19900	18
3.20267	18
3.20633	18
3.21000	19
3.21367	19
3.21733	19
3.22100	20
3.22467	20
3.22833	20
3.23200	20
3.23567	21
3.23933	21
3.24300	21
3.24667	21
3.25033	21
3.25400	21
3.25767	21
3.26133	21
3.26500	21
3.26867	21
3.27233	22
3.27600	22
3.27967	22
3.28333	22
3.28700	22
3.29067	22
3.29433	22
3.29800	22
3.30167	23
3.30533	23
3.30900	23
3.31267	24
3.31633	24
3.32000	24
3.32367	24
3.32733	24
3.33100	24
3.33467	25
3.33833	25
3.34200	25
3.34567	25
3.34933	25
3.35300	25
3.35667	25
3.36033	25
3.36400	25
3.36767	26
3.37133	26
3.37500	26
3.37867	26
3.38233	26
3.38600	26
3.38967	26
3.39333	26
3.39700	26
3.40067	26
3.40433	26
3.40800	26
3.41167	25
3.41533	25
3.41900	25
3.42267	25
3.42633	25
3.43000	25
3.43367	25
3.43733	25
3.44100	25
3.44467	25
3.44833	25
3.45200	25
3.45567	25
3.45933	25
3.46300	25
3.46667	24
3.47033	24
3.47400	24
3.47767	24
3.48133	24
3.48500	24
3.48867	24
3.49233	24
3.49600	25
3.49967	25
3.50333	25
3.50700	25
3.51067	24
3.51433	24
3.51800	24
3.52167	24
3.52533	24
3.52900	25
3.53267	25
3.53633	25
3.54000	25
3.54367	25
3.54733	26
3.55100	26
3.55467	26
3.55833	27
3.56200	27
3.56567	27
3.56933	27
3.57300	27
3.57667	26
3.58033	26
3.58400	26
3.58767	26
3.59133	26
3.59500	27
3.59867	27
3.60233	27
3.60600	27
3.60967	27
3.61333	27
3.61700	27
3.62067	27
3.62433	27
3.62800	28
3.63167	28
3.63533	28
3.63900	29
3.64267	29
3.64633	29
3.65000	29
3.65367	28
3.65733	28
3.66100	28
3.66467	28
3.66833	28
3.67200	28
3.67567	28
3.67933	28
3.68300	28
3.68667	28
3.69033	28
3.69400	28
3.69767	28
3.70133	28
3.70500	28
3.70867	27
3.71233	27
3.71600	27
3.71967	27
3.72333	27
3.72700	27
3.73067	27
3.73433	27
3.73800	27
3.74167	27
3.74533	27
3.74900	27
3.75267	27
3.75633	27
3.76000	27
3.76367	27
3.76733	27
3.77100	27
3.77467	27
3.77833	27
3.78200	27
3.78567	27
3.78933	27
3.79300	27
3.79667	27
3.80033	27
3.80400	27
3.80767	27
3.81133	27
3.81500	27
3.81867	26
3.82233	26
3.82600	26
3.82967	25
3.83333	25
3.83700	25
3.84067	25
3.84433	25
3.84800	25
3.85167	25
3.85533	25
3.85900	25
3.86267	25
3.86633	25
3.87000	25
3.87367	25
3.87733	25
3.88100	25
3.88467	25
3.88833	25
3.89200	25
3.89567	25
3.89933	25
3.90300	25
3.90667	25
3.91033	25
3.91400	25
3.91767	25
3.92133	25
3.92500	25
3.92867	25
3.93233	25
3.93600	25
3.93967	25
3.94333	25
3.94700	25
3.95067	25
3.95433	25
3.95800	25
3.96167	25
3.96533	25
3.96900	25
3.97267	25
3.97633	26
3.98000	26
3.98367	26
3.98733	26
3.99100	26
3.99467	26
3.99833	27

[Chromatogram (Ch3)]
Interval(msec)	220
# of Points	1091
Start Time(min)	0.002
End Time(min)	3.998
R.Time (min)	Intensity
0.00167	-0
0.00533	-1
0.00900	1
0.01267	3
0.01633	4
0.02000	5
0.02367	5
0.02733	7
0.03100	6
0.03467	6
0.03833	4
0.04200	3
0.04567	5
0.04933	6
0.05300	7
0.05667	5
0.06033	3
0.06400	6
0.06767	7
0.07133	6
0.07500	4
0.07867	6
0.08233	7
0.08600	6
0.08967	5
0.09333	5
0.09700	5
0.10067	5
0.10433	4
0.10800	5
0.11167	5
0.11533	2
0.11900	0
0.12267	1
0.12633	2
0.13000	4
0.13367	6
0.13733	7
0.14100	7
0.14467	5
0.14833	3
0.15200	4
0.15567	4
0.15933	4
0.16300	4
0.16667	2
0.17033	3
0.17400	2
0.17767	2
0.18133	2
0.18500	3
0.18867	4
0.19233	6
0.19600	7
0.19967	6
0.20333	4
0.20700	2
0.21067	1
0.21433	1
0.21800	3
0.22167	4
0.22533	5
0.22900	4
0.23267	3
0.23633	4
0.24000	4
0.24367	5
0.24733	7
0.25100	8
0.25467	9
0.25833	10
0.26200	9
0.26567	6
0.26933	3
0.27300	1
0.27667	-1
0.28033	-2
0.28400	-1
0.28767	0
0.29133	4
0.29500	8
0.29867	9
0.30233	9
0.30600	10
0.30967	10
0.31333	9
0.31700	9
0.32067	9
0.32433	8
0.32800	7
0.33167	7
0.33533	5
0.33900	5
0.34267	7
0.34633	8
0.35000	9
0.35367	10
0.35733	11
0.36100	11
0.36467	10
0.36833	11
0.37200	11
0.37567	13
0.37933	14
0.38300	12
0.38667	9
0.39033	10
0.39400	12
0.39767	13
0.40133	12
0.40500	11
0.40867	11
0.41233	11
0.41600	9
0.41967	9
0.42333	8
0.42700	7
0.43067	8
0.43433	8
0.43800	8
0.44167	8
0.44533	8
0.44900	10
0.45267	13
0.45633	13
0.46000	14
0.46367	14
0.46733	13
0.47100	11
0.47467	10
0.47833	12
0.48200	12
0.48567	12
0.48933	14
0.49300	14
0.49667	12
0.50033	12
0.50400	11
0.50767	10
0.51133	12
0.51500	15
0.51867	15
0.52233	13
0.52600	10
0.52967	9
0.53333	9
0.53700	11
0.54067	12
0.54433	11
0.54800	12
0.55167	13
0.55533	13
0.55900	14
0.56267	15
0.56633	14
0.57000	14
0.57367	14
0.57733	13
0.58100	15
0.58467	16
0.58833	15
0.59200	14
0.59567	14
0.59933	15
0.60300	14
0.60667	14
0.61033	15
0.61400	14
0.61767	13
0.62133	11
0.62500	12
0.62867	13
0.63233	13
0.63600	12
0.63967	11
0.64333	13
0.64700	16
0.65067	18
0.65433	19
0.65800	17
0.66167	15
0.66533	16
0.66900	19
0.67267	20
0.67633	19
0.68000	16
0.68367	14
0.68733	13
0.69100	15
0.69467	17
0.69833	18
0.70200	16
0.70567	14
0.70933	14
0.71300	14
0.71667	13
0.72033	12
0.72400	12
0.72767	13
0.73133	14
0.73500	16
0.73867	16
0.74233	15
0.74600	14
0.74967	14
0.75333	15
0.75700	15
0.76067	16
0.76433	16
0.76800	15
0.77167	19
0.77533	22
0.77900	23
0.78267	22
0.78633	21
0.79000	22
0.79367	23
0.79733	24
0.80100	24
0.80467	23
0.80833	20
0.81200	17
0.81567	16
0.81933	15
0.82300	15
0.82667	13
0.83033	13
0.83400	15
0.83767	17
0.84133	20
0.84500	22
0.84867	25
0.85233	25
0.85600	26
0.85967	23
0.86333	21
0.86700	21
0.87067	23
0.87433	23
0.87800	21
0.88167	19
0.88533	16
0.88900	15
0.89267	16
0.89633	18
0.90000	20
0.90367	22
0.90733	21
0.91100	21
0.91467	22
0.91833	23
0.92200	24
0.92567	23
0.92933	21
0.93300	20
0.93667	19
0.94033	19
0.94400	20
0.94767	20
0.95133	18
0.95500	16
0.95867	18
0.96233	21
0.96600	23
0.96967	22
0.97333	21
0.97700	19
0.98067	18
0.98433	19
0.98800	20
0.99167	20
0.99533	20
0.99900	18
1.00267	16
1.00633	16
1.01000	19
1.01367	19
1.01733	20
1.02100	22
1.02467	23
1.02833	24
1.03200	25
1.03567	25
1.03933	24
1.04300	22
1.04667	20
1.05033	20
1.05400	19
1.05767	20
1.06133	21
1.06500	21
1.06867	22
1.07233	22
1.07600	23
1.07967	24
1.08333	26
1.08700	27
1.09067	25
1.09433	24
1.09800	21
1.10167	20
1.10533	20
1.10900	21
1.11267	22
1.11633	22
1.12000	24
1.12367	27
1.12733	27
1.13100	27
1.13467	26
1.13833	26
1.14200	24
1.14567	24
1.14933	25
1.15300	26
1.15667	25
1.16033	24
1.16400	23
1.16767	25
1.17133	26
1.17500	26
1.17867	28
1.18233	28
1.18600	28
1.18967	26
1.19333	27
1.19700	27
1.20067	28
1.20433	27
1.20800	27
1.21167	26
1.21533	28
1.21900	30
1.22267	31
1.22633	30
1.23000	30
1.23367	30
1.23733	30
1.24100	31
1.24467	32
1.24833	32
1.25200	31
1.25567	30
1.25933	29
1.26300	30
1.26667	29
1.27033	29
1.27400	30
1.27767	30
1.28133	29
1.28500	28
1.28867	29
1.29233	28
1.29600	29
1.29967	31
1.30333	30
1.30700	29
1.31067	27
1.31433	27
1.31800	26
1.32167	27
1.32533	28
1.32900	28
1.33267	28
1.33633	28
1.34000	28
1.34367	29
1.34733	30
1.35100	32
1.35467	33
1.35833	34
1.36200	33
1.36567	33
1.36933	32
1.37300	31
1.37667	31
1.38033	31
1.38400	31
1.38767	29
1.39133	28
1.39500	28
1.39867	27
1.40233	28
1.40600	28
1.40967	28
1.41333	30
1.41700	31
1.42067	31
1.42433	31
1.42800	28
1.43167	27
1.43533	28
1.43900	29
1.44267	31
1.44633	32
1.45000	32
1.45367	32
1.45733	31
1.46100	28
1.46467	27
1.46833	27
1.47200	29
1.47567	29
1.47933	30
1.48300	32
1.48667	31
1.49033	32
1.49400	31
1.49767	30
1.50133	28
1.50500	26
1.50867	26
1.51233	27
1.51600	27
1.51967	27
1.52333	25
1.52700	23
1.53067	24
1.53433	25
1.53800	28
1.54167	27
1.54533	25
1.54900	25
1.55267	25
1.55633	24
1.56000	23
1.56367	23
1.56733	24
1.57100	23
1.57467	22
1.57833	24
1.58200	25
1.58567	25
1.58933	23
1.59300	22
1.59667	21
1.60033	23
1.60400	25
1.60767	29
1.61133	30
1.61500	30
1.61867	31
1.62233	30
1.62600	29
1.62967	28
1.63333	29
1.63700	29
1.64067	29
1.64433	29
1.64800	29
1.65167	31
1.65533	30
1.65900	30
1.66267	30
1.66633	30
1.67000	31
1.67367	32
1.67733	33
1.68100	34
1.68467	33
1.68833	33
1.69200	33
1.69567	33
1.69933	34
1.70300	36
1.70667	36
1.71033	38
1.71400	42
1.71767	43
1.72133	42
1.72500	41
1.72867	40
1.73233	40
1.73600	41
1.73967	41
1.74333	42
1.74700	43
1.75067	44
1.75433	43
1.75800	43
1.76167	45
1.76533	47
1.76900	48
1.77267	47
1.77633	46
1.78000	46
1.78367	47
1.78733	50
1.79100	52
1.79467	53
1.79833	54
1.80200	54
1.80567	53
1.80933	54
1.81300	54
1.81667	53
1.82033	52
1.82400	52
1.82767	53
1.83133	55
1.83500	57
1.83867	60
1.84233	61
1.84600	61
1.84967	61
1.85333	59
1.85700	59
1.86067	59
1.86433	59
1.86800	59
1.87167	61
1.87533	63
1.87900	64
1.88267	63
1.88633	61
1.89000	60
1.89367	61
1.89733	60
1.90100	61
1.90467	64
1.90833	68
1.91200	72
1.91567	73
1.91933	73
1.92300	74
1.92667	75
1.93033	74
1.93400	74
1.93767	75
1.94133	75
1.94500	76
1.94867	75
1.95233	77
1.95600	78
1.95967	79
1.96333	80
1.96700	83
1.97067	84
1.97433	84
1.97800	85
1.98167	86
1.98533	88
1.98900	89
1.99267	89
1.99633	90
2.00000	92
2.00367	94
2.00733	96
2.01100	97
2.01467	98
2.01833	100
2.02200	101
2.02567	101
2.02933	101
2.03300	102
2.03667	105
2.04033	107
2.04400	106
2.04767	105
2.05133	106
2.05500	108
2.05867	111
2.06233	111
2.06600	112
2.06967	114
2.07333	115
2.07700	116
2.08067	116
2.08433	115
2.08800	118
2.09167	119
2.09533	120
2.09900	118
2.10267	115
2.10633	115
2.11000	117
2.11367	119
2.11733	120
2.12100	121
2.12467	120
2.12833	121
2.13200	121
2.13567	120
2.13933	120
2.14300	123
2.14667	124
2.15033	122
2.15400	120
2.15767	119
2.16133	120
2.16500	120
2.16867	120
2.17233	120
2.17600	121
2.17967	120
2.18333	120
2.18700	122
2.19067	123
2.19433	123
2.19800	122
2.20167	122
2.20533	123
2.20900	123
2.21267	125
2.21633	127
2.22000	131
2.22367	133
2.22733	134
2.23100	133
2.23467	132
2.23833	132
2.24200	131
2.24567	130
2.24933	127
2.25300	125
2.25667	127
2.26033	129
2.26400	130
2.26767	133
2.27133	134
2.27500	135
2.27867	136
2.28233	138
2.28600	138
2.28967	136
2.29333	134
2.29700	135
2.30067	137
2.30433	139
2.30800	142
2.31167	140
2.31533	137
2.31900	137
2.32267	137
2.32633	137
2.33000	137
2.33367	137
2.33733	138
2.34100	137
2.34467	137
2.34833	139
2.35200	142
2.35567	143
2.35933	143
2.36300	144
2.36667	143
2.37033	142
2.37400	139
2.37767	140
2.38133	140
2.38500	139
2.38867	138
2.39233	138
2.39600	138
2.39967	139
2.40333	141
2.40700	144
2.41067	150
2.41433	155
2.41800	156
2.42167	157
2.42533	158
2.42900	158
2.43267	156
2.43633	156
2.44000	165
2.44367	225
2.44733	338
2.45100	443
2.45467	521
2.45833	560
2.46200	556
2.46567	532
2.46933	506
2.47300	488
2.47667	477
2.48033	462
2.48400	439
2.48767	407
2.49133	375
2.49500	346
2.49867	325
2.50233	311
2.50600	302
2.50967	298
2.51333	302
2.51700	311
2.52067	322
2.52433	328
2.52800	330
2.53167	325
2.53533	314
2.53900	301
2.54267	286
2.54633	269
2.55000	255
2.55367	258
2.55733	280
2.56100	318
2.56467	362
2.56833	411
2.57200	460
2.57567	511
2.57933	563
2.58300	616
2.58667	670
2.59033	726
2.59400	783
2.59767	837
2.60133	882
2.60500	916
2.60867	938
2.61233	949
2.61600	948
2.61967	941
2.62333	927
2.62700	909
2.63067	890
2.63433	871
2.63800	852
2.64167	833
2.64533	817
2.64900	803
2.65267	787
2.65633	776
2.66000	768
2.66367	762
2.66733	757
2.67100	754
2.67467	753
2.67833	753
2.68200	756
2.68567	759
2.68933	762
2.69300	767
2.69667	773
2.70033	780
2.70400	785
2.70767	790
2.71133	796
2.71500	801
2.71867	805
2.72233	811
2.72600	815
2.72967	821
2.73333	829
2.73700	837
2.74067	843
2.74433	848
2.74800	852
2.75167	853
2.75533	854
2.75900	855
2.76267	854
2.76633	851
2.77000	846
2.77367	841
2.77733	837
2.78100	829
2.78467	821
2.78833	816
2.79200	808
2.79567	799
2.79933	789
2.80300	780
2.80667	772
2.81033	765
2.81400	759
2.81767	755
2.82133	752
2.82500	749
2.82867	745
2.83233	747
2.83600	758
2.83967	792
2.84333	864
2.84700	994
2.85067	1204
2.85433	1514
2.85800	1933
2.86167	2448
2.86533	3029
2.86900	3632
2.87267	4210
2.87633	4716
2.88000	5106
2.88367	5357
2.88733	5460
2.89100	5421
2.89467	5264
2.89833	5019
2.90200	4715
2.90567	4376
2.90933	4026
2.91300	3681
2.91667	3350
2.92033	3039
2.92400	2754
2.92767	2496
2.93133	2267
2.93500	2063
2.93867	1885
2.94233	1728
2.94600	1589
2.94967	1467
2.95333	1362
2.95700	1274
2.96067	1199
2.96433	1132
2.96800	1072
2.97167	1021
2.97533	980
2.97900	943
2.98267	910
2.98633	883
2.99000	861
2.99367	843
2.99733	827
3.00100	813
3.00467	801
3.00833	792
3.01200	784
3.01567	778
3.01933	771
3.02300	766
3.02667	764
3.03033	763
3.03400	761
3.03767	758
3.04133	755
3.04500	754
3.04867	753
3.05233	753
3.05600	753
3.05967	751
3.06333	751
3.06700	753
3.07067	754
3.07433	754
3.07800	753
3.08167	753
3.08533	752
3.08900	753
3.09267	756
3.09633	760
3.10000	761
3.10367	761
3.10733	761
3.11100	761
3.11467	762
3.11833	763
3.12200	764
3.12567	765
3.12933	765
3.13300	765
3.13667	765
3.14033	764
3.14400	763
3.14767	763
3.15133	763
3.15500	764
3.15867	765
3.16233	766
3.16600	766
3.16967	767
3.17333	766
3.17700	763
3.18067	762
3.18433	762
3.18800	761
3.19167	759
3.19533	759
3.19900	759
3.20267	760
3.20633	758
3.21000	754
3.21367	752
3.21733	752
3.22100	751
3.22467	749
3.22833	751
3.23200	751
3.23567	750
3.23933	750
3.24300	750
3.24667	749
3.25033	747
3.25400	744
3.25767	740
3.26133	737
3.26500	737
3.26867	737
3.27233	737
3.27600	736
3.27967	735
3.28333	734
3.28700	735
3.29067	733
3.29433	730
3.29800	728
3.30167	726
3.30533	726
3.30900	725
3.31267	725
3.31633	726
3.32000	723
3.32367	717
3.32733	715
3.33100	717
3.33467	719
3.33833	721
3.34200	720
3.34567	719
3.34933	717
3.35300	716
3.35667	714
3.36033	712
3.36400	709
3.36767	706
3.37133	705
3.37500	705
3.37867	705
3.38233	702
3.38600	699
3.38967	698
3.39333	696
3.39700	696
3.40067	693
3.40433	690
3.40800	688
3.41167	686
3.41533	684
3.41900	682
3.42267	680
3.42633	678
3.43000	675
3.43367	673
3.43733	671
3.44100	670
3.44467	671
3.44833	669
3.45200	665
3.45567	661
3.45933	657
3.46300	655
3.46667	656
3.47033	656
3.47400	655
3.47767	651
3.48133	648
3.48500	646
3.48867	645
3.49233	647
3.49600	644
3.49967	641
3.50333	638
3.50700	639
3.51067	637
3.51433	636
3.51800	634
3.52167	632
3.52533	630
3.52900	630
3.53267	630
3.53633	629
3.54000	626
3.54367	623
3.54733	622
3.55100	620
3.55467	617
3.55833	615
3.56200	613
3.56567	612
3.56933	613
3.57300	612
3.57667	610
3.58033	608
3.58400	608
3.58767	607
3.59133	603
3.59500	601
3.59867	601
3.60233	600
3.60600	598
3.60967	596
3.61333	595
3.61700	593
3.62067	590
3.62433	586
3.62800	584
3.63167	583
3.63533	581
3.63900	582
3.64267	583
3.64633	581
3.65000	580
3.65367	578
3.65733	576
3.66100	575
3.66467	573
3.66833	570
3.67200	567
3.67567	565
3.67933	562
3.68300	560
3.68667	558
3.69033	556
3.69400	554
3.69767	554
3.70133	555
3.70500	557
3.70867	556
3.71233	555
3.71600	556
3.71967	553
3.72333	549
3.72700	545
3.73067	543
3.73433	543
3.73800	542
3.74167	540
3.74533	538
3.74900	537
3.75267	537
3.75633	538
3.76000	538
3.76367	539
3.76733	537
3.77100	534
3.77467	534
3.77833	534
3.78200	533
3.78567	530
3.78933	526
3.79300	522
3.79667	518
3.80033	514
3.80400	514
3.80767	513
3.81133	512
3.81500	509
3.81867	508
3.82233	508
3.82600	509
3.82967	509
3.83333	508
3.83700	507
3.84067	505
3.84433	502
3.84800	500
3.85167	498
3.85533	496
3.85900	496
3.86267	495
3.86633	493
3.87000	490
3.87367	488
3.87733	488
3.88100	488
3.88467	486
3.88833	484
3.89200	481
3.89567	479
3.89933	478
3.90300	477
3.90667	476
3.91033	478
3.91400	475
3.91767	472
3.92133	470
3.92500	469
3.92867	468
3.93233	468
3.93600	466
3.93967	462
3.94333	461
3.94700	463
3.95067	462
3.95433	459
3.95800	458
3.96167	455
3.96533	453
3.96900	451
3.97267	449
3.97633	449
3.98000	447
3.98367	446
3.98733	446
3.99100	446
3.99467	443
3.99833	439

[Status Trace (Column Oven Temperature)]
Interval(msec)	1000
# of Points	240
Start Time(min)	0.010
End Time(min)	3.993
Intensity Units	
Intensity Multiplier	1
R.Time (min)	Intensity
0.00965	35.05
0.02632	35.04
0.04298	35.03
0.05965	35.02
0.07632	35.01
0.09298	35.01
0.10965	35.00
0.12632	35.02
0.14298	35.02
0.15965	35.01
0.17632	35.02
0.19298	35.02
0.20965	35.02
0.22632	35.02
0.24298	35.04
0.25965	35.03
0.27632	35.03
0.29298	35.04
0.30965	35.04
0.32632	35.03
0.34298	35.02
0.35965	35.01
0.37632	35.00
0.39298	34.99
0.40965	35.00
0.42632	35.00
0.44298	35.00
0.45965	35.01
0.47632	35.02
0.49298	35.02
0.50965	35.02
0.52632	35.01
0.54298	35.02
0.55965	35.02
0.57632	35.02
0.59298	35.02
0.60965	35.03
0.62632	35.03
0.64298	35.02
0.65965	35.01
0.67632	35.00
0.69298	35.02
0.70965	35.03
0.72632	35.02
0.74298	35.02
0.75965	35.01
0.77632	35.01
0.79298	35.02
0.80965	35.01
0.82632	35.01
0.84298	35.00
0.85965	35.00
0.87632	34.99
0.89298	35.00
0.90965	35.00
0.92632	35.01
0.94298	35.02
0.95965	35.02
0.97632	35.01
0.99298	35.00
1.00965	34.99
1.02632	34.98
1.04298	34.98
1.05965	34.99
1.07632	35.00
1.09298	35.00
1.10965	35.01
1.12632	35.02
1.14298	35.01
1.15965	35.01
1.17632	34.99
1.19298	34.98
1.20965	34.97
1.22632	34.99
1.24298	34.99
1.25965	34.99
1.27632	34.99
1.29298	34.99
1.30965	35.00
1.32632	35.01
1.34298	35.01
1.35965	35.00
1.37632	35.00
1.39298	34.99
1.40965	34.98
1.42632	34.96
1.44298	34.96
1.45965	34.96
1.47632	34.97
1.49298	34.99
1.50965	34.99
1.52632	35.01
1.54298	35.01
1.55965	35.01
1.57632	35.01
1.59298	35.03
1.60965	35.09
1.62632	35.20
1.64298	35.39
1.65965	35.65
1.67632	35.98
1.69298	36.35
1.70965	36.69
1.72632	37.03
1.74298	37.37
1.75965	37.69
1.77632	38.02
1.79298	38.35
1.80965	38.69
1.82632	39.02
1.84298	39.36
1.85965	39.69
1.87632	40.02
1.89298	40.35
1.90965	40.68
1.92632	41.00
1.94298	41.32
1.95965	41.64
1.97632	41.97
1.99298	42.29
2.00965	42.61
2.02632	42.94
2.04298	43.25
2.05965	43.59
2.07632	43.91
2.09298	44.23
2.10965	44.56
2.12632	44.89
2.14298	45.21
2.15965	45.51
2.17632	45.85
2.19298	46.18
2.20965	46.50
2.22632	46.85
2.24298	47.21
2.25965	47.53
2.27632	47.84
2.29298	48.17
2.30965	48.51
2.32632	48.83
2.34298	49.18
2.35965	49.46
2.37632	49.62
2.39298	49.66
2.40965	49.65
2.42632	49.65
2.44298	49.66
2.45965	49.67
2.47632	49.69
2.49298	49.69
2.50965	49.71
2.52632	49.72
2.54298	49.72
2.55965	49.75
2.57632	49.76
2.59298	49.78
2.60965	49.79
2.62632	49.81
2.64298	49.81
2.65965	49.82
2.67632	49.82
2.69298	49.85
2.70965	49.86
2.72632	49.84
2.74298	49.86
2.75965	49.86
2.77632	49.85
2.79298	49.85
2.80965	49.86
2.82632	49.88
2.84298	49.89
2.85965	49.90
2.87632	49.91
2.89298	49.91
2.90965	49.90
2.92632	49.91
2.94298	49.91
2.95965	49.93
2.97632	49.94
2.99298	49.96
3.00965	49.97
3.02632	49.96
3.04298	49.95
3.05965	49.95
3.07632	49.96
3.09298	49.96
3.10965	49.97
3.12632	49.99
3.14298	50.00
3.15965	50.02
3.17632	50.03
3.19298	50.04
3.20965	50.05
3.22632	50.05
3.24298	50.06
3.25965	50.06
3.27632	50.07
3.29298	50.07
3.30965	50.07
3.32632	50.07
3.34298	50.07
3.35965	50.07
3.37632	50.06
3.39298	50.05
3.40965	50.06
3.42632	50.06
3.44298	50.07
3.45965	50.08
3.47632	50.09
3.49298	50.10
3.50965	50.11
3.52632	50.12
3.54298	50.11
3.55965	50.11
3.57632	50.11
3.59298	50.09
3.60965	50.09
3.62632	50.07
3.64298	50.05
3.65965	50.05
3.67632	50.04
3.69298	50.03
3.70965	50.04
3.72632	50.04
3.74298	50.03
3.75965	50.03
3.77632	50.02
3.79298	50.01
3.80965	50.00
3.82632	50.02
3.84298	50.03
3.85965	50.03
3.87632	50.03
3.89298	50.04
3.90965	50.04
3.92632	50.04
3.94298	50.04
3.95965	50.04
3.97632	50.04
3.99298	50.04

[Status Trace (Injection Unit Temperature)]
Interval(msec)	1000
# of Points	240
Start Time(min)	0.010
End Time(min)	3.993
Intensity Units	
Intensity Multiplier	1
R.Time (min)	Intensity
0.00965	99.98
0.02632	99.98
0.04298	99.98
0.05965	99.98
0.07632	99.98
0.09298	99.99
0.10965	99.98
0.12632	99.98
0.14298	99.99
0.15965	99.98
0.17632	99.98
0.19298	99.98
0.20965	99.99
0.22632	99.98
0.24298	99.98
0.25965	99.98
0.27632	99.98
0.29298	99.98
0.30965	99.98
0.32632	99.98
0.34298	99.98
0.35965	99.98
0.37632	99.98
0.39298	99.98
0.40965	99.98
0.42632	99.98
0.44298	99.99
0.45965	99.99
0.47632	99.98
0.49298	99.98
0.50965	99.98
0.52632	99.98
0.54298	99.99
0.55965	99.98
0.57632	99.98
0.59298	99.99
0.60965	99.98
0.62632	99.98
0.64298	99.98
0.65965	99.99
0.67632	99.98
0.69298	99.98
0.70965	99.98
0.72632	99.99
0.74298	99.99
0.75965	99.99
0.77632	99.98
0.79298	99.98
0.80965	99.98
0.82632	99.99
0.84298	99.98
0.85965	99.98
0.87632	99.98
0.89298	99.98
0.90965	99.98
0.92632	99.98
0.94298	99.98
0.95965	99.98
0.97632	99.98
0.99298	99.98
1.00965	99.98
1.02632	99.98
1.04298	99.98
1.05965	99.98
1.07632	99.98
1.09298	99.98
1.10965	99.98
1.12632	99.98
1.14298	99.98
1.15965	99.98
1.17632	99.98
1.19298	99.98
1.20965	99.98
1.22632	99.98
1.24298	99.98
1.25965	99.98
1.27632	99.98
1.29298	99.98
1.30965	99.98
1.32632	99.98
1.34298	99.99
1.35965	99.99
1.37632	99.98
1.39298	99.98
1.40965	99.98
1.42632	99.98
1.44298	99.98
1.45965	99.98
1.47632	99.98
1.49298	99.98
1.50965	99.98
1.52632	99.98
1.54298	99.99
1.55965	99.99
1.57632	99.99
1.59298	99.99
1.60965	99.99
1.62632	99.99
1.64298	99.99
1.65965	99.99
1.67632	99.99
1.69298	99.99
1.70965	99.99
1.72632	99.98
1.74298	99.99
1.75965	99.99
1.77632	99.99
1.79298	99.99
1.80965	99.99
1.82632	99.99
1.84298	99.99
1.85965	99.99
1.87632	99.99
1.89298	99.99
1.90965	99.99
1.92632	99.99
1.94298	99.99
1.95965	99.98
1.97632	99.98
1.99298	99.99
2.00965	99.99
2.02632	99.98
2.04298	99.98
2.05965	99.98
2.07632	99.98
2.09298	99.98
2.10965	99.98
2.12632	99.98
2.14298	99.98
2.15965	99.98
2.17632	99.98
2.19298	99.98
2.20965	99.98
2.22632	99.97
2.24298	99.98
2.25965	99.97
2.27632	99.97
2.29298	99.97
2.30965	99.97
2.32632	99.97
2.34298	99.97
2.35965	99.97
2.37632	99.97
2.39298	99.96
2.40965	99.97
2.42632	99.97
2.44298	99.97
2.45965	99.97
2.47632	99.97
2.49298	99.97
2.50965	99.97
2.52632	99.97
2.54298	99.96
2.55965	99.97
2.57632	99.97
2.59298	99.98
2.60965	99.97
2.62632	99.98
2.64298	99.98
2.65965	99.98
2.67632	99.98
2.69298	99.98
2.70965	99.98
2.72632	99.98
2.74298	99.98
2.75965	99.99
2.77632	99.99
2.79298	99.99
2.80965	99.99
2.82632	99.99
2.84298	99.99
2.85965	100.00
2.87632	100.00
2.89298	100.00
2.90965	100.00
2.92632	100.00
2.94298	100.00
2.95965	100.01
2.97632	100.01
2.99298	100.01
3.00965	100.01
3.02632	100.01
3.04298	100.01
3.05965	100.01
3.07632	100.02
3.09298	100.02
3.10965	100.02
3.12632	100.02
3.14298	100.02
3.15965	100.02
3.17632	100.02
3.19298	100.02
3.20965	100.02
3.22632	100.02
3.24298	100.02
3.25965	100.03
3.27632	100.03
3.29298	100.03
3.30965	100.02
3.32632	100.03
3.34298	100.02
3.35965	100.03
3.37632	100.03
3.39298	100.03
3.40965	100.03
3.42632	100.03
3.44298	100.04
3.45965	100.04
3.47632	100.03
3.49298	100.04
3.50965	100.04
3.52632	100.04
3.54298	100.04
3.55965	100.04
3.57632	100.04
3.59298	100.04
3.60965	100.04
3.62632	100.04
3.64298	100.04
3.65965	100.04
3.67632	100.04
3.69298	100.05
3.70965	100.04
3.72632	100.04
3.74298	100.05
3.75965	100.05
3.77632	100.05
3.79298	100.04
3.80965	100.05
3.82632	100.05
3.84298	100.05
3.85965	100.05
3.87632	100.05
3.89298	100.05
3.90965	100.05
3.92632	100.05
3.94298	100.05
3.95965	100.05
3.97632	100.06
3.99298	100.05

[Status Trace (Carrier Gas Pressure)]
Interval(msec)	1000
# of Points	240
Start Time(min)	0.010
End Time(min)	3.993
Intensity Units	
Intensity Multiplier	1
R.Time (min)	Intensity
0.00965	58.00
0.02632	55.13
0.04298	57.27
0.05965	59.42
0.07632	59.23
0.09298	58.05
0.10965	57.98
0.12632	58.01
0.14298	58.01
0.15965	58.01
0.17632	58.00
0.19298	58.00
0.20965	58.00
0.22632	58.00
0.24298	58.00
0.25965	58.00
0.27632	58.00
0.29298	58.00
0.30965	58.00
0.32632	58.00
0.34298	58.00
0.35965	58.00
0.37632	58.00
0.39298	58.00
0.40965	58.00
0.42632	58.00
0.44298	58.00
0.45965	58.00
0.47632	58.00
0.49298	58.00
0.50965	58.00
0.52632	58.00
0.54298	58.00
0.55965	58.00
0.57632	58.00
0.59298	58.00
0.60965	58.00
0.62632	58.00
0.64298	58.00
0.65965	58.00
0.67632	58.00
0.69298	58.00
0.70965	58.00
0.72632	58.00
0.74298	58.00
0.75965	58.00
0.77632	58.00
0.79298	58.00
0.80965	58.00
0.82632	58.00
0.84298	58.00
0.85965	58.00
0.87632	58.00
0.89298	58.00
0.90965	58.00
0.92632	58.00
0.94298	58.00
0.95965	58.00
0.97632	58.00
0.99298	58.00
1.00965	58.00
1.02632	58.00
1.04298	58.00
1.05965	58.00
1.07632	58.00
1.09298	58.00
1.10965	58.00
1.12632	58.00
1.14298	58.00
1.15965	58.00
1.17632	58.00
1.19298	58.00
1.20965	58.00
1.22632	58.00
1.24298	58.00
1.25965	58.00
1.27632	58.00
1.29298	58.00
1.30965	58.00
1.32632	58.00
1.34298	58.00
1.35965	58.00
1.37632	58.00
1.39298	58.00
1.40965	58.00
1.42632	58.00
1.44298	58.00
1.45965	58.00
1.47632	58.00
1.49298	58.00
1.50965	58.00
1.52632	58.00
1.54298	58.00
1.55965	58.00
1.57632	58.00
1.59298	58.00
1.60965	58.00
1.62632	58.00
1.64298	58.00
1.65965	58.00
1.67632	58.01
1.69298	58.00
1.70965	58.00
1.72632	58.00
1.74298	58.00
1.75965	58.00
1.77632	58.00
1.79298	58.00
1.80965	58.00
1.82632	58.00
1.84298	58.00
1.85965	58.00
1.87632	58.00
1.89298	58.00
1.90965	58.00
1.92632	58.00
1.94298	58.00
1.95965	58.00
1.97632	58.00
1.99298	58.00
2.00965	58.00
2.02632	58.00
2.04298	58.00
2.05965	58.00
2.07632	58.00
2.09298	58.00
2.10965	58.00
2.12632	58.00
2.14298	58.00
2.15965	58.00
2.17632	58.00
2.19298	58.00
2.20965	58.00
2.22632	58.00
2.24298	58.00
2.25965	58.00
2.27632	58.00
2.29298	58.00
2.30965	58.00
2.32632	58.00
2.34298	58.00
2.35965	58.00
2.37632	58.00
2.39298	57.99
2.40965	58.00
2.42632	58.00
2.44298	58.00
2.45965	58.00
2.47632	58.00
2.49298	58.00
2.50965	58.00
2.52632	57.99
2.54298	58.00
2.55965	58.00
2.57632	58.00
2.59298	58.00
2.60965	58.00
2.62632	58.00
2.64298	58.00
2.65965	58.00
2.67632	58.00
2.69298	58.00
2.70965	58.00
2.72632	58.00
2.74298	58.00
2.75965	58.00
2.77632	58.00
2.79298	58.00
2.80965	58.00
2.82632	58.00
2.84298	58.00
2.85965	58.00
2.87632	58.00
2.89298	58.00
2.90965	58.00
2.92632	58.00
2.94298	58.00
2.95965	58.00
2.97632	58.00
2.99298	58.00
3.00965	58.00
3.02632	58.00
3.04298	58.00
3.05965	58.00
3.07632	58.00
3.09298	58.00
3.10965	58.00
3.12632	58.00
3.14298	58.00
3.15965	58.00
3.17632	58.00
3.19298	58.00
3.20965	58.00
3.22632	58.00
3.24298	58.00
3.25965	58.00
3.27632	58.00
3.29298	58.00
3.30965	58.00
3.32632	58.00
3.34298	58.00
3.35965	58.00
3.37632	58.00
3.39298	58.00
3.40965	58.00
3.42632	58.00
3.44298	58.00
3.45965	58.00
3.47632	58.00
3.49298	58.00
3.50965	58.00
3.52632	58.00
3.54298	58.00
3.55965	58.00
3.57632	58.00
3.59298	58.00
3.60965	58.00
3.62632	58.00
3.64298	58.00
3.65965	58.00
3.67632	58.00
3.69298	58.00
3.70965	58.00
3.72632	58.00
3.74298	58.00
3.75965	58.00
3.77632	58.00
3.79298	58.00
3.80965	58.00
3.82632	58.00
3.84298	58.00
3.85965	58.00
3.87632	58.00
3.89298	58.00
3.90965	58.00
3.92632	58.00
3.94298	58.00
3.95965	58.00
3.97632	58.00
3.99298	58.00

[Status Trace (Carrier Gas Flow)]
Interval(msec)	1000
# of Points	240
Start Time(min)	0.010
End Time(min)	3.993
Intensity Units	
Intensity Multiplier	1
R.Time (min)	Intensity
0.00965	34.52
0.02632	34.53
0.04298	34.55
0.05965	34.55
0.07632	34.50
0.09298	34.52
0.10965	34.52
0.12632	34.51
0.14298	34.51
0.15965	34.53
0.17632	34.52
0.19298	34.52
0.20965	34.52
0.22632	34.52
0.24298	34.52
0.25965	34.51
0.27632	34.52
0.29298	34.52
0.30965	34.52
0.32632	34.52
0.34298	34.52
0.35965	34.51
0.37632	34.51
0.39298	34.53
0.40965	34.52
0.42632	34.52
0.44298	34.52
0.45965	34.52
0.47632	34.51
0.49298	34.52
0.50965	34.52
0.52632	34.52
0.54298	34.52
0.55965	34.52
0.57632	34.52
0.59298	34.52
0.60965	34.52
0.62632	34.52
0.64298	34.51
0.65965	34.52
0.67632	34.52
0.69298	34.51
0.70965	34.52
0.72632	34.52
0.74298	34.53
0.75965	34.52
0.77632	34.51
0.79298	34.52
0.80965	34.51
0.82632	34.52
0.84298	34.52
0.85965	34.52
0.87632	34.51
0.89298	34.52
0.90965	34.52
0.92632	34.53
0.94298	34.52
0.95965	34.51
0.97632	34.52
0.99298	34.52
1.00965	34.52
1.02632	34.52
1.04298	34.53
1.05965	34.52
1.07632	34.51
1.09298	34.52
1.10965	34.52
1.12632	34.51
1.14298	34.52
1.15965	34.52
1.17632	34.52
1.19298	34.52
1.20965	34.52
1.22632	34.52
1.24298	34.51
1.25965	34.52
1.27632	34.52
1.29298	34.52
1.30965	34.52
1.32632	34.52
1.34298	34.52
1.35965	34.52
1.37632	34.52
1.39298	34.53
1.40965	34.52
1.42632	34.51
1.44298	34.52
1.45965	34.52
1.47632	34.51
1.49298	34.52
1.50965	34.52
1.52632	34.52
1.54298	34.52
1.55965	34.52
1.57632	34.52
1.59298	34.52
1.60965	34.51
1.62632	34.52
1.64298	34.52
1.65965	34.52
1.67632	34.52
1.69298	34.52
1.70965	34.52
1.72632	34.52
1.74298	34.52
1.75965	34.52
1.77632	34.52
1.79298	34.52
1.80965	34.52
1.82632	34.52
1.84298	34.52
1.85965	34.52
1.87632	34.52
1.89298	34.52
1.90965	34.52
1.92632	34.52
1.94298	34.52
1.95965	34.52
1.97632	34.52
1.99298	34.52
2.00965	34.52
2.02632	34.51
2.04298	34.52
2.05965	34.52
2.07632	34.52
2.09298	34.52
2.10965	34.52
2.12632	34.52
2.14298	34.52
2.15965	34.52
2.17632	34.52
2.19298	34.52
2.20965	34.52
2.22632	34.52
2.24298	34.51
2.25965	34.51
2.27632	34.52
2.29298	34.52
2.30965	34.52
2.32632	34.52
2.34298	34.52
2.35965	34.52
2.37632	34.51
2.39298	34.52
2.40965	34.52
2.42632	34.52
2.44298	34.52
2.45965	34.52
2.47632	34.52
2.49298	34.52
2.50965	34.51
2.52632	34.52
2.54298	34.52
2.55965	34.52
2.57632	34.52
2.59298	34.52
2.60965	34.52
2.62632	34.52
2.64298	34.52
2.65965	34.52
2.67632	34.52
2.69298	34.52
2.70965	34.52
2.72632	34.51
2.74298	34.52
2.75965	34.52
2.77632	34.52
2.79298	34.52
2.80965	34.52
2.82632	34.52
2.84298	34.52
2.85965	34.53
2.87632	34.52
2.89298	34.52
2.90965	34.52
2.92632	34.52
2.94298	34.51
2.95965	34.52
2.97632	34.52
2.99298	34.52
3.00965	34.52
3.02632	34.52
3.04298	34.52
3.05965	34.52
3.07632	34.51
3.09298	34.52
3.10965	34.52
3.12632	34.52
3.14298	34.52
3.15965	34.53
3.17632	34.52
3.19298	34.52
3.20965	34.52
3.22632	34.52
3.24298	34.52
3.25965	34.52
3.27632	34.51
3.29298	34.52
3.30965	34.52
3.32632	34.52
3.34298	34.52
3.35965	34.51
3.37632	34.52
3.39298	34.52
3.40965	34.52
3.42632	34.51
3.44298	34.52
3.45965	34.52
3.47632	34.52
3.49298	34.52
3.50965	34.52
3.52632	34.52
3.54298	34.52
3.55965	34.51
3.57632	34.52
3.59298	34.52
3.60965	34.51
3.62632	34.51
3.64298	34.52
3.65965	34.51
3.67632	34.52
3.69298	34.52
3.70965	34.52
3.72632	34.52
3.74298	34.52
3.75965	34.52
3.77632	34.51
3.79298	34.52
3.80965	34.52
3.82632	34.52
3.84298	34.52
3.85965	34.53
3.87632	34.52
3.89298	34.51
3.90965	34.52
3.92632	34.52
3.94298	34.51
3.95965	34.52
3.97632	34.52
3.99298	34.52

[Status Trace (Column Flow)]
Interval(msec)	1000
# of Points	240
Start Time(min)	0.010
End Time(min)	3.993
Intensity Units	
Intensity Multiplier	1
R.Time (min)	Intensity
0.00965	5.49
0.02632	5.16
0.04298	5.41
0.05965	5.66
0.07632	5.64
0.09298	5.50
0.10965	5.49
0.12632	5.49
0.14298	5.49
0.15965	5.49
0.17632	5.49
0.19298	5.49
0.20965	5.49
0.22632	5.49
0.24298	5.49
0.25965	5.49
0.27632	5.49
0.29298	5.49
0.30965	5.49
0.32632	5.49
0.34298	5.49
0.35965	5.49
0.37632	5.49
0.39298	5.49
0.40965	5.49
0.42632	5.49
0.44298	5.49
0.45965	5.49
0.47632	5.49
0.49298	5.49
0.50965	5.49
0.52632	5.49
0.54298	5.49
0.55965	5.49
0.57632	5.49
0.59298	5.49
0.60965	5.49
0.62632	5.49
0.64298	5.49
0.65965	5.49
0.67632	5.49
0.69298	5.49
0.70965	5.49
0.72632	5.49
0.74298	5.49
0.75965	5.49
0.77632	5.49
0.79298	5.49
0.80965	5.49
0.82632	5.49
0.84298	5.49
0.85965	5.49
0.87632	5.49
0.89298	5.49
0.90965	5.49
0.92632	5.49
0.94298	5.49
0.95965	5.49
0.97632	5.49
0.99298	5.49
1.00965	5.49
1.02632	5.49
1.04298	5.49
1.05965	5.49
1.07632	5.49
1.09298	5.49
1.10965	5.49
1.12632	5.49
1.14298	5.49
1.15965	5.49
1.17632	5.49
1.19298	5.50
1.20965	5.50
1.22632	5.49
1.24298	5.49
1.25965	5.49
1.27632	5.49
1.29298	5.49
1.30965	5.49
1.32632	5.49
1.34298	5.49
1.35965	5.49
1.37632	5.49
1.39298	5.49
1.40965	5.49
1.42632	5.50
1.44298	5.50
1.45965	5.50
1.47632	5.50
1.49298	5.49
1.50965	5.49
1.52632	5.49
1.54298	5.49
1.55965	5.49
1.57632	5.49
1.59298	5.49
1.60965	5.49
1.62632	5.49
1.64298	5.48
1.65965	5.47
1.67632	5.46
1.69298	5.45
1.70965	5.44
1.72632	5.43
1.74298	5.42
1.75965	5.41
1.77632	5.40
1.79298	5.39
1.80965	5.38
1.82632	5.37
1.84298	5.36
1.85965	5.35
1.87632	5.34
1.89298	5.33
1.90965	5.32
1.92632	5.31
1.94298	5.30
1.95965	5.29
1.97632	5.28
1.99298	5.27
2.00965	5.26
2.02632	5.25
2.04298	5.24
2.05965	5.23
2.07632	5.23
2.09298	5.22
2.10965	5.21
2.12632	5.20
2.14298	5.19
2.15965	5.18
2.17632	5.17
2.19298	5.16
2.20965	5.15
2.22632	5.14
2.24298	5.13
2.25965	5.12
2.27632	5.11
2.29298	5.10
2.30965	5.09
2.32632	5.09
2.34298	5.08
2.35965	5.07
2.37632	5.06
2.39298	5.06
2.40965	5.06
2.42632	5.06
2.44298	5.06
2.45965	5.06
2.47632	5.06
2.49298	5.06
2.50965	5.06
2.52632	5.06
2.54298	5.06
2.55965	5.06
2.57632	5.06
2.59298	5.06
2.60965	5.06
2.62632	5.06
2.64298	5.06
2.65965	5.06
2.67632	5.06
2.69298	5.06
2.70965	5.06
2.72632	5.06
2.74298	5.06
2.75965	5.06
2.77632	5.06
2.79298	5.06
2.80965	5.06
2.82632	5.06
2.84298	5.06
2.85965	5.06
2.87632	5.06
2.89298	5.06
2.90965	5.06
2.92632	5.06
2.94298	5.06
2.95965	5.06
2.97632	5.05
2.99298	5.05
3.00965	5.05
3.02632	5.05
3.04298	5.05
3.05965	5.05
3.07632	5.05
3.09298	5.05
3.10965	5.05
3.12632	5.05
3.14298	5.05
3.15965	5.05
3.17632	5.05
3.19298	5.05
3.20965	5.05
3.22632	5.05
3.24298	5.05
3.25965	5.05
3.27632	5.05
3.29298	5.05
3.30965	5.05
3.32632	5.05
3.34298	5.05
3.35965	5.05
3.37632	5.05
3.39298	5.05
3.40965	5.05
3.42632	5.05
3.44298	5.05
3.45965	5.05
3.47632	5.05
3.49298	5.05
3.50965	5.05
3.52632	5.05
3.54298	5.05
3.55965	5.05
3.57632	5.05
3.59298	5.05
3.60965	5.05
3.62632	5.05
3.64298	5.05
3.65965	5.05
3.67632	5.05
3.69298	5.05
3.70965	5.05
3.72632	5.05
3.74298	5.05
3.75965	5.05
3.77632	5.05
3.79298	5.05
3.80965	5.05
3.82632	5.05
3.84298	5.05
3.85965	5.05
3.87632	5.05
3.89298	5.05
3.90965	5.05
3.92632	5.05
3.94298	5.05
3.95965	5.05
3.97632	5.05
3.99298	5.05

[Status Trace (Linear Velocity)]
Interval(msec)	1000
# of Points	240
Start Time(min)	0.010
End Time(min)	3.993
Intensity Units	
Intensity Multiplier	1
R.Time (min)	Intensity
0.00965	39.01
0.02632	37.12
0.04298	38.53
0.05965	39.94
0.07632	39.81
0.09298	39.04
0.10965	39.00
0.12632	39.01
0.14298	39.02
0.15965	39.01
0.17632	39.01
0.19298	39.01
0.20965	39.01
0.22632	39.01
0.24298	39.01
0.25965	39.01
0.27632	39.01
0.29298	39.01
0.30965	39.01
0.32632	39.01
0.34298	39.01
0.35965	39.01
0.37632	39.01
0.39298	39.01
0.40965	39.01
0.42632	39.01
0.44298	39.01
0.45965	39.01
0.47632	39.01
0.49298	39.01
0.50965	39.01
0.52632	39.01
0.54298	39.01
0.55965	39.01
0.57632	39.01
0.59298	39.01
0.60965	39.01
0.62632	39.01
0.64298	39.01
0.65965	39.01
0.67632	39.01
0.69298	39.01
0.70965	39.01
0.72632	39.01
0.74298	39.01
0.75965	39.01
0.77632	39.01
0.79298	39.01
0.80965	39.01
0.82632	39.01
0.84298	39.01
0.85965	39.01
0.87632	39.01
0.89298	39.01
0.90965	39.01
0.92632	39.01
0.94298	39.01
0.95965	39.01
0.97632	39.01
0.99298	39.01
1.00965	39.01
1.02632	39.01
1.04298	39.01
1.05965	39.01
1.07632	39.01
1.09298	39.01
1.10965	39.01
1.12632	39.01
1.14298	39.01
1.15965	39.01
1.17632	39.01
1.19298	39.01
1.20965	39.01
1.22632	39.01
1.24298	39.01
1.25965	39.01
1.27632	39.01
1.29298	39.01
1.30965	39.01
1.32632	39.01
1.34298	39.01
1.35965	39.01
1.37632	39.01
1.39298	39.01
1.40965	39.01
1.42632	39.01
1.44298	39.01
1.45965	39.01
1.47632	39.01
1.49298	39.01
1.50965	39.01
1.52632	39.01
1.54298	39.01
1.55965	39.01
1.57632	39.01
1.59298	39.01
1.60965	39.00
1.62632	38.99
1.64298	38.97
1.65965	38.95
1.67632	38.92
1.69298	38.88
1.70965	38.85
1.72632	38.82
1.74298	38.78
1.75965	38.75
1.77632	38.72
1.79298	38.69
1.80965	38.66
1.82632	38.63
1.84298	38.60
1.85965	38.56
1.87632	38.53
1.89298	38.50
1.90965	38.47
1.92632	38.44
1.94298	38.41
1.95965	38.38
1.97632	38.35
1.99298	38.32
2.00965	38.29
2.02632	38.26
2.04298	38.23
2.05965	38.20
2.07632	38.17
2.09298	38.14
2.10965	38.12
2.12632	38.08
2.14298	38.06
2.15965	38.03
2.17632	38.00
2.19298	37.97
2.20965	37.94
2.22632	37.91
2.24298	37.88
2.25965	37.85
2.27632	37.82
2.29298	37.79
2.30965	37.76
2.32632	37.73
2.34298	37.70
2.35965	37.67
2.37632	37.66
2.39298	37.65
2.40965	37.65
2.42632	37.66
2.44298	37.66
2.45965	37.65
2.47632	37.65
2.49298	37.65
2.50965	37.65
2.52632	37.64
2.54298	37.65
2.55965	37.65
2.57632	37.65
2.59298	37.65
2.60965	37.64
2.62632	37.64
2.64298	37.64
2.65965	37.64
2.67632	37.64
2.69298	37.64
2.70965	37.64
2.72632	37.64
2.74298	37.64
2.75965	37.64
2.77632	37.64
2.79298	37.64
2.80965	37.64
2.82632	37.64
2.84298	37.64
2.85965	37.63
2.87632	37.63
2.89298	37.63
2.90965	37.63
2.92632	37.63
2.94298	37.63
2.95965	37.63
2.97632	37.63
2.99298	37.63
3.00965	37.63
3.02632	37.63
3.04298	37.63
3.05965	37.63
3.07632	37.63
3.09298	37.63
3.10965	37.63
3.12632	37.63
3.14298	37.63
3.15965	37.62
3.17632	37.62
3.19298	37.62
3.20965	37.62
3.22632	37.62
3.24298	37.62
3.25965	37.62
3.27632	37.62
3.29298	37.62
3.30965	37.62
3.32632	37.62
3.34298	37.62
3.35965	37.62
3.37632	37.62
3.39298	37.62
3.40965	37.62
3.42632	37.62
3.44298	37.62
3.45965	37.62
3.47632	37.62
3.49298	37.62
3.50965	37.62
3.52632	37.62
3.54298	37.62
3.55965	37.62
3.57632	37.62
3.59298	37.62
3.60965	37.62
3.62632	37.62
3.64298	37.62
3.65965	37.62
3.67632	37.62
3.69298	37.62
3.70965	37.62
3.72632	37.62
3.74298	37.62
3.75965	37.62
3.77632	37.62
3.79298	37.63
3.80965	37.63
3.82632	37.63
3.84298	37.62
3.85965	37.62
3.87632	37.62
3.89298	37.62
3.90965	37.62
3.92632	37.62
3.94298	37.62
3.95965	37.62
3.97632	37.62
3.99298	37.62

