[Header]
Application Name	LabSolutions
Version	5.110
Data File Name	C:\Users\User\Desktop\Junior\UIC Prairie Sampling\6.15.23\06152023_011.gcd
Output Date	6/26/2023
Output Time	12:05:07 PM

[File Information]
Type	Data File
Generated	6/23/2023 11:57:54 AM
Generated by	System Administrator
Modified	6/23/2023 12:05:32 PM
Modified by	System Administrator

[Sample Information]
Operator Name	System Administrator
Acquired	6/23/2023 12:01:32 PM
Sample Type	0:Unknown
Level	0
Sample Name	011
Sample ID	011
ISTD Amount1	1
ISTD Amount2	1
ISTD Amount3	1
ISTD Amount4	1
ISTD Amount5	1
ISTD Amount6	1
ISTD Amount7	1
ISTD Amount8	1
ISTD Amount9	1
ISTD Amount10	1
ISTD Amount11	1
ISTD Amount12	1
ISTD Amount13	1
ISTD Amount14	1
ISTD Amount15	1
ISTD Amount16	1
ISTD Amount17	1
ISTD Amount18	1
ISTD Amount19	1
ISTD Amount20	1
ISTD Amount21	1
ISTD Amount22	1
ISTD Amount23	1
ISTD Amount24	1
ISTD Amount25	1
ISTD Amount26	1
ISTD Amount27	1
ISTD Amount28	1
ISTD Amount29	1
ISTD Amount30	1
ISTD Amount31	1
ISTD Amount32	1
Sample Amount	1
Dilution Factor	1
Vial#	10
Injection Volume	1
Injection Count	1
Bar Code	

[Original Files]
Data File	C:\Users\User\Desktop\Junior\UIC Prairie Sampling\6.15.23\06152023_011.gcd
Method File	C:\LabSolutions\Data\GHG_4min_2022\ghg3_togas_w_acet_4 min_new_int.gcm
Batch File	C:\LabSolutions\Data\AutoSamplerTesting\06152023.gcb
Report Format File	c:\LabSolutions\System\DEFAULT.lsr

[File Description]


[Configuration]
Instrument Name	C0B7VH3-Instrument1
Instrument #	1
Line #	1
# of Detectors	3
Detector ID	DET#1	DET#2	DET#3
Detector Name	FID	PTCD	ECD
# of Channels	1	1	1

[Peak Table(Ch1)]
# of Peaks	3
Peak#	R.Time	I.Time	F.Time	Area	Height	A/H	Conc.	Mark	ID#	Name	k'	Plate #	Plate Ht.	Tailing	Resolution	Sep.Factor	Area Ratio	Height Ratio	Conc. %	Norm Conc.
1	1.472	1.424	1.527	2933	1462	2.006	0.000	   	1	CO	0.000	9593	15.637	1.355	0.000	0.000	0	0	0.000	0.000
2	1.560	1.527	1.619	4313	2218	1.945	21.027	 V 	2	CH4	0.060	11804	12.707	1.282	1.497	0.000	0	0	10.170	10.170
3	1.989	1.945	2.462	963721	461825	2.087	185.727	   	3	CO2	0.351	17505	8.569	1.284	7.298	5.875	0	0	89.830	89.830

[Peak Table(Ch2)]
# of Peaks	0

[Peak Table(Ch3)]
# of Peaks	4
Peak#	R.Time	I.Time	F.Time	Area	Height	A/H	Conc.	Mark	ID#	Name	k'	Plate #	Plate Ht.	Tailing	Resolution	Sep.Factor	Area Ratio	Height Ratio	Conc. %	Norm Conc.
1	2.499	2.400	2.539	3573	735	4.860	0.000	   			0.000	1227	122.296	0.000	0.000	0.000	0	0	0.000	0.000
2	2.568	2.539	2.660	4275	695	6.153	0.000	 V 			0.028	60	2491.970	0.000	0.087	0.000	0	0	0.000	0.000
3	2.719	2.660	2.821	4676	541	8.640	0.000	 V 			0.088	195	768.965	0.000	0.143	3.158	0	0	0.000	0.000
4	2.887	2.821	3.852	32165	5031	6.393	0.476	 V 	1	N2O	0.156	11969	12.532	0.000	0.382	1.767	0	0	100.000	100.000

[Compound Results(Ch1)]
# of IDs	6
ID#	Name	R.Time	Area	Height	Conc.	Curve	3rd	2nd	1st	Constant	Area Ratio	Height Ratio	Conc. %	Norm Conc.
1	CO	1.472	2933	1462	0.000	Linear	0.000000e+00	0.000000e+00	0.000000e+00	0.000000e+00	0	0	0.000	0.000
2	CH4	1.560	4313	2218	21.027	Linear	0.000000e+00	0.000000e+00	2.051179e+002	0.000000e+00	0	0	10.170	10.170
3	CO2	1.989	963721	461825	185.727	Linear	0.000000e+00	0.000000e+00	5.188919e+003	0.000000e+00	0	0	89.830	89.830
4	Ethylene	0.000	0	0	0.000	Linear	0.000000e+00	0.000000e+00	0.000000e+00	0.000000e+00	0	0	0.000	0.000
5	Acetylene	0.000	0	0	0.000	Linear	0.000000e+00	0.000000e+00	0.000000e+00	0.000000e+00	0	0	0.000	0.000
6	Ethane	0.000	0	0	0.000	Linear	0.000000e+00	0.000000e+00	0.000000e+00	0.000000e+00	0	0	0.000	0.000

[Compound Results(Ch2)]
# of IDs	5
ID#	Name	R.Time	Area	Height	Conc.	Curve	3rd	2nd	1st	Constant	Area Ratio	Height Ratio	Conc. %	Norm Conc.
1	Hydrogen	0.000	0	0	0.000	Linear	0.000000e+00	0.000000e+00	0.000000e+00	0.000000e+00	0	0	0.000	0.000
2	Oxygen	0.000	0	0	0.000	Linear	0.000000e+00	0.000000e+00	0.000000e+00	0.000000e+00	0	0	0.000	0.000
3	Nitrogen	0.000	0	0	0.000	Linear	0.000000e+00	0.000000e+00	0.000000e+00	0.000000e+00	0	0	0.000	0.000
4	Methane	0.000	0	0	0.000	Linear	0.000000e+00	0.000000e+00	0.000000e+00	0.000000e+00	0	0	0.000	0.000
5	Carbon Monoxide	0.000	0	0	0.000	Linear	0.000000e+00	0.000000e+00	0.000000e+00	0.000000e+00	0	0	0.000	0.000

[Compound Results(Ch3)]
# of IDs	2
ID#	Name	R.Time	Area	Height	Conc.	Curve	3rd	2nd	1st	Constant	Area Ratio	Height Ratio	Conc. %	Norm Conc.
1	N2O	2.887	32165	5031	0.476	Linear	0.000000e+00	0.000000e+00	6.759880e+004	0.000000e+00	0	0	100.000	100.000
2	SF6	0.000	0	0	0.000	Linear	0.000000e+00	0.000000e+00	0.000000e+00	0.000000e+00	0	0	0.000	0.000

[Group Results(Ch1)]
# of Groups	0

[Group Results(Ch2)]
# of Groups	0

[Group Results(Ch3)]
# of Groups	0

[Chromatogram (Ch1)]
Interval(msec)	220
# of Points	1091
Start Time(min)	0.002
End Time(min)	3.998
R.Time (min)	Intensity
0.00167	-22
0.00533	-31
0.00900	-40
0.01267	-46
0.01633	-48
0.02000	-50
0.02367	-52
0.02733	-53
0.03100	-52
0.03467	-50
0.03833	-46
0.04200	-41
0.04567	-35
0.04933	-30
0.05300	-27
0.05667	-23
0.06033	-18
0.06400	-14
0.06767	-14
0.07133	-15
0.07500	-16
0.07867	-16
0.08233	-18
0.08600	-22
0.08967	-27
0.09333	-32
0.09700	-36
0.10067	-39
0.10433	-39
0.10800	-36
0.11167	-33
0.11533	-31
0.11900	-29
0.12267	-27
0.12633	-26
0.13000	-23
0.13367	-17
0.13733	-15
0.14100	-18
0.14467	-24
0.14833	-28
0.15200	-31
0.15567	-33
0.15933	-33
0.16300	-34
0.16667	-37
0.17033	-38
0.17400	-39
0.17767	-37
0.18133	-34
0.18500	-28
0.18867	-23
0.19233	-21
0.19600	-23
0.19967	-26
0.20333	-29
0.20700	-31
0.21067	-30
0.21433	-30
0.21800	-30
0.22167	-26
0.22533	-24
0.22900	-25
0.23267	-23
0.23633	-21
0.24000	-20
0.24367	-21
0.24733	-26
0.25100	-32
0.25467	-37
0.25833	-39
0.26200	-40
0.26567	-36
0.26933	-31
0.27300	-26
0.27667	-25
0.28033	-29
0.28400	-35
0.28767	-41
0.29133	-46
0.29500	-50
0.29867	-51
0.30233	-53
0.30600	-58
0.30967	-67
0.31333	-75
0.31700	-82
0.32067	-86
0.32433	-86
0.32800	-83
0.33167	-78
0.33533	-71
0.33900	-66
0.34267	-64
0.34633	-61
0.35000	-54
0.35367	-45
0.35733	-38
0.36100	-35
0.36467	-32
0.36833	-29
0.37200	-29
0.37567	-30
0.37933	-33
0.38300	-42
0.38667	-53
0.39033	-59
0.39400	-59
0.39767	-53
0.40133	-43
0.40500	-35
0.40867	-31
0.41233	-33
0.41600	-40
0.41967	-46
0.42333	-48
0.42700	-49
0.43067	-49
0.43433	-48
0.43800	-44
0.44167	-42
0.44533	-43
0.44900	-44
0.45267	-49
0.45633	-55
0.46000	-58
0.46367	-58
0.46733	-59
0.47100	-65
0.47467	-69
0.47833	-69
0.48200	-69
0.48567	-69
0.48933	-67
0.49300	-63
0.49667	-60
0.50033	-59
0.50400	-60
0.50767	-63
0.51133	-67
0.51500	-70
0.51867	-77
0.52233	-81
0.52600	-81
0.52967	-79
0.53333	-76
0.53700	-73
0.54067	-72
0.54433	-71
0.54800	-71
0.55167	-70
0.55533	-70
0.55900	-68
0.56267	-62
0.56633	-60
0.57000	-61
0.57367	-63
0.57733	-67
0.58100	-73
0.58467	-76
0.58833	-78
0.59200	-81
0.59567	-82
0.59933	-85
0.60300	-88
0.60667	-86
0.61033	-78
0.61400	-70
0.61767	-66
0.62133	-69
0.62500	-71
0.62867	-70
0.63233	-65
0.63600	-60
0.63967	-55
0.64333	-53
0.64700	-54
0.65067	-57
0.65433	-63
0.65800	-71
0.66167	-77
0.66533	-80
0.66900	-77
0.67267	-67
0.67633	-56
0.68000	-49
0.68367	-54
0.68733	-67
0.69100	-79
0.69467	-89
0.69833	-95
0.70200	-97
0.70567	-90
0.70933	-81
0.71300	-74
0.71667	-70
0.72033	-69
0.72400	-70
0.72767	-74
0.73133	-80
0.73500	-84
0.73867	-83
0.74233	-81
0.74600	-77
0.74967	-73
0.75333	-72
0.75700	-76
0.76067	-81
0.76433	-84
0.76800	-86
0.77167	-89
0.77533	-90
0.77900	-92
0.78267	-94
0.78633	-95
0.79000	-94
0.79367	-91
0.79733	-92
0.80100	-94
0.80467	-92
0.80833	-88
0.81200	-84
0.81567	-83
0.81933	-84
0.82300	-85
0.82667	-84
0.83033	-85
0.83400	-87
0.83767	-89
0.84133	-87
0.84500	-82
0.84867	-80
0.85233	-78
0.85600	-72
0.85967	-65
0.86333	-60
0.86700	-61
0.87067	-65
0.87433	-72
0.87800	-80
0.88167	-88
0.88533	-93
0.88900	-96
0.89267	-99
0.89633	-102
0.90000	-105
0.90367	-106
0.90733	-104
0.91100	-98
0.91467	-91
0.91833	-81
0.92200	-74
0.92567	-73
0.92933	-75
0.93300	-75
0.93667	-71
0.94033	-65
0.94400	-56
0.94767	-49
0.95133	-47
0.95500	-50
0.95867	-57
0.96233	-68
0.96600	-81
0.96967	-92
0.97333	-101
0.97700	-108
0.98067	-111
0.98433	-113
0.98800	-116
0.99167	-121
0.99533	-122
0.99900	-121
1.00267	-117
1.00633	-113
1.01000	-109
1.01367	-107
1.01733	-108
1.02100	-108
1.02467	-103
1.02833	-90
1.03200	-80
1.03567	-77
1.03933	-79
1.04300	-83
1.04667	-90
1.05033	-97
1.05400	-101
1.05767	-103
1.06133	-104
1.06500	-106
1.06867	-107
1.07233	-103
1.07600	-100
1.07967	-101
1.08333	-105
1.08700	-106
1.09067	-102
1.09433	-97
1.09800	-92
1.10167	-88
1.10533	-86
1.10900	-87
1.11267	-87
1.11633	-86
1.12000	-86
1.12367	-89
1.12733	-93
1.13100	-96
1.13467	-98
1.13833	-100
1.14200	-103
1.14567	-104
1.14933	-102
1.15300	-102
1.15667	-102
1.16033	-101
1.16400	-98
1.16767	-94
1.17133	-88
1.17500	-82
1.17867	-79
1.18233	-78
1.18600	-78
1.18967	-80
1.19333	-85
1.19700	-95
1.20067	-105
1.20433	-116
1.20800	-122
1.21167	-122
1.21533	-118
1.21900	-112
1.22267	-107
1.22633	-103
1.23000	-102
1.23367	-103
1.23733	-103
1.24100	-100
1.24467	-95
1.24833	-92
1.25200	-90
1.25567	-88
1.25933	-86
1.26300	-86
1.26667	-88
1.27033	-88
1.27400	-87
1.27767	-87
1.28133	-88
1.28500	-92
1.28867	-101
1.29233	-110
1.29600	-117
1.29967	-119
1.30333	-116
1.30700	-112
1.31067	-110
1.31433	-110
1.31800	-110
1.32167	-111
1.32533	-112
1.32900	-114
1.33267	-119
1.33633	-122
1.34000	-122
1.34367	-120
1.34733	-120
1.35100	-121
1.35467	-121
1.35833	-118
1.36200	-115
1.36567	-110
1.36933	-101
1.37300	-92
1.37667	-89
1.38033	-92
1.38400	-94
1.38767	-92
1.39133	-89
1.39500	-87
1.39867	-88
1.40233	-92
1.40600	-98
1.40967	-105
1.41333	-115
1.41700	-121
1.42067	-118
1.42433	-109
1.42800	-101
1.43167	-98
1.43533	-92
1.43900	-83
1.44267	-86
1.44633	-60
1.45000	70
1.45367	310
1.45733	594
1.46100	866
1.46467	1098
1.46833	1270
1.47200	1351
1.47567	1315
1.47933	1172
1.48300	962
1.48667	734
1.49033	525
1.49400	353
1.49767	227
1.50133	136
1.50500	68
1.50867	18
1.51233	-20
1.51600	-49
1.51967	-70
1.52333	-84
1.52700	-92
1.53067	-86
1.53433	-37
1.53800	115
1.54167	415
1.54533	831
1.54900	1274
1.55267	1660
1.55633	1946
1.56000	2104
1.56367	2100
1.56733	1919
1.57100	1601
1.57467	1226
1.57833	872
1.58200	580
1.58567	359
1.58933	202
1.59300	93
1.59667	22
1.60033	-22
1.60400	-51
1.60767	-72
1.61133	-89
1.61500	-104
1.61867	-116
1.62233	-117
1.62600	-114
1.62967	-113
1.63333	-112
1.63700	-114
1.64067	-118
1.64433	-123
1.64800	-125
1.65167	-126
1.65533	-129
1.65900	-134
1.66267	-135
1.66633	-132
1.67000	-127
1.67367	-123
1.67733	-121
1.68100	-119
1.68467	-120
1.68833	-123
1.69200	-124
1.69567	-127
1.69933	-132
1.70300	-135
1.70667	-135
1.71033	-133
1.71400	-131
1.71767	-131
1.72133	-134
1.72500	-133
1.72867	-128
1.73233	-119
1.73600	-112
1.73967	-111
1.74333	-114
1.74700	-117
1.75067	-119
1.75433	-121
1.75800	-127
1.76167	-137
1.76533	-145
1.76900	-146
1.77267	-140
1.77633	-133
1.78000	-132
1.78367	-136
1.78733	-140
1.79100	-142
1.79467	-144
1.79833	-144
1.80200	-142
1.80567	-139
1.80933	-138
1.81300	-142
1.81667	-149
1.82033	-153
1.82400	-152
1.82767	-147
1.83133	-142
1.83500	-144
1.83867	-149
1.84233	-153
1.84600	-155
1.84967	-155
1.85333	-151
1.85700	-147
1.86067	-144
1.86433	-139
1.86800	-133
1.87167	-127
1.87533	-125
1.87900	-131
1.88267	-140
1.88633	-151
1.89000	-160
1.89367	-160
1.89733	-155
1.90100	-150
1.90467	-147
1.90833	-142
1.91200	-133
1.91567	-122
1.91933	-116
1.92300	-120
1.92667	-130
1.93033	-141
1.93400	-154
1.93767	-167
1.94133	-175
1.94500	-165
1.94867	-72
1.95233	456
1.95600	2801
1.95967	10699
1.96333	31042
1.96700	71876
1.97067	136821
1.97433	220077
1.97800	308175
1.98167	385727
1.98533	439791
1.98900	461684
1.99267	448828
1.99633	405769
2.00000	343081
2.00367	273516
2.00733	207765
2.01100	152162
2.01467	108733
2.01833	76668
2.02200	53892
2.02567	38124
2.02933	27363
2.03300	20064
2.03667	15111
2.04033	11722
2.04400	9370
2.04767	7705
2.05133	6506
2.05500	5619
2.05867	4944
2.06233	4414
2.06600	3989
2.06967	3644
2.07333	3353
2.07700	3102
2.08067	2883
2.08433	2694
2.08800	2527
2.09167	2375
2.09533	2238
2.09900	2110
2.10267	1992
2.10633	1885
2.11000	1789
2.11367	1703
2.11733	1623
2.12100	1550
2.12467	1485
2.12833	1426
2.13200	1373
2.13567	1323
2.13933	1276
2.14300	1230
2.14667	1185
2.15033	1142
2.15400	1105
2.15767	1074
2.16133	1047
2.16500	1024
2.16867	999
2.17233	972
2.17600	939
2.17967	904
2.18333	870
2.18700	840
2.19067	818
2.19433	798
2.19800	779
2.20167	759
2.20533	738
2.20900	715
2.21267	693
2.21633	674
2.22000	660
2.22367	648
2.22733	635
2.23100	619
2.23467	600
2.23833	577
2.24200	553
2.24567	533
2.24933	517
2.25300	505
2.25667	491
2.26033	475
2.26400	458
2.26767	439
2.27133	422
2.27500	410
2.27867	405
2.28233	402
2.28600	399
2.28967	396
2.29333	394
2.29700	391
2.30067	385
2.30433	378
2.30800	373
2.31167	367
2.31533	358
2.31900	345
2.32267	330
2.32633	313
2.33000	300
2.33367	287
2.33733	276
2.34100	271
2.34467	273
2.34833	277
2.35200	277
2.35567	270
2.35933	263
2.36300	257
2.36667	253
2.37033	249
2.37400	243
2.37767	238
2.38133	234
2.38500	229
2.38867	225
2.39233	221
2.39600	216
2.39967	213
2.40333	210
2.40700	210
2.41067	211
2.41433	210
2.41800	203
2.42167	194
2.42533	183
2.42900	174
2.43267	171
2.43633	175
2.44000	177
2.44367	172
2.44733	159
2.45100	146
2.45467	136
2.45833	129
2.46200	126
2.46567	126
2.46933	127
2.47300	128
2.47667	128
2.48033	127
2.48400	127
2.48767	126
2.49133	125
2.49500	124
2.49867	124
2.50233	123
2.50600	123
2.50967	123
2.51333	123
2.51700	127
2.52067	131
2.52433	135
2.52800	140
2.53167	142
2.53533	137
2.53900	128
2.54267	116
2.54633	102
2.55000	87
2.55367	77
2.55733	73
2.56100	72
2.56467	68
2.56833	64
2.57200	62
2.57567	60
2.57933	59
2.58300	59
2.58667	64
2.59033	68
2.59400	69
2.59767	71
2.60133	75
2.60500	76
2.60867	73
2.61233	69
2.61600	66
2.61967	65
2.62333	68
2.62700	72
2.63067	77
2.63433	80
2.63800	77
2.64167	72
2.64533	67
2.64900	64
2.65267	62
2.65633	57
2.66000	52
2.66367	46
2.66733	41
2.67100	39
2.67467	40
2.67833	41
2.68200	45
2.68567	53
2.68933	60
2.69300	62
2.69667	59
2.70033	51
2.70400	44
2.70767	40
2.71133	41
2.71500	44
2.71867	46
2.72233	43
2.72600	40
2.72967	39
2.73333	40
2.73700	38
2.74067	30
2.74433	17
2.74800	6
2.75167	0
2.75533	-3
2.75900	-4
2.76267	-0
2.76633	4
2.77000	8
2.77367	9
2.77733	11
2.78100	13
2.78467	14
2.78833	19
2.79200	27
2.79567	32
2.79933	35
2.80300	36
2.80667	37
2.81033	36
2.81400	36
2.81767	36
2.82133	33
2.82500	26
2.82867	18
2.83233	7
2.83600	-4
2.83967	-13
2.84333	-18
2.84700	-20
2.85067	-21
2.85433	-17
2.85800	-10
2.86167	-4
2.86533	-0
2.86900	2
2.87267	4
2.87633	7
2.88000	8
2.88367	6
2.88733	3
2.89100	2
2.89467	3
2.89833	5
2.90200	8
2.90567	8
2.90933	6
2.91300	1
2.91667	-5
2.92033	-8
2.92400	-9
2.92767	-6
2.93133	2
2.93500	7
2.93867	7
2.94233	5
2.94600	1
2.94967	-4
2.95333	-3
2.95700	5
2.96067	16
2.96433	26
2.96800	36
2.97167	37
2.97533	24
2.97900	8
2.98267	-8
2.98633	-21
2.99000	-27
2.99367	-29
2.99733	-29
3.00100	-27
3.00467	-22
3.00833	-19
3.01200	-16
3.01567	-18
3.01933	-22
3.02300	-28
3.02667	-30
3.03033	-26
3.03400	-26
3.03767	-28
3.04133	-28
3.04500	-26
3.04867	-25
3.05233	-23
3.05600	-18
3.05967	-14
3.06333	-12
3.06700	-16
3.07067	-25
3.07433	-33
3.07800	-36
3.08167	-34
3.08533	-29
3.08900	-28
3.09267	-27
3.09633	-25
3.10000	-25
3.10367	-26
3.10733	-24
3.11100	-20
3.11467	-17
3.11833	-15
3.12200	-14
3.12567	-16
3.12933	-21
3.13300	-31
3.13667	-39
3.14033	-43
3.14400	-41
3.14767	-35
3.15133	-33
3.15500	-32
3.15867	-30
3.16233	-31
3.16600	-34
3.16967	-41
3.17333	-49
3.17700	-56
3.18067	-60
3.18433	-62
3.18800	-62
3.19167	-62
3.19533	-62
3.19900	-62
3.20267	-59
3.20633	-53
3.21000	-49
3.21367	-47
3.21733	-46
3.22100	-43
3.22467	-36
3.22833	-31
3.23200	-30
3.23567	-34
3.23933	-35
3.24300	-33
3.24667	-28
3.25033	-29
3.25400	-36
3.25767	-45
3.26133	-53
3.26500	-56
3.26867	-58
3.27233	-62
3.27600	-64
3.27967	-65
3.28333	-63
3.28700	-56
3.29067	-47
3.29433	-41
3.29800	-37
3.30167	-36
3.30533	-36
3.30900	-39
3.31267	-41
3.31633	-39
3.32000	-37
3.32367	-40
3.32733	-46
3.33100	-53
3.33467	-61
3.33833	-64
3.34200	-61
3.34567	-56
3.34933	-52
3.35300	-49
3.35667	-47
3.36033	-46
3.36400	-44
3.36767	-40
3.37133	-38
3.37500	-36
3.37867	-34
3.38233	-33
3.38600	-32
3.38967	-30
3.39333	-26
3.39700	-25
3.40067	-31
3.40433	-39
3.40800	-46
3.41167	-52
3.41533	-55
3.41900	-55
3.42267	-56
3.42633	-58
3.43000	-59
3.43367	-59
3.43733	-60
3.44100	-65
3.44467	-71
3.44833	-75
3.45200	-76
3.45567	-76
3.45933	-74
3.46300	-73
3.46667	-71
3.47033	-74
3.47400	-79
3.47767	-81
3.48133	-81
3.48500	-78
3.48867	-76
3.49233	-74
3.49600	-70
3.49967	-66
3.50333	-62
3.50700	-60
3.51067	-57
3.51433	-54
3.51800	-54
3.52167	-55
3.52533	-58
3.52900	-60
3.53267	-60
3.53633	-62
3.54000	-68
3.54367	-76
3.54733	-82
3.55100	-82
3.55467	-79
3.55833	-72
3.56200	-64
3.56567	-56
3.56933	-48
3.57300	-44
3.57667	-45
3.58033	-51
3.58400	-59
3.58767	-68
3.59133	-75
3.59500	-83
3.59867	-90
3.60233	-97
3.60600	-99
3.60967	-96
3.61333	-90
3.61700	-83
3.62067	-76
3.62433	-73
3.62800	-72
3.63167	-73
3.63533	-77
3.63900	-81
3.64267	-83
3.64633	-83
3.65000	-83
3.65367	-84
3.65733	-84
3.66100	-81
3.66467	-78
3.66833	-71
3.67200	-63
3.67567	-57
3.67933	-54
3.68300	-55
3.68667	-56
3.69033	-57
3.69400	-59
3.69767	-62
3.70133	-69
3.70500	-74
3.70867	-75
3.71233	-75
3.71600	-75
3.71967	-74
3.72333	-70
3.72700	-65
3.73067	-66
3.73433	-74
3.73800	-82
3.74167	-85
3.74533	-84
3.74900	-83
3.75267	-84
3.75633	-87
3.76000	-89
3.76367	-88
3.76733	-86
3.77100	-83
3.77467	-78
3.77833	-73
3.78200	-72
3.78567	-71
3.78933	-74
3.79300	-80
3.79667	-85
3.80033	-90
3.80400	-95
3.80767	-99
3.81133	-101
3.81500	-102
3.81867	-102
3.82233	-101
3.82600	-97
3.82967	-86
3.83333	-76
3.83700	-70
3.84067	-69
3.84433	-76
3.84800	-90
3.85167	-101
3.85533	-105
3.85900	-106
3.86267	-107
3.86633	-105
3.87000	-98
3.87367	-89
3.87733	-84
3.88100	-82
3.88467	-81
3.88833	-79
3.89200	-74
3.89567	-72
3.89933	-76
3.90300	-83
3.90667	-91
3.91033	-93
3.91400	-87
3.91767	-79
3.92133	-73
3.92500	-74
3.92867	-80
3.93233	-85
3.93600	-87
3.93967	-87
3.94333	-89
3.94700	-89
3.95067	-88
3.95433	-89
3.95800	-92
3.96167	-95
3.96533	-95
3.96900	-96
3.97267	-98
3.97633	-99
3.98000	-96
3.98367	-94
3.98733	-92
3.99100	-91
3.99467	-93
3.99833	-95

[Chromatogram (Ch2)]
Interval(msec)	220
# of Points	1091
Start Time(min)	0.002
End Time(min)	3.998
R.Time (min)	Intensity
0.00167	0
0.00533	1
0.00900	1
0.01267	1
0.01633	1
0.02000	1
0.02367	1
0.02733	1
0.03100	2
0.03467	2
0.03833	2
0.04200	3
0.04567	3
0.04933	4
0.05300	4
0.05667	4
0.06033	5
0.06400	5
0.06767	5
0.07133	5
0.07500	5
0.07867	4
0.08233	4
0.08600	4
0.08967	4
0.09333	4
0.09700	4
0.10067	4
0.10433	4
0.10800	4
0.11167	4
0.11533	4
0.11900	4
0.12267	4
0.12633	4
0.13000	4
0.13367	4
0.13733	4
0.14100	4
0.14467	4
0.14833	4
0.15200	4
0.15567	4
0.15933	3
0.16300	3
0.16667	3
0.17033	2
0.17400	2
0.17767	2
0.18133	2
0.18500	2
0.18867	2
0.19233	1
0.19600	2
0.19967	2
0.20333	2
0.20700	2
0.21067	2
0.21433	3
0.21800	3
0.22167	3
0.22533	3
0.22900	4
0.23267	4
0.23633	4
0.24000	4
0.24367	4
0.24733	3
0.25100	3
0.25467	3
0.25833	3
0.26200	3
0.26567	3
0.26933	3
0.27300	3
0.27667	2
0.28033	2
0.28400	1
0.28767	1
0.29133	1
0.29500	1
0.29867	2
0.30233	2
0.30600	2
0.30967	2
0.31333	2
0.31700	2
0.32067	1
0.32433	1
0.32800	1
0.33167	1
0.33533	1
0.33900	1
0.34267	1
0.34633	1
0.35000	1
0.35367	2
0.35733	2
0.36100	2
0.36467	2
0.36833	2
0.37200	2
0.37567	1
0.37933	1
0.38300	1
0.38667	1
0.39033	1
0.39400	1
0.39767	1
0.40133	1
0.40500	1
0.40867	1
0.41233	1
0.41600	1
0.41967	1
0.42333	1
0.42700	1
0.43067	1
0.43433	1
0.43800	1
0.44167	1
0.44533	1
0.44900	1
0.45267	1
0.45633	1
0.46000	2
0.46367	2
0.46733	2
0.47100	2
0.47467	2
0.47833	2
0.48200	2
0.48567	2
0.48933	2
0.49300	2
0.49667	2
0.50033	2
0.50400	2
0.50767	2
0.51133	2
0.51500	2
0.51867	2
0.52233	2
0.52600	2
0.52967	2
0.53333	2
0.53700	2
0.54067	2
0.54433	2
0.54800	2
0.55167	2
0.55533	2
0.55900	1
0.56267	1
0.56633	0
0.57000	0
0.57367	-0
0.57733	-1
0.58100	-1
0.58467	-1
0.58833	-1
0.59200	-2
0.59567	-1
0.59933	-1
0.60300	-1
0.60667	-0
0.61033	-0
0.61400	-0
0.61767	0
0.62133	0
0.62500	0
0.62867	0
0.63233	0
0.63600	0
0.63967	0
0.64333	0
0.64700	0
0.65067	0
0.65433	0
0.65800	0
0.66167	0
0.66533	0
0.66900	1
0.67267	1
0.67633	1
0.68000	1
0.68367	1
0.68733	1
0.69100	1
0.69467	1
0.69833	1
0.70200	1
0.70567	1
0.70933	1
0.71300	1
0.71667	1
0.72033	1
0.72400	1
0.72767	1
0.73133	1
0.73500	1
0.73867	1
0.74233	1
0.74600	1
0.74967	1
0.75333	1
0.75700	1
0.76067	0
0.76433	0
0.76800	0
0.77167	0
0.77533	1
0.77900	1
0.78267	1
0.78633	1
0.79000	1
0.79367	1
0.79733	1
0.80100	1
0.80467	1
0.80833	1
0.81200	1
0.81567	0
0.81933	0
0.82300	0
0.82667	0
0.83033	0
0.83400	-0
0.83767	-0
0.84133	-1
0.84500	-1
0.84867	-1
0.85233	-1
0.85600	-0
0.85967	-0
0.86333	0
0.86700	0
0.87067	1
0.87433	1
0.87800	1
0.88167	1
0.88533	1
0.88900	0
0.89267	0
0.89633	-0
0.90000	-0
0.90367	0
0.90733	0
0.91100	0
0.91467	1
0.91833	1
0.92200	1
0.92567	1
0.92933	1
0.93300	1
0.93667	1
0.94033	1
0.94400	1
0.94767	1
0.95133	1
0.95500	1
0.95867	1
0.96233	1
0.96600	1
0.96967	1
0.97333	1
0.97700	1
0.98067	1
0.98433	1
0.98800	1
0.99167	1
0.99533	0
0.99900	0
1.00267	-0
1.00633	-0
1.01000	-1
1.01367	-1
1.01733	-1
1.02100	-1
1.02467	-1
1.02833	-1
1.03200	-1
1.03567	-2
1.03933	-2
1.04300	-3
1.04667	-3
1.05033	-3
1.05400	-4
1.05767	-4
1.06133	-4
1.06500	-4
1.06867	-4
1.07233	-3
1.07600	-3
1.07967	-2
1.08333	-2
1.08700	-2
1.09067	-2
1.09433	-1
1.09800	-1
1.10167	-1
1.10533	-1
1.10900	-1
1.11267	-1
1.11633	-1
1.12000	-0
1.12367	-0
1.12733	0
1.13100	0
1.13467	0
1.13833	0
1.14200	0
1.14567	0
1.14933	1
1.15300	1
1.15667	0
1.16033	0
1.16400	0
1.16767	0
1.17133	1
1.17500	1
1.17867	1
1.18233	1
1.18600	1
1.18967	1
1.19333	1
1.19700	1
1.20067	1
1.20433	0
1.20800	0
1.21167	-0
1.21533	-0
1.21900	-1
1.22267	-1
1.22633	-1
1.23000	-1
1.23367	-1
1.23733	-1
1.24100	-2
1.24467	-2
1.24833	-2
1.25200	-3
1.25567	-3
1.25933	-3
1.26300	-3
1.26667	-3
1.27033	-3
1.27400	-3
1.27767	-3
1.28133	-3
1.28500	-3
1.28867	-2
1.29233	-2
1.29600	-2
1.29967	-2
1.30333	-2
1.30700	-2
1.31067	-2
1.31433	-2
1.31800	-2
1.32167	-2
1.32533	-2
1.32900	-2
1.33267	-2
1.33633	-3
1.34000	-3
1.34367	-4
1.34733	-4
1.35100	-5
1.35467	-5
1.35833	-5
1.36200	-5
1.36567	-5
1.36933	-5
1.37300	-5
1.37667	-5
1.38033	-5
1.38400	-4
1.38767	-4
1.39133	-4
1.39500	-4
1.39867	-4
1.40233	-4
1.40600	-4
1.40967	-4
1.41333	-4
1.41700	-4
1.42067	-4
1.42433	-3
1.42800	-3
1.43167	-2
1.43533	-2
1.43900	-2
1.44267	-2
1.44633	-2
1.45000	-2
1.45367	-2
1.45733	-2
1.46100	-2
1.46467	-2
1.46833	-2
1.47200	-2
1.47567	-2
1.47933	-2
1.48300	-2
1.48667	-2
1.49033	-2
1.49400	-1
1.49767	-1
1.50133	-0
1.50500	0
1.50867	0
1.51233	1
1.51600	1
1.51967	2
1.52333	2
1.52700	2
1.53067	2
1.53433	2
1.53800	3
1.54167	3
1.54533	3
1.54900	3
1.55267	3
1.55633	2
1.56000	2
1.56367	2
1.56733	2
1.57100	2
1.57467	2
1.57833	2
1.58200	1
1.58567	1
1.58933	0
1.59300	-0
1.59667	-1
1.60033	-2
1.60400	-3
1.60767	-5
1.61133	-7
1.61500	-9
1.61867	-11
1.62233	-14
1.62600	-17
1.62967	-20
1.63333	-23
1.63700	-26
1.64067	-30
1.64433	-33
1.64800	-37
1.65167	-41
1.65533	-44
1.65900	-48
1.66267	-52
1.66633	-56
1.67000	-61
1.67367	-65
1.67733	-70
1.68100	-74
1.68467	-77
1.68833	-81
1.69200	-84
1.69567	-86
1.69933	-88
1.70300	-90
1.70667	-92
1.71033	-93
1.71400	-94
1.71767	-94
1.72133	-94
1.72500	-95
1.72867	-95
1.73233	-95
1.73600	-95
1.73967	-96
1.74333	-97
1.74700	-97
1.75067	-97
1.75433	-97
1.75800	-97
1.76167	-97
1.76533	-98
1.76900	-98
1.77267	-98
1.77633	-99
1.78000	-99
1.78367	-100
1.78733	-101
1.79100	-101
1.79467	-102
1.79833	-102
1.80200	-102
1.80567	-101
1.80933	-101
1.81300	-101
1.81667	-101
1.82033	-101
1.82400	-101
1.82767	-101
1.83133	-101
1.83500	-102
1.83867	-102
1.84233	-102
1.84600	-103
1.84967	-103
1.85333	-103
1.85700	-103
1.86067	-102
1.86433	-102
1.86800	-101
1.87167	-100
1.87533	-100
1.87900	-99
1.88267	-99
1.88633	-99
1.89000	-99
1.89367	-99
1.89733	-99
1.90100	-99
1.90467	-100
1.90833	-100
1.91200	-100
1.91567	-101
1.91933	-101
1.92300	-101
1.92667	-100
1.93033	-100
1.93400	-100
1.93767	-99
1.94133	-98
1.94500	-97
1.94867	-97
1.95233	-97
1.95600	-96
1.95967	-96
1.96333	-95
1.96700	-95
1.97067	-94
1.97433	-93
1.97800	-92
1.98167	-91
1.98533	-91
1.98900	-91
1.99267	-91
1.99633	-91
2.00000	-91
2.00367	-92
2.00733	-92
2.01100	-92
2.01467	-92
2.01833	-92
2.02200	-92
2.02567	-92
2.02933	-92
2.03300	-91
2.03667	-91
2.04033	-91
2.04400	-90
2.04767	-90
2.05133	-90
2.05500	-90
2.05867	-90
2.06233	-89
2.06600	-89
2.06967	-89
2.07333	-88
2.07700	-88
2.08067	-88
2.08433	-87
2.08800	-87
2.09167	-86
2.09533	-86
2.09900	-86
2.10267	-86
2.10633	-86
2.11000	-86
2.11367	-85
2.11733	-85
2.12100	-85
2.12467	-85
2.12833	-85
2.13200	-84
2.13567	-84
2.13933	-84
2.14300	-84
2.14667	-84
2.15033	-84
2.15400	-85
2.15767	-86
2.16133	-86
2.16500	-86
2.16867	-85
2.17233	-84
2.17600	-83
2.17967	-82
2.18333	-82
2.18700	-81
2.19067	-80
2.19433	-80
2.19800	-79
2.20167	-79
2.20533	-79
2.20900	-79
2.21267	-78
2.21633	-78
2.22000	-77
2.22367	-77
2.22733	-76
2.23100	-76
2.23467	-77
2.23833	-77
2.24200	-78
2.24567	-79
2.24933	-79
2.25300	-80
2.25667	-79
2.26033	-79
2.26400	-78
2.26767	-77
2.27133	-76
2.27500	-76
2.27867	-75
2.28233	-74
2.28600	-73
2.28967	-72
2.29333	-71
2.29700	-70
2.30067	-70
2.30433	-70
2.30800	-70
2.31167	-70
2.31533	-69
2.31900	-69
2.32267	-69
2.32633	-69
2.33000	-69
2.33367	-68
2.33733	-67
2.34100	-66
2.34467	-65
2.34833	-64
2.35200	-63
2.35567	-63
2.35933	-62
2.36300	-61
2.36667	-61
2.37033	-59
2.37400	-58
2.37767	-56
2.38133	-53
2.38500	-50
2.38867	-47
2.39233	-43
2.39600	-39
2.39967	-35
2.40333	-30
2.40700	-25
2.41067	-21
2.41433	-16
2.41800	-12
2.42167	-9
2.42533	-6
2.42900	-4
2.43267	-2
2.43633	0
2.44000	2
2.44367	4
2.44733	5
2.45100	6
2.45467	7
2.45833	8
2.46200	9
2.46567	10
2.46933	11
2.47300	12
2.47667	13
2.48033	14
2.48400	15
2.48767	16
2.49133	16
2.49500	16
2.49867	16
2.50233	16
2.50600	17
2.50967	17
2.51333	17
2.51700	17
2.52067	17
2.52433	17
2.52800	17
2.53167	17
2.53533	16
2.53900	16
2.54267	15
2.54633	15
2.55000	14
2.55367	14
2.55733	13
2.56100	13
2.56467	13
2.56833	14
2.57200	14
2.57567	15
2.57933	16
2.58300	17
2.58667	18
2.59033	19
2.59400	20
2.59767	21
2.60133	21
2.60500	21
2.60867	22
2.61233	22
2.61600	22
2.61967	22
2.62333	22
2.62700	22
2.63067	22
2.63433	23
2.63800	23
2.64167	23
2.64533	24
2.64900	24
2.65267	24
2.65633	24
2.66000	24
2.66367	25
2.66733	25
2.67100	25
2.67467	25
2.67833	25
2.68200	25
2.68567	25
2.68933	26
2.69300	26
2.69667	26
2.70033	26
2.70400	26
2.70767	27
2.71133	27
2.71500	28
2.71867	29
2.72233	29
2.72600	29
2.72967	29
2.73333	29
2.73700	29
2.74067	29
2.74433	29
2.74800	29
2.75167	29
2.75533	29
2.75900	29
2.76267	29
2.76633	30
2.77000	30
2.77367	30
2.77733	31
2.78100	31
2.78467	31
2.78833	31
2.79200	31
2.79567	31
2.79933	30
2.80300	30
2.80667	29
2.81033	29
2.81400	29
2.81767	29
2.82133	29
2.82500	29
2.82867	30
2.83233	30
2.83600	30
2.83967	30
2.84333	30
2.84700	30
2.85067	30
2.85433	29
2.85800	28
2.86167	26
2.86533	22
2.86900	14
2.87267	4
2.87633	-11
2.88000	-31
2.88367	-55
2.88733	-85
2.89100	-120
2.89467	-160
2.89833	-205
2.90200	-255
2.90567	-308
2.90933	-365
2.91300	-425
2.91667	-486
2.92033	-549
2.92400	-612
2.92767	-675
2.93133	-736
2.93500	-795
2.93867	-850
2.94233	-903
2.94600	-956
2.94967	-1011
2.95333	-1062
2.95700	-1098
2.96067	-1113
2.96433	-1102
2.96800	-1068
2.97167	-1014
2.97533	-945
2.97900	-869
2.98267	-788
2.98633	-706
2.99000	-628
2.99367	-553
2.99733	-484
3.00100	-420
3.00467	-363
3.00833	-313
3.01200	-268
3.01567	-228
3.01933	-194
3.02300	-164
3.02667	-138
3.03033	-116
3.03400	-97
3.03767	-80
3.04133	-66
3.04500	-53
3.04867	-43
3.05233	-34
3.05600	-26
3.05967	-19
3.06333	-13
3.06700	-8
3.07067	-4
3.07433	-1
3.07800	3
3.08167	5
3.08533	7
3.08900	9
3.09267	11
3.09633	13
3.10000	14
3.10367	15
3.10733	16
3.11100	17
3.11467	18
3.11833	19
3.12200	19
3.12567	20
3.12933	20
3.13300	20
3.13667	21
3.14033	21
3.14400	22
3.14767	22
3.15133	22
3.15500	23
3.15867	23
3.16233	23
3.16600	23
3.16967	23
3.17333	24
3.17700	24
3.18067	24
3.18433	25
3.18800	25
3.19167	26
3.19533	26
3.19900	26
3.20267	26
3.20633	26
3.21000	26
3.21367	26
3.21733	26
3.22100	26
3.22467	26
3.22833	27
3.23200	27
3.23567	27
3.23933	27
3.24300	27
3.24667	27
3.25033	27
3.25400	27
3.25767	27
3.26133	27
3.26500	27
3.26867	27
3.27233	27
3.27600	27
3.27967	27
3.28333	27
3.28700	27
3.29067	27
3.29433	27
3.29800	27
3.30167	28
3.30533	28
3.30900	28
3.31267	28
3.31633	28
3.32000	29
3.32367	29
3.32733	30
3.33100	30
3.33467	31
3.33833	31
3.34200	31
3.34567	32
3.34933	32
3.35300	33
3.35667	33
3.36033	33
3.36400	34
3.36767	34
3.37133	34
3.37500	34
3.37867	35
3.38233	35
3.38600	35
3.38967	35
3.39333	35
3.39700	35
3.40067	35
3.40433	35
3.40800	34
3.41167	34
3.41533	34
3.41900	34
3.42267	34
3.42633	33
3.43000	33
3.43367	33
3.43733	33
3.44100	33
3.44467	33
3.44833	33
3.45200	32
3.45567	32
3.45933	32
3.46300	32
3.46667	32
3.47033	32
3.47400	32
3.47767	32
3.48133	32
3.48500	32
3.48867	32
3.49233	31
3.49600	31
3.49967	31
3.50333	31
3.50700	31
3.51067	31
3.51433	31
3.51800	31
3.52167	31
3.52533	31
3.52900	31
3.53267	31
3.53633	31
3.54000	32
3.54367	32
3.54733	32
3.55100	32
3.55467	32
3.55833	32
3.56200	32
3.56567	32
3.56933	32
3.57300	32
3.57667	32
3.58033	32
3.58400	32
3.58767	32
3.59133	32
3.59500	32
3.59867	32
3.60233	32
3.60600	32
3.60967	32
3.61333	32
3.61700	32
3.62067	32
3.62433	32
3.62800	32
3.63167	32
3.63533	32
3.63900	32
3.64267	32
3.64633	32
3.65000	32
3.65367	32
3.65733	32
3.66100	32
3.66467	32
3.66833	32
3.67200	32
3.67567	32
3.67933	31
3.68300	31
3.68667	31
3.69033	31
3.69400	32
3.69767	32
3.70133	32
3.70500	32
3.70867	32
3.71233	32
3.71600	32
3.71967	32
3.72333	32
3.72700	33
3.73067	33
3.73433	33
3.73800	33
3.74167	33
3.74533	32
3.74900	32
3.75267	32
3.75633	32
3.76000	32
3.76367	32
3.76733	33
3.77100	33
3.77467	33
3.77833	33
3.78200	33
3.78567	33
3.78933	33
3.79300	33
3.79667	33
3.80033	33
3.80400	33
3.80767	33
3.81133	33
3.81500	33
3.81867	33
3.82233	32
3.82600	32
3.82967	32
3.83333	32
3.83700	31
3.84067	31
3.84433	30
3.84800	30
3.85167	30
3.85533	29
3.85900	29
3.86267	28
3.86633	28
3.87000	28
3.87367	29
3.87733	29
3.88100	29
3.88467	29
3.88833	29
3.89200	29
3.89567	29
3.89933	30
3.90300	30
3.90667	30
3.91033	30
3.91400	30
3.91767	30
3.92133	30
3.92500	30
3.92867	30
3.93233	30
3.93600	30
3.93967	30
3.94333	31
3.94700	31
3.95067	31
3.95433	31
3.95800	31
3.96167	32
3.96533	32
3.96900	33
3.97267	33
3.97633	33
3.98000	33
3.98367	34
3.98733	34
3.99100	34
3.99467	34
3.99833	33

[Chromatogram (Ch3)]
Interval(msec)	220
# of Points	1091
Start Time(min)	0.002
End Time(min)	3.998
R.Time (min)	Intensity
0.00167	1
0.00533	2
0.00900	1
0.01267	0
0.01633	-1
0.02000	-1
0.02367	-3
0.02733	-3
0.03100	-2
0.03467	-3
0.03833	-4
0.04200	-2
0.04567	1
0.04933	2
0.05300	0
0.05667	0
0.06033	3
0.06400	3
0.06767	2
0.07133	2
0.07500	3
0.07867	2
0.08233	1
0.08600	2
0.08967	3
0.09333	3
0.09700	2
0.10067	2
0.10433	1
0.10800	0
0.11167	1
0.11533	1
0.11900	-2
0.12267	-2
0.12633	1
0.13000	2
0.13367	3
0.13733	3
0.14100	4
0.14467	4
0.14833	3
0.15200	4
0.15567	6
0.15933	9
0.16300	8
0.16667	8
0.17033	8
0.17400	7
0.17767	7
0.18133	5
0.18500	4
0.18867	5
0.19233	3
0.19600	4
0.19967	5
0.20333	5
0.20700	3
0.21067	3
0.21433	5
0.21800	7
0.22167	6
0.22533	5
0.22900	3
0.23267	3
0.23633	4
0.24000	5
0.24367	4
0.24733	3
0.25100	4
0.25467	5
0.25833	7
0.26200	8
0.26567	8
0.26933	6
0.27300	5
0.27667	4
0.28033	3
0.28400	3
0.28767	5
0.29133	5
0.29500	7
0.29867	6
0.30233	6
0.30600	6
0.30967	7
0.31333	9
0.31700	10
0.32067	9
0.32433	8
0.32800	6
0.33167	5
0.33533	3
0.33900	3
0.34267	4
0.34633	5
0.35000	6
0.35367	7
0.35733	8
0.36100	12
0.36467	14
0.36833	14
0.37200	14
0.37567	13
0.37933	11
0.38300	8
0.38667	8
0.39033	11
0.39400	13
0.39767	15
0.40133	15
0.40500	14
0.40867	13
0.41233	13
0.41600	12
0.41967	11
0.42333	13
0.42700	14
0.43067	15
0.43433	13
0.43800	13
0.44167	14
0.44533	14
0.44900	14
0.45267	15
0.45633	15
0.46000	13
0.46367	10
0.46733	11
0.47100	13
0.47467	14
0.47833	14
0.48200	14
0.48567	14
0.48933	13
0.49300	10
0.49667	9
0.50033	10
0.50400	13
0.50767	14
0.51133	13
0.51500	12
0.51867	11
0.52233	10
0.52600	9
0.52967	8
0.53333	8
0.53700	9
0.54067	10
0.54433	10
0.54800	10
0.55167	9
0.55533	7
0.55900	7
0.56267	9
0.56633	11
0.57000	13
0.57367	14
0.57733	13
0.58100	14
0.58467	14
0.58833	14
0.59200	13
0.59567	13
0.59933	11
0.60300	11
0.60667	12
0.61033	13
0.61400	13
0.61767	15
0.62133	17
0.62500	16
0.62867	15
0.63233	16
0.63600	16
0.63967	14
0.64333	13
0.64700	12
0.65067	10
0.65433	8
0.65800	9
0.66167	10
0.66533	12
0.66900	16
0.67267	17
0.67633	17
0.68000	19
0.68367	19
0.68733	17
0.69100	17
0.69467	17
0.69833	17
0.70200	16
0.70567	16
0.70933	16
0.71300	13
0.71667	13
0.72033	15
0.72400	15
0.72767	15
0.73133	15
0.73500	16
0.73867	15
0.74233	13
0.74600	11
0.74967	12
0.75333	14
0.75700	15
0.76067	16
0.76433	15
0.76800	14
0.77167	15
0.77533	16
0.77900	18
0.78267	18
0.78633	16
0.79000	14
0.79367	14
0.79733	14
0.80100	14
0.80467	13
0.80833	13
0.81200	13
0.81567	14
0.81933	15
0.82300	14
0.82667	11
0.83033	8
0.83400	5
0.83767	6
0.84133	6
0.84500	6
0.84867	9
0.85233	12
0.85600	15
0.85967	16
0.86333	15
0.86700	14
0.87067	14
0.87433	14
0.87800	15
0.88167	15
0.88533	15
0.88900	14
0.89267	14
0.89633	16
0.90000	16
0.90367	16
0.90733	16
0.91100	16
0.91467	15
0.91833	18
0.92200	20
0.92567	20
0.92933	20
0.93300	19
0.93667	20
0.94033	22
0.94400	22
0.94767	20
0.95133	18
0.95500	18
0.95867	18
0.96233	17
0.96600	16
0.96967	16
0.97333	16
0.97700	15
0.98067	15
0.98433	15
0.98800	15
0.99167	15
0.99533	16
0.99900	17
1.00267	18
1.00633	17
1.01000	17
1.01367	17
1.01733	19
1.02100	19
1.02467	20
1.02833	18
1.03200	16
1.03567	15
1.03933	15
1.04300	15
1.04667	14
1.05033	14
1.05400	15
1.05767	14
1.06133	14
1.06500	15
1.06867	15
1.07233	16
1.07600	17
1.07967	18
1.08333	16
1.08700	17
1.09067	18
1.09433	17
1.09800	17
1.10167	19
1.10533	20
1.10900	21
1.11267	22
1.11633	22
1.12000	21
1.12367	19
1.12733	17
1.13100	16
1.13467	16
1.13833	18
1.14200	19
1.14567	18
1.14933	17
1.15300	16
1.15667	13
1.16033	12
1.16400	13
1.16767	14
1.17133	15
1.17500	15
1.17867	14
1.18233	13
1.18600	12
1.18967	12
1.19333	12
1.19700	12
1.20067	13
1.20433	15
1.20800	16
1.21167	18
1.21533	18
1.21900	16
1.22267	15
1.22633	15
1.23000	14
1.23367	13
1.23733	14
1.24100	16
1.24467	16
1.24833	16
1.25200	16
1.25567	17
1.25933	18
1.26300	20
1.26667	22
1.27033	23
1.27400	21
1.27767	19
1.28133	17
1.28500	16
1.28867	16
1.29233	15
1.29600	16
1.29967	15
1.30333	14
1.30700	14
1.31067	13
1.31433	12
1.31800	12
1.32167	13
1.32533	15
1.32900	16
1.33267	16
1.33633	17
1.34000	15
1.34367	12
1.34733	12
1.35100	12
1.35467	13
1.35833	14
1.36200	14
1.36567	15
1.36933	16
1.37300	15
1.37667	14
1.38033	12
1.38400	11
1.38767	11
1.39133	11
1.39500	13
1.39867	14
1.40233	13
1.40600	9
1.40967	10
1.41333	11
1.41700	12
1.42067	11
1.42433	11
1.42800	13
1.43167	14
1.43533	15
1.43900	17
1.44267	17
1.44633	16
1.45000	17
1.45367	18
1.45733	17
1.46100	16
1.46467	16
1.46833	15
1.47200	16
1.47567	16
1.47933	15
1.48300	15
1.48667	17
1.49033	17
1.49400	16
1.49767	16
1.50133	15
1.50500	13
1.50867	13
1.51233	13
1.51600	13
1.51967	14
1.52333	16
1.52700	16
1.53067	16
1.53433	15
1.53800	16
1.54167	18
1.54533	17
1.54900	16
1.55267	16
1.55633	15
1.56000	15
1.56367	14
1.56733	14
1.57100	14
1.57467	15
1.57833	18
1.58200	20
1.58567	18
1.58933	15
1.59300	13
1.59667	13
1.60033	12
1.60400	12
1.60767	16
1.61133	19
1.61500	21
1.61867	21
1.62233	23
1.62600	22
1.62967	19
1.63333	16
1.63700	16
1.64067	16
1.64433	17
1.64800	18
1.65167	17
1.65533	14
1.65900	13
1.66267	14
1.66633	14
1.67000	14
1.67367	16
1.67733	20
1.68100	22
1.68467	24
1.68833	23
1.69200	23
1.69567	25
1.69933	25
1.70300	24
1.70667	24
1.71033	23
1.71400	23
1.71767	23
1.72133	23
1.72500	22
1.72867	23
1.73233	25
1.73600	25
1.73967	24
1.74333	25
1.74700	26
1.75067	27
1.75433	27
1.75800	27
1.76167	26
1.76533	26
1.76900	26
1.77267	26
1.77633	28
1.78000	28
1.78367	27
1.78733	26
1.79100	26
1.79467	29
1.79833	30
1.80200	32
1.80567	34
1.80933	35
1.81300	35
1.81667	33
1.82033	32
1.82400	31
1.82767	33
1.83133	35
1.83500	37
1.83867	38
1.84233	39
1.84600	41
1.84967	41
1.85333	40
1.85700	41
1.86067	42
1.86433	41
1.86800	39
1.87167	39
1.87533	39
1.87900	40
1.88267	42
1.88633	42
1.89000	42
1.89367	43
1.89733	43
1.90100	44
1.90467	46
1.90833	48
1.91200	50
1.91567	52
1.91933	51
1.92300	49
1.92667	48
1.93033	48
1.93400	49
1.93767	49
1.94133	50
1.94500	51
1.94867	51
1.95233	50
1.95600	50
1.95967	52
1.96333	55
1.96700	57
1.97067	56
1.97433	55
1.97800	56
1.98167	57
1.98533	58
1.98900	57
1.99267	58
1.99633	59
2.00000	60
2.00367	60
2.00733	61
2.01100	61
2.01467	63
2.01833	65
2.02200	66
2.02567	68
2.02933	69
2.03300	69
2.03667	70
2.04033	73
2.04400	72
2.04767	70
2.05133	70
2.05500	68
2.05867	68
2.06233	69
2.06600	70
2.06967	72
2.07333	71
2.07700	71
2.08067	73
2.08433	74
2.08800	74
2.09167	74
2.09533	73
2.09900	76
2.10267	80
2.10633	81
2.11000	80
2.11367	77
2.11733	77
2.12100	77
2.12467	79
2.12833	80
2.13200	82
2.13567	83
2.13933	83
2.14300	82
2.14667	82
2.15033	84
2.15400	84
2.15767	83
2.16133	83
2.16500	83
2.16867	85
2.17233	87
2.17600	88
2.17967	87
2.18333	89
2.18700	91
2.19067	93
2.19433	94
2.19800	95
2.20167	96
2.20533	95
2.20900	93
2.21267	93
2.21633	95
2.22000	97
2.22367	99
2.22733	97
2.23100	96
2.23467	96
2.23833	97
2.24200	95
2.24567	95
2.24933	95
2.25300	96
2.25667	99
2.26033	102
2.26400	104
2.26767	104
2.27133	104
2.27500	105
2.27867	104
2.28233	103
2.28600	101
2.28967	100
2.29333	99
2.29700	99
2.30067	100
2.30433	102
2.30800	104
2.31167	107
2.31533	110
2.31900	111
2.32267	112
2.32633	112
2.33000	111
2.33367	111
2.33733	112
2.34100	114
2.34467	116
2.34833	116
2.35200	116
2.35567	116
2.35933	117
2.36300	117
2.36667	116
2.37033	116
2.37400	116
2.37767	118
2.38133	118
2.38500	117
2.38867	115
2.39233	114
2.39600	117
2.39967	120
2.40333	122
2.40700	124
2.41067	127
2.41433	128
2.41800	129
2.42167	130
2.42533	133
2.42900	134
2.43267	134
2.43633	134
2.44000	145
2.44367	208
2.44733	334
2.45100	473
2.45467	585
2.45833	667
2.46200	727
2.46567	767
2.46933	789
2.47300	797
2.47667	804
2.48033	813
2.48400	826
2.48767	840
2.49133	855
2.49500	868
2.49867	875
2.50233	871
2.50600	859
2.50967	840
2.51333	824
2.51700	811
2.52067	803
2.52433	799
2.52800	797
2.53167	797
2.53533	797
2.53900	795
2.54267	797
2.54633	801
2.55000	810
2.55367	820
2.55733	832
2.56100	842
2.56467	847
2.56833	848
2.57200	844
2.57567	834
2.57933	821
2.58300	807
2.58667	789
2.59033	772
2.59400	756
2.59767	742
2.60133	729
2.60500	720
2.60867	712
2.61233	704
2.61600	696
2.61967	689
2.62333	686
2.62700	684
2.63067	681
2.63433	677
2.63800	675
2.64167	674
2.64533	673
2.64900	672
2.65267	671
2.65633	668
2.66000	668
2.66367	670
2.66733	671
2.67100	673
2.67467	677
2.67833	681
2.68200	686
2.68567	692
2.68933	699
2.69300	703
2.69667	706
2.70033	710
2.70400	715
2.70767	717
2.71133	720
2.71500	724
2.71867	725
2.72233	724
2.72600	720
2.72967	717
2.73333	713
2.73700	707
2.74067	701
2.74433	695
2.74800	687
2.75167	679
2.75533	672
2.75900	665
2.76267	658
2.76633	652
2.77000	648
2.77367	641
2.77733	635
2.78100	629
2.78467	626
2.78833	623
2.79200	623
2.79567	621
2.79933	618
2.80300	616
2.80667	613
2.81033	613
2.81400	612
2.81767	611
2.82133	612
2.82500	612
2.82867	616
2.83233	625
2.83600	646
2.83967	693
2.84333	780
2.84700	936
2.85067	1180
2.85433	1526
2.85800	1973
2.86167	2503
2.86533	3083
2.86900	3670
2.87267	4216
2.87633	4674
2.88000	5008
2.88367	5201
2.88733	5249
2.89100	5166
2.89467	4980
2.89833	4719
2.90200	4407
2.90567	4073
2.90933	3734
2.91300	3402
2.91667	3086
2.92033	2793
2.92400	2524
2.92767	2282
2.93133	2067
2.93500	1878
2.93867	1712
2.94233	1570
2.94600	1445
2.94967	1336
2.95333	1241
2.95700	1158
2.96067	1085
2.96433	1024
2.96800	970
2.97167	925
2.97533	887
2.97900	856
2.98267	829
2.98633	805
2.99000	784
2.99367	767
2.99733	752
3.00100	739
3.00467	730
3.00833	724
3.01200	718
3.01567	712
3.01933	707
3.02300	703
3.02667	701
3.03033	701
3.03400	699
3.03767	697
3.04133	696
3.04500	694
3.04867	690
3.05233	689
3.05600	690
3.05967	691
3.06333	691
3.06700	691
3.07067	692
3.07433	691
3.07800	689
3.08167	689
3.08533	689
3.08900	686
3.09267	684
3.09633	683
3.10000	683
3.10367	682
3.10733	680
3.11100	678
3.11467	677
3.11833	674
3.12200	670
3.12567	669
3.12933	667
3.13300	666
3.13667	665
3.14033	663
3.14400	661
3.14767	660
3.15133	660
3.15500	661
3.15867	660
3.16233	657
3.16600	655
3.16967	651
3.17333	648
3.17700	645
3.18067	643
3.18433	642
3.18800	639
3.19167	639
3.19533	638
3.19900	638
3.20267	638
3.20633	639
3.21000	641
3.21367	641
3.21733	640
3.22100	640
3.22467	640
3.22833	639
3.23200	638
3.23567	636
3.23933	634
3.24300	631
3.24667	629
3.25033	628
3.25400	628
3.25767	624
3.26133	621
3.26500	619
3.26867	617
3.27233	615
3.27600	613
3.27967	611
3.28333	608
3.28700	605
3.29067	601
3.29433	599
3.29800	597
3.30167	595
3.30533	594
3.30900	593
3.31267	592
3.31633	591
3.32000	589
3.32367	587
3.32733	584
3.33100	583
3.33467	583
3.33833	583
3.34200	579
3.34567	575
3.34933	571
3.35300	569
3.35667	566
3.36033	563
3.36400	560
3.36767	558
3.37133	555
3.37500	552
3.37867	550
3.38233	547
3.38600	544
3.38967	544
3.39333	545
3.39700	542
3.40067	537
3.40433	535
3.40800	535
3.41167	534
3.41533	533
3.41900	531
3.42267	527
3.42633	525
3.43000	522
3.43367	517
3.43733	516
3.44100	515
3.44467	514
3.44833	514
3.45200	514
3.45567	514
3.45933	511
3.46300	508
3.46667	506
3.47033	504
3.47400	500
3.47767	496
3.48133	492
3.48500	490
3.48867	490
3.49233	489
3.49600	487
3.49967	487
3.50333	487
3.50700	487
3.51067	484
3.51433	482
3.51800	480
3.52167	476
3.52533	476
3.52900	475
3.53267	475
3.53633	475
3.54000	474
3.54367	473
3.54733	470
3.55100	465
3.55467	463
3.55833	462
3.56200	462
3.56567	464
3.56933	465
3.57300	464
3.57667	464
3.58033	464
3.58400	463
3.58767	462
3.59133	461
3.59500	459
3.59867	457
3.60233	455
3.60600	453
3.60967	449
3.61333	447
3.61700	447
3.62067	447
3.62433	447
3.62800	447
3.63167	446
3.63533	444
3.63900	443
3.64267	440
3.64633	440
3.65000	440
3.65367	441
3.65733	441
3.66100	439
3.66467	436
3.66833	433
3.67200	431
3.67567	432
3.67933	433
3.68300	434
3.68667	434
3.69033	433
3.69400	431
3.69767	430
3.70133	429
3.70500	426
3.70867	424
3.71233	424
3.71600	424
3.71967	422
3.72333	422
3.72700	421
3.73067	420
3.73433	420
3.73800	420
3.74167	420
3.74533	421
3.74900	424
3.75267	423
3.75633	420
3.76000	419
3.76367	417
3.76733	416
3.77100	416
3.77467	416
3.77833	416
3.78200	418
3.78567	419
3.78933	416
3.79300	413
3.79667	411
3.80033	412
3.80400	411
3.80767	411
3.81133	411
3.81500	410
3.81867	409
3.82233	409
3.82600	410
3.82967	411
3.83333	411
3.83700	412
3.84067	413
3.84433	411
3.84800	410
3.85167	411
3.85533	412
3.85900	412
3.86267	409
3.86633	408
3.87000	408
3.87367	407
3.87733	407
3.88100	408
3.88467	411
3.88833	412
3.89200	410
3.89567	408
3.89933	407
3.90300	406
3.90667	404
3.91033	402
3.91400	401
3.91767	401
3.92133	401
3.92500	400
3.92867	399
3.93233	399
3.93600	400
3.93967	400
3.94333	400
3.94700	400
3.95067	399
3.95433	395
3.95800	391
3.96167	390
3.96533	391
3.96900	393
3.97267	394
3.97633	396
3.98000	396
3.98367	394
3.98733	392
3.99100	391
3.99467	390
3.99833	388

[Status Trace (Column Oven Temperature)]
Interval(msec)	1000
# of Points	240
Start Time(min)	0.012
End Time(min)	3.995
Intensity Units	
Intensity Multiplier	1
R.Time (min)	Intensity
0.01182	35.08
0.02848	35.08
0.04515	35.06
0.06182	35.05
0.07848	35.04
0.09515	35.04
0.11182	35.03
0.12848	35.03
0.14515	35.03
0.16182	35.04
0.17848	35.04
0.19515	35.03
0.21182	35.02
0.22848	35.01
0.24515	35.01
0.26182	35.00
0.27848	35.01
0.29515	35.02
0.31182	35.03
0.32848	35.03
0.34515	35.03
0.36182	35.03
0.37848	35.03
0.39515	35.03
0.41182	35.02
0.42848	35.02
0.44515	35.02
0.46182	35.01
0.47848	34.99
0.49515	34.99
0.51182	34.99
0.52848	34.99
0.54515	34.98
0.56182	34.99
0.57848	35.01
0.59515	35.02
0.61182	35.02
0.62848	35.01
0.64515	35.01
0.66182	35.02
0.67848	35.01
0.69515	35.01
0.71182	35.00
0.72848	35.00
0.74515	34.99
0.76182	34.99
0.77848	34.99
0.79515	34.99
0.81182	35.00
0.82848	35.00
0.84515	34.99
0.86182	34.99
0.87848	34.99
0.89515	35.00
0.91182	34.99
0.92848	34.98
0.94515	34.97
0.96182	34.97
0.97848	34.97
0.99515	34.97
1.01182	34.97
1.02848	34.97
1.04515	34.99
1.06182	35.00
1.07848	35.00
1.09515	35.00
1.11182	35.00
1.12848	34.99
1.14515	34.99
1.16182	34.98
1.17848	34.97
1.19515	34.96
1.21182	34.96
1.22848	34.97
1.24515	34.98
1.26182	34.99
1.27848	35.00
1.29515	35.00
1.31182	35.00
1.32848	35.01
1.34515	35.02
1.36182	35.04
1.37848	35.04
1.39515	35.05
1.41182	35.05
1.42848	35.05
1.44515	35.05
1.46182	35.06
1.47848	35.05
1.49515	35.03
1.51182	35.01
1.52848	35.00
1.54515	34.99
1.56182	34.97
1.57848	34.97
1.59515	34.98
1.61182	35.05
1.62848	35.19
1.64515	35.39
1.66182	35.68
1.67848	36.03
1.69515	36.39
1.71182	36.73
1.72848	37.08
1.74515	37.41
1.76182	37.72
1.77848	38.07
1.79515	38.40
1.81182	38.73
1.82848	39.06
1.84515	39.40
1.86182	39.72
1.87848	40.03
1.89515	40.36
1.91182	40.70
1.92848	41.04
1.94515	41.35
1.96182	41.67
1.97848	41.98
1.99515	42.31
2.01182	42.63
2.02848	42.95
2.04515	43.28
2.06182	43.61
2.07848	43.92
2.09515	44.26
2.11182	44.56
2.12848	44.88
2.14515	45.21
2.16182	45.57
2.17848	45.88
2.19515	46.22
2.21182	46.55
2.22848	46.87
2.24515	47.26
2.26182	47.59
2.27848	47.92
2.29515	48.23
2.31182	48.57
2.32848	48.88
2.34515	49.20
2.36182	49.50
2.37848	49.68
2.39515	49.77
2.41182	49.75
2.42848	49.74
2.44515	49.75
2.46182	49.75
2.47848	49.74
2.49515	49.76
2.51182	49.77
2.52848	49.78
2.54515	49.78
2.56182	49.81
2.57848	49.82
2.59515	49.81
2.61182	49.82
2.62848	49.83
2.64515	49.83
2.66182	49.84
2.67848	49.85
2.69515	49.85
2.71182	49.84
2.72848	49.85
2.74515	49.86
2.76182	49.85
2.77848	49.85
2.79515	49.86
2.81182	49.89
2.82848	49.89
2.84515	49.90
2.86182	49.90
2.87848	49.91
2.89515	49.91
2.91182	49.93
2.92848	49.93
2.94515	49.93
2.96182	49.95
2.97848	49.96
2.99515	49.97
3.01182	49.97
3.02848	49.98
3.04515	49.99
3.06182	49.99
3.07848	50.00
3.09515	50.01
3.11182	50.02
3.12848	50.03
3.14515	50.03
3.16182	50.05
3.17848	50.05
3.19515	50.06
3.21182	50.06
3.22848	50.06
3.24515	50.08
3.26182	50.09
3.27848	50.10
3.29515	50.12
3.31182	50.12
3.32848	50.11
3.34515	50.09
3.36182	50.07
3.37848	50.04
3.39515	50.03
3.41182	50.03
3.42848	50.03
3.44515	50.03
3.46182	50.03
3.47848	50.03
3.49515	50.03
3.51182	50.04
3.52848	50.04
3.54515	50.04
3.56182	50.04
3.57848	50.04
3.59515	50.04
3.61182	50.04
3.62848	50.05
3.64515	50.04
3.66182	50.05
3.67848	50.05
3.69515	50.06
3.71182	50.06
3.72848	50.05
3.74515	50.04
3.76182	50.03
3.77848	50.03
3.79515	50.03
3.81182	50.02
3.82848	50.03
3.84515	50.05
3.86182	50.06
3.87848	50.08
3.89515	50.09
3.91182	50.09
3.92848	50.08
3.94515	50.08
3.96182	50.07
3.97848	50.06
3.99515	50.04

[Status Trace (Injection Unit Temperature)]
Interval(msec)	1000
# of Points	240
Start Time(min)	0.012
End Time(min)	3.995
Intensity Units	
Intensity Multiplier	1
R.Time (min)	Intensity
0.01182	99.98
0.02848	99.98
0.04515	99.98
0.06182	99.98
0.07848	99.98
0.09515	99.98
0.11182	99.98
0.12848	99.98
0.14515	99.98
0.16182	99.98
0.17848	99.98
0.19515	99.98
0.21182	99.98
0.22848	99.98
0.24515	99.99
0.26182	99.98
0.27848	99.98
0.29515	99.98
0.31182	99.99
0.32848	99.99
0.34515	99.99
0.36182	99.99
0.37848	99.98
0.39515	99.98
0.41182	99.99
0.42848	99.99
0.44515	99.99
0.46182	99.99
0.47848	99.98
0.49515	99.98
0.51182	99.99
0.52848	99.99
0.54515	99.99
0.56182	99.99
0.57848	99.98
0.59515	99.98
0.61182	99.98
0.62848	99.99
0.64515	99.99
0.66182	99.98
0.67848	99.99
0.69515	99.98
0.71182	99.99
0.72848	99.99
0.74515	99.98
0.76182	99.99
0.77848	99.98
0.79515	99.99
0.81182	99.99
0.82848	99.98
0.84515	99.98
0.86182	99.98
0.87848	99.98
0.89515	99.98
0.91182	99.99
0.92848	99.98
0.94515	99.98
0.96182	99.99
0.97848	99.98
0.99515	99.98
1.01182	99.98
1.02848	99.98
1.04515	99.98
1.06182	99.98
1.07848	99.98
1.09515	99.98
1.11182	99.98
1.12848	99.98
1.14515	99.98
1.16182	99.98
1.17848	99.98
1.19515	99.98
1.21182	99.98
1.22848	99.98
1.24515	99.98
1.26182	99.98
1.27848	99.98
1.29515	99.99
1.31182	99.98
1.32848	99.98
1.34515	99.98
1.36182	99.98
1.37848	99.98
1.39515	99.98
1.41182	99.98
1.42848	99.99
1.44515	99.99
1.46182	99.99
1.47848	99.99
1.49515	99.99
1.51182	99.99
1.52848	99.99
1.54515	99.99
1.56182	99.99
1.57848	99.98
1.59515	99.99
1.61182	99.99
1.62848	99.99
1.64515	99.99
1.66182	99.99
1.67848	99.99
1.69515	99.99
1.71182	99.99
1.72848	99.99
1.74515	99.99
1.76182	99.99
1.77848	99.99
1.79515	99.99
1.81182	99.99
1.82848	99.99
1.84515	99.98
1.86182	99.99
1.87848	99.99
1.89515	99.99
1.91182	99.98
1.92848	99.99
1.94515	99.98
1.96182	99.98
1.97848	99.98
1.99515	99.98
2.01182	99.98
2.02848	99.98
2.04515	99.98
2.06182	99.98
2.07848	99.97
2.09515	99.97
2.11182	99.97
2.12848	99.97
2.14515	99.97
2.16182	99.97
2.17848	99.97
2.19515	99.97
2.21182	99.96
2.22848	99.97
2.24515	99.97
2.26182	99.97
2.27848	99.97
2.29515	99.97
2.31182	99.97
2.32848	99.96
2.34515	99.96
2.36182	99.96
2.37848	99.96
2.39515	99.97
2.41182	99.96
2.42848	99.96
2.44515	99.97
2.46182	99.96
2.47848	99.97
2.49515	99.97
2.51182	99.97
2.52848	99.97
2.54515	99.97
2.56182	99.97
2.57848	99.97
2.59515	99.97
2.61182	99.98
2.62848	99.98
2.64515	99.98
2.66182	99.98
2.67848	99.98
2.69515	99.98
2.71182	99.99
2.72848	99.98
2.74515	99.99
2.76182	99.99
2.77848	99.99
2.79515	99.99
2.81182	99.99
2.82848	100.00
2.84515	100.00
2.86182	100.00
2.87848	100.00
2.89515	100.00
2.91182	100.00
2.92848	100.00
2.94515	100.00
2.96182	100.00
2.97848	100.00
2.99515	100.01
3.01182	100.01
3.02848	100.01
3.04515	100.01
3.06182	100.01
3.07848	100.01
3.09515	100.01
3.11182	100.01
3.12848	100.01
3.14515	100.01
3.16182	100.02
3.17848	100.02
3.19515	100.02
3.21182	100.02
3.22848	100.02
3.24515	100.02
3.26182	100.02
3.27848	100.03
3.29515	100.03
3.31182	100.03
3.32848	100.03
3.34515	100.03
3.36182	100.03
3.37848	100.03
3.39515	100.04
3.41182	100.04
3.42848	100.04
3.44515	100.04
3.46182	100.04
3.47848	100.04
3.49515	100.04
3.51182	100.04
3.52848	100.04
3.54515	100.04
3.56182	100.04
3.57848	100.05
3.59515	100.04
3.61182	100.05
3.62848	100.04
3.64515	100.04
3.66182	100.05
3.67848	100.05
3.69515	100.05
3.71182	100.05
3.72848	100.05
3.74515	100.05
3.76182	100.05
3.77848	100.05
3.79515	100.05
3.81182	100.05
3.82848	100.05
3.84515	100.05
3.86182	100.05
3.87848	100.05
3.89515	100.05
3.91182	100.05
3.92848	100.05
3.94515	100.05
3.96182	100.05
3.97848	100.05
3.99515	100.05

[Status Trace (Carrier Gas Pressure)]
Interval(msec)	1000
# of Points	240
Start Time(min)	0.012
End Time(min)	3.995
Intensity Units	
Intensity Multiplier	1
R.Time (min)	Intensity
0.01182	58.00
0.02848	54.94
0.04515	57.64
0.06182	59.60
0.07848	59.03
0.09515	58.00
0.11182	57.99
0.12848	58.01
0.14515	58.01
0.16182	58.01
0.17848	58.00
0.19515	58.00
0.21182	58.00
0.22848	58.00
0.24515	58.00
0.26182	58.00
0.27848	58.00
0.29515	58.00
0.31182	58.00
0.32848	58.00
0.34515	58.00
0.36182	58.00
0.37848	58.00
0.39515	58.00
0.41182	58.00
0.42848	58.00
0.44515	58.00
0.46182	58.00
0.47848	58.00
0.49515	58.00
0.51182	58.00
0.52848	58.00
0.54515	58.00
0.56182	58.00
0.57848	58.00
0.59515	58.00
0.61182	58.00
0.62848	58.00
0.64515	58.00
0.66182	58.00
0.67848	58.00
0.69515	58.00
0.71182	58.00
0.72848	58.00
0.74515	58.00
0.76182	58.00
0.77848	58.00
0.79515	58.00
0.81182	58.00
0.82848	58.00
0.84515	58.00
0.86182	58.00
0.87848	58.00
0.89515	58.00
0.91182	58.00
0.92848	58.00
0.94515	58.00
0.96182	58.00
0.97848	58.00
0.99515	58.00
1.01182	58.00
1.02848	58.00
1.04515	58.00
1.06182	58.00
1.07848	58.00
1.09515	58.00
1.11182	58.00
1.12848	58.00
1.14515	58.00
1.16182	58.00
1.17848	58.00
1.19515	58.00
1.21182	58.00
1.22848	58.00
1.24515	58.00
1.26182	58.00
1.27848	58.00
1.29515	58.00
1.31182	58.00
1.32848	58.00
1.34515	58.00
1.36182	58.00
1.37848	58.00
1.39515	58.00
1.41182	58.00
1.42848	58.00
1.44515	58.00
1.46182	58.00
1.47848	58.00
1.49515	58.00
1.51182	58.00
1.52848	58.00
1.54515	58.00
1.56182	58.00
1.57848	58.00
1.59515	58.00
1.61182	58.00
1.62848	58.00
1.64515	58.00
1.66182	58.01
1.67848	58.01
1.69515	58.00
1.71182	58.00
1.72848	58.00
1.74515	58.00
1.76182	58.00
1.77848	58.00
1.79515	58.00
1.81182	58.00
1.82848	58.00
1.84515	58.00
1.86182	58.00
1.87848	58.00
1.89515	58.00
1.91182	58.00
1.92848	58.00
1.94515	58.00
1.96182	58.00
1.97848	58.00
1.99515	58.00
2.01182	58.00
2.02848	58.00
2.04515	58.00
2.06182	58.00
2.07848	58.00
2.09515	58.00
2.11182	58.00
2.12848	58.00
2.14515	58.00
2.16182	58.00
2.17848	58.00
2.19515	58.00
2.21182	58.00
2.22848	58.00
2.24515	58.00
2.26182	58.00
2.27848	58.00
2.29515	58.00
2.31182	58.00
2.32848	58.00
2.34515	58.00
2.36182	58.00
2.37848	58.00
2.39515	57.99
2.41182	57.99
2.42848	58.00
2.44515	58.00
2.46182	58.00
2.47848	58.00
2.49515	58.00
2.51182	57.99
2.52848	57.99
2.54515	58.00
2.56182	58.00
2.57848	58.00
2.59515	58.00
2.61182	58.00
2.62848	58.00
2.64515	58.00
2.66182	58.00
2.67848	58.00
2.69515	58.00
2.71182	58.00
2.72848	58.00
2.74515	58.00
2.76182	58.00
2.77848	58.00
2.79515	58.00
2.81182	58.00
2.82848	58.00
2.84515	58.00
2.86182	58.00
2.87848	58.00
2.89515	58.00
2.91182	58.00
2.92848	58.00
2.94515	58.00
2.96182	58.00
2.97848	58.00
2.99515	58.00
3.01182	58.00
3.02848	58.00
3.04515	58.00
3.06182	58.00
3.07848	58.00
3.09515	58.00
3.11182	58.00
3.12848	58.00
3.14515	58.00
3.16182	58.00
3.17848	58.00
3.19515	58.00
3.21182	58.00
3.22848	58.00
3.24515	58.00
3.26182	58.00
3.27848	58.00
3.29515	58.00
3.31182	58.00
3.32848	58.00
3.34515	58.00
3.36182	58.00
3.37848	58.00
3.39515	58.00
3.41182	58.00
3.42848	58.00
3.44515	58.00
3.46182	58.00
3.47848	58.00
3.49515	58.00
3.51182	58.00
3.52848	58.00
3.54515	58.00
3.56182	58.00
3.57848	58.00
3.59515	58.00
3.61182	58.00
3.62848	58.00
3.64515	58.00
3.66182	58.00
3.67848	58.00
3.69515	58.00
3.71182	58.00
3.72848	58.00
3.74515	58.00
3.76182	58.00
3.77848	58.00
3.79515	58.00
3.81182	58.00
3.82848	58.00
3.84515	58.00
3.86182	58.00
3.87848	58.00
3.89515	58.00
3.91182	58.00
3.92848	58.00
3.94515	58.00
3.96182	58.00
3.97848	58.00
3.99515	58.00

[Status Trace (Carrier Gas Flow)]
Interval(msec)	1000
# of Points	240
Start Time(min)	0.012
End Time(min)	3.995
Intensity Units	
Intensity Multiplier	1
R.Time (min)	Intensity
0.01182	34.51
0.02848	34.54
0.04515	34.55
0.06182	34.54
0.07848	34.50
0.09515	34.52
0.11182	34.51
0.12848	34.51
0.14515	34.52
0.16182	34.52
0.17848	34.51
0.19515	34.51
0.21182	34.52
0.22848	34.52
0.24515	34.52
0.26182	34.52
0.27848	34.52
0.29515	34.51
0.31182	34.52
0.32848	34.52
0.34515	34.52
0.36182	34.52
0.37848	34.52
0.39515	34.52
0.41182	34.52
0.42848	34.52
0.44515	34.53
0.46182	34.52
0.47848	34.51
0.49515	34.52
0.51182	34.53
0.52848	34.52
0.54515	34.52
0.56182	34.52
0.57848	34.52
0.59515	34.52
0.61182	34.52
0.62848	34.52
0.64515	34.52
0.66182	34.52
0.67848	34.52
0.69515	34.52
0.71182	34.51
0.72848	34.52
0.74515	34.52
0.76182	34.52
0.77848	34.52
0.79515	34.52
0.81182	34.52
0.82848	34.51
0.84515	34.52
0.86182	34.52
0.87848	34.52
0.89515	34.52
0.91182	34.52
0.92848	34.52
0.94515	34.52
0.96182	34.52
0.97848	34.52
0.99515	34.51
1.01182	34.52
1.02848	34.52
1.04515	34.52
1.06182	34.52
1.07848	34.52
1.09515	34.51
1.11182	34.52
1.12848	34.52
1.14515	34.52
1.16182	34.52
1.17848	34.51
1.19515	34.52
1.21182	34.52
1.22848	34.52
1.24515	34.52
1.26182	34.52
1.27848	34.52
1.29515	34.52
1.31182	34.52
1.32848	34.52
1.34515	34.52
1.36182	34.52
1.37848	34.52
1.39515	34.52
1.41182	34.52
1.42848	34.52
1.44515	34.52
1.46182	34.52
1.47848	34.52
1.49515	34.52
1.51182	34.52
1.52848	34.52
1.54515	34.51
1.56182	34.52
1.57848	34.51
1.59515	34.51
1.61182	34.52
1.62848	34.53
1.64515	34.51
1.66182	34.52
1.67848	34.52
1.69515	34.52
1.71182	34.52
1.72848	34.52
1.74515	34.52
1.76182	34.52
1.77848	34.52
1.79515	34.52
1.81182	34.52
1.82848	34.52
1.84515	34.52
1.86182	34.52
1.87848	34.52
1.89515	34.51
1.91182	34.52
1.92848	34.52
1.94515	34.51
1.96182	34.51
1.97848	34.52
1.99515	34.52
2.01182	34.52
2.02848	34.52
2.04515	34.52
2.06182	34.51
2.07848	34.52
2.09515	34.52
2.11182	34.52
2.12848	34.52
2.14515	34.52
2.16182	34.53
2.17848	34.52
2.19515	34.52
2.21182	34.52
2.22848	34.52
2.24515	34.52
2.26182	34.52
2.27848	34.52
2.29515	34.52
2.31182	34.52
2.32848	34.52
2.34515	34.51
2.36182	34.52
2.37848	34.52
2.39515	34.52
2.41182	34.52
2.42848	34.51
2.44515	34.51
2.46182	34.53
2.47848	34.52
2.49515	34.51
2.51182	34.52
2.52848	34.51
2.54515	34.52
2.56182	34.52
2.57848	34.52
2.59515	34.52
2.61182	34.52
2.62848	34.52
2.64515	34.51
2.66182	34.51
2.67848	34.51
2.69515	34.51
2.71182	34.52
2.72848	34.52
2.74515	34.52
2.76182	34.52
2.77848	34.52
2.79515	34.52
2.81182	34.52
2.82848	34.52
2.84515	34.52
2.86182	34.52
2.87848	34.51
2.89515	34.53
2.91182	34.52
2.92848	34.52
2.94515	34.52
2.96182	34.52
2.97848	34.52
2.99515	34.52
3.01182	34.52
3.02848	34.52
3.04515	34.51
3.06182	34.51
3.07848	34.52
3.09515	34.52
3.11182	34.52
3.12848	34.53
3.14515	34.52
3.16182	34.52
3.17848	34.51
3.19515	34.52
3.21182	34.52
3.22848	34.52
3.24515	34.51
3.26182	34.52
3.27848	34.52
3.29515	34.52
3.31182	34.52
3.32848	34.52
3.34515	34.52
3.36182	34.52
3.37848	34.52
3.39515	34.52
3.41182	34.52
3.42848	34.52
3.44515	34.52
3.46182	34.52
3.47848	34.52
3.49515	34.51
3.51182	34.52
3.52848	34.52
3.54515	34.52
3.56182	34.52
3.57848	34.52
3.59515	34.52
3.61182	34.52
3.62848	34.52
3.64515	34.53
3.66182	34.52
3.67848	34.52
3.69515	34.52
3.71182	34.52
3.72848	34.52
3.74515	34.51
3.76182	34.52
3.77848	34.52
3.79515	34.52
3.81182	34.52
3.82848	34.52
3.84515	34.52
3.86182	34.52
3.87848	34.52
3.89515	34.52
3.91182	34.52
3.92848	34.52
3.94515	34.52
3.96182	34.52
3.97848	34.52
3.99515	34.52

[Status Trace (Column Flow)]
Interval(msec)	1000
# of Points	240
Start Time(min)	0.012
End Time(min)	3.995
Intensity Units	
Intensity Multiplier	1
R.Time (min)	Intensity
0.01182	5.50
0.02848	5.15
0.04515	5.46
0.06182	5.69
0.07848	5.62
0.09515	5.50
0.11182	5.50
0.12848	5.50
0.14515	5.50
0.16182	5.50
0.17848	5.50
0.19515	5.50
0.21182	5.50
0.22848	5.50
0.24515	5.50
0.26182	5.50
0.27848	5.50
0.29515	5.50
0.31182	5.50
0.32848	5.50
0.34515	5.50
0.36182	5.50
0.37848	5.50
0.39515	5.50
0.41182	5.50
0.42848	5.50
0.44515	5.50
0.46182	5.50
0.47848	5.50
0.49515	5.50
0.51182	5.50
0.52848	5.50
0.54515	5.50
0.56182	5.50
0.57848	5.50
0.59515	5.50
0.61182	5.50
0.62848	5.50
0.64515	5.50
0.66182	5.50
0.67848	5.50
0.69515	5.50
0.71182	5.50
0.72848	5.50
0.74515	5.50
0.76182	5.50
0.77848	5.50
0.79515	5.50
0.81182	5.50
0.82848	5.50
0.84515	5.50
0.86182	5.50
0.87848	5.50
0.89515	5.50
0.91182	5.50
0.92848	5.50
0.94515	5.50
0.96182	5.50
0.97848	5.50
0.99515	5.50
1.01182	5.50
1.02848	5.50
1.04515	5.50
1.06182	5.50
1.07848	5.50
1.09515	5.50
1.11182	5.50
1.12848	5.50
1.14515	5.50
1.16182	5.50
1.17848	5.50
1.19515	5.50
1.21182	5.50
1.22848	5.50
1.24515	5.50
1.26182	5.50
1.27848	5.50
1.29515	5.50
1.31182	5.50
1.32848	5.50
1.34515	5.50
1.36182	5.50
1.37848	5.50
1.39515	5.50
1.41182	5.50
1.42848	5.50
1.44515	5.50
1.46182	5.50
1.47848	5.50
1.49515	5.50
1.51182	5.50
1.52848	5.50
1.54515	5.50
1.56182	5.50
1.57848	5.50
1.59515	5.50
1.61182	5.50
1.62848	5.50
1.64515	5.49
1.66182	5.48
1.67848	5.47
1.69515	5.46
1.71182	5.45
1.72848	5.44
1.74515	5.43
1.76182	5.42
1.77848	5.41
1.79515	5.40
1.81182	5.39
1.82848	5.38
1.84515	5.37
1.86182	5.36
1.87848	5.35
1.89515	5.34
1.91182	5.33
1.92848	5.32
1.94515	5.31
1.96182	5.30
1.97848	5.29
1.99515	5.28
2.01182	5.27
2.02848	5.26
2.04515	5.25
2.06182	5.24
2.07848	5.23
2.09515	5.22
2.11182	5.21
2.12848	5.21
2.14515	5.20
2.16182	5.19
2.17848	5.18
2.19515	5.17
2.21182	5.16
2.22848	5.15
2.24515	5.14
2.26182	5.13
2.27848	5.12
2.29515	5.11
2.31182	5.10
2.32848	5.09
2.34515	5.08
2.36182	5.07
2.37848	5.07
2.39515	5.07
2.41182	5.07
2.42848	5.07
2.44515	5.07
2.46182	5.07
2.47848	5.07
2.49515	5.07
2.51182	5.07
2.52848	5.07
2.54515	5.07
2.56182	5.07
2.57848	5.07
2.59515	5.07
2.61182	5.07
2.62848	5.07
2.64515	5.07
2.66182	5.07
2.67848	5.07
2.69515	5.07
2.71182	5.07
2.72848	5.07
2.74515	5.06
2.76182	5.06
2.77848	5.07
2.79515	5.06
2.81182	5.06
2.82848	5.06
2.84515	5.06
2.86182	5.06
2.87848	5.06
2.89515	5.06
2.91182	5.06
2.92848	5.06
2.94515	5.06
2.96182	5.06
2.97848	5.06
2.99515	5.06
3.01182	5.06
3.02848	5.06
3.04515	5.06
3.06182	5.06
3.07848	5.06
3.09515	5.06
3.11182	5.06
3.12848	5.06
3.14515	5.06
3.16182	5.06
3.17848	5.06
3.19515	5.06
3.21182	5.06
3.22848	5.06
3.24515	5.06
3.26182	5.06
3.27848	5.06
3.29515	5.06
3.31182	5.06
3.32848	5.06
3.34515	5.06
3.36182	5.06
3.37848	5.06
3.39515	5.06
3.41182	5.06
3.42848	5.06
3.44515	5.06
3.46182	5.06
3.47848	5.06
3.49515	5.06
3.51182	5.06
3.52848	5.06
3.54515	5.06
3.56182	5.06
3.57848	5.06
3.59515	5.06
3.61182	5.06
3.62848	5.06
3.64515	5.06
3.66182	5.06
3.67848	5.06
3.69515	5.06
3.71182	5.06
3.72848	5.06
3.74515	5.06
3.76182	5.06
3.77848	5.06
3.79515	5.06
3.81182	5.06
3.82848	5.06
3.84515	5.06
3.86182	5.06
3.87848	5.06
3.89515	5.06
3.91182	5.06
3.92848	5.06
3.94515	5.06
3.96182	5.06
3.97848	5.06
3.99515	5.06

[Status Trace (Linear Velocity)]
Interval(msec)	1000
# of Points	240
Start Time(min)	0.012
End Time(min)	3.995
Intensity Units	
Intensity Multiplier	1
R.Time (min)	Intensity
0.01182	39.00
0.02848	37.00
0.04515	38.77
0.06182	40.05
0.07848	39.68
0.09515	39.01
0.11182	39.00
0.12848	39.02
0.14515	39.01
0.16182	39.01
0.17848	39.01
0.19515	39.01
0.21182	39.01
0.22848	39.01
0.24515	39.01
0.26182	39.01
0.27848	39.01
0.29515	39.01
0.31182	39.01
0.32848	39.01
0.34515	39.01
0.36182	39.01
0.37848	39.01
0.39515	39.01
0.41182	39.01
0.42848	39.01
0.44515	39.01
0.46182	39.01
0.47848	39.01
0.49515	39.01
0.51182	39.01
0.52848	39.01
0.54515	39.01
0.56182	39.01
0.57848	39.01
0.59515	39.01
0.61182	39.01
0.62848	39.01
0.64515	39.01
0.66182	39.01
0.67848	39.01
0.69515	39.01
0.71182	39.01
0.72848	39.01
0.74515	39.01
0.76182	39.01
0.77848	39.01
0.79515	39.01
0.81182	39.01
0.82848	39.01
0.84515	39.01
0.86182	39.01
0.87848	39.01
0.89515	39.01
0.91182	39.01
0.92848	39.01
0.94515	39.01
0.96182	39.02
0.97848	39.02
0.99515	39.02
1.01182	39.02
1.02848	39.02
1.04515	39.01
1.06182	39.01
1.07848	39.01
1.09515	39.01
1.11182	39.01
1.12848	39.01
1.14515	39.01
1.16182	39.01
1.17848	39.01
1.19515	39.02
1.21182	39.02
1.22848	39.02
1.24515	39.01
1.26182	39.01
1.27848	39.01
1.29515	39.01
1.31182	39.01
1.32848	39.01
1.34515	39.01
1.36182	39.01
1.37848	39.01
1.39515	39.01
1.41182	39.01
1.42848	39.01
1.44515	39.01
1.46182	39.01
1.47848	39.01
1.49515	39.01
1.51182	39.01
1.52848	39.01
1.54515	39.01
1.56182	39.01
1.57848	39.01
1.59515	39.01
1.61182	39.01
1.62848	39.00
1.64515	38.98
1.66182	38.95
1.67848	38.92
1.69515	38.88
1.71182	38.85
1.72848	38.81
1.74515	38.78
1.76182	38.75
1.77848	38.72
1.79515	38.69
1.81182	38.66
1.82848	38.63
1.84515	38.59
1.86182	38.56
1.87848	38.53
1.89515	38.50
1.91182	38.47
1.92848	38.44
1.94515	38.41
1.96182	38.38
1.97848	38.35
1.99515	38.32
2.01182	38.29
2.02848	38.26
2.04515	38.23
2.06182	38.20
2.07848	38.17
2.09515	38.14
2.11182	38.12
2.12848	38.09
2.14515	38.06
2.16182	38.03
2.17848	37.99
2.19515	37.97
2.21182	37.94
2.22848	37.91
2.24515	37.87
2.26182	37.84
2.27848	37.81
2.29515	37.79
2.31182	37.76
2.32848	37.73
2.34515	37.70
2.36182	37.67
2.37848	37.65
2.39515	37.64
2.41182	37.65
2.42848	37.65
2.44515	37.65
2.46182	37.65
2.47848	37.65
2.49515	37.65
2.51182	37.64
2.52848	37.64
2.54515	37.65
2.56182	37.65
2.57848	37.64
2.59515	37.64
2.61182	37.64
2.62848	37.64
2.64515	37.64
2.66182	37.64
2.67848	37.64
2.69515	37.64
2.71182	37.64
2.72848	37.64
2.74515	37.64
2.76182	37.64
2.77848	37.64
2.79515	37.64
2.81182	37.64
2.82848	37.64
2.84515	37.64
2.86182	37.64
2.87848	37.64
2.89515	37.64
2.91182	37.63
2.92848	37.63
2.94515	37.63
2.96182	37.63
2.97848	37.63
2.99515	37.63
3.01182	37.63
3.02848	37.63
3.04515	37.63
3.06182	37.63
3.07848	37.63
3.09515	37.63
3.11182	37.63
3.12848	37.63
3.14515	37.63
3.16182	37.62
3.17848	37.62
3.19515	37.62
3.21182	37.62
3.22848	37.62
3.24515	37.62
3.26182	37.62
3.27848	37.62
3.29515	37.62
3.31182	37.62
3.32848	37.62
3.34515	37.62
3.36182	37.62
3.37848	37.62
3.39515	37.63
3.41182	37.63
3.42848	37.63
3.44515	37.63
3.46182	37.63
3.47848	37.63
3.49515	37.63
3.51182	37.63
3.52848	37.62
3.54515	37.62
3.56182	37.62
3.57848	37.62
3.59515	37.62
3.61182	37.62
3.62848	37.62
3.64515	37.62
3.66182	37.62
3.67848	37.62
3.69515	37.62
3.71182	37.62
3.72848	37.62
3.74515	37.62
3.76182	37.63
3.77848	37.63
3.79515	37.63
3.81182	37.63
3.82848	37.63
3.84515	37.62
3.86182	37.62
3.87848	37.62
3.89515	37.62
3.91182	37.62
3.92848	37.62
3.94515	37.62
3.96182	37.62
3.97848	37.62
3.99515	37.62

