[Header]
Application Name	LabSolutions
Version	5.110
Data File Name	C:\Users\User\Desktop\Junior\UIC Prairie Sampling\6.15.23\06152023_032.gcd
Output Date	6/26/2023
Output Time	12:05:08 PM

[File Information]
Type	Data File
Generated	6/23/2023 2:39:10 PM
Generated by	System Administrator
Modified	6/23/2023 2:46:09 PM
Modified by	System Administrator

[Sample Information]
Operator Name	System Administrator
Acquired	6/23/2023 2:42:08 PM
Sample Type	0:Unknown
Level	0
Sample Name	032
Sample ID	032
ISTD Amount1	1
ISTD Amount2	1
ISTD Amount3	1
ISTD Amount4	1
ISTD Amount5	1
ISTD Amount6	1
ISTD Amount7	1
ISTD Amount8	1
ISTD Amount9	1
ISTD Amount10	1
ISTD Amount11	1
ISTD Amount12	1
ISTD Amount13	1
ISTD Amount14	1
ISTD Amount15	1
ISTD Amount16	1
ISTD Amount17	1
ISTD Amount18	1
ISTD Amount19	1
ISTD Amount20	1
ISTD Amount21	1
ISTD Amount22	1
ISTD Amount23	1
ISTD Amount24	1
ISTD Amount25	1
ISTD Amount26	1
ISTD Amount27	1
ISTD Amount28	1
ISTD Amount29	1
ISTD Amount30	1
ISTD Amount31	1
ISTD Amount32	1
Sample Amount	1
Dilution Factor	1
Vial#	31
Injection Volume	1
Injection Count	1
Bar Code	

[Original Files]
Data File	C:\Users\User\Desktop\Junior\UIC Prairie Sampling\6.15.23\06152023_032.gcd
Method File	C:\LabSolutions\Data\GHG_4min_2022\ghg3_togas_w_acet_4 min_new_int.gcm
Batch File	C:\LabSolutions\Data\AutoSamplerTesting\06152023.gcb
Report Format File	c:\LabSolutions\System\DEFAULT.lsr

[File Description]


[Configuration]
Instrument Name	C0B7VH3-Instrument1
Instrument #	1
Line #	1
# of Detectors	3
Detector ID	DET#1	DET#2	DET#3
Detector Name	FID	PTCD	ECD
# of Channels	1	1	1

[Peak Table(Ch1)]
# of Peaks	3
Peak#	R.Time	I.Time	F.Time	Area	Height	A/H	Conc.	Mark	ID#	Name	k'	Plate #	Plate Ht.	Tailing	Resolution	Sep.Factor	Area Ratio	Height Ratio	Conc. %	Norm Conc.
1	1.472	1.432	1.527	3487	1735	2.010	0.000	   	1	CO	0.000	9798	15.309	1.384	0.000	0.000	0	0	0.000	0.000
2	1.564	1.527	1.619	4439	2281	1.946	21.643	 V 	2	CH4	0.062	11751	12.765	1.139	1.565	0.000	0	0	7.117	7.117
3	1.989	1.927	2.510	1465668	699862	2.094	282.461	   	3	CO2	0.351	17593	8.526	1.323	7.228	5.640	0	0	92.883	92.883

[Peak Table(Ch2)]
# of Peaks	0

[Peak Table(Ch3)]
# of Peaks	6
Peak#	R.Time	I.Time	F.Time	Area	Height	A/H	Conc.	Mark	ID#	Name	k'	Plate #	Plate Ht.	Tailing	Resolution	Sep.Factor	Area Ratio	Height Ratio	Conc. %	Norm Conc.
1	2.458	2.436	2.506	1059	408	2.595	0.000	   			0.000	13924	10.773	0.000	0.000	0.000	0	0	0.000	0.000
2	2.524	2.506	2.579	509	188	2.708	0.000	 V 			0.027	6865	21.850	0.000	0.643	0.000	0	0	0.000	0.000
3	2.627	2.579	2.686	481	137	3.515	0.000	 V 			0.069	10348	14.496	0.000	0.912	2.556	0	0	0.000	0.000
4	2.807	2.697	2.832	4399	748	5.884	0.065	   	1	N2O	0.142	722	207.892	0.000	0.689	2.065	0	0	10.931	10.931
5	2.887	2.832	3.804	35841	5360	6.686	0.530	SV 	1	N2O	0.175	11425	13.129	0.000	0.307	1.232	0	0	89.069	89.069
6	3.162	3.067	3.716	1593	74	21.455	0.000	T  	2	SF6	0.286	555	270.286	3.233	0.853	1.641	0	0	0.000	0.000

[Compound Results(Ch1)]
# of IDs	6
ID#	Name	R.Time	Area	Height	Conc.	Curve	3rd	2nd	1st	Constant	Area Ratio	Height Ratio	Conc. %	Norm Conc.
1	CO	1.472	3487	1735	0.000	Linear	0.000000e+00	0.000000e+00	0.000000e+00	0.000000e+00	0	0	0.000	0.000
2	CH4	1.564	4439	2281	21.643	Linear	0.000000e+00	0.000000e+00	2.051179e+002	0.000000e+00	0	0	7.117	7.117
3	CO2	1.989	1465668	699862	282.461	Linear	0.000000e+00	0.000000e+00	5.188919e+003	0.000000e+00	0	0	92.883	92.883
4	Ethylene	0.000	0	0	0.000	Linear	0.000000e+00	0.000000e+00	0.000000e+00	0.000000e+00	0	0	0.000	0.000
5	Acetylene	0.000	0	0	0.000	Linear	0.000000e+00	0.000000e+00	0.000000e+00	0.000000e+00	0	0	0.000	0.000
6	Ethane	0.000	0	0	0.000	Linear	0.000000e+00	0.000000e+00	0.000000e+00	0.000000e+00	0	0	0.000	0.000

[Compound Results(Ch2)]
# of IDs	5
ID#	Name	R.Time	Area	Height	Conc.	Curve	3rd	2nd	1st	Constant	Area Ratio	Height Ratio	Conc. %	Norm Conc.
1	Hydrogen	0.000	0	0	0.000	Linear	0.000000e+00	0.000000e+00	0.000000e+00	0.000000e+00	0	0	0.000	0.000
2	Oxygen	0.000	0	0	0.000	Linear	0.000000e+00	0.000000e+00	0.000000e+00	0.000000e+00	0	0	0.000	0.000
3	Nitrogen	0.000	0	0	0.000	Linear	0.000000e+00	0.000000e+00	0.000000e+00	0.000000e+00	0	0	0.000	0.000
4	Methane	0.000	0	0	0.000	Linear	0.000000e+00	0.000000e+00	0.000000e+00	0.000000e+00	0	0	0.000	0.000
5	Carbon Monoxide	0.000	0	0	0.000	Linear	0.000000e+00	0.000000e+00	0.000000e+00	0.000000e+00	0	0	0.000	0.000

[Compound Results(Ch3)]
# of IDs	2
ID#	Name	R.Time	Area	Height	Conc.	Curve	3rd	2nd	1st	Constant	Area Ratio	Height Ratio	Conc. %	Norm Conc.
1	N2O	2.887	40239	6108	0.595	Linear	0.000000e+00	0.000000e+00	6.759880e+004	0.000000e+00	0	0	100.000	100.000
2	SF6	3.162	1593	74	0.000	Linear	0.000000e+00	0.000000e+00	0.000000e+00	0.000000e+00	0	0	0.000	0.000

[Group Results(Ch1)]
# of Groups	0

[Group Results(Ch2)]
# of Groups	0

[Group Results(Ch3)]
# of Groups	0

[Chromatogram (Ch1)]
Interval(msec)	220
# of Points	1091
Start Time(min)	0.002
End Time(min)	3.998
R.Time (min)	Intensity
0.00167	-9
0.00533	-11
0.00900	-12
0.01267	-12
0.01633	-8
0.02000	-4
0.02367	-3
0.02733	-3
0.03100	-5
0.03467	-7
0.03833	-7
0.04200	-7
0.04567	-6
0.04933	-7
0.05300	-9
0.05667	-9
0.06033	-10
0.06400	-11
0.06767	-10
0.07133	-10
0.07500	-12
0.07867	-15
0.08233	-16
0.08600	-17
0.08967	-19
0.09333	-19
0.09700	-25
0.10067	-34
0.10433	-39
0.10800	-41
0.11167	-40
0.11533	-36
0.11900	-32
0.12267	-31
0.12633	-31
0.13000	-30
0.13367	-26
0.13733	-18
0.14100	-12
0.14467	-10
0.14833	-10
0.15200	-13
0.15567	-17
0.15933	-19
0.16300	-16
0.16667	-10
0.17033	-8
0.17400	-9
0.17767	-13
0.18133	-17
0.18500	-22
0.18867	-29
0.19233	-34
0.19600	-39
0.19967	-43
0.20333	-47
0.20700	-51
0.21067	-52
0.21433	-53
0.21800	-56
0.22167	-60
0.22533	-61
0.22900	-59
0.23267	-56
0.23633	-54
0.24000	-52
0.24367	-49
0.24733	-42
0.25100	-33
0.25467	-27
0.25833	-25
0.26200	-26
0.26567	-28
0.26933	-33
0.27300	-36
0.27667	-36
0.28033	-35
0.28400	-32
0.28767	-31
0.29133	-33
0.29500	-37
0.29867	-40
0.30233	-45
0.30600	-49
0.30967	-48
0.31333	-42
0.31700	-35
0.32067	-30
0.32433	-24
0.32800	-19
0.33167	-17
0.33533	-17
0.33900	-16
0.34267	-18
0.34633	-21
0.35000	-22
0.35367	-24
0.35733	-30
0.36100	-40
0.36467	-51
0.36833	-58
0.37200	-61
0.37567	-59
0.37933	-55
0.38300	-49
0.38667	-44
0.39033	-40
0.39400	-32
0.39767	-29
0.40133	-34
0.40500	-40
0.40867	-44
0.41233	-47
0.41600	-49
0.41967	-51
0.42333	-52
0.42700	-51
0.43067	-49
0.43433	-47
0.43800	-44
0.44167	-38
0.44533	-35
0.44900	-36
0.45267	-35
0.45633	-32
0.46000	-33
0.46367	-36
0.46733	-37
0.47100	-39
0.47467	-42
0.47833	-42
0.48200	-41
0.48567	-39
0.48933	-37
0.49300	-34
0.49667	-32
0.50033	-33
0.50400	-39
0.50767	-48
0.51133	-56
0.51500	-57
0.51867	-51
0.52233	-44
0.52600	-39
0.52967	-38
0.53333	-39
0.53700	-40
0.54067	-39
0.54433	-36
0.54800	-32
0.55167	-31
0.55533	-31
0.55900	-32
0.56267	-35
0.56633	-41
0.57000	-46
0.57367	-49
0.57733	-49
0.58100	-49
0.58467	-49
0.58833	-48
0.59200	-46
0.59567	-47
0.59933	-48
0.60300	-47
0.60667	-44
0.61033	-41
0.61400	-40
0.61767	-37
0.62133	-31
0.62500	-25
0.62867	-23
0.63233	-28
0.63600	-34
0.63967	-42
0.64333	-48
0.64700	-50
0.65067	-50
0.65433	-50
0.65800	-45
0.66167	-42
0.66533	-44
0.66900	-47
0.67267	-49
0.67633	-51
0.68000	-53
0.68367	-53
0.68733	-51
0.69100	-46
0.69467	-39
0.69833	-35
0.70200	-36
0.70567	-41
0.70933	-44
0.71300	-48
0.71667	-51
0.72033	-56
0.72400	-65
0.72767	-74
0.73133	-78
0.73500	-75
0.73867	-66
0.74233	-55
0.74600	-45
0.74967	-39
0.75333	-39
0.75700	-40
0.76067	-39
0.76433	-37
0.76800	-39
0.77167	-44
0.77533	-50
0.77900	-57
0.78267	-62
0.78633	-65
0.79000	-65
0.79367	-67
0.79733	-69
0.80100	-74
0.80467	-77
0.80833	-75
0.81200	-65
0.81567	-53
0.81933	-44
0.82300	-43
0.82667	-48
0.83033	-54
0.83400	-55
0.83767	-54
0.84133	-53
0.84500	-52
0.84867	-49
0.85233	-46
0.85600	-39
0.85967	-32
0.86333	-33
0.86700	-42
0.87067	-49
0.87433	-53
0.87800	-56
0.88167	-59
0.88533	-64
0.88900	-67
0.89267	-66
0.89633	-60
0.90000	-51
0.90367	-46
0.90733	-44
0.91100	-47
0.91467	-50
0.91833	-52
0.92200	-54
0.92567	-60
0.92933	-66
0.93300	-70
0.93667	-72
0.94033	-70
0.94400	-64
0.94767	-61
0.95133	-64
0.95500	-68
0.95867	-72
0.96233	-76
0.96600	-76
0.96967	-73
0.97333	-68
0.97700	-61
0.98067	-55
0.98433	-53
0.98800	-53
0.99167	-55
0.99533	-61
0.99900	-66
1.00267	-69
1.00633	-71
1.01000	-69
1.01367	-64
1.01733	-60
1.02100	-58
1.02467	-58
1.02833	-57
1.03200	-56
1.03567	-55
1.03933	-53
1.04300	-53
1.04667	-55
1.05033	-59
1.05400	-64
1.05767	-69
1.06133	-72
1.06500	-71
1.06867	-68
1.07233	-69
1.07600	-74
1.07967	-81
1.08333	-85
1.08700	-89
1.09067	-92
1.09433	-91
1.09800	-90
1.10167	-90
1.10533	-88
1.10900	-86
1.11267	-82
1.11633	-77
1.12000	-72
1.12367	-66
1.12733	-64
1.13100	-65
1.13467	-68
1.13833	-76
1.14200	-84
1.14567	-91
1.14933	-95
1.15300	-91
1.15667	-83
1.16033	-75
1.16400	-69
1.16767	-66
1.17133	-66
1.17500	-65
1.17867	-62
1.18233	-62
1.18600	-65
1.18967	-71
1.19333	-75
1.19700	-75
1.20067	-75
1.20433	-75
1.20800	-74
1.21167	-76
1.21533	-78
1.21900	-77
1.22267	-75
1.22633	-77
1.23000	-80
1.23367	-85
1.23733	-87
1.24100	-85
1.24467	-84
1.24833	-84
1.25200	-85
1.25567	-86
1.25933	-86
1.26300	-86
1.26667	-83
1.27033	-81
1.27400	-81
1.27767	-78
1.28133	-74
1.28500	-72
1.28867	-69
1.29233	-68
1.29600	-68
1.29967	-70
1.30333	-71
1.30700	-69
1.31067	-68
1.31433	-68
1.31800	-69
1.32167	-71
1.32533	-74
1.32900	-77
1.33267	-75
1.33633	-71
1.34000	-67
1.34367	-61
1.34733	-62
1.35100	-70
1.35467	-78
1.35833	-84
1.36200	-84
1.36567	-79
1.36933	-79
1.37300	-85
1.37667	-90
1.38033	-92
1.38400	-88
1.38767	-82
1.39133	-75
1.39500	-71
1.39867	-72
1.40233	-76
1.40600	-81
1.40967	-85
1.41333	-89
1.41700	-94
1.42067	-95
1.42433	-95
1.42800	-91
1.43167	-85
1.43533	-77
1.43900	-67
1.44267	-68
1.44633	-42
1.45000	101
1.45367	377
1.45733	718
1.46100	1051
1.46467	1335
1.46833	1545
1.47200	1649
1.47567	1617
1.47933	1460
1.48300	1218
1.48667	946
1.49033	694
1.49400	490
1.49767	336
1.50133	221
1.50500	138
1.50867	78
1.51233	31
1.51600	-6
1.51967	-30
1.52333	-44
1.52700	-53
1.53067	-54
1.53433	-20
1.53800	108
1.54167	387
1.54533	801
1.54900	1256
1.55267	1663
1.55633	1975
1.56000	2162
1.56367	2193
1.56733	2045
1.57100	1746
1.57467	1370
1.57833	1002
1.58200	690
1.58567	448
1.58933	273
1.59300	151
1.59667	67
1.60033	11
1.60400	-27
1.60767	-54
1.61133	-72
1.61500	-82
1.61867	-89
1.62233	-94
1.62600	-94
1.62967	-92
1.63333	-90
1.63700	-89
1.64067	-86
1.64433	-85
1.64800	-84
1.65167	-84
1.65533	-88
1.65900	-94
1.66267	-101
1.66633	-110
1.67000	-119
1.67367	-125
1.67733	-126
1.68100	-124
1.68467	-121
1.68833	-117
1.69200	-116
1.69567	-114
1.69933	-110
1.70300	-107
1.70667	-105
1.71033	-100
1.71400	-95
1.71767	-93
1.72133	-92
1.72500	-91
1.72867	-91
1.73233	-96
1.73600	-104
1.73967	-111
1.74333	-112
1.74700	-111
1.75067	-113
1.75433	-116
1.75800	-119
1.76167	-120
1.76533	-119
1.76900	-112
1.77267	-105
1.77633	-101
1.78000	-96
1.78367	-93
1.78733	-91
1.79100	-93
1.79467	-98
1.79833	-109
1.80200	-120
1.80567	-126
1.80933	-126
1.81300	-122
1.81667	-116
1.82033	-113
1.82400	-113
1.82767	-114
1.83133	-111
1.83500	-105
1.83867	-96
1.84233	-89
1.84600	-83
1.84967	-77
1.85333	-76
1.85700	-83
1.86067	-93
1.86433	-104
1.86800	-115
1.87167	-120
1.87533	-121
1.87900	-122
1.88267	-118
1.88633	-112
1.89000	-109
1.89367	-110
1.89733	-113
1.90100	-114
1.90467	-112
1.90833	-112
1.91200	-116
1.91567	-121
1.91933	-122
1.92300	-119
1.92667	-109
1.93033	-95
1.93400	-84
1.93767	-78
1.94133	-71
1.94500	-57
1.94867	30
1.95233	568
1.95600	3165
1.95967	12623
1.96333	38756
1.96700	94560
1.97067	187894
1.97433	312372
1.97800	448009
1.98167	570517
1.98533	658897
1.98900	699798
1.99267	688687
1.99633	630741
2.00000	540071
2.00367	435396
2.00733	333707
2.01100	245970
2.01467	176445
2.01833	124591
2.02200	87515
2.02567	61734
2.02933	44108
2.03300	32156
2.03667	24057
2.04033	18534
2.04400	14719
2.04767	12034
2.05133	10104
2.05500	8685
2.05867	7610
2.06233	6772
2.06600	6104
2.06967	5559
2.07333	5108
2.07700	4728
2.08067	4402
2.08433	4117
2.08800	3866
2.09167	3641
2.09533	3440
2.09900	3261
2.10267	3100
2.10633	2952
2.11000	2818
2.11367	2694
2.11733	2578
2.12100	2474
2.12467	2378
2.12833	2287
2.13200	2200
2.13567	2121
2.13933	2047
2.14300	1979
2.14667	1918
2.15033	1857
2.15400	1794
2.15767	1731
2.16133	1670
2.16500	1612
2.16867	1559
2.17233	1515
2.17600	1480
2.17967	1452
2.18333	1417
2.18700	1377
2.19067	1338
2.19433	1301
2.19800	1264
2.20167	1227
2.20533	1190
2.20900	1156
2.21267	1124
2.21633	1092
2.22000	1063
2.22367	1037
2.22733	1014
2.23100	990
2.23467	966
2.23833	949
2.24200	934
2.24567	920
2.24933	906
2.25300	890
2.25667	871
2.26033	849
2.26400	826
2.26767	801
2.27133	776
2.27500	754
2.27867	738
2.28233	727
2.28600	720
2.28967	718
2.29333	714
2.29700	704
2.30067	689
2.30433	672
2.30800	657
2.31167	647
2.31533	637
2.31900	625
2.32267	611
2.32633	596
2.33000	581
2.33367	568
2.33733	556
2.34100	548
2.34467	543
2.34833	537
2.35200	527
2.35567	516
2.35933	508
2.36300	504
2.36667	502
2.37033	501
2.37400	500
2.37767	499
2.38133	493
2.38500	484
2.38867	480
2.39233	480
2.39600	476
2.39967	465
2.40333	451
2.40700	440
2.41067	429
2.41433	414
2.41800	403
2.42167	396
2.42533	395
2.42900	387
2.43267	375
2.43633	369
2.44000	368
2.44367	369
2.44733	369
2.45100	367
2.45467	361
2.45833	356
2.46200	351
2.46567	344
2.46933	337
2.47300	331
2.47667	326
2.48033	323
2.48400	324
2.48767	323
2.49133	323
2.49500	322
2.49867	321
2.50233	318
2.50600	314
2.50967	311
2.51333	309
2.51700	307
2.52067	306
2.52433	305
2.52800	302
2.53167	301
2.53533	304
2.53900	303
2.54267	296
2.54633	291
2.55000	290
2.55367	286
2.55733	276
2.56100	264
2.56467	254
2.56833	244
2.57200	234
2.57567	223
2.57933	215
2.58300	213
2.58667	212
2.59033	213
2.59400	219
2.59767	228
2.60133	237
2.60500	241
2.60867	239
2.61233	234
2.61600	228
2.61967	223
2.62333	217
2.62700	207
2.63067	196
2.63433	185
2.63800	181
2.64167	183
2.64533	185
2.64900	187
2.65267	189
2.65633	190
2.66000	190
2.66367	192
2.66733	194
2.67100	192
2.67467	188
2.67833	182
2.68200	176
2.68567	166
2.68933	159
2.69300	159
2.69667	159
2.70033	159
2.70400	160
2.70767	160
2.71133	159
2.71500	157
2.71867	158
2.72233	161
2.72600	165
2.72967	169
2.73333	172
2.73700	175
2.74067	176
2.74433	172
2.74800	165
2.75167	160
2.75533	161
2.75900	161
2.76267	159
2.76633	158
2.77000	159
2.77367	160
2.77733	163
2.78100	166
2.78467	167
2.78833	168
2.79200	172
2.79567	176
2.79933	176
2.80300	167
2.80667	156
2.81033	145
2.81400	138
2.81767	132
2.82133	129
2.82500	134
2.82867	139
2.83233	144
2.83600	149
2.83967	154
2.84333	164
2.84700	171
2.85067	166
2.85433	150
2.85800	133
2.86167	119
2.86533	111
2.86900	109
2.87267	109
2.87633	112
2.88000	117
2.88367	121
2.88733	124
2.89100	123
2.89467	119
2.89833	116
2.90200	114
2.90567	112
2.90933	110
2.91300	112
2.91667	114
2.92033	115
2.92400	113
2.92767	112
2.93133	115
2.93500	119
2.93867	120
2.94233	118
2.94600	114
2.94967	111
2.95333	107
2.95700	104
2.96067	103
2.96433	105
2.96800	111
2.97167	116
2.97533	121
2.97900	127
2.98267	131
2.98633	133
2.99000	133
2.99367	131
2.99733	129
3.00100	127
3.00467	126
3.00833	123
3.01200	120
3.01567	115
3.01933	110
3.02300	103
3.02667	95
3.03033	89
3.03400	87
3.03767	88
3.04133	89
3.04500	89
3.04867	94
3.05233	103
3.05600	109
3.05967	112
3.06333	108
3.06700	101
3.07067	93
3.07433	87
3.07800	81
3.08167	78
3.08533	78
3.08900	80
3.09267	84
3.09633	87
3.10000	89
3.10367	88
3.10733	87
3.11100	89
3.11467	91
3.11833	90
3.12200	87
3.12567	82
3.12933	78
3.13300	78
3.13667	81
3.14033	80
3.14400	77
3.14767	76
3.15133	76
3.15500	80
3.15867	86
3.16233	90
3.16600	93
3.16967	93
3.17333	93
3.17700	90
3.18067	86
3.18433	88
3.18800	91
3.19167	87
3.19533	76
3.19900	65
3.20267	60
3.20633	60
3.21000	62
3.21367	64
3.21733	62
3.22100	59
3.22467	57
3.22833	59
3.23200	65
3.23567	72
3.23933	73
3.24300	68
3.24667	64
3.25033	63
3.25400	61
3.25767	61
3.26133	63
3.26500	66
3.26867	67
3.27233	66
3.27600	67
3.27967	64
3.28333	59
3.28700	51
3.29067	45
3.29433	42
3.29800	42
3.30167	47
3.30533	52
3.30900	61
3.31267	69
3.31633	74
3.32000	76
3.32367	73
3.32733	68
3.33100	64
3.33467	63
3.33833	66
3.34200	73
3.34567	79
3.34933	77
3.35300	70
3.35667	62
3.36033	56
3.36400	48
3.36767	41
3.37133	33
3.37500	28
3.37867	27
3.38233	34
3.38600	46
3.38967	58
3.39333	65
3.39700	64
3.40067	56
3.40433	45
3.40800	33
3.41167	23
3.41533	16
3.41900	12
3.42267	9
3.42633	8
3.43000	12
3.43367	18
3.43733	25
3.44100	30
3.44467	31
3.44833	32
3.45200	33
3.45567	36
3.45933	36
3.46300	34
3.46667	30
3.47033	28
3.47400	28
3.47767	26
3.48133	24
3.48500	25
3.48867	27
3.49233	30
3.49600	31
3.49967	34
3.50333	40
3.50700	42
3.51067	39
3.51433	36
3.51800	36
3.52167	38
3.52533	40
3.52900	42
3.53267	41
3.53633	35
3.54000	30
3.54367	25
3.54733	21
3.55100	18
3.55467	15
3.55833	10
3.56200	6
3.56567	5
3.56933	10
3.57300	20
3.57667	26
3.58033	28
3.58400	26
3.58767	22
3.59133	16
3.59500	10
3.59867	11
3.60233	14
3.60600	14
3.60967	11
3.61333	11
3.61700	12
3.62067	17
3.62433	21
3.62800	22
3.63167	23
3.63533	25
3.63900	26
3.64267	22
3.64633	18
3.65000	14
3.65367	10
3.65733	6
3.66100	5
3.66467	8
3.66833	11
3.67200	17
3.67567	27
3.67933	34
3.68300	37
3.68667	35
3.69033	35
3.69400	35
3.69767	28
3.70133	17
3.70500	9
3.70867	7
3.71233	10
3.71600	15
3.71967	23
3.72333	28
3.72700	31
3.73067	31
3.73433	28
3.73800	25
3.74167	20
3.74533	14
3.74900	9
3.75267	6
3.75633	7
3.76000	8
3.76367	10
3.76733	16
3.77100	21
3.77467	21
3.77833	18
3.78200	15
3.78567	14
3.78933	9
3.79300	3
3.79667	-1
3.80033	-3
3.80400	-3
3.80767	1
3.81133	10
3.81500	16
3.81867	19
3.82233	19
3.82600	17
3.82967	13
3.83333	9
3.83700	3
3.84067	-2
3.84433	-4
3.84800	-1
3.85167	5
3.85533	4
3.85900	-3
3.86267	-13
3.86633	-22
3.87000	-27
3.87367	-28
3.87733	-26
3.88100	-18
3.88467	-7
3.88833	-1
3.89200	-4
3.89567	-11
3.89933	-18
3.90300	-24
3.90667	-26
3.91033	-27
3.91400	-23
3.91767	-20
3.92133	-22
3.92500	-28
3.92867	-35
3.93233	-40
3.93600	-39
3.93967	-33
3.94333	-28
3.94700	-22
3.95067	-18
3.95433	-13
3.95800	-3
3.96167	6
3.96533	10
3.96900	10
3.97267	7
3.97633	5
3.98000	7
3.98367	8
3.98733	5
3.99100	-1
3.99467	-8
3.99833	-16

[Chromatogram (Ch2)]
Interval(msec)	220
# of Points	1091
Start Time(min)	0.002
End Time(min)	3.998
R.Time (min)	Intensity
0.00167	-0
0.00533	-0
0.00900	-0
0.01267	-0
0.01633	0
0.02000	0
0.02367	1
0.02733	1
0.03100	2
0.03467	2
0.03833	2
0.04200	3
0.04567	3
0.04933	3
0.05300	3
0.05667	3
0.06033	4
0.06400	4
0.06767	4
0.07133	5
0.07500	5
0.07867	5
0.08233	5
0.08600	5
0.08967	5
0.09333	5
0.09700	5
0.10067	4
0.10433	4
0.10800	4
0.11167	4
0.11533	4
0.11900	4
0.12267	4
0.12633	4
0.13000	3
0.13367	3
0.13733	3
0.14100	3
0.14467	3
0.14833	2
0.15200	2
0.15567	2
0.15933	2
0.16300	2
0.16667	2
0.17033	2
0.17400	2
0.17767	2
0.18133	2
0.18500	1
0.18867	1
0.19233	1
0.19600	1
0.19967	0
0.20333	-0
0.20700	-0
0.21067	-1
0.21433	-1
0.21800	-1
0.22167	-1
0.22533	-1
0.22900	-1
0.23267	-1
0.23633	-1
0.24000	-1
0.24367	-1
0.24733	-1
0.25100	-0
0.25467	-0
0.25833	-0
0.26200	-1
0.26567	-1
0.26933	-1
0.27300	-1
0.27667	-1
0.28033	-1
0.28400	-1
0.28767	-1
0.29133	-1
0.29500	-1
0.29867	-0
0.30233	-0
0.30600	0
0.30967	0
0.31333	1
0.31700	1
0.32067	1
0.32433	1
0.32800	2
0.33167	2
0.33533	2
0.33900	3
0.34267	3
0.34633	3
0.35000	4
0.35367	4
0.35733	5
0.36100	5
0.36467	5
0.36833	4
0.37200	4
0.37567	4
0.37933	4
0.38300	4
0.38667	4
0.39033	3
0.39400	3
0.39767	3
0.40133	2
0.40500	2
0.40867	1
0.41233	1
0.41600	1
0.41967	1
0.42333	1
0.42700	1
0.43067	1
0.43433	1
0.43800	1
0.44167	1
0.44533	1
0.44900	1
0.45267	1
0.45633	1
0.46000	1
0.46367	2
0.46733	2
0.47100	2
0.47467	2
0.47833	2
0.48200	3
0.48567	3
0.48933	3
0.49300	3
0.49667	3
0.50033	3
0.50400	3
0.50767	3
0.51133	3
0.51500	3
0.51867	2
0.52233	2
0.52600	1
0.52967	1
0.53333	1
0.53700	0
0.54067	1
0.54433	1
0.54800	0
0.55167	1
0.55533	1
0.55900	1
0.56267	1
0.56633	1
0.57000	1
0.57367	1
0.57733	1
0.58100	0
0.58467	0
0.58833	0
0.59200	0
0.59567	1
0.59933	1
0.60300	1
0.60667	1
0.61033	1
0.61400	1
0.61767	1
0.62133	1
0.62500	1
0.62867	1
0.63233	0
0.63600	-0
0.63967	-1
0.64333	-1
0.64700	-1
0.65067	-1
0.65433	-2
0.65800	-2
0.66167	-2
0.66533	-2
0.66900	-2
0.67267	-1
0.67633	-1
0.68000	-1
0.68367	-1
0.68733	-0
0.69100	-0
0.69467	-0
0.69833	-0
0.70200	-1
0.70567	-1
0.70933	-1
0.71300	-1
0.71667	-1
0.72033	-1
0.72400	-1
0.72767	-1
0.73133	-1
0.73500	-1
0.73867	-1
0.74233	-2
0.74600	-2
0.74967	-2
0.75333	-2
0.75700	-2
0.76067	-2
0.76433	-2
0.76800	-2
0.77167	-2
0.77533	-2
0.77900	-2
0.78267	-1
0.78633	-1
0.79000	-1
0.79367	-1
0.79733	-0
0.80100	0
0.80467	1
0.80833	1
0.81200	1
0.81567	1
0.81933	1
0.82300	1
0.82667	1
0.83033	2
0.83400	2
0.83767	2
0.84133	2
0.84500	2
0.84867	2
0.85233	2
0.85600	2
0.85967	2
0.86333	2
0.86700	2
0.87067	2
0.87433	2
0.87800	2
0.88167	2
0.88533	2
0.88900	1
0.89267	1
0.89633	0
0.90000	0
0.90367	-0
0.90733	-0
0.91100	-0
0.91467	-0
0.91833	0
0.92200	0
0.92567	0
0.92933	1
0.93300	1
0.93667	1
0.94033	1
0.94400	1
0.94767	1
0.95133	1
0.95500	2
0.95867	2
0.96233	2
0.96600	1
0.96967	1
0.97333	1
0.97700	1
0.98067	1
0.98433	0
0.98800	0
0.99167	-0
0.99533	-1
0.99900	-1
1.00267	-1
1.00633	-1
1.01000	-2
1.01367	-2
1.01733	-2
1.02100	-2
1.02467	-2
1.02833	-2
1.03200	-2
1.03567	-1
1.03933	-1
1.04300	-1
1.04667	-1
1.05033	-1
1.05400	-0
1.05767	0
1.06133	0
1.06500	1
1.06867	1
1.07233	1
1.07600	1
1.07967	1
1.08333	1
1.08700	1
1.09067	1
1.09433	1
1.09800	1
1.10167	0
1.10533	-0
1.10900	-1
1.11267	-1
1.11633	-2
1.12000	-2
1.12367	-2
1.12733	-3
1.13100	-3
1.13467	-3
1.13833	-3
1.14200	-3
1.14567	-3
1.14933	-3
1.15300	-2
1.15667	-2
1.16033	-2
1.16400	-1
1.16767	-1
1.17133	-1
1.17500	-1
1.17867	-1
1.18233	-1
1.18600	-0
1.18967	-0
1.19333	0
1.19700	0
1.20067	0
1.20433	0
1.20800	0
1.21167	-0
1.21533	-0
1.21900	-0
1.22267	-1
1.22633	-1
1.23000	-1
1.23367	-1
1.23733	-1
1.24100	-0
1.24467	0
1.24833	0
1.25200	1
1.25567	1
1.25933	1
1.26300	1
1.26667	1
1.27033	1
1.27400	1
1.27767	0
1.28133	0
1.28500	-0
1.28867	-1
1.29233	-1
1.29600	-1
1.29967	-2
1.30333	-2
1.30700	-3
1.31067	-3
1.31433	-3
1.31800	-3
1.32167	-3
1.32533	-3
1.32900	-2
1.33267	-2
1.33633	-2
1.34000	-2
1.34367	-2
1.34733	-2
1.35100	-2
1.35467	-2
1.35833	-2
1.36200	-2
1.36567	-2
1.36933	-1
1.37300	-1
1.37667	-1
1.38033	-1
1.38400	-2
1.38767	-2
1.39133	-2
1.39500	-2
1.39867	-2
1.40233	-2
1.40600	-2
1.40967	-2
1.41333	-2
1.41700	-1
1.42067	-1
1.42433	-0
1.42800	0
1.43167	1
1.43533	1
1.43900	1
1.44267	1
1.44633	1
1.45000	1
1.45367	0
1.45733	0
1.46100	-0
1.46467	-0
1.46833	-1
1.47200	-1
1.47567	-1
1.47933	-1
1.48300	-1
1.48667	-2
1.49033	-2
1.49400	-2
1.49767	-2
1.50133	-2
1.50500	-2
1.50867	-1
1.51233	-1
1.51600	-1
1.51967	-1
1.52333	-1
1.52700	-2
1.53067	-2
1.53433	-1
1.53800	-1
1.54167	-1
1.54533	-1
1.54900	-1
1.55267	-1
1.55633	-0
1.56000	-0
1.56367	0
1.56733	1
1.57100	1
1.57467	1
1.57833	1
1.58200	1
1.58567	0
1.58933	0
1.59300	-0
1.59667	-1
1.60033	-1
1.60400	-2
1.60767	-3
1.61133	-4
1.61500	-6
1.61867	-8
1.62233	-10
1.62600	-13
1.62967	-15
1.63333	-18
1.63700	-22
1.64067	-25
1.64433	-28
1.64800	-31
1.65167	-35
1.65533	-38
1.65900	-42
1.66267	-47
1.66633	-52
1.67000	-57
1.67367	-61
1.67733	-66
1.68100	-71
1.68467	-75
1.68833	-78
1.69200	-82
1.69567	-84
1.69933	-87
1.70300	-89
1.70667	-90
1.71033	-92
1.71400	-93
1.71767	-95
1.72133	-96
1.72500	-96
1.72867	-97
1.73233	-97
1.73600	-98
1.73967	-98
1.74333	-99
1.74700	-99
1.75067	-100
1.75433	-100
1.75800	-101
1.76167	-101
1.76533	-101
1.76900	-100
1.77267	-100
1.77633	-100
1.78000	-99
1.78367	-99
1.78733	-99
1.79100	-99
1.79467	-99
1.79833	-100
1.80200	-100
1.80567	-101
1.80933	-101
1.81300	-101
1.81667	-101
1.82033	-101
1.82400	-102
1.82767	-102
1.83133	-103
1.83500	-104
1.83867	-104
1.84233	-104
1.84600	-103
1.84967	-102
1.85333	-102
1.85700	-102
1.86067	-102
1.86433	-102
1.86800	-102
1.87167	-101
1.87533	-101
1.87900	-101
1.88267	-100
1.88633	-100
1.89000	-100
1.89367	-100
1.89733	-100
1.90100	-100
1.90467	-100
1.90833	-100
1.91200	-99
1.91567	-99
1.91933	-98
1.92300	-98
1.92667	-97
1.93033	-97
1.93400	-97
1.93767	-97
1.94133	-97
1.94500	-97
1.94867	-97
1.95233	-96
1.95600	-96
1.95967	-97
1.96333	-97
1.96700	-97
1.97067	-97
1.97433	-97
1.97800	-97
1.98167	-96
1.98533	-95
1.98900	-95
1.99267	-94
1.99633	-94
2.00000	-93
2.00367	-93
2.00733	-93
2.01100	-93
2.01467	-93
2.01833	-93
2.02200	-93
2.02567	-93
2.02933	-94
2.03300	-94
2.03667	-95
2.04033	-95
2.04400	-94
2.04767	-94
2.05133	-93
2.05500	-93
2.05867	-92
2.06233	-91
2.06600	-90
2.06967	-90
2.07333	-89
2.07700	-89
2.08067	-89
2.08433	-89
2.08800	-89
2.09167	-89
2.09533	-89
2.09900	-89
2.10267	-88
2.10633	-87
2.11000	-86
2.11367	-86
2.11733	-85
2.12100	-85
2.12467	-85
2.12833	-85
2.13200	-84
2.13567	-84
2.13933	-84
2.14300	-84
2.14667	-84
2.15033	-85
2.15400	-84
2.15767	-84
2.16133	-84
2.16500	-84
2.16867	-84
2.17233	-83
2.17600	-83
2.17967	-82
2.18333	-82
2.18700	-81
2.19067	-81
2.19433	-80
2.19800	-80
2.20167	-80
2.20533	-80
2.20900	-79
2.21267	-78
2.21633	-78
2.22000	-77
2.22367	-76
2.22733	-75
2.23100	-75
2.23467	-75
2.23833	-75
2.24200	-76
2.24567	-77
2.24933	-78
2.25300	-78
2.25667	-78
2.26033	-77
2.26400	-76
2.26767	-75
2.27133	-75
2.27500	-74
2.27867	-73
2.28233	-73
2.28600	-72
2.28967	-72
2.29333	-71
2.29700	-71
2.30067	-71
2.30433	-71
2.30800	-71
2.31167	-71
2.31533	-70
2.31900	-70
2.32267	-70
2.32633	-69
2.33000	-69
2.33367	-69
2.33733	-69
2.34100	-68
2.34467	-68
2.34833	-67
2.35200	-67
2.35567	-66
2.35933	-65
2.36300	-64
2.36667	-63
2.37033	-62
2.37400	-60
2.37767	-57
2.38133	-54
2.38500	-51
2.38867	-46
2.39233	-42
2.39600	-38
2.39967	-34
2.40333	-29
2.40700	-25
2.41067	-20
2.41433	-16
2.41800	-13
2.42167	-10
2.42533	-8
2.42900	-6
2.43267	-4
2.43633	-2
2.44000	0
2.44367	2
2.44733	4
2.45100	7
2.45467	8
2.45833	10
2.46200	11
2.46567	12
2.46933	12
2.47300	12
2.47667	12
2.48033	13
2.48400	13
2.48767	14
2.49133	14
2.49500	15
2.49867	16
2.50233	17
2.50600	17
2.50967	18
2.51333	18
2.51700	18
2.52067	17
2.52433	17
2.52800	17
2.53167	16
2.53533	16
2.53900	15
2.54267	15
2.54633	14
2.55000	14
2.55367	13
2.55733	13
2.56100	13
2.56467	14
2.56833	15
2.57200	15
2.57567	16
2.57933	17
2.58300	17
2.58667	18
2.59033	18
2.59400	18
2.59767	18
2.60133	19
2.60500	19
2.60867	20
2.61233	20
2.61600	20
2.61967	21
2.62333	21
2.62700	21
2.63067	21
2.63433	22
2.63800	22
2.64167	22
2.64533	23
2.64900	23
2.65267	23
2.65633	24
2.66000	24
2.66367	24
2.66733	25
2.67100	26
2.67467	26
2.67833	27
2.68200	27
2.68567	27
2.68933	27
2.69300	27
2.69667	26
2.70033	27
2.70400	27
2.70767	27
2.71133	27
2.71500	27
2.71867	26
2.72233	26
2.72600	27
2.72967	27
2.73333	27
2.73700	27
2.74067	27
2.74433	28
2.74800	28
2.75167	28
2.75533	29
2.75900	30
2.76267	30
2.76633	31
2.77000	32
2.77367	32
2.77733	32
2.78100	33
2.78467	33
2.78833	33
2.79200	34
2.79567	33
2.79933	33
2.80300	33
2.80667	32
2.81033	31
2.81400	31
2.81767	31
2.82133	30
2.82500	30
2.82867	30
2.83233	30
2.83600	30
2.83967	30
2.84333	30
2.84700	30
2.85067	30
2.85433	30
2.85800	29
2.86167	26
2.86533	21
2.86900	14
2.87267	4
2.87633	-11
2.88000	-31
2.88367	-56
2.88733	-86
2.89100	-122
2.89467	-162
2.89833	-208
2.90200	-257
2.90567	-311
2.90933	-369
2.91300	-429
2.91667	-491
2.92033	-554
2.92400	-617
2.92767	-680
2.93133	-741
2.93500	-800
2.93867	-855
2.94233	-907
2.94600	-961
2.94967	-1015
2.95333	-1065
2.95700	-1099
2.96067	-1111
2.96433	-1097
2.96800	-1060
2.97167	-1003
2.97533	-933
2.97900	-856
2.98267	-774
2.98633	-693
2.99000	-615
2.99367	-541
2.99733	-472
3.00100	-410
3.00467	-355
3.00833	-305
3.01200	-261
3.01567	-222
3.01933	-188
3.02300	-159
3.02667	-133
3.03033	-111
3.03400	-93
3.03767	-77
3.04133	-63
3.04500	-52
3.04867	-42
3.05233	-33
3.05600	-26
3.05967	-20
3.06333	-15
3.06700	-10
3.07067	-6
3.07433	-2
3.07800	1
3.08167	3
3.08533	5
3.08900	7
3.09267	9
3.09633	10
3.10000	12
3.10367	13
3.10733	14
3.11100	15
3.11467	15
3.11833	16
3.12200	17
3.12567	17
3.12933	18
3.13300	18
3.13667	19
3.14033	19
3.14400	19
3.14767	19
3.15133	20
3.15500	20
3.15867	20
3.16233	20
3.16600	20
3.16967	21
3.17333	21
3.17700	21
3.18067	21
3.18433	22
3.18800	22
3.19167	23
3.19533	23
3.19900	24
3.20267	24
3.20633	25
3.21000	25
3.21367	25
3.21733	26
3.22100	26
3.22467	27
3.22833	27
3.23200	27
3.23567	28
3.23933	28
3.24300	29
3.24667	29
3.25033	29
3.25400	30
3.25767	30
3.26133	30
3.26500	30
3.26867	30
3.27233	30
3.27600	30
3.27967	30
3.28333	30
3.28700	30
3.29067	29
3.29433	30
3.29800	30
3.30167	30
3.30533	30
3.30900	30
3.31267	30
3.31633	30
3.32000	30
3.32367	30
3.32733	29
3.33100	29
3.33467	29
3.33833	29
3.34200	29
3.34567	30
3.34933	30
3.35300	30
3.35667	30
3.36033	30
3.36400	30
3.36767	30
3.37133	30
3.37500	30
3.37867	30
3.38233	29
3.38600	29
3.38967	29
3.39333	29
3.39700	29
3.40067	29
3.40433	30
3.40800	30
3.41167	30
3.41533	30
3.41900	30
3.42267	30
3.42633	30
3.43000	30
3.43367	30
3.43733	30
3.44100	30
3.44467	30
3.44833	30
3.45200	30
3.45567	30
3.45933	30
3.46300	30
3.46667	30
3.47033	30
3.47400	29
3.47767	29
3.48133	29
3.48500	29
3.48867	29
3.49233	29
3.49600	29
3.49967	29
3.50333	29
3.50700	29
3.51067	29
3.51433	29
3.51800	30
3.52167	30
3.52533	30
3.52900	29
3.53267	29
3.53633	29
3.54000	29
3.54367	29
3.54733	29
3.55100	29
3.55467	29
3.55833	29
3.56200	29
3.56567	29
3.56933	29
3.57300	30
3.57667	30
3.58033	31
3.58400	31
3.58767	31
3.59133	31
3.59500	32
3.59867	32
3.60233	31
3.60600	31
3.60967	31
3.61333	31
3.61700	31
3.62067	31
3.62433	31
3.62800	31
3.63167	31
3.63533	31
3.63900	31
3.64267	31
3.64633	31
3.65000	31
3.65367	31
3.65733	31
3.66100	31
3.66467	31
3.66833	31
3.67200	31
3.67567	31
3.67933	31
3.68300	31
3.68667	31
3.69033	31
3.69400	31
3.69767	31
3.70133	31
3.70500	32
3.70867	32
3.71233	32
3.71600	32
3.71967	32
3.72333	32
3.72700	33
3.73067	33
3.73433	33
3.73800	33
3.74167	33
3.74533	33
3.74900	34
3.75267	34
3.75633	34
3.76000	34
3.76367	34
3.76733	33
3.77100	33
3.77467	33
3.77833	33
3.78200	33
3.78567	33
3.78933	33
3.79300	33
3.79667	32
3.80033	32
3.80400	32
3.80767	31
3.81133	31
3.81500	30
3.81867	30
3.82233	30
3.82600	30
3.82967	30
3.83333	30
3.83700	29
3.84067	29
3.84433	29
3.84800	30
3.85167	30
3.85533	30
3.85900	30
3.86267	30
3.86633	30
3.87000	31
3.87367	31
3.87733	31
3.88100	31
3.88467	31
3.88833	31
3.89200	31
3.89567	31
3.89933	32
3.90300	32
3.90667	32
3.91033	32
3.91400	32
3.91767	32
3.92133	32
3.92500	32
3.92867	31
3.93233	31
3.93600	31
3.93967	31
3.94333	31
3.94700	31
3.95067	31
3.95433	31
3.95800	31
3.96167	31
3.96533	31
3.96900	31
3.97267	31
3.97633	31
3.98000	31
3.98367	31
3.98733	31
3.99100	31
3.99467	31
3.99833	31

[Chromatogram (Ch3)]
Interval(msec)	220
# of Points	1091
Start Time(min)	0.002
End Time(min)	3.998
R.Time (min)	Intensity
0.00167	-1
0.00533	-1
0.00900	-2
0.01267	-1
0.01633	0
0.02000	1
0.02367	1
0.02733	1
0.03100	0
0.03467	1
0.03833	1
0.04200	2
0.04567	1
0.04933	-0
0.05300	2
0.05667	3
0.06033	6
0.06400	8
0.06767	7
0.07133	3
0.07500	1
0.07867	2
0.08233	2
0.08600	1
0.08967	0
0.09333	1
0.09700	3
0.10067	3
0.10433	1
0.10800	1
0.11167	0
0.11533	-1
0.11900	0
0.12267	2
0.12633	3
0.13000	5
0.13367	5
0.13733	4
0.14100	3
0.14467	2
0.14833	2
0.15200	3
0.15567	4
0.15933	6
0.16300	8
0.16667	6
0.17033	6
0.17400	5
0.17767	5
0.18133	5
0.18500	5
0.18867	6
0.19233	9
0.19600	10
0.19967	9
0.20333	8
0.20700	6
0.21067	6
0.21433	6
0.21800	6
0.22167	5
0.22533	3
0.22900	3
0.23267	2
0.23633	3
0.24000	3
0.24367	4
0.24733	2
0.25100	2
0.25467	3
0.25833	3
0.26200	3
0.26567	6
0.26933	5
0.27300	3
0.27667	1
0.28033	-1
0.28400	1
0.28767	2
0.29133	2
0.29500	3
0.29867	2
0.30233	1
0.30600	-2
0.30967	-1
0.31333	0
0.31700	-0
0.32067	-2
0.32433	-1
0.32800	1
0.33167	3
0.33533	4
0.33900	4
0.34267	3
0.34633	4
0.35000	5
0.35367	6
0.35733	4
0.36100	3
0.36467	3
0.36833	4
0.37200	3
0.37567	3
0.37933	3
0.38300	3
0.38667	2
0.39033	2
0.39400	3
0.39767	5
0.40133	6
0.40500	4
0.40867	4
0.41233	5
0.41600	7
0.41967	8
0.42333	9
0.42700	10
0.43067	7
0.43433	4
0.43800	2
0.44167	2
0.44533	6
0.44900	6
0.45267	6
0.45633	7
0.46000	8
0.46367	8
0.46733	7
0.47100	6
0.47467	6
0.47833	5
0.48200	5
0.48567	6
0.48933	8
0.49300	9
0.49667	7
0.50033	7
0.50400	9
0.50767	9
0.51133	10
0.51500	10
0.51867	9
0.52233	8
0.52600	8
0.52967	8
0.53333	10
0.53700	9
0.54067	10
0.54433	9
0.54800	10
0.55167	10
0.55533	11
0.55900	12
0.56267	10
0.56633	9
0.57000	11
0.57367	14
0.57733	16
0.58100	17
0.58467	17
0.58833	17
0.59200	18
0.59567	18
0.59933	19
0.60300	18
0.60667	17
0.61033	15
0.61400	14
0.61767	14
0.62133	16
0.62500	18
0.62867	17
0.63233	15
0.63600	13
0.63967	13
0.64333	12
0.64700	12
0.65067	13
0.65433	13
0.65800	14
0.66167	13
0.66533	11
0.66900	9
0.67267	8
0.67633	8
0.68000	10
0.68367	13
0.68733	15
0.69100	17
0.69467	19
0.69833	20
0.70200	18
0.70567	16
0.70933	14
0.71300	13
0.71667	13
0.72033	15
0.72400	15
0.72767	14
0.73133	11
0.73500	12
0.73867	14
0.74233	17
0.74600	17
0.74967	17
0.75333	16
0.75700	16
0.76067	15
0.76433	16
0.76800	17
0.77167	19
0.77533	19
0.77900	17
0.78267	17
0.78633	19
0.79000	21
0.79367	20
0.79733	21
0.80100	18
0.80467	16
0.80833	14
0.81200	14
0.81567	16
0.81933	15
0.82300	15
0.82667	14
0.83033	13
0.83400	13
0.83767	12
0.84133	12
0.84500	14
0.84867	17
0.85233	17
0.85600	16
0.85967	16
0.86333	14
0.86700	12
0.87067	11
0.87433	13
0.87800	14
0.88167	15
0.88533	18
0.88900	19
0.89267	18
0.89633	16
0.90000	14
0.90367	13
0.90733	12
0.91100	10
0.91467	10
0.91833	12
0.92200	13
0.92567	12
0.92933	12
0.93300	14
0.93667	15
0.94033	15
0.94400	14
0.94767	14
0.95133	16
0.95500	18
0.95867	20
0.96233	22
0.96600	23
0.96967	23
0.97333	21
0.97700	20
0.98067	21
0.98433	21
0.98800	18
0.99167	17
0.99533	17
0.99900	17
1.00267	18
1.00633	17
1.01000	16
1.01367	14
1.01733	14
1.02100	15
1.02467	17
1.02833	16
1.03200	14
1.03567	11
1.03933	9
1.04300	9
1.04667	11
1.05033	13
1.05400	17
1.05767	18
1.06133	16
1.06500	16
1.06867	16
1.07233	17
1.07600	18
1.07967	18
1.08333	17
1.08700	17
1.09067	17
1.09433	18
1.09800	18
1.10167	20
1.10533	21
1.10900	21
1.11267	19
1.11633	18
1.12000	19
1.12367	19
1.12733	18
1.13100	19
1.13467	22
1.13833	23
1.14200	23
1.14567	23
1.14933	24
1.15300	23
1.15667	22
1.16033	21
1.16400	21
1.16767	21
1.17133	19
1.17500	19
1.17867	20
1.18233	18
1.18600	15
1.18967	14
1.19333	14
1.19700	15
1.20067	15
1.20433	14
1.20800	16
1.21167	17
1.21533	19
1.21900	20
1.22267	20
1.22633	20
1.23000	20
1.23367	19
1.23733	19
1.24100	21
1.24467	22
1.24833	21
1.25200	21
1.25567	23
1.25933	24
1.26300	24
1.26667	23
1.27033	22
1.27400	20
1.27767	19
1.28133	19
1.28500	20
1.28867	21
1.29233	22
1.29600	25
1.29967	28
1.30333	28
1.30700	28
1.31067	30
1.31433	29
1.31800	26
1.32167	23
1.32533	21
1.32900	19
1.33267	18
1.33633	19
1.34000	22
1.34367	23
1.34733	22
1.35100	23
1.35467	23
1.35833	24
1.36200	24
1.36567	23
1.36933	22
1.37300	21
1.37667	20
1.38033	20
1.38400	20
1.38767	21
1.39133	22
1.39500	24
1.39867	24
1.40233	23
1.40600	21
1.40967	21
1.41333	23
1.41700	24
1.42067	22
1.42433	21
1.42800	20
1.43167	19
1.43533	19
1.43900	20
1.44267	20
1.44633	22
1.45000	23
1.45367	21
1.45733	22
1.46100	22
1.46467	21
1.46833	22
1.47200	24
1.47567	24
1.47933	22
1.48300	20
1.48667	19
1.49033	19
1.49400	20
1.49767	21
1.50133	21
1.50500	20
1.50867	20
1.51233	20
1.51600	20
1.51967	18
1.52333	17
1.52700	16
1.53067	16
1.53433	15
1.53800	15
1.54167	16
1.54533	16
1.54900	18
1.55267	20
1.55633	21
1.56000	20
1.56367	20
1.56733	20
1.57100	19
1.57467	19
1.57833	20
1.58200	22
1.58567	23
1.58933	21
1.59300	19
1.59667	19
1.60033	22
1.60400	24
1.60767	24
1.61133	22
1.61500	20
1.61867	18
1.62233	18
1.62600	19
1.62967	19
1.63333	20
1.63700	21
1.64067	22
1.64433	23
1.64800	25
1.65167	28
1.65533	29
1.65900	31
1.66267	34
1.66633	33
1.67000	33
1.67367	34
1.67733	34
1.68100	31
1.68467	29
1.68833	29
1.69200	30
1.69567	31
1.69933	32
1.70300	31
1.70667	31
1.71033	30
1.71400	30
1.71767	30
1.72133	30
1.72500	33
1.72867	34
1.73233	36
1.73600	35
1.73967	36
1.74333	35
1.74700	33
1.75067	32
1.75433	33
1.75800	34
1.76167	36
1.76533	39
1.76900	40
1.77267	40
1.77633	39
1.78000	37
1.78367	36
1.78733	37
1.79100	36
1.79467	37
1.79833	39
1.80200	42
1.80567	43
1.80933	44
1.81300	44
1.81667	45
1.82033	46
1.82400	46
1.82767	47
1.83133	47
1.83500	47
1.83867	48
1.84233	49
1.84600	50
1.84967	51
1.85333	53
1.85700	53
1.86067	53
1.86433	53
1.86800	54
1.87167	56
1.87533	56
1.87900	56
1.88267	56
1.88633	56
1.89000	55
1.89367	53
1.89733	52
1.90100	51
1.90467	52
1.90833	55
1.91200	56
1.91567	56
1.91933	56
1.92300	58
1.92667	60
1.93033	61
1.93400	63
1.93767	65
1.94133	66
1.94500	66
1.94867	66
1.95233	66
1.95600	67
1.95967	68
1.96333	71
1.96700	74
1.97067	74
1.97433	73
1.97800	73
1.98167	73
1.98533	74
1.98900	75
1.99267	77
1.99633	80
2.00000	80
2.00367	81
2.00733	81
2.01100	83
2.01467	85
2.01833	86
2.02200	85
2.02567	85
2.02933	88
2.03300	89
2.03667	89
2.04033	90
2.04400	90
2.04767	89
2.05133	88
2.05500	88
2.05867	90
2.06233	94
2.06600	98
2.06967	98
2.07333	98
2.07700	97
2.08067	99
2.08433	100
2.08800	101
2.09167	102
2.09533	101
2.09900	104
2.10267	105
2.10633	104
2.11000	101
2.11367	101
2.11733	102
2.12100	104
2.12467	106
2.12833	108
2.13200	110
2.13567	111
2.13933	110
2.14300	109
2.14667	110
2.15033	111
2.15400	112
2.15767	113
2.16133	114
2.16500	115
2.16867	112
2.17233	111
2.17600	112
2.17967	114
2.18333	115
2.18700	116
2.19067	118
2.19433	120
2.19800	120
2.20167	121
2.20533	122
2.20900	123
2.21267	123
2.21633	120
2.22000	120
2.22367	120
2.22733	121
2.23100	124
2.23467	126
2.23833	127
2.24200	126
2.24567	124
2.24933	126
2.25300	129
2.25667	130
2.26033	131
2.26400	130
2.26767	127
2.27133	126
2.27500	126
2.27867	126
2.28233	128
2.28600	128
2.28967	128
2.29333	131
2.29700	135
2.30067	138
2.30433	139
2.30800	139
2.31167	141
2.31533	141
2.31900	139
2.32267	137
2.32633	140
2.33000	144
2.33367	146
2.33733	147
2.34100	147
2.34467	145
2.34833	142
2.35200	139
2.35567	140
2.35933	142
2.36300	142
2.36667	143
2.37033	142
2.37400	140
2.37767	140
2.38133	141
2.38500	143
2.38867	140
2.39233	137
2.39600	136
2.39967	138
2.40333	143
2.40700	148
2.41067	151
2.41433	154
2.41800	156
2.42167	156
2.42533	156
2.42900	157
2.43267	159
2.43633	159
2.44000	167
2.44367	231
2.44733	344
2.45100	449
2.45467	527
2.45833	566
2.46200	564
2.46567	544
2.46933	522
2.47300	506
2.47667	494
2.48033	474
2.48400	443
2.48767	408
2.49133	373
2.49500	343
2.49867	321
2.50233	309
2.50600	306
2.50967	310
2.51333	320
2.51700	331
2.52067	341
2.52433	345
2.52800	344
2.53167	334
2.53533	317
2.53900	297
2.54267	278
2.54633	258
2.55000	242
2.55367	229
2.55733	218
2.56100	211
2.56467	207
2.56833	204
2.57200	202
2.57567	201
2.57933	200
2.58300	201
2.58667	205
2.59033	210
2.59400	215
2.59767	223
2.60133	235
2.60500	246
2.60867	257
2.61233	268
2.61600	277
2.61967	284
2.62333	290
2.62700	291
2.63067	288
2.63433	284
2.63800	277
2.64167	265
2.64533	252
2.64900	239
2.65267	227
2.65633	215
2.66000	202
2.66367	190
2.66733	182
2.67100	175
2.67467	168
2.67833	163
2.68200	157
2.68567	153
2.68933	150
2.69300	149
2.69667	159
2.70033	185
2.70400	226
2.70767	277
2.71133	331
2.71500	382
2.71867	433
2.72233	485
2.72600	533
2.72967	578
2.73333	618
2.73700	654
2.74067	684
2.74433	708
2.74800	728
2.75167	747
2.75533	766
2.75900	785
2.76267	802
2.76633	820
2.77000	837
2.77367	857
2.77733	876
2.78100	891
2.78467	905
2.78833	918
2.79200	928
2.79567	938
2.79933	944
2.80300	947
2.80667	949
2.81033	947
2.81400	942
2.81767	935
2.82133	926
2.82500	916
2.82867	909
2.83233	905
2.83600	912
2.83967	938
2.84333	1000
2.84700	1124
2.85067	1335
2.85433	1650
2.85800	2072
2.86167	2589
2.86533	3172
2.86900	3779
2.87267	4361
2.87633	4867
2.88000	5254
2.88367	5498
2.88733	5592
2.89100	5549
2.89467	5389
2.89833	5136
2.90200	4825
2.90567	4480
2.90933	4124
2.91300	3774
2.91667	3440
2.92033	3126
2.92400	2837
2.92767	2574
2.93133	2339
2.93500	2130
2.93867	1946
2.94233	1783
2.94600	1639
2.94967	1513
2.95333	1405
2.95700	1314
2.96067	1237
2.96433	1167
2.96800	1108
2.97167	1056
2.97533	1012
2.97900	974
2.98267	943
2.98633	919
2.99000	899
2.99367	878
2.99733	861
3.00100	848
3.00467	837
3.00833	827
3.01200	817
3.01567	811
3.01933	806
3.02300	801
3.02667	797
3.03033	793
3.03400	794
3.03767	797
3.04133	796
3.04500	794
3.04867	794
3.05233	796
3.05600	797
3.05967	796
3.06333	797
3.06700	799
3.07067	800
3.07433	802
3.07800	805
3.08167	809
3.08533	814
3.08900	817
3.09267	816
3.09633	817
3.10000	818
3.10367	819
3.10733	821
3.11100	823
3.11467	828
3.11833	830
3.12200	832
3.12567	832
3.12933	832
3.13300	831
3.13667	833
3.14033	836
3.14400	838
3.14767	839
3.15133	840
3.15500	843
3.15867	845
3.16233	844
3.16600	842
3.16967	839
3.17333	836
3.17700	835
3.18067	835
3.18433	835
3.18800	834
3.19167	831
3.19533	828
3.19900	826
3.20267	825
3.20633	824
3.21000	821
3.21367	819
3.21733	819
3.22100	818
3.22467	817
3.22833	817
3.23200	817
3.23567	817
3.23933	816
3.24300	815
3.24667	815
3.25033	812
3.25400	808
3.25767	805
3.26133	803
3.26500	801
3.26867	802
3.27233	801
3.27600	800
3.27967	799
3.28333	798
3.28700	799
3.29067	799
3.29433	797
3.29800	794
3.30167	792
3.30533	793
3.30900	792
3.31267	792
3.31633	790
3.32000	789
3.32367	788
3.32733	784
3.33100	781
3.33467	780
3.33833	779
3.34200	780
3.34567	779
3.34933	778
3.35300	776
3.35667	774
3.36033	773
3.36400	772
3.36767	771
3.37133	767
3.37500	766
3.37867	764
3.38233	761
3.38600	759
3.38967	758
3.39333	756
3.39700	754
3.40067	753
3.40433	753
3.40800	752
3.41167	750
3.41533	747
3.41900	745
3.42267	742
3.42633	741
3.43000	740
3.43367	738
3.43733	735
3.44100	733
3.44467	730
3.44833	727
3.45200	726
3.45567	726
3.45933	726
3.46300	725
3.46667	722
3.47033	718
3.47400	714
3.47767	714
3.48133	712
3.48500	710
3.48867	706
3.49233	702
3.49600	698
3.49967	698
3.50333	696
3.50700	696
3.51067	693
3.51433	691
3.51800	691
3.52167	690
3.52533	687
3.52900	683
3.53267	682
3.53633	680
3.54000	679
3.54367	677
3.54733	672
3.55100	670
3.55467	671
3.55833	672
3.56200	669
3.56567	665
3.56933	662
3.57300	658
3.57667	657
3.58033	656
3.58400	653
3.58767	652
3.59133	652
3.59500	651
3.59867	649
3.60233	648
3.60600	647
3.60967	647
3.61333	645
3.61700	643
3.62067	641
3.62433	639
3.62800	637
3.63167	636
3.63533	634
3.63900	632
3.64267	632
3.64633	630
3.65000	627
3.65367	626
3.65733	623
3.66100	623
3.66467	624
3.66833	626
3.67200	624
3.67567	622
3.67933	620
3.68300	618
3.68667	616
3.69033	614
3.69400	612
3.69767	610
3.70133	610
3.70500	610
3.70867	609
3.71233	606
3.71600	603
3.71967	599
3.72333	595
3.72700	595
3.73067	594
3.73433	595
3.73800	595
3.74167	596
3.74533	594
3.74900	592
3.75267	593
3.75633	592
3.76000	591
3.76367	591
3.76733	590
3.77100	589
3.77467	586
3.77833	584
3.78200	582
3.78567	582
3.78933	583
3.79300	581
3.79667	581
3.80033	582
3.80400	583
3.80767	583
3.81133	582
3.81500	581
3.81867	581
3.82233	581
3.82600	580
3.82967	582
3.83333	581
3.83700	579
3.84067	578
3.84433	577
3.84800	577
3.85167	576
3.85533	577
3.85900	576
3.86267	574
3.86633	573
3.87000	570
3.87367	567
3.87733	563
3.88100	560
3.88467	558
3.88833	556
3.89200	554
3.89567	554
3.89933	552
3.90300	552
3.90667	551
3.91033	550
3.91400	550
3.91767	550
3.92133	550
3.92500	549
3.92867	544
3.93233	540
3.93600	538
3.93967	538
3.94333	535
3.94700	535
3.95067	537
3.95433	536
3.95800	533
3.96167	530
3.96533	528
3.96900	526
3.97267	524
3.97633	523
3.98000	524
3.98367	524
3.98733	523
3.99100	521
3.99467	519
3.99833	514

[Status Trace (Column Oven Temperature)]
Interval(msec)	1000
# of Points	240
Start Time(min)	0.002
End Time(min)	3.985
Intensity Units	
Intensity Multiplier	1
R.Time (min)	Intensity
0.00182	35.07
0.01848	35.07
0.03515	35.05
0.05182	35.04
0.06848	35.03
0.08515	35.02
0.10182	35.02
0.11848	35.02
0.13515	35.01
0.15182	35.01
0.16848	35.01
0.18515	35.01
0.20182	35.02
0.21848	35.02
0.23515	35.02
0.25182	35.03
0.26848	35.04
0.28515	35.04
0.30182	35.04
0.31848	35.02
0.33515	35.01
0.35182	35.00
0.36848	34.99
0.38515	34.98
0.40182	34.98
0.41848	34.99
0.43515	35.00
0.45182	35.00
0.46848	34.99
0.48515	34.98
0.50182	34.98
0.51848	34.99
0.53515	34.99
0.55182	34.99
0.56848	34.98
0.58515	34.98
0.60182	34.99
0.61848	34.99
0.63515	35.00
0.65182	35.02
0.66848	35.02
0.68515	35.01
0.70182	35.02
0.71848	35.03
0.73515	35.04
0.75182	35.04
0.76848	35.05
0.78515	35.04
0.80182	35.02
0.81848	35.02
0.83515	35.00
0.85182	34.99
0.86848	34.99
0.88515	35.00
0.90182	35.00
0.91848	34.99
0.93515	34.98
0.95182	34.98
0.96848	34.99
0.98515	35.00
1.00182	35.00
1.01848	35.01
1.03515	35.00
1.05182	35.00
1.06848	34.99
1.08515	34.98
1.10182	34.98
1.11848	35.00
1.13515	35.01
1.15182	35.00
1.16848	35.01
1.18515	35.01
1.20182	35.01
1.21848	35.01
1.23515	35.01
1.25182	35.00
1.26848	34.99
1.28515	34.99
1.30182	35.01
1.31848	35.02
1.33515	35.01
1.35182	35.02
1.36848	35.01
1.38515	35.02
1.40182	35.02
1.41848	35.01
1.43515	35.01
1.45182	35.00
1.46848	35.00
1.48515	35.01
1.50182	35.01
1.51848	35.02
1.53515	35.02
1.55182	35.01
1.56848	35.00
1.58515	34.99
1.60182	35.01
1.61848	35.10
1.63515	35.24
1.65182	35.46
1.66848	35.79
1.68515	36.15
1.70182	36.50
1.71848	36.85
1.73515	37.20
1.75182	37.53
1.76848	37.86
1.78515	38.18
1.80182	38.52
1.81848	38.85
1.83515	39.20
1.85182	39.51
1.86848	39.84
1.88515	40.16
1.90182	40.49
1.91848	40.81
1.93515	41.13
1.95182	41.46
1.96848	41.79
1.98515	42.11
2.00182	42.44
2.01848	42.75
2.03515	43.10
2.05182	43.42
2.06848	43.73
2.08515	44.08
2.10182	44.40
2.11848	44.72
2.13515	45.05
2.15182	45.39
2.16848	45.71
2.18515	46.03
2.20182	46.37
2.21848	46.68
2.23515	47.02
2.25182	47.37
2.26848	47.69
2.28515	48.02
2.30182	48.36
2.31848	48.68
2.33515	49.01
2.35182	49.33
2.36848	49.59
2.38515	49.72
2.40182	49.74
2.41848	49.73
2.43515	49.75
2.45182	49.73
2.46848	49.75
2.48515	49.76
2.50182	49.77
2.51848	49.78
2.53515	49.78
2.55182	49.80
2.56848	49.80
2.58515	49.81
2.60182	49.82
2.61848	49.84
2.63515	49.84
2.65182	49.85
2.66848	49.84
2.68515	49.85
2.70182	49.85
2.71848	49.87
2.73515	49.88
2.75182	49.87
2.76848	49.85
2.78515	49.84
2.80182	49.86
2.81848	49.88
2.83515	49.89
2.85182	49.90
2.86848	49.90
2.88515	49.91
2.90182	49.92
2.91848	49.93
2.93515	49.94
2.95182	49.95
2.96848	49.95
2.98515	49.96
3.00182	49.96
3.01848	49.96
3.03515	49.98
3.05182	49.99
3.06848	50.00
3.08515	50.02
3.10182	50.03
3.11848	50.04
3.13515	50.05
3.15182	50.08
3.16848	50.09
3.18515	50.10
3.20182	50.10
3.21848	50.09
3.23515	50.07
3.25182	50.06
3.26848	50.05
3.28515	50.04
3.30182	50.04
3.31848	50.05
3.33515	50.06
3.35182	50.05
3.36848	50.05
3.38515	50.06
3.40182	50.06
3.41848	50.06
3.43515	50.06
3.45182	50.07
3.46848	50.08
3.48515	50.08
3.50182	50.08
3.51848	50.08
3.53515	50.09
3.55182	50.10
3.56848	50.10
3.58515	50.09
3.60182	50.09
3.61848	50.09
3.63515	50.09
3.65182	50.09
3.66848	50.10
3.68515	50.10
3.70182	50.09
3.71848	50.07
3.73515	50.07
3.75182	50.05
3.76848	50.04
3.78515	50.03
3.80182	50.04
3.81848	50.05
3.83515	50.06
3.85182	50.06
3.86848	50.06
3.88515	50.05
3.90182	50.04
3.91848	50.04
3.93515	50.05
3.95182	50.05
3.96848	50.05
3.98515	50.05

[Status Trace (Injection Unit Temperature)]
Interval(msec)	1000
# of Points	240
Start Time(min)	0.002
End Time(min)	3.985
Intensity Units	
Intensity Multiplier	1
R.Time (min)	Intensity
0.00182	99.98
0.01848	99.98
0.03515	99.98
0.05182	99.98
0.06848	99.98
0.08515	99.98
0.10182	99.98
0.11848	99.98
0.13515	99.98
0.15182	99.98
0.16848	99.98
0.18515	99.98
0.20182	99.98
0.21848	99.98
0.23515	99.98
0.25182	99.98
0.26848	99.98
0.28515	99.98
0.30182	99.98
0.31848	99.98
0.33515	99.98
0.35182	99.98
0.36848	99.98
0.38515	99.98
0.40182	99.98
0.41848	99.98
0.43515	99.98
0.45182	99.98
0.46848	99.98
0.48515	99.98
0.50182	99.99
0.51848	99.98
0.53515	99.98
0.55182	99.98
0.56848	99.98
0.58515	99.98
0.60182	99.98
0.61848	99.98
0.63515	99.98
0.65182	99.99
0.66848	99.98
0.68515	99.98
0.70182	99.98
0.71848	99.99
0.73515	99.99
0.75182	99.98
0.76848	99.99
0.78515	99.99
0.80182	99.98
0.81848	99.99
0.83515	99.99
0.85182	99.98
0.86848	99.98
0.88515	99.98
0.90182	99.98
0.91848	99.98
0.93515	99.99
0.95182	99.99
0.96848	99.99
0.98515	99.98
1.00182	99.99
1.01848	99.98
1.03515	99.98
1.05182	99.99
1.06848	99.99
1.08515	99.98
1.10182	99.99
1.11848	99.99
1.13515	99.98
1.15182	99.99
1.16848	99.99
1.18515	99.99
1.20182	99.99
1.21848	99.99
1.23515	99.99
1.25182	99.99
1.26848	99.98
1.28515	99.98
1.30182	99.99
1.31848	99.99
1.33515	99.98
1.35182	99.98
1.36848	99.99
1.38515	99.99
1.40182	99.98
1.41848	99.99
1.43515	99.98
1.45182	99.99
1.46848	99.99
1.48515	99.99
1.50182	99.98
1.51848	99.99
1.53515	99.99
1.55182	99.98
1.56848	99.99
1.58515	99.99
1.60182	99.99
1.61848	99.98
1.63515	99.99
1.65182	99.98
1.66848	99.99
1.68515	99.99
1.70182	99.98
1.71848	99.98
1.73515	99.99
1.75182	99.98
1.76848	99.98
1.78515	99.98
1.80182	99.98
1.81848	99.98
1.83515	99.98
1.85182	99.98
1.86848	99.98
1.88515	99.98
1.90182	99.98
1.91848	99.98
1.93515	99.97
1.95182	99.97
1.96848	99.97
1.98515	99.97
2.00182	99.97
2.01848	99.97
2.03515	99.97
2.05182	99.97
2.06848	99.97
2.08515	99.96
2.10182	99.96
2.11848	99.96
2.13515	99.97
2.15182	99.96
2.16848	99.96
2.18515	99.96
2.20182	99.96
2.21848	99.96
2.23515	99.96
2.25182	99.96
2.26848	99.96
2.28515	99.96
2.30182	99.96
2.31848	99.96
2.33515	99.96
2.35182	99.96
2.36848	99.96
2.38515	99.96
2.40182	99.97
2.41848	99.97
2.43515	99.97
2.45182	99.97
2.46848	99.97
2.48515	99.97
2.50182	99.97
2.51848	99.97
2.53515	99.97
2.55182	99.98
2.56848	99.98
2.58515	99.98
2.60182	99.98
2.61848	99.98
2.63515	99.98
2.65182	99.99
2.66848	99.98
2.68515	99.99
2.70182	99.99
2.71848	99.99
2.73515	99.99
2.75182	99.99
2.76848	99.99
2.78515	100.00
2.80182	100.00
2.81848	100.00
2.83515	100.00
2.85182	100.00
2.86848	100.00
2.88515	100.01
2.90182	100.00
2.91848	100.01
2.93515	100.01
2.95182	100.01
2.96848	100.02
2.98515	100.01
3.00182	100.02
3.01848	100.02
3.03515	100.02
3.05182	100.02
3.06848	100.02
3.08515	100.02
3.10182	100.03
3.11848	100.03
3.13515	100.03
3.15182	100.03
3.16848	100.03
3.18515	100.03
3.20182	100.03
3.21848	100.04
3.23515	100.04
3.25182	100.04
3.26848	100.04
3.28515	100.04
3.30182	100.04
3.31848	100.04
3.33515	100.04
3.35182	100.04
3.36848	100.05
3.38515	100.05
3.40182	100.04
3.41848	100.05
3.43515	100.05
3.45182	100.05
3.46848	100.05
3.48515	100.05
3.50182	100.05
3.51848	100.05
3.53515	100.05
3.55182	100.05
3.56848	100.05
3.58515	100.05
3.60182	100.05
3.61848	100.05
3.63515	100.05
3.65182	100.05
3.66848	100.05
3.68515	100.05
3.70182	100.05
3.71848	100.05
3.73515	100.05
3.75182	100.05
3.76848	100.05
3.78515	100.05
3.80182	100.05
3.81848	100.05
3.83515	100.05
3.85182	100.05
3.86848	100.05
3.88515	100.05
3.90182	100.05
3.91848	100.05
3.93515	100.05
3.95182	100.05
3.96848	100.05
3.98515	100.05

[Status Trace (Carrier Gas Pressure)]
Interval(msec)	1000
# of Points	240
Start Time(min)	0.002
End Time(min)	3.985
Intensity Units	
Intensity Multiplier	1
R.Time (min)	Intensity
0.00182	58.00
0.01848	56.33
0.03515	56.13
0.05182	58.46
0.06848	59.90
0.08515	58.40
0.10182	57.97
0.11848	58.00
0.13515	58.01
0.15182	58.01
0.16848	58.00
0.18515	58.00
0.20182	58.00
0.21848	58.00
0.23515	58.00
0.25182	58.00
0.26848	58.00
0.28515	58.00
0.30182	58.00
0.31848	58.00
0.33515	58.00
0.35182	58.00
0.36848	58.00
0.38515	58.00
0.40182	58.00
0.41848	58.00
0.43515	58.00
0.45182	58.00
0.46848	58.00
0.48515	58.00
0.50182	58.00
0.51848	58.00
0.53515	58.00
0.55182	58.00
0.56848	58.00
0.58515	58.00
0.60182	58.00
0.61848	58.00
0.63515	58.00
0.65182	58.00
0.66848	58.00
0.68515	58.00
0.70182	58.00
0.71848	58.00
0.73515	58.00
0.75182	58.00
0.76848	58.00
0.78515	58.00
0.80182	58.00
0.81848	58.00
0.83515	58.00
0.85182	58.00
0.86848	58.00
0.88515	58.00
0.90182	58.00
0.91848	58.00
0.93515	58.00
0.95182	58.00
0.96848	58.00
0.98515	58.00
1.00182	58.00
1.01848	58.00
1.03515	58.00
1.05182	58.00
1.06848	58.00
1.08515	58.00
1.10182	58.00
1.11848	58.00
1.13515	58.00
1.15182	58.00
1.16848	58.00
1.18515	58.00
1.20182	58.00
1.21848	58.00
1.23515	58.00
1.25182	58.00
1.26848	58.00
1.28515	58.00
1.30182	58.00
1.31848	58.00
1.33515	58.00
1.35182	58.00
1.36848	58.00
1.38515	58.00
1.40182	58.00
1.41848	58.00
1.43515	58.00
1.45182	58.00
1.46848	58.00
1.48515	58.00
1.50182	58.00
1.51848	58.00
1.53515	58.00
1.55182	58.00
1.56848	58.00
1.58515	58.00
1.60182	58.00
1.61848	58.00
1.63515	58.00
1.65182	58.00
1.66848	58.01
1.68515	58.00
1.70182	58.00
1.71848	58.00
1.73515	58.00
1.75182	58.00
1.76848	58.00
1.78515	58.00
1.80182	58.00
1.81848	58.00
1.83515	58.00
1.85182	58.00
1.86848	58.00
1.88515	58.00
1.90182	58.00
1.91848	58.00
1.93515	58.00
1.95182	58.00
1.96848	58.00
1.98515	58.00
2.00182	58.00
2.01848	58.00
2.03515	58.00
2.05182	58.00
2.06848	58.00
2.08515	58.00
2.10182	58.00
2.11848	58.00
2.13515	58.00
2.15182	58.00
2.16848	58.00
2.18515	58.00
2.20182	58.00
2.21848	58.00
2.23515	58.00
2.25182	58.00
2.26848	58.00
2.28515	58.00
2.30182	58.00
2.31848	58.00
2.33515	58.00
2.35182	58.00
2.36848	58.00
2.38515	57.99
2.40182	57.99
2.41848	58.00
2.43515	58.00
2.45182	58.00
2.46848	58.00
2.48515	58.00
2.50182	58.00
2.51848	58.02
2.53515	57.99
2.55182	58.00
2.56848	58.00
2.58515	58.00
2.60182	58.00
2.61848	58.00
2.63515	58.00
2.65182	58.00
2.66848	58.00
2.68515	58.00
2.70182	58.00
2.71848	58.00
2.73515	58.00
2.75182	58.00
2.76848	58.00
2.78515	58.00
2.80182	58.00
2.81848	58.00
2.83515	58.00
2.85182	58.00
2.86848	58.00
2.88515	58.00
2.90182	58.00
2.91848	58.00
2.93515	58.00
2.95182	58.00
2.96848	58.00
2.98515	58.00
3.00182	58.00
3.01848	58.00
3.03515	58.00
3.05182	58.00
3.06848	58.00
3.08515	58.00
3.10182	58.00
3.11848	58.00
3.13515	58.00
3.15182	58.00
3.16848	58.00
3.18515	58.00
3.20182	58.00
3.21848	58.00
3.23515	58.00
3.25182	58.00
3.26848	58.00
3.28515	58.00
3.30182	58.00
3.31848	58.00
3.33515	58.00
3.35182	58.00
3.36848	58.00
3.38515	58.00
3.40182	58.00
3.41848	58.00
3.43515	58.00
3.45182	58.00
3.46848	58.00
3.48515	58.00
3.50182	58.00
3.51848	58.00
3.53515	58.00
3.55182	58.00
3.56848	58.00
3.58515	58.00
3.60182	58.00
3.61848	58.00
3.63515	58.00
3.65182	58.00
3.66848	58.00
3.68515	58.00
3.70182	58.00
3.71848	58.00
3.73515	58.00
3.75182	58.00
3.76848	58.00
3.78515	58.00
3.80182	58.00
3.81848	58.00
3.83515	58.00
3.85182	58.00
3.86848	58.00
3.88515	58.00
3.90182	58.00
3.91848	58.00
3.93515	58.00
3.95182	58.00
3.96848	58.00
3.98515	58.00

[Status Trace (Carrier Gas Flow)]
Interval(msec)	1000
# of Points	240
Start Time(min)	0.002
End Time(min)	3.985
Intensity Units	
Intensity Multiplier	1
R.Time (min)	Intensity
0.00182	34.52
0.01848	34.52
0.03515	34.54
0.05182	34.54
0.06848	34.49
0.08515	34.52
0.10182	34.52
0.11848	34.52
0.13515	34.52
0.15182	34.52
0.16848	34.52
0.18515	34.52
0.20182	34.52
0.21848	34.52
0.23515	34.52
0.25182	34.52
0.26848	34.52
0.28515	34.52
0.30182	34.52
0.31848	34.52
0.33515	34.52
0.35182	34.52
0.36848	34.52
0.38515	34.52
0.40182	34.52
0.41848	34.52
0.43515	34.52
0.45182	34.52
0.46848	34.52
0.48515	34.52
0.50182	34.52
0.51848	34.52
0.53515	34.52
0.55182	34.52
0.56848	34.52
0.58515	34.52
0.60182	34.52
0.61848	34.52
0.63515	34.52
0.65182	34.52
0.66848	34.52
0.68515	34.52
0.70182	34.52
0.71848	34.52
0.73515	34.51
0.75182	34.52
0.76848	34.52
0.78515	34.52
0.80182	34.52
0.81848	34.52
0.83515	34.52
0.85182	34.52
0.86848	34.52
0.88515	34.52
0.90182	34.52
0.91848	34.51
0.93515	34.52
0.95182	34.52
0.96848	34.52
0.98515	34.52
1.00182	34.52
1.01848	34.52
1.03515	34.51
1.05182	34.52
1.06848	34.52
1.08515	34.52
1.10182	34.51
1.11848	34.52
1.13515	34.52
1.15182	34.52
1.16848	34.51
1.18515	34.52
1.20182	34.51
1.21848	34.51
1.23515	34.52
1.25182	34.52
1.26848	34.52
1.28515	34.51
1.30182	34.52
1.31848	34.52
1.33515	34.51
1.35182	34.52
1.36848	34.52
1.38515	34.53
1.40182	34.52
1.41848	34.51
1.43515	34.53
1.45182	34.52
1.46848	34.52
1.48515	34.52
1.50182	34.52
1.51848	34.52
1.53515	34.51
1.55182	34.52
1.56848	34.52
1.58515	34.52
1.60182	34.51
1.61848	34.52
1.63515	34.52
1.65182	34.52
1.66848	34.52
1.68515	34.52
1.70182	34.52
1.71848	34.52
1.73515	34.51
1.75182	34.52
1.76848	34.52
1.78515	34.52
1.80182	34.52
1.81848	34.52
1.83515	34.52
1.85182	34.52
1.86848	34.52
1.88515	34.52
1.90182	34.52
1.91848	34.52
1.93515	34.52
1.95182	34.52
1.96848	34.52
1.98515	34.52
2.00182	34.52
2.01848	34.52
2.03515	34.52
2.05182	34.52
2.06848	34.51
2.08515	34.52
2.10182	34.52
2.11848	34.52
2.13515	34.52
2.15182	34.52
2.16848	34.52
2.18515	34.52
2.20182	34.52
2.21848	34.52
2.23515	34.51
2.25182	34.51
2.26848	34.52
2.28515	34.52
2.30182	34.52
2.31848	34.51
2.33515	34.52
2.35182	34.52
2.36848	34.52
2.38515	34.54
2.40182	34.52
2.41848	34.52
2.43515	34.52
2.45182	34.52
2.46848	34.52
2.48515	34.52
2.50182	34.53
2.51848	34.52
2.53515	34.52
2.55182	34.52
2.56848	34.52
2.58515	34.52
2.60182	34.52
2.61848	34.52
2.63515	34.51
2.65182	34.52
2.66848	34.52
2.68515	34.52
2.70182	34.52
2.71848	34.52
2.73515	34.52
2.75182	34.52
2.76848	34.52
2.78515	34.52
2.80182	34.52
2.81848	34.52
2.83515	34.52
2.85182	34.52
2.86848	34.52
2.88515	34.52
2.90182	34.52
2.91848	34.52
2.93515	34.52
2.95182	34.52
2.96848	34.52
2.98515	34.52
3.00182	34.51
3.01848	34.52
3.03515	34.52
3.05182	34.52
3.06848	34.52
3.08515	34.52
3.10182	34.52
3.11848	34.52
3.13515	34.52
3.15182	34.52
3.16848	34.52
3.18515	34.52
3.20182	34.52
3.21848	34.52
3.23515	34.51
3.25182	34.52
3.26848	34.52
3.28515	34.52
3.30182	34.52
3.31848	34.52
3.33515	34.52
3.35182	34.52
3.36848	34.52
3.38515	34.52
3.40182	34.52
3.41848	34.52
3.43515	34.52
3.45182	34.52
3.46848	34.52
3.48515	34.52
3.50182	34.52
3.51848	34.52
3.53515	34.52
3.55182	34.52
3.56848	34.52
3.58515	34.52
3.60182	34.52
3.61848	34.52
3.63515	34.52
3.65182	34.52
3.66848	34.52
3.68515	34.52
3.70182	34.52
3.71848	34.52
3.73515	34.51
3.75182	34.52
3.76848	34.52
3.78515	34.52
3.80182	34.51
3.81848	34.52
3.83515	34.52
3.85182	34.52
3.86848	34.51
3.88515	34.52
3.90182	34.52
3.91848	34.51
3.93515	34.52
3.95182	34.52
3.96848	34.52
3.98515	34.52

[Status Trace (Column Flow)]
Interval(msec)	1000
# of Points	240
Start Time(min)	0.002
End Time(min)	3.985
Intensity Units	
Intensity Multiplier	1
R.Time (min)	Intensity
0.00182	5.50
0.01848	5.30
0.03515	5.28
0.05182	5.55
0.06848	5.72
0.08515	5.54
0.10182	5.49
0.11848	5.50
0.13515	5.50
0.15182	5.50
0.16848	5.50
0.18515	5.50
0.20182	5.50
0.21848	5.50
0.23515	5.50
0.25182	5.50
0.26848	5.50
0.28515	5.50
0.30182	5.50
0.31848	5.50
0.33515	5.50
0.35182	5.50
0.36848	5.50
0.38515	5.50
0.40182	5.50
0.41848	5.50
0.43515	5.50
0.45182	5.50
0.46848	5.50
0.48515	5.50
0.50182	5.50
0.51848	5.50
0.53515	5.50
0.55182	5.50
0.56848	5.50
0.58515	5.50
0.60182	5.50
0.61848	5.50
0.63515	5.50
0.65182	5.50
0.66848	5.50
0.68515	5.50
0.70182	5.50
0.71848	5.50
0.73515	5.50
0.75182	5.50
0.76848	5.50
0.78515	5.50
0.80182	5.50
0.81848	5.50
0.83515	5.50
0.85182	5.50
0.86848	5.50
0.88515	5.50
0.90182	5.50
0.91848	5.50
0.93515	5.50
0.95182	5.50
0.96848	5.50
0.98515	5.50
1.00182	5.50
1.01848	5.50
1.03515	5.50
1.05182	5.50
1.06848	5.50
1.08515	5.50
1.10182	5.50
1.11848	5.50
1.13515	5.50
1.15182	5.50
1.16848	5.50
1.18515	5.50
1.20182	5.50
1.21848	5.50
1.23515	5.50
1.25182	5.50
1.26848	5.50
1.28515	5.50
1.30182	5.50
1.31848	5.50
1.33515	5.50
1.35182	5.50
1.36848	5.50
1.38515	5.50
1.40182	5.50
1.41848	5.50
1.43515	5.50
1.45182	5.50
1.46848	5.50
1.48515	5.50
1.50182	5.50
1.51848	5.50
1.53515	5.50
1.55182	5.50
1.56848	5.50
1.58515	5.50
1.60182	5.50
1.61848	5.50
1.63515	5.49
1.65182	5.48
1.66848	5.47
1.68515	5.46
1.70182	5.45
1.71848	5.44
1.73515	5.43
1.75182	5.42
1.76848	5.41
1.78515	5.40
1.80182	5.39
1.81848	5.38
1.83515	5.37
1.85182	5.36
1.86848	5.35
1.88515	5.34
1.90182	5.33
1.91848	5.32
1.93515	5.31
1.95182	5.30
1.96848	5.29
1.98515	5.28
2.00182	5.27
2.01848	5.26
2.03515	5.25
2.05182	5.24
2.06848	5.23
2.08515	5.22
2.10182	5.21
2.11848	5.21
2.13515	5.20
2.15182	5.19
2.16848	5.18
2.18515	5.17
2.20182	5.16
2.21848	5.15
2.23515	5.14
2.25182	5.13
2.26848	5.12
2.28515	5.11
2.30182	5.10
2.31848	5.09
2.33515	5.08
2.35182	5.08
2.36848	5.07
2.38515	5.06
2.40182	5.06
2.41848	5.06
2.43515	5.06
2.45182	5.06
2.46848	5.06
2.48515	5.06
2.50182	5.06
2.51848	5.07
2.53515	5.06
2.55182	5.06
2.56848	5.06
2.58515	5.06
2.60182	5.06
2.61848	5.06
2.63515	5.06
2.65182	5.06
2.66848	5.06
2.68515	5.06
2.70182	5.06
2.71848	5.06
2.73515	5.06
2.75182	5.06
2.76848	5.06
2.78515	5.06
2.80182	5.06
2.81848	5.06
2.83515	5.06
2.85182	5.06
2.86848	5.06
2.88515	5.06
2.90182	5.06
2.91848	5.06
2.93515	5.06
2.95182	5.06
2.96848	5.06
2.98515	5.06
3.00182	5.06
3.01848	5.06
3.03515	5.06
3.05182	5.06
3.06848	5.06
3.08515	5.06
3.10182	5.06
3.11848	5.06
3.13515	5.06
3.15182	5.05
3.16848	5.05
3.18515	5.05
3.20182	5.05
3.21848	5.05
3.23515	5.05
3.25182	5.05
3.26848	5.06
3.28515	5.06
3.30182	5.06
3.31848	5.05
3.33515	5.05
3.35182	5.05
3.36848	5.05
3.38515	5.05
3.40182	5.05
3.41848	5.05
3.43515	5.05
3.45182	5.05
3.46848	5.05
3.48515	5.05
3.50182	5.05
3.51848	5.05
3.53515	5.05
3.55182	5.05
3.56848	5.05
3.58515	5.05
3.60182	5.05
3.61848	5.05
3.63515	5.05
3.65182	5.05
3.66848	5.05
3.68515	5.05
3.70182	5.05
3.71848	5.05
3.73515	5.05
3.75182	5.06
3.76848	5.06
3.78515	5.06
3.80182	5.06
3.81848	5.06
3.83515	5.05
3.85182	5.05
3.86848	5.05
3.88515	5.06
3.90182	5.06
3.91848	5.06
3.93515	5.06
3.95182	5.06
3.96848	5.06
3.98515	5.06

[Status Trace (Linear Velocity)]
Interval(msec)	1000
# of Points	240
Start Time(min)	0.002
End Time(min)	3.985
Intensity Units	
Intensity Multiplier	1
R.Time (min)	Intensity
0.00182	39.00
0.01848	37.91
0.03515	37.78
0.05182	39.31
0.06848	40.25
0.08515	39.27
0.10182	38.99
0.11848	39.01
0.13515	39.02
0.15182	39.01
0.16848	39.01
0.18515	39.01
0.20182	39.01
0.21848	39.01
0.23515	39.01
0.25182	39.01
0.26848	39.01
0.28515	39.01
0.30182	39.01
0.31848	39.01
0.33515	39.01
0.35182	39.01
0.36848	39.01
0.38515	39.01
0.40182	39.01
0.41848	39.01
0.43515	39.01
0.45182	39.01
0.46848	39.01
0.48515	39.01
0.50182	39.01
0.51848	39.01
0.53515	39.01
0.55182	39.01
0.56848	39.01
0.58515	39.01
0.60182	39.01
0.61848	39.01
0.63515	39.01
0.65182	39.01
0.66848	39.01
0.68515	39.01
0.70182	39.01
0.71848	39.01
0.73515	39.01
0.75182	39.01
0.76848	39.01
0.78515	39.01
0.80182	39.01
0.81848	39.01
0.83515	39.01
0.85182	39.01
0.86848	39.01
0.88515	39.01
0.90182	39.01
0.91848	39.01
0.93515	39.01
0.95182	39.01
0.96848	39.01
0.98515	39.01
1.00182	39.01
1.01848	39.01
1.03515	39.01
1.05182	39.01
1.06848	39.01
1.08515	39.01
1.10182	39.01
1.11848	39.01
1.13515	39.01
1.15182	39.01
1.16848	39.01
1.18515	39.01
1.20182	39.01
1.21848	39.01
1.23515	39.01
1.25182	39.01
1.26848	39.01
1.28515	39.01
1.30182	39.01
1.31848	39.01
1.33515	39.01
1.35182	39.01
1.36848	39.01
1.38515	39.01
1.40182	39.01
1.41848	39.01
1.43515	39.01
1.45182	39.01
1.46848	39.01
1.48515	39.01
1.50182	39.01
1.51848	39.01
1.53515	39.01
1.55182	39.01
1.56848	39.01
1.58515	39.01
1.60182	39.01
1.61848	39.00
1.63515	38.99
1.65182	38.97
1.66848	38.94
1.68515	38.90
1.70182	38.87
1.71848	38.83
1.73515	38.80
1.75182	38.77
1.76848	38.74
1.78515	38.71
1.80182	38.68
1.81848	38.64
1.83515	38.61
1.85182	38.58
1.86848	38.55
1.88515	38.52
1.90182	38.49
1.91848	38.46
1.93515	38.43
1.95182	38.40
1.96848	38.37
1.98515	38.34
2.00182	38.31
2.01848	38.28
2.03515	38.25
2.05182	38.22
2.06848	38.19
2.08515	38.16
2.10182	38.13
2.11848	38.10
2.13515	38.07
2.15182	38.04
2.16848	38.01
2.18515	37.98
2.20182	37.95
2.21848	37.92
2.23515	37.89
2.25182	37.86
2.26848	37.83
2.28515	37.80
2.30182	37.77
2.31848	37.74
2.33515	37.71
2.35182	37.69
2.36848	37.66
2.38515	37.65
2.40182	37.65
2.41848	37.65
2.43515	37.65
2.45182	37.65
2.46848	37.65
2.48515	37.65
2.50182	37.65
2.51848	37.66
2.53515	37.64
2.55182	37.65
2.56848	37.64
2.58515	37.64
2.60182	37.64
2.61848	37.64
2.63515	37.64
2.65182	37.64
2.66848	37.64
2.68515	37.64
2.70182	37.64
2.71848	37.64
2.73515	37.64
2.75182	37.64
2.76848	37.64
2.78515	37.64
2.80182	37.64
2.81848	37.64
2.83515	37.64
2.85182	37.64
2.86848	37.64
2.88515	37.64
2.90182	37.63
2.91848	37.63
2.93515	37.63
2.95182	37.63
2.96848	37.63
2.98515	37.63
3.00182	37.63
3.01848	37.63
3.03515	37.63
3.05182	37.63
3.06848	37.63
3.08515	37.63
3.10182	37.62
3.11848	37.62
3.13515	37.62
3.15182	37.62
3.16848	37.62
3.18515	37.62
3.20182	37.62
3.21848	37.62
3.23515	37.62
3.25182	37.62
3.26848	37.62
3.28515	37.62
3.30182	37.62
3.31848	37.62
3.33515	37.62
3.35182	37.62
3.36848	37.62
3.38515	37.62
3.40182	37.62
3.41848	37.62
3.43515	37.62
3.45182	37.62
3.46848	37.62
3.48515	37.62
3.50182	37.62
3.51848	37.62
3.53515	37.62
3.55182	37.62
3.56848	37.62
3.58515	37.62
3.60182	37.62
3.61848	37.62
3.63515	37.62
3.65182	37.62
3.66848	37.62
3.68515	37.62
3.70182	37.62
3.71848	37.62
3.73515	37.62
3.75182	37.62
3.76848	37.62
3.78515	37.62
3.80182	37.62
3.81848	37.62
3.83515	37.62
3.85182	37.62
3.86848	37.62
3.88515	37.62
3.90182	37.62
3.91848	37.62
3.93515	37.62
3.95182	37.62
3.96848	37.62
3.98515	37.62

