[Header]
Application Name	LabSolutions
Version	5.110
Data File Name	C:\Users\User\Desktop\Junior\UIC Prairie Sampling\2023\8.18.23\081823_053.gcd
Output Date	8/31/2023
Output Time	12:48:10 PM

[File Information]
Type	Data File
Generated	8/30/2023 9:47:41 PM
Generated by	System Administrator
Modified	8/30/2023 9:54:04 PM
Modified by	System Administrator

[Sample Information]
Operator Name	System Administrator
Acquired	8/30/2023 9:50:04 PM
Sample Type	0:Unknown
Level	0
Sample Name	053
Sample ID	053
ISTD Amount1	1
ISTD Amount2	1
ISTD Amount3	1
ISTD Amount4	1
ISTD Amount5	1
ISTD Amount6	1
ISTD Amount7	1
ISTD Amount8	1
ISTD Amount9	1
ISTD Amount10	1
ISTD Amount11	1
ISTD Amount12	1
ISTD Amount13	1
ISTD Amount14	1
ISTD Amount15	1
ISTD Amount16	1
ISTD Amount17	1
ISTD Amount18	1
ISTD Amount19	1
ISTD Amount20	1
ISTD Amount21	1
ISTD Amount22	1
ISTD Amount23	1
ISTD Amount24	1
ISTD Amount25	1
ISTD Amount26	1
ISTD Amount27	1
ISTD Amount28	1
ISTD Amount29	1
ISTD Amount30	1
ISTD Amount31	1
ISTD Amount32	1
Sample Amount	1
Dilution Factor	1
Vial#	52
Injection Volume	1
Injection Count	1
Bar Code	

[Original Files]
Data File	C:\Users\User\Desktop\Junior\UIC Prairie Sampling\8.18.23\081823_053.gcd
Method File	C:\LabSolutions\Data\GHG_4min_2022\ghg3_togas_w_acet_4 min_new_int.gcm
Batch File	C:\LabSolutions\Data\BATCH FILES\081823.gcb
Report Format File	c:\LabSolutions\System\DEFAULT.lsr

[File Description]


[Configuration]
Instrument Name	C0B7VH3-Instrument1
Instrument #	1
Line #	1
# of Detectors	3
Detector ID	DET#1	DET#2	DET#3
Detector Name	FID	PTCD	ECD
# of Channels	1	1	1

[Peak Table(Ch1)]
# of Peaks	3
Peak#	R.Time	I.Time	F.Time	Area	Height	A/H	Conc.	Mark	ID#	Name	k'	Plate #	Plate Ht.	Tailing	Resolution	Sep.Factor	Area Ratio	Height Ratio	Conc. %	Norm Conc.
1	1.498	1.468	1.527	1036	361	2.867	0.000	   	1	CO	0.000	1316	113.975	0.000	0.000	0.000	0	0	0.000	0.000
2	1.564	1.527	1.652	5326	2393	2.226	25.965	 V 	2	CH4	0.044	9841	15.242	0.000	0.578	0.000	0	0	13.926	13.926
3	1.989	1.938	2.444	832718	396333	2.101	160.480	   	3	CO2	0.328	17622	8.512	1.336	6.917	7.444	0	0	86.074	86.074

[Peak Table(Ch2)]
# of Peaks	0

[Peak Table(Ch3)]
# of Peaks	5
Peak#	R.Time	I.Time	F.Time	Area	Height	A/H	Conc.	Mark	ID#	Name	k'	Plate #	Plate Ht.	Tailing	Resolution	Sep.Factor	Area Ratio	Height Ratio	Conc. %	Norm Conc.
1	2.458	2.396	2.510	954	333	2.861	0.000	   			0.000	12336	12.159	0.000	0.000	0.000	0	0	0.000	0.000
2	2.524	2.510	2.576	355	140	2.542	0.000	 V 			0.027	5039	29.770	0.000	0.572	0.000	0	0	0.000	0.000
3	2.627	2.576	2.697	429	111	3.850	0.000	 V 			0.069	8745	17.152	0.000	0.806	2.556	0	0	0.000	0.000
4	2.891	2.763	3.060	14567	3972	3.667	0.215	   	1	N2O	0.176	13924	10.773	1.496	2.510	2.565	0	0	100.000	100.000
5	3.287	3.203	3.965	18493	851	21.735	0.000	   			0.337	430	349.073	4.587	1.082	1.915	0	0	0.000	0.000

[Compound Results(Ch1)]
# of IDs	6
ID#	Name	R.Time	Area	Height	Conc.	Curve	3rd	2nd	1st	Constant	Area Ratio	Height Ratio	Conc. %	Norm Conc.
1	CO	1.498	1036	361	0.000	Linear	0.000000e+00	0.000000e+00	0.000000e+00	0.000000e+00	0	0	0.000	0.000
2	CH4	1.564	5326	2393	25.965	Linear	0.000000e+00	0.000000e+00	2.051179e+002	0.000000e+00	0	0	13.926	13.926
3	CO2	1.989	832718	396333	160.480	Linear	0.000000e+00	0.000000e+00	5.188919e+003	0.000000e+00	0	0	86.074	86.074
4	Ethylene	0.000	0	0	0.000	Linear	0.000000e+00	0.000000e+00	0.000000e+00	0.000000e+00	0	0	0.000	0.000
5	Acetylene	0.000	0	0	0.000	Linear	0.000000e+00	0.000000e+00	0.000000e+00	0.000000e+00	0	0	0.000	0.000
6	Ethane	0.000	0	0	0.000	Linear	0.000000e+00	0.000000e+00	0.000000e+00	0.000000e+00	0	0	0.000	0.000

[Compound Results(Ch2)]
# of IDs	5
ID#	Name	R.Time	Area	Height	Conc.	Curve	3rd	2nd	1st	Constant	Area Ratio	Height Ratio	Conc. %	Norm Conc.
1	Hydrogen	0.000	0	0	0.000	Linear	0.000000e+00	0.000000e+00	0.000000e+00	0.000000e+00	0	0	0.000	0.000
2	Oxygen	0.000	0	0	0.000	Linear	0.000000e+00	0.000000e+00	0.000000e+00	0.000000e+00	0	0	0.000	0.000
3	Nitrogen	0.000	0	0	0.000	Linear	0.000000e+00	0.000000e+00	0.000000e+00	0.000000e+00	0	0	0.000	0.000
4	Methane	0.000	0	0	0.000	Linear	0.000000e+00	0.000000e+00	0.000000e+00	0.000000e+00	0	0	0.000	0.000
5	Carbon Monoxide	0.000	0	0	0.000	Linear	0.000000e+00	0.000000e+00	0.000000e+00	0.000000e+00	0	0	0.000	0.000

[Compound Results(Ch3)]
# of IDs	2
ID#	Name	R.Time	Area	Height	Conc.	Curve	3rd	2nd	1st	Constant	Area Ratio	Height Ratio	Conc. %	Norm Conc.
1	N2O	2.891	14567	3972	0.215	Linear	0.000000e+00	0.000000e+00	6.759880e+004	0.000000e+00	0	0	100.000	100.000
2	SF6	0.000	0	0	0.000	Linear	0.000000e+00	0.000000e+00	0.000000e+00	0.000000e+00	0	0	0.000	0.000

[Group Results(Ch1)]
# of Groups	0

[Group Results(Ch2)]
# of Groups	0

[Group Results(Ch3)]
# of Groups	0

[Chromatogram (Ch1)]
Interval(msec)	220
# of Points	1091
Start Time(min)	0.002
End Time(min)	3.998
R.Time (min)	Intensity
0.00167	-6
0.00533	-4
0.00900	-2
0.01267	2
0.01633	8
0.02000	14
0.02367	20
0.02733	22
0.03100	23
0.03467	21
0.03833	14
0.04200	5
0.04567	-4
0.04933	-9
0.05300	-12
0.05667	-13
0.06033	-11
0.06400	-11
0.06767	-11
0.07133	-9
0.07500	-5
0.07867	1
0.08233	5
0.08600	7
0.08967	11
0.09333	14
0.09700	13
0.10067	8
0.10433	3
0.10800	2
0.11167	6
0.11533	14
0.11900	20
0.12267	23
0.12633	23
0.13000	26
0.13367	27
0.13733	26
0.14100	25
0.14467	25
0.14833	27
0.15200	27
0.15567	22
0.15933	13
0.16300	6
0.16667	2
0.17033	-2
0.17400	-7
0.17767	-12
0.18133	-12
0.18500	-8
0.18867	-2
0.19233	2
0.19600	2
0.19967	0
0.20333	-0
0.20700	1
0.21067	5
0.21433	8
0.21800	8
0.22167	7
0.22533	8
0.22900	10
0.23267	13
0.23633	13
0.24000	10
0.24367	5
0.24733	1
0.25100	-2
0.25467	-3
0.25833	-0
0.26200	1
0.26567	-1
0.26933	-3
0.27300	-5
0.27667	-4
0.28033	1
0.28400	6
0.28767	11
0.29133	12
0.29500	14
0.29867	17
0.30233	16
0.30600	14
0.30967	16
0.31333	22
0.31700	27
0.32067	31
0.32433	36
0.32800	38
0.33167	40
0.33533	38
0.33900	34
0.34267	29
0.34633	26
0.35000	25
0.35367	21
0.35733	15
0.36100	11
0.36467	13
0.36833	17
0.37200	21
0.37567	24
0.37933	26
0.38300	26
0.38667	24
0.39033	21
0.39400	18
0.39767	13
0.40133	10
0.40500	11
0.40867	11
0.41233	8
0.41600	7
0.41967	9
0.42333	11
0.42700	13
0.43067	15
0.43433	19
0.43800	23
0.44167	27
0.44533	31
0.44900	35
0.45267	34
0.45633	30
0.46000	27
0.46367	23
0.46733	21
0.47100	21
0.47467	23
0.47833	27
0.48200	32
0.48567	34
0.48933	33
0.49300	30
0.49667	26
0.50033	24
0.50400	23
0.50767	25
0.51133	28
0.51500	30
0.51867	31
0.52233	30
0.52600	28
0.52967	26
0.53333	22
0.53700	18
0.54067	18
0.54433	20
0.54800	22
0.55167	20
0.55533	18
0.55900	16
0.56267	19
0.56633	24
0.57000	27
0.57367	24
0.57733	18
0.58100	12
0.58467	12
0.58833	16
0.59200	20
0.59567	21
0.59933	17
0.60300	9
0.60667	9
0.61033	18
0.61400	28
0.61767	36
0.62133	41
0.62500	38
0.62867	30
0.63233	24
0.63600	20
0.63967	19
0.64333	18
0.64700	17
0.65067	17
0.65433	16
0.65800	14
0.66167	14
0.66533	14
0.66900	17
0.67267	23
0.67633	30
0.68000	37
0.68367	39
0.68733	37
0.69100	33
0.69467	29
0.69833	25
0.70200	20
0.70567	13
0.70933	4
0.71300	-2
0.71667	-5
0.72033	-4
0.72400	5
0.72767	15
0.73133	20
0.73500	17
0.73867	11
0.74233	6
0.74600	6
0.74967	8
0.75333	8
0.75700	9
0.76067	13
0.76433	18
0.76800	20
0.77167	19
0.77533	21
0.77900	23
0.78267	23
0.78633	21
0.79000	18
0.79367	16
0.79733	14
0.80100	13
0.80467	9
0.80833	2
0.81200	-6
0.81567	-12
0.81933	-16
0.82300	-13
0.82667	-7
0.83033	0
0.83400	7
0.83767	12
0.84133	13
0.84500	11
0.84867	8
0.85233	5
0.85600	5
0.85967	9
0.86333	12
0.86700	14
0.87067	9
0.87433	1
0.87800	-6
0.88167	-10
0.88533	-11
0.88900	-11
0.89267	-8
0.89633	-8
0.90000	-8
0.90367	-7
0.90733	-6
0.91100	-3
0.91467	-2
0.91833	-1
0.92200	1
0.92567	5
0.92933	8
0.93300	8
0.93667	8
0.94033	6
0.94400	5
0.94767	5
0.95133	6
0.95500	4
0.95867	-0
0.96233	-4
0.96600	-3
0.96967	-0
0.97333	3
0.97700	4
0.98067	3
0.98433	1
0.98800	-1
0.99167	-3
0.99533	-5
0.99900	-6
1.00267	-5
1.00633	-7
1.01000	-7
1.01367	-4
1.01733	-2
1.02100	-3
1.02467	-3
1.02833	0
1.03200	7
1.03567	12
1.03933	13
1.04300	7
1.04667	-3
1.05033	-13
1.05400	-18
1.05767	-19
1.06133	-18
1.06500	-16
1.06867	-12
1.07233	-8
1.07600	-7
1.07967	-7
1.08333	-8
1.08700	-10
1.09067	-16
1.09433	-22
1.09800	-24
1.10167	-23
1.10533	-20
1.10900	-13
1.11267	-9
1.11633	-9
1.12000	-10
1.12367	-10
1.12733	-7
1.13100	-2
1.13467	2
1.13833	4
1.14200	2
1.14567	-2
1.14933	-7
1.15300	-11
1.15667	-12
1.16033	-9
1.16400	-7
1.16767	-4
1.17133	-3
1.17500	-2
1.17867	-2
1.18233	-0
1.18600	1
1.18967	3
1.19333	3
1.19700	3
1.20067	6
1.20433	8
1.20800	5
1.21167	-2
1.21533	-7
1.21900	-10
1.22267	-10
1.22633	-9
1.23000	-11
1.23367	-8
1.23733	-2
1.24100	3
1.24467	5
1.24833	3
1.25200	-1
1.25567	-5
1.25933	-4
1.26300	-0
1.26667	1
1.27033	-1
1.27400	-6
1.27767	-11
1.28133	-17
1.28500	-22
1.28867	-22
1.29233	-18
1.29600	-16
1.29967	-16
1.30333	-17
1.30700	-15
1.31067	-11
1.31433	-6
1.31800	-3
1.32167	-0
1.32533	1
1.32900	-3
1.33267	-10
1.33633	-17
1.34000	-20
1.34367	-20
1.34733	-17
1.35100	-14
1.35467	-12
1.35833	-11
1.36200	-10
1.36567	-9
1.36933	-6
1.37300	-1
1.37667	1
1.38033	-0
1.38400	-2
1.38767	-4
1.39133	-6
1.39500	-10
1.39867	-12
1.40233	-15
1.40600	-17
1.40967	-18
1.41333	-18
1.41700	-20
1.42067	-22
1.42433	-24
1.42800	-23
1.43167	-19
1.43533	-13
1.43900	-10
1.44267	-44
1.44633	-131
1.45000	-240
1.45367	-340
1.45733	-418
1.46100	-460
1.46467	-461
1.46833	-418
1.47200	-340
1.47567	-248
1.47933	-163
1.48300	-96
1.48667	-48
1.49033	-18
1.49400	-0
1.49767	8
1.50133	14
1.50500	18
1.50867	24
1.51233	27
1.51600	29
1.51967	28
1.52333	25
1.52700	23
1.53067	28
1.53433	62
1.53800	183
1.54167	446
1.54533	837
1.54900	1270
1.55267	1663
1.55633	1966
1.56000	2150
1.56367	2187
1.56733	2055
1.57100	1779
1.57467	1422
1.57833	1063
1.58200	759
1.58567	527
1.58933	358
1.59300	236
1.59667	150
1.60033	92
1.60400	53
1.60767	27
1.61133	9
1.61500	-2
1.61867	-8
1.62233	-15
1.62600	-21
1.62967	-24
1.63333	-24
1.63700	-25
1.64067	-25
1.64433	-22
1.64800	-17
1.65167	-10
1.65533	-5
1.65900	-3
1.66267	-7
1.66633	-14
1.67000	-17
1.67367	-18
1.67733	-18
1.68100	-18
1.68467	-19
1.68833	-20
1.69200	-22
1.69567	-24
1.69933	-23
1.70300	-20
1.70667	-19
1.71033	-19
1.71400	-20
1.71767	-22
1.72133	-23
1.72500	-25
1.72867	-26
1.73233	-26
1.73600	-26
1.73967	-26
1.74333	-24
1.74700	-21
1.75067	-19
1.75433	-17
1.75800	-17
1.76167	-21
1.76533	-22
1.76900	-19
1.77267	-16
1.77633	-17
1.78000	-20
1.78367	-25
1.78733	-27
1.79100	-22
1.79467	-14
1.79833	-5
1.80200	1
1.80567	5
1.80933	5
1.81300	1
1.81667	-3
1.82033	-4
1.82400	-3
1.82767	-5
1.83133	-7
1.83500	-7
1.83867	-7
1.84233	-8
1.84600	-7
1.84967	-6
1.85333	-8
1.85700	-13
1.86067	-16
1.86433	-17
1.86800	-20
1.87167	-22
1.87533	-20
1.87900	-14
1.88267	-9
1.88633	-6
1.89000	-4
1.89367	-4
1.89733	-6
1.90100	-12
1.90467	-19
1.90833	-21
1.91200	-19
1.91567	-16
1.91933	-13
1.92300	-11
1.92667	-10
1.93033	-10
1.93400	-8
1.93767	-5
1.94133	2
1.94500	15
1.94867	65
1.95233	360
1.95600	1767
1.95967	6868
1.96333	20913
1.96700	50923
1.97067	101490
1.97433	169892
1.97800	245763
1.98167	316019
1.98533	369008
1.98900	396354
1.99267	394218
1.99633	364421
2.00000	314389
2.00367	254864
2.00733	196065
2.01100	144811
2.01467	103940
2.01833	73347
2.02200	51433
2.02567	36189
2.02933	25773
2.03300	18719
2.03667	13950
2.04033	10710
2.04400	8483
2.04767	6926
2.05133	5812
2.05500	4993
2.05867	4376
2.06233	3895
2.06600	3509
2.06967	3196
2.07333	2936
2.07700	2720
2.08067	2534
2.08433	2374
2.08800	2235
2.09167	2112
2.09533	1998
2.09900	1894
2.10267	1802
2.10633	1720
2.11000	1647
2.11367	1578
2.11733	1511
2.12100	1446
2.12467	1386
2.12833	1333
2.13200	1286
2.13567	1243
2.13933	1202
2.14300	1161
2.14667	1119
2.15033	1079
2.15400	1043
2.15767	1012
2.16133	988
2.16500	968
2.16867	945
2.17233	922
2.17600	896
2.17967	871
2.18333	849
2.18700	828
2.19067	806
2.19433	784
2.19800	765
2.20167	750
2.20533	735
2.20900	717
2.21267	698
2.21633	680
2.22000	662
2.22367	643
2.22733	627
2.23100	612
2.23467	600
2.23833	587
2.24200	572
2.24567	560
2.24933	554
2.25300	552
2.25667	550
2.26033	542
2.26400	527
2.26767	512
2.27133	500
2.27500	493
2.27867	491
2.28233	487
2.28600	481
2.28967	473
2.29333	463
2.29700	451
2.30067	437
2.30433	427
2.30800	418
2.31167	406
2.31533	395
2.31900	387
2.32267	380
2.32633	375
2.33000	374
2.33367	371
2.33733	368
2.34100	365
2.34467	362
2.34833	358
2.35200	351
2.35567	344
2.35933	338
2.36300	338
2.36667	337
2.37033	334
2.37400	328
2.37767	319
2.38133	313
2.38500	312
2.38867	314
2.39233	316
2.39600	318
2.39967	317
2.40333	313
2.40700	308
2.41067	300
2.41433	292
2.41800	286
2.42167	282
2.42533	275
2.42900	268
2.43267	262
2.43633	259
2.44000	255
2.44367	253
2.44733	252
2.45100	255
2.45467	260
2.45833	265
2.46200	268
2.46567	268
2.46933	265
2.47300	260
2.47667	257
2.48033	257
2.48400	260
2.48767	261
2.49133	255
2.49500	246
2.49867	237
2.50233	231
2.50600	227
2.50967	223
2.51333	219
2.51700	212
2.52067	206
2.52433	207
2.52800	215
2.53167	223
2.53533	226
2.53900	228
2.54267	228
2.54633	226
2.55000	222
2.55367	219
2.55733	213
2.56100	206
2.56467	200
2.56833	198
2.57200	196
2.57567	191
2.57933	185
2.58300	181
2.58667	178
2.59033	176
2.59400	173
2.59767	171
2.60133	171
2.60500	174
2.60867	181
2.61233	190
2.61600	198
2.61967	200
2.62333	197
2.62700	196
2.63067	196
2.63433	195
2.63800	191
2.64167	189
2.64533	190
2.64900	193
2.65267	193
2.65633	192
2.66000	189
2.66367	184
2.66733	181
2.67100	180
2.67467	179
2.67833	179
2.68200	180
2.68567	179
2.68933	176
2.69300	173
2.69667	171
2.70033	170
2.70400	168
2.70767	167
2.71133	167
2.71500	168
2.71867	168
2.72233	168
2.72600	169
2.72967	171
2.73333	171
2.73700	170
2.74067	168
2.74433	167
2.74800	166
2.75167	166
2.75533	167
2.75900	170
2.76267	173
2.76633	176
2.77000	179
2.77367	181
2.77733	179
2.78100	176
2.78467	172
2.78833	168
2.79200	166
2.79567	165
2.79933	165
2.80300	166
2.80667	168
2.81033	170
2.81400	173
2.81767	178
2.82133	183
2.82500	187
2.82867	191
2.83233	193
2.83600	191
2.83967	185
2.84333	177
2.84700	173
2.85067	172
2.85433	168
2.85800	167
2.86167	168
2.86533	172
2.86900	179
2.87267	186
2.87633	189
2.88000	186
2.88367	180
2.88733	172
2.89100	165
2.89467	160
2.89833	157
2.90200	156
2.90567	159
2.90933	164
2.91300	167
2.91667	166
2.92033	165
2.92400	167
2.92767	173
2.93133	179
2.93500	184
2.93867	188
2.94233	190
2.94600	188
2.94967	187
2.95333	185
2.95700	183
2.96067	182
2.96433	182
2.96800	183
2.97167	187
2.97533	192
2.97900	195
2.98267	195
2.98633	196
2.99000	197
2.99367	198
2.99733	196
3.00100	196
3.00467	197
3.00833	199
3.01200	202
3.01567	203
3.01933	202
3.02300	199
3.02667	197
3.03033	194
3.03400	192
3.03767	190
3.04133	186
3.04500	184
3.04867	184
3.05233	179
3.05600	171
3.05967	166
3.06333	166
3.06700	168
3.07067	169
3.07433	171
3.07800	175
3.08167	181
3.08533	188
3.08900	191
3.09267	191
3.09633	188
3.10000	183
3.10367	179
3.10733	177
3.11100	176
3.11467	176
3.11833	174
3.12200	171
3.12567	172
3.12933	174
3.13300	175
3.13667	178
3.14033	182
3.14400	187
3.14767	188
3.15133	187
3.15500	187
3.15867	189
3.16233	191
3.16600	191
3.16967	190
3.17333	189
3.17700	190
3.18067	192
3.18433	195
3.18800	196
3.19167	196
3.19533	194
3.19900	192
3.20267	192
3.20633	190
3.21000	190
3.21367	189
3.21733	189
3.22100	190
3.22467	189
3.22833	185
3.23200	184
3.23567	185
3.23933	187
3.24300	188
3.24667	191
3.25033	197
3.25400	200
3.25767	202
3.26133	205
3.26500	207
3.26867	207
3.27233	203
3.27600	194
3.27967	186
3.28333	179
3.28700	175
3.29067	176
3.29433	183
3.29800	195
3.30167	206
3.30533	213
3.30900	215
3.31267	213
3.31633	208
3.32000	204
3.32367	201
3.32733	196
3.33100	188
3.33467	181
3.33833	178
3.34200	178
3.34567	179
3.34933	180
3.35300	181
3.35667	185
3.36033	190
3.36400	189
3.36767	187
3.37133	185
3.37500	184
3.37867	188
3.38233	190
3.38600	192
3.38967	193
3.39333	192
3.39700	188
3.40067	186
3.40433	184
3.40800	183
3.41167	183
3.41533	180
3.41900	176
3.42267	173
3.42633	175
3.43000	179
3.43367	189
3.43733	201
3.44100	207
3.44467	206
3.44833	203
3.45200	200
3.45567	195
3.45933	190
3.46300	186
3.46667	181
3.47033	178
3.47400	175
3.47767	172
3.48133	171
3.48500	173
3.48867	177
3.49233	183
3.49600	186
3.49967	184
3.50333	179
3.50700	175
3.51067	175
3.51433	178
3.51800	180
3.52167	180
3.52533	178
3.52900	174
3.53267	170
3.53633	169
3.54000	172
3.54367	176
3.54733	181
3.55100	188
3.55467	195
3.55833	200
3.56200	202
3.56567	202
3.56933	200
3.57300	196
3.57667	191
3.58033	187
3.58400	186
3.58767	185
3.59133	184
3.59500	183
3.59867	182
3.60233	182
3.60600	181
3.60967	179
3.61333	178
3.61700	176
3.62067	175
3.62433	173
3.62800	175
3.63167	179
3.63533	181
3.63900	182
3.64267	181
3.64633	181
3.65000	183
3.65367	186
3.65733	187
3.66100	185
3.66467	183
3.66833	180
3.67200	177
3.67567	175
3.67933	175
3.68300	179
3.68667	185
3.69033	188
3.69400	188
3.69767	185
3.70133	181
3.70500	177
3.70867	169
3.71233	161
3.71600	159
3.71967	160
3.72333	160
3.72700	162
3.73067	165
3.73433	167
3.73800	165
3.74167	162
3.74533	160
3.74900	159
3.75267	159
3.75633	160
3.76000	162
3.76367	168
3.76733	174
3.77100	179
3.77467	179
3.77833	178
3.78200	175
3.78567	170
3.78933	166
3.79300	162
3.79667	158
3.80033	157
3.80400	159
3.80767	164
3.81133	171
3.81500	175
3.81867	175
3.82233	172
3.82600	166
3.82967	159
3.83333	154
3.83700	151
3.84067	152
3.84433	157
3.84800	160
3.85167	163
3.85533	165
3.85900	161
3.86267	153
3.86633	148
3.87000	145
3.87367	140
3.87733	138
3.88100	139
3.88467	140
3.88833	142
3.89200	143
3.89567	145
3.89933	149
3.90300	152
3.90667	152
3.91033	152
3.91400	151
3.91767	151
3.92133	149
3.92500	148
3.92867	147
3.93233	147
3.93600	146
3.93967	147
3.94333	152
3.94700	155
3.95067	153
3.95433	151
3.95800	153
3.96167	152
3.96533	150
3.96900	149
3.97267	148
3.97633	146
3.98000	142
3.98367	135
3.98733	130
3.99100	131
3.99467	134
3.99833	144

[Chromatogram (Ch2)]
Interval(msec)	220
# of Points	1091
Start Time(min)	0.002
End Time(min)	3.998
R.Time (min)	Intensity
0.00167	-0
0.00533	-1
0.00900	-1
0.01267	-1
0.01633	-1
0.02000	-1
0.02367	-1
0.02733	-1
0.03100	-1
0.03467	-1
0.03833	-0
0.04200	-0
0.04567	-0
0.04933	-0
0.05300	-0
0.05667	-0
0.06033	-1
0.06400	-1
0.06767	-1
0.07133	-1
0.07500	-1
0.07867	-1
0.08233	-1
0.08600	-1
0.08967	-1
0.09333	-1
0.09700	-1
0.10067	-1
0.10433	-0
0.10800	-0
0.11167	-0
0.11533	-0
0.11900	-0
0.12267	-0
0.12633	0
0.13000	0
0.13367	0
0.13733	0
0.14100	-0
0.14467	-1
0.14833	-1
0.15200	-1
0.15567	-2
0.15933	-2
0.16300	-2
0.16667	-2
0.17033	-2
0.17400	-2
0.17767	-2
0.18133	-2
0.18500	-2
0.18867	-2
0.19233	-2
0.19600	-2
0.19967	-2
0.20333	-2
0.20700	-2
0.21067	-2
0.21433	-3
0.21800	-3
0.22167	-3
0.22533	-3
0.22900	-3
0.23267	-2
0.23633	-2
0.24000	-2
0.24367	-2
0.24733	-2
0.25100	-2
0.25467	-2
0.25833	-2
0.26200	-2
0.26567	-2
0.26933	-3
0.27300	-3
0.27667	-3
0.28033	-2
0.28400	-2
0.28767	-2
0.29133	-2
0.29500	-2
0.29867	-2
0.30233	-3
0.30600	-2
0.30967	-2
0.31333	-2
0.31700	-2
0.32067	-2
0.32433	-3
0.32800	-3
0.33167	-3
0.33533	-2
0.33900	-2
0.34267	-3
0.34633	-3
0.35000	-3
0.35367	-3
0.35733	-3
0.36100	-3
0.36467	-3
0.36833	-3
0.37200	-3
0.37567	-2
0.37933	-2
0.38300	-2
0.38667	-2
0.39033	-2
0.39400	-2
0.39767	-2
0.40133	-2
0.40500	-2
0.40867	-2
0.41233	-2
0.41600	-2
0.41967	-2
0.42333	-3
0.42700	-3
0.43067	-3
0.43433	-3
0.43800	-3
0.44167	-3
0.44533	-3
0.44900	-3
0.45267	-3
0.45633	-3
0.46000	-3
0.46367	-3
0.46733	-3
0.47100	-3
0.47467	-3
0.47833	-3
0.48200	-3
0.48567	-3
0.48933	-3
0.49300	-3
0.49667	-4
0.50033	-4
0.50400	-4
0.50767	-4
0.51133	-3
0.51500	-3
0.51867	-3
0.52233	-3
0.52600	-3
0.52967	-2
0.53333	-2
0.53700	-2
0.54067	-2
0.54433	-2
0.54800	-2
0.55167	-2
0.55533	-2
0.55900	-2
0.56267	-3
0.56633	-3
0.57000	-3
0.57367	-3
0.57733	-3
0.58100	-3
0.58467	-4
0.58833	-4
0.59200	-4
0.59567	-3
0.59933	-3
0.60300	-3
0.60667	-3
0.61033	-3
0.61400	-3
0.61767	-3
0.62133	-3
0.62500	-3
0.62867	-3
0.63233	-3
0.63600	-2
0.63967	-2
0.64333	-2
0.64700	-2
0.65067	-2
0.65433	-2
0.65800	-2
0.66167	-3
0.66533	-3
0.66900	-3
0.67267	-3
0.67633	-3
0.68000	-3
0.68367	-3
0.68733	-3
0.69100	-3
0.69467	-3
0.69833	-3
0.70200	-3
0.70567	-3
0.70933	-3
0.71300	-3
0.71667	-3
0.72033	-3
0.72400	-3
0.72767	-3
0.73133	-3
0.73500	-3
0.73867	-3
0.74233	-3
0.74600	-3
0.74967	-3
0.75333	-3
0.75700	-3
0.76067	-3
0.76433	-3
0.76800	-3
0.77167	-3
0.77533	-2
0.77900	-2
0.78267	-2
0.78633	-3
0.79000	-3
0.79367	-2
0.79733	-2
0.80100	-2
0.80467	-2
0.80833	-2
0.81200	-2
0.81567	-2
0.81933	-2
0.82300	-2
0.82667	-2
0.83033	-2
0.83400	-2
0.83767	-2
0.84133	-2
0.84500	-2
0.84867	-2
0.85233	-2
0.85600	-3
0.85967	-3
0.86333	-3
0.86700	-3
0.87067	-3
0.87433	-3
0.87800	-3
0.88167	-3
0.88533	-3
0.88900	-3
0.89267	-3
0.89633	-4
0.90000	-4
0.90367	-4
0.90733	-4
0.91100	-4
0.91467	-4
0.91833	-4
0.92200	-4
0.92567	-5
0.92933	-4
0.93300	-4
0.93667	-4
0.94033	-3
0.94400	-3
0.94767	-2
0.95133	-2
0.95500	-2
0.95867	-2
0.96233	-2
0.96600	-2
0.96967	-2
0.97333	-2
0.97700	-2
0.98067	-2
0.98433	-2
0.98800	-2
0.99167	-3
0.99533	-3
0.99900	-3
1.00267	-3
1.00633	-3
1.01000	-3
1.01367	-3
1.01733	-3
1.02100	-3
1.02467	-3
1.02833	-4
1.03200	-4
1.03567	-4
1.03933	-4
1.04300	-4
1.04667	-4
1.05033	-4
1.05400	-4
1.05767	-4
1.06133	-4
1.06500	-4
1.06867	-4
1.07233	-4
1.07600	-4
1.07967	-4
1.08333	-4
1.08700	-4
1.09067	-4
1.09433	-4
1.09800	-4
1.10167	-4
1.10533	-4
1.10900	-4
1.11267	-4
1.11633	-4
1.12000	-4
1.12367	-4
1.12733	-4
1.13100	-4
1.13467	-4
1.13833	-4
1.14200	-4
1.14567	-4
1.14933	-4
1.15300	-4
1.15667	-4
1.16033	-4
1.16400	-4
1.16767	-4
1.17133	-4
1.17500	-4
1.17867	-4
1.18233	-4
1.18600	-4
1.18967	-4
1.19333	-3
1.19700	-3
1.20067	-3
1.20433	-3
1.20800	-2
1.21167	-2
1.21533	-2
1.21900	-2
1.22267	-2
1.22633	-2
1.23000	-2
1.23367	-3
1.23733	-3
1.24100	-3
1.24467	-3
1.24833	-3
1.25200	-3
1.25567	-3
1.25933	-3
1.26300	-4
1.26667	-4
1.27033	-4
1.27400	-5
1.27767	-5
1.28133	-5
1.28500	-4
1.28867	-4
1.29233	-4
1.29600	-4
1.29967	-4
1.30333	-4
1.30700	-5
1.31067	-4
1.31433	-4
1.31800	-4
1.32167	-4
1.32533	-4
1.32900	-4
1.33267	-4
1.33633	-4
1.34000	-4
1.34367	-4
1.34733	-4
1.35100	-4
1.35467	-4
1.35833	-5
1.36200	-5
1.36567	-5
1.36933	-5
1.37300	-5
1.37667	-5
1.38033	-5
1.38400	-5
1.38767	-5
1.39133	-5
1.39500	-5
1.39867	-5
1.40233	-5
1.40600	-5
1.40967	-5
1.41333	-5
1.41700	-5
1.42067	-6
1.42433	-6
1.42800	-6
1.43167	-7
1.43533	-7
1.43900	-7
1.44267	-6
1.44633	-6
1.45000	-6
1.45367	-6
1.45733	-5
1.46100	-5
1.46467	-5
1.46833	-5
1.47200	-5
1.47567	-5
1.47933	-5
1.48300	-5
1.48667	-5
1.49033	-5
1.49400	-5
1.49767	-5
1.50133	-5
1.50500	-5
1.50867	-4
1.51233	-4
1.51600	-3
1.51967	-3
1.52333	-3
1.52700	-3
1.53067	-3
1.53433	-3
1.53800	-3
1.54167	-4
1.54533	-4
1.54900	-4
1.55267	-4
1.55633	-4
1.56000	-4
1.56367	-4
1.56733	-4
1.57100	-4
1.57467	-4
1.57833	-4
1.58200	-4
1.58567	-4
1.58933	-4
1.59300	-5
1.59667	-5
1.60033	-6
1.60400	-7
1.60767	-9
1.61133	-11
1.61500	-13
1.61867	-16
1.62233	-19
1.62600	-21
1.62967	-24
1.63333	-27
1.63700	-30
1.64067	-34
1.64433	-37
1.64800	-40
1.65167	-43
1.65533	-47
1.65900	-50
1.66267	-53
1.66633	-56
1.67000	-60
1.67367	-65
1.67733	-70
1.68100	-74
1.68467	-79
1.68833	-83
1.69200	-87
1.69567	-90
1.69933	-93
1.70300	-95
1.70667	-96
1.71033	-97
1.71400	-98
1.71767	-99
1.72133	-99
1.72500	-100
1.72867	-100
1.73233	-100
1.73600	-100
1.73967	-99
1.74333	-99
1.74700	-99
1.75067	-98
1.75433	-98
1.75800	-98
1.76167	-98
1.76533	-98
1.76900	-98
1.77267	-99
1.77633	-100
1.78000	-102
1.78367	-103
1.78733	-103
1.79100	-104
1.79467	-104
1.79833	-104
1.80200	-104
1.80567	-104
1.80933	-104
1.81300	-103
1.81667	-103
1.82033	-102
1.82400	-101
1.82767	-101
1.83133	-100
1.83500	-100
1.83867	-100
1.84233	-101
1.84600	-101
1.84967	-102
1.85333	-102
1.85700	-102
1.86067	-101
1.86433	-101
1.86800	-101
1.87167	-101
1.87533	-101
1.87900	-101
1.88267	-101
1.88633	-101
1.89000	-101
1.89367	-101
1.89733	-101
1.90100	-101
1.90467	-101
1.90833	-101
1.91200	-101
1.91567	-100
1.91933	-100
1.92300	-101
1.92667	-101
1.93033	-101
1.93400	-101
1.93767	-101
1.94133	-101
1.94500	-101
1.94867	-100
1.95233	-100
1.95600	-99
1.95967	-99
1.96333	-99
1.96700	-98
1.97067	-98
1.97433	-98
1.97800	-97
1.98167	-97
1.98533	-96
1.98900	-96
1.99267	-96
1.99633	-96
2.00000	-96
2.00367	-96
2.00733	-96
2.01100	-96
2.01467	-96
2.01833	-96
2.02200	-96
2.02567	-96
2.02933	-95
2.03300	-95
2.03667	-94
2.04033	-93
2.04400	-93
2.04767	-92
2.05133	-91
2.05500	-91
2.05867	-90
2.06233	-89
2.06600	-89
2.06967	-89
2.07333	-88
2.07700	-88
2.08067	-88
2.08433	-88
2.08800	-88
2.09167	-88
2.09533	-88
2.09900	-88
2.10267	-88
2.10633	-88
2.11000	-87
2.11367	-86
2.11733	-86
2.12100	-85
2.12467	-85
2.12833	-85
2.13200	-84
2.13567	-84
2.13933	-84
2.14300	-83
2.14667	-83
2.15033	-83
2.15400	-83
2.15767	-83
2.16133	-83
2.16500	-83
2.16867	-83
2.17233	-82
2.17600	-82
2.17967	-82
2.18333	-81
2.18700	-81
2.19067	-81
2.19433	-81
2.19800	-81
2.20167	-80
2.20533	-80
2.20900	-80
2.21267	-79
2.21633	-79
2.22000	-79
2.22367	-79
2.22733	-78
2.23100	-78
2.23467	-77
2.23833	-76
2.24200	-76
2.24567	-75
2.24933	-75
2.25300	-75
2.25667	-76
2.26033	-76
2.26400	-75
2.26767	-75
2.27133	-75
2.27500	-74
2.27867	-74
2.28233	-73
2.28600	-72
2.28967	-71
2.29333	-71
2.29700	-71
2.30067	-71
2.30433	-72
2.30800	-73
2.31167	-74
2.31533	-75
2.31900	-76
2.32267	-75
2.32633	-75
2.33000	-74
2.33367	-73
2.33733	-71
2.34100	-70
2.34467	-69
2.34833	-69
2.35200	-68
2.35567	-67
2.35933	-65
2.36300	-64
2.36667	-61
2.37033	-59
2.37400	-56
2.37767	-53
2.38133	-49
2.38500	-46
2.38867	-42
2.39233	-38
2.39600	-34
2.39967	-30
2.40333	-26
2.40700	-22
2.41067	-18
2.41433	-15
2.41800	-13
2.42167	-11
2.42533	-9
2.42900	-7
2.43267	-5
2.43633	-3
2.44000	-2
2.44367	-0
2.44733	1
2.45100	2
2.45467	3
2.45833	4
2.46200	5
2.46567	7
2.46933	8
2.47300	9
2.47667	11
2.48033	12
2.48400	13
2.48767	13
2.49133	13
2.49500	13
2.49867	13
2.50233	13
2.50600	14
2.50967	14
2.51333	14
2.51700	15
2.52067	15
2.52433	15
2.52800	15
2.53167	15
2.53533	15
2.53900	15
2.54267	14
2.54633	14
2.55000	14
2.55367	13
2.55733	12
2.56100	11
2.56467	11
2.56833	10
2.57200	10
2.57567	9
2.57933	9
2.58300	9
2.58667	9
2.59033	10
2.59400	10
2.59767	11
2.60133	12
2.60500	12
2.60867	13
2.61233	14
2.61600	14
2.61967	15
2.62333	15
2.62700	15
2.63067	15
2.63433	16
2.63800	16
2.64167	17
2.64533	17
2.64900	18
2.65267	18
2.65633	19
2.66000	19
2.66367	19
2.66733	19
2.67100	20
2.67467	20
2.67833	20
2.68200	20
2.68567	20
2.68933	20
2.69300	21
2.69667	21
2.70033	21
2.70400	21
2.70767	21
2.71133	21
2.71500	21
2.71867	21
2.72233	21
2.72600	22
2.72967	22
2.73333	22
2.73700	23
2.74067	24
2.74433	24
2.74800	25
2.75167	25
2.75533	26
2.75900	26
2.76267	26
2.76633	27
2.77000	27
2.77367	27
2.77733	27
2.78100	28
2.78467	27
2.78833	27
2.79200	27
2.79567	26
2.79933	25
2.80300	25
2.80667	24
2.81033	24
2.81400	24
2.81767	23
2.82133	23
2.82500	23
2.82867	23
2.83233	23
2.83600	23
2.83967	24
2.84333	24
2.84700	24
2.85067	25
2.85433	24
2.85800	23
2.86167	21
2.86533	16
2.86900	8
2.87267	-3
2.87633	-19
2.88000	-39
2.88367	-65
2.88733	-97
2.89100	-134
2.89467	-176
2.89833	-223
2.90200	-274
2.90567	-330
2.90933	-389
2.91300	-451
2.91667	-514
2.92033	-579
2.92400	-644
2.92767	-709
2.93133	-771
2.93500	-831
2.93867	-887
2.94233	-942
2.94600	-997
2.94967	-1051
2.95333	-1096
2.95700	-1123
2.96067	-1125
2.96433	-1103
2.96800	-1058
2.97167	-995
2.97533	-921
2.97900	-841
2.98267	-759
2.98633	-678
2.99000	-600
2.99367	-528
2.99733	-461
3.00100	-401
3.00467	-346
3.00833	-298
3.01200	-255
3.01567	-218
3.01933	-185
3.02300	-157
3.02667	-133
3.03033	-111
3.03400	-93
3.03767	-78
3.04133	-64
3.04500	-53
3.04867	-43
3.05233	-35
3.05600	-28
3.05967	-21
3.06333	-16
3.06700	-12
3.07067	-8
3.07433	-5
3.07800	-2
3.08167	-0
3.08533	2
3.08900	4
3.09267	5
3.09633	6
3.10000	7
3.10367	8
3.10733	9
3.11100	10
3.11467	11
3.11833	12
3.12200	13
3.12567	14
3.12933	14
3.13300	15
3.13667	15
3.14033	16
3.14400	16
3.14767	17
3.15133	17
3.15500	17
3.15867	18
3.16233	18
3.16600	18
3.16967	19
3.17333	19
3.17700	19
3.18067	19
3.18433	19
3.18800	20
3.19167	20
3.19533	20
3.19900	20
3.20267	20
3.20633	20
3.21000	20
3.21367	20
3.21733	21
3.22100	21
3.22467	21
3.22833	21
3.23200	21
3.23567	21
3.23933	21
3.24300	21
3.24667	21
3.25033	21
3.25400	22
3.25767	22
3.26133	22
3.26500	23
3.26867	23
3.27233	23
3.27600	23
3.27967	23
3.28333	23
3.28700	23
3.29067	23
3.29433	23
3.29800	23
3.30167	23
3.30533	23
3.30900	23
3.31267	23
3.31633	24
3.32000	24
3.32367	24
3.32733	24
3.33100	25
3.33467	25
3.33833	25
3.34200	25
3.34567	24
3.34933	24
3.35300	24
3.35667	24
3.36033	24
3.36400	24
3.36767	24
3.37133	24
3.37500	24
3.37867	24
3.38233	25
3.38600	25
3.38967	25
3.39333	26
3.39700	26
3.40067	26
3.40433	26
3.40800	26
3.41167	27
3.41533	27
3.41900	27
3.42267	27
3.42633	27
3.43000	27
3.43367	27
3.43733	27
3.44100	27
3.44467	27
3.44833	27
3.45200	26
3.45567	26
3.45933	26
3.46300	26
3.46667	26
3.47033	26
3.47400	27
3.47767	27
3.48133	27
3.48500	27
3.48867	27
3.49233	27
3.49600	27
3.49967	27
3.50333	27
3.50700	27
3.51067	27
3.51433	27
3.51800	27
3.52167	27
3.52533	27
3.52900	27
3.53267	27
3.53633	27
3.54000	27
3.54367	27
3.54733	27
3.55100	27
3.55467	27
3.55833	27
3.56200	26
3.56567	26
3.56933	26
3.57300	26
3.57667	26
3.58033	25
3.58400	25
3.58767	26
3.59133	26
3.59500	26
3.59867	26
3.60233	27
3.60600	27
3.60967	27
3.61333	27
3.61700	27
3.62067	27
3.62433	27
3.62800	27
3.63167	27
3.63533	27
3.63900	27
3.64267	27
3.64633	27
3.65000	27
3.65367	27
3.65733	27
3.66100	27
3.66467	27
3.66833	26
3.67200	26
3.67567	27
3.67933	27
3.68300	27
3.68667	27
3.69033	27
3.69400	27
3.69767	27
3.70133	27
3.70500	27
3.70867	26
3.71233	26
3.71600	26
3.71967	26
3.72333	26
3.72700	26
3.73067	26
3.73433	26
3.73800	26
3.74167	26
3.74533	26
3.74900	26
3.75267	26
3.75633	26
3.76000	27
3.76367	27
3.76733	27
3.77100	27
3.77467	27
3.77833	27
3.78200	27
3.78567	27
3.78933	27
3.79300	27
3.79667	27
3.80033	27
3.80400	27
3.80767	27
3.81133	27
3.81500	27
3.81867	27
3.82233	27
3.82600	27
3.82967	27
3.83333	27
3.83700	27
3.84067	27
3.84433	27
3.84800	27
3.85167	27
3.85533	27
3.85900	27
3.86267	27
3.86633	27
3.87000	27
3.87367	27
3.87733	27
3.88100	27
3.88467	27
3.88833	28
3.89200	28
3.89567	28
3.89933	28
3.90300	28
3.90667	27
3.91033	27
3.91400	27
3.91767	26
3.92133	26
3.92500	26
3.92867	27
3.93233	27
3.93600	27
3.93967	27
3.94333	27
3.94700	27
3.95067	27
3.95433	27
3.95800	27
3.96167	27
3.96533	27
3.96900	27
3.97267	27
3.97633	27
3.98000	27
3.98367	27
3.98733	27
3.99100	27
3.99467	27
3.99833	28

[Chromatogram (Ch3)]
Interval(msec)	220
# of Points	1091
Start Time(min)	0.002
End Time(min)	3.998
R.Time (min)	Intensity
0.00167	-1
0.00533	-1
0.00900	-0
0.01267	0
0.01633	2
0.02000	2
0.02367	0
0.02733	-0
0.03100	1
0.03467	2
0.03833	1
0.04200	-1
0.04567	-3
0.04933	-1
0.05300	-1
0.05667	-3
0.06033	-5
0.06400	-5
0.06767	-4
0.07133	-2
0.07500	-2
0.07867	-4
0.08233	-2
0.08600	0
0.08967	2
0.09333	1
0.09700	-1
0.10067	-3
0.10433	-2
0.10800	-1
0.11167	2
0.11533	3
0.11900	1
0.12267	1
0.12633	3
0.13000	3
0.13367	1
0.13733	0
0.14100	-1
0.14467	1
0.14833	1
0.15200	1
0.15567	1
0.15933	-2
0.16300	-1
0.16667	-0
0.17033	-1
0.17400	-4
0.17767	-6
0.18133	-3
0.18500	1
0.18867	2
0.19233	0
0.19600	-2
0.19967	-3
0.20333	-1
0.20700	3
0.21067	3
0.21433	-0
0.21800	-3
0.22167	-1
0.22533	1
0.22900	-1
0.23267	-2
0.23633	-1
0.24000	1
0.24367	3
0.24733	5
0.25100	3
0.25467	2
0.25833	-0
0.26200	1
0.26567	3
0.26933	2
0.27300	1
0.27667	1
0.28033	1
0.28400	2
0.28767	1
0.29133	-1
0.29500	-1
0.29867	-1
0.30233	-1
0.30600	2
0.30967	4
0.31333	3
0.31700	1
0.32067	-0
0.32433	2
0.32800	3
0.33167	4
0.33533	5
0.33900	4
0.34267	3
0.34633	2
0.35000	3
0.35367	5
0.35733	4
0.36100	2
0.36467	-1
0.36833	-1
0.37200	-2
0.37567	-1
0.37933	-2
0.38300	-1
0.38667	-2
0.39033	-0
0.39400	3
0.39767	4
0.40133	3
0.40500	3
0.40867	3
0.41233	4
0.41600	6
0.41967	5
0.42333	3
0.42700	0
0.43067	-1
0.43433	-0
0.43800	0
0.44167	2
0.44533	0
0.44900	-1
0.45267	-1
0.45633	-2
0.46000	-2
0.46367	-2
0.46733	-2
0.47100	-1
0.47467	2
0.47833	3
0.48200	1
0.48567	-2
0.48933	-1
0.49300	1
0.49667	4
0.50033	3
0.50400	-1
0.50767	-4
0.51133	-5
0.51500	-5
0.51867	-7
0.52233	-8
0.52600	-6
0.52967	-4
0.53333	-3
0.53700	-3
0.54067	-5
0.54433	-5
0.54800	-2
0.55167	-2
0.55533	-2
0.55900	-2
0.56267	-2
0.56633	0
0.57000	1
0.57367	1
0.57733	-0
0.58100	1
0.58467	1
0.58833	3
0.59200	6
0.59567	5
0.59933	2
0.60300	2
0.60667	2
0.61033	4
0.61400	4
0.61767	3
0.62133	0
0.62500	-2
0.62867	-3
0.63233	-4
0.63600	-5
0.63967	-5
0.64333	-4
0.64700	-1
0.65067	2
0.65433	5
0.65800	7
0.66167	5
0.66533	2
0.66900	-0
0.67267	-1
0.67633	1
0.68000	4
0.68367	4
0.68733	2
0.69100	0
0.69467	3
0.69833	6
0.70200	7
0.70567	7
0.70933	4
0.71300	4
0.71667	5
0.72033	7
0.72400	8
0.72767	9
0.73133	8
0.73500	5
0.73867	3
0.74233	1
0.74600	4
0.74967	5
0.75333	3
0.75700	2
0.76067	3
0.76433	4
0.76800	7
0.77167	10
0.77533	11
0.77900	9
0.78267	7
0.78633	6
0.79000	5
0.79367	6
0.79733	6
0.80100	3
0.80467	1
0.80833	-2
0.81200	-2
0.81567	2
0.81933	4
0.82300	5
0.82667	4
0.83033	2
0.83400	1
0.83767	2
0.84133	2
0.84500	2
0.84867	1
0.85233	-1
0.85600	-0
0.85967	1
0.86333	1
0.86700	0
0.87067	-1
0.87433	-1
0.87800	1
0.88167	4
0.88533	4
0.88900	1
0.89267	-1
0.89633	-2
0.90000	1
0.90367	5
0.90733	6
0.91100	6
0.91467	5
0.91833	4
0.92200	5
0.92567	8
0.92933	12
0.93300	14
0.93667	13
0.94033	8
0.94400	4
0.94767	2
0.95133	2
0.95500	2
0.95867	1
0.96233	2
0.96600	3
0.96967	4
0.97333	4
0.97700	5
0.98067	9
0.98433	12
0.98800	10
0.99167	5
0.99533	3
0.99900	4
1.00267	6
1.00633	6
1.01000	4
1.01367	2
1.01733	4
1.02100	7
1.02467	8
1.02833	9
1.03200	10
1.03567	9
1.03933	6
1.04300	7
1.04667	9
1.05033	9
1.05400	11
1.05767	13
1.06133	15
1.06500	15
1.06867	12
1.07233	11
1.07600	9
1.07967	10
1.08333	12
1.08700	13
1.09067	13
1.09433	13
1.09800	13
1.10167	11
1.10533	9
1.10900	6
1.11267	5
1.11633	7
1.12000	8
1.12367	8
1.12733	9
1.13100	10
1.13467	9
1.13833	10
1.14200	12
1.14567	12
1.14933	13
1.15300	16
1.15667	16
1.16033	17
1.16400	17
1.16767	14
1.17133	13
1.17500	10
1.17867	10
1.18233	9
1.18600	8
1.18967	8
1.19333	8
1.19700	7
1.20067	6
1.20433	7
1.20800	8
1.21167	7
1.21533	8
1.21900	10
1.22267	10
1.22633	8
1.23000	4
1.23367	1
1.23733	2
1.24100	3
1.24467	5
1.24833	6
1.25200	5
1.25567	4
1.25933	4
1.26300	5
1.26667	5
1.27033	5
1.27400	5
1.27767	5
1.28133	5
1.28500	7
1.28867	10
1.29233	12
1.29600	12
1.29967	12
1.30333	11
1.30700	9
1.31067	8
1.31433	8
1.31800	12
1.32167	16
1.32533	18
1.32900	18
1.33267	19
1.33633	19
1.34000	18
1.34367	17
1.34733	17
1.35100	17
1.35467	17
1.35833	15
1.36200	14
1.36567	14
1.36933	16
1.37300	15
1.37667	15
1.38033	16
1.38400	15
1.38767	13
1.39133	11
1.39500	9
1.39867	10
1.40233	10
1.40600	9
1.40967	9
1.41333	8
1.41700	7
1.42067	8
1.42433	7
1.42800	7
1.43167	9
1.43533	9
1.43900	8
1.44267	8
1.44633	7
1.45000	8
1.45367	10
1.45733	10
1.46100	11
1.46467	11
1.46833	13
1.47200	16
1.47567	17
1.47933	15
1.48300	15
1.48667	17
1.49033	13
1.49400	8
1.49767	6
1.50133	6
1.50500	7
1.50867	6
1.51233	7
1.51600	8
1.51967	8
1.52333	9
1.52700	10
1.53067	9
1.53433	9
1.53800	4
1.54167	3
1.54533	3
1.54900	6
1.55267	9
1.55633	10
1.56000	11
1.56367	12
1.56733	12
1.57100	12
1.57467	10
1.57833	7
1.58200	8
1.58567	7
1.58933	8
1.59300	7
1.59667	5
1.60033	4
1.60400	5
1.60767	7
1.61133	8
1.61500	10
1.61867	10
1.62233	11
1.62600	10
1.62967	9
1.63333	10
1.63700	11
1.64067	13
1.64433	14
1.64800	14
1.65167	16
1.65533	17
1.65900	16
1.66267	14
1.66633	12
1.67000	13
1.67367	14
1.67733	17
1.68100	18
1.68467	19
1.68833	21
1.69200	22
1.69567	21
1.69933	20
1.70300	21
1.70667	21
1.71033	21
1.71400	20
1.71767	21
1.72133	20
1.72500	19
1.72867	18
1.73233	15
1.73600	14
1.73967	16
1.74333	18
1.74700	21
1.75067	24
1.75433	24
1.75800	25
1.76167	24
1.76533	23
1.76900	22
1.77267	21
1.77633	20
1.78000	20
1.78367	23
1.78733	26
1.79100	26
1.79467	27
1.79833	27
1.80200	26
1.80567	24
1.80933	21
1.81300	19
1.81667	19
1.82033	21
1.82400	23
1.82767	26
1.83133	27
1.83500	28
1.83867	27
1.84233	25
1.84600	23
1.84967	22
1.85333	20
1.85700	19
1.86067	21
1.86433	22
1.86800	22
1.87167	23
1.87533	23
1.87900	24
1.88267	27
1.88633	29
1.89000	31
1.89367	30
1.89733	29
1.90100	29
1.90467	30
1.90833	31
1.91200	31
1.91567	31
1.91933	28
1.92300	29
1.92667	34
1.93033	37
1.93400	38
1.93767	37
1.94133	36
1.94500	37
1.94867	37
1.95233	38
1.95600	40
1.95967	41
1.96333	42
1.96700	42
1.97067	42
1.97433	40
1.97800	41
1.98167	43
1.98533	45
1.98900	47
1.99267	48
1.99633	49
2.00000	48
2.00367	46
2.00733	48
2.01100	48
2.01467	48
2.01833	47
2.02200	46
2.02567	44
2.02933	43
2.03300	46
2.03667	49
2.04033	53
2.04400	54
2.04767	51
2.05133	47
2.05500	48
2.05867	53
2.06233	57
2.06600	58
2.06967	59
2.07333	58
2.07700	57
2.08067	59
2.08433	60
2.08800	62
2.09167	63
2.09533	63
2.09900	63
2.10267	63
2.10633	64
2.11000	67
2.11367	66
2.11733	65
2.12100	64
2.12467	65
2.12833	67
2.13200	68
2.13567	70
2.13933	73
2.14300	74
2.14667	76
2.15033	78
2.15400	80
2.15767	81
2.16133	80
2.16500	80
2.16867	81
2.17233	82
2.17600	84
2.17967	85
2.18333	84
2.18700	84
2.19067	83
2.19433	82
2.19800	81
2.20167	80
2.20533	80
2.20900	82
2.21267	84
2.21633	83
2.22000	84
2.22367	85
2.22733	86
2.23100	90
2.23467	92
2.23833	93
2.24200	92
2.24567	94
2.24933	95
2.25300	95
2.25667	93
2.26033	93
2.26400	98
2.26767	101
2.27133	100
2.27500	102
2.27867	105
2.28233	104
2.28600	103
2.28967	101
2.29333	102
2.29700	102
2.30067	105
2.30433	108
2.30800	109
2.31167	109
2.31533	109
2.31900	109
2.32267	107
2.32633	106
2.33000	105
2.33367	109
2.33733	111
2.34100	112
2.34467	112
2.34833	113
2.35200	115
2.35567	114
2.35933	113
2.36300	111
2.36667	111
2.37033	109
2.37400	109
2.37767	108
2.38133	106
2.38500	103
2.38867	101
2.39233	101
2.39600	107
2.39967	116
2.40333	124
2.40700	128
2.41067	132
2.41433	136
2.41800	138
2.42167	138
2.42533	138
2.42900	137
2.43267	135
2.43633	133
2.44000	139
2.44367	189
2.44733	277
2.45100	355
2.45467	409
2.45833	431
2.46200	423
2.46567	401
2.46933	377
2.47300	359
2.47667	345
2.48033	328
2.48400	306
2.48767	282
2.49133	259
2.49500	240
2.49867	225
2.50233	215
2.50600	209
2.50967	209
2.51333	214
2.51700	218
2.52067	225
2.52433	227
2.52800	224
2.53167	217
2.53533	205
2.53900	192
2.54267	180
2.54633	169
2.55000	158
2.55367	147
2.55733	135
2.56100	125
2.56467	118
2.56833	114
2.57200	109
2.57567	108
2.57933	111
2.58300	116
2.58667	121
2.59033	125
2.59400	130
2.59767	133
2.60133	139
2.60500	147
2.60867	157
2.61233	164
2.61600	170
2.61967	177
2.62333	181
2.62700	183
2.63067	179
2.63433	176
2.63800	172
2.64167	164
2.64533	155
2.64900	146
2.65267	136
2.65633	127
2.66000	116
2.66367	104
2.66733	97
2.67100	93
2.67467	86
2.67833	80
2.68200	78
2.68567	75
2.68933	71
2.69300	66
2.69667	61
2.70033	57
2.70400	58
2.70767	59
2.71133	60
2.71500	59
2.71867	57
2.72233	57
2.72600	58
2.72967	58
2.73333	56
2.73700	54
2.74067	53
2.74433	55
2.74800	58
2.75167	58
2.75533	57
2.75900	57
2.76267	59
2.76633	62
2.77000	64
2.77367	66
2.77733	69
2.78100	70
2.78467	73
2.78833	78
2.79200	80
2.79567	81
2.79933	83
2.80300	88
2.80667	91
2.81033	96
2.81400	99
2.81767	103
2.82133	105
2.82500	110
2.82867	113
2.83233	115
2.83600	122
2.83967	143
2.84333	184
2.84700	259
2.85067	390
2.85433	596
2.85800	891
2.86167	1274
2.86533	1725
2.86900	2220
2.87267	2719
2.87633	3183
2.88000	3573
2.88367	3855
2.88733	4013
2.89100	4051
2.89467	3980
2.89833	3819
2.90200	3593
2.90567	3328
2.90933	3038
2.91300	2741
2.91667	2455
2.92033	2184
2.92400	1933
2.92767	1702
2.93133	1493
2.93500	1308
2.93867	1146
2.94233	1003
2.94600	876
2.94967	766
2.95333	672
2.95700	589
2.96067	516
2.96433	453
2.96800	400
2.97167	355
2.97533	315
2.97900	282
2.98267	254
2.98633	227
2.99000	205
2.99367	188
2.99733	173
3.00100	161
3.00467	152
3.00833	144
3.01200	138
3.01567	131
3.01933	125
3.02300	122
3.02667	120
3.03033	117
3.03400	110
3.03767	108
3.04133	109
3.04500	110
3.04867	109
3.05233	108
3.05600	108
3.05967	106
3.06333	106
3.06700	106
3.07067	107
3.07433	108
3.07800	109
3.08167	113
3.08533	116
3.08900	117
3.09267	116
3.09633	115
3.10000	115
3.10367	117
3.10733	116
3.11100	116
3.11467	116
3.11833	116
3.12200	118
3.12567	117
3.12933	116
3.13300	114
3.13667	114
3.14033	119
3.14400	122
3.14767	124
3.15133	124
3.15500	123
3.15867	125
3.16233	128
3.16600	129
3.16967	129
3.17333	130
3.17700	132
3.18067	135
3.18433	137
3.18800	140
3.19167	143
3.19533	142
3.19900	134
3.20267	134
3.20633	152
3.21000	193
3.21367	252
3.21733	321
3.22100	389
3.22467	459
3.22833	528
3.23200	597
3.23567	664
3.23933	729
3.24300	788
3.24667	837
3.25033	877
3.25400	912
3.25767	941
3.26133	965
3.26500	986
3.26867	1003
3.27233	1015
3.27600	1024
3.27967	1031
3.28333	1036
3.28700	1038
3.29067	1038
3.29433	1037
3.29800	1037
3.30167	1035
3.30533	1034
3.30900	1032
3.31267	1028
3.31633	1024
3.32000	1018
3.32367	1013
3.32733	1011
3.33100	1006
3.33467	1000
3.33833	996
3.34200	992
3.34567	988
3.34933	985
3.35300	981
3.35667	978
3.36033	976
3.36400	972
3.36767	969
3.37133	963
3.37500	958
3.37867	954
3.38233	951
3.38600	946
3.38967	941
3.39333	934
3.39700	928
3.40067	926
3.40433	922
3.40800	919
3.41167	914
3.41533	907
3.41900	902
3.42267	898
3.42633	893
3.43000	887
3.43367	881
3.43733	877
3.44100	873
3.44467	870
3.44833	869
3.45200	868
3.45567	864
3.45933	860
3.46300	858
3.46667	855
3.47033	853
3.47400	849
3.47767	845
3.48133	842
3.48500	840
3.48867	841
3.49233	842
3.49600	840
3.49967	835
3.50333	831
3.50700	828
3.51067	826
3.51433	822
3.51800	819
3.52167	818
3.52533	818
3.52900	817
3.53267	818
3.53633	819
3.54000	816
3.54367	811
3.54733	807
3.55100	805
3.55467	804
3.55833	803
3.56200	803
3.56567	802
3.56933	801
3.57300	800
3.57667	798
3.58033	794
3.58400	790
3.58767	788
3.59133	786
3.59500	786
3.59867	786
3.60233	784
3.60600	781
3.60967	777
3.61333	773
3.61700	771
3.62067	767
3.62433	765
3.62800	767
3.63167	770
3.63533	772
3.63900	774
3.64267	774
3.64633	772
3.65000	769
3.65367	765
3.65733	763
3.66100	760
3.66467	758
3.66833	758
3.67200	759
3.67567	756
3.67933	754
3.68300	755
3.68667	753
3.69033	749
3.69400	747
3.69767	747
3.70133	747
3.70500	746
3.70867	743
3.71233	739
3.71600	736
3.71967	733
3.72333	731
3.72700	730
3.73067	727
3.73433	725
3.73800	720
3.74167	715
3.74533	711
3.74900	708
3.75267	708
3.75633	709
3.76000	710
3.76367	709
3.76733	705
3.77100	699
3.77467	696
3.77833	693
3.78200	691
3.78567	691
3.78933	689
3.79300	685
3.79667	683
3.80033	681
3.80400	679
3.80767	678
3.81133	677
3.81500	675
3.81867	675
3.82233	675
3.82600	674
3.82967	673
3.83333	672
3.83700	668
3.84067	663
3.84433	660
3.84800	659
3.85167	658
3.85533	661
3.85900	662
3.86267	658
3.86633	658
3.87000	659
3.87367	659
3.87733	656
3.88100	655
3.88467	654
3.88833	653
3.89200	650
3.89567	650
3.89933	650
3.90300	647
3.90667	643
3.91033	641
3.91400	638
3.91767	638
3.92133	638
3.92500	636
3.92867	633
3.93233	630
3.93600	628
3.93967	626
3.94333	626
3.94700	627
3.95067	625
3.95433	621
3.95800	619
3.96167	619
3.96533	619
3.96900	617
3.97267	618
3.97633	616
3.98000	611
3.98367	610
3.98733	607
3.99100	605
3.99467	604
3.99833	602

[Status Trace (Column Oven Temperature)]
Interval(msec)	1000
# of Points	239
Start Time(min)	0.012
End Time(min)	3.979
Intensity Units	
Intensity Multiplier	1
R.Time (min)	Intensity
0.01217	35.01
0.02883	35.00
0.04550	35.00
0.06217	34.99
0.07883	34.98
0.09550	35.00
0.11217	35.01
0.12883	35.00
0.14550	35.00
0.16217	35.00
0.17883	34.99
0.19550	34.99
0.21217	35.00
0.22883	35.00
0.24550	35.00
0.26217	35.00
0.27883	35.01
0.29550	35.00
0.31217	35.00
0.32883	35.00
0.34550	35.00
0.36217	35.00
0.37883	35.00
0.39550	35.00
0.41217	35.00
0.42883	35.00
0.44550	34.99
0.46217	34.99
0.47883	34.99
0.49550	34.99
0.51217	35.00
0.52883	34.99
0.54550	35.00
0.56217	35.00
0.57883	34.99
0.59550	34.99
0.61217	34.99
0.62883	34.99
0.64550	34.98
0.66217	34.98
0.67883	34.98
0.69550	34.99
0.71217	35.00
0.72883	35.00
0.74550	34.99
0.76217	35.00
0.77883	35.00
0.79550	35.00
0.81217	34.99
0.82883	34.99
0.84550	34.98
0.86217	34.98
0.87883	34.99
0.89550	35.01
0.91217	35.00
0.92883	35.00
0.94550	35.00
0.96217	34.99
0.97883	34.99
0.99550	34.99
1.01217	34.99
1.02883	34.99
1.04550	34.99
1.06217	35.00
1.07883	35.00
1.09550	34.99
1.11217	35.00
1.12883	35.01
1.14550	35.01
1.16217	35.01
1.17883	35.00
1.19550	35.00
1.21217	35.00
1.22883	34.98
1.24550	34.98
1.26217	34.98
1.27883	34.98
1.29550	34.99
1.31217	34.98
1.32883	34.98
1.34550	34.98
1.36217	34.99
1.37883	34.99
1.39550	34.99
1.41217	35.00
1.42883	35.01
1.44550	35.01
1.46217	35.00
1.47883	35.00
1.49550	35.00
1.51217	35.00
1.52883	34.99
1.54550	34.99
1.56217	34.99
1.57883	34.99
1.59550	35.01
1.61217	35.08
1.62883	35.23
1.64550	35.44
1.66217	35.70
1.67883	36.05
1.69550	36.43
1.71217	36.77
1.72883	37.13
1.74550	37.43
1.76217	37.75
1.77883	38.10
1.79550	38.44
1.81217	38.75
1.82883	39.07
1.84550	39.41
1.86217	39.74
1.87883	40.07
1.89550	40.41
1.91217	40.74
1.92883	41.08
1.94550	41.40
1.96217	41.73
1.97883	42.07
1.99550	42.39
2.01217	42.72
2.02883	43.06
2.04550	43.38
2.06217	43.69
2.07883	44.01
2.09550	44.37
2.11217	44.69
2.12883	45.01
2.14550	45.34
2.16217	45.67
2.17883	46.00
2.19550	46.32
2.21217	46.65
2.22883	46.98
2.24550	47.29
2.26217	47.65
2.27883	47.95
2.29550	48.27
2.31217	48.63
2.32883	48.94
2.34550	49.27
2.36217	49.51
2.37883	49.64
2.39550	49.66
2.41217	49.67
2.42883	49.66
2.44550	49.68
2.46217	49.70
2.47883	49.70
2.49550	49.72
2.51217	49.74
2.52883	49.77
2.54550	49.76
2.56217	49.78
2.57883	49.80
2.59550	49.81
2.61217	49.81
2.62883	49.82
2.64550	49.83
2.66217	49.83
2.67883	49.84
2.69550	49.85
2.71217	49.87
2.72883	49.87
2.74550	49.86
2.76217	49.86
2.77883	49.85
2.79550	49.87
2.81217	49.90
2.82883	49.91
2.84550	49.91
2.86217	49.92
2.87883	49.93
2.89550	49.94
2.91217	49.95
2.92883	49.95
2.94550	49.95
2.96217	49.96
2.97883	49.96
2.99550	49.97
3.01217	49.97
3.02883	49.98
3.04550	49.98
3.06217	49.98
3.07883	50.00
3.09550	50.01
3.11217	50.02
3.12883	50.02
3.14550	50.03
3.16217	50.03
3.17883	50.03
3.19550	50.04
3.21217	50.05
3.22883	50.05
3.24550	50.05
3.26217	50.06
3.27883	50.07
3.29550	50.08
3.31217	50.09
3.32883	50.10
3.34550	50.10
3.36217	50.10
3.37883	50.10
3.39550	50.09
3.41217	50.09
3.42883	50.09
3.44550	50.09
3.46217	50.09
3.47883	50.09
3.49550	50.08
3.51217	50.08
3.52883	50.08
3.54550	50.08
3.56217	50.09
3.57883	50.08
3.59550	50.08
3.61217	50.08
3.62883	50.08
3.64550	50.07
3.66217	50.07
3.67883	50.07
3.69550	50.06
3.71217	50.06
3.72883	50.06
3.74550	50.06
3.76217	50.06
3.77883	50.06
3.79550	50.07
3.81217	50.07
3.82883	50.07
3.84550	50.07
3.86217	50.07
3.87883	50.07
3.89550	50.07
3.91217	50.07
3.92883	50.06
3.94550	50.07
3.96217	50.07
3.97883	50.07

[Status Trace (Injection Unit Temperature)]
Interval(msec)	1000
# of Points	239
Start Time(min)	0.012
End Time(min)	3.979
Intensity Units	
Intensity Multiplier	1
R.Time (min)	Intensity
0.01217	99.97
0.02883	99.97
0.04550	99.97
0.06217	99.97
0.07883	99.97
0.09550	99.97
0.11217	99.97
0.12883	99.97
0.14550	99.97
0.16217	99.97
0.17883	99.97
0.19550	99.97
0.21217	99.97
0.22883	99.97
0.24550	99.97
0.26217	99.97
0.27883	99.97
0.29550	99.97
0.31217	99.98
0.32883	99.98
0.34550	99.97
0.36217	99.98
0.37883	99.97
0.39550	99.98
0.41217	99.98
0.42883	99.98
0.44550	99.98
0.46217	99.98
0.47883	99.98
0.49550	99.98
0.51217	99.98
0.52883	99.98
0.54550	99.98
0.56217	99.98
0.57883	99.98
0.59550	99.98
0.61217	99.98
0.62883	99.98
0.64550	99.98
0.66217	99.98
0.67883	99.98
0.69550	99.98
0.71217	99.98
0.72883	99.98
0.74550	99.98
0.76217	99.98
0.77883	99.98
0.79550	99.98
0.81217	99.98
0.82883	99.98
0.84550	99.98
0.86217	99.98
0.87883	99.99
0.89550	99.98
0.91217	99.98
0.92883	99.98
0.94550	99.98
0.96217	99.98
0.97883	99.98
0.99550	99.99
1.01217	99.99
1.02883	99.98
1.04550	99.98
1.06217	99.98
1.07883	99.98
1.09550	99.98
1.11217	99.99
1.12883	99.98
1.14550	99.98
1.16217	99.98
1.17883	99.99
1.19550	99.99
1.21217	99.98
1.22883	99.99
1.24550	99.98
1.26217	99.99
1.27883	99.99
1.29550	99.99
1.31217	99.98
1.32883	99.99
1.34550	99.99
1.36217	99.98
1.37883	99.98
1.39550	99.98
1.41217	99.98
1.42883	99.98
1.44550	99.99
1.46217	99.98
1.47883	99.98
1.49550	99.98
1.51217	99.98
1.52883	99.98
1.54550	99.98
1.56217	99.98
1.57883	99.98
1.59550	99.98
1.61217	99.98
1.62883	99.98
1.64550	99.98
1.66217	99.98
1.67883	99.98
1.69550	99.98
1.71217	99.98
1.72883	99.98
1.74550	99.98
1.76217	99.98
1.77883	99.98
1.79550	99.98
1.81217	99.97
1.82883	99.98
1.84550	99.97
1.86217	99.98
1.87883	99.98
1.89550	99.97
1.91217	99.97
1.92883	99.97
1.94550	99.97
1.96217	99.97
1.97883	99.97
1.99550	99.97
2.01217	99.97
2.02883	99.97
2.04550	99.97
2.06217	99.96
2.07883	99.97
2.09550	99.97
2.11217	99.97
2.12883	99.97
2.14550	99.96
2.16217	99.96
2.17883	99.97
2.19550	99.97
2.21217	99.97
2.22883	99.96
2.24550	99.96
2.26217	99.96
2.27883	99.96
2.29550	99.96
2.31217	99.97
2.32883	99.96
2.34550	99.97
2.36217	99.96
2.37883	99.96
2.39550	99.96
2.41217	99.96
2.42883	99.96
2.44550	99.96
2.46217	99.96
2.47883	99.97
2.49550	99.97
2.51217	99.97
2.52883	99.96
2.54550	99.96
2.56217	99.97
2.57883	99.97
2.59550	99.97
2.61217	99.97
2.62883	99.97
2.64550	99.98
2.66217	99.98
2.67883	99.98
2.69550	99.98
2.71217	99.98
2.72883	99.98
2.74550	99.98
2.76217	99.99
2.77883	99.99
2.79550	99.99
2.81217	99.99
2.82883	100.00
2.84550	99.99
2.86217	100.00
2.87883	100.00
2.89550	100.00
2.91217	100.00
2.92883	100.01
2.94550	100.01
2.96217	100.01
2.97883	100.01
2.99550	100.01
3.01217	100.01
3.02883	100.01
3.04550	100.01
3.06217	100.01
3.07883	100.01
3.09550	100.01
3.11217	100.01
3.12883	100.01
3.14550	100.02
3.16217	100.01
3.17883	100.02
3.19550	100.01
3.21217	100.02
3.22883	100.02
3.24550	100.02
3.26217	100.02
3.27883	100.02
3.29550	100.02
3.31217	100.02
3.32883	100.02
3.34550	100.03
3.36217	100.02
3.37883	100.02
3.39550	100.03
3.41217	100.03
3.42883	100.02
3.44550	100.02
3.46217	100.02
3.47883	100.02
3.49550	100.03
3.51217	100.03
3.52883	100.03
3.54550	100.03
3.56217	100.03
3.57883	100.03
3.59550	100.03
3.61217	100.03
3.62883	100.03
3.64550	100.03
3.66217	100.03
3.67883	100.03
3.69550	100.03
3.71217	100.04
3.72883	100.03
3.74550	100.04
3.76217	100.03
3.77883	100.03
3.79550	100.04
3.81217	100.03
3.82883	100.03
3.84550	100.03
3.86217	100.03
3.87883	100.03
3.89550	100.03
3.91217	100.04
3.92883	100.03
3.94550	100.04
3.96217	100.04
3.97883	100.04

[Status Trace (Carrier Gas Pressure)]
Interval(msec)	1000
# of Points	239
Start Time(min)	0.012
End Time(min)	3.979
Intensity Units	
Intensity Multiplier	1
R.Time (min)	Intensity
0.01217	57.98
0.02883	54.94
0.04550	57.63
0.06217	59.69
0.07883	59.04
0.09550	58.01
0.11217	57.99
0.12883	58.01
0.14550	58.01
0.16217	58.00
0.17883	58.00
0.19550	58.00
0.21217	58.00
0.22883	58.00
0.24550	58.00
0.26217	58.00
0.27883	58.00
0.29550	58.00
0.31217	58.00
0.32883	58.00
0.34550	58.00
0.36217	58.00
0.37883	58.00
0.39550	58.00
0.41217	58.00
0.42883	58.00
0.44550	58.00
0.46217	58.00
0.47883	58.00
0.49550	58.00
0.51217	58.00
0.52883	58.00
0.54550	58.00
0.56217	58.00
0.57883	58.00
0.59550	58.00
0.61217	58.00
0.62883	58.00
0.64550	58.00
0.66217	58.00
0.67883	58.00
0.69550	58.00
0.71217	58.00
0.72883	58.00
0.74550	58.00
0.76217	58.00
0.77883	58.00
0.79550	58.00
0.81217	58.00
0.82883	58.00
0.84550	58.00
0.86217	58.00
0.87883	58.00
0.89550	58.00
0.91217	58.00
0.92883	58.00
0.94550	58.00
0.96217	58.00
0.97883	58.00
0.99550	58.00
1.01217	58.00
1.02883	58.00
1.04550	58.00
1.06217	58.00
1.07883	58.00
1.09550	58.00
1.11217	58.00
1.12883	58.00
1.14550	58.00
1.16217	58.00
1.17883	58.00
1.19550	58.00
1.21217	58.00
1.22883	58.00
1.24550	58.00
1.26217	58.00
1.27883	58.00
1.29550	58.00
1.31217	58.00
1.32883	58.00
1.34550	58.00
1.36217	58.00
1.37883	58.00
1.39550	58.00
1.41217	58.00
1.42883	58.00
1.44550	58.00
1.46217	58.00
1.47883	58.00
1.49550	58.00
1.51217	58.00
1.52883	58.00
1.54550	58.00
1.56217	58.00
1.57883	58.00
1.59550	58.00
1.61217	58.00
1.62883	58.00
1.64550	58.00
1.66217	58.00
1.67883	58.01
1.69550	58.00
1.71217	58.00
1.72883	58.00
1.74550	58.00
1.76217	58.00
1.77883	58.00
1.79550	58.00
1.81217	58.00
1.82883	58.00
1.84550	58.00
1.86217	58.00
1.87883	58.00
1.89550	58.00
1.91217	58.00
1.92883	58.00
1.94550	58.00
1.96217	58.00
1.97883	58.00
1.99550	58.00
2.01217	58.00
2.02883	58.00
2.04550	58.00
2.06217	58.00
2.07883	58.00
2.09550	58.00
2.11217	58.00
2.12883	58.00
2.14550	58.00
2.16217	58.00
2.17883	58.00
2.19550	58.00
2.21217	58.00
2.22883	58.00
2.24550	58.00
2.26217	58.00
2.27883	58.00
2.29550	58.00
2.31217	58.00
2.32883	58.00
2.34550	58.00
2.36217	58.00
2.37883	57.99
2.39550	57.99
2.41217	58.00
2.42883	58.00
2.44550	58.00
2.46217	58.00
2.47883	58.00
2.49550	58.00
2.51217	57.99
2.52883	57.98
2.54550	58.00
2.56217	58.00
2.57883	58.00
2.59550	58.00
2.61217	58.00
2.62883	58.00
2.64550	58.00
2.66217	58.00
2.67883	58.00
2.69550	58.00
2.71217	58.00
2.72883	58.00
2.74550	58.00
2.76217	58.00
2.77883	58.00
2.79550	58.00
2.81217	58.00
2.82883	58.00
2.84550	58.00
2.86217	58.00
2.87883	58.00
2.89550	58.00
2.91217	58.00
2.92883	58.00
2.94550	58.00
2.96217	58.00
2.97883	58.00
2.99550	58.00
3.01217	58.00
3.02883	58.00
3.04550	58.00
3.06217	58.00
3.07883	58.00
3.09550	58.00
3.11217	58.00
3.12883	58.00
3.14550	58.00
3.16217	58.00
3.17883	58.00
3.19550	58.00
3.21217	58.00
3.22883	58.00
3.24550	58.00
3.26217	58.00
3.27883	58.00
3.29550	58.00
3.31217	58.00
3.32883	58.00
3.34550	58.00
3.36217	58.00
3.37883	58.00
3.39550	58.00
3.41217	58.00
3.42883	58.00
3.44550	58.00
3.46217	58.00
3.47883	58.00
3.49550	58.00
3.51217	58.00
3.52883	58.00
3.54550	58.00
3.56217	58.00
3.57883	58.00
3.59550	58.00
3.61217	58.00
3.62883	58.00
3.64550	58.00
3.66217	58.00
3.67883	58.00
3.69550	58.00
3.71217	58.00
3.72883	58.00
3.74550	58.00
3.76217	58.00
3.77883	58.00
3.79550	58.00
3.81217	58.00
3.82883	58.00
3.84550	58.00
3.86217	58.00
3.87883	58.00
3.89550	58.00
3.91217	58.00
3.92883	58.00
3.94550	58.00
3.96217	58.00
3.97883	58.00

[Status Trace (Carrier Gas Flow)]
Interval(msec)	1000
# of Points	239
Start Time(min)	0.012
End Time(min)	3.979
Intensity Units	
Intensity Multiplier	1
R.Time (min)	Intensity
0.01217	34.58
0.02883	34.54
0.04550	34.55
0.06217	34.54
0.07883	34.50
0.09550	34.52
0.11217	34.52
0.12883	34.52
0.14550	34.52
0.16217	34.52
0.17883	34.52
0.19550	34.52
0.21217	34.52
0.22883	34.52
0.24550	34.52
0.26217	34.52
0.27883	34.51
0.29550	34.52
0.31217	34.52
0.32883	34.52
0.34550	34.52
0.36217	34.52
0.37883	34.52
0.39550	34.52
0.41217	34.52
0.42883	34.52
0.44550	34.52
0.46217	34.52
0.47883	34.52
0.49550	34.52
0.51217	34.52
0.52883	34.52
0.54550	34.52
0.56217	34.52
0.57883	34.52
0.59550	34.52
0.61217	34.52
0.62883	34.52
0.64550	34.52
0.66217	34.52
0.67883	34.52
0.69550	34.52
0.71217	34.52
0.72883	34.51
0.74550	34.52
0.76217	34.52
0.77883	34.52
0.79550	34.52
0.81217	34.52
0.82883	34.52
0.84550	34.52
0.86217	34.52
0.87883	34.53
0.89550	34.52
0.91217	34.52
0.92883	34.52
0.94550	34.52
0.96217	34.51
0.97883	34.52
0.99550	34.52
1.01217	34.52
1.02883	34.52
1.04550	34.52
1.06217	34.52
1.07883	34.52
1.09550	34.52
1.11217	34.52
1.12883	34.51
1.14550	34.52
1.16217	34.52
1.17883	34.52
1.19550	34.52
1.21217	34.52
1.22883	34.51
1.24550	34.51
1.26217	34.52
1.27883	34.52
1.29550	34.52
1.31217	34.52
1.32883	34.51
1.34550	34.52
1.36217	34.52
1.37883	34.52
1.39550	34.52
1.41217	34.52
1.42883	34.52
1.44550	34.52
1.46217	34.51
1.47883	34.52
1.49550	34.52
1.51217	34.51
1.52883	34.52
1.54550	34.52
1.56217	34.52
1.57883	34.52
1.59550	34.52
1.61217	34.52
1.62883	34.52
1.64550	34.52
1.66217	34.52
1.67883	34.52
1.69550	34.52
1.71217	34.52
1.72883	34.51
1.74550	34.52
1.76217	34.52
1.77883	34.52
1.79550	34.52
1.81217	34.52
1.82883	34.53
1.84550	34.51
1.86217	34.52
1.87883	34.52
1.89550	34.52
1.91217	34.52
1.92883	34.52
1.94550	34.52
1.96217	34.52
1.97883	34.52
1.99550	34.52
2.01217	34.52
2.02883	34.52
2.04550	34.52
2.06217	34.52
2.07883	34.52
2.09550	34.52
2.11217	34.51
2.12883	34.52
2.14550	34.51
2.16217	34.52
2.17883	34.52
2.19550	34.52
2.21217	34.52
2.22883	34.51
2.24550	34.52
2.26217	34.53
2.27883	34.52
2.29550	34.51
2.31217	34.52
2.32883	34.52
2.34550	34.51
2.36217	34.52
2.37883	34.51
2.39550	34.52
2.41217	34.52
2.42883	34.51
2.44550	34.52
2.46217	34.52
2.47883	34.52
2.49550	34.52
2.51217	34.52
2.52883	34.53
2.54550	34.51
2.56217	34.52
2.57883	34.52
2.59550	34.53
2.61217	34.51
2.62883	34.52
2.64550	34.52
2.66217	34.51
2.67883	34.52
2.69550	34.52
2.71217	34.51
2.72883	34.52
2.74550	34.52
2.76217	34.51
2.77883	34.52
2.79550	34.52
2.81217	34.52
2.82883	34.52
2.84550	34.52
2.86217	34.51
2.87883	34.52
2.89550	34.51
2.91217	34.52
2.92883	34.53
2.94550	34.52
2.96217	34.52
2.97883	34.52
2.99550	34.52
3.01217	34.52
3.02883	34.52
3.04550	34.52
3.06217	34.52
3.07883	34.52
3.09550	34.51
3.11217	34.51
3.12883	34.52
3.14550	34.53
3.16217	34.52
3.17883	34.52
3.19550	34.52
3.21217	34.53
3.22883	34.51
3.24550	34.52
3.26217	34.52
3.27883	34.52
3.29550	34.52
3.31217	34.52
3.32883	34.52
3.34550	34.52
3.36217	34.52
3.37883	34.52
3.39550	34.51
3.41217	34.52
3.42883	34.52
3.44550	34.51
3.46217	34.52
3.47883	34.52
3.49550	34.52
3.51217	34.51
3.52883	34.52
3.54550	34.52
3.56217	34.52
3.57883	34.52
3.59550	34.52
3.61217	34.52
3.62883	34.52
3.64550	34.52
3.66217	34.52
3.67883	34.52
3.69550	34.52
3.71217	34.52
3.72883	34.52
3.74550	34.52
3.76217	34.52
3.77883	34.52
3.79550	34.52
3.81217	34.52
3.82883	34.52
3.84550	34.52
3.86217	34.52
3.87883	34.52
3.89550	34.52
3.91217	34.52
3.92883	34.51
3.94550	34.52
3.96217	34.52
3.97883	34.52

[Status Trace (Column Flow)]
Interval(msec)	1000
# of Points	239
Start Time(min)	0.012
End Time(min)	3.979
Intensity Units	
Intensity Multiplier	1
R.Time (min)	Intensity
0.01217	5.51
0.02883	5.16
0.04550	5.47
0.06217	5.71
0.07883	5.64
0.09550	5.51
0.11217	5.51
0.12883	5.52
0.14550	5.52
0.16217	5.51
0.17883	5.51
0.19550	5.51
0.21217	5.51
0.22883	5.51
0.24550	5.51
0.26217	5.51
0.27883	5.51
0.29550	5.51
0.31217	5.51
0.32883	5.51
0.34550	5.51
0.36217	5.51
0.37883	5.51
0.39550	5.51
0.41217	5.51
0.42883	5.51
0.44550	5.51
0.46217	5.51
0.47883	5.51
0.49550	5.51
0.51217	5.51
0.52883	5.51
0.54550	5.51
0.56217	5.51
0.57883	5.51
0.59550	5.51
0.61217	5.51
0.62883	5.51
0.64550	5.51
0.66217	5.51
0.67883	5.51
0.69550	5.51
0.71217	5.51
0.72883	5.51
0.74550	5.51
0.76217	5.51
0.77883	5.51
0.79550	5.51
0.81217	5.51
0.82883	5.51
0.84550	5.51
0.86217	5.51
0.87883	5.51
0.89550	5.51
0.91217	5.51
0.92883	5.51
0.94550	5.51
0.96217	5.51
0.97883	5.51
0.99550	5.51
1.01217	5.51
1.02883	5.51
1.04550	5.51
1.06217	5.51
1.07883	5.51
1.09550	5.51
1.11217	5.51
1.12883	5.51
1.14550	5.51
1.16217	5.51
1.17883	5.51
1.19550	5.51
1.21217	5.51
1.22883	5.51
1.24550	5.51
1.26217	5.51
1.27883	5.51
1.29550	5.51
1.31217	5.51
1.32883	5.51
1.34550	5.51
1.36217	5.51
1.37883	5.51
1.39550	5.51
1.41217	5.51
1.42883	5.51
1.44550	5.51
1.46217	5.51
1.47883	5.51
1.49550	5.51
1.51217	5.51
1.52883	5.51
1.54550	5.51
1.56217	5.51
1.57883	5.51
1.59550	5.51
1.61217	5.51
1.62883	5.51
1.64550	5.50
1.66217	5.49
1.67883	5.48
1.69550	5.47
1.71217	5.46
1.72883	5.45
1.74550	5.44
1.76217	5.43
1.77883	5.42
1.79550	5.41
1.81217	5.40
1.82883	5.39
1.84550	5.38
1.86217	5.37
1.87883	5.36
1.89550	5.35
1.91217	5.34
1.92883	5.33
1.94550	5.32
1.96217	5.31
1.97883	5.30
1.99550	5.29
2.01217	5.28
2.02883	5.27
2.04550	5.26
2.06217	5.25
2.07883	5.24
2.09550	5.23
2.11217	5.22
2.12883	5.21
2.14550	5.20
2.16217	5.19
2.17883	5.18
2.19550	5.17
2.21217	5.16
2.22883	5.16
2.24550	5.15
2.26217	5.14
2.27883	5.13
2.29550	5.12
2.31217	5.11
2.32883	5.10
2.34550	5.09
2.36217	5.08
2.37883	5.08
2.39550	5.08
2.41217	5.08
2.42883	5.08
2.44550	5.08
2.46217	5.08
2.47883	5.08
2.49550	5.08
2.51217	5.08
2.52883	5.08
2.54550	5.08
2.56217	5.08
2.57883	5.08
2.59550	5.08
2.61217	5.08
2.62883	5.08
2.64550	5.08
2.66217	5.08
2.67883	5.08
2.69550	5.08
2.71217	5.07
2.72883	5.07
2.74550	5.07
2.76217	5.07
2.77883	5.08
2.79550	5.07
2.81217	5.07
2.82883	5.07
2.84550	5.07
2.86217	5.07
2.87883	5.07
2.89550	5.07
2.91217	5.07
2.92883	5.07
2.94550	5.07
2.96217	5.07
2.97883	5.07
2.99550	5.07
3.01217	5.07
3.02883	5.07
3.04550	5.07
3.06217	5.07
3.07883	5.07
3.09550	5.07
3.11217	5.07
3.12883	5.07
3.14550	5.07
3.16217	5.07
3.17883	5.07
3.19550	5.07
3.21217	5.07
3.22883	5.07
3.24550	5.07
3.26217	5.07
3.27883	5.07
3.29550	5.07
3.31217	5.07
3.32883	5.07
3.34550	5.07
3.36217	5.07
3.37883	5.07
3.39550	5.07
3.41217	5.07
3.42883	5.07
3.44550	5.07
3.46217	5.07
3.47883	5.07
3.49550	5.07
3.51217	5.07
3.52883	5.07
3.54550	5.07
3.56217	5.07
3.57883	5.07
3.59550	5.07
3.61217	5.07
3.62883	5.07
3.64550	5.07
3.66217	5.07
3.67883	5.07
3.69550	5.07
3.71217	5.07
3.72883	5.07
3.74550	5.07
3.76217	5.07
3.77883	5.07
3.79550	5.07
3.81217	5.07
3.82883	5.07
3.84550	5.07
3.86217	5.07
3.87883	5.07
3.89550	5.07
3.91217	5.07
3.92883	5.07
3.94550	5.07
3.96217	5.07
3.97883	5.07

[Status Trace (Linear Velocity)]
Interval(msec)	1000
# of Points	239
Start Time(min)	0.012
End Time(min)	3.979
Intensity Units	
Intensity Multiplier	1
R.Time (min)	Intensity
0.01217	39.00
0.02883	37.00
0.04550	38.78
0.06217	40.12
0.07883	39.70
0.09550	39.02
0.11217	39.01
0.12883	39.02
0.14550	39.02
0.16217	39.02
0.17883	39.02
0.19550	39.02
0.21217	39.02
0.22883	39.02
0.24550	39.02
0.26217	39.02
0.27883	39.02
0.29550	39.02
0.31217	39.02
0.32883	39.02
0.34550	39.02
0.36217	39.01
0.37883	39.01
0.39550	39.02
0.41217	39.02
0.42883	39.01
0.44550	39.02
0.46217	39.02
0.47883	39.02
0.49550	39.02
0.51217	39.02
0.52883	39.02
0.54550	39.01
0.56217	39.02
0.57883	39.02
0.59550	39.02
0.61217	39.02
0.62883	39.02
0.64550	39.02
0.66217	39.02
0.67883	39.02
0.69550	39.02
0.71217	39.01
0.72883	39.02
0.74550	39.02
0.76217	39.02
0.77883	39.01
0.79550	39.02
0.81217	39.02
0.82883	39.02
0.84550	39.02
0.86217	39.02
0.87883	39.02
0.89550	39.01
0.91217	39.01
0.92883	39.01
0.94550	39.01
0.96217	39.02
0.97883	39.02
0.99550	39.02
1.01217	39.02
1.02883	39.02
1.04550	39.02
1.06217	39.01
1.07883	39.01
1.09550	39.02
1.11217	39.01
1.12883	39.01
1.14550	39.01
1.16217	39.01
1.17883	39.01
1.19550	39.01
1.21217	39.02
1.22883	39.02
1.24550	39.02
1.26217	39.02
1.27883	39.02
1.29550	39.02
1.31217	39.02
1.32883	39.02
1.34550	39.02
1.36217	39.02
1.37883	39.02
1.39550	39.02
1.41217	39.01
1.42883	39.01
1.44550	39.01
1.46217	39.01
1.47883	39.02
1.49550	39.01
1.51217	39.01
1.52883	39.02
1.54550	39.02
1.56217	39.02
1.57883	39.02
1.59550	39.01
1.61217	39.01
1.62883	39.00
1.64550	38.98
1.66217	38.95
1.67883	38.92
1.69550	38.88
1.71217	38.85
1.72883	38.81
1.74550	38.78
1.76217	38.75
1.77883	38.72
1.79550	38.69
1.81217	38.66
1.82883	38.63
1.84550	38.60
1.86217	38.56
1.87883	38.54
1.89550	38.50
1.91217	38.47
1.92883	38.44
1.94550	38.41
1.96217	38.38
1.97883	38.35
1.99550	38.32
2.01217	38.29
2.02883	38.26
2.04550	38.23
2.06217	38.20
2.07883	38.17
2.09550	38.14
2.11217	38.11
2.12883	38.08
2.14550	38.05
2.16217	38.02
2.17883	37.99
2.19550	37.96
2.21217	37.93
2.22883	37.90
2.24550	37.87
2.26217	37.84
2.27883	37.81
2.29550	37.78
2.31217	37.75
2.32883	37.73
2.34550	37.69
2.36217	37.67
2.37883	37.66
2.39550	37.66
2.41217	37.66
2.42883	37.66
2.44550	37.66
2.46217	37.66
2.47883	37.66
2.49550	37.66
2.51217	37.65
2.52883	37.64
2.54550	37.65
2.56217	37.65
2.57883	37.65
2.59550	37.65
2.61217	37.65
2.62883	37.65
2.64550	37.65
2.66217	37.65
2.67883	37.65
2.69550	37.64
2.71217	37.64
2.72883	37.64
2.74550	37.64
2.76217	37.64
2.77883	37.64
2.79550	37.64
2.81217	37.64
2.82883	37.64
2.84550	37.64
2.86217	37.64
2.87883	37.64
2.89550	37.64
2.91217	37.64
2.92883	37.63
2.94550	37.63
2.96217	37.63
2.97883	37.63
2.99550	37.63
3.01217	37.63
3.02883	37.63
3.04550	37.63
3.06217	37.63
3.07883	37.63
3.09550	37.63
3.11217	37.63
3.12883	37.63
3.14550	37.63
3.16217	37.63
3.17883	37.63
3.19550	37.63
3.21217	37.63
3.22883	37.63
3.24550	37.63
3.26217	37.63
3.27883	37.62
3.29550	37.62
3.31217	37.62
3.32883	37.62
3.34550	37.62
3.36217	37.62
3.37883	37.62
3.39550	37.62
3.41217	37.62
3.42883	37.62
3.44550	37.62
3.46217	37.62
3.47883	37.62
3.49550	37.62
3.51217	37.62
3.52883	37.62
3.54550	37.62
3.56217	37.62
3.57883	37.62
3.59550	37.62
3.61217	37.62
3.62883	37.62
3.64550	37.62
3.66217	37.62
3.67883	37.62
3.69550	37.62
3.71217	37.63
3.72883	37.62
3.74550	37.63
3.76217	37.63
3.77883	37.63
3.79550	37.62
3.81217	37.62
3.82883	37.62
3.84550	37.62
3.86217	37.62
3.87883	37.63
3.89550	37.62
3.91217	37.62
3.92883	37.63
3.94550	37.62
3.96217	37.63
3.97883	37.62

