[Header]
Application Name	LabSolutions
Version	5.110
Data File Name	C:\Users\User\Desktop\Junior\UIC Prairie Sampling\2023\8.18.23\081823_041.gcd
Output Date	8/31/2023
Output Time	12:48:09 PM

[File Information]
Type	Data File
Generated	8/30/2023 8:30:22 PM
Generated by	System Administrator
Modified	8/30/2023 8:36:44 PM
Modified by	System Administrator

[Sample Information]
Operator Name	System Administrator
Acquired	8/30/2023 8:32:43 PM
Sample Type	0:Unknown
Level	0
Sample Name	041
Sample ID	041
ISTD Amount1	1
ISTD Amount2	1
ISTD Amount3	1
ISTD Amount4	1
ISTD Amount5	1
ISTD Amount6	1
ISTD Amount7	1
ISTD Amount8	1
ISTD Amount9	1
ISTD Amount10	1
ISTD Amount11	1
ISTD Amount12	1
ISTD Amount13	1
ISTD Amount14	1
ISTD Amount15	1
ISTD Amount16	1
ISTD Amount17	1
ISTD Amount18	1
ISTD Amount19	1
ISTD Amount20	1
ISTD Amount21	1
ISTD Amount22	1
ISTD Amount23	1
ISTD Amount24	1
ISTD Amount25	1
ISTD Amount26	1
ISTD Amount27	1
ISTD Amount28	1
ISTD Amount29	1
ISTD Amount30	1
ISTD Amount31	1
ISTD Amount32	1
Sample Amount	1
Dilution Factor	1
Vial#	40
Injection Volume	1
Injection Count	1
Bar Code	

[Original Files]
Data File	C:\Users\User\Desktop\Junior\UIC Prairie Sampling\8.18.23\081823_041.gcd
Method File	C:\LabSolutions\Data\GHG_4min_2022\ghg3_togas_w_acet_4 min_new_int.gcm
Batch File	C:\LabSolutions\Data\BATCH FILES\081823.gcb
Report Format File	c:\LabSolutions\System\DEFAULT.lsr

[File Description]


[Configuration]
Instrument Name	C0B7VH3-Instrument1
Instrument #	1
Line #	1
# of Detectors	3
Detector ID	DET#1	DET#2	DET#3
Detector Name	FID	PTCD	ECD
# of Channels	1	1	1

[Peak Table(Ch1)]
# of Peaks	4
Peak#	R.Time	I.Time	F.Time	Area	Height	A/H	Conc.	Mark	ID#	Name	k'	Plate #	Plate Ht.	Tailing	Resolution	Sep.Factor	Area Ratio	Height Ratio	Conc. %	Norm Conc.
1	0.577	0.442	0.658	1315	178	7.372	0.000	   			0.000	151	994.813	0.817	0.000	0.000	0	0	0.000	0.000
2	1.472	1.432	1.527	3616	1826	1.980	0.000	   	1	CO	1.550	9948	15.078	1.312	7.241	0.000	0	0	0.000	0.000
3	1.564	1.527	1.622	4400	2240	1.964	21.452	 V 	2	CH4	1.708	11596	12.936	1.123	1.565	1.102	0	0	7.993	7.993
4	1.989	1.941	2.535	1281417	612747	2.091	246.953	   	3	CO2	2.445	17602	8.522	1.317	7.206	1.431	0	0	92.007	92.007

[Peak Table(Ch2)]
# of Peaks	0

[Peak Table(Ch3)]
# of Peaks	6
Peak#	R.Time	I.Time	F.Time	Area	Height	A/H	Conc.	Mark	ID#	Name	k'	Plate #	Plate Ht.	Tailing	Resolution	Sep.Factor	Area Ratio	Height Ratio	Conc. %	Norm Conc.
1	2.458	2.440	2.506	792	309	2.560	0.000	   			0.000	14167	10.588	0.000	0.000	0.000	0	0	0.000	0.000
2	2.524	2.506	2.572	390	142	2.744	0.000	 V 			0.027	4761	31.504	0.000	0.577	0.000	0	0	0.000	0.000
3	2.620	2.572	2.697	450	114	3.957	0.000	 V 			0.066	9284	16.156	0.000	0.747	2.444	0	0	0.000	0.000
4	2.891	2.741	3.038	14948	4051	3.690	0.221	   	1	N2O	0.176	13863	10.820	1.489	2.622	2.682	0	0	100.000	100.000
5	3.177	3.093	3.478	15390	891	17.265	0.000	   	2	SF6	0.292	244	615.440	0.000	0.627	1.661	0	0	0.000	0.000
6	3.566	3.478	3.995	8857	560	15.824	0.000	 V 			0.450	106	1420.317	0.000	0.353	1.541	0	0	0.000	0.000

[Compound Results(Ch1)]
# of IDs	6
ID#	Name	R.Time	Area	Height	Conc.	Curve	3rd	2nd	1st	Constant	Area Ratio	Height Ratio	Conc. %	Norm Conc.
1	CO	1.472	3616	1826	0.000	Linear	0.000000e+00	0.000000e+00	0.000000e+00	0.000000e+00	0	0	0.000	0.000
2	CH4	1.564	4400	2240	21.452	Linear	0.000000e+00	0.000000e+00	2.051179e+002	0.000000e+00	0	0	7.993	7.993
3	CO2	1.989	1281417	612747	246.953	Linear	0.000000e+00	0.000000e+00	5.188919e+003	0.000000e+00	0	0	92.007	92.007
4	Ethylene	0.000	0	0	0.000	Linear	0.000000e+00	0.000000e+00	0.000000e+00	0.000000e+00	0	0	0.000	0.000
5	Acetylene	0.000	0	0	0.000	Linear	0.000000e+00	0.000000e+00	0.000000e+00	0.000000e+00	0	0	0.000	0.000
6	Ethane	0.000	0	0	0.000	Linear	0.000000e+00	0.000000e+00	0.000000e+00	0.000000e+00	0	0	0.000	0.000

[Compound Results(Ch2)]
# of IDs	5
ID#	Name	R.Time	Area	Height	Conc.	Curve	3rd	2nd	1st	Constant	Area Ratio	Height Ratio	Conc. %	Norm Conc.
1	Hydrogen	0.000	0	0	0.000	Linear	0.000000e+00	0.000000e+00	0.000000e+00	0.000000e+00	0	0	0.000	0.000
2	Oxygen	0.000	0	0	0.000	Linear	0.000000e+00	0.000000e+00	0.000000e+00	0.000000e+00	0	0	0.000	0.000
3	Nitrogen	0.000	0	0	0.000	Linear	0.000000e+00	0.000000e+00	0.000000e+00	0.000000e+00	0	0	0.000	0.000
4	Methane	0.000	0	0	0.000	Linear	0.000000e+00	0.000000e+00	0.000000e+00	0.000000e+00	0	0	0.000	0.000
5	Carbon Monoxide	0.000	0	0	0.000	Linear	0.000000e+00	0.000000e+00	0.000000e+00	0.000000e+00	0	0	0.000	0.000

[Compound Results(Ch3)]
# of IDs	2
ID#	Name	R.Time	Area	Height	Conc.	Curve	3rd	2nd	1st	Constant	Area Ratio	Height Ratio	Conc. %	Norm Conc.
1	N2O	2.891	14948	4051	0.221	Linear	0.000000e+00	0.000000e+00	6.759880e+004	0.000000e+00	0	0	100.000	100.000
2	SF6	3.177	15390	891	0.000	Linear	0.000000e+00	0.000000e+00	0.000000e+00	0.000000e+00	0	0	0.000	0.000

[Group Results(Ch1)]
# of Groups	0

[Group Results(Ch2)]
# of Groups	0

[Group Results(Ch3)]
# of Groups	0

[Chromatogram (Ch1)]
Interval(msec)	220
# of Points	1091
Start Time(min)	0.002
End Time(min)	3.998
R.Time (min)	Intensity
0.00167	-26
0.00533	-23
0.00900	-21
0.01267	-20
0.01633	-21
0.02000	-26
0.02367	-32
0.02733	-35
0.03100	-36
0.03467	-33
0.03833	-27
0.04200	-22
0.04567	-21
0.04933	-22
0.05300	-21
0.05667	-18
0.06033	-18
0.06400	-19
0.06767	-23
0.07133	-28
0.07500	-30
0.07867	-28
0.08233	-23
0.08600	-16
0.08967	-13
0.09333	-15
0.09700	-19
0.10067	-20
0.10433	-18
0.10800	-14
0.11167	-13
0.11533	-12
0.11900	-11
0.12267	-8
0.12633	-6
0.13000	-9
0.13367	-12
0.13733	-15
0.14100	-18
0.14467	-25
0.14833	-31
0.15200	-36
0.15567	-37
0.15933	-37
0.16300	-35
0.16667	-32
0.17033	-29
0.17400	-27
0.17767	-24
0.18133	-23
0.18500	-23
0.18867	-20
0.19233	-15
0.19600	-14
0.19967	-15
0.20333	-18
0.20700	-20
0.21067	-20
0.21433	-17
0.21800	-11
0.22167	-5
0.22533	-3
0.22900	-3
0.23267	-5
0.23633	-11
0.24000	-21
0.24367	-31
0.24733	-36
0.25100	-38
0.25467	-38
0.25833	-40
0.26200	-41
0.26567	-43
0.26933	-44
0.27300	-45
0.27667	-46
0.28033	-49
0.28400	-55
0.28767	-59
0.29133	-55
0.29500	-48
0.29867	-45
0.30233	-44
0.30600	-42
0.30967	-38
0.31333	-32
0.31700	-24
0.32067	-18
0.32433	-15
0.32800	-14
0.33167	-13
0.33533	-10
0.33900	-8
0.34267	-9
0.34633	-11
0.35000	-14
0.35367	-19
0.35733	-21
0.36100	-25
0.36467	-28
0.36833	-30
0.37200	-34
0.37567	-38
0.37933	-38
0.38300	-34
0.38667	-29
0.39033	-24
0.39400	-21
0.39767	-20
0.40133	-21
0.40500	-22
0.40867	-25
0.41233	-26
0.41600	-23
0.41967	-17
0.42333	-12
0.42700	-8
0.43067	-6
0.43433	-3
0.43800	-1
0.44167	0
0.44533	1
0.44900	1
0.45267	6
0.45633	16
0.46000	25
0.46367	30
0.46733	32
0.47100	36
0.47467	39
0.47833	41
0.48200	45
0.48567	49
0.48933	54
0.49300	58
0.49667	66
0.50033	79
0.50400	94
0.50767	108
0.51133	119
0.51500	129
0.51867	137
0.52233	142
0.52600	143
0.52967	142
0.53333	143
0.53700	144
0.54067	144
0.54433	143
0.54800	141
0.55167	142
0.55533	144
0.55900	149
0.56267	156
0.56633	163
0.57000	169
0.57367	174
0.57733	178
0.58100	177
0.58467	172
0.58833	167
0.59200	164
0.59567	160
0.59933	155
0.60300	154
0.60667	154
0.61033	151
0.61400	139
0.61767	123
0.62133	110
0.62500	100
0.62867	93
0.63233	88
0.63600	79
0.63967	63
0.64333	45
0.64700	32
0.65067	23
0.65433	12
0.65800	-1
0.66167	-12
0.66533	-16
0.66900	-16
0.67267	-13
0.67633	-9
0.68000	-7
0.68367	-6
0.68733	-3
0.69100	-1
0.69467	-1
0.69833	-4
0.70200	-7
0.70567	-8
0.70933	-9
0.71300	-11
0.71667	-17
0.72033	-21
0.72400	-25
0.72767	-31
0.73133	-33
0.73500	-34
0.73867	-34
0.74233	-32
0.74600	-32
0.74967	-31
0.75333	-28
0.75700	-26
0.76067	-22
0.76433	-18
0.76800	-12
0.77167	-4
0.77533	3
0.77900	5
0.78267	1
0.78633	-5
0.79000	-10
0.79367	-17
0.79733	-25
0.80100	-34
0.80467	-38
0.80833	-36
0.81200	-31
0.81567	-26
0.81933	-22
0.82300	-23
0.82667	-26
0.83033	-29
0.83400	-33
0.83767	-38
0.84133	-40
0.84500	-39
0.84867	-35
0.85233	-30
0.85600	-25
0.85967	-20
0.86333	-18
0.86700	-19
0.87067	-22
0.87433	-24
0.87800	-29
0.88167	-33
0.88533	-34
0.88900	-33
0.89267	-34
0.89633	-34
0.90000	-33
0.90367	-35
0.90733	-34
0.91100	-33
0.91467	-32
0.91833	-30
0.92200	-27
0.92567	-23
0.92933	-16
0.93300	-9
0.93667	-6
0.94033	-10
0.94400	-17
0.94767	-23
0.95133	-29
0.95500	-34
0.95867	-34
0.96233	-29
0.96600	-24
0.96967	-20
0.97333	-17
0.97700	-14
0.98067	-10
0.98433	-9
0.98800	-11
0.99167	-14
0.99533	-18
0.99900	-21
1.00267	-23
1.00633	-23
1.01000	-23
1.01367	-22
1.01733	-23
1.02100	-24
1.02467	-28
1.02833	-34
1.03200	-40
1.03567	-43
1.03933	-41
1.04300	-37
1.04667	-34
1.05033	-32
1.05400	-31
1.05767	-27
1.06133	-24
1.06500	-21
1.06867	-21
1.07233	-25
1.07600	-29
1.07967	-32
1.08333	-34
1.08700	-36
1.09067	-36
1.09433	-34
1.09800	-33
1.10167	-31
1.10533	-26
1.10900	-21
1.11267	-19
1.11633	-19
1.12000	-20
1.12367	-20
1.12733	-23
1.13100	-28
1.13467	-35
1.13833	-41
1.14200	-49
1.14567	-54
1.14933	-54
1.15300	-54
1.15667	-51
1.16033	-45
1.16400	-37
1.16767	-28
1.17133	-19
1.17500	-13
1.17867	-12
1.18233	-17
1.18600	-28
1.18967	-40
1.19333	-49
1.19700	-53
1.20067	-53
1.20433	-51
1.20800	-51
1.21167	-52
1.21533	-54
1.21900	-55
1.22267	-56
1.22633	-56
1.23000	-53
1.23367	-49
1.23733	-46
1.24100	-45
1.24467	-46
1.24833	-49
1.25200	-48
1.25567	-43
1.25933	-37
1.26300	-35
1.26667	-37
1.27033	-41
1.27400	-44
1.27767	-47
1.28133	-49
1.28500	-50
1.28867	-47
1.29233	-44
1.29600	-43
1.29967	-44
1.30333	-44
1.30700	-44
1.31067	-44
1.31433	-43
1.31800	-44
1.32167	-45
1.32533	-44
1.32900	-44
1.33267	-45
1.33633	-43
1.34000	-37
1.34367	-33
1.34733	-33
1.35100	-34
1.35467	-32
1.35833	-31
1.36200	-33
1.36567	-36
1.36933	-38
1.37300	-41
1.37667	-45
1.38033	-49
1.38400	-53
1.38767	-57
1.39133	-57
1.39500	-57
1.39867	-55
1.40233	-50
1.40600	-42
1.40967	-36
1.41333	-35
1.41700	-38
1.42067	-42
1.42433	-45
1.42800	-43
1.43167	-36
1.43533	-27
1.43900	-16
1.44267	-19
1.44633	9
1.45000	163
1.45367	456
1.45733	812
1.46100	1158
1.46467	1454
1.46833	1675
1.47200	1787
1.47567	1757
1.47933	1591
1.48300	1332
1.48667	1045
1.49033	776
1.49400	550
1.49767	375
1.50133	247
1.50500	155
1.50867	90
1.51233	45
1.51600	18
1.51967	3
1.52333	-4
1.52700	-6
1.53067	0
1.53433	40
1.53800	169
1.54167	442
1.54533	844
1.54900	1289
1.55267	1689
1.55633	1993
1.56000	2170
1.56367	2195
1.56733	2052
1.57100	1765
1.57467	1404
1.57833	1042
1.58200	729
1.58567	486
1.58933	308
1.59300	185
1.59667	102
1.60033	49
1.60400	14
1.60767	-12
1.61133	-29
1.61500	-39
1.61867	-45
1.62233	-49
1.62600	-50
1.62967	-48
1.63333	-44
1.63700	-42
1.64067	-41
1.64433	-43
1.64800	-45
1.65167	-47
1.65533	-51
1.65900	-54
1.66267	-56
1.66633	-55
1.67000	-53
1.67367	-51
1.67733	-51
1.68100	-54
1.68467	-60
1.68833	-63
1.69200	-65
1.69567	-69
1.69933	-73
1.70300	-75
1.70667	-74
1.71033	-74
1.71400	-74
1.71767	-72
1.72133	-69
1.72500	-67
1.72867	-64
1.73233	-57
1.73600	-49
1.73967	-43
1.74333	-39
1.74700	-37
1.75067	-42
1.75433	-48
1.75800	-54
1.76167	-59
1.76533	-63
1.76900	-66
1.77267	-69
1.77633	-71
1.78000	-70
1.78367	-66
1.78733	-62
1.79100	-58
1.79467	-58
1.79833	-59
1.80200	-57
1.80567	-50
1.80933	-44
1.81300	-39
1.81667	-37
1.82033	-40
1.82400	-45
1.82767	-50
1.83133	-56
1.83500	-63
1.83867	-67
1.84233	-70
1.84600	-74
1.84967	-76
1.85333	-76
1.85700	-74
1.86067	-71
1.86433	-66
1.86800	-62
1.87167	-61
1.87533	-59
1.87900	-53
1.88267	-50
1.88633	-50
1.89000	-50
1.89367	-51
1.89733	-54
1.90100	-59
1.90467	-63
1.90833	-64
1.91200	-61
1.91567	-59
1.91933	-56
1.92300	-52
1.92667	-50
1.93033	-50
1.93400	-48
1.93767	-42
1.94133	-38
1.94500	-28
1.94867	46
1.95233	523
1.95600	2839
1.95967	11224
1.96333	34255
1.96700	83133
1.97067	164314
1.97433	272366
1.97800	390424
1.98167	497399
1.98533	575459
1.98900	612730
1.99267	604468
1.99633	554781
2.00000	475761
2.00367	383773
2.00733	294003
2.01100	216379
2.01467	154821
2.01833	108932
2.02200	76166
2.02567	53430
2.02933	37931
2.03300	27459
2.03667	20392
2.04033	15592
2.04400	12294
2.04767	9991
2.05133	8348
2.05500	7149
2.05867	6248
2.06233	5551
2.06600	4999
2.06967	4552
2.07333	4183
2.07700	3874
2.08067	3608
2.08433	3376
2.08800	3176
2.09167	3003
2.09533	2846
2.09900	2703
2.10267	2570
2.10633	2446
2.11000	2330
2.11367	2222
2.11733	2124
2.12100	2035
2.12467	1953
2.12833	1874
2.13200	1797
2.13567	1725
2.13933	1656
2.14300	1594
2.14667	1535
2.15033	1482
2.15400	1434
2.15767	1389
2.16133	1344
2.16500	1303
2.16867	1263
2.17233	1222
2.17600	1183
2.17967	1146
2.18333	1109
2.18700	1076
2.19067	1048
2.19433	1024
2.19800	1001
2.20167	977
2.20533	954
2.20900	932
2.21267	911
2.21633	890
2.22000	870
2.22367	851
2.22733	832
2.23100	810
2.23467	791
2.23833	775
2.24200	758
2.24567	739
2.24933	721
2.25300	705
2.25667	689
2.26033	673
2.26400	660
2.26767	652
2.27133	644
2.27500	635
2.27867	624
2.28233	609
2.28600	593
2.28967	577
2.29333	562
2.29700	549
2.30067	540
2.30433	533
2.30800	528
2.31167	524
2.31533	521
2.31900	516
2.32267	512
2.32633	505
2.33000	494
2.33367	481
2.33733	465
2.34100	449
2.34467	438
2.34833	431
2.35200	425
2.35567	420
2.35933	416
2.36300	409
2.36667	400
2.37033	393
2.37400	388
2.37767	381
2.38133	375
2.38500	365
2.38867	354
2.39233	345
2.39600	336
2.39967	332
2.40333	330
2.40700	328
2.41067	324
2.41433	321
2.41800	319
2.42167	320
2.42533	319
2.42900	317
2.43267	315
2.43633	312
2.44000	305
2.44367	299
2.44733	296
2.45100	293
2.45467	289
2.45833	284
2.46200	280
2.46567	279
2.46933	282
2.47300	285
2.47667	284
2.48033	278
2.48400	268
2.48767	259
2.49133	249
2.49500	244
2.49867	238
2.50233	230
2.50600	222
2.50967	222
2.51333	225
2.51700	227
2.52067	228
2.52433	227
2.52800	225
2.53167	223
2.53533	223
2.53900	226
2.54267	227
2.54633	226
2.55000	224
2.55367	221
2.55733	221
2.56100	218
2.56467	215
2.56833	212
2.57200	211
2.57567	208
2.57933	203
2.58300	198
2.58667	194
2.59033	191
2.59400	185
2.59767	180
2.60133	174
2.60500	172
2.60867	173
2.61233	174
2.61600	173
2.61967	172
2.62333	173
2.62700	175
2.63067	176
2.63433	175
2.63800	174
2.64167	171
2.64533	165
2.64900	161
2.65267	162
2.65633	167
2.66000	170
2.66367	171
2.66733	168
2.67100	163
2.67467	155
2.67833	148
2.68200	141
2.68567	136
2.68933	134
2.69300	135
2.69667	138
2.70033	141
2.70400	141
2.70767	140
2.71133	137
2.71500	137
2.71867	140
2.72233	144
2.72600	146
2.72967	150
2.73333	151
2.73700	150
2.74067	145
2.74433	140
2.74800	135
2.75167	129
2.75533	128
2.75900	128
2.76267	128
2.76633	129
2.77000	129
2.77367	131
2.77733	132
2.78100	130
2.78467	127
2.78833	126
2.79200	129
2.79567	130
2.79933	128
2.80300	123
2.80667	117
2.81033	112
2.81400	113
2.81767	115
2.82133	118
2.82500	120
2.82867	122
2.83233	121
2.83600	120
2.83967	118
2.84333	117
2.84700	115
2.85067	114
2.85433	112
2.85800	110
2.86167	110
2.86533	110
2.86900	110
2.87267	111
2.87633	111
2.88000	112
2.88367	114
2.88733	115
2.89100	112
2.89467	113
2.89833	115
2.90200	118
2.90567	119
2.90933	121
2.91300	123
2.91667	125
2.92033	125
2.92400	122
2.92767	116
2.93133	111
2.93500	106
2.93867	106
2.94233	106
2.94600	106
2.94967	105
2.95333	105
2.95700	108
2.96067	110
2.96433	113
2.96800	117
2.97167	119
2.97533	121
2.97900	125
2.98267	127
2.98633	122
2.99000	113
2.99367	102
2.99733	94
3.00100	92
3.00467	95
3.00833	100
3.01200	103
3.01567	106
3.01933	109
3.02300	111
3.02667	114
3.03033	114
3.03400	111
3.03767	112
3.04133	112
3.04500	110
3.04867	104
3.05233	99
3.05600	95
3.05967	97
3.06333	101
3.06700	108
3.07067	114
3.07433	115
3.07800	111
3.08167	106
3.08533	101
3.08900	96
3.09267	91
3.09633	91
3.10000	94
3.10367	96
3.10733	97
3.11100	101
3.11467	103
3.11833	101
3.12200	99
3.12567	99
3.12933	98
3.13300	94
3.13667	90
3.14033	88
3.14400	89
3.14767	90
3.15133	89
3.15500	89
3.15867	94
3.16233	98
3.16600	100
3.16967	98
3.17333	92
3.17700	86
3.18067	81
3.18433	72
3.18800	65
3.19167	64
3.19533	69
3.19900	75
3.20267	84
3.20633	92
3.21000	98
3.21367	104
3.21733	108
3.22100	108
3.22467	102
3.22833	97
3.23200	98
3.23567	103
3.23933	107
3.24300	107
3.24667	107
3.25033	105
3.25400	103
3.25767	99
3.26133	96
3.26500	96
3.26867	96
3.27233	95
3.27600	93
3.27967	90
3.28333	86
3.28700	83
3.29067	84
3.29433	88
3.29800	89
3.30167	88
3.30533	86
3.30900	85
3.31267	85
3.31633	87
3.32000	90
3.32367	94
3.32733	98
3.33100	99
3.33467	99
3.33833	98
3.34200	93
3.34567	90
3.34933	90
3.35300	91
3.35667	94
3.36033	99
3.36400	99
3.36767	92
3.37133	84
3.37500	79
3.37867	79
3.38233	80
3.38600	81
3.38967	84
3.39333	89
3.39700	89
3.40067	84
3.40433	79
3.40800	77
3.41167	79
3.41533	84
3.41900	87
3.42267	90
3.42633	93
3.43000	94
3.43367	94
3.43733	95
3.44100	94
3.44467	93
3.44833	90
3.45200	88
3.45567	86
3.45933	86
3.46300	90
3.46667	92
3.47033	89
3.47400	83
3.47767	76
3.48133	69
3.48500	64
3.48867	62
3.49233	66
3.49600	73
3.49967	79
3.50333	82
3.50700	83
3.51067	87
3.51433	91
3.51800	89
3.52167	84
3.52533	82
3.52900	82
3.53267	81
3.53633	78
3.54000	76
3.54367	76
3.54733	78
3.55100	81
3.55467	82
3.55833	83
3.56200	84
3.56567	82
3.56933	79
3.57300	79
3.57667	81
3.58033	83
3.58400	85
3.58767	89
3.59133	96
3.59500	101
3.59867	103
3.60233	101
3.60600	99
3.60967	95
3.61333	91
3.61700	89
3.62067	90
3.62433	91
3.62800	90
3.63167	89
3.63533	87
3.63900	85
3.64267	85
3.64633	86
3.65000	87
3.65367	83
3.65733	75
3.66100	67
3.66467	61
3.66833	63
3.67200	72
3.67567	80
3.67933	82
3.68300	80
3.68667	75
3.69033	69
3.69400	64
3.69767	63
3.70133	65
3.70500	66
3.70867	66
3.71233	64
3.71600	60
3.71967	57
3.72333	58
3.72700	60
3.73067	61
3.73433	63
3.73800	65
3.74167	69
3.74533	74
3.74900	78
3.75267	76
3.75633	73
3.76000	71
3.76367	68
3.76733	67
3.77100	67
3.77467	67
3.77833	64
3.78200	66
3.78567	69
3.78933	76
3.79300	85
3.79667	91
3.80033	88
3.80400	85
3.80767	85
3.81133	84
3.81500	81
3.81867	76
3.82233	70
3.82600	68
3.82967	65
3.83333	63
3.83700	63
3.84067	63
3.84433	63
3.84800	64
3.85167	65
3.85533	67
3.85900	65
3.86267	62
3.86633	58
3.87000	53
3.87367	48
3.87733	45
3.88100	45
3.88467	49
3.88833	52
3.89200	51
3.89567	46
3.89933	42
3.90300	43
3.90667	44
3.91033	49
3.91400	55
3.91767	57
3.92133	54
3.92500	50
3.92867	47
3.93233	44
3.93600	41
3.93967	42
3.94333	47
3.94700	54
3.95067	58
3.95433	57
3.95800	49
3.96167	39
3.96533	31
3.96900	28
3.97267	24
3.97633	19
3.98000	16
3.98367	16
3.98733	18
3.99100	20
3.99467	24
3.99833	27

[Chromatogram (Ch2)]
Interval(msec)	220
# of Points	1091
Start Time(min)	0.002
End Time(min)	3.998
R.Time (min)	Intensity
0.00167	0
0.00533	0
0.00900	-0
0.01267	-0
0.01633	-0
0.02000	-0
0.02367	-0
0.02733	-0
0.03100	-1
0.03467	-1
0.03833	-1
0.04200	-1
0.04567	-1
0.04933	-1
0.05300	-1
0.05667	-1
0.06033	-1
0.06400	-1
0.06767	-1
0.07133	-1
0.07500	-1
0.07867	-1
0.08233	-1
0.08600	-1
0.08967	-1
0.09333	-1
0.09700	-1
0.10067	-1
0.10433	-1
0.10800	-1
0.11167	-1
0.11533	-1
0.11900	-1
0.12267	-1
0.12633	-1
0.13000	-1
0.13367	-1
0.13733	-1
0.14100	-1
0.14467	-1
0.14833	-2
0.15200	-2
0.15567	-2
0.15933	-2
0.16300	-2
0.16667	-3
0.17033	-3
0.17400	-3
0.17767	-3
0.18133	-3
0.18500	-3
0.18867	-3
0.19233	-3
0.19600	-3
0.19967	-3
0.20333	-3
0.20700	-3
0.21067	-3
0.21433	-3
0.21800	-4
0.22167	-4
0.22533	-4
0.22900	-4
0.23267	-4
0.23633	-5
0.24000	-5
0.24367	-5
0.24733	-5
0.25100	-5
0.25467	-5
0.25833	-6
0.26200	-6
0.26567	-5
0.26933	-5
0.27300	-5
0.27667	-5
0.28033	-5
0.28400	-5
0.28767	-4
0.29133	-4
0.29500	-4
0.29867	-4
0.30233	-5
0.30600	-5
0.30967	-5
0.31333	-5
0.31700	-6
0.32067	-6
0.32433	-6
0.32800	-5
0.33167	-5
0.33533	-5
0.33900	-4
0.34267	-4
0.34633	-3
0.35000	-3
0.35367	-3
0.35733	-2
0.36100	-2
0.36467	-1
0.36833	-1
0.37200	-1
0.37567	-1
0.37933	-1
0.38300	-1
0.38667	-1
0.39033	-1
0.39400	-1
0.39767	-1
0.40133	-1
0.40500	-2
0.40867	-2
0.41233	-2
0.41600	-2
0.41967	-2
0.42333	-2
0.42700	-2
0.43067	-1
0.43433	-1
0.43800	-1
0.44167	-1
0.44533	-1
0.44900	-1
0.45267	-1
0.45633	-1
0.46000	-0
0.46367	-0
0.46733	0
0.47100	0
0.47467	0
0.47833	0
0.48200	-0
0.48567	-0
0.48933	-0
0.49300	-1
0.49667	-1
0.50033	-1
0.50400	-2
0.50767	-2
0.51133	-2
0.51500	-3
0.51867	-3
0.52233	-3
0.52600	-3
0.52967	-3
0.53333	-3
0.53700	-3
0.54067	-3
0.54433	-3
0.54800	-3
0.55167	-3
0.55533	-2
0.55900	-2
0.56267	-2
0.56633	-2
0.57000	-2
0.57367	-2
0.57733	-3
0.58100	-3
0.58467	-3
0.58833	-2
0.59200	-2
0.59567	-2
0.59933	-2
0.60300	-3
0.60667	-3
0.61033	-3
0.61400	-3
0.61767	-3
0.62133	-3
0.62500	-4
0.62867	-4
0.63233	-4
0.63600	-5
0.63967	-5
0.64333	-5
0.64700	-5
0.65067	-5
0.65433	-5
0.65800	-5
0.66167	-5
0.66533	-5
0.66900	-5
0.67267	-5
0.67633	-5
0.68000	-5
0.68367	-5
0.68733	-4
0.69100	-4
0.69467	-4
0.69833	-3
0.70200	-3
0.70567	-3
0.70933	-2
0.71300	-2
0.71667	-2
0.72033	-1
0.72400	-1
0.72767	-1
0.73133	-1
0.73500	-1
0.73867	-1
0.74233	-1
0.74600	-1
0.74967	-1
0.75333	-1
0.75700	-1
0.76067	-2
0.76433	-2
0.76800	-2
0.77167	-2
0.77533	-2
0.77900	-2
0.78267	-1
0.78633	-1
0.79000	-1
0.79367	-1
0.79733	-1
0.80100	-1
0.80467	-1
0.80833	-1
0.81200	-1
0.81567	-1
0.81933	-1
0.82300	-1
0.82667	-1
0.83033	-1
0.83400	-1
0.83767	-1
0.84133	-1
0.84500	-2
0.84867	-2
0.85233	-2
0.85600	-2
0.85967	-2
0.86333	-3
0.86700	-3
0.87067	-3
0.87433	-3
0.87800	-4
0.88167	-4
0.88533	-4
0.88900	-4
0.89267	-4
0.89633	-4
0.90000	-4
0.90367	-4
0.90733	-4
0.91100	-4
0.91467	-4
0.91833	-4
0.92200	-3
0.92567	-3
0.92933	-3
0.93300	-3
0.93667	-3
0.94033	-3
0.94400	-3
0.94767	-3
0.95133	-3
0.95500	-3
0.95867	-3
0.96233	-2
0.96600	-2
0.96967	-2
0.97333	-2
0.97700	-2
0.98067	-2
0.98433	-2
0.98800	-2
0.99167	-2
0.99533	-3
0.99900	-3
1.00267	-3
1.00633	-3
1.01000	-3
1.01367	-3
1.01733	-3
1.02100	-3
1.02467	-3
1.02833	-3
1.03200	-2
1.03567	-2
1.03933	-2
1.04300	-2
1.04667	-2
1.05033	-2
1.05400	-2
1.05767	-2
1.06133	-2
1.06500	-2
1.06867	-2
1.07233	-2
1.07600	-2
1.07967	-2
1.08333	-3
1.08700	-3
1.09067	-3
1.09433	-3
1.09800	-3
1.10167	-3
1.10533	-3
1.10900	-3
1.11267	-3
1.11633	-3
1.12000	-4
1.12367	-4
1.12733	-4
1.13100	-4
1.13467	-4
1.13833	-4
1.14200	-4
1.14567	-4
1.14933	-4
1.15300	-4
1.15667	-5
1.16033	-5
1.16400	-5
1.16767	-5
1.17133	-4
1.17500	-4
1.17867	-4
1.18233	-4
1.18600	-4
1.18967	-4
1.19333	-4
1.19700	-4
1.20067	-4
1.20433	-5
1.20800	-5
1.21167	-6
1.21533	-6
1.21900	-6
1.22267	-6
1.22633	-6
1.23000	-6
1.23367	-6
1.23733	-6
1.24100	-6
1.24467	-6
1.24833	-5
1.25200	-5
1.25567	-4
1.25933	-4
1.26300	-3
1.26667	-3
1.27033	-3
1.27400	-3
1.27767	-3
1.28133	-3
1.28500	-3
1.28867	-3
1.29233	-2
1.29600	-3
1.29967	-2
1.30333	-2
1.30700	-3
1.31067	-3
1.31433	-3
1.31800	-3
1.32167	-3
1.32533	-4
1.32900	-4
1.33267	-4
1.33633	-3
1.34000	-3
1.34367	-3
1.34733	-3
1.35100	-3
1.35467	-3
1.35833	-3
1.36200	-3
1.36567	-3
1.36933	-3
1.37300	-3
1.37667	-4
1.38033	-4
1.38400	-4
1.38767	-4
1.39133	-5
1.39500	-5
1.39867	-5
1.40233	-5
1.40600	-5
1.40967	-5
1.41333	-5
1.41700	-5
1.42067	-4
1.42433	-4
1.42800	-4
1.43167	-5
1.43533	-5
1.43900	-5
1.44267	-5
1.44633	-5
1.45000	-4
1.45367	-4
1.45733	-4
1.46100	-4
1.46467	-4
1.46833	-4
1.47200	-4
1.47567	-4
1.47933	-4
1.48300	-4
1.48667	-4
1.49033	-4
1.49400	-4
1.49767	-4
1.50133	-4
1.50500	-4
1.50867	-4
1.51233	-4
1.51600	-4
1.51967	-4
1.52333	-4
1.52700	-5
1.53067	-5
1.53433	-5
1.53800	-6
1.54167	-6
1.54533	-6
1.54900	-6
1.55267	-6
1.55633	-7
1.56000	-7
1.56367	-7
1.56733	-7
1.57100	-7
1.57467	-7
1.57833	-7
1.58200	-6
1.58567	-6
1.58933	-6
1.59300	-6
1.59667	-6
1.60033	-7
1.60400	-8
1.60767	-9
1.61133	-10
1.61500	-12
1.61867	-14
1.62233	-17
1.62600	-20
1.62967	-23
1.63333	-26
1.63700	-29
1.64067	-33
1.64433	-36
1.64800	-39
1.65167	-43
1.65533	-46
1.65900	-50
1.66267	-53
1.66633	-57
1.67000	-62
1.67367	-66
1.67733	-71
1.68100	-75
1.68467	-80
1.68833	-83
1.69200	-87
1.69567	-89
1.69933	-92
1.70300	-93
1.70667	-95
1.71033	-96
1.71400	-97
1.71767	-97
1.72133	-97
1.72500	-98
1.72867	-98
1.73233	-97
1.73600	-97
1.73967	-96
1.74333	-95
1.74700	-95
1.75067	-94
1.75433	-95
1.75800	-96
1.76167	-97
1.76533	-98
1.76900	-99
1.77267	-100
1.77633	-101
1.78000	-102
1.78367	-102
1.78733	-102
1.79100	-102
1.79467	-102
1.79833	-101
1.80200	-100
1.80567	-99
1.80933	-98
1.81300	-97
1.81667	-98
1.82033	-98
1.82400	-99
1.82767	-100
1.83133	-101
1.83500	-101
1.83867	-102
1.84233	-102
1.84600	-102
1.84967	-102
1.85333	-102
1.85700	-102
1.86067	-101
1.86433	-101
1.86800	-101
1.87167	-101
1.87533	-101
1.87900	-101
1.88267	-101
1.88633	-101
1.89000	-101
1.89367	-101
1.89733	-101
1.90100	-101
1.90467	-101
1.90833	-100
1.91200	-100
1.91567	-99
1.91933	-99
1.92300	-99
1.92667	-99
1.93033	-99
1.93400	-99
1.93767	-99
1.94133	-98
1.94500	-98
1.94867	-99
1.95233	-99
1.95600	-99
1.95967	-100
1.96333	-100
1.96700	-99
1.97067	-99
1.97433	-98
1.97800	-97
1.98167	-97
1.98533	-96
1.98900	-95
1.99267	-95
1.99633	-94
2.00000	-93
2.00367	-93
2.00733	-93
2.01100	-93
2.01467	-94
2.01833	-94
2.02200	-94
2.02567	-95
2.02933	-95
2.03300	-94
2.03667	-94
2.04033	-93
2.04400	-92
2.04767	-91
2.05133	-90
2.05500	-90
2.05867	-89
2.06233	-89
2.06600	-89
2.06967	-89
2.07333	-89
2.07700	-90
2.08067	-90
2.08433	-90
2.08800	-90
2.09167	-90
2.09533	-90
2.09900	-89
2.10267	-89
2.10633	-89
2.11000	-88
2.11367	-87
2.11733	-87
2.12100	-86
2.12467	-86
2.12833	-86
2.13200	-86
2.13567	-86
2.13933	-85
2.14300	-84
2.14667	-83
2.15033	-82
2.15400	-81
2.15767	-81
2.16133	-81
2.16500	-81
2.16867	-81
2.17233	-82
2.17600	-82
2.17967	-82
2.18333	-82
2.18700	-82
2.19067	-82
2.19433	-81
2.19800	-80
2.20167	-80
2.20533	-79
2.20900	-78
2.21267	-78
2.21633	-77
2.22000	-77
2.22367	-76
2.22733	-76
2.23100	-76
2.23467	-77
2.23833	-77
2.24200	-77
2.24567	-77
2.24933	-77
2.25300	-77
2.25667	-77
2.26033	-77
2.26400	-77
2.26767	-76
2.27133	-76
2.27500	-75
2.27867	-74
2.28233	-73
2.28600	-72
2.28967	-71
2.29333	-71
2.29700	-70
2.30067	-70
2.30433	-70
2.30800	-70
2.31167	-70
2.31533	-70
2.31900	-70
2.32267	-70
2.32633	-69
2.33000	-69
2.33367	-69
2.33733	-69
2.34100	-68
2.34467	-67
2.34833	-65
2.35200	-64
2.35567	-63
2.35933	-61
2.36300	-59
2.36667	-58
2.37033	-56
2.37400	-54
2.37767	-51
2.38133	-48
2.38500	-44
2.38867	-40
2.39233	-36
2.39600	-32
2.39967	-28
2.40333	-24
2.40700	-20
2.41067	-16
2.41433	-13
2.41800	-11
2.42167	-9
2.42533	-7
2.42900	-6
2.43267	-4
2.43633	-3
2.44000	-2
2.44367	-0
2.44733	1
2.45100	3
2.45467	4
2.45833	5
2.46200	5
2.46567	6
2.46933	7
2.47300	8
2.47667	9
2.48033	10
2.48400	11
2.48767	12
2.49133	13
2.49500	13
2.49867	14
2.50233	14
2.50600	15
2.50967	15
2.51333	15
2.51700	15
2.52067	15
2.52433	15
2.52800	15
2.53167	15
2.53533	15
2.53900	15
2.54267	15
2.54633	15
2.55000	14
2.55367	13
2.55733	13
2.56100	12
2.56467	11
2.56833	10
2.57200	10
2.57567	9
2.57933	9
2.58300	10
2.58667	10
2.59033	11
2.59400	11
2.59767	12
2.60133	13
2.60500	13
2.60867	14
2.61233	14
2.61600	15
2.61967	15
2.62333	14
2.62700	14
2.63067	14
2.63433	13
2.63800	13
2.64167	14
2.64533	15
2.64900	15
2.65267	16
2.65633	17
2.66000	19
2.66367	20
2.66733	21
2.67100	22
2.67467	22
2.67833	22
2.68200	22
2.68567	22
2.68933	22
2.69300	22
2.69667	22
2.70033	22
2.70400	23
2.70767	23
2.71133	24
2.71500	24
2.71867	25
2.72233	25
2.72600	26
2.72967	26
2.73333	26
2.73700	27
2.74067	27
2.74433	27
2.74800	27
2.75167	27
2.75533	27
2.75900	27
2.76267	26
2.76633	26
2.77000	26
2.77367	25
2.77733	25
2.78100	24
2.78467	24
2.78833	24
2.79200	24
2.79567	24
2.79933	24
2.80300	24
2.80667	25
2.81033	25
2.81400	26
2.81767	26
2.82133	26
2.82500	27
2.82867	27
2.83233	26
2.83600	26
2.83967	26
2.84333	26
2.84700	26
2.85067	26
2.85433	25
2.85800	24
2.86167	21
2.86533	15
2.86900	7
2.87267	-4
2.87633	-20
2.88000	-41
2.88367	-68
2.88733	-99
2.89100	-136
2.89467	-179
2.89833	-226
2.90200	-278
2.90567	-333
2.90933	-392
2.91300	-454
2.91667	-517
2.92033	-582
2.92400	-647
2.92767	-711
2.93133	-773
2.93500	-832
2.93867	-888
2.94233	-942
2.94600	-997
2.94967	-1051
2.95333	-1096
2.95700	-1121
2.96067	-1122
2.96433	-1098
2.96800	-1052
2.97167	-989
2.97533	-915
2.97900	-834
2.98267	-752
2.98633	-671
2.99000	-594
2.99367	-522
2.99733	-456
3.00100	-395
3.00467	-341
3.00833	-293
3.01200	-251
3.01567	-214
3.01933	-182
3.02300	-154
3.02667	-130
3.03033	-110
3.03400	-92
3.03767	-77
3.04133	-64
3.04500	-53
3.04867	-43
3.05233	-35
3.05600	-28
3.05967	-22
3.06333	-16
3.06700	-12
3.07067	-8
3.07433	-5
3.07800	-2
3.08167	-0
3.08533	2
3.08900	4
3.09267	5
3.09633	6
3.10000	7
3.10367	9
3.10733	10
3.11100	11
3.11467	11
3.11833	12
3.12200	13
3.12567	13
3.12933	14
3.13300	14
3.13667	14
3.14033	15
3.14400	15
3.14767	16
3.15133	16
3.15500	16
3.15867	17
3.16233	17
3.16600	17
3.16967	18
3.17333	18
3.17700	18
3.18067	18
3.18433	18
3.18800	18
3.19167	19
3.19533	19
3.19900	20
3.20267	20
3.20633	20
3.21000	21
3.21367	21
3.21733	21
3.22100	21
3.22467	21
3.22833	21
3.23200	22
3.23567	22
3.23933	22
3.24300	23
3.24667	23
3.25033	23
3.25400	23
3.25767	23
3.26133	24
3.26500	24
3.26867	24
3.27233	24
3.27600	25
3.27967	25
3.28333	25
3.28700	25
3.29067	25
3.29433	25
3.29800	25
3.30167	25
3.30533	25
3.30900	25
3.31267	25
3.31633	25
3.32000	25
3.32367	25
3.32733	25
3.33100	25
3.33467	25
3.33833	25
3.34200	25
3.34567	25
3.34933	25
3.35300	25
3.35667	25
3.36033	25
3.36400	25
3.36767	25
3.37133	25
3.37500	25
3.37867	25
3.38233	25
3.38600	25
3.38967	25
3.39333	25
3.39700	26
3.40067	26
3.40433	26
3.40800	26
3.41167	26
3.41533	26
3.41900	26
3.42267	26
3.42633	26
3.43000	26
3.43367	26
3.43733	26
3.44100	25
3.44467	26
3.44833	25
3.45200	26
3.45567	26
3.45933	26
3.46300	26
3.46667	26
3.47033	26
3.47400	26
3.47767	26
3.48133	27
3.48500	27
3.48867	27
3.49233	27
3.49600	27
3.49967	27
3.50333	27
3.50700	27
3.51067	27
3.51433	27
3.51800	27
3.52167	26
3.52533	26
3.52900	26
3.53267	26
3.53633	26
3.54000	26
3.54367	26
3.54733	26
3.55100	26
3.55467	26
3.55833	26
3.56200	26
3.56567	26
3.56933	26
3.57300	26
3.57667	26
3.58033	26
3.58400	26
3.58767	26
3.59133	26
3.59500	26
3.59867	26
3.60233	26
3.60600	27
3.60967	27
3.61333	27
3.61700	27
3.62067	27
3.62433	27
3.62800	27
3.63167	26
3.63533	26
3.63900	26
3.64267	26
3.64633	26
3.65000	26
3.65367	26
3.65733	26
3.66100	26
3.66467	26
3.66833	26
3.67200	26
3.67567	26
3.67933	26
3.68300	27
3.68667	27
3.69033	26
3.69400	26
3.69767	26
3.70133	26
3.70500	26
3.70867	26
3.71233	26
3.71600	26
3.71967	26
3.72333	26
3.72700	26
3.73067	26
3.73433	26
3.73800	26
3.74167	26
3.74533	26
3.74900	26
3.75267	26
3.75633	26
3.76000	26
3.76367	26
3.76733	26
3.77100	25
3.77467	25
3.77833	25
3.78200	25
3.78567	26
3.78933	26
3.79300	26
3.79667	26
3.80033	27
3.80400	27
3.80767	26
3.81133	26
3.81500	26
3.81867	26
3.82233	26
3.82600	26
3.82967	26
3.83333	26
3.83700	26
3.84067	27
3.84433	27
3.84800	27
3.85167	27
3.85533	27
3.85900	27
3.86267	28
3.86633	28
3.87000	28
3.87367	28
3.87733	28
3.88100	28
3.88467	28
3.88833	28
3.89200	28
3.89567	29
3.89933	29
3.90300	29
3.90667	29
3.91033	29
3.91400	29
3.91767	29
3.92133	29
3.92500	29
3.92867	28
3.93233	28
3.93600	28
3.93967	28
3.94333	28
3.94700	28
3.95067	28
3.95433	28
3.95800	28
3.96167	27
3.96533	27
3.96900	27
3.97267	27
3.97633	27
3.98000	27
3.98367	27
3.98733	26
3.99100	26
3.99467	26
3.99833	26

[Chromatogram (Ch3)]
Interval(msec)	220
# of Points	1091
Start Time(min)	0.002
End Time(min)	3.998
R.Time (min)	Intensity
0.00167	2
0.00533	3
0.00900	4
0.01267	3
0.01633	2
0.02000	1
0.02367	-2
0.02733	-4
0.03100	-1
0.03467	1
0.03833	1
0.04200	1
0.04567	4
0.04933	5
0.05300	2
0.05667	-1
0.06033	-4
0.06400	-4
0.06767	-4
0.07133	-3
0.07500	-5
0.07867	-6
0.08233	-5
0.08600	-2
0.08967	-2
0.09333	-0
0.09700	3
0.10067	4
0.10433	3
0.10800	2
0.11167	1
0.11533	-1
0.11900	-2
0.12267	-2
0.12633	-1
0.13000	-2
0.13367	-3
0.13733	-3
0.14100	-3
0.14467	-2
0.14833	-2
0.15200	-3
0.15567	-5
0.15933	-6
0.16300	-6
0.16667	-6
0.17033	-6
0.17400	-5
0.17767	-4
0.18133	-4
0.18500	-5
0.18867	-4
0.19233	-5
0.19600	-4
0.19967	-3
0.20333	-3
0.20700	-3
0.21067	-1
0.21433	-1
0.21800	-2
0.22167	-4
0.22533	-5
0.22900	-6
0.23267	-5
0.23633	-5
0.24000	-3
0.24367	-3
0.24733	-2
0.25100	-2
0.25467	-3
0.25833	-4
0.26200	-4
0.26567	-2
0.26933	-1
0.27300	-0
0.27667	-0
0.28033	1
0.28400	-0
0.28767	-2
0.29133	-0
0.29500	3
0.29867	6
0.30233	7
0.30600	7
0.30967	7
0.31333	7
0.31700	6
0.32067	3
0.32433	0
0.32800	1
0.33167	-1
0.33533	-1
0.33900	0
0.34267	-1
0.34633	-2
0.35000	-2
0.35367	-1
0.35733	-1
0.36100	-2
0.36467	-2
0.36833	-2
0.37200	-1
0.37567	-2
0.37933	-0
0.38300	3
0.38667	0
0.39033	-3
0.39400	-4
0.39767	-3
0.40133	-3
0.40500	-3
0.40867	-1
0.41233	1
0.41600	0
0.41967	-2
0.42333	-4
0.42700	-5
0.43067	-5
0.43433	-5
0.43800	-4
0.44167	-2
0.44533	-1
0.44900	0
0.45267	-0
0.45633	-1
0.46000	1
0.46367	2
0.46733	1
0.47100	-0
0.47467	0
0.47833	0
0.48200	-1
0.48567	-3
0.48933	-2
0.49300	-0
0.49667	-0
0.50033	-1
0.50400	0
0.50767	0
0.51133	-1
0.51500	-1
0.51867	0
0.52233	0
0.52600	-0
0.52967	0
0.53333	2
0.53700	1
0.54067	1
0.54433	0
0.54800	1
0.55167	1
0.55533	-1
0.55900	-0
0.56267	2
0.56633	2
0.57000	2
0.57367	5
0.57733	7
0.58100	8
0.58467	10
0.58833	9
0.59200	8
0.59567	5
0.59933	3
0.60300	3
0.60667	3
0.61033	5
0.61400	6
0.61767	6
0.62133	6
0.62500	6
0.62867	6
0.63233	6
0.63600	7
0.63967	7
0.64333	9
0.64700	10
0.65067	12
0.65433	13
0.65800	11
0.66167	13
0.66533	14
0.66900	15
0.67267	16
0.67633	13
0.68000	10
0.68367	8
0.68733	9
0.69100	9
0.69467	8
0.69833	7
0.70200	6
0.70567	4
0.70933	3
0.71300	5
0.71667	7
0.72033	5
0.72400	3
0.72767	3
0.73133	4
0.73500	6
0.73867	9
0.74233	8
0.74600	8
0.74967	10
0.75333	11
0.75700	10
0.76067	7
0.76433	6
0.76800	8
0.77167	8
0.77533	6
0.77900	5
0.78267	6
0.78633	5
0.79000	1
0.79367	1
0.79733	4
0.80100	6
0.80467	4
0.80833	3
0.81200	3
0.81567	2
0.81933	1
0.82300	2
0.82667	3
0.83033	3
0.83400	3
0.83767	3
0.84133	2
0.84500	0
0.84867	-1
0.85233	-2
0.85600	-3
0.85967	-4
0.86333	-4
0.86700	-3
0.87067	2
0.87433	6
0.87800	8
0.88167	8
0.88533	9
0.88900	12
0.89267	12
0.89633	10
0.90000	10
0.90367	7
0.90733	6
0.91100	6
0.91467	5
0.91833	3
0.92200	2
0.92567	1
0.92933	0
0.93300	1
0.93667	4
0.94033	3
0.94400	1
0.94767	0
0.95133	2
0.95500	3
0.95867	2
0.96233	1
0.96600	1
0.96967	-1
0.97333	-3
0.97700	-4
0.98067	-2
0.98433	-3
0.98800	-4
0.99167	-4
0.99533	-3
0.99900	-2
1.00267	0
1.00633	3
1.01000	4
1.01367	3
1.01733	2
1.02100	3
1.02467	4
1.02833	3
1.03200	3
1.03567	3
1.03933	5
1.04300	5
1.04667	3
1.05033	5
1.05400	7
1.05767	7
1.06133	6
1.06500	4
1.06867	5
1.07233	4
1.07600	3
1.07967	2
1.08333	3
1.08700	5
1.09067	5
1.09433	3
1.09800	2
1.10167	3
1.10533	2
1.10900	0
1.11267	0
1.11633	-1
1.12000	-1
1.12367	-0
1.12733	2
1.13100	2
1.13467	1
1.13833	1
1.14200	0
1.14567	-1
1.14933	-1
1.15300	1
1.15667	3
1.16033	5
1.16400	5
1.16767	3
1.17133	-1
1.17500	-4
1.17867	-6
1.18233	-5
1.18600	-2
1.18967	-2
1.19333	-4
1.19700	-4
1.20067	-2
1.20433	-0
1.20800	1
1.21167	3
1.21533	4
1.21900	1
1.22267	1
1.22633	2
1.23000	2
1.23367	1
1.23733	1
1.24100	4
1.24467	5
1.24833	4
1.25200	2
1.25567	0
1.25933	-0
1.26300	1
1.26667	0
1.27033	2
1.27400	3
1.27767	1
1.28133	-0
1.28500	1
1.28867	3
1.29233	1
1.29600	-2
1.29967	-1
1.30333	-0
1.30700	0
1.31067	2
1.31433	3
1.31800	5
1.32167	4
1.32533	4
1.32900	5
1.33267	6
1.33633	4
1.34000	3
1.34367	5
1.34733	6
1.35100	5
1.35467	3
1.35833	1
1.36200	-2
1.36567	-5
1.36933	-4
1.37300	-2
1.37667	-1
1.38033	-2
1.38400	-3
1.38767	-4
1.39133	-5
1.39500	-3
1.39867	1
1.40233	4
1.40600	4
1.40967	3
1.41333	2
1.41700	2
1.42067	-0
1.42433	-1
1.42800	-3
1.43167	-6
1.43533	-7
1.43900	-7
1.44267	-7
1.44633	-7
1.45000	-4
1.45367	-1
1.45733	1
1.46100	0
1.46467	-1
1.46833	-1
1.47200	-0
1.47567	2
1.47933	5
1.48300	6
1.48667	5
1.49033	5
1.49400	6
1.49767	7
1.50133	9
1.50500	8
1.50867	5
1.51233	2
1.51600	1
1.51967	-0
1.52333	-0
1.52700	2
1.53067	6
1.53433	7
1.53800	4
1.54167	4
1.54533	7
1.54900	11
1.55267	12
1.55633	11
1.56000	9
1.56367	8
1.56733	10
1.57100	12
1.57467	10
1.57833	8
1.58200	3
1.58567	-1
1.58933	-3
1.59300	-2
1.59667	-3
1.60033	-2
1.60400	-2
1.60767	-3
1.61133	0
1.61500	-0
1.61867	0
1.62233	3
1.62600	6
1.62967	6
1.63333	6
1.63700	7
1.64067	8
1.64433	7
1.64800	7
1.65167	5
1.65533	5
1.65900	7
1.66267	7
1.66633	4
1.67000	5
1.67367	9
1.67733	12
1.68100	15
1.68467	18
1.68833	18
1.69200	14
1.69567	11
1.69933	10
1.70300	12
1.70667	13
1.71033	14
1.71400	15
1.71767	15
1.72133	14
1.72500	14
1.72867	14
1.73233	12
1.73600	10
1.73967	10
1.74333	9
1.74700	8
1.75067	7
1.75433	5
1.75800	7
1.76167	9
1.76533	11
1.76900	11
1.77267	13
1.77633	15
1.78000	16
1.78367	17
1.78733	19
1.79100	20
1.79467	19
1.79833	18
1.80200	19
1.80567	20
1.80933	22
1.81300	23
1.81667	23
1.82033	25
1.82400	24
1.82767	20
1.83133	18
1.83500	17
1.83867	17
1.84233	19
1.84600	17
1.84967	14
1.85333	12
1.85700	14
1.86067	16
1.86433	17
1.86800	19
1.87167	18
1.87533	16
1.87900	17
1.88267	18
1.88633	20
1.89000	20
1.89367	22
1.89733	24
1.90100	25
1.90467	23
1.90833	21
1.91200	20
1.91567	21
1.91933	23
1.92300	23
1.92667	26
1.93033	26
1.93400	28
1.93767	28
1.94133	28
1.94500	27
1.94867	26
1.95233	26
1.95600	24
1.95967	23
1.96333	24
1.96700	26
1.97067	28
1.97433	28
1.97800	29
1.98167	32
1.98533	34
1.98900	33
1.99267	31
1.99633	30
2.00000	30
2.00367	30
2.00733	30
2.01100	31
2.01467	32
2.01833	34
2.02200	35
2.02567	34
2.02933	34
2.03300	34
2.03667	32
2.04033	32
2.04400	34
2.04767	35
2.05133	36
2.05500	37
2.05867	38
2.06233	39
2.06600	45
2.06967	47
2.07333	47
2.07700	52
2.08067	55
2.08433	55
2.08800	56
2.09167	55
2.09533	56
2.09900	57
2.10267	59
2.10633	60
2.11000	58
2.11367	58
2.11733	57
2.12100	56
2.12467	55
2.12833	53
2.13200	50
2.13567	51
2.13933	53
2.14300	56
2.14667	59
2.15033	61
2.15400	60
2.15767	61
2.16133	62
2.16500	63
2.16867	65
2.17233	68
2.17600	71
2.17967	73
2.18333	73
2.18700	76
2.19067	76
2.19433	75
2.19800	76
2.20167	77
2.20533	77
2.20900	80
2.21267	83
2.21633	83
2.22000	83
2.22367	84
2.22733	86
2.23100	87
2.23467	89
2.23833	89
2.24200	87
2.24567	86
2.24933	88
2.25300	87
2.25667	87
2.26033	88
2.26400	88
2.26767	90
2.27133	91
2.27500	88
2.27867	88
2.28233	89
2.28600	89
2.28967	90
2.29333	92
2.29700	93
2.30067	92
2.30433	92
2.30800	93
2.31167	95
2.31533	95
2.31900	95
2.32267	97
2.32633	99
2.33000	100
2.33367	101
2.33733	100
2.34100	99
2.34467	98
2.34833	98
2.35200	98
2.35567	99
2.35933	101
2.36300	101
2.36667	101
2.37033	98
2.37400	97
2.37767	98
2.38133	96
2.38500	94
2.38867	89
2.39233	89
2.39600	93
2.39967	99
2.40333	108
2.40700	115
2.41067	120
2.41433	121
2.41800	123
2.42167	124
2.42533	126
2.42900	127
2.43267	123
2.43633	118
2.44000	119
2.44367	168
2.44733	257
2.45100	339
2.45467	400
2.45833	429
2.46200	426
2.46567	408
2.46933	390
2.47300	378
2.47667	369
2.48033	354
2.48400	332
2.48767	306
2.49133	283
2.49500	263
2.49867	248
2.50233	241
2.50600	241
2.50967	243
2.51333	249
2.51700	257
2.52067	262
2.52433	265
2.52800	264
2.53167	257
2.53533	246
2.53900	232
2.54267	218
2.54633	208
2.55000	199
2.55367	191
2.55733	182
2.56100	176
2.56467	172
2.56833	168
2.57200	167
2.57567	167
2.57933	167
2.58300	171
2.58667	173
2.59033	178
2.59400	185
2.59767	193
2.60133	202
2.60500	211
2.60867	222
2.61233	231
2.61600	237
2.61967	241
2.62333	240
2.62700	239
2.63067	235
2.63433	230
2.63800	227
2.64167	220
2.64533	211
2.64900	202
2.65267	190
2.65633	179
2.66000	172
2.66367	162
2.66733	155
2.67100	149
2.67467	146
2.67833	146
2.68200	145
2.68567	141
2.68933	135
2.69300	132
2.69667	130
2.70033	130
2.70400	130
2.70767	129
2.71133	130
2.71500	130
2.71867	131
2.72233	132
2.72600	132
2.72967	131
2.73333	130
2.73700	132
2.74067	134
2.74433	135
2.74800	135
2.75167	138
2.75533	142
2.75900	144
2.76267	145
2.76633	146
2.77000	149
2.77367	153
2.77733	155
2.78100	161
2.78467	165
2.78833	167
2.79200	169
2.79567	172
2.79933	177
2.80300	179
2.80667	181
2.81033	184
2.81400	185
2.81767	187
2.82133	189
2.82500	192
2.82867	198
2.83233	201
2.83600	210
2.83967	232
2.84333	276
2.84700	358
2.85067	496
2.85433	710
2.85800	1011
2.86167	1402
2.86533	1865
2.86900	2368
2.87267	2874
2.87633	3341
2.88000	3730
2.88367	4013
2.88733	4172
2.89100	4207
2.89467	4129
2.89833	3963
2.90200	3732
2.90567	3460
2.90933	3165
2.91300	2865
2.91667	2573
2.92033	2297
2.92400	2041
2.92767	1806
2.93133	1594
2.93500	1405
2.93867	1239
2.94233	1093
2.94600	966
2.94967	855
2.95333	758
2.95700	674
2.96067	603
2.96433	540
2.96800	486
2.97167	440
2.97533	401
2.97900	367
2.98267	337
2.98633	311
2.99000	289
2.99367	270
2.99733	254
3.00100	243
3.00467	231
3.00833	221
3.01200	213
3.01567	206
3.01933	200
3.02300	193
3.02667	188
3.03033	182
3.03400	178
3.03767	177
3.04133	178
3.04500	176
3.04867	175
3.05233	173
3.05600	172
3.05967	171
3.06333	170
3.06700	170
3.07067	167
3.07433	166
3.07800	167
3.08167	168
3.08533	166
3.08900	166
3.09267	168
3.09633	178
3.10000	204
3.10367	252
3.10733	319
3.11100	394
3.11467	472
3.11833	552
3.12200	634
3.12567	714
3.12933	788
3.13300	853
3.13667	910
3.14033	955
3.14400	992
3.14767	1020
3.15133	1041
3.15500	1058
3.15867	1073
3.16233	1085
3.16600	1093
3.16967	1097
3.17333	1100
3.17700	1102
3.18067	1103
3.18433	1102
3.18800	1103
3.19167	1099
3.19533	1096
3.19900	1093
3.20267	1090
3.20633	1089
3.21000	1088
3.21367	1088
3.21733	1087
3.22100	1086
3.22467	1087
3.22833	1085
3.23200	1083
3.23567	1081
3.23933	1078
3.24300	1074
3.24667	1072
3.25033	1070
3.25400	1069
3.25767	1067
3.26133	1066
3.26500	1062
3.26867	1058
3.27233	1055
3.27600	1052
3.27967	1050
3.28333	1045
3.28700	1040
3.29067	1034
3.29433	1027
3.29800	1022
3.30167	1016
3.30533	1011
3.30900	1005
3.31267	1001
3.31633	997
3.32000	989
3.32367	982
3.32733	977
3.33100	972
3.33467	970
3.33833	966
3.34200	960
3.34567	953
3.34933	947
3.35300	943
3.35667	938
3.36033	934
3.36400	932
3.36767	931
3.37133	929
3.37500	923
3.37867	917
3.38233	911
3.38600	909
3.38967	907
3.39333	903
3.39700	898
3.40067	892
3.40433	889
3.40800	886
3.41167	884
3.41533	885
3.41900	886
3.42267	883
3.42633	878
3.43000	876
3.43367	874
3.43733	871
3.44100	870
3.44467	871
3.44833	870
3.45200	869
3.45567	869
3.45933	870
3.46300	871
3.46667	871
3.47033	870
3.47400	869
3.47767	871
3.48133	873
3.48500	878
3.48867	881
3.49233	885
3.49600	890
3.49967	892
3.50333	894
3.50700	899
3.51067	905
3.51433	909
3.51800	910
3.52167	914
3.52533	921
3.52900	926
3.53267	933
3.53633	940
3.54000	946
3.54367	952
3.54733	957
3.55100	961
3.55467	962
3.55833	964
3.56200	968
3.56567	970
3.56933	969
3.57300	969
3.57667	970
3.58033	971
3.58400	971
3.58767	969
3.59133	966
3.59500	962
3.59867	961
3.60233	956
3.60600	949
3.60967	943
3.61333	937
3.61700	931
3.62067	922
3.62433	914
3.62800	905
3.63167	895
3.63533	887
3.63900	880
3.64267	873
3.64633	865
3.65000	857
3.65367	851
3.65733	845
3.66100	841
3.66467	836
3.66833	830
3.67200	822
3.67567	816
3.67933	812
3.68300	809
3.68667	805
3.69033	798
3.69400	792
3.69767	787
3.70133	785
3.70500	781
3.70867	778
3.71233	773
3.71600	767
3.71967	762
3.72333	759
3.72700	757
3.73067	753
3.73433	749
3.73800	746
3.74167	744
3.74533	743
3.74900	743
3.75267	741
3.75633	737
3.76000	735
3.76367	731
3.76733	725
3.77100	721
3.77467	721
3.77833	722
3.78200	720
3.78567	719
3.78933	718
3.79300	716
3.79667	712
3.80033	709
3.80400	708
3.80767	707
3.81133	706
3.81500	704
3.81867	703
3.82233	701
3.82600	698
3.82967	696
3.83333	695
3.83700	694
3.84067	692
3.84433	689
3.84800	687
3.85167	686
3.85533	685
3.85900	685
3.86267	684
3.86633	683
3.87000	682
3.87367	681
3.87733	680
3.88100	679
3.88467	677
3.88833	675
3.89200	675
3.89567	672
3.89933	669
3.90300	666
3.90667	663
3.91033	659
3.91400	654
3.91767	653
3.92133	653
3.92500	654
3.92867	654
3.93233	652
3.93600	648
3.93967	645
3.94333	645
3.94700	646
3.95067	646
3.95433	646
3.95800	643
3.96167	639
3.96533	636
3.96900	637
3.97267	638
3.97633	638
3.98000	636
3.98367	635
3.98733	633
3.99100	632
3.99467	630
3.99833	624

[Status Trace (Column Oven Temperature)]
Interval(msec)	1000
# of Points	240
Start Time(min)	0.009
End Time(min)	3.992
Intensity Units	
Intensity Multiplier	1
R.Time (min)	Intensity
0.00883	35.00
0.02550	35.00
0.04217	34.99
0.05883	34.98
0.07550	34.98
0.09217	34.98
0.10883	34.98
0.12550	34.98
0.14217	34.97
0.15883	34.98
0.17550	34.98
0.19217	34.98
0.20883	34.99
0.22550	34.99
0.24217	35.00
0.25883	35.02
0.27550	35.02
0.29217	35.04
0.30883	35.05
0.32550	35.05
0.34217	35.04
0.35883	35.04
0.37550	35.03
0.39217	35.03
0.40883	35.02
0.42550	35.01
0.44217	35.01
0.45883	35.00
0.47550	35.00
0.49217	35.00
0.50883	35.00
0.52550	35.00
0.54217	35.00
0.55883	35.00
0.57550	34.99
0.59217	34.99
0.60883	34.99
0.62550	35.01
0.64217	35.02
0.65883	35.04
0.67550	35.04
0.69217	35.04
0.70883	35.03
0.72550	35.03
0.74217	35.02
0.75883	35.02
0.77550	34.99
0.79217	34.99
0.80883	34.98
0.82550	34.98
0.84217	34.98
0.85883	34.99
0.87550	35.00
0.89217	35.00
0.90883	35.00
0.92550	35.00
0.94217	34.99
0.95883	34.99
0.97550	34.98
0.99217	34.98
1.00883	34.98
1.02550	34.97
1.04217	34.97
1.05883	34.97
1.07550	34.97
1.09217	34.96
1.10883	34.97
1.12550	34.98
1.14217	34.97
1.15883	34.98
1.17550	34.98
1.19217	34.99
1.20883	35.00
1.22550	35.01
1.24217	35.02
1.25883	35.00
1.27550	35.00
1.29217	34.99
1.30883	34.99
1.32550	34.98
1.34217	34.98
1.35883	34.97
1.37550	34.98
1.39217	34.98
1.40883	34.99
1.42550	34.99
1.44217	34.99
1.45883	34.99
1.47550	34.99
1.49217	34.99
1.50883	34.98
1.52550	34.98
1.54217	34.99
1.55883	34.99
1.57550	34.99
1.59217	35.00
1.60883	35.06
1.62550	35.19
1.64217	35.39
1.65883	35.64
1.67550	35.99
1.69217	36.36
1.70883	36.72
1.72550	37.05
1.74217	37.35
1.75883	37.69
1.77550	38.05
1.79217	38.36
1.80883	38.68
1.82550	39.01
1.84217	39.35
1.85883	39.67
1.87550	40.00
1.89217	40.33
1.90883	40.66
1.92550	40.99
1.94217	41.32
1.95883	41.67
1.97550	41.99
1.99217	42.31
2.00883	42.63
2.02550	42.97
2.04217	43.28
2.05883	43.60
2.07550	43.94
2.09217	44.27
2.10883	44.58
2.12550	44.94
2.14217	45.27
2.15883	45.58
2.17550	45.91
2.19217	46.23
2.20883	46.55
2.22550	46.87
2.24217	47.20
2.25883	47.55
2.27550	47.88
2.29217	48.21
2.30883	48.54
2.32550	48.88
2.34217	49.19
2.35883	49.45
2.37550	49.62
2.39217	49.67
2.40883	49.65
2.42550	49.67
2.44217	49.67
2.45883	49.70
2.47550	49.70
2.49217	49.71
2.50883	49.73
2.52550	49.75
2.54217	49.76
2.55883	49.77
2.57550	49.79
2.59217	49.80
2.60883	49.80
2.62550	49.84
2.64217	49.86
2.65883	49.84
2.67550	49.85
2.69217	49.87
2.70883	49.87
2.72550	49.86
2.74217	49.84
2.75883	49.87
2.77550	49.89
2.79217	49.89
2.80883	49.89
2.82550	49.89
2.84217	49.89
2.85883	49.89
2.87550	49.91
2.89217	49.93
2.90883	49.94
2.92550	49.95
2.94217	49.96
2.95883	49.98
2.97550	49.97
2.99217	49.98
3.00883	49.99
3.02550	50.00
3.04217	50.00
3.05883	50.01
3.07550	50.02
3.09217	50.04
3.10883	50.05
3.12550	50.06
3.14217	50.08
3.15883	50.09
3.17550	50.09
3.19217	50.10
3.20883	50.10
3.22550	50.10
3.24217	50.10
3.25883	50.09
3.27550	50.09
3.29217	50.09
3.30883	50.08
3.32550	50.08
3.34217	50.08
3.35883	50.08
3.37550	50.08
3.39217	50.08
3.40883	50.08
3.42550	50.07
3.44217	50.08
3.45883	50.08
3.47550	50.08
3.49217	50.07
3.50883	50.07
3.52550	50.07
3.54217	50.08
3.55883	50.08
3.57550	50.08
3.59217	50.08
3.60883	50.08
3.62550	50.09
3.64217	50.08
3.65883	50.08
3.67550	50.08
3.69217	50.08
3.70883	50.09
3.72550	50.08
3.74217	50.09
3.75883	50.10
3.77550	50.10
3.79217	50.10
3.80883	50.10
3.82550	50.10
3.84217	50.09
3.85883	50.08
3.87550	50.08
3.89217	50.07
3.90883	50.06
3.92550	50.06
3.94217	50.05
3.95883	50.05
3.97550	50.05
3.99217	50.05

[Status Trace (Injection Unit Temperature)]
Interval(msec)	1000
# of Points	240
Start Time(min)	0.009
End Time(min)	3.992
Intensity Units	
Intensity Multiplier	1
R.Time (min)	Intensity
0.00883	99.97
0.02550	99.97
0.04217	99.97
0.05883	99.97
0.07550	99.97
0.09217	99.97
0.10883	99.97
0.12550	99.98
0.14217	99.97
0.15883	99.98
0.17550	99.98
0.19217	99.97
0.20883	99.98
0.22550	99.98
0.24217	99.98
0.25883	99.97
0.27550	99.98
0.29217	99.98
0.30883	99.97
0.32550	99.98
0.34217	99.97
0.35883	99.98
0.37550	99.98
0.39217	99.98
0.40883	99.98
0.42550	99.98
0.44217	99.98
0.45883	99.98
0.47550	99.98
0.49217	99.98
0.50883	99.98
0.52550	99.98
0.54217	99.98
0.55883	99.98
0.57550	99.98
0.59217	99.98
0.60883	99.98
0.62550	99.98
0.64217	99.98
0.65883	99.98
0.67550	99.98
0.69217	99.98
0.70883	99.98
0.72550	99.98
0.74217	99.98
0.75883	99.98
0.77550	99.98
0.79217	99.98
0.80883	99.98
0.82550	99.98
0.84217	99.98
0.85883	99.98
0.87550	99.98
0.89217	99.98
0.90883	99.98
0.92550	99.98
0.94217	99.98
0.95883	99.98
0.97550	99.98
0.99217	99.98
1.00883	99.98
1.02550	99.98
1.04217	99.98
1.05883	99.98
1.07550	99.98
1.09217	99.98
1.10883	99.98
1.12550	99.98
1.14217	99.98
1.15883	99.98
1.17550	99.98
1.19217	99.99
1.20883	99.98
1.22550	99.98
1.24217	99.98
1.25883	99.98
1.27550	99.98
1.29217	99.98
1.30883	99.98
1.32550	99.98
1.34217	99.98
1.35883	99.99
1.37550	99.99
1.39217	99.98
1.40883	99.98
1.42550	99.98
1.44217	99.98
1.45883	99.98
1.47550	99.98
1.49217	99.99
1.50883	99.99
1.52550	99.98
1.54217	99.98
1.55883	99.98
1.57550	99.98
1.59217	99.98
1.60883	99.98
1.62550	99.98
1.64217	99.98
1.65883	99.98
1.67550	99.98
1.69217	99.98
1.70883	99.98
1.72550	99.98
1.74217	99.98
1.75883	99.98
1.77550	99.98
1.79217	99.98
1.80883	99.98
1.82550	99.98
1.84217	99.98
1.85883	99.98
1.87550	99.98
1.89217	99.98
1.90883	99.97
1.92550	99.98
1.94217	99.98
1.95883	99.97
1.97550	99.97
1.99217	99.97
2.00883	99.97
2.02550	99.97
2.04217	99.97
2.05883	99.97
2.07550	99.97
2.09217	99.97
2.10883	99.97
2.12550	99.97
2.14217	99.97
2.15883	99.97
2.17550	99.96
2.19217	99.96
2.20883	99.97
2.22550	99.96
2.24217	99.96
2.25883	99.96
2.27550	99.96
2.29217	99.96
2.30883	99.96
2.32550	99.96
2.34217	99.96
2.35883	99.96
2.37550	99.96
2.39217	99.96
2.40883	99.96
2.42550	99.96
2.44217	99.95
2.45883	99.96
2.47550	99.96
2.49217	99.95
2.50883	99.95
2.52550	99.96
2.54217	99.95
2.55883	99.96
2.57550	99.96
2.59217	99.96
2.60883	99.96
2.62550	99.96
2.64217	99.96
2.65883	99.96
2.67550	99.96
2.69217	99.97
2.70883	99.96
2.72550	99.97
2.74217	99.97
2.75883	99.97
2.77550	99.97
2.79217	99.98
2.80883	99.97
2.82550	99.98
2.84217	99.98
2.85883	99.98
2.87550	99.98
2.89217	99.99
2.90883	99.99
2.92550	99.98
2.94217	99.99
2.95883	99.99
2.97550	99.99
2.99217	100.00
3.00883	99.99
3.02550	100.00
3.04217	100.00
3.05883	100.00
3.07550	100.00
3.09217	100.01
3.10883	100.01
3.12550	100.01
3.14217	100.01
3.15883	100.01
3.17550	100.01
3.19217	100.01
3.20883	100.02
3.22550	100.01
3.24217	100.02
3.25883	100.02
3.27550	100.02
3.29217	100.02
3.30883	100.02
3.32550	100.03
3.34217	100.03
3.35883	100.03
3.37550	100.02
3.39217	100.03
3.40883	100.03
3.42550	100.03
3.44217	100.03
3.45883	100.03
3.47550	100.03
3.49217	100.03
3.50883	100.03
3.52550	100.03
3.54217	100.03
3.55883	100.04
3.57550	100.04
3.59217	100.04
3.60883	100.03
3.62550	100.04
3.64217	100.04
3.65883	100.04
3.67550	100.04
3.69217	100.04
3.70883	100.04
3.72550	100.04
3.74217	100.04
3.75883	100.04
3.77550	100.04
3.79217	100.04
3.80883	100.04
3.82550	100.04
3.84217	100.04
3.85883	100.04
3.87550	100.04
3.89217	100.04
3.90883	100.04
3.92550	100.04
3.94217	100.04
3.95883	100.04
3.97550	100.04
3.99217	100.04

[Status Trace (Carrier Gas Pressure)]
Interval(msec)	1000
# of Points	240
Start Time(min)	0.009
End Time(min)	3.992
Intensity Units	
Intensity Multiplier	1
R.Time (min)	Intensity
0.00883	58.00
0.02550	55.21
0.04217	57.14
0.05883	59.31
0.07550	59.36
0.09217	58.07
0.10883	57.98
0.12550	58.01
0.14217	58.01
0.15883	58.01
0.17550	58.00
0.19217	58.00
0.20883	58.00
0.22550	58.00
0.24217	58.00
0.25883	58.00
0.27550	58.00
0.29217	58.00
0.30883	58.00
0.32550	58.00
0.34217	58.00
0.35883	58.00
0.37550	58.00
0.39217	58.00
0.40883	58.00
0.42550	58.00
0.44217	58.00
0.45883	58.00
0.47550	58.00
0.49217	58.00
0.50883	58.00
0.52550	58.00
0.54217	58.00
0.55883	58.00
0.57550	58.00
0.59217	58.00
0.60883	58.00
0.62550	58.00
0.64217	58.00
0.65883	58.00
0.67550	58.00
0.69217	58.00
0.70883	58.00
0.72550	58.00
0.74217	58.00
0.75883	58.00
0.77550	58.00
0.79217	58.00
0.80883	58.00
0.82550	58.00
0.84217	58.00
0.85883	58.00
0.87550	58.00
0.89217	58.00
0.90883	58.00
0.92550	58.00
0.94217	58.00
0.95883	58.00
0.97550	58.00
0.99217	58.00
1.00883	58.00
1.02550	58.00
1.04217	58.00
1.05883	58.00
1.07550	58.00
1.09217	58.00
1.10883	58.00
1.12550	58.00
1.14217	58.00
1.15883	58.00
1.17550	58.00
1.19217	58.00
1.20883	58.00
1.22550	58.00
1.24217	58.00
1.25883	58.00
1.27550	58.00
1.29217	58.00
1.30883	58.00
1.32550	58.00
1.34217	58.00
1.35883	58.00
1.37550	58.00
1.39217	58.00
1.40883	58.00
1.42550	58.00
1.44217	58.00
1.45883	58.00
1.47550	58.00
1.49217	58.00
1.50883	58.00
1.52550	58.00
1.54217	58.00
1.55883	58.00
1.57550	58.00
1.59217	58.00
1.60883	58.00
1.62550	58.00
1.64217	58.01
1.65883	58.00
1.67550	58.01
1.69217	58.00
1.70883	58.00
1.72550	58.00
1.74217	58.00
1.75883	58.00
1.77550	58.00
1.79217	58.00
1.80883	58.00
1.82550	58.00
1.84217	58.00
1.85883	58.00
1.87550	58.00
1.89217	58.00
1.90883	58.00
1.92550	58.00
1.94217	58.00
1.95883	58.00
1.97550	58.00
1.99217	58.00
2.00883	58.00
2.02550	58.00
2.04217	58.00
2.05883	58.00
2.07550	58.00
2.09217	58.00
2.10883	58.00
2.12550	58.00
2.14217	58.00
2.15883	58.00
2.17550	58.00
2.19217	58.00
2.20883	58.00
2.22550	58.00
2.24217	58.00
2.25883	58.00
2.27550	58.00
2.29217	58.00
2.30883	58.00
2.32550	58.00
2.34217	58.00
2.35883	58.00
2.37550	58.00
2.39217	57.99
2.40883	58.00
2.42550	58.00
2.44217	58.00
2.45883	58.00
2.47550	58.00
2.49217	58.00
2.50883	58.00
2.52550	57.98
2.54217	58.00
2.55883	58.00
2.57550	58.00
2.59217	58.00
2.60883	58.00
2.62550	58.00
2.64217	58.00
2.65883	58.00
2.67550	58.00
2.69217	58.00
2.70883	58.00
2.72550	58.00
2.74217	58.00
2.75883	58.00
2.77550	58.00
2.79217	58.00
2.80883	58.00
2.82550	58.00
2.84217	58.00
2.85883	58.00
2.87550	58.00
2.89217	58.00
2.90883	58.00
2.92550	58.00
2.94217	58.00
2.95883	58.00
2.97550	58.00
2.99217	58.00
3.00883	58.00
3.02550	58.00
3.04217	58.00
3.05883	58.00
3.07550	58.00
3.09217	58.00
3.10883	58.00
3.12550	58.00
3.14217	58.00
3.15883	58.00
3.17550	58.00
3.19217	58.00
3.20883	58.00
3.22550	58.00
3.24217	58.00
3.25883	58.00
3.27550	58.00
3.29217	58.00
3.30883	58.00
3.32550	58.00
3.34217	58.00
3.35883	58.00
3.37550	58.00
3.39217	58.00
3.40883	58.00
3.42550	58.00
3.44217	58.00
3.45883	58.00
3.47550	58.00
3.49217	58.00
3.50883	58.00
3.52550	58.00
3.54217	58.00
3.55883	58.00
3.57550	58.00
3.59217	58.00
3.60883	58.00
3.62550	58.00
3.64217	58.00
3.65883	58.00
3.67550	58.00
3.69217	58.00
3.70883	58.00
3.72550	58.00
3.74217	58.00
3.75883	58.00
3.77550	58.00
3.79217	58.00
3.80883	58.00
3.82550	58.00
3.84217	58.00
3.85883	58.00
3.87550	58.00
3.89217	58.00
3.90883	58.00
3.92550	58.00
3.94217	58.00
3.95883	58.00
3.97550	58.00
3.99217	58.00

[Status Trace (Carrier Gas Flow)]
Interval(msec)	1000
# of Points	240
Start Time(min)	0.009
End Time(min)	3.992
Intensity Units	
Intensity Multiplier	1
R.Time (min)	Intensity
0.00883	34.52
0.02550	34.54
0.04217	34.55
0.05883	34.55
0.07550	34.51
0.09217	34.52
0.10883	34.51
0.12550	34.51
0.14217	34.52
0.15883	34.52
0.17550	34.53
0.19217	34.51
0.20883	34.52
0.22550	34.52
0.24217	34.52
0.25883	34.52
0.27550	34.52
0.29217	34.52
0.30883	34.52
0.32550	34.52
0.34217	34.52
0.35883	34.52
0.37550	34.52
0.39217	34.52
0.40883	34.51
0.42550	34.52
0.44217	34.52
0.45883	34.52
0.47550	34.52
0.49217	34.51
0.50883	34.53
0.52550	34.52
0.54217	34.52
0.55883	34.52
0.57550	34.52
0.59217	34.51
0.60883	34.52
0.62550	34.52
0.64217	34.52
0.65883	34.52
0.67550	34.52
0.69217	34.51
0.70883	34.52
0.72550	34.52
0.74217	34.52
0.75883	34.52
0.77550	34.51
0.79217	34.52
0.80883	34.52
0.82550	34.52
0.84217	34.53
0.85883	34.53
0.87550	34.52
0.89217	34.51
0.90883	34.52
0.92550	34.52
0.94217	34.52
0.95883	34.52
0.97550	34.52
0.99217	34.52
1.00883	34.52
1.02550	34.52
1.04217	34.51
1.05883	34.52
1.07550	34.52
1.09217	34.52
1.10883	34.52
1.12550	34.51
1.14217	34.52
1.15883	34.53
1.17550	34.51
1.19217	34.52
1.20883	34.52
1.22550	34.52
1.24217	34.52
1.25883	34.52
1.27550	34.52
1.29217	34.52
1.30883	34.52
1.32550	34.52
1.34217	34.51
1.35883	34.52
1.37550	34.52
1.39217	34.52
1.40883	34.51
1.42550	34.52
1.44217	34.52
1.45883	34.52
1.47550	34.52
1.49217	34.52
1.50883	34.52
1.52550	34.52
1.54217	34.52
1.55883	34.52
1.57550	34.52
1.59217	34.52
1.60883	34.52
1.62550	34.52
1.64217	34.52
1.65883	34.52
1.67550	34.52
1.69217	34.51
1.70883	34.52
1.72550	34.52
1.74217	34.52
1.75883	34.51
1.77550	34.52
1.79217	34.52
1.80883	34.52
1.82550	34.53
1.84217	34.51
1.85883	34.52
1.87550	34.52
1.89217	34.52
1.90883	34.51
1.92550	34.52
1.94217	34.52
1.95883	34.52
1.97550	34.52
1.99217	34.52
2.00883	34.52
2.02550	34.51
2.04217	34.52
2.05883	34.52
2.07550	34.52
2.09217	34.52
2.10883	34.52
2.12550	34.52
2.14217	34.52
2.15883	34.52
2.17550	34.51
2.19217	34.52
2.20883	34.52
2.22550	34.52
2.24217	34.51
2.25883	34.52
2.27550	34.52
2.29217	34.52
2.30883	34.51
2.32550	34.52
2.34217	34.52
2.35883	34.52
2.37550	34.52
2.39217	34.52
2.40883	34.52
2.42550	34.52
2.44217	34.52
2.45883	34.52
2.47550	34.52
2.49217	34.51
2.50883	34.47
2.52550	34.52
2.54217	34.52
2.55883	34.52
2.57550	34.52
2.59217	34.52
2.60883	34.52
2.62550	34.52
2.64217	34.52
2.65883	34.52
2.67550	34.51
2.69217	34.52
2.70883	34.52
2.72550	34.52
2.74217	34.52
2.75883	34.52
2.77550	34.53
2.79217	34.52
2.80883	34.52
2.82550	34.52
2.84217	34.52
2.85883	34.52
2.87550	34.52
2.89217	34.52
2.90883	34.51
2.92550	34.52
2.94217	34.52
2.95883	34.52
2.97550	34.52
2.99217	34.52
3.00883	34.52
3.02550	34.52
3.04217	34.52
3.05883	34.52
3.07550	34.52
3.09217	34.51
3.10883	34.52
3.12550	34.52
3.14217	34.52
3.15883	34.52
3.17550	34.52
3.19217	34.52
3.20883	34.52
3.22550	34.52
3.24217	34.52
3.25883	34.52
3.27550	34.53
3.29217	34.51
3.30883	34.52
3.32550	34.52
3.34217	34.52
3.35883	34.52
3.37550	34.51
3.39217	34.52
3.40883	34.52
3.42550	34.52
3.44217	34.52
3.45883	34.52
3.47550	34.52
3.49217	34.52
3.50883	34.52
3.52550	34.51
3.54217	34.52
3.55883	34.52
3.57550	34.52
3.59217	34.52
3.60883	34.52
3.62550	34.51
3.64217	34.52
3.65883	34.52
3.67550	34.52
3.69217	34.52
3.70883	34.51
3.72550	34.52
3.74217	34.52
3.75883	34.52
3.77550	34.52
3.79217	34.52
3.80883	34.52
3.82550	34.52
3.84217	34.52
3.85883	34.52
3.87550	34.52
3.89217	34.52
3.90883	34.52
3.92550	34.52
3.94217	34.52
3.95883	34.51
3.97550	34.52
3.99217	34.53

[Status Trace (Column Flow)]
Interval(msec)	1000
# of Points	240
Start Time(min)	0.009
End Time(min)	3.992
Intensity Units	
Intensity Multiplier	1
R.Time (min)	Intensity
0.00883	5.51
0.02550	5.19
0.04217	5.41
0.05883	5.67
0.07550	5.67
0.09217	5.52
0.10883	5.51
0.12550	5.52
0.14217	5.52
0.15883	5.52
0.17550	5.51
0.19217	5.52
0.20883	5.51
0.22550	5.51
0.24217	5.51
0.25883	5.51
0.27550	5.51
0.29217	5.51
0.30883	5.51
0.32550	5.51
0.34217	5.51
0.35883	5.51
0.37550	5.51
0.39217	5.51
0.40883	5.51
0.42550	5.51
0.44217	5.51
0.45883	5.51
0.47550	5.51
0.49217	5.51
0.50883	5.51
0.52550	5.51
0.54217	5.51
0.55883	5.51
0.57550	5.51
0.59217	5.51
0.60883	5.51
0.62550	5.51
0.64217	5.51
0.65883	5.51
0.67550	5.51
0.69217	5.51
0.70883	5.51
0.72550	5.51
0.74217	5.51
0.75883	5.51
0.77550	5.51
0.79217	5.51
0.80883	5.51
0.82550	5.51
0.84217	5.51
0.85883	5.51
0.87550	5.51
0.89217	5.51
0.90883	5.51
0.92550	5.51
0.94217	5.51
0.95883	5.51
0.97550	5.51
0.99217	5.51
1.00883	5.51
1.02550	5.51
1.04217	5.51
1.05883	5.52
1.07550	5.52
1.09217	5.52
1.10883	5.51
1.12550	5.52
1.14217	5.52
1.15883	5.51
1.17550	5.51
1.19217	5.51
1.20883	5.51
1.22550	5.51
1.24217	5.51
1.25883	5.51
1.27550	5.51
1.29217	5.51
1.30883	5.51
1.32550	5.51
1.34217	5.51
1.35883	5.51
1.37550	5.51
1.39217	5.51
1.40883	5.51
1.42550	5.51
1.44217	5.51
1.45883	5.51
1.47550	5.51
1.49217	5.51
1.50883	5.51
1.52550	5.51
1.54217	5.51
1.55883	5.51
1.57550	5.51
1.59217	5.51
1.60883	5.51
1.62550	5.51
1.64217	5.50
1.65883	5.49
1.67550	5.48
1.69217	5.47
1.70883	5.46
1.72550	5.45
1.74217	5.44
1.75883	5.43
1.77550	5.42
1.79217	5.41
1.80883	5.40
1.82550	5.39
1.84217	5.38
1.85883	5.37
1.87550	5.36
1.89217	5.35
1.90883	5.34
1.92550	5.33
1.94217	5.32
1.95883	5.31
1.97550	5.30
1.99217	5.29
2.00883	5.28
2.02550	5.27
2.04217	5.26
2.05883	5.25
2.07550	5.24
2.09217	5.23
2.10883	5.22
2.12550	5.21
2.14217	5.21
2.15883	5.20
2.17550	5.19
2.19217	5.18
2.20883	5.17
2.22550	5.16
2.24217	5.15
2.25883	5.14
2.27550	5.13
2.29217	5.12
2.30883	5.11
2.32550	5.10
2.34217	5.09
2.35883	5.09
2.37550	5.08
2.39217	5.08
2.40883	5.08
2.42550	5.08
2.44217	5.08
2.45883	5.08
2.47550	5.08
2.49217	5.08
2.50883	5.08
2.52550	5.08
2.54217	5.08
2.55883	5.08
2.57550	5.08
2.59217	5.08
2.60883	5.08
2.62550	5.08
2.64217	5.08
2.65883	5.08
2.67550	5.08
2.69217	5.08
2.70883	5.07
2.72550	5.08
2.74217	5.08
2.75883	5.08
2.77550	5.07
2.79217	5.07
2.80883	5.07
2.82550	5.07
2.84217	5.07
2.85883	5.07
2.87550	5.07
2.89217	5.07
2.90883	5.07
2.92550	5.07
2.94217	5.07
2.95883	5.07
2.97550	5.07
2.99217	5.07
3.00883	5.07
3.02550	5.07
3.04217	5.07
3.05883	5.07
3.07550	5.07
3.09217	5.07
3.10883	5.07
3.12550	5.07
3.14217	5.07
3.15883	5.07
3.17550	5.07
3.19217	5.07
3.20883	5.07
3.22550	5.07
3.24217	5.07
3.25883	5.07
3.27550	5.07
3.29217	5.07
3.30883	5.07
3.32550	5.07
3.34217	5.07
3.35883	5.07
3.37550	5.07
3.39217	5.07
3.40883	5.07
3.42550	5.07
3.44217	5.07
3.45883	5.07
3.47550	5.07
3.49217	5.07
3.50883	5.07
3.52550	5.07
3.54217	5.07
3.55883	5.07
3.57550	5.07
3.59217	5.07
3.60883	5.07
3.62550	5.07
3.64217	5.07
3.65883	5.07
3.67550	5.07
3.69217	5.07
3.70883	5.07
3.72550	5.07
3.74217	5.07
3.75883	5.07
3.77550	5.07
3.79217	5.07
3.80883	5.07
3.82550	5.07
3.84217	5.07
3.85883	5.07
3.87550	5.07
3.89217	5.07
3.90883	5.07
3.92550	5.07
3.94217	5.07
3.95883	5.07
3.97550	5.07
3.99217	5.07

[Status Trace (Linear Velocity)]
Interval(msec)	1000
# of Points	240
Start Time(min)	0.009
End Time(min)	3.992
Intensity Units	
Intensity Multiplier	1
R.Time (min)	Intensity
0.00883	39.01
0.02550	37.18
0.04217	38.45
0.05883	39.87
0.07550	39.91
0.09217	39.06
0.10883	39.00
0.12550	39.02
0.14217	39.02
0.15883	39.02
0.17550	39.02
0.19217	39.02
0.20883	39.02
0.22550	39.02
0.24217	39.02
0.25883	39.01
0.27550	39.01
0.29217	39.01
0.30883	39.01
0.32550	39.01
0.34217	39.01
0.35883	39.01
0.37550	39.01
0.39217	39.01
0.40883	39.01
0.42550	39.01
0.44217	39.01
0.45883	39.02
0.47550	39.02
0.49217	39.02
0.50883	39.02
0.52550	39.01
0.54217	39.01
0.55883	39.02
0.57550	39.02
0.59217	39.02
0.60883	39.02
0.62550	39.01
0.64217	39.01
0.65883	39.01
0.67550	39.01
0.69217	39.01
0.70883	39.01
0.72550	39.01
0.74217	39.01
0.75883	39.01
0.77550	39.02
0.79217	39.02
0.80883	39.02
0.82550	39.02
0.84217	39.02
0.85883	39.02
0.87550	39.01
0.89217	39.01
0.90883	39.01
0.92550	39.01
0.94217	39.02
0.95883	39.02
0.97550	39.02
0.99217	39.02
1.00883	39.02
1.02550	39.02
1.04217	39.02
1.05883	39.02
1.07550	39.02
1.09217	39.02
1.10883	39.02
1.12550	39.02
1.14217	39.02
1.15883	39.02
1.17550	39.02
1.19217	39.02
1.20883	39.02
1.22550	39.01
1.24217	39.01
1.25883	39.01
1.27550	39.02
1.29217	39.02
1.30883	39.02
1.32550	39.02
1.34217	39.02
1.35883	39.02
1.37550	39.02
1.39217	39.02
1.40883	39.02
1.42550	39.02
1.44217	39.02
1.45883	39.02
1.47550	39.02
1.49217	39.02
1.50883	39.02
1.52550	39.02
1.54217	39.02
1.55883	39.02
1.57550	39.02
1.59217	39.02
1.60883	39.01
1.62550	39.00
1.64217	38.98
1.65883	38.96
1.67550	38.92
1.69217	38.89
1.70883	38.85
1.72550	38.82
1.74217	38.79
1.75883	38.76
1.77550	38.73
1.79217	38.70
1.80883	38.66
1.82550	38.63
1.84217	38.60
1.85883	38.57
1.87550	38.54
1.89217	38.51
1.90883	38.48
1.92550	38.45
1.94217	38.42
1.95883	38.39
1.97550	38.35
1.99217	38.33
2.00883	38.30
2.02550	38.26
2.04217	38.24
2.05883	38.21
2.07550	38.18
2.09217	38.15
2.10883	38.12
2.12550	38.08
2.14217	38.06
2.15883	38.03
2.17550	38.00
2.19217	37.97
2.20883	37.94
2.22550	37.91
2.24217	37.88
2.25883	37.85
2.27550	37.82
2.29217	37.79
2.30883	37.76
2.32550	37.73
2.34217	37.70
2.35883	37.68
2.37550	37.66
2.39217	37.66
2.40883	37.66
2.42550	37.66
2.44217	37.66
2.45883	37.66
2.47550	37.66
2.49217	37.66
2.50883	37.65
2.52550	37.64
2.54217	37.65
2.55883	37.65
2.57550	37.65
2.59217	37.65
2.60883	37.65
2.62550	37.65
2.64217	37.64
2.65883	37.64
2.67550	37.64
2.69217	37.64
2.70883	37.64
2.72550	37.64
2.74217	37.64
2.75883	37.64
2.77550	37.64
2.79217	37.64
2.80883	37.64
2.82550	37.64
2.84217	37.64
2.85883	37.64
2.87550	37.64
2.89217	37.64
2.90883	37.64
2.92550	37.64
2.94217	37.63
2.95883	37.63
2.97550	37.63
2.99217	37.63
3.00883	37.63
3.02550	37.63
3.04217	37.63
3.05883	37.63
3.07550	37.63
3.09217	37.63
3.10883	37.63
3.12550	37.63
3.14217	37.62
3.15883	37.62
3.17550	37.62
3.19217	37.62
3.20883	37.62
3.22550	37.62
3.24217	37.62
3.25883	37.62
3.27550	37.62
3.29217	37.62
3.30883	37.62
3.32550	37.62
3.34217	37.62
3.35883	37.62
3.37550	37.62
3.39217	37.62
3.40883	37.62
3.42550	37.62
3.44217	37.62
3.45883	37.62
3.47550	37.62
3.49217	37.62
3.50883	37.62
3.52550	37.62
3.54217	37.62
3.55883	37.62
3.57550	37.62
3.59217	37.62
3.60883	37.62
3.62550	37.62
3.64217	37.62
3.65883	37.62
3.67550	37.62
3.69217	37.62
3.70883	37.62
3.72550	37.62
3.74217	37.62
3.75883	37.62
3.77550	37.62
3.79217	37.62
3.80883	37.62
3.82550	37.62
3.84217	37.62
3.85883	37.62
3.87550	37.62
3.89217	37.62
3.90883	37.63
3.92550	37.63
3.94217	37.63
3.95883	37.63
3.97550	37.63
3.99217	37.63

