[Header]
Application Name	LabSolutions
Version	5.110
Data File Name	C:\Users\User\Desktop\Junior\UIC Prairie Sampling\2023\8.18.23\081823_065.gcd
Output Date	8/31/2023
Output Time	12:48:11 PM

[File Information]
Type	Data File
Generated	8/30/2023 11:05:07 PM
Generated by	System Administrator
Modified	8/30/2023 11:11:27 PM
Modified by	System Administrator

[Sample Information]
Operator Name	System Administrator
Acquired	8/30/2023 11:07:25 PM
Sample Type	0:Unknown
Level	0
Sample Name	065
Sample ID	065
ISTD Amount1	1
ISTD Amount2	1
ISTD Amount3	1
ISTD Amount4	1
ISTD Amount5	1
ISTD Amount6	1
ISTD Amount7	1
ISTD Amount8	1
ISTD Amount9	1
ISTD Amount10	1
ISTD Amount11	1
ISTD Amount12	1
ISTD Amount13	1
ISTD Amount14	1
ISTD Amount15	1
ISTD Amount16	1
ISTD Amount17	1
ISTD Amount18	1
ISTD Amount19	1
ISTD Amount20	1
ISTD Amount21	1
ISTD Amount22	1
ISTD Amount23	1
ISTD Amount24	1
ISTD Amount25	1
ISTD Amount26	1
ISTD Amount27	1
ISTD Amount28	1
ISTD Amount29	1
ISTD Amount30	1
ISTD Amount31	1
ISTD Amount32	1
Sample Amount	1
Dilution Factor	1
Vial#	64
Injection Volume	1
Injection Count	1
Bar Code	

[Original Files]
Data File	C:\Users\User\Desktop\Junior\UIC Prairie Sampling\8.18.23\081823_065.gcd
Method File	C:\LabSolutions\Data\GHG_4min_2022\ghg3_togas_w_acet_4 min_new_int.gcm
Batch File	C:\LabSolutions\Data\BATCH FILES\081823.gcb
Report Format File	c:\LabSolutions\System\DEFAULT.lsr

[File Description]


[Configuration]
Instrument Name	C0B7VH3-Instrument1
Instrument #	1
Line #	1
# of Detectors	3
Detector ID	DET#1	DET#2	DET#3
Detector Name	FID	PTCD	ECD
# of Channels	1	1	1

[Peak Table(Ch1)]
# of Peaks	3
Peak#	R.Time	I.Time	F.Time	Area	Height	A/H	Conc.	Mark	ID#	Name	k'	Plate #	Plate Ht.	Tailing	Resolution	Sep.Factor	Area Ratio	Height Ratio	Conc. %	Norm Conc.
1	1.472	1.435	1.527	4182	2103	1.988	0.000	   	1	CO	0.000	9993	15.010	1.391	0.000	0.000	0	0	0.000	0.000
2	1.564	1.527	1.622	4372	2221	1.969	21.314	 V 	2	CH4	0.062	11603	12.928	1.124	1.567	0.000	0	0	3.851	3.851
3	1.989	1.941	2.546	2761678	1319960	2.092	532.226	   	3	CO2	0.351	17265	8.688	1.289	7.172	5.640	0	0	96.149	96.149

[Peak Table(Ch2)]
# of Peaks	0

[Peak Table(Ch3)]
# of Peaks	5
Peak#	R.Time	I.Time	F.Time	Area	Height	A/H	Conc.	Mark	ID#	Name	k'	Plate #	Plate Ht.	Tailing	Resolution	Sep.Factor	Area Ratio	Height Ratio	Conc. %	Norm Conc.
1	2.458	2.440	2.506	712	292	2.438	0.000	   			0.000	15638	9.592	0.000	0.000	0.000	0	0	0.000	0.000
2	2.528	2.506	2.576	322	119	2.693	0.000	 V 			0.028	5791	25.903	0.000	0.659	0.000	0	0	0.000	0.000
3	2.627	2.576	2.693	408	106	3.862	0.000	 V 			0.069	8711	17.219	0.000	0.807	2.421	0	0	0.000	0.000
4	2.891	2.763	3.045	14674	4008	3.661	0.217	   	1	N2O	0.176	13981	10.729	1.488	2.510	2.565	0	0	100.000	100.000
5	3.195	3.111	3.965	23543	942	24.985	0.000	   	2	SF6	0.300	212	709.146	5.057	0.623	1.703	0	0	0.000	0.000

[Compound Results(Ch1)]
# of IDs	6
ID#	Name	R.Time	Area	Height	Conc.	Curve	3rd	2nd	1st	Constant	Area Ratio	Height Ratio	Conc. %	Norm Conc.
1	CO	1.472	4182	2103	0.000	Linear	0.000000e+00	0.000000e+00	0.000000e+00	0.000000e+00	0	0	0.000	0.000
2	CH4	1.564	4372	2221	21.314	Linear	0.000000e+00	0.000000e+00	2.051179e+002	0.000000e+00	0	0	3.851	3.851
3	CO2	1.989	2761678	1319960	532.226	Linear	0.000000e+00	0.000000e+00	5.188919e+003	0.000000e+00	0	0	96.149	96.149
4	Ethylene	0.000	0	0	0.000	Linear	0.000000e+00	0.000000e+00	0.000000e+00	0.000000e+00	0	0	0.000	0.000
5	Acetylene	0.000	0	0	0.000	Linear	0.000000e+00	0.000000e+00	0.000000e+00	0.000000e+00	0	0	0.000	0.000
6	Ethane	0.000	0	0	0.000	Linear	0.000000e+00	0.000000e+00	0.000000e+00	0.000000e+00	0	0	0.000	0.000

[Compound Results(Ch2)]
# of IDs	5
ID#	Name	R.Time	Area	Height	Conc.	Curve	3rd	2nd	1st	Constant	Area Ratio	Height Ratio	Conc. %	Norm Conc.
1	Hydrogen	0.000	0	0	0.000	Linear	0.000000e+00	0.000000e+00	0.000000e+00	0.000000e+00	0	0	0.000	0.000
2	Oxygen	0.000	0	0	0.000	Linear	0.000000e+00	0.000000e+00	0.000000e+00	0.000000e+00	0	0	0.000	0.000
3	Nitrogen	0.000	0	0	0.000	Linear	0.000000e+00	0.000000e+00	0.000000e+00	0.000000e+00	0	0	0.000	0.000
4	Methane	0.000	0	0	0.000	Linear	0.000000e+00	0.000000e+00	0.000000e+00	0.000000e+00	0	0	0.000	0.000
5	Carbon Monoxide	0.000	0	0	0.000	Linear	0.000000e+00	0.000000e+00	0.000000e+00	0.000000e+00	0	0	0.000	0.000

[Compound Results(Ch3)]
# of IDs	2
ID#	Name	R.Time	Area	Height	Conc.	Curve	3rd	2nd	1st	Constant	Area Ratio	Height Ratio	Conc. %	Norm Conc.
1	N2O	2.891	14674	4008	0.217	Linear	0.000000e+00	0.000000e+00	6.759880e+004	0.000000e+00	0	0	100.000	100.000
2	SF6	3.195	23543	942	0.000	Linear	0.000000e+00	0.000000e+00	0.000000e+00	0.000000e+00	0	0	0.000	0.000

[Group Results(Ch1)]
# of Groups	0

[Group Results(Ch2)]
# of Groups	0

[Group Results(Ch3)]
# of Groups	0

[Chromatogram (Ch1)]
Interval(msec)	220
# of Points	1091
Start Time(min)	0.002
End Time(min)	3.998
R.Time (min)	Intensity
0.00167	8
0.00533	3
0.00900	1
0.01267	4
0.01633	8
0.02000	12
0.02367	15
0.02733	15
0.03100	14
0.03467	15
0.03833	17
0.04200	17
0.04567	15
0.04933	15
0.05300	17
0.05667	18
0.06033	19
0.06400	19
0.06767	20
0.07133	23
0.07500	26
0.07867	28
0.08233	27
0.08600	25
0.08967	22
0.09333	21
0.09700	21
0.10067	21
0.10433	20
0.10800	18
0.11167	14
0.11533	6
0.11900	-2
0.12267	-4
0.12633	-1
0.13000	4
0.13367	6
0.13733	5
0.14100	5
0.14467	4
0.14833	6
0.15200	10
0.15567	14
0.15933	19
0.16300	25
0.16667	26
0.17033	23
0.17400	19
0.17767	19
0.18133	24
0.18500	27
0.18867	27
0.19233	25
0.19600	22
0.19967	19
0.20333	16
0.20700	16
0.21067	17
0.21433	16
0.21800	10
0.22167	7
0.22533	9
0.22900	15
0.23267	20
0.23633	21
0.24000	15
0.24367	8
0.24733	3
0.25100	-1
0.25467	-5
0.25833	-9
0.26200	-10
0.26567	-9
0.26933	-8
0.27300	-7
0.27667	-4
0.28033	-0
0.28400	3
0.28767	6
0.29133	10
0.29500	12
0.29867	12
0.30233	10
0.30600	9
0.30967	9
0.31333	9
0.31700	7
0.32067	6
0.32433	6
0.32800	9
0.33167	12
0.33533	15
0.33900	18
0.34267	18
0.34633	14
0.35000	10
0.35367	6
0.35733	4
0.36100	2
0.36467	3
0.36833	6
0.37200	9
0.37567	13
0.37933	18
0.38300	21
0.38667	23
0.39033	25
0.39400	24
0.39767	17
0.40133	7
0.40500	-1
0.40867	-8
0.41233	-11
0.41600	-6
0.41967	3
0.42333	14
0.42700	24
0.43067	30
0.43433	33
0.43800	35
0.44167	38
0.44533	42
0.44900	42
0.45267	36
0.45633	25
0.46000	14
0.46367	4
0.46733	-5
0.47100	-11
0.47467	-12
0.47833	-13
0.48200	-10
0.48567	-4
0.48933	5
0.49300	12
0.49667	18
0.50033	19
0.50400	19
0.50767	18
0.51133	16
0.51500	14
0.51867	13
0.52233	15
0.52600	18
0.52967	15
0.53333	12
0.53700	13
0.54067	14
0.54433	13
0.54800	14
0.55167	16
0.55533	19
0.55900	19
0.56267	20
0.56633	22
0.57000	26
0.57367	30
0.57733	32
0.58100	32
0.58467	30
0.58833	28
0.59200	25
0.59567	19
0.59933	13
0.60300	9
0.60667	5
0.61033	6
0.61400	6
0.61767	4
0.62133	3
0.62500	2
0.62867	3
0.63233	3
0.63600	3
0.63967	5
0.64333	5
0.64700	7
0.65067	9
0.65433	12
0.65800	12
0.66167	11
0.66533	10
0.66900	13
0.67267	16
0.67633	18
0.68000	21
0.68367	24
0.68733	25
0.69100	21
0.69467	13
0.69833	7
0.70200	2
0.70567	-1
0.70933	-3
0.71300	-5
0.71667	-3
0.72033	-0
0.72400	1
0.72767	4
0.73133	9
0.73500	15
0.73867	18
0.74233	16
0.74600	13
0.74967	11
0.75333	8
0.75700	6
0.76067	6
0.76433	3
0.76800	3
0.77167	3
0.77533	3
0.77900	2
0.78267	1
0.78633	-0
0.79000	1
0.79367	6
0.79733	12
0.80100	14
0.80467	15
0.80833	16
0.81200	14
0.81567	12
0.81933	10
0.82300	10
0.82667	11
0.83033	12
0.83400	13
0.83767	12
0.84133	12
0.84500	13
0.84867	13
0.85233	13
0.85600	13
0.85967	13
0.86333	9
0.86700	4
0.87067	1
0.87433	-2
0.87800	-6
0.88167	-8
0.88533	-8
0.88900	-7
0.89267	-7
0.89633	-5
0.90000	-1
0.90367	4
0.90733	9
0.91100	16
0.91467	20
0.91833	23
0.92200	26
0.92567	30
0.92933	33
0.93300	33
0.93667	31
0.94033	30
0.94400	27
0.94767	22
0.95133	16
0.95500	9
0.95867	-0
0.96233	-10
0.96600	-17
0.96967	-19
0.97333	-16
0.97700	-13
0.98067	-9
0.98433	-3
0.98800	2
0.99167	8
0.99533	15
0.99900	22
1.00267	28
1.00633	35
1.01000	40
1.01367	39
1.01733	32
1.02100	23
1.02467	14
1.02833	6
1.03200	0
1.03567	-2
1.03933	-3
1.04300	-5
1.04667	-5
1.05033	-4
1.05400	-3
1.05767	-1
1.06133	4
1.06500	9
1.06867	10
1.07233	7
1.07600	4
1.07967	0
1.08333	-0
1.08700	-0
1.09067	0
1.09433	3
1.09800	6
1.10167	11
1.10533	14
1.10900	18
1.11267	22
1.11633	22
1.12000	17
1.12367	10
1.12733	6
1.13100	5
1.13467	4
1.13833	0
1.14200	-4
1.14567	-6
1.14933	-5
1.15300	-5
1.15667	-7
1.16033	-11
1.16400	-11
1.16767	-8
1.17133	-7
1.17500	-4
1.17867	1
1.18233	3
1.18600	2
1.18967	1
1.19333	-1
1.19700	-1
1.20067	1
1.20433	5
1.20800	8
1.21167	9
1.21533	8
1.21900	7
1.22267	5
1.22633	2
1.23000	-1
1.23367	-1
1.23733	-1
1.24100	-3
1.24467	-4
1.24833	-4
1.25200	-4
1.25567	-4
1.25933	-3
1.26300	-3
1.26667	-4
1.27033	-6
1.27400	-8
1.27767	-8
1.28133	-8
1.28500	-5
1.28867	-0
1.29233	3
1.29600	3
1.29967	3
1.30333	4
1.30700	5
1.31067	4
1.31433	2
1.31800	1
1.32167	-0
1.32533	0
1.32900	-0
1.33267	1
1.33633	4
1.34000	8
1.34367	13
1.34733	13
1.35100	13
1.35467	13
1.35833	13
1.36200	11
1.36567	6
1.36933	2
1.37300	-2
1.37667	-3
1.38033	-4
1.38400	-4
1.38767	-6
1.39133	-6
1.39500	-6
1.39867	-9
1.40233	-12
1.40600	-13
1.40967	-13
1.41333	-10
1.41700	-7
1.42067	-6
1.42433	-8
1.42800	-11
1.43167	-10
1.43533	-2
1.43900	9
1.44267	8
1.44633	45
1.45000	228
1.45367	576
1.45733	1000
1.46100	1405
1.46467	1742
1.46833	1986
1.47200	2101
1.47567	2056
1.47933	1857
1.48300	1553
1.48667	1218
1.49033	907
1.49400	654
1.49767	465
1.50133	329
1.50500	233
1.50867	168
1.51233	126
1.51600	101
1.51967	85
1.52333	71
1.52700	61
1.53067	61
1.53433	93
1.53800	209
1.54167	470
1.54533	863
1.54900	1303
1.55267	1702
1.55633	2007
1.56000	2188
1.56367	2219
1.56733	2082
1.57100	1799
1.57467	1441
1.57833	1080
1.58200	768
1.58567	524
1.58933	349
1.59300	230
1.59667	150
1.60033	100
1.60400	67
1.60767	45
1.61133	27
1.61500	13
1.61867	4
1.62233	-2
1.62600	-3
1.62967	-1
1.63333	4
1.63700	9
1.64067	12
1.64433	11
1.64800	7
1.65167	4
1.65533	3
1.65900	3
1.66267	3
1.66633	2
1.67000	1
1.67367	2
1.67733	3
1.68100	3
1.68467	3
1.68833	2
1.69200	0
1.69567	-3
1.69933	-7
1.70300	-13
1.70667	-14
1.71033	-15
1.71400	-16
1.71767	-16
1.72133	-15
1.72500	-14
1.72867	-12
1.73233	-10
1.73600	-8
1.73967	-8
1.74333	-10
1.74700	-12
1.75067	-11
1.75433	-9
1.75800	-6
1.76167	-3
1.76533	-2
1.76900	-3
1.77267	-5
1.77633	-5
1.78000	-2
1.78367	3
1.78733	8
1.79100	12
1.79467	12
1.79833	7
1.80200	0
1.80567	-6
1.80933	-9
1.81300	-11
1.81667	-12
1.82033	-11
1.82400	-8
1.82767	-4
1.83133	1
1.83500	2
1.83867	1
1.84233	0
1.84600	-0
1.84967	-2
1.85333	-4
1.85700	-3
1.86067	-0
1.86433	4
1.86800	8
1.87167	10
1.87533	11
1.87900	10
1.88267	9
1.88633	10
1.89000	12
1.89367	14
1.89733	14
1.90100	12
1.90467	11
1.90833	9
1.91200	6
1.91567	5
1.91933	7
1.92300	9
1.92667	9
1.93033	7
1.93400	6
1.93767	7
1.94133	10
1.94500	35
1.94867	215
1.95233	1356
1.95600	6912
1.95967	27148
1.96333	83236
1.96700	201908
1.97067	394715
1.97433	641733
1.97800	898503
1.98167	1117877
1.98533	1264733
1.98900	1320014
1.99267	1280978
1.99633	1160987
2.00000	986963
2.00367	791777
2.00733	604617
2.01100	444142
2.01467	317425
2.01833	223161
2.02200	155925
2.02567	109300
2.02933	77527
2.03300	56062
2.03667	41573
2.04033	31739
2.04400	24988
2.04767	20279
2.05133	16926
2.05500	14480
2.05867	12640
2.06233	11218
2.06600	10090
2.06967	9177
2.07333	8421
2.07700	7784
2.08067	7242
2.08433	6772
2.08800	6358
2.09167	5992
2.09533	5668
2.09900	5376
2.10267	5112
2.10633	4876
2.11000	4664
2.11367	4470
2.11733	4287
2.12100	4115
2.12467	3952
2.12833	3799
2.13200	3659
2.13567	3532
2.13933	3415
2.14300	3303
2.14667	3193
2.15033	3086
2.15400	2983
2.15767	2884
2.16133	2791
2.16500	2707
2.16867	2632
2.17233	2562
2.17600	2498
2.17967	2437
2.18333	2378
2.18700	2318
2.19067	2254
2.19433	2190
2.19800	2129
2.20167	2076
2.20533	2030
2.20900	1989
2.21267	1951
2.21633	1909
2.22000	1863
2.22367	1817
2.22733	1776
2.23100	1739
2.23467	1701
2.23833	1663
2.24200	1628
2.24567	1597
2.24933	1568
2.25300	1541
2.25667	1515
2.26033	1488
2.26400	1459
2.26767	1431
2.27133	1405
2.27500	1380
2.27867	1355
2.28233	1330
2.28600	1305
2.28967	1280
2.29333	1257
2.29700	1237
2.30067	1223
2.30433	1209
2.30800	1196
2.31167	1181
2.31533	1164
2.31900	1145
2.32267	1121
2.32633	1095
2.33000	1070
2.33367	1050
2.33733	1034
2.34100	1023
2.34467	1012
2.34833	1000
2.35200	990
2.35567	984
2.35933	981
2.36300	976
2.36667	968
2.37033	957
2.37400	945
2.37767	930
2.38133	915
2.38500	899
2.38867	882
2.39233	866
2.39600	849
2.39967	833
2.40333	818
2.40700	804
2.41067	795
2.41433	790
2.41800	786
2.42167	782
2.42533	778
2.42900	772
2.43267	765
2.43633	755
2.44000	744
2.44367	737
2.44733	730
2.45100	718
2.45467	704
2.45833	692
2.46200	682
2.46567	679
2.46933	681
2.47300	681
2.47667	677
2.48033	671
2.48400	665
2.48767	657
2.49133	646
2.49500	634
2.49867	624
2.50233	617
2.50600	613
2.50967	612
2.51333	612
2.51700	610
2.52067	607
2.52433	602
2.52800	596
2.53167	594
2.53533	591
2.53900	585
2.54267	578
2.54633	571
2.55000	569
2.55367	572
2.55733	573
2.56100	569
2.56467	562
2.56833	555
2.57200	552
2.57567	547
2.57933	539
2.58300	531
2.58667	525
2.59033	520
2.59400	515
2.59767	510
2.60133	505
2.60500	499
2.60867	493
2.61233	487
2.61600	482
2.61967	479
2.62333	475
2.62700	477
2.63067	479
2.63433	477
2.63800	474
2.64167	472
2.64533	469
2.64900	468
2.65267	472
2.65633	473
2.66000	473
2.66367	472
2.66733	467
2.67100	461
2.67467	454
2.67833	448
2.68200	443
2.68567	439
2.68933	434
2.69300	429
2.69667	424
2.70033	419
2.70400	415
2.70767	416
2.71133	419
2.71500	425
2.71867	429
2.72233	429
2.72600	428
2.72967	423
2.73333	418
2.73700	415
2.74067	414
2.74433	414
2.74800	413
2.75167	412
2.75533	411
2.75900	409
2.76267	407
2.76633	403
2.77000	399
2.77367	398
2.77733	401
2.78100	405
2.78467	406
2.78833	404
2.79200	402
2.79567	399
2.79933	394
2.80300	389
2.80667	387
2.81033	384
2.81400	380
2.81767	379
2.82133	381
2.82500	381
2.82867	379
2.83233	379
2.83600	380
2.83967	383
2.84333	389
2.84700	396
2.85067	403
2.85433	405
2.85800	401
2.86167	392
2.86533	382
2.86900	376
2.87267	373
2.87633	367
2.88000	358
2.88367	349
2.88733	343
2.89100	342
2.89467	344
2.89833	345
2.90200	343
2.90567	343
2.90933	343
2.91300	342
2.91667	341
2.92033	340
2.92400	338
2.92767	338
2.93133	338
2.93500	339
2.93867	340
2.94233	337
2.94600	335
2.94967	335
2.95333	334
2.95700	330
2.96067	327
2.96433	326
2.96800	326
2.97167	331
2.97533	337
2.97900	344
2.98267	352
2.98633	361
2.99000	366
2.99367	369
2.99733	372
3.00100	374
3.00467	374
3.00833	372
3.01200	374
3.01567	380
3.01933	385
3.02300	385
3.02667	384
3.03033	380
3.03400	371
3.03767	360
3.04133	353
3.04500	344
3.04867	338
3.05233	335
3.05600	332
3.05967	330
3.06333	329
3.06700	329
3.07067	330
3.07433	331
3.07800	330
3.08167	329
3.08533	329
3.08900	332
3.09267	336
3.09633	338
3.10000	339
3.10367	338
3.10733	339
3.11100	342
3.11467	343
3.11833	339
3.12200	332
3.12567	324
3.12933	320
3.13300	318
3.13667	317
3.14033	320
3.14400	325
3.14767	329
3.15133	332
3.15500	333
3.15867	334
3.16233	336
3.16600	338
3.16967	337
3.17333	334
3.17700	335
3.18067	336
3.18433	338
3.18800	342
3.19167	346
3.19533	348
3.19900	348
3.20267	348
3.20633	345
3.21000	340
3.21367	334
3.21733	328
3.22100	321
3.22467	318
3.22833	317
3.23200	320
3.23567	322
3.23933	319
3.24300	315
3.24667	315
3.25033	319
3.25400	325
3.25767	329
3.26133	331
3.26500	331
3.26867	331
3.27233	328
3.27600	323
3.27967	319
3.28333	316
3.28700	314
3.29067	313
3.29433	315
3.29800	319
3.30167	320
3.30533	321
3.30900	322
3.31267	323
3.31633	321
3.32000	315
3.32367	309
3.32733	308
3.33100	311
3.33467	315
3.33833	319
3.34200	321
3.34567	323
3.34933	323
3.35300	323
3.35667	324
3.36033	324
3.36400	323
3.36767	323
3.37133	322
3.37500	321
3.37867	320
3.38233	321
3.38600	321
3.38967	318
3.39333	314
3.39700	309
3.40067	305
3.40433	302
3.40800	299
3.41167	296
3.41533	292
3.41900	290
3.42267	292
3.42633	292
3.43000	291
3.43367	294
3.43733	299
3.44100	301
3.44467	301
3.44833	299
3.45200	298
3.45567	297
3.45933	298
3.46300	300
3.46667	300
3.47033	300
3.47400	300
3.47767	302
3.48133	304
3.48500	305
3.48867	303
3.49233	298
3.49600	294
3.49967	295
3.50333	299
3.50700	305
3.51067	307
3.51433	305
3.51800	304
3.52167	304
3.52533	304
3.52900	302
3.53267	301
3.53633	300
3.54000	298
3.54367	292
3.54733	286
3.55100	281
3.55467	279
3.55833	276
3.56200	274
3.56567	275
3.56933	275
3.57300	273
3.57667	272
3.58033	275
3.58400	278
3.58767	281
3.59133	284
3.59500	287
3.59867	290
3.60233	294
3.60600	298
3.60967	302
3.61333	306
3.61700	306
3.62067	302
3.62433	294
3.62800	287
3.63167	281
3.63533	279
3.63900	277
3.64267	274
3.64633	273
3.65000	276
3.65367	279
3.65733	276
3.66100	273
3.66467	271
3.66833	270
3.67200	268
3.67567	269
3.67933	270
3.68300	270
3.68667	269
3.69033	269
3.69400	268
3.69767	269
3.70133	270
3.70500	271
3.70867	272
3.71233	273
3.71600	270
3.71967	265
3.72333	261
3.72700	259
3.73067	258
3.73433	254
3.73800	250
3.74167	248
3.74533	246
3.74900	249
3.75267	253
3.75633	254
3.76000	256
3.76367	259
3.76733	262
3.77100	263
3.77467	266
3.77833	269
3.78200	274
3.78567	278
3.78933	276
3.79300	272
3.79667	270
3.80033	268
3.80400	266
3.80767	263
3.81133	260
3.81500	257
3.81867	254
3.82233	253
3.82600	255
3.82967	256
3.83333	256
3.83700	252
3.84067	248
3.84433	245
3.84800	242
3.85167	238
3.85533	235
3.85900	235
3.86267	238
3.86633	242
3.87000	245
3.87367	245
3.87733	244
3.88100	243
3.88467	242
3.88833	242
3.89200	242
3.89567	243
3.89933	243
3.90300	244
3.90667	243
3.91033	242
3.91400	244
3.91767	247
3.92133	247
3.92500	245
3.92867	241
3.93233	239
3.93600	238
3.93967	238
3.94333	240
3.94700	243
3.95067	245
3.95433	247
3.95800	247
3.96167	246
3.96533	243
3.96900	239
3.97267	233
3.97633	229
3.98000	227
3.98367	227
3.98733	231
3.99100	235
3.99467	238
3.99833	241

[Chromatogram (Ch2)]
Interval(msec)	220
# of Points	1091
Start Time(min)	0.002
End Time(min)	3.998
R.Time (min)	Intensity
0.00167	0
0.00533	0
0.00900	-0
0.01267	-1
0.01633	-1
0.02000	-1
0.02367	-1
0.02733	-2
0.03100	-2
0.03467	-2
0.03833	-2
0.04200	-2
0.04567	-2
0.04933	-2
0.05300	-2
0.05667	-2
0.06033	-2
0.06400	-2
0.06767	-2
0.07133	-2
0.07500	-2
0.07867	-2
0.08233	-2
0.08600	-2
0.08967	-2
0.09333	-2
0.09700	-2
0.10067	-2
0.10433	-1
0.10800	-1
0.11167	-2
0.11533	-2
0.11900	-2
0.12267	-2
0.12633	-2
0.13000	-1
0.13367	-1
0.13733	-1
0.14100	-0
0.14467	-0
0.14833	-0
0.15200	-0
0.15567	-0
0.15933	-0
0.16300	-0
0.16667	-0
0.17033	-0
0.17400	-0
0.17767	-1
0.18133	-1
0.18500	-1
0.18867	-1
0.19233	-1
0.19600	-2
0.19967	-2
0.20333	-2
0.20700	-2
0.21067	-2
0.21433	-2
0.21800	-3
0.22167	-3
0.22533	-3
0.22900	-3
0.23267	-3
0.23633	-3
0.24000	-3
0.24367	-3
0.24733	-3
0.25100	-3
0.25467	-3
0.25833	-3
0.26200	-3
0.26567	-3
0.26933	-3
0.27300	-3
0.27667	-3
0.28033	-3
0.28400	-3
0.28767	-3
0.29133	-3
0.29500	-3
0.29867	-3
0.30233	-3
0.30600	-3
0.30967	-3
0.31333	-3
0.31700	-3
0.32067	-3
0.32433	-3
0.32800	-3
0.33167	-3
0.33533	-2
0.33900	-2
0.34267	-2
0.34633	-2
0.35000	-3
0.35367	-3
0.35733	-3
0.36100	-3
0.36467	-3
0.36833	-3
0.37200	-3
0.37567	-3
0.37933	-3
0.38300	-3
0.38667	-3
0.39033	-3
0.39400	-3
0.39767	-3
0.40133	-3
0.40500	-3
0.40867	-3
0.41233	-2
0.41600	-2
0.41967	-2
0.42333	-2
0.42700	-2
0.43067	-2
0.43433	-2
0.43800	-2
0.44167	-3
0.44533	-3
0.44900	-3
0.45267	-3
0.45633	-3
0.46000	-4
0.46367	-4
0.46733	-4
0.47100	-4
0.47467	-4
0.47833	-4
0.48200	-4
0.48567	-4
0.48933	-4
0.49300	-4
0.49667	-3
0.50033	-3
0.50400	-4
0.50767	-4
0.51133	-4
0.51500	-4
0.51867	-4
0.52233	-4
0.52600	-4
0.52967	-4
0.53333	-4
0.53700	-4
0.54067	-4
0.54433	-4
0.54800	-4
0.55167	-4
0.55533	-4
0.55900	-4
0.56267	-4
0.56633	-4
0.57000	-3
0.57367	-3
0.57733	-3
0.58100	-3
0.58467	-3
0.58833	-4
0.59200	-4
0.59567	-4
0.59933	-4
0.60300	-4
0.60667	-4
0.61033	-4
0.61400	-4
0.61767	-4
0.62133	-4
0.62500	-4
0.62867	-4
0.63233	-4
0.63600	-4
0.63967	-4
0.64333	-3
0.64700	-3
0.65067	-3
0.65433	-3
0.65800	-2
0.66167	-2
0.66533	-2
0.66900	-3
0.67267	-3
0.67633	-3
0.68000	-4
0.68367	-4
0.68733	-4
0.69100	-4
0.69467	-3
0.69833	-4
0.70200	-4
0.70567	-4
0.70933	-3
0.71300	-3
0.71667	-3
0.72033	-3
0.72400	-3
0.72767	-3
0.73133	-3
0.73500	-3
0.73867	-3
0.74233	-3
0.74600	-3
0.74967	-3
0.75333	-4
0.75700	-4
0.76067	-4
0.76433	-4
0.76800	-4
0.77167	-4
0.77533	-4
0.77900	-4
0.78267	-4
0.78633	-4
0.79000	-4
0.79367	-4
0.79733	-4
0.80100	-5
0.80467	-4
0.80833	-4
0.81200	-4
0.81567	-4
0.81933	-4
0.82300	-5
0.82667	-5
0.83033	-5
0.83400	-5
0.83767	-5
0.84133	-5
0.84500	-5
0.84867	-5
0.85233	-5
0.85600	-5
0.85967	-5
0.86333	-5
0.86700	-5
0.87067	-4
0.87433	-4
0.87800	-4
0.88167	-4
0.88533	-4
0.88900	-4
0.89267	-4
0.89633	-4
0.90000	-4
0.90367	-4
0.90733	-4
0.91100	-4
0.91467	-4
0.91833	-4
0.92200	-4
0.92567	-4
0.92933	-4
0.93300	-4
0.93667	-4
0.94033	-4
0.94400	-4
0.94767	-4
0.95133	-4
0.95500	-4
0.95867	-4
0.96233	-4
0.96600	-3
0.96967	-3
0.97333	-3
0.97700	-3
0.98067	-3
0.98433	-3
0.98800	-3
0.99167	-3
0.99533	-3
0.99900	-4
1.00267	-4
1.00633	-4
1.01000	-4
1.01367	-4
1.01733	-4
1.02100	-4
1.02467	-4
1.02833	-4
1.03200	-4
1.03567	-4
1.03933	-5
1.04300	-5
1.04667	-5
1.05033	-5
1.05400	-5
1.05767	-5
1.06133	-5
1.06500	-4
1.06867	-4
1.07233	-4
1.07600	-4
1.07967	-4
1.08333	-4
1.08700	-5
1.09067	-5
1.09433	-5
1.09800	-6
1.10167	-6
1.10533	-6
1.10900	-5
1.11267	-5
1.11633	-6
1.12000	-6
1.12367	-6
1.12733	-6
1.13100	-6
1.13467	-5
1.13833	-5
1.14200	-5
1.14567	-5
1.14933	-5
1.15300	-5
1.15667	-5
1.16033	-5
1.16400	-5
1.16767	-5
1.17133	-5
1.17500	-5
1.17867	-5
1.18233	-5
1.18600	-5
1.18967	-5
1.19333	-5
1.19700	-4
1.20067	-4
1.20433	-4
1.20800	-3
1.21167	-3
1.21533	-3
1.21900	-3
1.22267	-3
1.22633	-3
1.23000	-3
1.23367	-3
1.23733	-3
1.24100	-4
1.24467	-4
1.24833	-4
1.25200	-4
1.25567	-4
1.25933	-4
1.26300	-3
1.26667	-3
1.27033	-3
1.27400	-3
1.27767	-3
1.28133	-3
1.28500	-3
1.28867	-3
1.29233	-3
1.29600	-3
1.29967	-3
1.30333	-3
1.30700	-4
1.31067	-4
1.31433	-4
1.31800	-4
1.32167	-4
1.32533	-3
1.32900	-3
1.33267	-4
1.33633	-4
1.34000	-4
1.34367	-4
1.34733	-4
1.35100	-4
1.35467	-4
1.35833	-4
1.36200	-4
1.36567	-4
1.36933	-5
1.37300	-5
1.37667	-5
1.38033	-5
1.38400	-5
1.38767	-5
1.39133	-5
1.39500	-5
1.39867	-5
1.40233	-5
1.40600	-5
1.40967	-5
1.41333	-5
1.41700	-5
1.42067	-5
1.42433	-4
1.42800	-4
1.43167	-4
1.43533	-4
1.43900	-4
1.44267	-4
1.44633	-4
1.45000	-4
1.45367	-4
1.45733	-4
1.46100	-4
1.46467	-4
1.46833	-5
1.47200	-5
1.47567	-5
1.47933	-5
1.48300	-5
1.48667	-5
1.49033	-5
1.49400	-5
1.49767	-4
1.50133	-4
1.50500	-4
1.50867	-4
1.51233	-5
1.51600	-5
1.51967	-5
1.52333	-5
1.52700	-5
1.53067	-5
1.53433	-5
1.53800	-5
1.54167	-5
1.54533	-5
1.54900	-6
1.55267	-6
1.55633	-6
1.56000	-6
1.56367	-6
1.56733	-6
1.57100	-5
1.57467	-5
1.57833	-5
1.58200	-5
1.58567	-5
1.58933	-5
1.59300	-6
1.59667	-6
1.60033	-7
1.60400	-8
1.60767	-9
1.61133	-11
1.61500	-13
1.61867	-15
1.62233	-18
1.62600	-21
1.62967	-24
1.63333	-27
1.63700	-30
1.64067	-33
1.64433	-36
1.64800	-40
1.65167	-43
1.65533	-46
1.65900	-50
1.66267	-54
1.66633	-58
1.67000	-63
1.67367	-68
1.67733	-72
1.68100	-77
1.68467	-80
1.68833	-84
1.69200	-87
1.69567	-89
1.69933	-91
1.70300	-92
1.70667	-94
1.71033	-95
1.71400	-96
1.71767	-97
1.72133	-98
1.72500	-98
1.72867	-99
1.73233	-99
1.73600	-99
1.73967	-98
1.74333	-98
1.74700	-97
1.75067	-97
1.75433	-96
1.75800	-96
1.76167	-96
1.76533	-97
1.76900	-98
1.77267	-99
1.77633	-100
1.78000	-100
1.78367	-101
1.78733	-102
1.79100	-102
1.79467	-103
1.79833	-103
1.80200	-103
1.80567	-103
1.80933	-103
1.81300	-103
1.81667	-103
1.82033	-103
1.82400	-103
1.82767	-103
1.83133	-103
1.83500	-103
1.83867	-103
1.84233	-103
1.84600	-102
1.84967	-102
1.85333	-102
1.85700	-102
1.86067	-102
1.86433	-102
1.86800	-102
1.87167	-102
1.87533	-102
1.87900	-102
1.88267	-102
1.88633	-102
1.89000	-102
1.89367	-101
1.89733	-101
1.90100	-101
1.90467	-101
1.90833	-101
1.91200	-101
1.91567	-102
1.91933	-102
1.92300	-102
1.92667	-103
1.93033	-103
1.93400	-102
1.93767	-101
1.94133	-100
1.94500	-99
1.94867	-97
1.95233	-96
1.95600	-95
1.95967	-94
1.96333	-94
1.96700	-94
1.97067	-94
1.97433	-95
1.97800	-95
1.98167	-95
1.98533	-95
1.98900	-95
1.99267	-95
1.99633	-94
2.00000	-94
2.00367	-93
2.00733	-93
2.01100	-93
2.01467	-93
2.01833	-94
2.02200	-94
2.02567	-93
2.02933	-93
2.03300	-93
2.03667	-93
2.04033	-93
2.04400	-93
2.04767	-93
2.05133	-93
2.05500	-93
2.05867	-93
2.06233	-93
2.06600	-92
2.06967	-92
2.07333	-91
2.07700	-91
2.08067	-91
2.08433	-90
2.08800	-90
2.09167	-89
2.09533	-89
2.09900	-88
2.10267	-88
2.10633	-87
2.11000	-87
2.11367	-86
2.11733	-86
2.12100	-86
2.12467	-86
2.12833	-86
2.13200	-85
2.13567	-85
2.13933	-85
2.14300	-85
2.14667	-84
2.15033	-84
2.15400	-84
2.15767	-84
2.16133	-84
2.16500	-83
2.16867	-83
2.17233	-83
2.17600	-83
2.17967	-83
2.18333	-83
2.18700	-83
2.19067	-83
2.19433	-83
2.19800	-82
2.20167	-82
2.20533	-82
2.20900	-82
2.21267	-82
2.21633	-81
2.22000	-80
2.22367	-79
2.22733	-78
2.23100	-77
2.23467	-76
2.23833	-76
2.24200	-75
2.24567	-75
2.24933	-75
2.25300	-75
2.25667	-74
2.26033	-74
2.26400	-74
2.26767	-73
2.27133	-73
2.27500	-73
2.27867	-73
2.28233	-72
2.28600	-72
2.28967	-72
2.29333	-72
2.29700	-72
2.30067	-71
2.30433	-71
2.30800	-71
2.31167	-71
2.31533	-71
2.31900	-70
2.32267	-70
2.32633	-70
2.33000	-70
2.33367	-70
2.33733	-69
2.34100	-69
2.34467	-68
2.34833	-67
2.35200	-66
2.35567	-65
2.35933	-64
2.36300	-63
2.36667	-61
2.37033	-59
2.37400	-56
2.37767	-53
2.38133	-50
2.38500	-46
2.38867	-42
2.39233	-38
2.39600	-34
2.39967	-30
2.40333	-26
2.40700	-22
2.41067	-18
2.41433	-15
2.41800	-12
2.42167	-10
2.42533	-8
2.42900	-6
2.43267	-4
2.43633	-2
2.44000	-0
2.44367	1
2.44733	3
2.45100	5
2.45467	6
2.45833	7
2.46200	9
2.46567	9
2.46933	10
2.47300	11
2.47667	11
2.48033	12
2.48400	13
2.48767	13
2.49133	13
2.49500	14
2.49867	14
2.50233	14
2.50600	14
2.50967	14
2.51333	13
2.51700	14
2.52067	14
2.52433	14
2.52800	15
2.53167	15
2.53533	15
2.53900	15
2.54267	14
2.54633	13
2.55000	12
2.55367	11
2.55733	10
2.56100	10
2.56467	10
2.56833	10
2.57200	10
2.57567	10
2.57933	10
2.58300	10
2.58667	10
2.59033	11
2.59400	11
2.59767	11
2.60133	11
2.60500	11
2.60867	12
2.61233	12
2.61600	13
2.61967	14
2.62333	14
2.62700	15
2.63067	15
2.63433	16
2.63800	16
2.64167	16
2.64533	16
2.64900	16
2.65267	17
2.65633	17
2.66000	17
2.66367	18
2.66733	18
2.67100	19
2.67467	19
2.67833	20
2.68200	20
2.68567	21
2.68933	22
2.69300	22
2.69667	23
2.70033	24
2.70400	24
2.70767	24
2.71133	24
2.71500	25
2.71867	25
2.72233	25
2.72600	25
2.72967	25
2.73333	25
2.73700	25
2.74067	25
2.74433	25
2.74800	25
2.75167	25
2.75533	26
2.75900	26
2.76267	26
2.76633	26
2.77000	26
2.77367	26
2.77733	26
2.78100	26
2.78467	26
2.78833	26
2.79200	25
2.79567	25
2.79933	25
2.80300	25
2.80667	25
2.81033	25
2.81400	25
2.81767	24
2.82133	24
2.82500	24
2.82867	24
2.83233	24
2.83600	24
2.83967	24
2.84333	24
2.84700	24
2.85067	23
2.85433	23
2.85800	21
2.86167	18
2.86533	12
2.86900	4
2.87267	-8
2.87633	-24
2.88000	-45
2.88367	-72
2.88733	-104
2.89100	-141
2.89467	-184
2.89833	-232
2.90200	-284
2.90567	-340
2.90933	-399
2.91300	-460
2.91667	-524
2.92033	-588
2.92400	-652
2.92767	-715
2.93133	-776
2.93500	-834
2.93867	-889
2.94233	-942
2.94600	-996
2.94967	-1049
2.95333	-1090
2.95700	-1112
2.96067	-1110
2.96433	-1083
2.96800	-1034
2.97167	-970
2.97533	-896
2.97900	-816
2.98267	-734
2.98633	-655
2.99000	-579
2.99367	-508
2.99733	-443
3.00100	-384
3.00467	-332
3.00833	-285
3.01200	-244
3.01567	-208
3.01933	-177
3.02300	-150
3.02667	-126
3.03033	-106
3.03400	-88
3.03767	-73
3.04133	-60
3.04500	-49
3.04867	-40
3.05233	-32
3.05600	-26
3.05967	-20
3.06333	-15
3.06700	-11
3.07067	-7
3.07433	-4
3.07800	-1
3.08167	2
3.08533	4
3.08900	5
3.09267	6
3.09633	8
3.10000	9
3.10367	10
3.10733	11
3.11100	11
3.11467	12
3.11833	13
3.12200	13
3.12567	14
3.12933	14
3.13300	15
3.13667	15
3.14033	16
3.14400	16
3.14767	16
3.15133	17
3.15500	17
3.15867	18
3.16233	18
3.16600	18
3.16967	18
3.17333	18
3.17700	19
3.18067	19
3.18433	19
3.18800	19
3.19167	19
3.19533	19
3.19900	20
3.20267	20
3.20633	20
3.21000	21
3.21367	21
3.21733	21
3.22100	21
3.22467	21
3.22833	21
3.23200	21
3.23567	21
3.23933	21
3.24300	21
3.24667	21
3.25033	22
3.25400	22
3.25767	22
3.26133	22
3.26500	22
3.26867	22
3.27233	22
3.27600	23
3.27967	23
3.28333	23
3.28700	23
3.29067	23
3.29433	23
3.29800	23
3.30167	23
3.30533	23
3.30900	23
3.31267	24
3.31633	24
3.32000	24
3.32367	24
3.32733	24
3.33100	24
3.33467	24
3.33833	24
3.34200	25
3.34567	25
3.34933	25
3.35300	25
3.35667	26
3.36033	26
3.36400	26
3.36767	27
3.37133	27
3.37500	27
3.37867	27
3.38233	27
3.38600	28
3.38967	28
3.39333	28
3.39700	28
3.40067	28
3.40433	28
3.40800	28
3.41167	28
3.41533	28
3.41900	27
3.42267	27
3.42633	27
3.43000	28
3.43367	28
3.43733	27
3.44100	27
3.44467	27
3.44833	27
3.45200	27
3.45567	27
3.45933	27
3.46300	27
3.46667	28
3.47033	28
3.47400	28
3.47767	28
3.48133	28
3.48500	28
3.48867	28
3.49233	28
3.49600	27
3.49967	27
3.50333	27
3.50700	27
3.51067	27
3.51433	27
3.51800	27
3.52167	27
3.52533	27
3.52900	27
3.53267	27
3.53633	27
3.54000	27
3.54367	27
3.54733	26
3.55100	26
3.55467	26
3.55833	27
3.56200	27
3.56567	27
3.56933	26
3.57300	26
3.57667	26
3.58033	27
3.58400	27
3.58767	26
3.59133	26
3.59500	26
3.59867	26
3.60233	26
3.60600	26
3.60967	25
3.61333	25
3.61700	26
3.62067	26
3.62433	26
3.62800	26
3.63167	26
3.63533	26
3.63900	26
3.64267	26
3.64633	26
3.65000	26
3.65367	26
3.65733	26
3.66100	26
3.66467	26
3.66833	26
3.67200	26
3.67567	26
3.67933	26
3.68300	26
3.68667	26
3.69033	26
3.69400	26
3.69767	26
3.70133	26
3.70500	27
3.70867	27
3.71233	27
3.71600	27
3.71967	27
3.72333	27
3.72700	26
3.73067	26
3.73433	26
3.73800	26
3.74167	26
3.74533	25
3.74900	26
3.75267	26
3.75633	26
3.76000	26
3.76367	26
3.76733	27
3.77100	27
3.77467	27
3.77833	27
3.78200	28
3.78567	28
3.78933	28
3.79300	28
3.79667	28
3.80033	27
3.80400	27
3.80767	27
3.81133	27
3.81500	27
3.81867	27
3.82233	27
3.82600	27
3.82967	27
3.83333	27
3.83700	27
3.84067	27
3.84433	27
3.84800	27
3.85167	27
3.85533	27
3.85900	27
3.86267	27
3.86633	27
3.87000	27
3.87367	27
3.87733	27
3.88100	27
3.88467	27
3.88833	27
3.89200	27
3.89567	26
3.89933	26
3.90300	26
3.90667	26
3.91033	26
3.91400	26
3.91767	26
3.92133	26
3.92500	26
3.92867	27
3.93233	27
3.93600	27
3.93967	27
3.94333	26
3.94700	26
3.95067	26
3.95433	26
3.95800	26
3.96167	26
3.96533	26
3.96900	26
3.97267	26
3.97633	26
3.98000	26
3.98367	26
3.98733	26
3.99100	26
3.99467	26
3.99833	27

[Chromatogram (Ch3)]
Interval(msec)	220
# of Points	1091
Start Time(min)	0.002
End Time(min)	3.998
R.Time (min)	Intensity
0.00167	-0
0.00533	-1
0.00900	-5
0.01267	-8
0.01633	-9
0.02000	-11
0.02367	-11
0.02733	-11
0.03100	-11
0.03467	-10
0.03833	-9
0.04200	-6
0.04567	-7
0.04933	-7
0.05300	-6
0.05667	-5
0.06033	-6
0.06400	-6
0.06767	-7
0.07133	-8
0.07500	-9
0.07867	-10
0.08233	-10
0.08600	-10
0.08967	-9
0.09333	-9
0.09700	-10
0.10067	-10
0.10433	-9
0.10800	-9
0.11167	-9
0.11533	-8
0.11900	-7
0.12267	-8
0.12633	-9
0.13000	-10
0.13367	-9
0.13733	-10
0.14100	-13
0.14467	-14
0.14833	-13
0.15200	-10
0.15567	-8
0.15933	-10
0.16300	-13
0.16667	-12
0.17033	-10
0.17400	-11
0.17767	-12
0.18133	-12
0.18500	-13
0.18867	-13
0.19233	-13
0.19600	-12
0.19967	-10
0.20333	-9
0.20700	-9
0.21067	-7
0.21433	-7
0.21800	-7
0.22167	-6
0.22533	-6
0.22900	-5
0.23267	-7
0.23633	-10
0.24000	-12
0.24367	-14
0.24733	-15
0.25100	-13
0.25467	-11
0.25833	-7
0.26200	-4
0.26567	-2
0.26933	-3
0.27300	-7
0.27667	-11
0.28033	-12
0.28400	-12
0.28767	-12
0.29133	-12
0.29500	-14
0.29867	-15
0.30233	-13
0.30600	-12
0.30967	-11
0.31333	-11
0.31700	-13
0.32067	-14
0.32433	-16
0.32800	-18
0.33167	-15
0.33533	-13
0.33900	-15
0.34267	-15
0.34633	-12
0.35000	-10
0.35367	-9
0.35733	-8
0.36100	-8
0.36467	-8
0.36833	-12
0.37200	-15
0.37567	-16
0.37933	-15
0.38300	-13
0.38667	-12
0.39033	-12
0.39400	-13
0.39767	-15
0.40133	-17
0.40500	-18
0.40867	-18
0.41233	-17
0.41600	-14
0.41967	-12
0.42333	-11
0.42700	-11
0.43067	-14
0.43433	-16
0.43800	-18
0.44167	-18
0.44533	-18
0.44900	-16
0.45267	-14
0.45633	-13
0.46000	-14
0.46367	-16
0.46733	-19
0.47100	-20
0.47467	-20
0.47833	-18
0.48200	-14
0.48567	-11
0.48933	-11
0.49300	-12
0.49667	-14
0.50033	-19
0.50400	-23
0.50767	-22
0.51133	-19
0.51500	-16
0.51867	-14
0.52233	-16
0.52600	-17
0.52967	-18
0.53333	-19
0.53700	-20
0.54067	-19
0.54433	-18
0.54800	-17
0.55167	-16
0.55533	-14
0.55900	-13
0.56267	-16
0.56633	-17
0.57000	-17
0.57367	-17
0.57733	-17
0.58100	-17
0.58467	-15
0.58833	-15
0.59200	-16
0.59567	-15
0.59933	-14
0.60300	-14
0.60667	-14
0.61033	-13
0.61400	-11
0.61767	-10
0.62133	-12
0.62500	-15
0.62867	-18
0.63233	-18
0.63600	-15
0.63967	-14
0.64333	-12
0.64700	-11
0.65067	-11
0.65433	-11
0.65800	-10
0.66167	-12
0.66533	-16
0.66900	-19
0.67267	-20
0.67633	-18
0.68000	-16
0.68367	-14
0.68733	-14
0.69100	-16
0.69467	-18
0.69833	-20
0.70200	-20
0.70567	-17
0.70933	-17
0.71300	-16
0.71667	-20
0.72033	-23
0.72400	-23
0.72767	-21
0.73133	-15
0.73500	-10
0.73867	-8
0.74233	-6
0.74600	-7
0.74967	-11
0.75333	-13
0.75700	-16
0.76067	-17
0.76433	-19
0.76800	-18
0.77167	-18
0.77533	-17
0.77900	-14
0.78267	-12
0.78633	-12
0.79000	-15
0.79367	-15
0.79733	-13
0.80100	-10
0.80467	-9
0.80833	-9
0.81200	-10
0.81567	-8
0.81933	-7
0.82300	-6
0.82667	-7
0.83033	-10
0.83400	-13
0.83767	-15
0.84133	-14
0.84500	-15
0.84867	-15
0.85233	-13
0.85600	-11
0.85967	-10
0.86333	-9
0.86700	-8
0.87067	-8
0.87433	-9
0.87800	-11
0.88167	-11
0.88533	-11
0.88900	-13
0.89267	-14
0.89633	-14
0.90000	-13
0.90367	-14
0.90733	-13
0.91100	-11
0.91467	-9
0.91833	-9
0.92200	-9
0.92567	-11
0.92933	-12
0.93300	-14
0.93667	-12
0.94033	-9
0.94400	-9
0.94767	-9
0.95133	-8
0.95500	-7
0.95867	-6
0.96233	-6
0.96600	-6
0.96967	-7
0.97333	-6
0.97700	-7
0.98067	-9
0.98433	-10
0.98800	-10
0.99167	-9
0.99533	-9
0.99900	-8
1.00267	-7
1.00633	-7
1.01000	-7
1.01367	-8
1.01733	-10
1.02100	-10
1.02467	-8
1.02833	-8
1.03200	-8
1.03567	-9
1.03933	-9
1.04300	-7
1.04667	-6
1.05033	-6
1.05400	-6
1.05767	-8
1.06133	-11
1.06500	-12
1.06867	-10
1.07233	-10
1.07600	-10
1.07967	-8
1.08333	-5
1.08700	-5
1.09067	-6
1.09433	-6
1.09800	-6
1.10167	-6
1.10533	-9
1.10900	-11
1.11267	-11
1.11633	-10
1.12000	-10
1.12367	-8
1.12733	-8
1.13100	-10
1.13467	-11
1.13833	-12
1.14200	-13
1.14567	-14
1.14933	-13
1.15300	-13
1.15667	-15
1.16033	-17
1.16400	-17
1.16767	-15
1.17133	-12
1.17500	-11
1.17867	-13
1.18233	-13
1.18600	-9
1.18967	-7
1.19333	-8
1.19700	-7
1.20067	-7
1.20433	-9
1.20800	-9
1.21167	-11
1.21533	-13
1.21900	-14
1.22267	-14
1.22633	-14
1.23000	-12
1.23367	-10
1.23733	-8
1.24100	-9
1.24467	-11
1.24833	-12
1.25200	-13
1.25567	-13
1.25933	-16
1.26300	-17
1.26667	-17
1.27033	-16
1.27400	-15
1.27767	-14
1.28133	-14
1.28500	-15
1.28867	-17
1.29233	-17
1.29600	-16
1.29967	-16
1.30333	-14
1.30700	-13
1.31067	-13
1.31433	-13
1.31800	-14
1.32167	-16
1.32533	-17
1.32900	-16
1.33267	-14
1.33633	-13
1.34000	-12
1.34367	-13
1.34733	-14
1.35100	-16
1.35467	-17
1.35833	-16
1.36200	-17
1.36567	-17
1.36933	-15
1.37300	-13
1.37667	-11
1.38033	-8
1.38400	-5
1.38767	-5
1.39133	-7
1.39500	-8
1.39867	-10
1.40233	-11
1.40600	-11
1.40967	-11
1.41333	-12
1.41700	-12
1.42067	-12
1.42433	-11
1.42800	-10
1.43167	-8
1.43533	-9
1.43900	-11
1.44267	-13
1.44633	-14
1.45000	-15
1.45367	-14
1.45733	-13
1.46100	-11
1.46467	-11
1.46833	-12
1.47200	-12
1.47567	-11
1.47933	-13
1.48300	-15
1.48667	-16
1.49033	-17
1.49400	-15
1.49767	-14
1.50133	-11
1.50500	-9
1.50867	-7
1.51233	-7
1.51600	-8
1.51967	-12
1.52333	-15
1.52700	-18
1.53067	-19
1.53433	-17
1.53800	-15
1.54167	-11
1.54533	-12
1.54900	-13
1.55267	-16
1.55633	-17
1.56000	-17
1.56367	-17
1.56733	-15
1.57100	-12
1.57467	-9
1.57833	-8
1.58200	-7
1.58567	-8
1.58933	-10
1.59300	-13
1.59667	-15
1.60033	-17
1.60400	-19
1.60767	-17
1.61133	-14
1.61500	-13
1.61867	-11
1.62233	-11
1.62600	-11
1.62967	-9
1.63333	-9
1.63700	-9
1.64067	-9
1.64433	-10
1.64800	-10
1.65167	-9
1.65533	-9
1.65900	-10
1.66267	-9
1.66633	-7
1.67000	-6
1.67367	-2
1.67733	2
1.68100	4
1.68467	5
1.68833	8
1.69200	11
1.69567	10
1.69933	8
1.70300	6
1.70667	6
1.71033	5
1.71400	3
1.71767	3
1.72133	4
1.72500	6
1.72867	9
1.73233	9
1.73600	9
1.73967	7
1.74333	6
1.74700	3
1.75067	2
1.75433	1
1.75800	-2
1.76167	-4
1.76533	-5
1.76900	-2
1.77267	1
1.77633	-0
1.78000	-0
1.78367	3
1.78733	5
1.79100	4
1.79467	4
1.79833	3
1.80200	4
1.80567	4
1.80933	4
1.81300	5
1.81667	7
1.82033	8
1.82400	11
1.82767	11
1.83133	13
1.83500	16
1.83867	18
1.84233	16
1.84600	13
1.84967	8
1.85333	9
1.85700	12
1.86067	14
1.86433	16
1.86800	17
1.87167	19
1.87533	20
1.87900	19
1.88267	19
1.88633	17
1.89000	16
1.89367	16
1.89733	15
1.90100	16
1.90467	19
1.90833	19
1.91200	20
1.91567	19
1.91933	18
1.92300	17
1.92667	20
1.93033	23
1.93400	25
1.93767	26
1.94133	23
1.94500	21
1.94867	20
1.95233	21
1.95600	24
1.95967	26
1.96333	26
1.96700	27
1.97067	33
1.97433	37
1.97800	35
1.98167	33
1.98533	28
1.98900	28
1.99267	30
1.99633	32
2.00000	32
2.00367	30
2.00733	27
2.01100	26
2.01467	29
2.01833	30
2.02200	29
2.02567	28
2.02933	29
2.03300	32
2.03667	35
2.04033	34
2.04400	33
2.04767	35
2.05133	36
2.05500	36
2.05867	37
2.06233	39
2.06600	40
2.06967	39
2.07333	38
2.07700	39
2.08067	43
2.08433	43
2.08800	42
2.09167	41
2.09533	41
2.09900	40
2.10267	39
2.10633	41
2.11000	43
2.11367	44
2.11733	47
2.12100	48
2.12467	46
2.12833	47
2.13200	51
2.13567	51
2.13933	51
2.14300	52
2.14667	51
2.15033	49
2.15400	52
2.15767	56
2.16133	59
2.16500	60
2.16867	61
2.17233	62
2.17600	62
2.17967	63
2.18333	64
2.18700	66
2.19067	69
2.19433	69
2.19800	69
2.20167	71
2.20533	71
2.20900	70
2.21267	69
2.21633	67
2.22000	66
2.22367	67
2.22733	66
2.23100	68
2.23467	69
2.23833	71
2.24200	73
2.24567	75
2.24933	76
2.25300	78
2.25667	78
2.26033	78
2.26400	79
2.26767	77
2.27133	76
2.27500	76
2.27867	78
2.28233	80
2.28600	83
2.28967	86
2.29333	86
2.29700	87
2.30067	89
2.30433	90
2.30800	91
2.31167	89
2.31533	89
2.31900	88
2.32267	89
2.32633	89
2.33000	88
2.33367	88
2.33733	88
2.34100	91
2.34467	95
2.34833	98
2.35200	100
2.35567	100
2.35933	102
2.36300	103
2.36667	102
2.37033	102
2.37400	102
2.37767	102
2.38133	103
2.38500	101
2.38867	96
2.39233	98
2.39600	102
2.39967	107
2.40333	111
2.40700	116
2.41067	122
2.41433	127
2.41800	130
2.42167	131
2.42533	129
2.42900	124
2.43267	119
2.43633	118
2.44000	125
2.44367	177
2.44733	264
2.45100	339
2.45467	390
2.45833	410
2.46200	403
2.46567	382
2.46933	359
2.47300	340
2.47667	324
2.48033	308
2.48400	288
2.48767	264
2.49133	239
2.49500	220
2.49867	205
2.50233	196
2.50600	193
2.50967	194
2.51333	197
2.51700	202
2.52067	207
2.52433	212
2.52800	212
2.53167	203
2.53533	192
2.53900	181
2.54267	170
2.54633	157
2.55000	146
2.55367	136
2.55733	126
2.56100	117
2.56467	112
2.56833	108
2.57200	106
2.57567	104
2.57933	104
2.58300	106
2.58667	109
2.59033	114
2.59400	118
2.59767	122
2.60133	128
2.60500	136
2.60867	144
2.61233	150
2.61600	152
2.61967	157
2.62333	160
2.62700	161
2.63067	159
2.63433	154
2.63800	148
2.64167	141
2.64533	132
2.64900	120
2.65267	110
2.65633	102
2.66000	92
2.66367	82
2.66733	72
2.67100	64
2.67467	57
2.67833	52
2.68200	50
2.68567	46
2.68933	38
2.69300	31
2.69667	26
2.70033	22
2.70400	21
2.70767	21
2.71133	24
2.71500	25
2.71867	24
2.72233	22
2.72600	23
2.72967	25
2.73333	29
2.73700	31
2.74067	32
2.74433	33
2.74800	37
2.75167	40
2.75533	38
2.75900	37
2.76267	39
2.76633	41
2.77000	42
2.77367	44
2.77733	47
2.78100	49
2.78467	53
2.78833	59
2.79200	63
2.79567	66
2.79933	67
2.80300	70
2.80667	71
2.81033	74
2.81400	77
2.81767	80
2.82133	83
2.82500	86
2.82867	88
2.83233	93
2.83600	102
2.83967	125
2.84333	169
2.84700	252
2.85067	392
2.85433	610
2.85800	915
2.86167	1306
2.86533	1767
2.86900	2268
2.87267	2771
2.87633	3230
2.88000	3611
2.88367	3886
2.88733	4041
2.89100	4073
2.89467	3995
2.89833	3827
2.90200	3596
2.90567	3324
2.90933	3031
2.91300	2732
2.91667	2442
2.92033	2167
2.92400	1911
2.92767	1681
2.93133	1476
2.93500	1294
2.93867	1132
2.94233	987
2.94600	862
2.94967	753
2.95333	657
2.95700	572
2.96067	500
2.96433	439
2.96800	386
2.97167	343
2.97533	305
2.97900	270
2.98267	240
2.98633	216
2.99000	195
2.99367	177
2.99733	162
3.00100	148
3.00467	137
3.00833	127
3.01200	121
3.01567	117
3.01933	113
3.02300	107
3.02667	99
3.03033	95
3.03400	96
3.03767	95
3.04133	95
3.04500	95
3.04867	94
3.05233	92
3.05600	92
3.05967	92
3.06333	92
3.06700	90
3.07067	89
3.07433	88
3.07800	89
3.08167	90
3.08533	92
3.08900	95
3.09267	97
3.09633	99
3.10000	98
3.10367	86
3.10733	70
3.11100	73
3.11467	108
3.11833	168
3.12200	243
3.12567	325
3.12933	413
3.13300	503
3.13667	591
3.14033	672
3.14400	745
3.14767	809
3.15133	863
3.15500	909
3.15867	947
3.16233	978
3.16600	1003
3.16967	1023
3.17333	1037
3.17700	1045
3.18067	1052
3.18433	1058
3.18800	1062
3.19167	1065
3.19533	1068
3.19900	1069
3.20267	1068
3.20633	1068
3.21000	1069
3.21367	1069
3.21733	1067
3.22100	1061
3.22467	1058
3.22833	1057
3.23200	1055
3.23567	1053
3.23933	1053
3.24300	1055
3.24667	1053
3.25033	1048
3.25400	1042
3.25767	1036
3.26133	1033
3.26500	1030
3.26867	1028
3.27233	1026
3.27600	1024
3.27967	1023
3.28333	1020
3.28700	1014
3.29067	1008
3.29433	1004
3.29800	999
3.30167	996
3.30533	993
3.30900	989
3.31267	984
3.31633	979
3.32000	972
3.32367	964
3.32733	960
3.33100	956
3.33467	953
3.33833	950
3.34200	948
3.34567	945
3.34933	941
3.35300	936
3.35667	929
3.36033	922
3.36400	914
3.36767	907
3.37133	905
3.37500	904
3.37867	900
3.38233	894
3.38600	888
3.38967	885
3.39333	882
3.39700	878
3.40067	875
3.40433	872
3.40800	869
3.41167	868
3.41533	865
3.41900	861
3.42267	859
3.42633	857
3.43000	856
3.43367	853
3.43733	850
3.44100	850
3.44467	849
3.44833	847
3.45200	844
3.45567	842
3.45933	840
3.46300	840
3.46667	841
3.47033	842
3.47400	838
3.47767	834
3.48133	831
3.48500	830
3.48867	829
3.49233	830
3.49600	830
3.49967	829
3.50333	829
3.50700	828
3.51067	827
3.51433	825
3.51800	821
3.52167	816
3.52533	811
3.52900	807
3.53267	806
3.53633	805
3.54000	805
3.54367	803
3.54733	804
3.55100	803
3.55467	801
3.55833	798
3.56200	795
3.56567	793
3.56933	789
3.57300	785
3.57667	782
3.58033	781
3.58400	783
3.58767	783
3.59133	781
3.59500	777
3.59867	773
3.60233	771
3.60600	769
3.60967	770
3.61333	772
3.61700	773
3.62067	771
3.62433	769
3.62800	769
3.63167	769
3.63533	766
3.63900	761
3.64267	757
3.64633	755
3.65000	753
3.65367	752
3.65733	751
3.66100	751
3.66467	751
3.66833	750
3.67200	750
3.67567	747
3.67933	744
3.68300	743
3.68667	740
3.69033	736
3.69400	734
3.69767	733
3.70133	730
3.70500	728
3.70867	727
3.71233	724
3.71600	723
3.71967	721
3.72333	716
3.72700	714
3.73067	712
3.73433	709
3.73800	706
3.74167	704
3.74533	704
3.74900	703
3.75267	700
3.75633	698
3.76000	695
3.76367	691
3.76733	688
3.77100	685
3.77467	682
3.77833	679
3.78200	679
3.78567	679
3.78933	677
3.79300	677
3.79667	676
3.80033	673
3.80400	672
3.80767	671
3.81133	671
3.81500	670
3.81867	668
3.82233	667
3.82600	667
3.82967	665
3.83333	664
3.83700	663
3.84067	661
3.84433	660
3.84800	657
3.85167	654
3.85533	650
3.85900	647
3.86267	644
3.86633	643
3.87000	641
3.87367	640
3.87733	639
3.88100	639
3.88467	640
3.88833	640
3.89200	639
3.89567	639
3.89933	639
3.90300	638
3.90667	635
3.91033	633
3.91400	629
3.91767	626
3.92133	626
3.92500	625
3.92867	624
3.93233	623
3.93600	621
3.93967	617
3.94333	614
3.94700	613
3.95067	612
3.95433	610
3.95800	608
3.96167	607
3.96533	605
3.96900	605
3.97267	603
3.97633	599
3.98000	597
3.98367	596
3.98733	595
3.99100	594
3.99467	593
3.99833	587

[Status Trace (Column Oven Temperature)]
Interval(msec)	1000
# of Points	240
Start Time(min)	0.005
End Time(min)	3.988
Intensity Units	
Intensity Multiplier	1
R.Time (min)	Intensity
0.00483	35.03
0.02150	35.03
0.03817	35.02
0.05483	35.01
0.07150	35.02
0.08817	35.02
0.10483	35.02
0.12150	35.02
0.13817	35.02
0.15483	35.01
0.17150	35.01
0.18817	35.00
0.20483	34.99
0.22150	35.00
0.23817	35.00
0.25483	35.00
0.27150	35.00
0.28817	35.01
0.30483	35.00
0.32150	34.99
0.33817	34.99
0.35483	34.99
0.37150	34.99
0.38817	34.98
0.40483	34.98
0.42150	34.98
0.43817	34.98
0.45483	34.97
0.47150	34.98
0.48817	34.99
0.50483	34.98
0.52150	34.98
0.53817	34.98
0.55483	34.97
0.57150	34.98
0.58817	34.98
0.60483	34.99
0.62150	34.99
0.63817	35.00
0.65483	34.99
0.67150	34.99
0.68817	34.98
0.70483	34.98
0.72150	34.97
0.73817	34.98
0.75483	34.98
0.77150	34.98
0.78817	34.99
0.80483	34.99
0.82150	34.99
0.83817	34.99
0.85483	35.00
0.87150	35.00
0.88817	35.00
0.90483	35.00
0.92150	35.00
0.93817	35.00
0.95483	35.00
0.97150	34.99
0.98817	34.98
1.00483	34.98
1.02150	34.98
1.03817	34.97
1.05483	34.98
1.07150	34.98
1.08817	34.98
1.10483	34.99
1.12150	35.00
1.13817	35.00
1.15483	35.00
1.17150	35.00
1.18817	35.00
1.20483	35.00
1.22150	35.01
1.23817	34.99
1.25483	34.99
1.27150	34.98
1.28817	34.98
1.30483	34.99
1.32150	34.98
1.33817	34.98
1.35483	34.98
1.37150	34.98
1.38817	34.98
1.40483	34.98
1.42150	34.99
1.43817	35.00
1.45483	35.00
1.47150	34.99
1.48817	34.98
1.50483	34.98
1.52150	34.98
1.53817	34.98
1.55483	34.99
1.57150	34.99
1.58817	35.00
1.60483	35.04
1.62150	35.16
1.63817	35.33
1.65483	35.58
1.67150	35.92
1.68817	36.27
1.70483	36.63
1.72150	36.98
1.73817	37.30
1.75483	37.60
1.77150	37.94
1.78817	38.29
1.80483	38.62
1.82150	38.96
1.83817	39.28
1.85483	39.61
1.87150	39.95
1.88817	40.27
1.90483	40.61
1.92150	40.97
1.93817	41.27
1.95483	41.56
1.97150	41.90
1.98817	42.23
2.00483	42.55
2.02150	42.89
2.03817	43.21
2.05483	43.56
2.07150	43.89
2.08817	44.21
2.10483	44.54
2.12150	44.86
2.13817	45.19
2.15483	45.52
2.17150	45.85
2.18817	46.17
2.20483	46.53
2.22150	46.86
2.23817	47.18
2.25483	47.50
2.27150	47.83
2.28817	48.16
2.30483	48.47
2.32150	48.79
2.33817	49.12
2.35483	49.40
2.37150	49.60
2.38817	49.66
2.40483	49.66
2.42150	49.67
2.43817	49.68
2.45483	49.68
2.47150	49.69
2.48817	49.70
2.50483	49.72
2.52150	49.73
2.53817	49.75
2.55483	49.77
2.57150	49.79
2.58817	49.81
2.60483	49.82
2.62150	49.83
2.63817	49.84
2.65483	49.85
2.67150	49.86
2.68817	49.85
2.70483	49.85
2.72150	49.85
2.73817	49.86
2.75483	49.85
2.77150	49.86
2.78817	49.87
2.80483	49.88
2.82150	49.90
2.83817	49.92
2.85483	49.93
2.87150	49.95
2.88817	49.96
2.90483	49.96
2.92150	49.96
2.93817	49.96
2.95483	49.95
2.97150	49.97
2.98817	49.96
3.00483	49.97
3.02150	49.98
3.03817	49.99
3.05483	50.00
3.07150	50.01
3.08817	50.01
3.10483	50.02
3.12150	50.03
3.13817	50.04
3.15483	50.05
3.17150	50.05
3.18817	50.06
3.20483	50.06
3.22150	50.06
3.23817	50.07
3.25483	50.08
3.27150	50.09
3.28817	50.10
3.30483	50.10
3.32150	50.10
3.33817	50.10
3.35483	50.09
3.37150	50.08
3.38817	50.07
3.40483	50.06
3.42150	50.06
3.43817	50.05
3.45483	50.04
3.47150	50.03
3.48817	50.03
3.50483	50.03
3.52150	50.03
3.53817	50.03
3.55483	50.03
3.57150	50.04
3.58817	50.03
3.60483	50.04
3.62150	50.05
3.63817	50.05
3.65483	50.05
3.67150	50.05
3.68817	50.06
3.70483	50.07
3.72150	50.08
3.73817	50.09
3.75483	50.08
3.77150	50.08
3.78817	50.07
3.80483	50.07
3.82150	50.07
3.83817	50.06
3.85483	50.06
3.87150	50.06
3.88817	50.06
3.90483	50.06
3.92150	50.06
3.93817	50.06
3.95483	50.07
3.97150	50.07
3.98817	50.07

[Status Trace (Injection Unit Temperature)]
Interval(msec)	1000
# of Points	240
Start Time(min)	0.005
End Time(min)	3.988
Intensity Units	
Intensity Multiplier	1
R.Time (min)	Intensity
0.00483	99.97
0.02150	99.97
0.03817	99.97
0.05483	99.97
0.07150	99.98
0.08817	99.97
0.10483	99.97
0.12150	99.98
0.13817	99.98
0.15483	99.98
0.17150	99.97
0.18817	99.98
0.20483	99.98
0.22150	99.98
0.23817	99.98
0.25483	99.98
0.27150	99.98
0.28817	99.98
0.30483	99.98
0.32150	99.98
0.33817	99.98
0.35483	99.98
0.37150	99.98
0.38817	99.98
0.40483	99.98
0.42150	99.98
0.43817	99.98
0.45483	99.98
0.47150	99.98
0.48817	99.98
0.50483	99.98
0.52150	99.98
0.53817	99.98
0.55483	99.98
0.57150	99.98
0.58817	99.98
0.60483	99.98
0.62150	99.98
0.63817	99.98
0.65483	99.98
0.67150	99.98
0.68817	99.97
0.70483	99.97
0.72150	99.98
0.73817	99.98
0.75483	99.97
0.77150	99.98
0.78817	99.98
0.80483	99.97
0.82150	99.97
0.83817	99.98
0.85483	99.97
0.87150	99.98
0.88817	99.98
0.90483	99.98
0.92150	99.98
0.93817	99.98
0.95483	99.98
0.97150	99.98
0.98817	99.98
1.00483	99.97
1.02150	99.98
1.03817	99.98
1.05483	99.98
1.07150	99.97
1.08817	99.98
1.10483	99.98
1.12150	99.98
1.13817	99.98
1.15483	99.98
1.17150	99.98
1.18817	99.98
1.20483	99.98
1.22150	99.98
1.23817	99.98
1.25483	99.98
1.27150	99.98
1.28817	99.98
1.30483	99.98
1.32150	99.98
1.33817	99.98
1.35483	99.98
1.37150	99.98
1.38817	99.98
1.40483	99.98
1.42150	99.98
1.43817	99.98
1.45483	99.98
1.47150	99.98
1.48817	99.98
1.50483	99.98
1.52150	99.98
1.53817	99.98
1.55483	99.98
1.57150	99.98
1.58817	99.98
1.60483	99.98
1.62150	99.98
1.63817	99.98
1.65483	99.98
1.67150	99.98
1.68817	99.98
1.70483	99.98
1.72150	99.98
1.73817	99.98
1.75483	99.98
1.77150	99.98
1.78817	99.98
1.80483	99.98
1.82150	99.98
1.83817	99.97
1.85483	99.97
1.87150	99.97
1.88817	99.97
1.90483	99.97
1.92150	99.97
1.93817	99.97
1.95483	99.97
1.97150	99.97
1.98817	99.96
2.00483	99.97
2.02150	99.96
2.03817	99.96
2.05483	99.96
2.07150	99.96
2.08817	99.96
2.10483	99.96
2.12150	99.96
2.13817	99.96
2.15483	99.96
2.17150	99.96
2.18817	99.96
2.20483	99.96
2.22150	99.96
2.23817	99.96
2.25483	99.96
2.27150	99.95
2.28817	99.96
2.30483	99.96
2.32150	99.96
2.33817	99.96
2.35483	99.96
2.37150	99.96
2.38817	99.96
2.40483	99.96
2.42150	99.96
2.43817	99.96
2.45483	99.96
2.47150	99.96
2.48817	99.96
2.50483	99.97
2.52150	99.96
2.53817	99.96
2.55483	99.97
2.57150	99.97
2.58817	99.97
2.60483	99.97
2.62150	99.97
2.63817	99.97
2.65483	99.97
2.67150	99.97
2.68817	99.98
2.70483	99.97
2.72150	99.97
2.73817	99.98
2.75483	99.98
2.77150	99.98
2.78817	99.98
2.80483	99.99
2.82150	99.99
2.83817	99.99
2.85483	99.99
2.87150	99.99
2.88817	99.99
2.90483	99.99
2.92150	99.99
2.93817	100.00
2.95483	100.00
2.97150	100.00
2.98817	100.00
3.00483	100.01
3.02150	100.00
3.03817	100.00
3.05483	100.01
3.07150	100.01
3.08817	100.01
3.10483	100.01
3.12150	100.01
3.13817	100.01
3.15483	100.02
3.17150	100.01
3.18817	100.02
3.20483	100.02
3.22150	100.02
3.23817	100.02
3.25483	100.02
3.27150	100.02
3.28817	100.02
3.30483	100.02
3.32150	100.02
3.33817	100.03
3.35483	100.03
3.37150	100.03
3.38817	100.03
3.40483	100.03
3.42150	100.03
3.43817	100.03
3.45483	100.03
3.47150	100.03
3.48817	100.03
3.50483	100.03
3.52150	100.03
3.53817	100.03
3.55483	100.03
3.57150	100.03
3.58817	100.03
3.60483	100.04
3.62150	100.04
3.63817	100.03
3.65483	100.04
3.67150	100.04
3.68817	100.04
3.70483	100.04
3.72150	100.04
3.73817	100.04
3.75483	100.04
3.77150	100.04
3.78817	100.04
3.80483	100.04
3.82150	100.04
3.83817	100.04
3.85483	100.04
3.87150	100.04
3.88817	100.04
3.90483	100.04
3.92150	100.04
3.93817	100.04
3.95483	100.04
3.97150	100.04
3.98817	100.04

[Status Trace (Carrier Gas Pressure)]
Interval(msec)	1000
# of Points	240
Start Time(min)	0.005
End Time(min)	3.988
Intensity Units	
Intensity Multiplier	1
R.Time (min)	Intensity
0.00483	58.00
0.02150	55.90
0.03817	56.62
0.05483	58.86
0.07150	59.80
0.08817	58.20
0.10483	57.97
0.12150	58.00
0.13817	58.01
0.15483	58.01
0.17150	58.00
0.18817	58.00
0.20483	58.00
0.22150	58.00
0.23817	58.00
0.25483	58.00
0.27150	58.00
0.28817	58.00
0.30483	58.00
0.32150	58.00
0.33817	58.00
0.35483	58.00
0.37150	58.00
0.38817	58.00
0.40483	58.00
0.42150	58.00
0.43817	58.00
0.45483	58.00
0.47150	58.00
0.48817	58.00
0.50483	58.00
0.52150	58.00
0.53817	58.00
0.55483	58.00
0.57150	58.00
0.58817	58.00
0.60483	58.00
0.62150	58.00
0.63817	58.00
0.65483	58.00
0.67150	58.00
0.68817	58.00
0.70483	58.00
0.72150	58.00
0.73817	58.00
0.75483	58.00
0.77150	58.00
0.78817	58.00
0.80483	58.00
0.82150	58.00
0.83817	58.00
0.85483	58.00
0.87150	58.00
0.88817	58.00
0.90483	58.00
0.92150	58.00
0.93817	58.00
0.95483	58.00
0.97150	58.00
0.98817	58.00
1.00483	58.00
1.02150	58.00
1.03817	58.00
1.05483	58.00
1.07150	58.00
1.08817	58.00
1.10483	58.00
1.12150	58.00
1.13817	58.00
1.15483	58.00
1.17150	58.00
1.18817	58.00
1.20483	58.00
1.22150	58.00
1.23817	58.00
1.25483	58.00
1.27150	58.00
1.28817	58.00
1.30483	58.00
1.32150	58.00
1.33817	58.00
1.35483	58.00
1.37150	58.00
1.38817	58.00
1.40483	58.00
1.42150	58.00
1.43817	58.00
1.45483	58.00
1.47150	58.00
1.48817	58.00
1.50483	58.00
1.52150	58.00
1.53817	58.00
1.55483	58.00
1.57150	58.00
1.58817	58.00
1.60483	58.00
1.62150	58.00
1.63817	58.00
1.65483	58.00
1.67150	58.01
1.68817	58.00
1.70483	58.00
1.72150	58.00
1.73817	58.00
1.75483	58.00
1.77150	58.00
1.78817	58.00
1.80483	58.00
1.82150	58.00
1.83817	58.00
1.85483	58.00
1.87150	58.00
1.88817	58.00
1.90483	58.00
1.92150	58.00
1.93817	58.00
1.95483	58.00
1.97150	58.00
1.98817	58.00
2.00483	58.00
2.02150	58.00
2.03817	58.00
2.05483	58.00
2.07150	58.00
2.08817	58.00
2.10483	58.00
2.12150	58.00
2.13817	58.00
2.15483	58.00
2.17150	58.00
2.18817	58.00
2.20483	58.00
2.22150	58.00
2.23817	58.00
2.25483	58.00
2.27150	58.00
2.28817	58.00
2.30483	58.00
2.32150	58.00
2.33817	58.00
2.35483	58.00
2.37150	58.00
2.38817	57.99
2.40483	57.99
2.42150	58.00
2.43817	58.00
2.45483	58.00
2.47150	58.00
2.48817	58.00
2.50483	57.99
2.52150	57.99
2.53817	57.99
2.55483	58.00
2.57150	58.00
2.58817	58.00
2.60483	58.00
2.62150	58.00
2.63817	58.00
2.65483	58.00
2.67150	58.00
2.68817	58.00
2.70483	58.00
2.72150	58.00
2.73817	58.00
2.75483	58.00
2.77150	58.00
2.78817	58.00
2.80483	58.00
2.82150	58.00
2.83817	58.00
2.85483	58.00
2.87150	58.00
2.88817	58.00
2.90483	58.00
2.92150	58.00
2.93817	58.00
2.95483	58.00
2.97150	58.00
2.98817	58.00
3.00483	58.00
3.02150	58.00
3.03817	58.00
3.05483	58.00
3.07150	58.00
3.08817	58.00
3.10483	58.00
3.12150	58.00
3.13817	58.00
3.15483	58.00
3.17150	58.00
3.18817	58.00
3.20483	58.00
3.22150	58.00
3.23817	58.00
3.25483	58.00
3.27150	58.00
3.28817	58.00
3.30483	58.00
3.32150	58.00
3.33817	58.00
3.35483	58.00
3.37150	58.00
3.38817	58.00
3.40483	58.00
3.42150	58.00
3.43817	58.00
3.45483	58.00
3.47150	58.00
3.48817	58.00
3.50483	58.00
3.52150	58.00
3.53817	58.00
3.55483	58.00
3.57150	58.00
3.58817	58.00
3.60483	58.00
3.62150	58.00
3.63817	58.00
3.65483	58.00
3.67150	58.00
3.68817	58.00
3.70483	58.00
3.72150	58.00
3.73817	58.00
3.75483	58.00
3.77150	58.00
3.78817	58.00
3.80483	58.00
3.82150	58.00
3.83817	58.00
3.85483	58.00
3.87150	58.00
3.88817	58.00
3.90483	58.00
3.92150	58.00
3.93817	58.00
3.95483	58.00
3.97150	58.00
3.98817	58.00

[Status Trace (Carrier Gas Flow)]
Interval(msec)	1000
# of Points	240
Start Time(min)	0.005
End Time(min)	3.988
Intensity Units	
Intensity Multiplier	1
R.Time (min)	Intensity
0.00483	34.52
0.02150	34.56
0.03817	34.54
0.05483	34.55
0.07150	34.49
0.08817	34.51
0.10483	34.52
0.12150	34.52
0.13817	34.52
0.15483	34.51
0.17150	34.52
0.18817	34.52
0.20483	34.52
0.22150	34.52
0.23817	34.52
0.25483	34.52
0.27150	34.52
0.28817	34.52
0.30483	34.52
0.32150	34.52
0.33817	34.52
0.35483	34.52
0.37150	34.51
0.38817	34.52
0.40483	34.52
0.42150	34.51
0.43817	34.52
0.45483	34.52
0.47150	34.52
0.48817	34.52
0.50483	34.52
0.52150	34.51
0.53817	34.52
0.55483	34.52
0.57150	34.52
0.58817	34.52
0.60483	34.51
0.62150	34.52
0.63817	34.52
0.65483	34.52
0.67150	34.51
0.68817	34.52
0.70483	34.52
0.72150	34.52
0.73817	34.53
0.75483	34.52
0.77150	34.51
0.78817	34.52
0.80483	34.51
0.82150	34.52
0.83817	34.52
0.85483	34.52
0.87150	34.52
0.88817	34.52
0.90483	34.52
0.92150	34.52
0.93817	34.51
0.95483	34.53
0.97150	34.52
0.98817	34.52
1.00483	34.53
1.02150	34.52
1.03817	34.52
1.05483	34.52
1.07150	34.52
1.08817	34.51
1.10483	34.52
1.12150	34.52
1.13817	34.52
1.15483	34.52
1.17150	34.52
1.18817	34.51
1.20483	34.52
1.22150	34.52
1.23817	34.52
1.25483	34.52
1.27150	34.52
1.28817	34.52
1.30483	34.52
1.32150	34.52
1.33817	34.52
1.35483	34.52
1.37150	34.52
1.38817	34.52
1.40483	34.52
1.42150	34.52
1.43817	34.52
1.45483	34.52
1.47150	34.52
1.48817	34.51
1.50483	34.52
1.52150	34.52
1.53817	34.52
1.55483	34.52
1.57150	34.52
1.58817	34.52
1.60483	34.52
1.62150	34.52
1.63817	34.52
1.65483	34.52
1.67150	34.52
1.68817	34.52
1.70483	34.52
1.72150	34.53
1.73817	34.52
1.75483	34.51
1.77150	34.53
1.78817	34.52
1.80483	34.52
1.82150	34.52
1.83817	34.52
1.85483	34.52
1.87150	34.52
1.88817	34.52
1.90483	34.52
1.92150	34.52
1.93817	34.52
1.95483	34.52
1.97150	34.52
1.98817	34.52
2.00483	34.52
2.02150	34.51
2.03817	34.52
2.05483	34.53
2.07150	34.52
2.08817	34.52
2.10483	34.52
2.12150	34.53
2.13817	34.52
2.15483	34.51
2.17150	34.52
2.18817	34.53
2.20483	34.51
2.22150	34.52
2.23817	34.52
2.25483	34.52
2.27150	34.52
2.28817	34.53
2.30483	34.52
2.32150	34.52
2.33817	34.52
2.35483	34.52
2.37150	34.51
2.38817	34.51
2.40483	34.52
2.42150	34.52
2.43817	34.52
2.45483	34.52
2.47150	34.51
2.48817	34.52
2.50483	34.54
2.52150	34.53
2.53817	34.52
2.55483	34.52
2.57150	34.52
2.58817	34.51
2.60483	34.51
2.62150	34.52
2.63817	34.52
2.65483	34.52
2.67150	34.52
2.68817	34.52
2.70483	34.52
2.72150	34.52
2.73817	34.51
2.75483	34.52
2.77150	34.52
2.78817	34.52
2.80483	34.52
2.82150	34.52
2.83817	34.52
2.85483	34.52
2.87150	34.51
2.88817	34.51
2.90483	34.52
2.92150	34.52
2.93817	34.52
2.95483	34.52
2.97150	34.52
2.98817	34.52
3.00483	34.52
3.02150	34.51
3.03817	34.52
3.05483	34.52
3.07150	34.51
3.08817	34.52
3.10483	34.52
3.12150	34.52
3.13817	34.52
3.15483	34.52
3.17150	34.52
3.18817	34.52
3.20483	34.51
3.22150	34.51
3.23817	34.52
3.25483	34.52
3.27150	34.52
3.28817	34.52
3.30483	34.52
3.32150	34.51
3.33817	34.52
3.35483	34.52
3.37150	34.51
3.38817	34.52
3.40483	34.52
3.42150	34.52
3.43817	34.52
3.45483	34.52
3.47150	34.52
3.48817	34.52
3.50483	34.52
3.52150	34.52
3.53817	34.53
3.55483	34.52
3.57150	34.52
3.58817	34.52
3.60483	34.51
3.62150	34.52
3.63817	34.52
3.65483	34.52
3.67150	34.51
3.68817	34.52
3.70483	34.52
3.72150	34.52
3.73817	34.52
3.75483	34.51
3.77150	34.51
3.78817	34.52
3.80483	34.52
3.82150	34.52
3.83817	34.52
3.85483	34.51
3.87150	34.53
3.88817	34.52
3.90483	34.52
3.92150	34.52
3.93817	34.51
3.95483	34.52
3.97150	34.52
3.98817	34.52

[Status Trace (Column Flow)]
Interval(msec)	1000
# of Points	240
Start Time(min)	0.005
End Time(min)	3.988
Intensity Units	
Intensity Multiplier	1
R.Time (min)	Intensity
0.00483	5.52
0.02150	5.27
0.03817	5.36
0.05483	5.62
0.07150	5.73
0.08817	5.54
0.10483	5.51
0.12150	5.52
0.13817	5.52
0.15483	5.52
0.17150	5.52
0.18817	5.52
0.20483	5.52
0.22150	5.52
0.23817	5.52
0.25483	5.52
0.27150	5.52
0.28817	5.52
0.30483	5.52
0.32150	5.52
0.33817	5.52
0.35483	5.52
0.37150	5.52
0.38817	5.52
0.40483	5.52
0.42150	5.52
0.43817	5.52
0.45483	5.52
0.47150	5.52
0.48817	5.52
0.50483	5.52
0.52150	5.52
0.53817	5.52
0.55483	5.52
0.57150	5.52
0.58817	5.52
0.60483	5.52
0.62150	5.52
0.63817	5.52
0.65483	5.52
0.67150	5.52
0.68817	5.52
0.70483	5.52
0.72150	5.52
0.73817	5.52
0.75483	5.52
0.77150	5.52
0.78817	5.52
0.80483	5.52
0.82150	5.52
0.83817	5.52
0.85483	5.52
0.87150	5.52
0.88817	5.52
0.90483	5.52
0.92150	5.52
0.93817	5.52
0.95483	5.52
0.97150	5.52
0.98817	5.52
1.00483	5.52
1.02150	5.52
1.03817	5.52
1.05483	5.52
1.07150	5.52
1.08817	5.52
1.10483	5.52
1.12150	5.52
1.13817	5.52
1.15483	5.52
1.17150	5.52
1.18817	5.52
1.20483	5.52
1.22150	5.52
1.23817	5.52
1.25483	5.52
1.27150	5.52
1.28817	5.52
1.30483	5.52
1.32150	5.52
1.33817	5.52
1.35483	5.52
1.37150	5.52
1.38817	5.52
1.40483	5.52
1.42150	5.52
1.43817	5.52
1.45483	5.52
1.47150	5.52
1.48817	5.52
1.50483	5.52
1.52150	5.52
1.53817	5.52
1.55483	5.52
1.57150	5.52
1.58817	5.52
1.60483	5.51
1.62150	5.51
1.63817	5.51
1.65483	5.50
1.67150	5.49
1.68817	5.48
1.70483	5.47
1.72150	5.46
1.73817	5.44
1.75483	5.44
1.77150	5.43
1.78817	5.41
1.80483	5.40
1.82150	5.39
1.83817	5.38
1.85483	5.37
1.87150	5.36
1.88817	5.35
1.90483	5.34
1.92150	5.33
1.93817	5.32
1.95483	5.31
1.97150	5.31
1.98817	5.30
2.00483	5.29
2.02150	5.28
2.03817	5.27
2.05483	5.26
2.07150	5.25
2.08817	5.24
2.10483	5.23
2.12150	5.22
2.13817	5.21
2.15483	5.20
2.17150	5.19
2.18817	5.18
2.20483	5.17
2.22150	5.16
2.23817	5.15
2.25483	5.14
2.27150	5.13
2.28817	5.12
2.30483	5.12
2.32150	5.11
2.33817	5.10
2.35483	5.09
2.37150	5.08
2.38817	5.08
2.40483	5.08
2.42150	5.08
2.43817	5.08
2.45483	5.08
2.47150	5.08
2.48817	5.08
2.50483	5.08
2.52150	5.08
2.53817	5.08
2.55483	5.08
2.57150	5.08
2.58817	5.08
2.60483	5.08
2.62150	5.08
2.63817	5.08
2.65483	5.08
2.67150	5.08
2.68817	5.08
2.70483	5.08
2.72150	5.08
2.73817	5.08
2.75483	5.08
2.77150	5.08
2.78817	5.08
2.80483	5.08
2.82150	5.08
2.83817	5.08
2.85483	5.08
2.87150	5.07
2.88817	5.07
2.90483	5.07
2.92150	5.07
2.93817	5.07
2.95483	5.07
2.97150	5.07
2.98817	5.07
3.00483	5.07
3.02150	5.07
3.03817	5.07
3.05483	5.07
3.07150	5.07
3.08817	5.07
3.10483	5.07
3.12150	5.07
3.13817	5.07
3.15483	5.07
3.17150	5.07
3.18817	5.07
3.20483	5.07
3.22150	5.07
3.23817	5.07
3.25483	5.07
3.27150	5.07
3.28817	5.07
3.30483	5.07
3.32150	5.07
3.33817	5.07
3.35483	5.07
3.37150	5.07
3.38817	5.07
3.40483	5.07
3.42150	5.07
3.43817	5.07
3.45483	5.07
3.47150	5.07
3.48817	5.07
3.50483	5.07
3.52150	5.07
3.53817	5.07
3.55483	5.07
3.57150	5.07
3.58817	5.07
3.60483	5.07
3.62150	5.07
3.63817	5.07
3.65483	5.07
3.67150	5.07
3.68817	5.07
3.70483	5.07
3.72150	5.07
3.73817	5.07
3.75483	5.07
3.77150	5.07
3.78817	5.07
3.80483	5.07
3.82150	5.07
3.83817	5.07
3.85483	5.07
3.87150	5.07
3.88817	5.07
3.90483	5.07
3.92150	5.07
3.93817	5.07
3.95483	5.07
3.97150	5.07
3.98817	5.07

[Status Trace (Linear Velocity)]
Interval(msec)	1000
# of Points	240
Start Time(min)	0.005
End Time(min)	3.988
Intensity Units	
Intensity Multiplier	1
R.Time (min)	Intensity
0.00483	39.01
0.02150	37.64
0.03817	38.11
0.05483	39.58
0.07150	40.19
0.08817	39.15
0.10483	39.00
0.12150	39.02
0.13817	39.02
0.15483	39.02
0.17150	39.02
0.18817	39.02
0.20483	39.02
0.22150	39.02
0.23817	39.02
0.25483	39.02
0.27150	39.02
0.28817	39.01
0.30483	39.02
0.32150	39.02
0.33817	39.02
0.35483	39.02
0.37150	39.02
0.38817	39.02
0.40483	39.02
0.42150	39.02
0.43817	39.02
0.45483	39.02
0.47150	39.02
0.48817	39.02
0.50483	39.02
0.52150	39.02
0.53817	39.02
0.55483	39.02
0.57150	39.02
0.58817	39.02
0.60483	39.02
0.62150	39.02
0.63817	39.02
0.65483	39.02
0.67150	39.02
0.68817	39.02
0.70483	39.02
0.72150	39.02
0.73817	39.02
0.75483	39.02
0.77150	39.02
0.78817	39.02
0.80483	39.02
0.82150	39.02
0.83817	39.02
0.85483	39.02
0.87150	39.02
0.88817	39.01
0.90483	39.02
0.92150	39.01
0.93817	39.02
0.95483	39.02
0.97150	39.02
0.98817	39.02
1.00483	39.02
1.02150	39.02
1.03817	39.02
1.05483	39.02
1.07150	39.02
1.08817	39.02
1.10483	39.02
1.12150	39.02
1.13817	39.02
1.15483	39.02
1.17150	39.01
1.18817	39.01
1.20483	39.01
1.22150	39.01
1.23817	39.02
1.25483	39.02
1.27150	39.02
1.28817	39.02
1.30483	39.02
1.32150	39.02
1.33817	39.02
1.35483	39.02
1.37150	39.02
1.38817	39.02
1.40483	39.02
1.42150	39.02
1.43817	39.02
1.45483	39.02
1.47150	39.02
1.48817	39.02
1.50483	39.02
1.52150	39.02
1.53817	39.02
1.55483	39.02
1.57150	39.02
1.58817	39.02
1.60483	39.01
1.62150	39.00
1.63817	38.99
1.65483	38.96
1.67150	38.93
1.68817	38.90
1.70483	38.86
1.72150	38.83
1.73817	38.80
1.75483	38.77
1.77150	38.74
1.78817	38.70
1.80483	38.67
1.82150	38.64
1.83817	38.61
1.85483	38.58
1.87150	38.55
1.88817	38.51
1.90483	38.48
1.92150	38.45
1.93817	38.42
1.95483	38.39
1.97150	38.37
1.98817	38.33
2.00483	38.30
2.02150	38.28
2.03817	38.24
2.05483	38.21
2.07150	38.18
2.08817	38.15
2.10483	38.12
2.12150	38.10
2.13817	38.06
2.15483	38.03
2.17150	38.01
2.18817	37.97
2.20483	37.94
2.22150	37.91
2.23817	37.88
2.25483	37.85
2.27150	37.83
2.28817	37.80
2.30483	37.77
2.32150	37.74
2.33817	37.71
2.35483	37.68
2.37150	37.67
2.38817	37.66
2.40483	37.66
2.42150	37.66
2.43817	37.66
2.45483	37.66
2.47150	37.66
2.48817	37.66
2.50483	37.65
2.52150	37.65
2.53817	37.65
2.55483	37.65
2.57150	37.65
2.58817	37.65
2.60483	37.65
2.62150	37.65
2.63817	37.65
2.65483	37.64
2.67150	37.64
2.68817	37.64
2.70483	37.64
2.72150	37.64
2.73817	37.64
2.75483	37.64
2.77150	37.64
2.78817	37.64
2.80483	37.64
2.82150	37.64
2.83817	37.64
2.85483	37.64
2.87150	37.64
2.88817	37.63
2.90483	37.64
2.92150	37.63
2.93817	37.64
2.95483	37.64
2.97150	37.63
2.98817	37.63
3.00483	37.63
3.02150	37.63
3.03817	37.63
3.05483	37.63
3.07150	37.63
3.08817	37.63
3.10483	37.63
3.12150	37.63
3.13817	37.63
3.15483	37.63
3.17150	37.63
3.18817	37.63
3.20483	37.63
3.22150	37.63
3.23817	37.63
3.25483	37.62
3.27150	37.62
3.28817	37.62
3.30483	37.62
3.32150	37.62
3.33817	37.62
3.35483	37.62
3.37150	37.62
3.38817	37.62
3.40483	37.63
3.42150	37.63
3.43817	37.63
3.45483	37.63
3.47150	37.63
3.48817	37.63
3.50483	37.63
3.52150	37.63
3.53817	37.63
3.55483	37.63
3.57150	37.63
3.58817	37.63
3.60483	37.63
3.62150	37.63
3.63817	37.63
3.65483	37.63
3.67150	37.63
3.68817	37.63
3.70483	37.63
3.72150	37.62
3.73817	37.62
3.75483	37.62
3.77150	37.62
3.78817	37.63
3.80483	37.63
3.82150	37.63
3.83817	37.63
3.85483	37.63
3.87150	37.63
3.88817	37.63
3.90483	37.63
3.92150	37.63
3.93817	37.63
3.95483	37.63
3.97150	37.63
3.98817	37.63

