[Header]
Application Name	LabSolutions
Version	5.110
Data File Name	C:\Users\User\Desktop\Junior\UIC Prairie Sampling\2023\8.18.23\081823_046.gcd
Output Date	8/31/2023
Output Time	12:48:09 PM

[File Information]
Type	Data File
Generated	8/30/2023 9:02:26 PM
Generated by	System Administrator
Modified	8/30/2023 9:08:45 PM
Modified by	System Administrator

[Sample Information]
Operator Name	System Administrator
Acquired	8/30/2023 9:04:44 PM
Sample Type	0:Unknown
Level	0
Sample Name	046
Sample ID	046
ISTD Amount1	1
ISTD Amount2	1
ISTD Amount3	1
ISTD Amount4	1
ISTD Amount5	1
ISTD Amount6	1
ISTD Amount7	1
ISTD Amount8	1
ISTD Amount9	1
ISTD Amount10	1
ISTD Amount11	1
ISTD Amount12	1
ISTD Amount13	1
ISTD Amount14	1
ISTD Amount15	1
ISTD Amount16	1
ISTD Amount17	1
ISTD Amount18	1
ISTD Amount19	1
ISTD Amount20	1
ISTD Amount21	1
ISTD Amount22	1
ISTD Amount23	1
ISTD Amount24	1
ISTD Amount25	1
ISTD Amount26	1
ISTD Amount27	1
ISTD Amount28	1
ISTD Amount29	1
ISTD Amount30	1
ISTD Amount31	1
ISTD Amount32	1
Sample Amount	1
Dilution Factor	1
Vial#	45
Injection Volume	1
Injection Count	1
Bar Code	

[Original Files]
Data File	C:\Users\User\Desktop\Junior\UIC Prairie Sampling\8.18.23\081823_046.gcd
Method File	C:\LabSolutions\Data\GHG_4min_2022\ghg3_togas_w_acet_4 min_new_int.gcm
Batch File	C:\LabSolutions\Data\BATCH FILES\081823.gcb
Report Format File	c:\LabSolutions\System\DEFAULT.lsr

[File Description]


[Configuration]
Instrument Name	C0B7VH3-Instrument1
Instrument #	1
Line #	1
# of Detectors	3
Detector ID	DET#1	DET#2	DET#3
Detector Name	FID	PTCD	ECD
# of Channels	1	1	1

[Peak Table(Ch1)]
# of Peaks	3
Peak#	R.Time	I.Time	F.Time	Area	Height	A/H	Conc.	Mark	ID#	Name	k'	Plate #	Plate Ht.	Tailing	Resolution	Sep.Factor	Area Ratio	Height Ratio	Conc. %	Norm Conc.
1	1.472	1.421	1.531	4571	2240	2.041	0.000	   	1	CO	0.000	9529	15.741	1.406	0.000	0.000	0	0	0.000	0.000
2	1.564	1.531	1.619	4527	2304	1.965	22.070	 V 	2	CH4	0.062	11516	13.025	1.121	1.546	0.000	0	0	8.731	8.731
3	1.989	1.945	2.594	1197117	571317	2.095	230.706	   	3	CO2	0.351	17563	8.541	1.312	7.190	5.640	0	0	91.269	91.269

[Peak Table(Ch2)]
# of Peaks	0

[Peak Table(Ch3)]
# of Peaks	5
Peak#	R.Time	I.Time	F.Time	Area	Height	A/H	Conc.	Mark	ID#	Name	k'	Plate #	Plate Ht.	Tailing	Resolution	Sep.Factor	Area Ratio	Height Ratio	Conc. %	Norm Conc.
1	2.458	2.323	2.510	1093	340	3.215	0.000	   			0.000	10843	13.834	0.000	0.000	0.000	0	0	0.000	0.000
2	2.524	2.510	2.572	435	166	2.627	0.000	 V 			0.027	5033	29.805	0.000	0.558	0.000	0	0	0.000	0.000
3	2.623	2.572	2.726	571	135	4.226	0.000	 V 			0.067	7314	20.509	0.000	0.747	2.500	0	0	0.000	0.000
4	2.891	2.752	3.038	14450	3955	3.654	0.214	   	1	N2O	0.176	14038	10.685	1.488	2.430	2.622	0	0	100.000	100.000
5	3.324	3.250	3.965	18481	874	21.136	0.000	   			0.352	462	324.528	4.873	1.209	2.000	0	0	0.000	0.000

[Compound Results(Ch1)]
# of IDs	6
ID#	Name	R.Time	Area	Height	Conc.	Curve	3rd	2nd	1st	Constant	Area Ratio	Height Ratio	Conc. %	Norm Conc.
1	CO	1.472	4571	2240	0.000	Linear	0.000000e+00	0.000000e+00	0.000000e+00	0.000000e+00	0	0	0.000	0.000
2	CH4	1.564	4527	2304	22.070	Linear	0.000000e+00	0.000000e+00	2.051179e+002	0.000000e+00	0	0	8.731	8.731
3	CO2	1.989	1197117	571317	230.706	Linear	0.000000e+00	0.000000e+00	5.188919e+003	0.000000e+00	0	0	91.269	91.269
4	Ethylene	0.000	0	0	0.000	Linear	0.000000e+00	0.000000e+00	0.000000e+00	0.000000e+00	0	0	0.000	0.000
5	Acetylene	0.000	0	0	0.000	Linear	0.000000e+00	0.000000e+00	0.000000e+00	0.000000e+00	0	0	0.000	0.000
6	Ethane	0.000	0	0	0.000	Linear	0.000000e+00	0.000000e+00	0.000000e+00	0.000000e+00	0	0	0.000	0.000

[Compound Results(Ch2)]
# of IDs	5
ID#	Name	R.Time	Area	Height	Conc.	Curve	3rd	2nd	1st	Constant	Area Ratio	Height Ratio	Conc. %	Norm Conc.
1	Hydrogen	0.000	0	0	0.000	Linear	0.000000e+00	0.000000e+00	0.000000e+00	0.000000e+00	0	0	0.000	0.000
2	Oxygen	0.000	0	0	0.000	Linear	0.000000e+00	0.000000e+00	0.000000e+00	0.000000e+00	0	0	0.000	0.000
3	Nitrogen	0.000	0	0	0.000	Linear	0.000000e+00	0.000000e+00	0.000000e+00	0.000000e+00	0	0	0.000	0.000
4	Methane	0.000	0	0	0.000	Linear	0.000000e+00	0.000000e+00	0.000000e+00	0.000000e+00	0	0	0.000	0.000
5	Carbon Monoxide	0.000	0	0	0.000	Linear	0.000000e+00	0.000000e+00	0.000000e+00	0.000000e+00	0	0	0.000	0.000

[Compound Results(Ch3)]
# of IDs	2
ID#	Name	R.Time	Area	Height	Conc.	Curve	3rd	2nd	1st	Constant	Area Ratio	Height Ratio	Conc. %	Norm Conc.
1	N2O	2.891	14450	3955	0.214	Linear	0.000000e+00	0.000000e+00	6.759880e+004	0.000000e+00	0	0	100.000	100.000
2	SF6	0.000	0	0	0.000	Linear	0.000000e+00	0.000000e+00	0.000000e+00	0.000000e+00	0	0	0.000	0.000

[Group Results(Ch1)]
# of Groups	0

[Group Results(Ch2)]
# of Groups	0

[Group Results(Ch3)]
# of Groups	0

[Chromatogram (Ch1)]
Interval(msec)	220
# of Points	1091
Start Time(min)	0.002
End Time(min)	3.998
R.Time (min)	Intensity
0.00167	5
0.00533	-0
0.00900	-6
0.01267	-11
0.01633	-11
0.02000	-10
0.02367	-11
0.02733	-12
0.03100	-13
0.03467	-16
0.03833	-18
0.04200	-17
0.04567	-13
0.04933	-8
0.05300	-4
0.05667	2
0.06033	9
0.06400	14
0.06767	10
0.07133	2
0.07500	-7
0.07867	-15
0.08233	-16
0.08600	-15
0.08967	-15
0.09333	-14
0.09700	-12
0.10067	-9
0.10433	-9
0.10800	-10
0.11167	-12
0.11533	-17
0.11900	-22
0.12267	-26
0.12633	-24
0.13000	-20
0.13367	-14
0.13733	-11
0.14100	-5
0.14467	0
0.14833	4
0.15200	4
0.15567	1
0.15933	-6
0.16300	-13
0.16667	-15
0.17033	-12
0.17400	-3
0.17767	5
0.18133	11
0.18500	10
0.18867	-0
0.19233	-11
0.19600	-18
0.19967	-21
0.20333	-24
0.20700	-27
0.21067	-30
0.21433	-33
0.21800	-34
0.22167	-36
0.22533	-38
0.22900	-38
0.23267	-35
0.23633	-33
0.24000	-30
0.24367	-25
0.24733	-16
0.25100	-8
0.25467	-2
0.25833	0
0.26200	-1
0.26567	-4
0.26933	-5
0.27300	-2
0.27667	4
0.28033	9
0.28400	10
0.28767	10
0.29133	10
0.29500	6
0.29867	1
0.30233	-4
0.30600	-6
0.30967	-6
0.31333	-7
0.31700	-11
0.32067	-18
0.32433	-25
0.32800	-29
0.33167	-26
0.33533	-19
0.33900	-14
0.34267	-14
0.34633	-16
0.35000	-18
0.35367	-17
0.35733	-14
0.36100	-10
0.36467	-8
0.36833	-9
0.37200	-13
0.37567	-20
0.37933	-26
0.38300	-28
0.38667	-28
0.39033	-29
0.39400	-27
0.39767	-22
0.40133	-19
0.40500	-18
0.40867	-17
0.41233	-18
0.41600	-19
0.41967	-20
0.42333	-16
0.42700	-11
0.43067	-13
0.43433	-21
0.43800	-32
0.44167	-40
0.44533	-43
0.44900	-43
0.45267	-40
0.45633	-35
0.46000	-30
0.46367	-24
0.46733	-20
0.47100	-18
0.47467	-18
0.47833	-19
0.48200	-23
0.48567	-29
0.48933	-32
0.49300	-32
0.49667	-32
0.50033	-31
0.50400	-29
0.50767	-27
0.51133	-26
0.51500	-25
0.51867	-26
0.52233	-26
0.52600	-26
0.52967	-28
0.53333	-30
0.53700	-31
0.54067	-33
0.54433	-33
0.54800	-32
0.55167	-29
0.55533	-25
0.55900	-23
0.56267	-22
0.56633	-22
0.57000	-20
0.57367	-19
0.57733	-17
0.58100	-17
0.58467	-21
0.58833	-23
0.59200	-23
0.59567	-25
0.59933	-27
0.60300	-26
0.60667	-24
0.61033	-22
0.61400	-21
0.61767	-21
0.62133	-21
0.62500	-21
0.62867	-19
0.63233	-17
0.63600	-16
0.63967	-16
0.64333	-17
0.64700	-15
0.65067	-14
0.65433	-15
0.65800	-20
0.66167	-27
0.66533	-29
0.66900	-25
0.67267	-17
0.67633	-12
0.68000	-12
0.68367	-16
0.68733	-19
0.69100	-23
0.69467	-27
0.69833	-31
0.70200	-33
0.70567	-32
0.70933	-29
0.71300	-27
0.71667	-27
0.72033	-24
0.72400	-21
0.72767	-18
0.73133	-19
0.73500	-24
0.73867	-28
0.74233	-31
0.74600	-33
0.74967	-31
0.75333	-31
0.75700	-34
0.76067	-39
0.76433	-42
0.76800	-40
0.77167	-36
0.77533	-32
0.77900	-28
0.78267	-26
0.78633	-30
0.79000	-36
0.79367	-37
0.79733	-37
0.80100	-38
0.80467	-39
0.80833	-39
0.81200	-39
0.81567	-37
0.81933	-35
0.82300	-32
0.82667	-29
0.83033	-28
0.83400	-30
0.83767	-32
0.84133	-37
0.84500	-40
0.84867	-40
0.85233	-38
0.85600	-39
0.85967	-40
0.86333	-39
0.86700	-40
0.87067	-40
0.87433	-40
0.87800	-38
0.88167	-36
0.88533	-32
0.88900	-25
0.89267	-18
0.89633	-12
0.90000	-11
0.90367	-14
0.90733	-18
0.91100	-26
0.91467	-34
0.91833	-39
0.92200	-43
0.92567	-47
0.92933	-52
0.93300	-55
0.93667	-53
0.94033	-53
0.94400	-55
0.94767	-56
0.95133	-55
0.95500	-53
0.95867	-47
0.96233	-43
0.96600	-42
0.96967	-43
0.97333	-42
0.97700	-41
0.98067	-42
0.98433	-40
0.98800	-39
0.99167	-43
0.99533	-50
0.99900	-57
1.00267	-61
1.00633	-59
1.01000	-53
1.01367	-44
1.01733	-41
1.02100	-42
1.02467	-44
1.02833	-47
1.03200	-50
1.03567	-55
1.03933	-59
1.04300	-61
1.04667	-60
1.05033	-55
1.05400	-47
1.05767	-42
1.06133	-42
1.06500	-47
1.06867	-54
1.07233	-59
1.07600	-62
1.07967	-60
1.08333	-56
1.08700	-52
1.09067	-49
1.09433	-46
1.09800	-44
1.10167	-42
1.10533	-41
1.10900	-42
1.11267	-45
1.11633	-49
1.12000	-54
1.12367	-56
1.12733	-56
1.13100	-54
1.13467	-46
1.13833	-37
1.14200	-30
1.14567	-26
1.14933	-24
1.15300	-23
1.15667	-24
1.16033	-25
1.16400	-24
1.16767	-29
1.17133	-37
1.17500	-44
1.17867	-49
1.18233	-52
1.18600	-52
1.18967	-51
1.19333	-54
1.19700	-56
1.20067	-55
1.20433	-52
1.20800	-49
1.21167	-49
1.21533	-48
1.21900	-42
1.22267	-37
1.22633	-37
1.23000	-39
1.23367	-41
1.23733	-44
1.24100	-48
1.24467	-53
1.24833	-57
1.25200	-59
1.25567	-60
1.25933	-59
1.26300	-55
1.26667	-52
1.27033	-50
1.27400	-47
1.27767	-43
1.28133	-42
1.28500	-44
1.28867	-49
1.29233	-54
1.29600	-57
1.29967	-60
1.30333	-61
1.30700	-59
1.31067	-56
1.31433	-51
1.31800	-47
1.32167	-45
1.32533	-43
1.32900	-43
1.33267	-43
1.33633	-40
1.34000	-37
1.34367	-38
1.34733	-41
1.35100	-46
1.35467	-52
1.35833	-58
1.36200	-63
1.36567	-69
1.36933	-74
1.37300	-77
1.37667	-74
1.38033	-70
1.38400	-66
1.38767	-63
1.39133	-60
1.39500	-57
1.39867	-56
1.40233	-59
1.40600	-66
1.40967	-71
1.41333	-72
1.41700	-70
1.42067	-66
1.42433	-57
1.42800	-48
1.43167	-38
1.43533	-26
1.43900	-17
1.44267	-22
1.44633	24
1.45000	231
1.45367	608
1.45733	1055
1.46100	1475
1.46467	1823
1.46833	2068
1.47200	2176
1.47567	2113
1.47933	1892
1.48300	1569
1.48667	1219
1.49033	900
1.49400	641
1.49767	445
1.50133	305
1.50500	206
1.50867	137
1.51233	90
1.51600	60
1.51967	39
1.52333	21
1.52700	4
1.53067	-2
1.53433	34
1.53800	173
1.54167	463
1.54533	876
1.54900	1326
1.55267	1729
1.55633	2034
1.56000	2216
1.56367	2243
1.56733	2095
1.57100	1794
1.57467	1415
1.57833	1041
1.58200	725
1.58567	483
1.58933	308
1.59300	186
1.59667	101
1.60033	43
1.60400	2
1.60767	-26
1.61133	-42
1.61500	-51
1.61867	-58
1.62233	-61
1.62600	-62
1.62967	-61
1.63333	-60
1.63700	-60
1.64067	-60
1.64433	-61
1.64800	-61
1.65167	-61
1.65533	-62
1.65900	-65
1.66267	-69
1.66633	-73
1.67000	-71
1.67367	-65
1.67733	-61
1.68100	-60
1.68467	-61
1.68833	-62
1.69200	-65
1.69567	-67
1.69933	-69
1.70300	-71
1.70667	-69
1.71033	-65
1.71400	-63
1.71767	-65
1.72133	-72
1.72500	-76
1.72867	-78
1.73233	-78
1.73600	-77
1.73967	-77
1.74333	-79
1.74700	-82
1.75067	-84
1.75433	-86
1.75800	-88
1.76167	-90
1.76533	-89
1.76900	-87
1.77267	-84
1.77633	-80
1.78000	-76
1.78367	-72
1.78733	-68
1.79100	-67
1.79467	-69
1.79833	-71
1.80200	-72
1.80567	-72
1.80933	-71
1.81300	-69
1.81667	-70
1.82033	-71
1.82400	-72
1.82767	-75
1.83133	-78
1.83500	-80
1.83867	-83
1.84233	-85
1.84600	-87
1.84967	-87
1.85333	-85
1.85700	-84
1.86067	-81
1.86433	-78
1.86800	-73
1.87167	-69
1.87533	-67
1.87900	-69
1.88267	-72
1.88633	-73
1.89000	-68
1.89367	-58
1.89733	-46
1.90100	-39
1.90467	-39
1.90833	-42
1.91200	-48
1.91567	-57
1.91933	-65
1.92300	-71
1.92667	-78
1.93033	-86
1.93400	-91
1.93767	-93
1.94133	-93
1.94500	-82
1.94867	-3
1.95233	474
1.95600	2742
1.95967	10839
1.96333	32792
1.96700	78956
1.97067	155338
1.97433	256494
1.97800	366161
1.98167	465044
1.98533	537041
1.98900	571253
1.99267	563015
1.99633	516069
2.00000	441939
2.00367	356044
2.00733	272511
2.01100	200446
2.01467	143392
2.01833	100906
2.02200	70590
2.02567	49563
2.02933	35229
2.03300	25538
2.03667	18995
2.04033	14550
2.04400	11487
2.04767	9341
2.05133	7807
2.05500	6683
2.05867	5840
2.06233	5190
2.06600	4676
2.06967	4263
2.07333	3921
2.07700	3629
2.08067	3377
2.08433	3156
2.08800	2958
2.09167	2780
2.09533	2620
2.09900	2479
2.10267	2356
2.10633	2246
2.11000	2147
2.11367	2055
2.11733	1969
2.12100	1887
2.12467	1812
2.12833	1742
2.13200	1676
2.13567	1617
2.13933	1562
2.14300	1509
2.14667	1459
2.15033	1413
2.15400	1373
2.15767	1334
2.16133	1296
2.16500	1255
2.16867	1213
2.17233	1170
2.17600	1128
2.17967	1090
2.18333	1057
2.18700	1026
2.19067	996
2.19433	967
2.19800	940
2.20167	917
2.20533	895
2.20900	872
2.21267	850
2.21633	828
2.22000	808
2.22367	789
2.22733	775
2.23100	760
2.23467	743
2.23833	723
2.24200	702
2.24567	682
2.24933	666
2.25300	650
2.25667	633
2.26033	616
2.26400	604
2.26767	593
2.27133	583
2.27500	575
2.27867	569
2.28233	561
2.28600	552
2.28967	544
2.29333	539
2.29700	538
2.30067	540
2.30433	537
2.30800	525
2.31167	508
2.31533	489
2.31900	473
2.32267	463
2.32633	457
2.33000	453
2.33367	449
2.33733	444
2.34100	439
2.34467	431
2.34833	424
2.35200	418
2.35567	409
2.35933	399
2.36300	388
2.36667	376
2.37033	365
2.37400	356
2.37767	349
2.38133	346
2.38500	345
2.38867	345
2.39233	342
2.39600	338
2.39967	335
2.40333	333
2.40700	335
2.41067	336
2.41433	332
2.41800	324
2.42167	315
2.42533	307
2.42900	300
2.43267	294
2.43633	288
2.44000	284
2.44367	284
2.44733	285
2.45100	286
2.45467	286
2.45833	282
2.46200	276
2.46567	271
2.46933	267
2.47300	264
2.47667	263
2.48033	262
2.48400	259
2.48767	254
2.49133	246
2.49500	236
2.49867	232
2.50233	236
2.50600	240
2.50967	242
2.51333	241
2.51700	238
2.52067	236
2.52433	235
2.52800	235
2.53167	233
2.53533	231
2.53900	225
2.54267	218
2.54633	211
2.55000	204
2.55367	201
2.55733	201
2.56100	202
2.56467	202
2.56833	202
2.57200	199
2.57567	194
2.57933	188
2.58300	186
2.58667	185
2.59033	182
2.59400	177
2.59767	172
2.60133	169
2.60500	167
2.60867	167
2.61233	167
2.61600	169
2.61967	170
2.62333	172
2.62700	175
2.63067	177
2.63433	180
2.63800	184
2.64167	184
2.64533	180
2.64900	178
2.65267	172
2.65633	164
2.66000	155
2.66367	148
2.66733	144
2.67100	142
2.67467	143
2.67833	144
2.68200	146
2.68567	146
2.68933	140
2.69300	135
2.69667	132
2.70033	126
2.70400	121
2.70767	117
2.71133	118
2.71500	119
2.71867	121
2.72233	122
2.72600	126
2.72967	127
2.73333	127
2.73700	128
2.74067	129
2.74433	129
2.74800	130
2.75167	131
2.75533	132
2.75900	132
2.76267	132
2.76633	129
2.77000	125
2.77367	119
2.77733	115
2.78100	111
2.78467	109
2.78833	109
2.79200	108
2.79567	107
2.79933	106
2.80300	108
2.80667	111
2.81033	115
2.81400	118
2.81767	122
2.82133	127
2.82500	135
2.82867	140
2.83233	143
2.83600	141
2.83967	133
2.84333	126
2.84700	121
2.85067	117
2.85433	113
2.85800	108
2.86167	101
2.86533	96
2.86900	97
2.87267	100
2.87633	102
2.88000	102
2.88367	102
2.88733	101
2.89100	101
2.89467	103
2.89833	106
2.90200	109
2.90567	109
2.90933	108
2.91300	107
2.91667	106
2.92033	105
2.92400	105
2.92767	106
2.93133	107
2.93500	107
2.93867	104
2.94233	101
2.94600	99
2.94967	99
2.95333	101
2.95700	104
2.96067	105
2.96433	107
2.96800	109
2.97167	110
2.97533	108
2.97900	106
2.98267	103
2.98633	103
2.99000	105
2.99367	110
2.99733	115
3.00100	117
3.00467	119
3.00833	119
3.01200	118
3.01567	117
3.01933	116
3.02300	113
3.02667	109
3.03033	102
3.03400	95
3.03767	88
3.04133	84
3.04500	85
3.04867	86
3.05233	84
3.05600	80
3.05967	78
3.06333	75
3.06700	73
3.07067	74
3.07433	77
3.07800	78
3.08167	80
3.08533	82
3.08900	84
3.09267	87
3.09633	91
3.10000	96
3.10367	101
3.10733	101
3.11100	99
3.11467	98
3.11833	98
3.12200	98
3.12567	98
3.12933	98
3.13300	98
3.13667	101
3.14033	107
3.14400	117
3.14767	119
3.15133	115
3.15500	105
3.15867	96
3.16233	92
3.16600	94
3.16967	101
3.17333	107
3.17700	106
3.18067	99
3.18433	90
3.18800	84
3.19167	84
3.19533	86
3.19900	84
3.20267	76
3.20633	65
3.21000	57
3.21367	55
3.21733	62
3.22100	72
3.22467	83
3.22833	90
3.23200	91
3.23567	88
3.23933	88
3.24300	89
3.24667	92
3.25033	91
3.25400	88
3.25767	85
3.26133	81
3.26500	76
3.26867	71
3.27233	66
3.27600	62
3.27967	64
3.28333	67
3.28700	71
3.29067	73
3.29433	72
3.29800	70
3.30167	69
3.30533	72
3.30900	78
3.31267	85
3.31633	89
3.32000	90
3.32367	89
3.32733	90
3.33100	91
3.33467	92
3.33833	94
3.34200	92
3.34567	89
3.34933	87
3.35300	83
3.35667	82
3.36033	83
3.36400	83
3.36767	82
3.37133	79
3.37500	76
3.37867	74
3.38233	72
3.38600	70
3.38967	69
3.39333	68
3.39700	67
3.40067	67
3.40433	69
3.40800	75
3.41167	82
3.41533	88
3.41900	92
3.42267	95
3.42633	94
3.43000	93
3.43367	90
3.43733	83
3.44100	73
3.44467	65
3.44833	60
3.45200	59
3.45567	61
3.45933	66
3.46300	68
3.46667	70
3.47033	69
3.47400	66
3.47767	62
3.48133	57
3.48500	53
3.48867	55
3.49233	58
3.49600	60
3.49967	59
3.50333	58
3.50700	60
3.51067	62
3.51433	61
3.51800	60
3.52167	59
3.52533	57
3.52900	55
3.53267	54
3.53633	54
3.54000	55
3.54367	55
3.54733	55
3.55100	55
3.55467	59
3.55833	64
3.56200	70
3.56567	72
3.56933	69
3.57300	65
3.57667	60
3.58033	55
3.58400	52
3.58767	52
3.59133	54
3.59500	57
3.59867	57
3.60233	57
3.60600	58
3.60967	60
3.61333	61
3.61700	58
3.62067	54
3.62433	51
3.62800	51
3.63167	53
3.63533	55
3.63900	56
3.64267	54
3.64633	51
3.65000	49
3.65367	50
3.65733	51
3.66100	50
3.66467	48
3.66833	45
3.67200	43
3.67567	43
3.67933	43
3.68300	42
3.68667	42
3.69033	40
3.69400	35
3.69767	35
3.70133	40
3.70500	47
3.70867	51
3.71233	50
3.71600	49
3.71967	47
3.72333	45
3.72700	45
3.73067	48
3.73433	51
3.73800	52
3.74167	52
3.74533	52
3.74900	49
3.75267	46
3.75633	41
3.76000	38
3.76367	39
3.76733	43
3.77100	47
3.77467	50
3.77833	48
3.78200	43
3.78567	37
3.78933	35
3.79300	35
3.79667	38
3.80033	40
3.80400	37
3.80767	36
3.81133	37
3.81500	40
3.81867	47
3.82233	53
3.82600	57
3.82967	58
3.83333	57
3.83700	58
3.84067	60
3.84433	60
3.84800	56
3.85167	48
3.85533	42
3.85900	39
3.86267	36
3.86633	35
3.87000	36
3.87367	38
3.87733	41
3.88100	43
3.88467	45
3.88833	46
3.89200	42
3.89567	35
3.89933	31
3.90300	29
3.90667	28
3.91033	25
3.91400	25
3.91767	25
3.92133	24
3.92500	19
3.92867	11
3.93233	4
3.93600	1
3.93967	-1
3.94333	2
3.94700	7
3.95067	14
3.95433	23
3.95800	32
3.96167	36
3.96533	36
3.96900	36
3.97267	33
3.97633	27
3.98000	23
3.98367	19
3.98733	16
3.99100	16
3.99467	16
3.99833	15

[Chromatogram (Ch2)]
Interval(msec)	220
# of Points	1091
Start Time(min)	0.002
End Time(min)	3.998
R.Time (min)	Intensity
0.00167	1
0.00533	1
0.00900	1
0.01267	1
0.01633	1
0.02000	1
0.02367	1
0.02733	0
0.03100	0
0.03467	-0
0.03833	-0
0.04200	-1
0.04567	-1
0.04933	-1
0.05300	-1
0.05667	-1
0.06033	-1
0.06400	-1
0.06767	-1
0.07133	-1
0.07500	-1
0.07867	-1
0.08233	-1
0.08600	-1
0.08967	-1
0.09333	-0
0.09700	-0
0.10067	-0
0.10433	-0
0.10800	-0
0.11167	-0
0.11533	-0
0.11900	0
0.12267	0
0.12633	1
0.13000	1
0.13367	1
0.13733	1
0.14100	1
0.14467	1
0.14833	1
0.15200	0
0.15567	0
0.15933	0
0.16300	1
0.16667	1
0.17033	1
0.17400	1
0.17767	1
0.18133	1
0.18500	1
0.18867	1
0.19233	1
0.19600	1
0.19967	1
0.20333	0
0.20700	0
0.21067	0
0.21433	-0
0.21800	-0
0.22167	-0
0.22533	-1
0.22900	-1
0.23267	-1
0.23633	-1
0.24000	-1
0.24367	-1
0.24733	-1
0.25100	-0
0.25467	-0
0.25833	0
0.26200	0
0.26567	0
0.26933	0
0.27300	1
0.27667	1
0.28033	1
0.28400	1
0.28767	1
0.29133	1
0.29500	1
0.29867	1
0.30233	1
0.30600	1
0.30967	0
0.31333	0
0.31700	0
0.32067	0
0.32433	0
0.32800	0
0.33167	0
0.33533	0
0.33900	0
0.34267	-0
0.34633	-0
0.35000	-0
0.35367	-0
0.35733	-0
0.36100	-0
0.36467	-0
0.36833	-0
0.37200	0
0.37567	0
0.37933	1
0.38300	1
0.38667	1
0.39033	1
0.39400	1
0.39767	1
0.40133	1
0.40500	1
0.40867	1
0.41233	1
0.41600	1
0.41967	0
0.42333	0
0.42700	0
0.43067	0
0.43433	0
0.43800	0
0.44167	0
0.44533	0
0.44900	0
0.45267	0
0.45633	0
0.46000	0
0.46367	-0
0.46733	-0
0.47100	-1
0.47467	-1
0.47833	-1
0.48200	-0
0.48567	-0
0.48933	-0
0.49300	-0
0.49667	-0
0.50033	-0
0.50400	-0
0.50767	-1
0.51133	-1
0.51500	-1
0.51867	-1
0.52233	-1
0.52600	-1
0.52967	-1
0.53333	-1
0.53700	-1
0.54067	-1
0.54433	-1
0.54800	-1
0.55167	-1
0.55533	-1
0.55900	-1
0.56267	-2
0.56633	-2
0.57000	-2
0.57367	-2
0.57733	-3
0.58100	-3
0.58467	-3
0.58833	-3
0.59200	-2
0.59567	-2
0.59933	-2
0.60300	-2
0.60667	-2
0.61033	-2
0.61400	-2
0.61767	-2
0.62133	-1
0.62500	-1
0.62867	-1
0.63233	-1
0.63600	-1
0.63967	-1
0.64333	-1
0.64700	-1
0.65067	-1
0.65433	-1
0.65800	-1
0.66167	-1
0.66533	-1
0.66900	-1
0.67267	-1
0.67633	-1
0.68000	-1
0.68367	-1
0.68733	-1
0.69100	-1
0.69467	-1
0.69833	-1
0.70200	-1
0.70567	-1
0.70933	-1
0.71300	-1
0.71667	-1
0.72033	-1
0.72400	-0
0.72767	-0
0.73133	-0
0.73500	-0
0.73867	0
0.74233	0
0.74600	0
0.74967	-0
0.75333	-0
0.75700	-0
0.76067	-0
0.76433	-1
0.76800	-1
0.77167	-1
0.77533	-1
0.77900	-1
0.78267	-1
0.78633	-2
0.79000	-2
0.79367	-2
0.79733	-3
0.80100	-3
0.80467	-3
0.80833	-3
0.81200	-3
0.81567	-3
0.81933	-3
0.82300	-3
0.82667	-3
0.83033	-3
0.83400	-3
0.83767	-3
0.84133	-3
0.84500	-3
0.84867	-3
0.85233	-3
0.85600	-2
0.85967	-3
0.86333	-2
0.86700	-2
0.87067	-2
0.87433	-2
0.87800	-2
0.88167	-2
0.88533	-2
0.88900	-2
0.89267	-2
0.89633	-2
0.90000	-2
0.90367	-2
0.90733	-2
0.91100	-2
0.91467	-2
0.91833	-1
0.92200	-1
0.92567	-1
0.92933	-1
0.93300	-1
0.93667	-1
0.94033	-1
0.94400	-1
0.94767	-0
0.95133	-0
0.95500	-0
0.95867	-1
0.96233	-1
0.96600	-2
0.96967	-2
0.97333	-3
0.97700	-3
0.98067	-3
0.98433	-3
0.98800	-3
0.99167	-3
0.99533	-3
0.99900	-3
1.00267	-3
1.00633	-2
1.01000	-2
1.01367	-2
1.01733	-2
1.02100	-2
1.02467	-2
1.02833	-2
1.03200	-2
1.03567	-2
1.03933	-2
1.04300	-2
1.04667	-2
1.05033	-3
1.05400	-3
1.05767	-3
1.06133	-3
1.06500	-3
1.06867	-3
1.07233	-2
1.07600	-2
1.07967	-2
1.08333	-2
1.08700	-2
1.09067	-2
1.09433	-2
1.09800	-2
1.10167	-2
1.10533	-2
1.10900	-1
1.11267	-1
1.11633	-1
1.12000	-1
1.12367	-1
1.12733	-2
1.13100	-2
1.13467	-2
1.13833	-2
1.14200	-2
1.14567	-2
1.14933	-2
1.15300	-2
1.15667	-2
1.16033	-2
1.16400	-2
1.16767	-2
1.17133	-3
1.17500	-3
1.17867	-3
1.18233	-3
1.18600	-3
1.18967	-3
1.19333	-3
1.19700	-3
1.20067	-2
1.20433	-2
1.20800	-2
1.21167	-2
1.21533	-2
1.21900	-2
1.22267	-2
1.22633	-2
1.23000	-2
1.23367	-1
1.23733	-1
1.24100	-2
1.24467	-2
1.24833	-2
1.25200	-2
1.25567	-2
1.25933	-2
1.26300	-2
1.26667	-2
1.27033	-3
1.27400	-3
1.27767	-3
1.28133	-2
1.28500	-2
1.28867	-3
1.29233	-3
1.29600	-3
1.29967	-2
1.30333	-2
1.30700	-2
1.31067	-2
1.31433	-2
1.31800	-2
1.32167	-2
1.32533	-2
1.32900	-2
1.33267	-2
1.33633	-2
1.34000	-2
1.34367	-2
1.34733	-2
1.35100	-2
1.35467	-2
1.35833	-2
1.36200	-1
1.36567	-2
1.36933	-2
1.37300	-2
1.37667	-2
1.38033	-3
1.38400	-3
1.38767	-3
1.39133	-3
1.39500	-3
1.39867	-3
1.40233	-3
1.40600	-3
1.40967	-3
1.41333	-3
1.41700	-3
1.42067	-3
1.42433	-3
1.42800	-3
1.43167	-3
1.43533	-3
1.43900	-3
1.44267	-3
1.44633	-2
1.45000	-2
1.45367	-2
1.45733	-3
1.46100	-3
1.46467	-3
1.46833	-3
1.47200	-3
1.47567	-3
1.47933	-3
1.48300	-2
1.48667	-2
1.49033	-2
1.49400	-2
1.49767	-2
1.50133	-2
1.50500	-2
1.50867	-2
1.51233	-2
1.51600	-2
1.51967	-2
1.52333	-2
1.52700	-3
1.53067	-2
1.53433	-2
1.53800	-2
1.54167	-2
1.54533	-2
1.54900	-2
1.55267	-3
1.55633	-3
1.56000	-3
1.56367	-3
1.56733	-3
1.57100	-3
1.57467	-3
1.57833	-2
1.58200	-2
1.58567	-2
1.58933	-2
1.59300	-3
1.59667	-3
1.60033	-4
1.60400	-5
1.60767	-6
1.61133	-8
1.61500	-10
1.61867	-12
1.62233	-15
1.62600	-18
1.62967	-21
1.63333	-24
1.63700	-27
1.64067	-30
1.64433	-34
1.64800	-37
1.65167	-40
1.65533	-43
1.65900	-47
1.66267	-50
1.66633	-54
1.67000	-58
1.67367	-63
1.67733	-67
1.68100	-71
1.68467	-76
1.68833	-79
1.69200	-83
1.69567	-86
1.69933	-89
1.70300	-91
1.70667	-93
1.71033	-95
1.71400	-96
1.71767	-96
1.72133	-97
1.72500	-97
1.72867	-97
1.73233	-97
1.73600	-96
1.73967	-96
1.74333	-95
1.74700	-94
1.75067	-94
1.75433	-93
1.75800	-94
1.76167	-94
1.76533	-95
1.76900	-96
1.77267	-97
1.77633	-97
1.78000	-98
1.78367	-98
1.78733	-98
1.79100	-99
1.79467	-99
1.79833	-100
1.80200	-101
1.80567	-101
1.80933	-101
1.81300	-101
1.81667	-101
1.82033	-101
1.82400	-100
1.82767	-101
1.83133	-101
1.83500	-101
1.83867	-101
1.84233	-100
1.84600	-100
1.84967	-99
1.85333	-99
1.85700	-98
1.86067	-98
1.86433	-98
1.86800	-98
1.87167	-98
1.87533	-98
1.87900	-98
1.88267	-99
1.88633	-99
1.89000	-99
1.89367	-98
1.89733	-98
1.90100	-98
1.90467	-99
1.90833	-99
1.91200	-99
1.91567	-99
1.91933	-99
1.92300	-99
1.92667	-99
1.93033	-100
1.93400	-100
1.93767	-99
1.94133	-99
1.94500	-98
1.94867	-98
1.95233	-97
1.95600	-97
1.95967	-96
1.96333	-96
1.96700	-96
1.97067	-96
1.97433	-96
1.97800	-95
1.98167	-95
1.98533	-94
1.98900	-93
1.99267	-92
1.99633	-92
2.00000	-92
2.00367	-91
2.00733	-91
2.01100	-91
2.01467	-91
2.01833	-91
2.02200	-92
2.02567	-92
2.02933	-93
2.03300	-93
2.03667	-92
2.04033	-92
2.04400	-92
2.04767	-92
2.05133	-91
2.05500	-91
2.05867	-91
2.06233	-90
2.06600	-90
2.06967	-89
2.07333	-89
2.07700	-88
2.08067	-88
2.08433	-88
2.08800	-87
2.09167	-87
2.09533	-87
2.09900	-86
2.10267	-85
2.10633	-85
2.11000	-84
2.11367	-83
2.11733	-83
2.12100	-83
2.12467	-83
2.12833	-83
2.13200	-83
2.13567	-83
2.13933	-84
2.14300	-83
2.14667	-83
2.15033	-83
2.15400	-82
2.15767	-82
2.16133	-81
2.16500	-81
2.16867	-81
2.17233	-81
2.17600	-80
2.17967	-80
2.18333	-80
2.18700	-80
2.19067	-80
2.19433	-80
2.19800	-79
2.20167	-78
2.20533	-78
2.20900	-77
2.21267	-77
2.21633	-76
2.22000	-76
2.22367	-75
2.22733	-75
2.23100	-75
2.23467	-75
2.23833	-75
2.24200	-75
2.24567	-75
2.24933	-75
2.25300	-75
2.25667	-74
2.26033	-74
2.26400	-73
2.26767	-73
2.27133	-72
2.27500	-72
2.27867	-72
2.28233	-71
2.28600	-71
2.28967	-71
2.29333	-70
2.29700	-70
2.30067	-69
2.30433	-69
2.30800	-69
2.31167	-69
2.31533	-70
2.31900	-69
2.32267	-69
2.32633	-69
2.33000	-69
2.33367	-68
2.33733	-68
2.34100	-67
2.34467	-66
2.34833	-65
2.35200	-64
2.35567	-63
2.35933	-62
2.36300	-60
2.36667	-58
2.37033	-56
2.37400	-54
2.37767	-51
2.38133	-47
2.38500	-44
2.38867	-40
2.39233	-36
2.39600	-32
2.39967	-28
2.40333	-23
2.40700	-19
2.41067	-16
2.41433	-12
2.41800	-9
2.42167	-7
2.42533	-5
2.42900	-3
2.43267	-2
2.43633	-0
2.44000	1
2.44367	2
2.44733	4
2.45100	5
2.45467	6
2.45833	8
2.46200	10
2.46567	11
2.46933	12
2.47300	13
2.47667	13
2.48033	14
2.48400	14
2.48767	14
2.49133	14
2.49500	14
2.49867	14
2.50233	15
2.50600	15
2.50967	16
2.51333	16
2.51700	16
2.52067	16
2.52433	17
2.52800	17
2.53167	17
2.53533	17
2.53900	16
2.54267	16
2.54633	15
2.55000	14
2.55367	14
2.55733	13
2.56100	13
2.56467	13
2.56833	13
2.57200	13
2.57567	13
2.57933	13
2.58300	13
2.58667	14
2.59033	14
2.59400	15
2.59767	15
2.60133	15
2.60500	16
2.60867	16
2.61233	16
2.61600	16
2.61967	16
2.62333	16
2.62700	17
2.63067	17
2.63433	18
2.63800	18
2.64167	19
2.64533	19
2.64900	19
2.65267	20
2.65633	20
2.66000	21
2.66367	21
2.66733	21
2.67100	21
2.67467	21
2.67833	21
2.68200	21
2.68567	21
2.68933	22
2.69300	22
2.69667	22
2.70033	23
2.70400	24
2.70767	25
2.71133	25
2.71500	26
2.71867	27
2.72233	27
2.72600	28
2.72967	28
2.73333	29
2.73700	29
2.74067	29
2.74433	29
2.74800	29
2.75167	28
2.75533	27
2.75900	26
2.76267	26
2.76633	25
2.77000	25
2.77367	25
2.77733	25
2.78100	25
2.78467	25
2.78833	25
2.79200	26
2.79567	26
2.79933	27
2.80300	27
2.80667	27
2.81033	28
2.81400	28
2.81767	28
2.82133	28
2.82500	28
2.82867	28
2.83233	29
2.83600	29
2.83967	29
2.84333	29
2.84700	29
2.85067	28
2.85433	27
2.85800	26
2.86167	22
2.86533	17
2.86900	8
2.87267	-4
2.87633	-21
2.88000	-43
2.88367	-70
2.88733	-102
2.89100	-140
2.89467	-183
2.89833	-231
2.90200	-283
2.90567	-340
2.90933	-399
2.91300	-461
2.91667	-525
2.92033	-590
2.92400	-655
2.92767	-719
2.93133	-781
2.93500	-840
2.93867	-895
2.94233	-949
2.94600	-1005
2.94967	-1057
2.95333	-1098
2.95700	-1119
2.96067	-1115
2.96433	-1086
2.96800	-1036
2.97167	-971
2.97533	-895
2.97900	-814
2.98267	-732
2.98633	-652
2.99000	-576
2.99367	-505
2.99733	-440
3.00100	-381
3.00467	-329
3.00833	-282
3.01200	-241
3.01567	-205
3.01933	-174
3.02300	-147
3.02667	-124
3.03033	-104
3.03400	-87
3.03767	-72
3.04133	-60
3.04500	-49
3.04867	-39
3.05233	-31
3.05600	-24
3.05967	-18
3.06333	-13
3.06700	-9
3.07067	-5
3.07433	-2
3.07800	1
3.08167	4
3.08533	6
3.08900	8
3.09267	9
3.09633	11
3.10000	12
3.10367	13
3.10733	13
3.11100	14
3.11467	15
3.11833	15
3.12200	16
3.12567	16
3.12933	17
3.13300	18
3.13667	18
3.14033	18
3.14400	19
3.14767	19
3.15133	19
3.15500	20
3.15867	20
3.16233	20
3.16600	20
3.16967	21
3.17333	21
3.17700	21
3.18067	21
3.18433	21
3.18800	22
3.19167	22
3.19533	22
3.19900	22
3.20267	22
3.20633	22
3.21000	22
3.21367	22
3.21733	23
3.22100	23
3.22467	23
3.22833	23
3.23200	23
3.23567	23
3.23933	24
3.24300	24
3.24667	24
3.25033	24
3.25400	24
3.25767	24
3.26133	24
3.26500	24
3.26867	24
3.27233	24
3.27600	24
3.27967	25
3.28333	25
3.28700	25
3.29067	25
3.29433	26
3.29800	26
3.30167	26
3.30533	27
3.30900	27
3.31267	28
3.31633	28
3.32000	28
3.32367	29
3.32733	29
3.33100	29
3.33467	29
3.33833	30
3.34200	30
3.34567	30
3.34933	30
3.35300	30
3.35667	31
3.36033	31
3.36400	31
3.36767	31
3.37133	31
3.37500	31
3.37867	31
3.38233	31
3.38600	31
3.38967	31
3.39333	31
3.39700	31
3.40067	31
3.40433	30
3.40800	30
3.41167	30
3.41533	30
3.41900	30
3.42267	30
3.42633	30
3.43000	30
3.43367	30
3.43733	30
3.44100	30
3.44467	30
3.44833	30
3.45200	30
3.45567	30
3.45933	30
3.46300	30
3.46667	30
3.47033	30
3.47400	29
3.47767	29
3.48133	30
3.48500	30
3.48867	30
3.49233	30
3.49600	30
3.49967	29
3.50333	29
3.50700	30
3.51067	30
3.51433	30
3.51800	30
3.52167	29
3.52533	29
3.52900	29
3.53267	29
3.53633	29
3.54000	29
3.54367	29
3.54733	29
3.55100	29
3.55467	29
3.55833	29
3.56200	29
3.56567	29
3.56933	29
3.57300	30
3.57667	30
3.58033	29
3.58400	29
3.58767	29
3.59133	29
3.59500	29
3.59867	29
3.60233	29
3.60600	29
3.60967	29
3.61333	29
3.61700	29
3.62067	29
3.62433	29
3.62800	29
3.63167	29
3.63533	29
3.63900	28
3.64267	28
3.64633	28
3.65000	28
3.65367	27
3.65733	27
3.66100	28
3.66467	28
3.66833	28
3.67200	28
3.67567	29
3.67933	29
3.68300	29
3.68667	29
3.69033	29
3.69400	29
3.69767	29
3.70133	29
3.70500	29
3.70867	29
3.71233	29
3.71600	29
3.71967	29
3.72333	29
3.72700	29
3.73067	29
3.73433	29
3.73800	29
3.74167	29
3.74533	29
3.74900	29
3.75267	29
3.75633	29
3.76000	29
3.76367	29
3.76733	29
3.77100	29
3.77467	29
3.77833	28
3.78200	28
3.78567	28
3.78933	28
3.79300	28
3.79667	28
3.80033	28
3.80400	28
3.80767	28
3.81133	29
3.81500	29
3.81867	29
3.82233	29
3.82600	29
3.82967	29
3.83333	29
3.83700	29
3.84067	29
3.84433	30
3.84800	30
3.85167	30
3.85533	30
3.85900	30
3.86267	30
3.86633	30
3.87000	30
3.87367	30
3.87733	31
3.88100	31
3.88467	31
3.88833	31
3.89200	31
3.89567	31
3.89933	31
3.90300	31
3.90667	31
3.91033	31
3.91400	30
3.91767	30
3.92133	30
3.92500	30
3.92867	29
3.93233	29
3.93600	29
3.93967	29
3.94333	29
3.94700	29
3.95067	29
3.95433	29
3.95800	29
3.96167	29
3.96533	29
3.96900	29
3.97267	29
3.97633	29
3.98000	29
3.98367	29
3.98733	29
3.99100	29
3.99467	29
3.99833	29

[Chromatogram (Ch3)]
Interval(msec)	220
# of Points	1091
Start Time(min)	0.002
End Time(min)	3.998
R.Time (min)	Intensity
0.00167	-1
0.00533	-1
0.00900	1
0.01267	3
0.01633	5
0.02000	5
0.02367	5
0.02733	4
0.03100	3
0.03467	2
0.03833	3
0.04200	3
0.04567	2
0.04933	0
0.05300	-0
0.05667	-3
0.06033	-3
0.06400	-1
0.06767	0
0.07133	1
0.07500	2
0.07867	3
0.08233	4
0.08600	5
0.08967	5
0.09333	5
0.09700	5
0.10067	6
0.10433	4
0.10800	4
0.11167	3
0.11533	3
0.11900	0
0.12267	-1
0.12633	-0
0.13000	-2
0.13367	-4
0.13733	-4
0.14100	-4
0.14467	-4
0.14833	-3
0.15200	-1
0.15567	-0
0.15933	-2
0.16300	-3
0.16667	-5
0.17033	-6
0.17400	-7
0.17767	-6
0.18133	-5
0.18500	-6
0.18867	-6
0.19233	-7
0.19600	-6
0.19967	-4
0.20333	-2
0.20700	-3
0.21067	-2
0.21433	-3
0.21800	-5
0.22167	-5
0.22533	-4
0.22900	-6
0.23267	-5
0.23633	-3
0.24000	-1
0.24367	-1
0.24733	-6
0.25100	-6
0.25467	-5
0.25833	-2
0.26200	2
0.26567	4
0.26933	5
0.27300	4
0.27667	2
0.28033	1
0.28400	-1
0.28767	-1
0.29133	-2
0.29500	-1
0.29867	-1
0.30233	0
0.30600	4
0.30967	7
0.31333	7
0.31700	7
0.32067	4
0.32433	3
0.32800	1
0.33167	2
0.33533	3
0.33900	-0
0.34267	-2
0.34633	-2
0.35000	-1
0.35367	-0
0.35733	1
0.36100	2
0.36467	2
0.36833	-1
0.37200	-2
0.37567	-0
0.37933	3
0.38300	3
0.38667	3
0.39033	1
0.39400	1
0.39767	3
0.40133	3
0.40500	4
0.40867	6
0.41233	7
0.41600	8
0.41967	7
0.42333	5
0.42700	6
0.43067	5
0.43433	6
0.43800	7
0.44167	6
0.44533	5
0.44900	6
0.45267	6
0.45633	8
0.46000	10
0.46367	7
0.46733	4
0.47100	2
0.47467	2
0.47833	2
0.48200	2
0.48567	2
0.48933	0
0.49300	-0
0.49667	1
0.50033	1
0.50400	0
0.50767	-1
0.51133	-2
0.51500	-4
0.51867	-4
0.52233	-1
0.52600	0
0.52967	2
0.53333	3
0.53700	1
0.54067	1
0.54433	3
0.54800	6
0.55167	5
0.55533	2
0.55900	-0
0.56267	-1
0.56633	-2
0.57000	-3
0.57367	-2
0.57733	0
0.58100	1
0.58467	2
0.58833	0
0.59200	-1
0.59567	-4
0.59933	-5
0.60300	-5
0.60667	-4
0.61033	-1
0.61400	-1
0.61767	-0
0.62133	-0
0.62500	0
0.62867	1
0.63233	2
0.63600	4
0.63967	5
0.64333	5
0.64700	3
0.65067	0
0.65433	1
0.65800	1
0.66167	2
0.66533	5
0.66900	2
0.67267	2
0.67633	1
0.68000	1
0.68367	-0
0.68733	-1
0.69100	1
0.69467	2
0.69833	3
0.70200	4
0.70567	2
0.70933	0
0.71300	-0
0.71667	-0
0.72033	2
0.72400	2
0.72767	2
0.73133	-0
0.73500	-1
0.73867	-2
0.74233	-2
0.74600	-0
0.74967	1
0.75333	0
0.75700	-1
0.76067	-2
0.76433	-0
0.76800	-0
0.77167	1
0.77533	1
0.77900	1
0.78267	-0
0.78633	-2
0.79000	-0
0.79367	0
0.79733	-0
0.80100	-1
0.80467	-3
0.80833	-2
0.81200	1
0.81567	2
0.81933	2
0.82300	-1
0.82667	-2
0.83033	-2
0.83400	-2
0.83767	-2
0.84133	-1
0.84500	1
0.84867	1
0.85233	0
0.85600	-1
0.85967	-1
0.86333	-0
0.86700	1
0.87067	4
0.87433	5
0.87800	3
0.88167	2
0.88533	1
0.88900	4
0.89267	7
0.89633	9
0.90000	9
0.90367	7
0.90733	6
0.91100	6
0.91467	6
0.91833	5
0.92200	4
0.92567	5
0.92933	8
0.93300	9
0.93667	8
0.94033	8
0.94400	8
0.94767	8
0.95133	7
0.95500	4
0.95867	4
0.96233	3
0.96600	3
0.96967	6
0.97333	8
0.97700	8
0.98067	10
0.98433	15
0.98800	13
0.99167	11
0.99533	10
0.99900	8
1.00267	6
1.00633	5
1.01000	6
1.01367	8
1.01733	10
1.02100	12
1.02467	12
1.02833	11
1.03200	9
1.03567	7
1.03933	6
1.04300	6
1.04667	4
1.05033	4
1.05400	5
1.05767	5
1.06133	7
1.06500	9
1.06867	8
1.07233	9
1.07600	10
1.07967	9
1.08333	8
1.08700	5
1.09067	3
1.09433	5
1.09800	4
1.10167	5
1.10533	4
1.10900	4
1.11267	5
1.11633	4
1.12000	5
1.12367	6
1.12733	5
1.13100	5
1.13467	7
1.13833	6
1.14200	7
1.14567	8
1.14933	7
1.15300	8
1.15667	6
1.16033	6
1.16400	4
1.16767	4
1.17133	7
1.17500	7
1.17867	9
1.18233	9
1.18600	7
1.18967	7
1.19333	7
1.19700	8
1.20067	9
1.20433	10
1.20800	8
1.21167	7
1.21533	6
1.21900	5
1.22267	5
1.22633	6
1.23000	7
1.23367	7
1.23733	5
1.24100	4
1.24467	3
1.24833	4
1.25200	4
1.25567	4
1.25933	4
1.26300	4
1.26667	6
1.27033	8
1.27400	7
1.27767	9
1.28133	9
1.28500	7
1.28867	7
1.29233	9
1.29600	11
1.29967	14
1.30333	14
1.30700	12
1.31067	12
1.31433	9
1.31800	5
1.32167	3
1.32533	2
1.32900	1
1.33267	2
1.33633	4
1.34000	7
1.34367	7
1.34733	7
1.35100	6
1.35467	2
1.35833	-1
1.36200	1
1.36567	4
1.36933	6
1.37300	7
1.37667	7
1.38033	8
1.38400	7
1.38767	8
1.39133	7
1.39500	6
1.39867	6
1.40233	7
1.40600	10
1.40967	11
1.41333	11
1.41700	12
1.42067	12
1.42433	13
1.42800	13
1.43167	12
1.43533	11
1.43900	11
1.44267	12
1.44633	10
1.45000	9
1.45367	9
1.45733	8
1.46100	10
1.46467	12
1.46833	11
1.47200	12
1.47567	14
1.47933	14
1.48300	14
1.48667	14
1.49033	13
1.49400	12
1.49767	14
1.50133	12
1.50500	9
1.50867	9
1.51233	9
1.51600	11
1.51967	12
1.52333	10
1.52700	12
1.53067	14
1.53433	14
1.53800	11
1.54167	8
1.54533	7
1.54900	9
1.55267	12
1.55633	13
1.56000	16
1.56367	16
1.56733	13
1.57100	10
1.57467	8
1.57833	9
1.58200	11
1.58567	10
1.58933	8
1.59300	8
1.59667	8
1.60033	7
1.60400	5
1.60767	4
1.61133	5
1.61500	6
1.61867	8
1.62233	9
1.62600	10
1.62967	11
1.63333	13
1.63700	13
1.64067	12
1.64433	12
1.64800	12
1.65167	10
1.65533	11
1.65900	11
1.66267	10
1.66633	11
1.67000	14
1.67367	14
1.67733	14
1.68100	13
1.68467	12
1.68833	13
1.69200	13
1.69567	12
1.69933	12
1.70300	11
1.70667	10
1.71033	10
1.71400	9
1.71767	8
1.72133	10
1.72500	14
1.72867	14
1.73233	15
1.73600	17
1.73967	16
1.74333	16
1.74700	16
1.75067	15
1.75433	13
1.75800	15
1.76167	16
1.76533	14
1.76900	16
1.77267	18
1.77633	17
1.78000	17
1.78367	16
1.78733	15
1.79100	15
1.79467	13
1.79833	12
1.80200	13
1.80567	17
1.80933	21
1.81300	21
1.81667	20
1.82033	19
1.82400	17
1.82767	18
1.83133	21
1.83500	25
1.83867	24
1.84233	23
1.84600	24
1.84967	26
1.85333	26
1.85700	25
1.86067	25
1.86433	26
1.86800	26
1.87167	26
1.87533	25
1.87900	25
1.88267	26
1.88633	26
1.89000	25
1.89367	25
1.89733	27
1.90100	28
1.90467	26
1.90833	26
1.91200	28
1.91567	30
1.91933	31
1.92300	30
1.92667	30
1.93033	32
1.93400	33
1.93767	32
1.94133	31
1.94500	31
1.94867	31
1.95233	33
1.95600	33
1.95967	32
1.96333	32
1.96700	33
1.97067	34
1.97433	34
1.97800	34
1.98167	35
1.98533	36
1.98900	38
1.99267	40
1.99633	42
2.00000	42
2.00367	42
2.00733	41
2.01100	41
2.01467	46
2.01833	48
2.02200	50
2.02567	50
2.02933	49
2.03300	48
2.03667	48
2.04033	50
2.04400	51
2.04767	51
2.05133	49
2.05500	49
2.05867	49
2.06233	51
2.06600	53
2.06967	55
2.07333	56
2.07700	58
2.08067	60
2.08433	61
2.08800	60
2.09167	60
2.09533	62
2.09900	63
2.10267	64
2.10633	64
2.11000	63
2.11367	64
2.11733	63
2.12100	62
2.12467	62
2.12833	62
2.13200	63
2.13567	66
2.13933	70
2.14300	73
2.14667	75
2.15033	76
2.15400	77
2.15767	77
2.16133	77
2.16500	75
2.16867	77
2.17233	80
2.17600	82
2.17967	83
2.18333	85
2.18700	86
2.19067	85
2.19433	83
2.19800	81
2.20167	81
2.20533	81
2.20900	84
2.21267	87
2.21633	87
2.22000	87
2.22367	89
2.22733	91
2.23100	91
2.23467	89
2.23833	89
2.24200	91
2.24567	95
2.24933	97
2.25300	95
2.25667	94
2.26033	95
2.26400	98
2.26767	98
2.27133	96
2.27500	96
2.27867	97
2.28233	97
2.28600	95
2.28967	97
2.29333	101
2.29700	103
2.30067	106
2.30433	110
2.30800	112
2.31167	114
2.31533	114
2.31900	112
2.32267	110
2.32633	111
2.33000	113
2.33367	114
2.33733	114
2.34100	112
2.34467	108
2.34833	106
2.35200	108
2.35567	110
2.35933	110
2.36300	109
2.36667	109
2.37033	111
2.37400	114
2.37767	115
2.38133	117
2.38500	117
2.38867	112
2.39233	111
2.39600	115
2.39967	117
2.40333	120
2.40700	124
2.41067	128
2.41433	132
2.41800	134
2.42167	136
2.42533	136
2.42900	137
2.43267	137
2.43633	135
2.44000	137
2.44367	181
2.44733	265
2.45100	341
2.45467	398
2.45833	423
2.46200	417
2.46567	396
2.46933	375
2.47300	361
2.47667	352
2.48033	341
2.48400	322
2.48767	296
2.49133	269
2.49500	247
2.49867	230
2.50233	220
2.50600	215
2.50967	215
2.51333	220
2.51700	228
2.52067	233
2.52433	235
2.52800	233
2.53167	224
2.53533	211
2.53900	196
2.54267	183
2.54633	170
2.55000	156
2.55367	144
2.55733	135
2.56100	127
2.56467	121
2.56833	118
2.57200	116
2.57567	116
2.57933	117
2.58300	119
2.58667	124
2.59033	127
2.59400	132
2.59767	137
2.60133	142
2.60500	149
2.60867	161
2.61233	172
2.61600	179
2.61967	182
2.62333	184
2.62700	182
2.63067	175
2.63433	168
2.63800	160
2.64167	150
2.64533	139
2.64900	130
2.65267	122
2.65633	112
2.66000	101
2.66367	90
2.66733	82
2.67100	75
2.67467	70
2.67833	64
2.68200	58
2.68567	54
2.68933	50
2.69300	46
2.69667	42
2.70033	41
2.70400	41
2.70767	41
2.71133	38
2.71500	34
2.71867	33
2.72233	31
2.72600	28
2.72967	27
2.73333	26
2.73700	25
2.74067	24
2.74433	23
2.74800	23
2.75167	23
2.75533	25
2.75900	26
2.76267	26
2.76633	27
2.77000	27
2.77367	26
2.77733	24
2.78100	25
2.78467	29
2.78833	31
2.79200	33
2.79567	33
2.79933	34
2.80300	37
2.80667	38
2.81033	37
2.81400	38
2.81767	39
2.82133	40
2.82500	41
2.82867	43
2.83233	48
2.83600	56
2.83967	76
2.84333	118
2.84700	197
2.85067	336
2.85433	553
2.85800	852
2.86167	1234
2.86533	1689
2.86900	2186
2.87267	2683
2.87633	3139
2.88000	3515
2.88367	3784
2.88733	3931
2.89100	3955
2.89467	3873
2.89833	3705
2.90200	3469
2.90567	3194
2.90933	2902
2.91300	2607
2.91667	2322
2.92033	2054
2.92400	1806
2.92767	1577
2.93133	1370
2.93500	1185
2.93867	1024
2.94233	882
2.94600	756
2.94967	647
2.95333	553
2.95700	472
2.96067	404
2.96433	342
2.96800	286
2.97167	240
2.97533	203
2.97900	172
2.98267	144
2.98633	119
2.99000	95
2.99367	76
2.99733	60
3.00100	46
3.00467	33
3.00833	24
3.01200	14
3.01567	6
3.01933	0
3.02300	-4
3.02667	-8
3.03033	-14
3.03400	-20
3.03767	-24
3.04133	-26
3.04500	-25
3.04867	-23
3.05233	-23
3.05600	-24
3.05967	-25
3.06333	-24
3.06700	-22
3.07067	-22
3.07433	-22
3.07800	-22
3.08167	-23
3.08533	-24
3.08900	-23
3.09267	-22
3.09633	-21
3.10000	-20
3.10367	-19
3.10733	-19
3.11100	-20
3.11467	-17
3.11833	-15
3.12200	-14
3.12567	-14
3.12933	-13
3.13300	-13
3.13667	-12
3.14033	-8
3.14400	-7
3.14767	-7
3.15133	-8
3.15500	-6
3.15867	-4
3.16233	-0
3.16600	3
3.16967	4
3.17333	7
3.17700	9
3.18067	11
3.18433	15
3.18800	20
3.19167	19
3.19533	18
3.19900	20
3.20267	24
3.20633	30
3.21000	34
3.21367	36
3.21733	38
3.22100	41
3.22467	45
3.22833	48
3.23200	51
3.23567	53
3.23933	40
3.24300	21
3.24667	9
3.25033	17
3.25400	56
3.25767	120
3.26133	200
3.26500	286
3.26867	371
3.27233	451
3.27600	528
3.27967	599
3.28333	664
3.28700	722
3.29067	771
3.29433	815
3.29800	848
3.30167	873
3.30533	892
3.30900	909
3.31267	923
3.31633	936
3.32000	945
3.32367	950
3.32733	951
3.33100	952
3.33467	952
3.33833	951
3.34200	950
3.34567	946
3.34933	941
3.35300	938
3.35667	934
3.36033	931
3.36400	928
3.36767	923
3.37133	919
3.37500	915
3.37867	915
3.38233	914
3.38600	911
3.38967	907
3.39333	902
3.39700	896
3.40067	892
3.40433	890
3.40800	887
3.41167	884
3.41533	881
3.41900	881
3.42267	877
3.42633	872
3.43000	865
3.43367	859
3.43733	854
3.44100	852
3.44467	851
3.44833	849
3.45200	844
3.45567	840
3.45933	835
3.46300	829
3.46667	825
3.47033	823
3.47400	821
3.47767	820
3.48133	819
3.48500	817
3.48867	813
3.49233	807
3.49600	803
3.49967	802
3.50333	800
3.50700	798
3.51067	796
3.51433	794
3.51800	792
3.52167	790
3.52533	789
3.52900	787
3.53267	785
3.53633	783
3.54000	778
3.54367	776
3.54733	773
3.55100	769
3.55467	766
3.55833	764
3.56200	763
3.56567	763
3.56933	763
3.57300	761
3.57667	759
3.58033	756
3.58400	755
3.58767	754
3.59133	753
3.59500	751
3.59867	750
3.60233	749
3.60600	749
3.60967	750
3.61333	748
3.61700	749
3.62067	749
3.62433	748
3.62800	747
3.63167	746
3.63533	746
3.63900	744
3.64267	743
3.64633	741
3.65000	741
3.65367	740
3.65733	736
3.66100	734
3.66467	733
3.66833	734
3.67200	734
3.67567	732
3.67933	730
3.68300	729
3.68667	728
3.69033	725
3.69400	723
3.69767	722
3.70133	720
3.70500	717
3.70867	716
3.71233	715
3.71600	712
3.71967	710
3.72333	710
3.72700	706
3.73067	703
3.73433	699
3.73800	696
3.74167	695
3.74533	693
3.74900	690
3.75267	687
3.75633	683
3.76000	679
3.76367	676
3.76733	674
3.77100	674
3.77467	673
3.77833	673
3.78200	671
3.78567	668
3.78933	665
3.79300	662
3.79667	661
3.80033	661
3.80400	659
3.80767	656
3.81133	655
3.81500	654
3.81867	653
3.82233	651
3.82600	649
3.82967	649
3.83333	647
3.83700	646
3.84067	643
3.84433	641
3.84800	641
3.85167	638
3.85533	637
3.85900	636
3.86267	634
3.86633	632
3.87000	631
3.87367	631
3.87733	628
3.88100	624
3.88467	620
3.88833	616
3.89200	614
3.89567	614
3.89933	614
3.90300	614
3.90667	613
3.91033	611
3.91400	610
3.91767	608
3.92133	606
3.92500	603
3.92867	602
3.93233	601
3.93600	599
3.93967	595
3.94333	594
3.94700	592
3.95067	592
3.95433	590
3.95800	589
3.96167	588
3.96533	587
3.96900	585
3.97267	583
3.97633	584
3.98000	583
3.98367	583
3.98733	583
3.99100	583
3.99467	582
3.99833	579

[Status Trace (Column Oven Temperature)]
Interval(msec)	1000
# of Points	240
Start Time(min)	0.002
End Time(min)	3.985
Intensity Units	
Intensity Multiplier	1
R.Time (min)	Intensity
0.00185	35.06
0.01852	35.05
0.03518	35.05
0.05185	35.04
0.06852	35.05
0.08518	35.05
0.10185	35.06
0.11852	35.06
0.13518	35.05
0.15185	35.06
0.16852	35.05
0.18518	35.04
0.20185	35.04
0.21852	35.04
0.23518	35.03
0.25185	35.03
0.26852	35.01
0.28518	35.01
0.30185	35.01
0.31852	35.01
0.33518	35.01
0.35185	35.00
0.36852	35.00
0.38518	35.01
0.40185	35.00
0.41852	35.01
0.43518	35.01
0.45185	35.01
0.46852	35.00
0.48518	35.00
0.50185	35.00
0.51852	35.00
0.53518	35.00
0.55185	35.00
0.56852	35.01
0.58518	35.00
0.60185	35.00
0.61852	35.01
0.63518	35.01
0.65185	35.01
0.66852	35.00
0.68518	35.00
0.70185	34.99
0.71852	34.99
0.73518	34.98
0.75185	34.98
0.76852	34.98
0.78518	34.98
0.80185	34.99
0.81852	35.00
0.83518	35.00
0.85185	35.00
0.86852	35.00
0.88518	35.00
0.90185	35.00
0.91852	34.99
0.93518	34.99
0.95185	34.99
0.96852	34.99
0.98518	35.00
1.00185	34.99
1.01852	34.99
1.03518	34.99
1.05185	34.99
1.06852	35.00
1.08518	34.99
1.10185	34.99
1.11852	35.00
1.13518	34.99
1.15185	34.99
1.16852	34.99
1.18518	34.99
1.20185	34.99
1.21852	34.98
1.23518	34.98
1.25185	34.99
1.26852	34.99
1.28518	34.99
1.30185	35.00
1.31852	34.99
1.33518	34.99
1.35185	34.99
1.36852	35.00
1.38518	34.99
1.40185	35.00
1.41852	35.00
1.43518	35.00
1.45185	34.99
1.46852	34.99
1.48518	34.99
1.50185	34.99
1.51852	34.99
1.53518	34.99
1.55185	35.00
1.56852	35.00
1.58518	35.00
1.60185	35.03
1.61852	35.13
1.63518	35.28
1.65185	35.51
1.66852	35.80
1.68518	36.17
1.70185	36.54
1.71852	36.88
1.73518	37.19
1.75185	37.51
1.76852	37.85
1.78518	38.18
1.80185	38.52
1.81852	38.85
1.83518	39.19
1.85185	39.52
1.86852	39.84
1.88518	40.17
1.90185	40.50
1.91852	40.83
1.93518	41.16
1.95185	41.47
1.96852	41.82
1.98518	42.15
2.00185	42.47
2.01852	42.80
2.03518	43.13
2.05185	43.45
2.06852	43.78
2.08518	44.13
2.10185	44.43
2.11852	44.75
2.13518	45.10
2.15185	45.41
2.16852	45.74
2.18518	46.07
2.20185	46.40
2.21852	46.72
2.23518	47.06
2.25185	47.38
2.26852	47.71
2.28518	48.04
2.30185	48.37
2.31852	48.70
2.33518	49.04
2.35185	49.33
2.36852	49.56
2.38518	49.66
2.40185	49.67
2.41852	49.66
2.43518	49.68
2.45185	49.69
2.46852	49.68
2.48518	49.71
2.50185	49.72
2.51852	49.74
2.53518	49.74
2.55185	49.76
2.56852	49.76
2.58518	49.78
2.60185	49.81
2.61852	49.82
2.63518	49.82
2.65185	49.83
2.66852	49.85
2.68518	49.87
2.70185	49.87
2.71852	49.86
2.73518	49.84
2.75185	49.86
2.76852	49.89
2.78518	49.91
2.80185	49.91
2.81852	49.91
2.83518	49.91
2.85185	49.91
2.86852	49.93
2.88518	49.94
2.90185	49.95
2.91852	49.95
2.93518	49.96
2.95185	49.96
2.96852	49.97
2.98518	49.98
3.00185	49.98
3.01852	50.00
3.03518	50.01
3.05185	50.03
3.06852	50.04
3.08518	50.04
3.10185	50.05
3.11852	50.06
3.13518	50.06
3.15185	50.06
3.16852	50.06
3.18518	50.07
3.20185	50.08
3.21852	50.09
3.23518	50.09
3.25185	50.10
3.26852	50.11
3.28518	50.12
3.30185	50.11
3.31852	50.09
3.33518	50.08
3.35185	50.07
3.36852	50.06
3.38518	50.05
3.40185	50.04
3.41852	50.03
3.43518	50.02
3.45185	50.02
3.46852	50.01
3.48518	50.01
3.50185	50.01
3.51852	50.01
3.53518	50.00
3.55185	50.01
3.56852	50.01
3.58518	50.02
3.60185	50.02
3.61852	50.02
3.63518	50.03
3.65185	50.03
3.66852	50.03
3.68518	50.03
3.70185	50.04
3.71852	50.04
3.73518	50.05
3.75185	50.05
3.76852	50.06
3.78518	50.07
3.80185	50.07
3.81852	50.07
3.83518	50.07
3.85185	50.07
3.86852	50.05
3.88518	50.06
3.90185	50.05
3.91852	50.05
3.93518	50.06
3.95185	50.05
3.96852	50.05
3.98518	50.05

[Status Trace (Injection Unit Temperature)]
Interval(msec)	1000
# of Points	240
Start Time(min)	0.002
End Time(min)	3.985
Intensity Units	
Intensity Multiplier	1
R.Time (min)	Intensity
0.00185	99.97
0.01852	99.97
0.03518	99.97
0.05185	99.97
0.06852	99.97
0.08518	99.97
0.10185	99.97
0.11852	99.98
0.13518	99.98
0.15185	99.98
0.16852	99.97
0.18518	99.97
0.20185	99.98
0.21852	99.98
0.23518	99.98
0.25185	99.98
0.26852	99.98
0.28518	99.98
0.30185	99.98
0.31852	99.98
0.33518	99.98
0.35185	99.98
0.36852	99.98
0.38518	99.98
0.40185	99.98
0.41852	99.98
0.43518	99.98
0.45185	99.98
0.46852	99.98
0.48518	99.98
0.50185	99.98
0.51852	99.98
0.53518	99.98
0.55185	99.98
0.56852	99.98
0.58518	99.98
0.60185	99.98
0.61852	99.98
0.63518	99.98
0.65185	99.98
0.66852	99.98
0.68518	99.99
0.70185	99.98
0.71852	99.98
0.73518	99.98
0.75185	99.98
0.76852	99.98
0.78518	99.98
0.80185	99.98
0.81852	99.98
0.83518	99.98
0.85185	99.98
0.86852	99.98
0.88518	99.98
0.90185	99.98
0.91852	99.98
0.93518	99.98
0.95185	99.98
0.96852	99.98
0.98518	99.98
1.00185	99.98
1.01852	99.98
1.03518	99.98
1.05185	99.98
1.06852	99.98
1.08518	99.98
1.10185	99.98
1.11852	99.98
1.13518	99.98
1.15185	99.98
1.16852	99.98
1.18518	99.98
1.20185	99.98
1.21852	99.98
1.23518	99.98
1.25185	99.98
1.26852	99.98
1.28518	99.98
1.30185	99.98
1.31852	99.98
1.33518	99.98
1.35185	99.99
1.36852	99.99
1.38518	99.98
1.40185	99.98
1.41852	99.99
1.43518	99.98
1.45185	99.99
1.46852	99.98
1.48518	99.98
1.50185	99.98
1.51852	99.99
1.53518	99.98
1.55185	99.99
1.56852	99.99
1.58518	99.98
1.60185	99.99
1.61852	99.99
1.63518	99.99
1.65185	99.99
1.66852	99.99
1.68518	99.99
1.70185	99.99
1.71852	99.98
1.73518	99.99
1.75185	99.99
1.76852	99.99
1.78518	99.98
1.80185	99.98
1.81852	99.98
1.83518	99.98
1.85185	99.98
1.86852	99.98
1.88518	99.98
1.90185	99.98
1.91852	99.98
1.93518	99.98
1.95185	99.98
1.96852	99.97
1.98518	99.97
2.00185	99.97
2.01852	99.97
2.03518	99.97
2.05185	99.97
2.06852	99.97
2.08518	99.97
2.10185	99.97
2.11852	99.97
2.13518	99.97
2.15185	99.97
2.16852	99.96
2.18518	99.97
2.20185	99.96
2.21852	99.96
2.23518	99.97
2.25185	99.96
2.26852	99.96
2.28518	99.96
2.30185	99.97
2.31852	99.96
2.33518	99.96
2.35185	99.96
2.36852	99.96
2.38518	99.96
2.40185	99.96
2.41852	99.97
2.43518	99.96
2.45185	99.96
2.46852	99.96
2.48518	99.96
2.50185	99.96
2.51852	99.97
2.53518	99.97
2.55185	99.97
2.56852	99.97
2.58518	99.96
2.60185	99.97
2.61852	99.97
2.63518	99.97
2.65185	99.97
2.66852	99.97
2.68518	99.97
2.70185	99.97
2.71852	99.98
2.73518	99.98
2.75185	99.97
2.76852	99.97
2.78518	99.98
2.80185	99.98
2.81852	99.98
2.83518	99.98
2.85185	99.98
2.86852	99.98
2.88518	99.99
2.90185	99.99
2.91852	99.99
2.93518	99.99
2.95185	100.00
2.96852	100.00
2.98518	99.99
3.00185	100.00
3.01852	100.00
3.03518	100.00
3.05185	100.00
3.06852	100.01
3.08518	100.01
3.10185	100.01
3.11852	100.01
3.13518	100.01
3.15185	100.01
3.16852	100.01
3.18518	100.01
3.20185	100.01
3.21852	100.01
3.23518	100.02
3.25185	100.02
3.26852	100.02
3.28518	100.02
3.30185	100.02
3.31852	100.02
3.33518	100.02
3.35185	100.02
3.36852	100.02
3.38518	100.03
3.40185	100.02
3.41852	100.03
3.43518	100.03
3.45185	100.03
3.46852	100.02
3.48518	100.03
3.50185	100.03
3.51852	100.03
3.53518	100.03
3.55185	100.04
3.56852	100.03
3.58518	100.03
3.60185	100.03
3.61852	100.03
3.63518	100.04
3.65185	100.03
3.66852	100.03
3.68518	100.04
3.70185	100.04
3.71852	100.03
3.73518	100.03
3.75185	100.03
3.76852	100.03
3.78518	100.03
3.80185	100.03
3.81852	100.04
3.83518	100.04
3.85185	100.03
3.86852	100.03
3.88518	100.03
3.90185	100.04
3.91852	100.04
3.93518	100.03
3.95185	100.03
3.96852	100.03
3.98518	100.03

[Status Trace (Carrier Gas Pressure)]
Interval(msec)	1000
# of Points	240
Start Time(min)	0.002
End Time(min)	3.985
Intensity Units	
Intensity Multiplier	1
R.Time (min)	Intensity
0.00185	58.00
0.01852	56.76
0.03518	55.98
0.05185	58.20
0.06852	59.92
0.08518	58.47
0.10185	57.97
0.11852	58.00
0.13518	58.01
0.15185	58.01
0.16852	58.00
0.18518	58.00
0.20185	58.00
0.21852	58.00
0.23518	58.00
0.25185	58.00
0.26852	58.00
0.28518	58.00
0.30185	58.00
0.31852	58.00
0.33518	58.00
0.35185	58.00
0.36852	58.00
0.38518	58.00
0.40185	58.00
0.41852	58.00
0.43518	58.00
0.45185	58.00
0.46852	58.00
0.48518	58.00
0.50185	58.00
0.51852	58.00
0.53518	58.00
0.55185	58.00
0.56852	58.00
0.58518	58.00
0.60185	58.00
0.61852	58.00
0.63518	58.00
0.65185	58.00
0.66852	58.00
0.68518	58.00
0.70185	58.00
0.71852	58.00
0.73518	58.00
0.75185	58.00
0.76852	58.00
0.78518	58.00
0.80185	58.00
0.81852	58.00
0.83518	58.00
0.85185	58.00
0.86852	58.00
0.88518	58.00
0.90185	58.00
0.91852	58.00
0.93518	58.00
0.95185	58.00
0.96852	58.00
0.98518	58.00
1.00185	58.00
1.01852	58.00
1.03518	58.00
1.05185	58.00
1.06852	58.00
1.08518	58.00
1.10185	58.00
1.11852	58.00
1.13518	58.00
1.15185	58.00
1.16852	58.00
1.18518	58.00
1.20185	58.00
1.21852	58.00
1.23518	58.00
1.25185	58.00
1.26852	58.00
1.28518	58.00
1.30185	58.00
1.31852	58.00
1.33518	58.00
1.35185	58.00
1.36852	58.00
1.38518	58.00
1.40185	58.00
1.41852	58.00
1.43518	58.00
1.45185	58.00
1.46852	58.00
1.48518	58.00
1.50185	58.00
1.51852	58.00
1.53518	58.00
1.55185	58.00
1.56852	58.00
1.58518	58.00
1.60185	58.00
1.61852	58.00
1.63518	58.00
1.65185	58.00
1.66852	58.01
1.68518	58.01
1.70185	58.00
1.71852	58.00
1.73518	58.00
1.75185	58.00
1.76852	58.00
1.78518	58.00
1.80185	58.00
1.81852	58.00
1.83518	58.00
1.85185	58.00
1.86852	58.00
1.88518	58.00
1.90185	58.00
1.91852	58.00
1.93518	58.00
1.95185	58.00
1.96852	58.00
1.98518	58.00
2.00185	58.00
2.01852	58.00
2.03518	58.00
2.05185	58.00
2.06852	58.00
2.08518	58.00
2.10185	58.00
2.11852	58.00
2.13518	58.00
2.15185	58.00
2.16852	58.00
2.18518	58.00
2.20185	58.00
2.21852	58.00
2.23518	58.00
2.25185	58.00
2.26852	58.00
2.28518	58.00
2.30185	58.00
2.31852	58.00
2.33518	58.00
2.35185	58.00
2.36852	58.00
2.38518	57.99
2.40185	57.99
2.41852	58.00
2.43518	58.00
2.45185	58.00
2.46852	58.00
2.48518	58.00
2.50185	58.00
2.51852	57.99
2.53518	57.99
2.55185	58.00
2.56852	58.00
2.58518	58.00
2.60185	58.00
2.61852	58.00
2.63518	58.00
2.65185	58.00
2.66852	58.00
2.68518	58.00
2.70185	58.00
2.71852	58.00
2.73518	58.00
2.75185	58.00
2.76852	58.00
2.78518	58.00
2.80185	58.00
2.81852	58.00
2.83518	58.00
2.85185	58.00
2.86852	58.00
2.88518	58.00
2.90185	58.00
2.91852	58.00
2.93518	58.00
2.95185	58.00
2.96852	58.00
2.98518	58.00
3.00185	58.00
3.01852	58.00
3.03518	58.00
3.05185	58.00
3.06852	58.00
3.08518	58.00
3.10185	58.00
3.11852	58.00
3.13518	58.00
3.15185	58.00
3.16852	58.00
3.18518	58.00
3.20185	58.00
3.21852	58.00
3.23518	58.00
3.25185	58.00
3.26852	58.00
3.28518	58.00
3.30185	58.00
3.31852	58.00
3.33518	58.00
3.35185	58.00
3.36852	58.00
3.38518	58.00
3.40185	58.00
3.41852	58.00
3.43518	58.00
3.45185	58.00
3.46852	58.00
3.48518	58.00
3.50185	58.00
3.51852	58.00
3.53518	58.00
3.55185	58.00
3.56852	58.00
3.58518	58.00
3.60185	58.00
3.61852	58.00
3.63518	58.00
3.65185	58.00
3.66852	58.00
3.68518	58.00
3.70185	58.00
3.71852	58.00
3.73518	58.00
3.75185	58.00
3.76852	58.00
3.78518	58.00
3.80185	58.00
3.81852	58.00
3.83518	58.00
3.85185	58.00
3.86852	58.00
3.88518	58.00
3.90185	58.00
3.91852	58.00
3.93518	58.00
3.95185	58.00
3.96852	58.00
3.98518	58.00

[Status Trace (Carrier Gas Flow)]
Interval(msec)	1000
# of Points	240
Start Time(min)	0.002
End Time(min)	3.985
Intensity Units	
Intensity Multiplier	1
R.Time (min)	Intensity
0.00185	34.52
0.01852	33.78
0.03518	34.54
0.05185	34.55
0.06852	34.50
0.08518	34.51
0.10185	34.52
0.11852	34.52
0.13518	34.52
0.15185	34.52
0.16852	34.52
0.18518	34.52
0.20185	34.52
0.21852	34.52
0.23518	34.52
0.25185	34.52
0.26852	34.52
0.28518	34.52
0.30185	34.52
0.31852	34.52
0.33518	34.52
0.35185	34.52
0.36852	34.51
0.38518	34.52
0.40185	34.52
0.41852	34.52
0.43518	34.52
0.45185	34.52
0.46852	34.52
0.48518	34.52
0.50185	34.52
0.51852	34.52
0.53518	34.51
0.55185	34.52
0.56852	34.52
0.58518	34.52
0.60185	34.52
0.61852	34.52
0.63518	34.52
0.65185	34.52
0.66852	34.53
0.68518	34.52
0.70185	34.51
0.71852	34.52
0.73518	34.52
0.75185	34.52
0.76852	34.52
0.78518	34.52
0.80185	34.52
0.81852	34.52
0.83518	34.52
0.85185	34.52
0.86852	34.51
0.88518	34.52
0.90185	34.52
0.91852	34.52
0.93518	34.52
0.95185	34.52
0.96852	34.52
0.98518	34.52
1.00185	34.52
1.01852	34.52
1.03518	34.51
1.05185	34.52
1.06852	34.52
1.08518	34.51
1.10185	34.52
1.11852	34.53
1.13518	34.52
1.15185	34.52
1.16852	34.52
1.18518	34.52
1.20185	34.52
1.21852	34.52
1.23518	34.52
1.25185	34.52
1.26852	34.52
1.28518	34.52
1.30185	34.52
1.31852	34.52
1.33518	34.52
1.35185	34.52
1.36852	34.52
1.38518	34.52
1.40185	34.52
1.41852	34.52
1.43518	34.52
1.45185	34.52
1.46852	34.51
1.48518	34.52
1.50185	34.52
1.51852	34.52
1.53518	34.52
1.55185	34.52
1.56852	34.52
1.58518	34.52
1.60185	34.52
1.61852	34.53
1.63518	34.52
1.65185	34.52
1.66852	34.52
1.68518	34.52
1.70185	34.52
1.71852	34.52
1.73518	34.52
1.75185	34.52
1.76852	34.52
1.78518	34.52
1.80185	34.52
1.81852	34.52
1.83518	34.52
1.85185	34.52
1.86852	34.52
1.88518	34.52
1.90185	34.52
1.91852	34.52
1.93518	34.52
1.95185	34.52
1.96852	34.52
1.98518	34.52
2.00185	34.52
2.01852	34.52
2.03518	34.52
2.05185	34.52
2.06852	34.52
2.08518	34.52
2.10185	34.52
2.11852	34.52
2.13518	34.52
2.15185	34.52
2.16852	34.52
2.18518	34.52
2.20185	34.53
2.21852	34.52
2.23518	34.52
2.25185	34.52
2.26852	34.52
2.28518	34.52
2.30185	34.52
2.31852	34.52
2.33518	34.52
2.35185	34.52
2.36852	34.52
2.38518	34.52
2.40185	34.52
2.41852	34.52
2.43518	34.52
2.45185	34.52
2.46852	34.52
2.48518	34.52
2.50185	34.52
2.51852	34.51
2.53518	34.52
2.55185	34.51
2.56852	34.52
2.58518	34.52
2.60185	34.52
2.61852	34.52
2.63518	34.52
2.65185	34.52
2.66852	34.51
2.68518	34.52
2.70185	34.52
2.71852	34.52
2.73518	34.52
2.75185	34.52
2.76852	34.52
2.78518	34.52
2.80185	34.52
2.81852	34.51
2.83518	34.52
2.85185	34.52
2.86852	34.52
2.88518	34.52
2.90185	34.52
2.91852	34.52
2.93518	34.52
2.95185	34.51
2.96852	34.52
2.98518	34.52
3.00185	34.52
3.01852	34.52
3.03518	34.52
3.05185	34.52
3.06852	34.52
3.08518	34.52
3.10185	34.52
3.11852	34.51
3.13518	34.52
3.15185	34.52
3.16852	34.52
3.18518	34.52
3.20185	34.52
3.21852	34.52
3.23518	34.52
3.25185	34.52
3.26852	34.52
3.28518	34.52
3.30185	34.52
3.31852	34.52
3.33518	34.52
3.35185	34.52
3.36852	34.53
3.38518	34.52
3.40185	34.52
3.41852	34.52
3.43518	34.52
3.45185	34.52
3.46852	34.51
3.48518	34.52
3.50185	34.51
3.51852	34.52
3.53518	34.52
3.55185	34.52
3.56852	34.52
3.58518	34.52
3.60185	34.52
3.61852	34.52
3.63518	34.51
3.65185	34.52
3.66852	34.52
3.68518	34.52
3.70185	34.52
3.71852	34.52
3.73518	34.52
3.75185	34.52
3.76852	34.52
3.78518	34.52
3.80185	34.52
3.81852	34.52
3.83518	34.52
3.85185	34.52
3.86852	34.52
3.88518	34.52
3.90185	34.51
3.91852	34.52
3.93518	34.52
3.95185	34.52
3.96852	34.51
3.98518	34.52

[Status Trace (Column Flow)]
Interval(msec)	1000
# of Points	240
Start Time(min)	0.002
End Time(min)	3.985
Intensity Units	
Intensity Multiplier	1
R.Time (min)	Intensity
0.00185	5.51
0.01852	5.37
0.03518	5.28
0.05185	5.54
0.06852	5.74
0.08518	5.57
0.10185	5.51
0.11852	5.51
0.13518	5.51
0.15185	5.51
0.16852	5.51
0.18518	5.51
0.20185	5.51
0.21852	5.51
0.23518	5.51
0.25185	5.51
0.26852	5.51
0.28518	5.51
0.30185	5.51
0.31852	5.51
0.33518	5.51
0.35185	5.51
0.36852	5.51
0.38518	5.51
0.40185	5.51
0.41852	5.51
0.43518	5.51
0.45185	5.51
0.46852	5.51
0.48518	5.51
0.50185	5.51
0.51852	5.51
0.53518	5.51
0.55185	5.51
0.56852	5.51
0.58518	5.51
0.60185	5.51
0.61852	5.51
0.63518	5.51
0.65185	5.51
0.66852	5.51
0.68518	5.51
0.70185	5.51
0.71852	5.51
0.73518	5.52
0.75185	5.52
0.76852	5.52
0.78518	5.52
0.80185	5.51
0.81852	5.51
0.83518	5.51
0.85185	5.51
0.86852	5.51
0.88518	5.51
0.90185	5.51
0.91852	5.51
0.93518	5.51
0.95185	5.51
0.96852	5.51
0.98518	5.51
1.00185	5.51
1.01852	5.51
1.03518	5.51
1.05185	5.51
1.06852	5.51
1.08518	5.51
1.10185	5.51
1.11852	5.51
1.13518	5.51
1.15185	5.51
1.16852	5.51
1.18518	5.51
1.20185	5.51
1.21852	5.52
1.23518	5.51
1.25185	5.51
1.26852	5.51
1.28518	5.51
1.30185	5.51
1.31852	5.51
1.33518	5.51
1.35185	5.51
1.36852	5.51
1.38518	5.51
1.40185	5.51
1.41852	5.51
1.43518	5.51
1.45185	5.51
1.46852	5.51
1.48518	5.51
1.50185	5.51
1.51852	5.51
1.53518	5.51
1.55185	5.51
1.56852	5.51
1.58518	5.51
1.60185	5.51
1.61852	5.51
1.63518	5.51
1.65185	5.50
1.66852	5.49
1.68518	5.48
1.70185	5.47
1.71852	5.46
1.73518	5.45
1.75185	5.44
1.76852	5.43
1.78518	5.42
1.80185	5.41
1.81852	5.40
1.83518	5.39
1.85185	5.38
1.86852	5.37
1.88518	5.36
1.90185	5.35
1.91852	5.34
1.93518	5.33
1.95185	5.32
1.96852	5.31
1.98518	5.30
2.00185	5.29
2.01852	5.28
2.03518	5.27
2.05185	5.26
2.06852	5.25
2.08518	5.24
2.10185	5.23
2.11852	5.22
2.13518	5.21
2.15185	5.20
2.16852	5.19
2.18518	5.18
2.20185	5.17
2.21852	5.16
2.23518	5.15
2.25185	5.15
2.26852	5.14
2.28518	5.13
2.30185	5.12
2.31852	5.11
2.33518	5.10
2.35185	5.09
2.36852	5.08
2.38518	5.08
2.40185	5.08
2.41852	5.08
2.43518	5.08
2.45185	5.08
2.46852	5.08
2.48518	5.08
2.50185	5.08
2.51852	5.08
2.53518	5.08
2.55185	5.08
2.56852	5.08
2.58518	5.08
2.60185	5.08
2.61852	5.08
2.63518	5.08
2.65185	5.08
2.66852	5.08
2.68518	5.08
2.70185	5.08
2.71852	5.08
2.73518	5.08
2.75185	5.08
2.76852	5.07
2.78518	5.07
2.80185	5.07
2.81852	5.07
2.83518	5.07
2.85185	5.07
2.86852	5.07
2.88518	5.07
2.90185	5.07
2.91852	5.07
2.93518	5.07
2.95185	5.07
2.96852	5.07
2.98518	5.07
3.00185	5.07
3.01852	5.07
3.03518	5.07
3.05185	5.07
3.06852	5.07
3.08518	5.07
3.10185	5.07
3.11852	5.07
3.13518	5.07
3.15185	5.07
3.16852	5.07
3.18518	5.07
3.20185	5.07
3.21852	5.07
3.23518	5.07
3.25185	5.07
3.26852	5.07
3.28518	5.07
3.30185	5.07
3.31852	5.07
3.33518	5.07
3.35185	5.07
3.36852	5.07
3.38518	5.07
3.40185	5.07
3.41852	5.07
3.43518	5.07
3.45185	5.07
3.46852	5.07
3.48518	5.07
3.50185	5.07
3.51852	5.07
3.53518	5.07
3.55185	5.07
3.56852	5.07
3.58518	5.07
3.60185	5.07
3.61852	5.07
3.63518	5.07
3.65185	5.07
3.66852	5.07
3.68518	5.07
3.70185	5.07
3.71852	5.07
3.73518	5.07
3.75185	5.07
3.76852	5.07
3.78518	5.07
3.80185	5.07
3.81852	5.07
3.83518	5.07
3.85185	5.07
3.86852	5.07
3.88518	5.07
3.90185	5.07
3.91852	5.07
3.93518	5.07
3.95185	5.07
3.96852	5.07
3.98518	5.07

[Status Trace (Linear Velocity)]
Interval(msec)	1000
# of Points	240
Start Time(min)	0.002
End Time(min)	3.985
Intensity Units	
Intensity Multiplier	1
R.Time (min)	Intensity
0.00185	39.01
0.01852	38.19
0.03518	37.68
0.05185	39.14
0.06852	40.26
0.08518	39.32
0.10185	38.99
0.11852	39.01
0.13518	39.02
0.15185	39.02
0.16852	39.01
0.18518	39.01
0.20185	39.01
0.21852	39.01
0.23518	39.01
0.25185	39.01
0.26852	39.01
0.28518	39.01
0.30185	39.02
0.31852	39.01
0.33518	39.02
0.35185	39.01
0.36852	39.01
0.38518	39.01
0.40185	39.02
0.41852	39.01
0.43518	39.01
0.45185	39.02
0.46852	39.02
0.48518	39.02
0.50185	39.02
0.51852	39.02
0.53518	39.02
0.55185	39.02
0.56852	39.01
0.58518	39.01
0.60185	39.02
0.61852	39.01
0.63518	39.01
0.65185	39.01
0.66852	39.01
0.68518	39.02
0.70185	39.02
0.71852	39.02
0.73518	39.02
0.75185	39.02
0.76852	39.02
0.78518	39.02
0.80185	39.02
0.81852	39.02
0.83518	39.01
0.85185	39.01
0.86852	39.02
0.88518	39.02
0.90185	39.01
0.91852	39.02
0.93518	39.02
0.95185	39.02
0.96852	39.02
0.98518	39.02
1.00185	39.02
1.01852	39.02
1.03518	39.02
1.05185	39.02
1.06852	39.02
1.08518	39.02
1.10185	39.02
1.11852	39.02
1.13518	39.02
1.15185	39.02
1.16852	39.02
1.18518	39.02
1.20185	39.02
1.21852	39.02
1.23518	39.02
1.25185	39.02
1.26852	39.02
1.28518	39.02
1.30185	39.02
1.31852	39.02
1.33518	39.02
1.35185	39.02
1.36852	39.02
1.38518	39.02
1.40185	39.02
1.41852	39.02
1.43518	39.01
1.45185	39.02
1.46852	39.02
1.48518	39.02
1.50185	39.02
1.51852	39.02
1.53518	39.02
1.55185	39.02
1.56852	39.01
1.58518	39.01
1.60185	39.01
1.61852	39.01
1.63518	38.99
1.65185	38.97
1.66852	38.94
1.68518	38.91
1.70185	38.87
1.71852	38.84
1.73518	38.81
1.75185	38.78
1.76852	38.74
1.78518	38.71
1.80185	38.68
1.81852	38.65
1.83518	38.62
1.85185	38.59
1.86852	38.56
1.88518	38.52
1.90185	38.50
1.91852	38.46
1.93518	38.43
1.95185	38.41
1.96852	38.37
1.98518	38.34
2.00185	38.31
2.01852	38.28
2.03518	38.25
2.05185	38.22
2.06852	38.19
2.08518	38.16
2.10185	38.13
2.11852	38.10
2.13518	38.07
2.15185	38.04
2.16852	38.01
2.18518	37.98
2.20185	37.95
2.21852	37.92
2.23518	37.89
2.25185	37.87
2.26852	37.83
2.28518	37.81
2.30185	37.78
2.31852	37.75
2.33518	37.72
2.35185	37.69
2.36852	37.67
2.38518	37.66
2.40185	37.65
2.41852	37.66
2.43518	37.66
2.45185	37.66
2.46852	37.66
2.48518	37.66
2.50185	37.66
2.51852	37.65
2.53518	37.65
2.55185	37.65
2.56852	37.65
2.58518	37.65
2.60185	37.65
2.61852	37.65
2.63518	37.65
2.65185	37.65
2.66852	37.65
2.68518	37.64
2.70185	37.64
2.71852	37.64
2.73518	37.65
2.75185	37.64
2.76852	37.64
2.78518	37.64
2.80185	37.64
2.81852	37.64
2.83518	37.64
2.85185	37.64
2.86852	37.64
2.88518	37.64
2.90185	37.64
2.91852	37.64
2.93518	37.63
2.95185	37.63
2.96852	37.63
2.98518	37.63
3.00185	37.63
3.01852	37.63
3.03518	37.63
3.05185	37.63
3.06852	37.63
3.08518	37.63
3.10185	37.63
3.11852	37.63
3.13518	37.63
3.15185	37.63
3.16852	37.63
3.18518	37.62
3.20185	37.62
3.21852	37.62
3.23518	37.62
3.25185	37.62
3.26852	37.62
3.28518	37.62
3.30185	37.62
3.31852	37.62
3.33518	37.62
3.35185	37.62
3.36852	37.63
3.38518	37.63
3.40185	37.63
3.41852	37.63
3.43518	37.63
3.45185	37.63
3.46852	37.63
3.48518	37.63
3.50185	37.63
3.51852	37.63
3.53518	37.63
3.55185	37.63
3.56852	37.63
3.58518	37.63
3.60185	37.63
3.61852	37.63
3.63518	37.63
3.65185	37.63
3.66852	37.63
3.68518	37.63
3.70185	37.63
3.71852	37.63
3.73518	37.63
3.75185	37.63
3.76852	37.63
3.78518	37.62
3.80185	37.63
3.81852	37.62
3.83518	37.62
3.85185	37.63
3.86852	37.63
3.88518	37.63
3.90185	37.63
3.91852	37.63
3.93518	37.63
3.95185	37.63
3.96852	37.63
3.98518	37.63

