[Header]
Application Name	LabSolutions
Version	5.110
Data File Name	C:\Users\User\Desktop\Junior\UIC Prairie Sampling\2023\8.18.23\081823_080.gcd
Output Date	8/31/2023
Output Time	12:48:12 PM

[File Information]
Type	Data File
Generated	8/31/2023 12:41:44 AM
Generated by	System Administrator
Modified	8/31/2023 12:48:02 AM
Modified by	System Administrator

[Sample Information]
Operator Name	System Administrator
Acquired	8/31/2023 12:44:02 AM
Sample Type	0:Unknown
Level	0
Sample Name	080
Sample ID	080
ISTD Amount1	1
ISTD Amount2	1
ISTD Amount3	1
ISTD Amount4	1
ISTD Amount5	1
ISTD Amount6	1
ISTD Amount7	1
ISTD Amount8	1
ISTD Amount9	1
ISTD Amount10	1
ISTD Amount11	1
ISTD Amount12	1
ISTD Amount13	1
ISTD Amount14	1
ISTD Amount15	1
ISTD Amount16	1
ISTD Amount17	1
ISTD Amount18	1
ISTD Amount19	1
ISTD Amount20	1
ISTD Amount21	1
ISTD Amount22	1
ISTD Amount23	1
ISTD Amount24	1
ISTD Amount25	1
ISTD Amount26	1
ISTD Amount27	1
ISTD Amount28	1
ISTD Amount29	1
ISTD Amount30	1
ISTD Amount31	1
ISTD Amount32	1
Sample Amount	1
Dilution Factor	1
Vial#	79
Injection Volume	1
Injection Count	1
Bar Code	

[Original Files]
Data File	C:\Users\User\Desktop\Junior\UIC Prairie Sampling\8.18.23\081823_080.gcd
Method File	C:\LabSolutions\Data\GHG_4min_2022\ghg3_togas_w_acet_4 min_new_int.gcm
Batch File	C:\LabSolutions\Data\BATCH FILES\081823.gcb
Report Format File	c:\LabSolutions\System\DEFAULT.lsr

[File Description]


[Configuration]
Instrument Name	C0B7VH3-Instrument1
Instrument #	1
Line #	1
# of Detectors	3
Detector ID	DET#1	DET#2	DET#3
Detector Name	FID	PTCD	ECD
# of Channels	1	1	1

[Peak Table(Ch1)]
# of Peaks	3
Peak#	R.Time	I.Time	F.Time	Area	Height	A/H	Conc.	Mark	ID#	Name	k'	Plate #	Plate Ht.	Tailing	Resolution	Sep.Factor	Area Ratio	Height Ratio	Conc. %	Norm Conc.
1	1.494	1.468	1.527	1016	365	2.784	0.000	   	1	CO	0.000	947	158.405	0.000	0.000	0.000	0	0	0.000	0.000
2	1.564	1.527	1.714	6180	2474	2.498	30.128	 V 	2	CH4	0.047	9516	15.762	0.000	0.539	0.000	0	0	15.841	15.841
3	1.989	1.945	2.590	830572	394107	2.107	160.067	   	3	CO2	0.331	17534	8.555	1.322	6.849	7.105	0	0	84.159	84.159

[Peak Table(Ch2)]
# of Peaks	0

[Peak Table(Ch3)]
# of Peaks	5
Peak#	R.Time	I.Time	F.Time	Area	Height	A/H	Conc.	Mark	ID#	Name	k'	Plate #	Plate Ht.	Tailing	Resolution	Sep.Factor	Area Ratio	Height Ratio	Conc. %	Norm Conc.
1	2.458	2.440	2.510	805	303	2.657	0.000	   			0.000	13715	10.937	0.000	0.000	0.000	0	0	0.000	0.000
2	2.524	2.510	2.572	329	131	2.504	0.000	 V 			0.027	5368	27.944	0.000	0.595	0.000	0	0	0.000	0.000
3	2.627	2.572	2.704	424	109	3.897	0.000	 V 			0.069	8818	17.010	0.000	0.822	2.556	0	0	0.000	0.000
4	2.891	2.785	3.034	14579	4000	3.645	0.216	   	1	N2O	0.176	13891	10.798	1.477	2.514	2.565	0	0	100.000	100.000
5	3.166	3.093	3.936	22840	912	25.057	0.000	   	2	SF6	0.288	313	478.548	5.852	0.676	1.636	0	0	0.000	0.000

[Compound Results(Ch1)]
# of IDs	6
ID#	Name	R.Time	Area	Height	Conc.	Curve	3rd	2nd	1st	Constant	Area Ratio	Height Ratio	Conc. %	Norm Conc.
1	CO	1.494	1016	365	0.000	Linear	0.000000e+00	0.000000e+00	0.000000e+00	0.000000e+00	0	0	0.000	0.000
2	CH4	1.564	6180	2474	30.128	Linear	0.000000e+00	0.000000e+00	2.051179e+002	0.000000e+00	0	0	15.841	15.841
3	CO2	1.989	830572	394107	160.067	Linear	0.000000e+00	0.000000e+00	5.188919e+003	0.000000e+00	0	0	84.159	84.159
4	Ethylene	0.000	0	0	0.000	Linear	0.000000e+00	0.000000e+00	0.000000e+00	0.000000e+00	0	0	0.000	0.000
5	Acetylene	0.000	0	0	0.000	Linear	0.000000e+00	0.000000e+00	0.000000e+00	0.000000e+00	0	0	0.000	0.000
6	Ethane	0.000	0	0	0.000	Linear	0.000000e+00	0.000000e+00	0.000000e+00	0.000000e+00	0	0	0.000	0.000

[Compound Results(Ch2)]
# of IDs	5
ID#	Name	R.Time	Area	Height	Conc.	Curve	3rd	2nd	1st	Constant	Area Ratio	Height Ratio	Conc. %	Norm Conc.
1	Hydrogen	0.000	0	0	0.000	Linear	0.000000e+00	0.000000e+00	0.000000e+00	0.000000e+00	0	0	0.000	0.000
2	Oxygen	0.000	0	0	0.000	Linear	0.000000e+00	0.000000e+00	0.000000e+00	0.000000e+00	0	0	0.000	0.000
3	Nitrogen	0.000	0	0	0.000	Linear	0.000000e+00	0.000000e+00	0.000000e+00	0.000000e+00	0	0	0.000	0.000
4	Methane	0.000	0	0	0.000	Linear	0.000000e+00	0.000000e+00	0.000000e+00	0.000000e+00	0	0	0.000	0.000
5	Carbon Monoxide	0.000	0	0	0.000	Linear	0.000000e+00	0.000000e+00	0.000000e+00	0.000000e+00	0	0	0.000	0.000

[Compound Results(Ch3)]
# of IDs	2
ID#	Name	R.Time	Area	Height	Conc.	Curve	3rd	2nd	1st	Constant	Area Ratio	Height Ratio	Conc. %	Norm Conc.
1	N2O	2.891	14579	4000	0.216	Linear	0.000000e+00	0.000000e+00	6.759880e+004	0.000000e+00	0	0	100.000	100.000
2	SF6	3.166	22840	912	0.000	Linear	0.000000e+00	0.000000e+00	0.000000e+00	0.000000e+00	0	0	0.000	0.000

[Group Results(Ch1)]
# of Groups	0

[Group Results(Ch2)]
# of Groups	0

[Group Results(Ch3)]
# of Groups	0

[Chromatogram (Ch1)]
Interval(msec)	220
# of Points	1091
Start Time(min)	0.002
End Time(min)	3.998
R.Time (min)	Intensity
0.00167	-3
0.00533	-4
0.00900	-6
0.01267	-9
0.01633	-13
0.02000	-16
0.02367	-15
0.02733	-12
0.03100	-10
0.03467	-4
0.03833	3
0.04200	5
0.04567	5
0.04933	3
0.05300	1
0.05667	-3
0.06033	-5
0.06400	0
0.06767	7
0.07133	12
0.07500	16
0.07867	16
0.08233	16
0.08600	16
0.08967	16
0.09333	17
0.09700	20
0.10067	24
0.10433	27
0.10800	30
0.11167	31
0.11533	28
0.11900	26
0.12267	25
0.12633	25
0.13000	25
0.13367	23
0.13733	17
0.14100	7
0.14467	-6
0.14833	-18
0.15200	-25
0.15567	-27
0.15933	-22
0.16300	-14
0.16667	-8
0.17033	-8
0.17400	-7
0.17767	-3
0.18133	4
0.18500	9
0.18867	5
0.19233	-1
0.19600	-5
0.19967	-6
0.20333	-6
0.20700	-4
0.21067	1
0.21433	7
0.21800	11
0.22167	11
0.22533	7
0.22900	6
0.23267	7
0.23633	12
0.24000	17
0.24367	20
0.24733	21
0.25100	19
0.25467	14
0.25833	7
0.26200	-2
0.26567	-9
0.26933	-15
0.27300	-18
0.27667	-19
0.28033	-17
0.28400	-13
0.28767	-9
0.29133	-9
0.29500	-13
0.29867	-17
0.30233	-15
0.30600	-9
0.30967	-5
0.31333	-6
0.31700	-9
0.32067	-12
0.32433	-15
0.32800	-14
0.33167	-10
0.33533	-6
0.33900	-5
0.34267	-9
0.34633	-16
0.35000	-23
0.35367	-28
0.35733	-30
0.36100	-28
0.36467	-22
0.36833	-14
0.37200	-8
0.37567	-8
0.37933	-8
0.38300	-9
0.38667	-8
0.39033	-9
0.39400	-15
0.39767	-23
0.40133	-28
0.40500	-30
0.40867	-27
0.41233	-18
0.41600	-11
0.41967	-7
0.42333	-3
0.42700	-1
0.43067	-3
0.43433	-9
0.43800	-15
0.44167	-22
0.44533	-27
0.44900	-30
0.45267	-32
0.45633	-30
0.46000	-27
0.46367	-26
0.46733	-25
0.47100	-23
0.47467	-24
0.47833	-25
0.48200	-24
0.48567	-24
0.48933	-24
0.49300	-24
0.49667	-23
0.50033	-21
0.50400	-20
0.50767	-19
0.51133	-15
0.51500	-10
0.51867	-8
0.52233	-9
0.52600	-8
0.52967	-7
0.53333	-7
0.53700	-7
0.54067	-3
0.54433	2
0.54800	7
0.55167	11
0.55533	13
0.55900	18
0.56267	25
0.56633	31
0.57000	35
0.57367	38
0.57733	42
0.58100	48
0.58467	53
0.58833	54
0.59200	53
0.59567	51
0.59933	46
0.60300	43
0.60667	45
0.61033	52
0.61400	60
0.61767	67
0.62133	73
0.62500	77
0.62867	77
0.63233	74
0.63600	68
0.63967	63
0.64333	59
0.64700	54
0.65067	49
0.65433	47
0.65800	46
0.66167	47
0.66533	48
0.66900	45
0.67267	39
0.67633	34
0.68000	33
0.68367	32
0.68733	26
0.69100	17
0.69467	8
0.69833	4
0.70200	7
0.70567	15
0.70933	23
0.71300	25
0.71667	24
0.72033	22
0.72400	20
0.72767	15
0.73133	10
0.73500	1
0.73867	-6
0.74233	-10
0.74600	-10
0.74967	-13
0.75333	-18
0.75700	-23
0.76067	-22
0.76433	-17
0.76800	-11
0.77167	-6
0.77533	-2
0.77900	-1
0.78267	-1
0.78633	-1
0.79000	2
0.79367	6
0.79733	10
0.80100	9
0.80467	5
0.80833	1
0.81200	-2
0.81567	-3
0.81933	-7
0.82300	-14
0.82667	-20
0.83033	-17
0.83400	-7
0.83767	2
0.84133	8
0.84500	7
0.84867	-1
0.85233	-16
0.85600	-29
0.85967	-37
0.86333	-39
0.86700	-38
0.87067	-36
0.87433	-33
0.87800	-34
0.88167	-36
0.88533	-34
0.88900	-27
0.89267	-21
0.89633	-15
0.90000	-12
0.90367	-12
0.90733	-13
0.91100	-13
0.91467	-8
0.91833	-5
0.92200	-4
0.92567	-4
0.92933	-4
0.93300	-1
0.93667	2
0.94033	3
0.94400	0
0.94767	-1
0.95133	1
0.95500	4
0.95867	7
0.96233	7
0.96600	5
0.96967	1
0.97333	1
0.97700	6
0.98067	11
0.98433	13
0.98800	12
0.99167	6
0.99533	0
0.99900	-4
1.00267	-6
1.00633	-4
1.01000	-0
1.01367	1
1.01733	-3
1.02100	-15
1.02467	-27
1.02833	-34
1.03200	-36
1.03567	-35
1.03933	-30
1.04300	-22
1.04667	-12
1.05033	-5
1.05400	-1
1.05767	-1
1.06133	-6
1.06500	-11
1.06867	-17
1.07233	-23
1.07600	-27
1.07967	-30
1.08333	-29
1.08700	-25
1.09067	-21
1.09433	-18
1.09800	-16
1.10167	-8
1.10533	-1
1.10900	0
1.11267	-5
1.11633	-12
1.12000	-15
1.12367	-14
1.12733	-11
1.13100	-8
1.13467	-5
1.13833	-4
1.14200	-5
1.14567	-7
1.14933	-11
1.15300	-17
1.15667	-23
1.16033	-26
1.16400	-28
1.16767	-31
1.17133	-33
1.17500	-33
1.17867	-30
1.18233	-27
1.18600	-24
1.18967	-23
1.19333	-22
1.19700	-23
1.20067	-24
1.20433	-27
1.20800	-29
1.21167	-33
1.21533	-39
1.21900	-43
1.22267	-42
1.22633	-37
1.23000	-27
1.23367	-12
1.23733	-0
1.24100	3
1.24467	-5
1.24833	-19
1.25200	-33
1.25567	-46
1.25933	-58
1.26300	-62
1.26667	-60
1.27033	-59
1.27400	-59
1.27767	-58
1.28133	-54
1.28500	-48
1.28867	-43
1.29233	-41
1.29600	-41
1.29967	-37
1.30333	-31
1.30700	-26
1.31067	-26
1.31433	-28
1.31800	-30
1.32167	-31
1.32533	-29
1.32900	-27
1.33267	-22
1.33633	-13
1.34000	-4
1.34367	-4
1.34733	-11
1.35100	-19
1.35467	-22
1.35833	-25
1.36200	-30
1.36567	-33
1.36933	-37
1.37300	-43
1.37667	-48
1.38033	-51
1.38400	-53
1.38767	-57
1.39133	-61
1.39500	-63
1.39867	-62
1.40233	-63
1.40600	-64
1.40967	-63
1.41333	-57
1.41700	-48
1.42067	-42
1.42433	-40
1.42800	-42
1.43167	-43
1.43533	-37
1.43900	-34
1.44267	-66
1.44633	-150
1.45000	-255
1.45367	-352
1.45733	-425
1.46100	-466
1.46467	-470
1.46833	-430
1.47200	-354
1.47567	-260
1.47933	-171
1.48300	-104
1.48667	-63
1.49033	-39
1.49400	-27
1.49767	-26
1.50133	-31
1.50500	-37
1.50867	-41
1.51233	-40
1.51600	-40
1.51967	-43
1.52333	-48
1.52700	-48
1.53067	-38
1.53433	6
1.53800	138
1.54167	412
1.54533	812
1.54900	1254
1.55267	1655
1.55633	1960
1.56000	2147
1.56367	2186
1.56733	2059
1.57100	1781
1.57467	1421
1.57833	1057
1.58200	745
1.58567	504
1.58933	331
1.59300	206
1.59667	118
1.60033	59
1.60400	20
1.60767	-4
1.61133	-18
1.61500	-25
1.61867	-28
1.62233	-27
1.62600	-23
1.62967	-21
1.63333	-21
1.63700	-24
1.64067	-24
1.64433	-22
1.64800	-22
1.65167	-24
1.65533	-27
1.65900	-29
1.66267	-29
1.66633	-27
1.67000	-27
1.67367	-31
1.67733	-36
1.68100	-40
1.68467	-44
1.68833	-50
1.69200	-59
1.69567	-65
1.69933	-66
1.70300	-62
1.70667	-61
1.71033	-62
1.71400	-62
1.71767	-61
1.72133	-60
1.72500	-61
1.72867	-57
1.73233	-52
1.73600	-47
1.73967	-45
1.74333	-40
1.74700	-36
1.75067	-34
1.75433	-34
1.75800	-37
1.76167	-39
1.76533	-40
1.76900	-39
1.77267	-43
1.77633	-48
1.78000	-49
1.78367	-49
1.78733	-50
1.79100	-49
1.79467	-42
1.79833	-35
1.80200	-32
1.80567	-32
1.80933	-31
1.81300	-33
1.81667	-40
1.82033	-46
1.82400	-53
1.82767	-56
1.83133	-53
1.83500	-44
1.83867	-36
1.84233	-36
1.84600	-41
1.84967	-49
1.85333	-54
1.85700	-55
1.86067	-54
1.86433	-54
1.86800	-55
1.87167	-57
1.87533	-58
1.87900	-59
1.88267	-62
1.88633	-64
1.89000	-64
1.89367	-61
1.89733	-58
1.90100	-52
1.90467	-44
1.90833	-40
1.91200	-40
1.91567	-43
1.91933	-47
1.92300	-50
1.92667	-47
1.93033	-42
1.93400	-37
1.93767	-35
1.94133	-35
1.94500	-28
1.94867	27
1.95233	361
1.95600	1929
1.95967	7485
1.96333	22434
1.96700	53661
1.97067	105237
1.97433	173918
1.97800	249189
1.98167	317963
1.98533	368886
1.98900	394094
1.99267	390173
1.99633	359144
2.00000	308660
2.00367	249455
2.00733	191464
2.01100	141191
2.01467	101252
2.01833	71436
2.02200	50121
2.02567	35320
2.02933	25216
2.03300	18376
2.03667	13746
2.04033	10594
2.04400	8422
2.04767	6898
2.05133	5803
2.05500	4996
2.05867	4382
2.06233	3903
2.06600	3522
2.06967	3213
2.07333	2959
2.07700	2745
2.08067	2558
2.08433	2392
2.08800	2245
2.09167	2117
2.09533	2006
2.09900	1905
2.10267	1810
2.10633	1726
2.11000	1651
2.11367	1585
2.11733	1526
2.12100	1474
2.12467	1422
2.12833	1368
2.13200	1312
2.13567	1258
2.13933	1206
2.14300	1154
2.14667	1105
2.15033	1067
2.15400	1037
2.15767	1009
2.16133	983
2.16500	957
2.16867	930
2.17233	899
2.17600	869
2.17967	841
2.18333	817
2.18700	797
2.19067	783
2.19433	771
2.19800	756
2.20167	741
2.20533	726
2.20900	712
2.21267	699
2.21633	685
2.22000	668
2.22367	651
2.22733	636
2.23100	621
2.23467	607
2.23833	593
2.24200	580
2.24567	569
2.24933	559
2.25300	550
2.25667	540
2.26033	530
2.26400	520
2.26767	507
2.27133	497
2.27500	488
2.27867	479
2.28233	467
2.28600	454
2.28967	444
2.29333	440
2.29700	439
2.30067	439
2.30433	438
2.30800	431
2.31167	419
2.31533	409
2.31900	403
2.32267	399
2.32633	394
2.33000	388
2.33367	378
2.33733	367
2.34100	362
2.34467	358
2.34833	354
2.35200	352
2.35567	348
2.35933	342
2.36300	338
2.36667	337
2.37033	340
2.37400	343
2.37767	344
2.38133	339
2.38500	331
2.38867	321
2.39233	313
2.39600	308
2.39967	309
2.40333	311
2.40700	311
2.41067	310
2.41433	308
2.41800	307
2.42167	307
2.42533	304
2.42900	299
2.43267	293
2.43633	288
2.44000	283
2.44367	278
2.44733	275
2.45100	274
2.45467	274
2.45833	275
2.46200	277
2.46567	273
2.46933	267
2.47300	261
2.47667	256
2.48033	252
2.48400	251
2.48767	250
2.49133	251
2.49500	252
2.49867	254
2.50233	256
2.50600	256
2.50967	254
2.51333	250
2.51700	247
2.52067	244
2.52433	241
2.52800	238
2.53167	236
2.53533	235
2.53900	233
2.54267	228
2.54633	221
2.55000	218
2.55367	216
2.55733	217
2.56100	219
2.56467	222
2.56833	226
2.57200	228
2.57567	226
2.57933	223
2.58300	218
2.58667	214
2.59033	210
2.59400	208
2.59767	207
2.60133	206
2.60500	206
2.60867	207
2.61233	209
2.61600	209
2.61967	208
2.62333	207
2.62700	208
2.63067	210
2.63433	212
2.63800	212
2.64167	209
2.64533	206
2.64900	204
2.65267	203
2.65633	202
2.66000	199
2.66367	197
2.66733	198
2.67100	198
2.67467	200
2.67833	202
2.68200	206
2.68567	211
2.68933	213
2.69300	211
2.69667	208
2.70033	205
2.70400	203
2.70767	202
2.71133	204
2.71500	208
2.71867	211
2.72233	212
2.72600	213
2.72967	216
2.73333	221
2.73700	222
2.74067	218
2.74433	213
2.74800	206
2.75167	200
2.75533	199
2.75900	198
2.76267	198
2.76633	195
2.77000	193
2.77367	192
2.77733	192
2.78100	193
2.78467	194
2.78833	193
2.79200	193
2.79567	196
2.79933	198
2.80300	200
2.80667	202
2.81033	203
2.81400	203
2.81767	203
2.82133	206
2.82500	209
2.82867	212
2.83233	213
2.83600	211
2.83967	208
2.84333	208
2.84700	211
2.85067	215
2.85433	218
2.85800	216
2.86167	211
2.86533	206
2.86900	205
2.87267	205
2.87633	205
2.88000	206
2.88367	207
2.88733	207
2.89100	204
2.89467	201
2.89833	201
2.90200	203
2.90567	205
2.90933	203
2.91300	198
2.91667	196
2.92033	197
2.92400	199
2.92767	201
2.93133	204
2.93500	207
2.93867	210
2.94233	211
2.94600	211
2.94967	213
2.95333	215
2.95700	219
2.96067	223
2.96433	227
2.96800	232
2.97167	233
2.97533	229
2.97900	222
2.98267	214
2.98633	207
2.99000	202
2.99367	200
2.99733	204
3.00100	207
3.00467	207
3.00833	208
3.01200	212
3.01567	217
3.01933	223
3.02300	229
3.02667	234
3.03033	239
3.03400	244
3.03767	249
3.04133	250
3.04500	246
3.04867	243
3.05233	237
3.05600	230
3.05967	224
3.06333	221
3.06700	220
3.07067	218
3.07433	214
3.07800	211
3.08167	209
3.08533	209
3.08900	210
3.09267	213
3.09633	219
3.10000	222
3.10367	220
3.10733	218
3.11100	216
3.11467	217
3.11833	220
3.12200	221
3.12567	222
3.12933	225
3.13300	228
3.13667	232
3.14033	232
3.14400	230
3.14767	227
3.15133	226
3.15500	226
3.15867	229
3.16233	230
3.16600	228
3.16967	226
3.17333	225
3.17700	225
3.18067	224
3.18433	221
3.18800	221
3.19167	224
3.19533	227
3.19900	232
3.20267	240
3.20633	246
3.21000	248
3.21367	246
3.21733	240
3.22100	235
3.22467	233
3.22833	233
3.23200	233
3.23567	234
3.23933	234
3.24300	233
3.24667	231
3.25033	230
3.25400	230
3.25767	229
3.26133	225
3.26500	222
3.26867	221
3.27233	223
3.27600	227
3.27967	230
3.28333	231
3.28700	229
3.29067	229
3.29433	229
3.29800	228
3.30167	225
3.30533	219
3.30900	214
3.31267	209
3.31633	209
3.32000	213
3.32367	219
3.32733	221
3.33100	220
3.33467	223
3.33833	227
3.34200	227
3.34567	224
3.34933	221
3.35300	222
3.35667	225
3.36033	228
3.36400	231
3.36767	231
3.37133	231
3.37500	232
3.37867	232
3.38233	231
3.38600	229
3.38967	226
3.39333	224
3.39700	222
3.40067	223
3.40433	223
3.40800	220
3.41167	221
3.41533	226
3.41900	230
3.42267	232
3.42633	234
3.43000	237
3.43367	239
3.43733	235
3.44100	228
3.44467	224
3.44833	221
3.45200	217
3.45567	212
3.45933	209
3.46300	209
3.46667	207
3.47033	206
3.47400	206
3.47767	205
3.48133	203
3.48500	204
3.48867	208
3.49233	212
3.49600	218
3.49967	225
3.50333	229
3.50700	227
3.51067	223
3.51433	218
3.51800	214
3.52167	212
3.52533	212
3.52900	213
3.53267	215
3.53633	216
3.54000	218
3.54367	219
3.54733	219
3.55100	220
3.55467	222
3.55833	223
3.56200	222
3.56567	220
3.56933	214
3.57300	209
3.57667	208
3.58033	208
3.58400	203
3.58767	199
3.59133	197
3.59500	200
3.59867	206
3.60233	211
3.60600	215
3.60967	219
3.61333	224
3.61700	230
3.62067	232
3.62433	227
3.62800	220
3.63167	213
3.63533	209
3.63900	210
3.64267	212
3.64633	217
3.65000	219
3.65367	219
3.65733	217
3.66100	216
3.66467	216
3.66833	216
3.67200	214
3.67567	211
3.67933	209
3.68300	209
3.68667	210
3.69033	211
3.69400	212
3.69767	212
3.70133	212
3.70500	213
3.70867	213
3.71233	211
3.71600	207
3.71967	207
3.72333	210
3.72700	211
3.73067	210
3.73433	208
3.73800	205
3.74167	203
3.74533	200
3.74900	198
3.75267	199
3.75633	202
3.76000	205
3.76367	208
3.76733	209
3.77100	208
3.77467	205
3.77833	200
3.78200	197
3.78567	197
3.78933	196
3.79300	194
3.79667	189
3.80033	189
3.80400	190
3.80767	189
3.81133	188
3.81500	190
3.81867	195
3.82233	199
3.82600	201
3.82967	201
3.83333	200
3.83700	200
3.84067	199
3.84433	198
3.84800	199
3.85167	199
3.85533	200
3.85900	201
3.86267	200
3.86633	198
3.87000	197
3.87367	197
3.87733	197
3.88100	195
3.88467	193
3.88833	193
3.89200	191
3.89567	186
3.89933	181
3.90300	180
3.90667	183
3.91033	185
3.91400	187
3.91767	189
3.92133	191
3.92500	194
3.92867	199
3.93233	202
3.93600	199
3.93967	191
3.94333	183
3.94700	180
3.95067	184
3.95433	190
3.95800	195
3.96167	197
3.96533	196
3.96900	191
3.97267	185
3.97633	182
3.98000	180
3.98367	177
3.98733	175
3.99100	172
3.99467	173
3.99833	179

[Chromatogram (Ch2)]
Interval(msec)	220
# of Points	1091
Start Time(min)	0.002
End Time(min)	3.998
R.Time (min)	Intensity
0.00167	-0
0.00533	0
0.00900	0
0.01267	0
0.01633	0
0.02000	1
0.02367	1
0.02733	1
0.03100	1
0.03467	1
0.03833	1
0.04200	1
0.04567	1
0.04933	1
0.05300	1
0.05667	1
0.06033	1
0.06400	1
0.06767	1
0.07133	1
0.07500	1
0.07867	1
0.08233	1
0.08600	1
0.08967	1
0.09333	1
0.09700	2
0.10067	2
0.10433	2
0.10800	3
0.11167	3
0.11533	3
0.11900	3
0.12267	3
0.12633	3
0.13000	3
0.13367	2
0.13733	2
0.14100	2
0.14467	2
0.14833	2
0.15200	2
0.15567	2
0.15933	2
0.16300	2
0.16667	2
0.17033	1
0.17400	1
0.17767	1
0.18133	1
0.18500	0
0.18867	0
0.19233	0
0.19600	-0
0.19967	-0
0.20333	-1
0.20700	-1
0.21067	-1
0.21433	-1
0.21800	-1
0.22167	-1
0.22533	-1
0.22900	-1
0.23267	-1
0.23633	-1
0.24000	-1
0.24367	-1
0.24733	-1
0.25100	-0
0.25467	-0
0.25833	0
0.26200	0
0.26567	0
0.26933	0
0.27300	0
0.27667	0
0.28033	0
0.28400	0
0.28767	0
0.29133	0
0.29500	0
0.29867	0
0.30233	-0
0.30600	-0
0.30967	-0
0.31333	-0
0.31700	-0
0.32067	0
0.32433	0
0.32800	0
0.33167	0
0.33533	0
0.33900	0
0.34267	-0
0.34633	0
0.35000	0
0.35367	0
0.35733	-0
0.36100	-0
0.36467	-0
0.36833	-0
0.37200	-0
0.37567	0
0.37933	0
0.38300	0
0.38667	1
0.39033	1
0.39400	1
0.39767	1
0.40133	1
0.40500	1
0.40867	0
0.41233	0
0.41600	-0
0.41967	-0
0.42333	-0
0.42700	-0
0.43067	-0
0.43433	-0
0.43800	-0
0.44167	-0
0.44533	-0
0.44900	-0
0.45267	-0
0.45633	-0
0.46000	-0
0.46367	-0
0.46733	-0
0.47100	-0
0.47467	-0
0.47833	-0
0.48200	-0
0.48567	0
0.48933	1
0.49300	1
0.49667	1
0.50033	0
0.50400	0
0.50767	0
0.51133	0
0.51500	-0
0.51867	-0
0.52233	-0
0.52600	-0
0.52967	-0
0.53333	0
0.53700	0
0.54067	0
0.54433	1
0.54800	1
0.55167	1
0.55533	1
0.55900	0
0.56267	0
0.56633	0
0.57000	0
0.57367	0
0.57733	0
0.58100	1
0.58467	1
0.58833	1
0.59200	1
0.59567	1
0.59933	1
0.60300	1
0.60667	1
0.61033	1
0.61400	1
0.61767	1
0.62133	1
0.62500	1
0.62867	1
0.63233	1
0.63600	0
0.63967	0
0.64333	0
0.64700	0
0.65067	0
0.65433	0
0.65800	0
0.66167	0
0.66533	-0
0.66900	-1
0.67267	-1
0.67633	-1
0.68000	-1
0.68367	-1
0.68733	-1
0.69100	-1
0.69467	-1
0.69833	-1
0.70200	-1
0.70567	-1
0.70933	-1
0.71300	-2
0.71667	-2
0.72033	-2
0.72400	-2
0.72767	-2
0.73133	-2
0.73500	-2
0.73867	-2
0.74233	-2
0.74600	-2
0.74967	-2
0.75333	-2
0.75700	-2
0.76067	-2
0.76433	-2
0.76800	-2
0.77167	-2
0.77533	-1
0.77900	-1
0.78267	-1
0.78633	-1
0.79000	-1
0.79367	-1
0.79733	-1
0.80100	-1
0.80467	-1
0.80833	-1
0.81200	-1
0.81567	-1
0.81933	-1
0.82300	-1
0.82667	-1
0.83033	-1
0.83400	-1
0.83767	-1
0.84133	-1
0.84500	-1
0.84867	-1
0.85233	-1
0.85600	-1
0.85967	-1
0.86333	-1
0.86700	-1
0.87067	-1
0.87433	-1
0.87800	-0
0.88167	-0
0.88533	-1
0.88900	-1
0.89267	-1
0.89633	-1
0.90000	-1
0.90367	-1
0.90733	-1
0.91100	-1
0.91467	-2
0.91833	-2
0.92200	-2
0.92567	-2
0.92933	-2
0.93300	-2
0.93667	-1
0.94033	-1
0.94400	-1
0.94767	-1
0.95133	-1
0.95500	-1
0.95867	-1
0.96233	-1
0.96600	-1
0.96967	-1
0.97333	-1
0.97700	-1
0.98067	-2
0.98433	-2
0.98800	-2
0.99167	-2
0.99533	-2
0.99900	-2
1.00267	-2
1.00633	-2
1.01000	-2
1.01367	-2
1.01733	-2
1.02100	-2
1.02467	-2
1.02833	-2
1.03200	-2
1.03567	-2
1.03933	-2
1.04300	-2
1.04667	-2
1.05033	-2
1.05400	-2
1.05767	-2
1.06133	-2
1.06500	-2
1.06867	-2
1.07233	-2
1.07600	-2
1.07967	-2
1.08333	-2
1.08700	-2
1.09067	-2
1.09433	-2
1.09800	-2
1.10167	-2
1.10533	-2
1.10900	-2
1.11267	-2
1.11633	-2
1.12000	-2
1.12367	-2
1.12733	-2
1.13100	-2
1.13467	-2
1.13833	-2
1.14200	-2
1.14567	-2
1.14933	-2
1.15300	-2
1.15667	-2
1.16033	-2
1.16400	-2
1.16767	-2
1.17133	-3
1.17500	-3
1.17867	-3
1.18233	-3
1.18600	-3
1.18967	-3
1.19333	-3
1.19700	-3
1.20067	-4
1.20433	-3
1.20800	-3
1.21167	-3
1.21533	-3
1.21900	-3
1.22267	-2
1.22633	-2
1.23000	-2
1.23367	-1
1.23733	-1
1.24100	-1
1.24467	-1
1.24833	-1
1.25200	-1
1.25567	-1
1.25933	-1
1.26300	-1
1.26667	-1
1.27033	-1
1.27400	-1
1.27767	-1
1.28133	-1
1.28500	-1
1.28867	-1
1.29233	-1
1.29600	-1
1.29967	-1
1.30333	-1
1.30700	-2
1.31067	-2
1.31433	-2
1.31800	-2
1.32167	-2
1.32533	-3
1.32900	-3
1.33267	-2
1.33633	-2
1.34000	-2
1.34367	-2
1.34733	-2
1.35100	-2
1.35467	-2
1.35833	-1
1.36200	-1
1.36567	-1
1.36933	-1
1.37300	-1
1.37667	-1
1.38033	-1
1.38400	-1
1.38767	-2
1.39133	-2
1.39500	-2
1.39867	-2
1.40233	-3
1.40600	-3
1.40967	-3
1.41333	-3
1.41700	-3
1.42067	-3
1.42433	-3
1.42800	-3
1.43167	-3
1.43533	-3
1.43900	-3
1.44267	-3
1.44633	-3
1.45000	-3
1.45367	-3
1.45733	-3
1.46100	-3
1.46467	-3
1.46833	-3
1.47200	-4
1.47567	-4
1.47933	-4
1.48300	-4
1.48667	-4
1.49033	-3
1.49400	-3
1.49767	-3
1.50133	-3
1.50500	-3
1.50867	-3
1.51233	-3
1.51600	-2
1.51967	-2
1.52333	-2
1.52700	-2
1.53067	-3
1.53433	-3
1.53800	-3
1.54167	-3
1.54533	-3
1.54900	-3
1.55267	-3
1.55633	-3
1.56000	-3
1.56367	-3
1.56733	-3
1.57100	-3
1.57467	-3
1.57833	-3
1.58200	-3
1.58567	-3
1.58933	-3
1.59300	-4
1.59667	-4
1.60033	-4
1.60400	-5
1.60767	-6
1.61133	-8
1.61500	-10
1.61867	-12
1.62233	-14
1.62600	-16
1.62967	-19
1.63333	-22
1.63700	-25
1.64067	-29
1.64433	-33
1.64800	-36
1.65167	-40
1.65533	-43
1.65900	-47
1.66267	-51
1.66633	-55
1.67000	-59
1.67367	-64
1.67733	-68
1.68100	-73
1.68467	-77
1.68833	-81
1.69200	-84
1.69567	-87
1.69933	-89
1.70300	-91
1.70667	-92
1.71033	-94
1.71400	-95
1.71767	-96
1.72133	-97
1.72500	-97
1.72867	-97
1.73233	-97
1.73600	-97
1.73967	-97
1.74333	-96
1.74700	-95
1.75067	-95
1.75433	-94
1.75800	-93
1.76167	-93
1.76533	-93
1.76900	-93
1.77267	-94
1.77633	-95
1.78000	-96
1.78367	-97
1.78733	-98
1.79100	-98
1.79467	-99
1.79833	-99
1.80200	-99
1.80567	-99
1.80933	-100
1.81300	-100
1.81667	-101
1.82033	-100
1.82400	-100
1.82767	-100
1.83133	-100
1.83500	-100
1.83867	-100
1.84233	-100
1.84600	-100
1.84967	-100
1.85333	-100
1.85700	-100
1.86067	-100
1.86433	-99
1.86800	-100
1.87167	-100
1.87533	-100
1.87900	-101
1.88267	-101
1.88633	-101
1.89000	-101
1.89367	-101
1.89733	-101
1.90100	-100
1.90467	-100
1.90833	-99
1.91200	-99
1.91567	-99
1.91933	-99
1.92300	-99
1.92667	-99
1.93033	-99
1.93400	-99
1.93767	-99
1.94133	-98
1.94500	-98
1.94867	-97
1.95233	-96
1.95600	-96
1.95967	-95
1.96333	-95
1.96700	-95
1.97067	-95
1.97433	-95
1.97800	-95
1.98167	-96
1.98533	-96
1.98900	-96
1.99267	-96
1.99633	-96
2.00000	-95
2.00367	-95
2.00733	-94
2.01100	-94
2.01467	-93
2.01833	-93
2.02200	-93
2.02567	-92
2.02933	-92
2.03300	-91
2.03667	-91
2.04033	-91
2.04400	-91
2.04767	-91
2.05133	-91
2.05500	-91
2.05867	-91
2.06233	-90
2.06600	-90
2.06967	-89
2.07333	-89
2.07700	-88
2.08067	-88
2.08433	-87
2.08800	-86
2.09167	-85
2.09533	-85
2.09900	-84
2.10267	-84
2.10633	-84
2.11000	-84
2.11367	-84
2.11733	-84
2.12100	-84
2.12467	-84
2.12833	-85
2.13200	-85
2.13567	-85
2.13933	-85
2.14300	-85
2.14667	-85
2.15033	-84
2.15400	-84
2.15767	-84
2.16133	-83
2.16500	-83
2.16867	-83
2.17233	-82
2.17600	-82
2.17967	-81
2.18333	-80
2.18700	-80
2.19067	-80
2.19433	-80
2.19800	-79
2.20167	-78
2.20533	-77
2.20900	-77
2.21267	-76
2.21633	-76
2.22000	-75
2.22367	-75
2.22733	-74
2.23100	-74
2.23467	-74
2.23833	-75
2.24200	-75
2.24567	-75
2.24933	-74
2.25300	-74
2.25667	-74
2.26033	-74
2.26400	-74
2.26767	-73
2.27133	-73
2.27500	-73
2.27867	-72
2.28233	-71
2.28600	-71
2.28967	-70
2.29333	-69
2.29700	-69
2.30067	-68
2.30433	-68
2.30800	-69
2.31167	-69
2.31533	-70
2.31900	-70
2.32267	-70
2.32633	-70
2.33000	-69
2.33367	-69
2.33733	-68
2.34100	-67
2.34467	-66
2.34833	-65
2.35200	-64
2.35567	-63
2.35933	-62
2.36300	-60
2.36667	-58
2.37033	-56
2.37400	-54
2.37767	-51
2.38133	-47
2.38500	-44
2.38867	-40
2.39233	-36
2.39600	-32
2.39967	-28
2.40333	-24
2.40700	-20
2.41067	-16
2.41433	-13
2.41800	-10
2.42167	-7
2.42533	-5
2.42900	-3
2.43267	-1
2.43633	0
2.44000	2
2.44367	2
2.44733	3
2.45100	3
2.45467	4
2.45833	5
2.46200	6
2.46567	7
2.46933	8
2.47300	9
2.47667	10
2.48033	11
2.48400	12
2.48767	13
2.49133	13
2.49500	14
2.49867	15
2.50233	15
2.50600	15
2.50967	16
2.51333	16
2.51700	17
2.52067	17
2.52433	17
2.52800	17
2.53167	17
2.53533	18
2.53900	18
2.54267	18
2.54633	17
2.55000	16
2.55367	15
2.55733	14
2.56100	13
2.56467	12
2.56833	11
2.57200	10
2.57567	10
2.57933	10
2.58300	10
2.58667	11
2.59033	11
2.59400	12
2.59767	12
2.60133	13
2.60500	13
2.60867	14
2.61233	15
2.61600	15
2.61967	16
2.62333	16
2.62700	16
2.63067	17
2.63433	17
2.63800	17
2.64167	18
2.64533	18
2.64900	19
2.65267	20
2.65633	21
2.66000	22
2.66367	22
2.66733	23
2.67100	23
2.67467	23
2.67833	23
2.68200	23
2.68567	23
2.68933	22
2.69300	22
2.69667	22
2.70033	22
2.70400	23
2.70767	23
2.71133	23
2.71500	24
2.71867	24
2.72233	25
2.72600	25
2.72967	26
2.73333	26
2.73700	27
2.74067	27
2.74433	27
2.74800	28
2.75167	28
2.75533	28
2.75900	28
2.76267	28
2.76633	29
2.77000	29
2.77367	29
2.77733	29
2.78100	29
2.78467	29
2.78833	29
2.79200	28
2.79567	28
2.79933	28
2.80300	28
2.80667	28
2.81033	28
2.81400	27
2.81767	27
2.82133	27
2.82500	27
2.82867	27
2.83233	27
2.83600	27
2.83967	27
2.84333	27
2.84700	27
2.85067	27
2.85433	26
2.85800	24
2.86167	21
2.86533	15
2.86900	7
2.87267	-5
2.87633	-22
2.88000	-44
2.88367	-72
2.88733	-105
2.89100	-143
2.89467	-187
2.89833	-235
2.90200	-288
2.90567	-345
2.90933	-406
2.91300	-468
2.91667	-533
2.92033	-598
2.92400	-664
2.92767	-729
2.93133	-791
2.93500	-850
2.93867	-907
2.94233	-961
2.94600	-1017
2.94967	-1070
2.95333	-1111
2.95700	-1131
2.96067	-1125
2.96433	-1094
2.96800	-1043
2.97167	-976
2.97533	-899
2.97900	-817
2.98267	-735
2.98633	-654
2.99000	-577
2.99367	-506
2.99733	-440
3.00100	-381
3.00467	-329
3.00833	-282
3.01200	-241
3.01567	-205
3.01933	-174
3.02300	-147
3.02667	-123
3.03033	-103
3.03400	-86
3.03767	-72
3.04133	-59
3.04500	-48
3.04867	-39
3.05233	-31
3.05600	-24
3.05967	-18
3.06333	-13
3.06700	-9
3.07067	-5
3.07433	-2
3.07800	1
3.08167	3
3.08533	5
3.08900	6
3.09267	8
3.09633	9
3.10000	10
3.10367	11
3.10733	12
3.11100	13
3.11467	14
3.11833	15
3.12200	16
3.12567	16
3.12933	17
3.13300	17
3.13667	18
3.14033	18
3.14400	18
3.14767	19
3.15133	19
3.15500	19
3.15867	19
3.16233	19
3.16600	20
3.16967	20
3.17333	20
3.17700	21
3.18067	21
3.18433	22
3.18800	22
3.19167	23
3.19533	23
3.19900	24
3.20267	25
3.20633	25
3.21000	26
3.21367	26
3.21733	26
3.22100	26
3.22467	27
3.22833	27
3.23200	27
3.23567	27
3.23933	27
3.24300	27
3.24667	28
3.25033	28
3.25400	28
3.25767	28
3.26133	28
3.26500	28
3.26867	27
3.27233	27
3.27600	27
3.27967	27
3.28333	27
3.28700	27
3.29067	28
3.29433	28
3.29800	28
3.30167	28
3.30533	27
3.30900	28
3.31267	28
3.31633	28
3.32000	28
3.32367	28
3.32733	28
3.33100	28
3.33467	27
3.33833	27
3.34200	27
3.34567	27
3.34933	27
3.35300	27
3.35667	27
3.36033	27
3.36400	28
3.36767	28
3.37133	28
3.37500	28
3.37867	28
3.38233	28
3.38600	29
3.38967	29
3.39333	28
3.39700	28
3.40067	28
3.40433	28
3.40800	28
3.41167	28
3.41533	28
3.41900	28
3.42267	28
3.42633	27
3.43000	27
3.43367	27
3.43733	27
3.44100	27
3.44467	27
3.44833	27
3.45200	28
3.45567	28
3.45933	28
3.46300	28
3.46667	28
3.47033	28
3.47400	28
3.47767	28
3.48133	28
3.48500	28
3.48867	28
3.49233	29
3.49600	29
3.49967	29
3.50333	29
3.50700	29
3.51067	29
3.51433	30
3.51800	30
3.52167	30
3.52533	30
3.52900	30
3.53267	30
3.53633	30
3.54000	30
3.54367	30
3.54733	30
3.55100	30
3.55467	29
3.55833	29
3.56200	29
3.56567	29
3.56933	29
3.57300	29
3.57667	29
3.58033	29
3.58400	29
3.58767	29
3.59133	29
3.59500	29
3.59867	29
3.60233	29
3.60600	28
3.60967	28
3.61333	28
3.61700	28
3.62067	28
3.62433	28
3.62800	28
3.63167	28
3.63533	28
3.63900	28
3.64267	28
3.64633	28
3.65000	28
3.65367	28
3.65733	28
3.66100	29
3.66467	29
3.66833	29
3.67200	29
3.67567	30
3.67933	30
3.68300	30
3.68667	31
3.69033	31
3.69400	31
3.69767	32
3.70133	32
3.70500	32
3.70867	32
3.71233	32
3.71600	32
3.71967	32
3.72333	31
3.72700	31
3.73067	32
3.73433	32
3.73800	32
3.74167	32
3.74533	32
3.74900	32
3.75267	32
3.75633	32
3.76000	32
3.76367	32
3.76733	32
3.77100	32
3.77467	32
3.77833	31
3.78200	31
3.78567	31
3.78933	31
3.79300	30
3.79667	30
3.80033	30
3.80400	30
3.80767	30
3.81133	29
3.81500	29
3.81867	29
3.82233	29
3.82600	29
3.82967	29
3.83333	29
3.83700	29
3.84067	30
3.84433	30
3.84800	29
3.85167	29
3.85533	29
3.85900	29
3.86267	29
3.86633	29
3.87000	29
3.87367	29
3.87733	29
3.88100	29
3.88467	29
3.88833	29
3.89200	29
3.89567	29
3.89933	29
3.90300	29
3.90667	29
3.91033	30
3.91400	30
3.91767	30
3.92133	30
3.92500	30
3.92867	30
3.93233	30
3.93600	30
3.93967	29
3.94333	29
3.94700	29
3.95067	29
3.95433	29
3.95800	30
3.96167	30
3.96533	29
3.96900	29
3.97267	29
3.97633	29
3.98000	29
3.98367	29
3.98733	29
3.99100	29
3.99467	28
3.99833	28

[Chromatogram (Ch3)]
Interval(msec)	220
# of Points	1091
Start Time(min)	0.002
End Time(min)	3.998
R.Time (min)	Intensity
0.00167	1
0.00533	2
0.00900	2
0.01267	1
0.01633	1
0.02000	3
0.02367	2
0.02733	0
0.03100	-0
0.03467	2
0.03833	4
0.04200	6
0.04567	7
0.04933	8
0.05300	8
0.05667	9
0.06033	11
0.06400	12
0.06767	11
0.07133	11
0.07500	10
0.07867	11
0.08233	13
0.08600	14
0.08967	17
0.09333	16
0.09700	17
0.10067	19
0.10433	21
0.10800	21
0.11167	21
0.11533	21
0.11900	20
0.12267	18
0.12633	17
0.13000	18
0.13367	20
0.13733	20
0.14100	19
0.14467	18
0.14833	18
0.15200	18
0.15567	18
0.15933	18
0.16300	18
0.16667	17
0.17033	15
0.17400	16
0.17767	17
0.18133	17
0.18500	16
0.18867	17
0.19233	16
0.19600	16
0.19967	16
0.20333	18
0.20700	20
0.21067	22
0.21433	24
0.21800	24
0.22167	23
0.22533	21
0.22900	20
0.23267	17
0.23633	14
0.24000	13
0.24367	13
0.24733	13
0.25100	14
0.25467	15
0.25833	17
0.26200	18
0.26567	19
0.26933	20
0.27300	22
0.27667	22
0.28033	22
0.28400	22
0.28767	25
0.29133	25
0.29500	23
0.29867	21
0.30233	19
0.30600	16
0.30967	15
0.31333	15
0.31700	13
0.32067	11
0.32433	13
0.32800	15
0.33167	15
0.33533	15
0.33900	16
0.34267	18
0.34633	18
0.35000	20
0.35367	19
0.35733	17
0.36100	13
0.36467	11
0.36833	10
0.37200	10
0.37567	11
0.37933	12
0.38300	12
0.38667	11
0.39033	13
0.39400	16
0.39767	17
0.40133	18
0.40500	19
0.40867	18
0.41233	17
0.41600	17
0.41967	19
0.42333	21
0.42700	21
0.43067	20
0.43433	18
0.43800	16
0.44167	18
0.44533	18
0.44900	17
0.45267	14
0.45633	11
0.46000	10
0.46367	13
0.46733	17
0.47100	17
0.47467	18
0.47833	22
0.48200	24
0.48567	25
0.48933	27
0.49300	27
0.49667	27
0.50033	24
0.50400	23
0.50767	24
0.51133	22
0.51500	19
0.51867	16
0.52233	15
0.52600	15
0.52967	14
0.53333	13
0.53700	14
0.54067	13
0.54433	12
0.54800	13
0.55167	12
0.55533	13
0.55900	14
0.56267	16
0.56633	18
0.57000	18
0.57367	19
0.57733	19
0.58100	18
0.58467	17
0.58833	17
0.59200	15
0.59567	15
0.59933	16
0.60300	15
0.60667	15
0.61033	16
0.61400	15
0.61767	14
0.62133	13
0.62500	14
0.62867	15
0.63233	13
0.63600	15
0.63967	18
0.64333	17
0.64700	15
0.65067	14
0.65433	14
0.65800	12
0.66167	12
0.66533	9
0.66900	9
0.67267	12
0.67633	12
0.68000	11
0.68367	10
0.68733	12
0.69100	13
0.69467	13
0.69833	13
0.70200	12
0.70567	12
0.70933	13
0.71300	12
0.71667	12
0.72033	9
0.72400	6
0.72767	7
0.73133	7
0.73500	6
0.73867	4
0.74233	2
0.74600	4
0.74967	7
0.75333	8
0.75700	7
0.76067	7
0.76433	7
0.76800	7
0.77167	9
0.77533	8
0.77900	7
0.78267	7
0.78633	5
0.79000	3
0.79367	3
0.79733	5
0.80100	7
0.80467	9
0.80833	10
0.81200	12
0.81567	15
0.81933	15
0.82300	13
0.82667	13
0.83033	13
0.83400	15
0.83767	17
0.84133	18
0.84500	19
0.84867	20
0.85233	20
0.85600	21
0.85967	22
0.86333	21
0.86700	19
0.87067	16
0.87433	13
0.87800	13
0.88167	14
0.88533	15
0.88900	16
0.89267	18
0.89633	20
0.90000	19
0.90367	16
0.90733	14
0.91100	14
0.91467	12
0.91833	14
0.92200	15
0.92567	14
0.92933	13
0.93300	12
0.93667	12
0.94033	13
0.94400	16
0.94767	19
0.95133	22
0.95500	22
0.95867	21
0.96233	20
0.96600	19
0.96967	19
0.97333	17
0.97700	17
0.98067	18
0.98433	19
0.98800	19
0.99167	19
0.99533	18
0.99900	18
1.00267	19
1.00633	18
1.01000	21
1.01367	22
1.01733	23
1.02100	21
1.02467	21
1.02833	20
1.03200	19
1.03567	17
1.03933	17
1.04300	18
1.04667	21
1.05033	23
1.05400	24
1.05767	24
1.06133	22
1.06500	17
1.06867	13
1.07233	12
1.07600	14
1.07967	16
1.08333	16
1.08700	15
1.09067	16
1.09433	18
1.09800	19
1.10167	20
1.10533	20
1.10900	20
1.11267	20
1.11633	21
1.12000	23
1.12367	23
1.12733	24
1.13100	25
1.13467	26
1.13833	25
1.14200	23
1.14567	22
1.14933	21
1.15300	18
1.15667	16
1.16033	15
1.16400	14
1.16767	12
1.17133	13
1.17500	16
1.17867	18
1.18233	20
1.18600	22
1.18967	22
1.19333	23
1.19700	22
1.20067	22
1.20433	21
1.20800	20
1.21167	19
1.21533	17
1.21900	16
1.22267	17
1.22633	18
1.23000	21
1.23367	23
1.23733	23
1.24100	22
1.24467	20
1.24833	17
1.25200	15
1.25567	12
1.25933	11
1.26300	11
1.26667	12
1.27033	13
1.27400	14
1.27767	15
1.28133	16
1.28500	19
1.28867	19
1.29233	19
1.29600	18
1.29967	17
1.30333	16
1.30700	17
1.31067	21
1.31433	21
1.31800	19
1.32167	19
1.32533	18
1.32900	18
1.33267	17
1.33633	15
1.34000	12
1.34367	10
1.34733	10
1.35100	11
1.35467	13
1.35833	15
1.36200	18
1.36567	19
1.36933	19
1.37300	20
1.37667	21
1.38033	21
1.38400	20
1.38767	16
1.39133	14
1.39500	14
1.39867	13
1.40233	13
1.40600	12
1.40967	12
1.41333	14
1.41700	15
1.42067	16
1.42433	15
1.42800	14
1.43167	13
1.43533	13
1.43900	14
1.44267	13
1.44633	12
1.45000	11
1.45367	13
1.45733	13
1.46100	9
1.46467	5
1.46833	3
1.47200	3
1.47567	4
1.47933	5
1.48300	6
1.48667	7
1.49033	7
1.49400	5
1.49767	5
1.50133	4
1.50500	4
1.50867	5
1.51233	7
1.51600	6
1.51967	6
1.52333	5
1.52700	5
1.53067	7
1.53433	8
1.53800	10
1.54167	11
1.54533	10
1.54900	7
1.55267	3
1.55633	3
1.56000	4
1.56367	5
1.56733	8
1.57100	8
1.57467	10
1.57833	11
1.58200	12
1.58567	13
1.58933	13
1.59300	13
1.59667	12
1.60033	13
1.60400	14
1.60767	17
1.61133	18
1.61500	17
1.61867	16
1.62233	15
1.62600	16
1.62967	17
1.63333	18
1.63700	16
1.64067	14
1.64433	14
1.64800	15
1.65167	16
1.65533	15
1.65900	13
1.66267	13
1.66633	13
1.67000	14
1.67367	16
1.67733	17
1.68100	17
1.68467	15
1.68833	14
1.69200	11
1.69567	11
1.69933	13
1.70300	13
1.70667	13
1.71033	15
1.71400	16
1.71767	17
1.72133	18
1.72500	19
1.72867	20
1.73233	19
1.73600	17
1.73967	17
1.74333	19
1.74700	23
1.75067	24
1.75433	22
1.75800	22
1.76167	22
1.76533	21
1.76900	20
1.77267	19
1.77633	17
1.78000	17
1.78367	18
1.78733	17
1.79100	15
1.79467	16
1.79833	20
1.80200	24
1.80567	27
1.80933	29
1.81300	28
1.81667	24
1.82033	21
1.82400	21
1.82767	22
1.83133	19
1.83500	15
1.83867	14
1.84233	15
1.84600	19
1.84967	23
1.85333	25
1.85700	29
1.86067	32
1.86433	33
1.86800	31
1.87167	30
1.87533	26
1.87900	23
1.88267	23
1.88633	26
1.89000	29
1.89367	31
1.89733	32
1.90100	33
1.90467	35
1.90833	38
1.91200	40
1.91567	41
1.91933	39
1.92300	35
1.92667	34
1.93033	34
1.93400	34
1.93767	38
1.94133	40
1.94500	40
1.94867	40
1.95233	40
1.95600	41
1.95967	45
1.96333	46
1.96700	47
1.97067	48
1.97433	47
1.97800	43
1.98167	40
1.98533	41
1.98900	42
1.99267	44
1.99633	44
2.00000	44
2.00367	43
2.00733	43
2.01100	43
2.01467	44
2.01833	45
2.02200	47
2.02567	48
2.02933	46
2.03300	47
2.03667	49
2.04033	50
2.04400	49
2.04767	48
2.05133	50
2.05500	52
2.05867	53
2.06233	53
2.06600	53
2.06967	55
2.07333	57
2.07700	60
2.08067	58
2.08433	53
2.08800	50
2.09167	50
2.09533	51
2.09900	51
2.10267	53
2.10633	55
2.11000	56
2.11367	55
2.11733	57
2.12100	60
2.12467	61
2.12833	65
2.13200	68
2.13567	68
2.13933	71
2.14300	72
2.14667	72
2.15033	72
2.15400	72
2.15767	71
2.16133	72
2.16500	74
2.16867	76
2.17233	78
2.17600	77
2.17967	74
2.18333	74
2.18700	75
2.19067	78
2.19433	81
2.19800	83
2.20167	84
2.20533	84
2.20900	82
2.21267	81
2.21633	84
2.22000	88
2.22367	89
2.22733	91
2.23100	92
2.23467	92
2.23833	92
2.24200	94
2.24567	96
2.24933	96
2.25300	96
2.25667	96
2.26033	95
2.26400	95
2.26767	95
2.27133	97
2.27500	100
2.27867	103
2.28233	103
2.28600	103
2.28967	108
2.29333	111
2.29700	111
2.30067	109
2.30433	110
2.30800	112
2.31167	114
2.31533	114
2.31900	113
2.32267	116
2.32633	118
2.33000	118
2.33367	117
2.33733	117
2.34100	117
2.34467	117
2.34833	119
2.35200	120
2.35567	119
2.35933	118
2.36300	119
2.36667	121
2.37033	119
2.37400	116
2.37767	116
2.38133	115
2.38500	114
2.38867	112
2.39233	113
2.39600	117
2.39967	122
2.40333	126
2.40700	130
2.41067	134
2.41433	137
2.41800	140
2.42167	141
2.42533	142
2.42900	141
2.43267	140
2.43633	140
2.44000	145
2.44367	194
2.44733	282
2.45100	361
2.45467	418
2.45833	448
2.46200	448
2.46567	432
2.46933	414
2.47300	398
2.47667	385
2.48033	373
2.48400	354
2.48767	329
2.49133	304
2.49500	283
2.49867	271
2.50233	264
2.50600	258
2.50967	258
2.51333	262
2.51700	269
2.52067	276
2.52433	277
2.52800	273
2.53167	267
2.53533	260
2.53900	251
2.54267	238
2.54633	223
2.55000	209
2.55367	199
2.55733	191
2.56100	185
2.56467	182
2.56833	182
2.57200	182
2.57567	182
2.57933	183
2.58300	185
2.58667	188
2.59033	191
2.59400	195
2.59767	202
2.60133	211
2.60500	217
2.60867	225
2.61233	230
2.61600	237
2.61967	245
2.62333	252
2.62700	254
2.63067	250
2.63433	246
2.63800	242
2.64167	237
2.64533	228
2.64900	216
2.65267	204
2.65633	194
2.66000	186
2.66367	183
2.66733	179
2.67100	174
2.67467	168
2.67833	162
2.68200	160
2.68567	159
2.68933	155
2.69300	152
2.69667	149
2.70033	147
2.70400	145
2.70767	144
2.71133	144
2.71500	143
2.71867	142
2.72233	142
2.72600	144
2.72967	145
2.73333	147
2.73700	150
2.74067	153
2.74433	153
2.74800	152
2.75167	153
2.75533	156
2.75900	158
2.76267	158
2.76633	159
2.77000	160
2.77367	163
2.77733	166
2.78100	166
2.78467	166
2.78833	168
2.79200	170
2.79567	170
2.79933	173
2.80300	178
2.80667	181
2.81033	186
2.81400	191
2.81767	193
2.82133	195
2.82500	198
2.82867	202
2.83233	208
2.83600	221
2.83967	243
2.84333	287
2.84700	368
2.85067	508
2.85433	725
2.85800	1029
2.86167	1420
2.86533	1880
2.86900	2378
2.87267	2880
2.87633	3342
2.88000	3725
2.88367	4000
2.88733	4151
2.89100	4180
2.89467	4098
2.89833	3929
2.90200	3699
2.90567	3430
2.90933	3142
2.91300	2848
2.91667	2559
2.92033	2284
2.92400	2030
2.92767	1798
2.93133	1590
2.93500	1404
2.93867	1239
2.94233	1092
2.94600	964
2.94967	853
2.95333	758
2.95700	677
2.96067	607
2.96433	547
2.96800	493
2.97167	445
2.97533	404
2.97900	369
2.98267	340
2.98633	316
2.99000	297
2.99367	279
2.99733	263
3.00100	251
3.00467	243
3.00833	236
3.01200	228
3.01567	219
3.01933	214
3.02300	209
3.02667	204
3.03033	200
3.03400	199
3.03767	198
3.04133	195
3.04500	192
3.04867	190
3.05233	188
3.05600	186
3.05967	184
3.06333	185
3.06700	185
3.07067	185
3.07433	184
3.07800	185
3.08167	186
3.08533	187
3.08900	181
3.09267	183
3.09633	207
3.10000	259
3.10367	330
3.10733	410
3.11100	499
3.11467	591
3.11833	681
3.12200	765
3.12567	840
3.12933	907
3.13300	964
3.13667	1010
3.14033	1046
3.14400	1072
3.14767	1093
3.15133	1108
3.15500	1122
3.15867	1131
3.16233	1135
3.16600	1138
3.16967	1140
3.17333	1140
3.17700	1140
3.18067	1141
3.18433	1142
3.18800	1141
3.19167	1142
3.19533	1143
3.19900	1140
3.20267	1138
3.20633	1134
3.21000	1129
3.21367	1126
3.21733	1122
3.22100	1121
3.22467	1120
3.22833	1119
3.23200	1117
3.23567	1115
3.23933	1112
3.24300	1110
3.24667	1109
3.25033	1107
3.25400	1103
3.25767	1099
3.26133	1095
3.26500	1090
3.26867	1086
3.27233	1085
3.27600	1083
3.27967	1081
3.28333	1078
3.28700	1074
3.29067	1070
3.29433	1062
3.29800	1056
3.30167	1054
3.30533	1050
3.30900	1043
3.31267	1034
3.31633	1029
3.32000	1025
3.32367	1023
3.32733	1018
3.33100	1012
3.33467	1007
3.33833	1004
3.34200	999
3.34567	994
3.34933	989
3.35300	984
3.35667	977
3.36033	971
3.36400	968
3.36767	963
3.37133	957
3.37500	952
3.37867	949
3.38233	947
3.38600	945
3.38967	943
3.39333	940
3.39700	935
3.40067	933
3.40433	932
3.40800	931
3.41167	930
3.41533	928
3.41900	924
3.42267	919
3.42633	915
3.43000	913
3.43367	911
3.43733	911
3.44100	910
3.44467	907
3.44833	906
3.45200	904
3.45567	903
3.45933	905
3.46300	908
3.46667	906
3.47033	903
3.47400	902
3.47767	900
3.48133	898
3.48500	895
3.48867	891
3.49233	887
3.49600	885
3.49967	888
3.50333	890
3.50700	890
3.51067	888
3.51433	886
3.51800	885
3.52167	883
3.52533	882
3.52900	884
3.53267	887
3.53633	885
3.54000	885
3.54367	886
3.54733	885
3.55100	886
3.55467	887
3.55833	887
3.56200	888
3.56567	890
3.56933	892
3.57300	894
3.57667	893
3.58033	894
3.58400	895
3.58767	896
3.59133	896
3.59500	895
3.59867	891
3.60233	890
3.60600	889
3.60967	888
3.61333	887
3.61700	886
3.62067	884
3.62433	881
3.62800	880
3.63167	880
3.63533	880
3.63900	879
3.64267	872
3.64633	866
3.65000	863
3.65367	861
3.65733	859
3.66100	856
3.66467	854
3.66833	849
3.67200	844
3.67567	840
3.67933	836
3.68300	832
3.68667	827
3.69033	821
3.69400	818
3.69767	815
3.70133	812
3.70500	810
3.70867	807
3.71233	802
3.71600	797
3.71967	791
3.72333	788
3.72700	786
3.73067	782
3.73433	779
3.73800	775
3.74167	772
3.74533	770
3.74900	766
3.75267	763
3.75633	760
3.76000	757
3.76367	756
3.76733	755
3.77100	756
3.77467	755
3.77833	753
3.78200	750
3.78567	747
3.78933	744
3.79300	742
3.79667	740
3.80033	739
3.80400	738
3.80767	737
3.81133	733
3.81500	729
3.81867	725
3.82233	723
3.82600	722
3.82967	724
3.83333	725
3.83700	725
3.84067	724
3.84433	723
3.84800	722
3.85167	719
3.85533	716
3.85900	715
3.86267	716
3.86633	717
3.87000	716
3.87367	714
3.87733	711
3.88100	707
3.88467	707
3.88833	706
3.89200	704
3.89567	701
3.89933	696
3.90300	693
3.90667	692
3.91033	693
3.91400	693
3.91767	689
3.92133	687
3.92500	686
3.92867	686
3.93233	684
3.93600	682
3.93967	681
3.94333	678
3.94700	676
3.95067	674
3.95433	674
3.95800	673
3.96167	672
3.96533	672
3.96900	672
3.97267	672
3.97633	672
3.98000	669
3.98367	665
3.98733	663
3.99100	663
3.99467	661
3.99833	655

[Status Trace (Column Oven Temperature)]
Interval(msec)	1000
# of Points	240
Start Time(min)	0.009
End Time(min)	3.992
Intensity Units	
Intensity Multiplier	1
R.Time (min)	Intensity
0.00850	35.08
0.02517	35.08
0.04183	35.07
0.05850	35.06
0.07517	35.06
0.09183	35.05
0.10850	35.04
0.12517	35.03
0.14183	35.04
0.15850	35.04
0.17517	35.03
0.19183	35.03
0.20850	35.04
0.22517	35.04
0.24183	35.03
0.25850	35.03
0.27517	35.04
0.29183	35.04
0.30850	35.04
0.32517	35.05
0.34183	35.04
0.35850	35.03
0.37517	35.03
0.39183	35.02
0.40850	35.01
0.42517	35.00
0.44183	35.02
0.45850	35.01
0.47517	35.00
0.49183	35.01
0.50850	35.02
0.52517	35.01
0.54183	35.01
0.55850	35.01
0.57517	35.00
0.59183	35.00
0.60850	35.00
0.62517	34.99
0.64183	34.99
0.65850	34.98
0.67517	34.99
0.69183	34.99
0.70850	35.01
0.72517	35.00
0.74183	35.00
0.75850	35.00
0.77517	34.99
0.79183	34.99
0.80850	34.99
0.82517	34.99
0.84183	34.98
0.85850	34.98
0.87517	34.98
0.89183	34.98
0.90850	34.98
0.92517	34.99
0.94183	34.99
0.95850	34.99
0.97517	34.99
0.99183	34.99
1.00850	34.99
1.02517	34.99
1.04183	34.99
1.05850	34.98
1.07517	34.98
1.09183	34.98
1.10850	34.98
1.12517	34.98
1.14183	34.98
1.15850	34.99
1.17517	35.00
1.19183	35.03
1.20850	35.02
1.22517	35.01
1.24183	35.00
1.25850	35.00
1.27517	34.99
1.29183	34.98
1.30850	34.98
1.32517	34.99
1.34183	34.98
1.35850	34.98
1.37517	34.97
1.39183	34.99
1.40850	34.99
1.42517	34.98
1.44183	34.99
1.45850	34.99
1.47517	34.98
1.49183	34.99
1.50850	34.99
1.52517	35.00
1.54183	35.00
1.55850	35.01
1.57517	35.01
1.59183	35.02
1.60850	35.07
1.62517	35.19
1.64183	35.38
1.65850	35.64
1.67517	35.99
1.69183	36.35
1.70850	36.71
1.72517	37.05
1.74183	37.36
1.75850	37.66
1.77517	38.00
1.79183	38.33
1.80850	38.67
1.82517	39.00
1.84183	39.34
1.85850	39.67
1.87517	40.01
1.89183	40.34
1.90850	40.67
1.92517	41.01
1.94183	41.34
1.95850	41.66
1.97517	41.99
1.99183	42.33
2.00850	42.64
2.02517	42.97
2.04183	43.31
2.05850	43.64
2.07517	43.97
2.09183	44.27
2.10850	44.62
2.12517	44.94
2.14183	45.28
2.15850	45.61
2.17517	45.94
2.19183	46.27
2.20850	46.58
2.22517	46.91
2.24183	47.23
2.25850	47.59
2.27517	47.90
2.29183	48.21
2.30850	48.56
2.32517	48.90
2.34183	49.19
2.35850	49.45
2.37517	49.63
2.39183	49.67
2.40850	49.67
2.42517	49.68
2.44183	49.69
2.45850	49.70
2.47517	49.72
2.49183	49.72
2.50850	49.73
2.52517	49.75
2.54183	49.75
2.55850	49.79
2.57517	49.81
2.59183	49.83
2.60850	49.84
2.62517	49.85
2.64183	49.85
2.65850	49.84
2.67517	49.85
2.69183	49.87
2.70850	49.87
2.72517	49.87
2.74183	49.87
2.75850	49.86
2.77517	49.86
2.79183	49.86
2.80850	49.87
2.82517	49.88
2.84183	49.89
2.85850	49.91
2.87517	49.92
2.89183	49.94
2.90850	49.96
2.92517	49.98
2.94183	50.00
2.95850	50.02
2.97517	50.03
2.99183	50.04
3.00850	50.04
3.02517	50.06
3.04183	50.07
3.05850	50.07
3.07517	50.08
3.09183	50.09
3.10850	50.09
3.12517	50.10
3.14183	50.11
3.15850	50.10
3.17517	50.10
3.19183	50.09
3.20850	50.08
3.22517	50.07
3.24183	50.06
3.25850	50.05
3.27517	50.05
3.29183	50.06
3.30850	50.06
3.32517	50.06
3.34183	50.07
3.35850	50.06
3.37517	50.05
3.39183	50.06
3.40850	50.06
3.42517	50.08
3.44183	50.08
3.45850	50.08
3.47517	50.08
3.49183	50.08
3.50850	50.08
3.52517	50.08
3.54183	50.08
3.55850	50.07
3.57517	50.08
3.59183	50.08
3.60850	50.09
3.62517	50.10
3.64183	50.10
3.65850	50.10
3.67517	50.09
3.69183	50.08
3.70850	50.06
3.72517	50.04
3.74183	50.03
3.75850	50.02
3.77517	50.01
3.79183	50.01
3.80850	50.01
3.82517	50.01
3.84183	50.02
3.85850	50.02
3.87517	50.02
3.89183	50.02
3.90850	50.01
3.92517	50.02
3.94183	50.02
3.95850	50.02
3.97517	50.03
3.99183	50.02

[Status Trace (Injection Unit Temperature)]
Interval(msec)	1000
# of Points	240
Start Time(min)	0.009
End Time(min)	3.992
Intensity Units	
Intensity Multiplier	1
R.Time (min)	Intensity
0.00850	99.98
0.02517	99.97
0.04183	99.97
0.05850	99.97
0.07517	99.98
0.09183	99.98
0.10850	99.97
0.12517	99.98
0.14183	99.98
0.15850	99.98
0.17517	99.97
0.19183	99.98
0.20850	99.98
0.22517	99.98
0.24183	99.98
0.25850	99.98
0.27517	99.98
0.29183	99.98
0.30850	99.98
0.32517	99.98
0.34183	99.99
0.35850	99.99
0.37517	99.98
0.39183	99.99
0.40850	99.99
0.42517	99.98
0.44183	99.98
0.45850	99.98
0.47517	99.98
0.49183	99.99
0.50850	99.99
0.52517	99.98
0.54183	99.98
0.55850	99.99
0.57517	99.98
0.59183	99.99
0.60850	99.99
0.62517	99.99
0.64183	99.98
0.65850	99.98
0.67517	99.98
0.69183	99.98
0.70850	99.98
0.72517	99.98
0.74183	99.98
0.75850	99.98
0.77517	99.98
0.79183	99.98
0.80850	99.98
0.82517	99.98
0.84183	99.98
0.85850	99.98
0.87517	99.98
0.89183	99.98
0.90850	99.98
0.92517	99.98
0.94183	99.97
0.95850	99.98
0.97517	99.98
0.99183	99.98
1.00850	99.98
1.02517	99.98
1.04183	99.98
1.05850	99.98
1.07517	99.98
1.09183	99.98
1.10850	99.98
1.12517	99.98
1.14183	99.98
1.15850	99.98
1.17517	99.98
1.19183	99.98
1.20850	99.98
1.22517	99.98
1.24183	99.98
1.25850	99.98
1.27517	99.98
1.29183	99.98
1.30850	99.98
1.32517	99.98
1.34183	99.98
1.35850	99.98
1.37517	99.98
1.39183	99.98
1.40850	99.98
1.42517	99.98
1.44183	99.99
1.45850	99.98
1.47517	99.98
1.49183	99.98
1.50850	99.98
1.52517	99.99
1.54183	99.98
1.55850	99.98
1.57517	99.98
1.59183	99.99
1.60850	99.99
1.62517	99.99
1.64183	99.98
1.65850	99.99
1.67517	99.99
1.69183	99.99
1.70850	99.99
1.72517	99.98
1.74183	99.99
1.75850	99.99
1.77517	99.98
1.79183	99.98
1.80850	99.98
1.82517	99.98
1.84183	99.98
1.85850	99.98
1.87517	99.98
1.89183	99.98
1.90850	99.98
1.92517	99.98
1.94183	99.98
1.95850	99.98
1.97517	99.98
1.99183	99.98
2.00850	99.97
2.02517	99.97
2.04183	99.97
2.05850	99.97
2.07517	99.98
2.09183	99.97
2.10850	99.97
2.12517	99.97
2.14183	99.97
2.15850	99.97
2.17517	99.97
2.19183	99.97
2.20850	99.97
2.22517	99.96
2.24183	99.97
2.25850	99.96
2.27517	99.96
2.29183	99.96
2.30850	99.96
2.32517	99.96
2.34183	99.96
2.35850	99.96
2.37517	99.96
2.39183	99.96
2.40850	99.96
2.42517	99.96
2.44183	99.96
2.45850	99.96
2.47517	99.97
2.49183	99.97
2.50850	99.97
2.52517	99.97
2.54183	99.97
2.55850	99.97
2.57517	99.97
2.59183	99.97
2.60850	99.97
2.62517	99.97
2.64183	99.97
2.65850	99.97
2.67517	99.98
2.69183	99.98
2.70850	99.98
2.72517	99.98
2.74183	99.98
2.75850	99.99
2.77517	99.99
2.79183	99.99
2.80850	99.99
2.82517	99.99
2.84183	99.99
2.85850	99.99
2.87517	99.99
2.89183	100.00
2.90850	100.00
2.92517	100.00
2.94183	100.00
2.95850	100.00
2.97517	100.00
2.99183	100.00
3.00850	100.00
3.02517	100.01
3.04183	100.01
3.05850	100.01
3.07517	100.01
3.09183	100.01
3.10850	100.01
3.12517	100.00
3.14183	100.01
3.15850	100.01
3.17517	100.01
3.19183	100.01
3.20850	100.01
3.22517	100.02
3.24183	100.02
3.25850	100.02
3.27517	100.02
3.29183	100.02
3.30850	100.02
3.32517	100.02
3.34183	100.02
3.35850	100.02
3.37517	100.02
3.39183	100.02
3.40850	100.02
3.42517	100.02
3.44183	100.03
3.45850	100.03
3.47517	100.03
3.49183	100.03
3.50850	100.03
3.52517	100.03
3.54183	100.03
3.55850	100.03
3.57517	100.03
3.59183	100.03
3.60850	100.03
3.62517	100.03
3.64183	100.03
3.65850	100.04
3.67517	100.03
3.69183	100.04
3.70850	100.04
3.72517	100.04
3.74183	100.04
3.75850	100.04
3.77517	100.04
3.79183	100.04
3.80850	100.04
3.82517	100.04
3.84183	100.04
3.85850	100.04
3.87517	100.04
3.89183	100.04
3.90850	100.04
3.92517	100.04
3.94183	100.04
3.95850	100.04
3.97517	100.05
3.99183	100.05

[Status Trace (Carrier Gas Pressure)]
Interval(msec)	1000
# of Points	240
Start Time(min)	0.009
End Time(min)	3.992
Intensity Units	
Intensity Multiplier	1
R.Time (min)	Intensity
0.00850	58.00
0.02517	55.30
0.04183	57.18
0.05850	59.23
0.07517	59.43
0.09183	58.06
0.10850	57.98
0.12517	58.01
0.14183	58.01
0.15850	58.01
0.17517	58.00
0.19183	58.00
0.20850	58.00
0.22517	58.00
0.24183	58.00
0.25850	58.00
0.27517	58.00
0.29183	58.00
0.30850	58.00
0.32517	58.00
0.34183	58.00
0.35850	58.00
0.37517	58.00
0.39183	58.00
0.40850	58.00
0.42517	58.00
0.44183	58.00
0.45850	58.00
0.47517	58.00
0.49183	58.00
0.50850	58.00
0.52517	58.00
0.54183	58.00
0.55850	58.00
0.57517	58.00
0.59183	58.00
0.60850	58.00
0.62517	58.00
0.64183	58.00
0.65850	58.00
0.67517	58.00
0.69183	58.00
0.70850	58.00
0.72517	58.00
0.74183	58.00
0.75850	58.00
0.77517	58.00
0.79183	58.00
0.80850	58.00
0.82517	58.00
0.84183	58.00
0.85850	58.00
0.87517	58.00
0.89183	58.00
0.90850	58.00
0.92517	58.00
0.94183	58.00
0.95850	58.00
0.97517	58.00
0.99183	58.00
1.00850	58.00
1.02517	58.00
1.04183	58.00
1.05850	58.00
1.07517	58.00
1.09183	58.00
1.10850	58.00
1.12517	58.00
1.14183	58.00
1.15850	58.00
1.17517	58.00
1.19183	58.00
1.20850	58.00
1.22517	58.00
1.24183	58.00
1.25850	58.00
1.27517	58.00
1.29183	58.00
1.30850	58.00
1.32517	58.00
1.34183	58.00
1.35850	58.00
1.37517	58.00
1.39183	58.00
1.40850	58.00
1.42517	58.00
1.44183	58.00
1.45850	58.00
1.47517	58.00
1.49183	58.00
1.50850	58.00
1.52517	58.00
1.54183	58.00
1.55850	58.00
1.57517	58.00
1.59183	58.00
1.60850	58.00
1.62517	58.00
1.64183	58.00
1.65850	58.00
1.67517	58.01
1.69183	58.00
1.70850	58.00
1.72517	58.00
1.74183	58.00
1.75850	58.00
1.77517	58.00
1.79183	58.00
1.80850	58.00
1.82517	58.00
1.84183	58.00
1.85850	58.00
1.87517	58.00
1.89183	58.00
1.90850	58.00
1.92517	58.00
1.94183	58.00
1.95850	58.00
1.97517	58.00
1.99183	58.00
2.00850	58.00
2.02517	58.00
2.04183	58.00
2.05850	58.00
2.07517	58.00
2.09183	58.00
2.10850	58.00
2.12517	58.00
2.14183	58.00
2.15850	58.00
2.17517	58.00
2.19183	58.00
2.20850	58.00
2.22517	58.00
2.24183	58.00
2.25850	58.00
2.27517	58.00
2.29183	58.00
2.30850	58.00
2.32517	58.00
2.34183	58.00
2.35850	58.00
2.37517	58.00
2.39183	57.99
2.40850	57.99
2.42517	58.00
2.44183	58.00
2.45850	58.00
2.47517	58.00
2.49183	58.00
2.50850	58.00
2.52517	57.99
2.54183	58.00
2.55850	58.00
2.57517	58.00
2.59183	58.00
2.60850	58.00
2.62517	58.00
2.64183	58.00
2.65850	58.00
2.67517	58.00
2.69183	58.00
2.70850	58.00
2.72517	58.00
2.74183	58.00
2.75850	58.00
2.77517	58.00
2.79183	58.00
2.80850	58.00
2.82517	58.00
2.84183	58.00
2.85850	58.00
2.87517	58.00
2.89183	58.00
2.90850	58.00
2.92517	58.00
2.94183	58.00
2.95850	58.00
2.97517	58.00
2.99183	58.00
3.00850	58.00
3.02517	58.00
3.04183	58.00
3.05850	58.00
3.07517	58.00
3.09183	58.00
3.10850	58.00
3.12517	58.00
3.14183	58.00
3.15850	58.00
3.17517	58.00
3.19183	58.00
3.20850	58.00
3.22517	58.00
3.24183	58.00
3.25850	58.00
3.27517	58.00
3.29183	58.00
3.30850	58.00
3.32517	58.00
3.34183	58.00
3.35850	58.00
3.37517	58.00
3.39183	58.00
3.40850	58.00
3.42517	58.00
3.44183	58.00
3.45850	58.00
3.47517	58.00
3.49183	58.00
3.50850	58.00
3.52517	58.00
3.54183	58.00
3.55850	58.00
3.57517	58.00
3.59183	58.00
3.60850	58.00
3.62517	58.00
3.64183	58.00
3.65850	58.00
3.67517	58.00
3.69183	58.00
3.70850	58.00
3.72517	58.00
3.74183	58.00
3.75850	58.00
3.77517	58.00
3.79183	58.00
3.80850	58.00
3.82517	58.00
3.84183	58.00
3.85850	58.00
3.87517	58.00
3.89183	58.00
3.90850	58.00
3.92517	58.00
3.94183	58.00
3.95850	58.00
3.97517	58.00
3.99183	58.00

[Status Trace (Carrier Gas Flow)]
Interval(msec)	1000
# of Points	240
Start Time(min)	0.009
End Time(min)	3.992
Intensity Units	
Intensity Multiplier	1
R.Time (min)	Intensity
0.00850	34.52
0.02517	34.54
0.04183	34.55
0.05850	34.55
0.07517	34.50
0.09183	34.51
0.10850	34.52
0.12517	34.51
0.14183	34.52
0.15850	34.52
0.17517	34.52
0.19183	34.52
0.20850	34.52
0.22517	34.52
0.24183	34.51
0.25850	34.52
0.27517	34.52
0.29183	34.52
0.30850	34.52
0.32517	34.52
0.34183	34.52
0.35850	34.52
0.37517	34.52
0.39183	34.52
0.40850	34.52
0.42517	34.52
0.44183	34.52
0.45850	34.51
0.47517	34.52
0.49183	34.52
0.50850	34.52
0.52517	34.52
0.54183	34.51
0.55850	34.52
0.57517	34.52
0.59183	34.52
0.60850	34.52
0.62517	34.52
0.64183	34.52
0.65850	34.52
0.67517	34.52
0.69183	34.52
0.70850	34.52
0.72517	34.52
0.74183	34.52
0.75850	34.51
0.77517	34.52
0.79183	34.52
0.80850	34.51
0.82517	34.51
0.84183	34.52
0.85850	34.52
0.87517	34.52
0.89183	34.51
0.90850	34.52
0.92517	34.52
0.94183	34.52
0.95850	34.52
0.97517	34.52
0.99183	34.52
1.00850	34.51
1.02517	34.52
1.04183	34.52
1.05850	34.52
1.07517	34.51
1.09183	34.52
1.10850	34.52
1.12517	34.52
1.14183	34.52
1.15850	34.51
1.17517	34.52
1.19183	34.52
1.20850	34.52
1.22517	34.52
1.24183	34.52
1.25850	34.53
1.27517	34.52
1.29183	34.52
1.30850	34.52
1.32517	34.52
1.34183	34.53
1.35850	34.52
1.37517	34.52
1.39183	34.52
1.40850	34.51
1.42517	34.52
1.44183	34.52
1.45850	34.52
1.47517	34.52
1.49183	34.52
1.50850	34.52
1.52517	34.51
1.54183	34.52
1.55850	34.52
1.57517	34.52
1.59183	34.52
1.60850	34.53
1.62517	34.52
1.64183	34.51
1.65850	34.52
1.67517	34.52
1.69183	34.52
1.70850	34.52
1.72517	34.52
1.74183	34.51
1.75850	34.51
1.77517	34.51
1.79183	34.52
1.80850	34.52
1.82517	34.52
1.84183	34.52
1.85850	34.52
1.87517	34.52
1.89183	34.51
1.90850	34.53
1.92517	34.53
1.94183	34.51
1.95850	34.52
1.97517	34.52
1.99183	34.52
2.00850	34.52
2.02517	34.52
2.04183	34.52
2.05850	34.52
2.07517	34.52
2.09183	34.52
2.10850	34.52
2.12517	34.51
2.14183	34.51
2.15850	34.52
2.17517	34.52
2.19183	34.51
2.20850	34.52
2.22517	34.52
2.24183	34.52
2.25850	34.52
2.27517	34.52
2.29183	34.51
2.30850	34.52
2.32517	34.52
2.34183	34.52
2.35850	34.52
2.37517	34.52
2.39183	34.51
2.40850	34.52
2.42517	34.52
2.44183	34.52
2.45850	34.52
2.47517	34.52
2.49183	34.52
2.50850	34.40
2.52517	34.51
2.54183	34.52
2.55850	34.52
2.57517	34.52
2.59183	34.51
2.60850	34.52
2.62517	34.52
2.64183	34.52
2.65850	34.52
2.67517	34.53
2.69183	34.51
2.70850	34.52
2.72517	34.52
2.74183	34.52
2.75850	34.51
2.77517	34.51
2.79183	34.52
2.80850	34.52
2.82517	34.52
2.84183	34.52
2.85850	34.52
2.87517	34.52
2.89183	34.51
2.90850	34.52
2.92517	34.52
2.94183	34.52
2.95850	34.52
2.97517	34.51
2.99183	34.51
3.00850	34.53
3.02517	34.52
3.04183	34.52
3.05850	34.52
3.07517	34.52
3.09183	34.52
3.10850	34.51
3.12517	34.51
3.14183	34.52
3.15850	34.52
3.17517	34.51
3.19183	34.52
3.20850	34.52
3.22517	34.52
3.24183	34.52
3.25850	34.52
3.27517	34.51
3.29183	34.51
3.30850	34.52
3.32517	34.52
3.34183	34.52
3.35850	34.52
3.37517	34.52
3.39183	34.52
3.40850	34.52
3.42517	34.52
3.44183	34.52
3.45850	34.52
3.47517	34.52
3.49183	34.52
3.50850	34.52
3.52517	34.52
3.54183	34.52
3.55850	34.52
3.57517	34.52
3.59183	34.52
3.60850	34.52
3.62517	34.52
3.64183	34.52
3.65850	34.52
3.67517	34.52
3.69183	34.52
3.70850	34.52
3.72517	34.52
3.74183	34.52
3.75850	34.52
3.77517	34.52
3.79183	34.52
3.80850	34.52
3.82517	34.52
3.84183	34.51
3.85850	34.52
3.87517	34.52
3.89183	34.53
3.90850	34.52
3.92517	34.52
3.94183	34.52
3.95850	34.51
3.97517	34.52
3.99183	34.52

[Status Trace (Column Flow)]
Interval(msec)	1000
# of Points	240
Start Time(min)	0.009
End Time(min)	3.992
Intensity Units	
Intensity Multiplier	1
R.Time (min)	Intensity
0.00850	5.51
0.02517	5.20
0.04183	5.42
0.05850	5.66
0.07517	5.68
0.09183	5.52
0.10850	5.51
0.12517	5.51
0.14183	5.51
0.15850	5.51
0.17517	5.51
0.19183	5.51
0.20850	5.51
0.22517	5.51
0.24183	5.51
0.25850	5.51
0.27517	5.51
0.29183	5.51
0.30850	5.51
0.32517	5.51
0.34183	5.51
0.35850	5.51
0.37517	5.51
0.39183	5.51
0.40850	5.51
0.42517	5.51
0.44183	5.51
0.45850	5.51
0.47517	5.51
0.49183	5.51
0.50850	5.51
0.52517	5.51
0.54183	5.51
0.55850	5.51
0.57517	5.51
0.59183	5.51
0.60850	5.51
0.62517	5.51
0.64183	5.52
0.65850	5.52
0.67517	5.52
0.69183	5.51
0.70850	5.51
0.72517	5.51
0.74183	5.51
0.75850	5.51
0.77517	5.51
0.79183	5.52
0.80850	5.51
0.82517	5.51
0.84183	5.52
0.85850	5.52
0.87517	5.52
0.89183	5.52
0.90850	5.52
0.92517	5.52
0.94183	5.51
0.95850	5.52
0.97517	5.52
0.99183	5.52
1.00850	5.51
1.02517	5.52
1.04183	5.52
1.05850	5.52
1.07517	5.52
1.09183	5.52
1.10850	5.52
1.12517	5.52
1.14183	5.52
1.15850	5.52
1.17517	5.51
1.19183	5.51
1.20850	5.51
1.22517	5.51
1.24183	5.51
1.25850	5.51
1.27517	5.52
1.29183	5.52
1.30850	5.52
1.32517	5.52
1.34183	5.52
1.35850	5.52
1.37517	5.52
1.39183	5.52
1.40850	5.52
1.42517	5.52
1.44183	5.52
1.45850	5.52
1.47517	5.52
1.49183	5.52
1.50850	5.52
1.52517	5.51
1.54183	5.51
1.55850	5.51
1.57517	5.51
1.59183	5.51
1.60850	5.51
1.62517	5.51
1.64183	5.50
1.65850	5.50
1.67517	5.48
1.69183	5.47
1.70850	5.46
1.72517	5.45
1.74183	5.44
1.75850	5.43
1.77517	5.42
1.79183	5.41
1.80850	5.40
1.82517	5.39
1.84183	5.38
1.85850	5.37
1.87517	5.36
1.89183	5.35
1.90850	5.34
1.92517	5.33
1.94183	5.32
1.95850	5.31
1.97517	5.30
1.99183	5.29
2.00850	5.28
2.02517	5.27
2.04183	5.26
2.05850	5.25
2.07517	5.24
2.09183	5.23
2.10850	5.23
2.12517	5.21
2.14183	5.21
2.15850	5.20
2.17517	5.19
2.19183	5.18
2.20850	5.17
2.22517	5.16
2.24183	5.15
2.25850	5.14
2.27517	5.13
2.29183	5.12
2.30850	5.11
2.32517	5.10
2.34183	5.09
2.35850	5.09
2.37517	5.08
2.39183	5.08
2.40850	5.08
2.42517	5.08
2.44183	5.08
2.45850	5.08
2.47517	5.08
2.49183	5.08
2.50850	5.08
2.52517	5.08
2.54183	5.08
2.55850	5.08
2.57517	5.08
2.59183	5.08
2.60850	5.08
2.62517	5.08
2.64183	5.08
2.65850	5.08
2.67517	5.08
2.69183	5.08
2.70850	5.08
2.72517	5.08
2.74183	5.08
2.75850	5.08
2.77517	5.08
2.79183	5.08
2.80850	5.08
2.82517	5.08
2.84183	5.07
2.85850	5.07
2.87517	5.07
2.89183	5.07
2.90850	5.07
2.92517	5.07
2.94183	5.07
2.95850	5.07
2.97517	5.07
2.99183	5.07
3.00850	5.07
3.02517	5.07
3.04183	5.07
3.05850	5.07
3.07517	5.07
3.09183	5.07
3.10850	5.07
3.12517	5.07
3.14183	5.07
3.15850	5.07
3.17517	5.07
3.19183	5.07
3.20850	5.07
3.22517	5.07
3.24183	5.07
3.25850	5.07
3.27517	5.07
3.29183	5.07
3.30850	5.07
3.32517	5.07
3.34183	5.07
3.35850	5.07
3.37517	5.07
3.39183	5.07
3.40850	5.07
3.42517	5.07
3.44183	5.07
3.45850	5.07
3.47517	5.07
3.49183	5.07
3.50850	5.07
3.52517	5.07
3.54183	5.07
3.55850	5.07
3.57517	5.07
3.59183	5.07
3.60850	5.07
3.62517	5.07
3.64183	5.07
3.65850	5.07
3.67517	5.07
3.69183	5.07
3.70850	5.07
3.72517	5.07
3.74183	5.07
3.75850	5.07
3.77517	5.07
3.79183	5.07
3.80850	5.07
3.82517	5.07
3.84183	5.07
3.85850	5.07
3.87517	5.07
3.89183	5.07
3.90850	5.07
3.92517	5.07
3.94183	5.07
3.95850	5.07
3.97517	5.07
3.99183	5.07

[Status Trace (Linear Velocity)]
Interval(msec)	1000
# of Points	240
Start Time(min)	0.009
End Time(min)	3.992
Intensity Units	
Intensity Multiplier	1
R.Time (min)	Intensity
0.00850	39.01
0.02517	37.24
0.04183	38.47
0.05850	39.81
0.07517	39.95
0.09183	39.05
0.10850	39.00
0.12517	39.02
0.14183	39.02
0.15850	39.02
0.17517	39.01
0.19183	39.01
0.20850	39.01
0.22517	39.01
0.24183	39.01
0.25850	39.01
0.27517	39.01
0.29183	39.01
0.30850	39.01
0.32517	39.01
0.34183	39.01
0.35850	39.01
0.37517	39.01
0.39183	39.01
0.40850	39.02
0.42517	39.02
0.44183	39.01
0.45850	39.01
0.47517	39.01
0.49183	39.01
0.50850	39.01
0.52517	39.01
0.54183	39.01
0.55850	39.01
0.57517	39.01
0.59183	39.02
0.60850	39.02
0.62517	39.02
0.64183	39.02
0.65850	39.02
0.67517	39.02
0.69183	39.02
0.70850	39.01
0.72517	39.01
0.74183	39.01
0.75850	39.01
0.77517	39.02
0.79183	39.02
0.80850	39.02
0.82517	39.02
0.84183	39.02
0.85850	39.02
0.87517	39.02
0.89183	39.02
0.90850	39.02
0.92517	39.02
0.94183	39.02
0.95850	39.02
0.97517	39.02
0.99183	39.02
1.00850	39.02
1.02517	39.02
1.04183	39.02
1.05850	39.02
1.07517	39.02
1.09183	39.02
1.10850	39.02
1.12517	39.02
1.14183	39.02
1.15850	39.02
1.17517	39.02
1.19183	39.01
1.20850	39.01
1.22517	39.01
1.24183	39.02
1.25850	39.02
1.27517	39.02
1.29183	39.02
1.30850	39.02
1.32517	39.02
1.34183	39.02
1.35850	39.02
1.37517	39.02
1.39183	39.02
1.40850	39.02
1.42517	39.02
1.44183	39.02
1.45850	39.02
1.47517	39.02
1.49183	39.02
1.50850	39.02
1.52517	39.01
1.54183	39.01
1.55850	39.01
1.57517	39.01
1.59183	39.01
1.60850	39.01
1.62517	39.00
1.64183	38.98
1.65850	38.96
1.67517	38.92
1.69183	38.89
1.70850	38.86
1.72517	38.82
1.74183	38.79
1.75850	38.76
1.77517	38.73
1.79183	38.70
1.80850	38.67
1.82517	38.63
1.84183	38.60
1.85850	38.57
1.87517	38.54
1.89183	38.51
1.90850	38.48
1.92517	38.45
1.94183	38.42
1.95850	38.39
1.97517	38.36
1.99183	38.32
2.00850	38.30
2.02517	38.26
2.04183	38.23
2.05850	38.21
2.07517	38.17
2.09183	38.14
2.10850	38.12
2.12517	38.08
2.14183	38.05
2.15850	38.03
2.17517	37.99
2.19183	37.96
2.20850	37.94
2.22517	37.91
2.24183	37.88
2.25850	37.85
2.27517	37.82
2.29183	37.79
2.30850	37.76
2.32517	37.73
2.34183	37.70
2.35850	37.68
2.37517	37.66
2.39183	37.66
2.40850	37.66
2.42517	37.66
2.44183	37.66
2.45850	37.66
2.47517	37.65
2.49183	37.65
2.50850	37.65
2.52517	37.64
2.54183	37.65
2.55850	37.65
2.57517	37.65
2.59183	37.65
2.60850	37.64
2.62517	37.64
2.64183	37.64
2.65850	37.64
2.67517	37.65
2.69183	37.64
2.70850	37.64
2.72517	37.64
2.74183	37.64
2.75850	37.64
2.77517	37.64
2.79183	37.64
2.80850	37.64
2.82517	37.64
2.84183	37.64
2.85850	37.64
2.87517	37.64
2.89183	37.64
2.90850	37.63
2.92517	37.63
2.94183	37.63
2.95850	37.63
2.97517	37.63
2.99183	37.63
3.00850	37.63
3.02517	37.63
3.04183	37.63
3.05850	37.62
3.07517	37.62
3.09183	37.62
3.10850	37.62
3.12517	37.62
3.14183	37.62
3.15850	37.62
3.17517	37.62
3.19183	37.62
3.20850	37.62
3.22517	37.62
3.24183	37.63
3.25850	37.63
3.27517	37.63
3.29183	37.63
3.30850	37.63
3.32517	37.63
3.34183	37.63
3.35850	37.63
3.37517	37.63
3.39183	37.63
3.40850	37.63
3.42517	37.62
3.44183	37.62
3.45850	37.62
3.47517	37.62
3.49183	37.62
3.50850	37.62
3.52517	37.62
3.54183	37.62
3.55850	37.63
3.57517	37.62
3.59183	37.62
3.60850	37.62
3.62517	37.62
3.64183	37.62
3.65850	37.62
3.67517	37.62
3.69183	37.62
3.70850	37.63
3.72517	37.63
3.74183	37.63
3.75850	37.63
3.77517	37.63
3.79183	37.63
3.80850	37.63
3.82517	37.63
3.84183	37.63
3.85850	37.63
3.87517	37.63
3.89183	37.63
3.90850	37.63
3.92517	37.63
3.94183	37.63
3.95850	37.63
3.97517	37.63
3.99183	37.63

