[Header]
Application Name	LabSolutions
Version	5.110
Data File Name	C:\Users\User\Desktop\Junior\UIC Prairie Sampling\2023\8.18.23\081823_054.gcd
Output Date	8/31/2023
Output Time	12:48:10 PM

[File Information]
Type	Data File
Generated	8/30/2023 9:54:10 PM
Generated by	System Administrator
Modified	8/30/2023 10:00:29 PM
Modified by	System Administrator

[Sample Information]
Operator Name	System Administrator
Acquired	8/30/2023 9:56:29 PM
Sample Type	0:Unknown
Level	0
Sample Name	054
Sample ID	054
ISTD Amount1	1
ISTD Amount2	1
ISTD Amount3	1
ISTD Amount4	1
ISTD Amount5	1
ISTD Amount6	1
ISTD Amount7	1
ISTD Amount8	1
ISTD Amount9	1
ISTD Amount10	1
ISTD Amount11	1
ISTD Amount12	1
ISTD Amount13	1
ISTD Amount14	1
ISTD Amount15	1
ISTD Amount16	1
ISTD Amount17	1
ISTD Amount18	1
ISTD Amount19	1
ISTD Amount20	1
ISTD Amount21	1
ISTD Amount22	1
ISTD Amount23	1
ISTD Amount24	1
ISTD Amount25	1
ISTD Amount26	1
ISTD Amount27	1
ISTD Amount28	1
ISTD Amount29	1
ISTD Amount30	1
ISTD Amount31	1
ISTD Amount32	1
Sample Amount	1
Dilution Factor	1
Vial#	53
Injection Volume	1
Injection Count	1
Bar Code	

[Original Files]
Data File	C:\Users\User\Desktop\Junior\UIC Prairie Sampling\8.18.23\081823_054.gcd
Method File	C:\LabSolutions\Data\GHG_4min_2022\ghg3_togas_w_acet_4 min_new_int.gcm
Batch File	C:\LabSolutions\Data\BATCH FILES\081823.gcb
Report Format File	c:\LabSolutions\System\DEFAULT.lsr

[File Description]


[Configuration]
Instrument Name	C0B7VH3-Instrument1
Instrument #	1
Line #	1
# of Detectors	3
Detector ID	DET#1	DET#2	DET#3
Detector Name	FID	PTCD	ECD
# of Channels	1	1	1

[Peak Table(Ch1)]
# of Peaks	3
Peak#	R.Time	I.Time	F.Time	Area	Height	A/H	Conc.	Mark	ID#	Name	k'	Plate #	Plate Ht.	Tailing	Resolution	Sep.Factor	Area Ratio	Height Ratio	Conc. %	Norm Conc.
1	1.498	1.468	1.523	1012	389	2.601	0.000	   	1	CO	0.000	769	195.157	0.000	0.000	0.000	0	0	0.000	0.000
2	1.564	1.523	1.703	6254	2481	2.521	30.490	 V 	2	CH4	0.044	9438	15.894	0.000	0.471	0.000	0	0	15.935	15.935
3	1.989	1.938	2.484	834626	396504	2.105	160.848	   	3	CO2	0.328	17553	8.545	1.329	6.836	7.444	0	0	84.065	84.065

[Peak Table(Ch2)]
# of Peaks	0

[Peak Table(Ch3)]
# of Peaks	5
Peak#	R.Time	I.Time	F.Time	Area	Height	A/H	Conc.	Mark	ID#	Name	k'	Plate #	Plate Ht.	Tailing	Resolution	Sep.Factor	Area Ratio	Height Ratio	Conc. %	Norm Conc.
1	2.458	2.396	2.510	874	313	2.794	0.000	   			0.000	13171	11.389	0.000	0.000	0.000	0	0	0.000	0.000
2	2.524	2.510	2.579	296	128	2.316	0.000	 V 			0.027	7555	19.854	0.000	0.654	0.000	0	0	0.000	0.000
3	2.627	2.579	2.664	230	73	3.152	0.000	 V 			0.069	14427	10.397	0.000	1.008	2.556	0	0	0.000	0.000
4	2.891	2.755	3.030	14403	3957	3.640	0.213	   	1	N2O	0.176	14034	10.689	1.486	2.853	2.565	0	0	100.000	100.000
5	3.287	3.214	3.965	18996	885	21.458	0.000	   			0.337	287	522.129	5.175	0.907	1.915	0	0	0.000	0.000

[Compound Results(Ch1)]
# of IDs	6
ID#	Name	R.Time	Area	Height	Conc.	Curve	3rd	2nd	1st	Constant	Area Ratio	Height Ratio	Conc. %	Norm Conc.
1	CO	1.498	1012	389	0.000	Linear	0.000000e+00	0.000000e+00	0.000000e+00	0.000000e+00	0	0	0.000	0.000
2	CH4	1.564	6254	2481	30.490	Linear	0.000000e+00	0.000000e+00	2.051179e+002	0.000000e+00	0	0	15.935	15.935
3	CO2	1.989	834626	396504	160.848	Linear	0.000000e+00	0.000000e+00	5.188919e+003	0.000000e+00	0	0	84.065	84.065
4	Ethylene	0.000	0	0	0.000	Linear	0.000000e+00	0.000000e+00	0.000000e+00	0.000000e+00	0	0	0.000	0.000
5	Acetylene	0.000	0	0	0.000	Linear	0.000000e+00	0.000000e+00	0.000000e+00	0.000000e+00	0	0	0.000	0.000
6	Ethane	0.000	0	0	0.000	Linear	0.000000e+00	0.000000e+00	0.000000e+00	0.000000e+00	0	0	0.000	0.000

[Compound Results(Ch2)]
# of IDs	5
ID#	Name	R.Time	Area	Height	Conc.	Curve	3rd	2nd	1st	Constant	Area Ratio	Height Ratio	Conc. %	Norm Conc.
1	Hydrogen	0.000	0	0	0.000	Linear	0.000000e+00	0.000000e+00	0.000000e+00	0.000000e+00	0	0	0.000	0.000
2	Oxygen	0.000	0	0	0.000	Linear	0.000000e+00	0.000000e+00	0.000000e+00	0.000000e+00	0	0	0.000	0.000
3	Nitrogen	0.000	0	0	0.000	Linear	0.000000e+00	0.000000e+00	0.000000e+00	0.000000e+00	0	0	0.000	0.000
4	Methane	0.000	0	0	0.000	Linear	0.000000e+00	0.000000e+00	0.000000e+00	0.000000e+00	0	0	0.000	0.000
5	Carbon Monoxide	0.000	0	0	0.000	Linear	0.000000e+00	0.000000e+00	0.000000e+00	0.000000e+00	0	0	0.000	0.000

[Compound Results(Ch3)]
# of IDs	2
ID#	Name	R.Time	Area	Height	Conc.	Curve	3rd	2nd	1st	Constant	Area Ratio	Height Ratio	Conc. %	Norm Conc.
1	N2O	2.891	14403	3957	0.213	Linear	0.000000e+00	0.000000e+00	6.759880e+004	0.000000e+00	0	0	100.000	100.000
2	SF6	0.000	0	0	0.000	Linear	0.000000e+00	0.000000e+00	0.000000e+00	0.000000e+00	0	0	0.000	0.000

[Group Results(Ch1)]
# of Groups	0

[Group Results(Ch2)]
# of Groups	0

[Group Results(Ch3)]
# of Groups	0

[Chromatogram (Ch1)]
Interval(msec)	220
# of Points	1091
Start Time(min)	0.002
End Time(min)	3.998
R.Time (min)	Intensity
0.00167	24
0.00533	20
0.00900	16
0.01267	11
0.01633	7
0.02000	3
0.02367	0
0.02733	-2
0.03100	-2
0.03467	-0
0.03833	2
0.04200	5
0.04567	8
0.04933	13
0.05300	20
0.05667	25
0.06033	26
0.06400	26
0.06767	27
0.07133	30
0.07500	32
0.07867	32
0.08233	29
0.08600	26
0.08967	23
0.09333	20
0.09700	17
0.10067	15
0.10433	16
0.10800	21
0.11167	25
0.11533	26
0.11900	23
0.12267	18
0.12633	14
0.13000	12
0.13367	11
0.13733	12
0.14100	13
0.14467	12
0.14833	12
0.15200	13
0.15567	15
0.15933	15
0.16300	14
0.16667	13
0.17033	11
0.17400	9
0.17767	8
0.18133	8
0.18500	8
0.18867	8
0.19233	10
0.19600	12
0.19967	15
0.20333	15
0.20700	14
0.21067	14
0.21433	15
0.21800	14
0.22167	11
0.22533	8
0.22900	5
0.23267	3
0.23633	5
0.24000	9
0.24367	12
0.24733	14
0.25100	14
0.25467	15
0.25833	16
0.26200	14
0.26567	11
0.26933	7
0.27300	3
0.27667	0
0.28033	-0
0.28400	1
0.28767	3
0.29133	6
0.29500	6
0.29867	4
0.30233	4
0.30600	3
0.30967	1
0.31333	-0
0.31700	-1
0.32067	-0
0.32433	2
0.32800	3
0.33167	6
0.33533	8
0.33900	10
0.34267	11
0.34633	12
0.35000	12
0.35367	11
0.35733	10
0.36100	8
0.36467	7
0.36833	8
0.37200	9
0.37567	11
0.37933	12
0.38300	9
0.38667	6
0.39033	6
0.39400	3
0.39767	-2
0.40133	-7
0.40500	-7
0.40867	-3
0.41233	-0
0.41600	-3
0.41967	-6
0.42333	-5
0.42700	-2
0.43067	-2
0.43433	-5
0.43800	-7
0.44167	-11
0.44533	-14
0.44900	-12
0.45267	-8
0.45633	-4
0.46000	1
0.46367	7
0.46733	9
0.47100	7
0.47467	5
0.47833	5
0.48200	6
0.48567	6
0.48933	3
0.49300	3
0.49667	4
0.50033	5
0.50400	3
0.50767	1
0.51133	1
0.51500	2
0.51867	1
0.52233	-2
0.52600	-6
0.52967	-11
0.53333	-14
0.53700	-18
0.54067	-21
0.54433	-21
0.54800	-17
0.55167	-14
0.55533	-15
0.55900	-15
0.56267	-15
0.56633	-12
0.57000	-7
0.57367	-1
0.57733	3
0.58100	4
0.58467	2
0.58833	1
0.59200	0
0.59567	-1
0.59933	1
0.60300	2
0.60667	1
0.61033	2
0.61400	10
0.61767	20
0.62133	27
0.62500	29
0.62867	29
0.63233	26
0.63600	19
0.63967	12
0.64333	9
0.64700	10
0.65067	13
0.65433	14
0.65800	14
0.66167	13
0.66533	9
0.66900	1
0.67267	-7
0.67633	-11
0.68000	-13
0.68367	-13
0.68733	-10
0.69100	-7
0.69467	-4
0.69833	-7
0.70200	-7
0.70567	-2
0.70933	3
0.71300	4
0.71667	-1
0.72033	-5
0.72400	-3
0.72767	1
0.73133	5
0.73500	6
0.73867	4
0.74233	-0
0.74600	-3
0.74967	-5
0.75333	-7
0.75700	-8
0.76067	-10
0.76433	-11
0.76800	-9
0.77167	-5
0.77533	-4
0.77900	-3
0.78267	-1
0.78633	1
0.79000	2
0.79367	3
0.79733	2
0.80100	1
0.80467	2
0.80833	2
0.81200	1
0.81567	-2
0.81933	-5
0.82300	-3
0.82667	-1
0.83033	2
0.83400	2
0.83767	3
0.84133	4
0.84500	5
0.84867	4
0.85233	-0
0.85600	-7
0.85967	-14
0.86333	-18
0.86700	-19
0.87067	-19
0.87433	-22
0.87800	-22
0.88167	-20
0.88533	-19
0.88900	-17
0.89267	-13
0.89633	-10
0.90000	-7
0.90367	-3
0.90733	-1
0.91100	-1
0.91467	-5
0.91833	-11
0.92200	-14
0.92567	-14
0.92933	-11
0.93300	-8
0.93667	-6
0.94033	-5
0.94400	-7
0.94767	-10
0.95133	-9
0.95500	-8
0.95867	-6
0.96233	-5
0.96600	-5
0.96967	-5
0.97333	-4
0.97700	-5
0.98067	-6
0.98433	-3
0.98800	2
0.99167	3
0.99533	-3
0.99900	-11
1.00267	-19
1.00633	-24
1.01000	-29
1.01367	-31
1.01733	-27
1.02100	-17
1.02467	-7
1.02833	2
1.03200	9
1.03567	13
1.03933	14
1.04300	15
1.04667	16
1.05033	13
1.05400	8
1.05767	2
1.06133	-1
1.06500	-2
1.06867	-4
1.07233	-8
1.07600	-12
1.07967	-14
1.08333	-14
1.08700	-11
1.09067	-9
1.09433	-5
1.09800	-2
1.10167	-0
1.10533	8
1.10900	19
1.11267	29
1.11633	37
1.12000	42
1.12367	41
1.12733	35
1.13100	27
1.13467	19
1.13833	11
1.14200	4
1.14567	-1
1.14933	-4
1.15300	-8
1.15667	-11
1.16033	-11
1.16400	-11
1.16767	-10
1.17133	-5
1.17500	-0
1.17867	-0
1.18233	-3
1.18600	-1
1.18967	3
1.19333	4
1.19700	-1
1.20067	-10
1.20433	-19
1.20800	-25
1.21167	-26
1.21533	-24
1.21900	-20
1.22267	-14
1.22633	-7
1.23000	-4
1.23367	-5
1.23733	-7
1.24100	-8
1.24467	-7
1.24833	-2
1.25200	2
1.25567	2
1.25933	0
1.26300	0
1.26667	2
1.27033	6
1.27400	9
1.27767	7
1.28133	1
1.28500	-5
1.28867	-5
1.29233	-2
1.29600	2
1.29967	3
1.30333	5
1.30700	7
1.31067	5
1.31433	-1
1.31800	-13
1.32167	-26
1.32533	-34
1.32900	-38
1.33267	-41
1.33633	-40
1.34000	-35
1.34367	-27
1.34733	-22
1.35100	-19
1.35467	-16
1.35833	-13
1.36200	-14
1.36567	-13
1.36933	-10
1.37300	-5
1.37667	-2
1.38033	-2
1.38400	-4
1.38767	-5
1.39133	-6
1.39500	-7
1.39867	-7
1.40233	-9
1.40600	-14
1.40967	-16
1.41333	-12
1.41700	-8
1.42067	-7
1.42433	-7
1.42800	-8
1.43167	-7
1.43533	-0
1.43900	6
1.44267	-24
1.44633	-109
1.45000	-217
1.45367	-314
1.45733	-392
1.46100	-448
1.46467	-466
1.46833	-439
1.47200	-371
1.47567	-282
1.47933	-197
1.48300	-127
1.48667	-74
1.49033	-36
1.49400	-12
1.49767	1
1.50133	8
1.50500	10
1.50867	10
1.51233	10
1.51600	8
1.51967	5
1.52333	5
1.52700	7
1.53067	15
1.53433	53
1.53800	175
1.54167	438
1.54533	832
1.54900	1273
1.55267	1674
1.55633	1984
1.56000	2173
1.56367	2209
1.56733	2074
1.57100	1791
1.57467	1434
1.57833	1078
1.58200	767
1.58567	521
1.58933	341
1.59300	217
1.59667	137
1.60033	88
1.60400	57
1.60767	37
1.61133	25
1.61500	16
1.61867	9
1.62233	6
1.62600	6
1.62967	5
1.63333	4
1.63700	4
1.64067	4
1.64433	2
1.64800	-2
1.65167	-7
1.65533	-9
1.65900	-10
1.66267	-10
1.66633	-10
1.67000	-11
1.67367	-12
1.67733	-8
1.68100	-0
1.68467	5
1.68833	6
1.69200	3
1.69567	-7
1.69933	-20
1.70300	-28
1.70667	-28
1.71033	-23
1.71400	-18
1.71767	-13
1.72133	-10
1.72500	-10
1.72867	-8
1.73233	-7
1.73600	-4
1.73967	0
1.74333	4
1.74700	5
1.75067	1
1.75433	-4
1.75800	-6
1.76167	-6
1.76533	-4
1.76900	-1
1.77267	-3
1.77633	-9
1.78000	-12
1.78367	-10
1.78733	-4
1.79100	3
1.79467	6
1.79833	8
1.80200	10
1.80567	14
1.80933	17
1.81300	16
1.81667	13
1.82033	9
1.82400	4
1.82767	-2
1.83133	-8
1.83500	-18
1.83867	-27
1.84233	-30
1.84600	-26
1.84967	-20
1.85333	-10
1.85700	-1
1.86067	5
1.86433	3
1.86800	-2
1.87167	-7
1.87533	-10
1.87900	-12
1.88267	-13
1.88633	-13
1.89000	-12
1.89367	-12
1.89733	-13
1.90100	-14
1.90467	-14
1.90833	-11
1.91200	-7
1.91567	-4
1.91933	-5
1.92300	-7
1.92667	-7
1.93033	-7
1.93400	-7
1.93767	-4
1.94133	3
1.94500	16
1.94867	72
1.95233	387
1.95600	1867
1.95967	7197
1.96333	21739
1.96700	52432
1.97067	103573
1.97433	172207
1.97800	248000
1.98167	317804
1.98533	369991
1.98900	396523
1.99267	393736
1.99633	363464
2.00000	313230
2.00367	253759
2.00733	195143
2.01100	144108
2.01467	103432
2.01833	72989
2.02200	51182
2.02567	36016
2.02933	25659
2.03300	18648
2.03667	13909
2.04033	10689
2.04400	8474
2.04767	6919
2.05133	5804
2.05500	4985
2.05867	4369
2.06233	3893
2.06600	3513
2.06967	3206
2.07333	2953
2.07700	2740
2.08067	2558
2.08433	2398
2.08800	2257
2.09167	2132
2.09533	2022
2.09900	1920
2.10267	1826
2.10633	1740
2.11000	1661
2.11367	1587
2.11733	1523
2.12100	1468
2.12467	1419
2.12833	1372
2.13200	1325
2.13567	1279
2.13933	1234
2.14300	1187
2.14667	1140
2.15033	1099
2.15400	1064
2.15767	1033
2.16133	1001
2.16500	967
2.16867	934
2.17233	906
2.17600	881
2.17967	861
2.18333	841
2.18700	819
2.19067	795
2.19433	775
2.19800	761
2.20167	750
2.20533	738
2.20900	724
2.21267	708
2.21633	690
2.22000	673
2.22367	656
2.22733	640
2.23100	623
2.23467	607
2.23833	593
2.24200	579
2.24567	570
2.24933	560
2.25300	549
2.25667	537
2.26033	524
2.26400	514
2.26767	504
2.27133	498
2.27500	495
2.27867	494
2.28233	493
2.28600	489
2.28967	480
2.29333	468
2.29700	458
2.30067	452
2.30433	446
2.30800	439
2.31167	431
2.31533	421
2.31900	413
2.32267	407
2.32633	402
2.33000	397
2.33367	390
2.33733	381
2.34100	373
2.34467	364
2.34833	355
2.35200	349
2.35567	349
2.35933	353
2.36300	362
2.36667	367
2.37033	364
2.37400	359
2.37767	353
2.38133	343
2.38500	330
2.38867	321
2.39233	315
2.39600	312
2.39967	315
2.40333	319
2.40700	319
2.41067	315
2.41433	310
2.41800	304
2.42167	296
2.42533	288
2.42900	282
2.43267	280
2.43633	282
2.44000	284
2.44367	284
2.44733	282
2.45100	278
2.45467	273
2.45833	269
2.46200	266
2.46567	262
2.46933	259
2.47300	257
2.47667	253
2.48033	248
2.48400	247
2.48767	249
2.49133	252
2.49500	253
2.49867	250
2.50233	247
2.50600	244
2.50967	244
2.51333	243
2.51700	245
2.52067	249
2.52433	251
2.52800	247
2.53167	240
2.53533	233
2.53900	229
2.54267	230
2.54633	233
2.55000	234
2.55367	232
2.55733	228
2.56100	224
2.56467	220
2.56833	216
2.57200	213
2.57567	212
2.57933	214
2.58300	216
2.58667	215
2.59033	213
2.59400	210
2.59767	208
2.60133	210
2.60500	215
2.60867	219
2.61233	222
2.61600	225
2.61967	222
2.62333	218
2.62700	216
2.63067	212
2.63433	209
2.63800	211
2.64167	213
2.64533	211
2.64900	208
2.65267	204
2.65633	203
2.66000	203
2.66367	201
2.66733	198
2.67100	196
2.67467	196
2.67833	196
2.68200	196
2.68567	197
2.68933	200
2.69300	201
2.69667	201
2.70033	197
2.70400	192
2.70767	189
2.71133	189
2.71500	193
2.71867	199
2.72233	208
2.72600	212
2.72967	212
2.73333	212
2.73700	210
2.74067	206
2.74433	200
2.74800	196
2.75167	193
2.75533	191
2.75900	190
2.76267	190
2.76633	191
2.77000	193
2.77367	197
2.77733	201
2.78100	204
2.78467	204
2.78833	204
2.79200	205
2.79567	205
2.79933	203
2.80300	198
2.80667	192
2.81033	189
2.81400	188
2.81767	189
2.82133	190
2.82500	189
2.82867	184
2.83233	181
2.83600	181
2.83967	184
2.84333	187
2.84700	191
2.85067	196
2.85433	204
2.85800	209
2.86167	210
2.86533	211
2.86900	215
2.87267	221
2.87633	224
2.88000	223
2.88367	220
2.88733	215
2.89100	209
2.89467	202
2.89833	194
2.90200	188
2.90567	183
2.90933	179
2.91300	180
2.91667	184
2.92033	190
2.92400	198
2.92767	203
2.93133	200
2.93500	196
2.93867	193
2.94233	190
2.94600	187
2.94967	186
2.95333	187
2.95700	189
2.96067	191
2.96433	192
2.96800	190
2.97167	189
2.97533	191
2.97900	195
2.98267	201
2.98633	208
2.99000	214
2.99367	220
2.99733	225
3.00100	226
3.00467	225
3.00833	220
3.01200	214
3.01567	209
3.01933	206
3.02300	204
3.02667	200
3.03033	195
3.03400	188
3.03767	184
3.04133	185
3.04500	190
3.04867	195
3.05233	199
3.05600	204
3.05967	208
3.06333	210
3.06700	210
3.07067	210
3.07433	207
3.07800	201
3.08167	198
3.08533	199
3.08900	201
3.09267	205
3.09633	206
3.10000	200
3.10367	195
3.10733	194
3.11100	196
3.11467	196
3.11833	196
3.12200	196
3.12567	196
3.12933	195
3.13300	194
3.13667	195
3.14033	195
3.14400	195
3.14767	198
3.15133	198
3.15500	197
3.15867	197
3.16233	196
3.16600	196
3.16967	200
3.17333	204
3.17700	205
3.18067	202
3.18433	198
3.18800	198
3.19167	201
3.19533	207
3.19900	214
3.20267	222
3.20633	224
3.21000	222
3.21367	221
3.21733	219
3.22100	215
3.22467	208
3.22833	202
3.23200	199
3.23567	198
3.23933	200
3.24300	203
3.24667	206
3.25033	208
3.25400	209
3.25767	207
3.26133	208
3.26500	213
3.26867	217
3.27233	219
3.27600	219
3.27967	220
3.28333	220
3.28700	218
3.29067	216
3.29433	216
3.29800	214
3.30167	209
3.30533	205
3.30900	205
3.31267	208
3.31633	210
3.32000	211
3.32367	208
3.32733	204
3.33100	202
3.33467	204
3.33833	204
3.34200	197
3.34567	190
3.34933	184
3.35300	180
3.35667	179
3.36033	183
3.36400	190
3.36767	195
3.37133	202
3.37500	209
3.37867	216
3.38233	220
3.38600	221
3.38967	216
3.39333	213
3.39700	212
3.40067	212
3.40433	209
3.40800	208
3.41167	208
3.41533	210
3.41900	212
3.42267	214
3.42633	215
3.43000	218
3.43367	220
3.43733	220
3.44100	219
3.44467	219
3.44833	217
3.45200	216
3.45567	216
3.45933	215
3.46300	210
3.46667	200
3.47033	193
3.47400	191
3.47767	190
3.48133	190
3.48500	191
3.48867	193
3.49233	194
3.49600	199
3.49967	206
3.50333	212
3.50700	214
3.51067	213
3.51433	210
3.51800	206
3.52167	204
3.52533	204
3.52900	206
3.53267	210
3.53633	211
3.54000	208
3.54367	201
3.54733	195
3.55100	192
3.55467	191
3.55833	191
3.56200	190
3.56567	189
3.56933	187
3.57300	187
3.57667	188
3.58033	189
3.58400	189
3.58767	192
3.59133	194
3.59500	197
3.59867	197
3.60233	189
3.60600	179
3.60967	174
3.61333	175
3.61700	177
3.62067	179
3.62433	181
3.62800	182
3.63167	184
3.63533	187
3.63900	189
3.64267	187
3.64633	182
3.65000	176
3.65367	174
3.65733	177
3.66100	181
3.66467	183
3.66833	183
3.67200	184
3.67567	182
3.67933	177
3.68300	175
3.68667	178
3.69033	183
3.69400	186
3.69767	185
3.70133	184
3.70500	182
3.70867	181
3.71233	181
3.71600	182
3.71967	185
3.72333	186
3.72700	186
3.73067	187
3.73433	189
3.73800	192
3.74167	194
3.74533	194
3.74900	195
3.75267	195
3.75633	196
3.76000	196
3.76367	195
3.76733	195
3.77100	194
3.77467	191
3.77833	184
3.78200	178
3.78567	170
3.78933	166
3.79300	164
3.79667	162
3.80033	159
3.80400	154
3.80767	154
3.81133	156
3.81500	159
3.81867	163
3.82233	170
3.82600	177
3.82967	180
3.83333	179
3.83700	173
3.84067	167
3.84433	164
3.84800	164
3.85167	163
3.85533	163
3.85900	163
3.86267	165
3.86633	165
3.87000	163
3.87367	161
3.87733	159
3.88100	161
3.88467	167
3.88833	177
3.89200	184
3.89567	187
3.89933	188
3.90300	185
3.90667	181
3.91033	181
3.91400	180
3.91767	179
3.92133	174
3.92500	165
3.92867	155
3.93233	144
3.93600	136
3.93967	135
3.94333	142
3.94700	149
3.95067	155
3.95433	161
3.95800	168
3.96167	170
3.96533	170
3.96900	168
3.97267	166
3.97633	165
3.98000	163
3.98367	161
3.98733	161
3.99100	163
3.99467	164
3.99833	163

[Chromatogram (Ch2)]
Interval(msec)	220
# of Points	1091
Start Time(min)	0.002
End Time(min)	3.998
R.Time (min)	Intensity
0.00167	-0
0.00533	-1
0.00900	-1
0.01267	-1
0.01633	-0
0.02000	-0
0.02367	0
0.02733	0
0.03100	1
0.03467	1
0.03833	1
0.04200	1
0.04567	1
0.04933	1
0.05300	0
0.05667	0
0.06033	-0
0.06400	-1
0.06767	-1
0.07133	-2
0.07500	-2
0.07867	-2
0.08233	-2
0.08600	-2
0.08967	-1
0.09333	-1
0.09700	-1
0.10067	-1
0.10433	-1
0.10800	-0
0.11167	-0
0.11533	0
0.11900	1
0.12267	1
0.12633	2
0.13000	2
0.13367	2
0.13733	2
0.14100	2
0.14467	2
0.14833	2
0.15200	2
0.15567	2
0.15933	2
0.16300	2
0.16667	2
0.17033	1
0.17400	1
0.17767	1
0.18133	1
0.18500	1
0.18867	1
0.19233	1
0.19600	1
0.19967	1
0.20333	0
0.20700	0
0.21067	-0
0.21433	-0
0.21800	-0
0.22167	-0
0.22533	-1
0.22900	-1
0.23267	-1
0.23633	-1
0.24000	-1
0.24367	-1
0.24733	-0
0.25100	-1
0.25467	-1
0.25833	-1
0.26200	-1
0.26567	-1
0.26933	-1
0.27300	-1
0.27667	-1
0.28033	-1
0.28400	-1
0.28767	-2
0.29133	-2
0.29500	-2
0.29867	-2
0.30233	-2
0.30600	-1
0.30967	-1
0.31333	-1
0.31700	-1
0.32067	-1
0.32433	-1
0.32800	-1
0.33167	-1
0.33533	-1
0.33900	-1
0.34267	-1
0.34633	-1
0.35000	-2
0.35367	-2
0.35733	-2
0.36100	-1
0.36467	-1
0.36833	-1
0.37200	-1
0.37567	-1
0.37933	-1
0.38300	-1
0.38667	-1
0.39033	-0
0.39400	-0
0.39767	0
0.40133	0
0.40500	0
0.40867	0
0.41233	0
0.41600	-0
0.41967	-0
0.42333	-1
0.42700	-1
0.43067	-1
0.43433	-1
0.43800	-1
0.44167	-1
0.44533	-1
0.44900	-2
0.45267	-2
0.45633	-2
0.46000	-2
0.46367	-2
0.46733	-2
0.47100	-2
0.47467	-1
0.47833	-1
0.48200	-1
0.48567	-1
0.48933	-1
0.49300	-1
0.49667	-1
0.50033	-1
0.50400	-1
0.50767	-1
0.51133	-1
0.51500	-1
0.51867	-1
0.52233	-1
0.52600	-1
0.52967	-1
0.53333	-1
0.53700	-1
0.54067	-1
0.54433	-1
0.54800	-1
0.55167	-1
0.55533	-1
0.55900	-1
0.56267	-1
0.56633	-1
0.57000	-1
0.57367	-1
0.57733	-1
0.58100	-2
0.58467	-2
0.58833	-2
0.59200	-2
0.59567	-2
0.59933	-2
0.60300	-2
0.60667	-2
0.61033	-2
0.61400	-3
0.61767	-3
0.62133	-4
0.62500	-4
0.62867	-4
0.63233	-4
0.63600	-4
0.63967	-4
0.64333	-5
0.64700	-5
0.65067	-5
0.65433	-5
0.65800	-5
0.66167	-5
0.66533	-5
0.66900	-4
0.67267	-4
0.67633	-4
0.68000	-3
0.68367	-3
0.68733	-3
0.69100	-2
0.69467	-2
0.69833	-2
0.70200	-2
0.70567	-2
0.70933	-2
0.71300	-1
0.71667	-1
0.72033	-1
0.72400	-1
0.72767	-1
0.73133	-1
0.73500	-1
0.73867	-0
0.74233	-0
0.74600	-0
0.74967	0
0.75333	-0
0.75700	-0
0.76067	-1
0.76433	-1
0.76800	-1
0.77167	-1
0.77533	-2
0.77900	-2
0.78267	-2
0.78633	-2
0.79000	-2
0.79367	-2
0.79733	-2
0.80100	-2
0.80467	-2
0.80833	-2
0.81200	-2
0.81567	-2
0.81933	-2
0.82300	-2
0.82667	-2
0.83033	-2
0.83400	-2
0.83767	-2
0.84133	-2
0.84500	-2
0.84867	-2
0.85233	-2
0.85600	-2
0.85967	-2
0.86333	-3
0.86700	-3
0.87067	-3
0.87433	-3
0.87800	-3
0.88167	-3
0.88533	-3
0.88900	-3
0.89267	-3
0.89633	-3
0.90000	-3
0.90367	-2
0.90733	-2
0.91100	-2
0.91467	-2
0.91833	-3
0.92200	-3
0.92567	-3
0.92933	-3
0.93300	-3
0.93667	-3
0.94033	-3
0.94400	-2
0.94767	-2
0.95133	-2
0.95500	-2
0.95867	-2
0.96233	-2
0.96600	-2
0.96967	-2
0.97333	-1
0.97700	-1
0.98067	-1
0.98433	-1
0.98800	-1
0.99167	-1
0.99533	-1
0.99900	-1
1.00267	-1
1.00633	-1
1.01000	-2
1.01367	-2
1.01733	-2
1.02100	-2
1.02467	-3
1.02833	-3
1.03200	-3
1.03567	-3
1.03933	-3
1.04300	-3
1.04667	-3
1.05033	-3
1.05400	-3
1.05767	-3
1.06133	-3
1.06500	-3
1.06867	-3
1.07233	-3
1.07600	-3
1.07967	-3
1.08333	-3
1.08700	-3
1.09067	-3
1.09433	-3
1.09800	-3
1.10167	-3
1.10533	-3
1.10900	-3
1.11267	-3
1.11633	-3
1.12000	-3
1.12367	-3
1.12733	-3
1.13100	-2
1.13467	-2
1.13833	-2
1.14200	-2
1.14567	-2
1.14933	-2
1.15300	-2
1.15667	-3
1.16033	-3
1.16400	-3
1.16767	-3
1.17133	-3
1.17500	-3
1.17867	-3
1.18233	-3
1.18600	-3
1.18967	-3
1.19333	-3
1.19700	-3
1.20067	-3
1.20433	-3
1.20800	-3
1.21167	-3
1.21533	-3
1.21900	-3
1.22267	-3
1.22633	-3
1.23000	-3
1.23367	-2
1.23733	-2
1.24100	-3
1.24467	-3
1.24833	-3
1.25200	-2
1.25567	-2
1.25933	-2
1.26300	-2
1.26667	-2
1.27033	-3
1.27400	-3
1.27767	-3
1.28133	-4
1.28500	-4
1.28867	-4
1.29233	-4
1.29600	-5
1.29967	-5
1.30333	-5
1.30700	-5
1.31067	-5
1.31433	-5
1.31800	-5
1.32167	-5
1.32533	-5
1.32900	-4
1.33267	-4
1.33633	-4
1.34000	-4
1.34367	-4
1.34733	-4
1.35100	-4
1.35467	-4
1.35833	-4
1.36200	-4
1.36567	-4
1.36933	-4
1.37300	-4
1.37667	-4
1.38033	-4
1.38400	-4
1.38767	-4
1.39133	-4
1.39500	-4
1.39867	-4
1.40233	-4
1.40600	-4
1.40967	-3
1.41333	-3
1.41700	-3
1.42067	-3
1.42433	-3
1.42800	-3
1.43167	-3
1.43533	-2
1.43900	-2
1.44267	-2
1.44633	-2
1.45000	-2
1.45367	-2
1.45733	-2
1.46100	-2
1.46467	-2
1.46833	-2
1.47200	-2
1.47567	-2
1.47933	-2
1.48300	-2
1.48667	-3
1.49033	-3
1.49400	-3
1.49767	-3
1.50133	-3
1.50500	-4
1.50867	-4
1.51233	-4
1.51600	-4
1.51967	-4
1.52333	-5
1.52700	-5
1.53067	-5
1.53433	-5
1.53800	-5
1.54167	-5
1.54533	-5
1.54900	-5
1.55267	-5
1.55633	-5
1.56000	-5
1.56367	-5
1.56733	-5
1.57100	-5
1.57467	-5
1.57833	-5
1.58200	-5
1.58567	-6
1.58933	-6
1.59300	-7
1.59667	-7
1.60033	-8
1.60400	-9
1.60767	-11
1.61133	-12
1.61500	-14
1.61867	-16
1.62233	-18
1.62600	-21
1.62967	-24
1.63333	-27
1.63700	-30
1.64067	-33
1.64433	-36
1.64800	-39
1.65167	-42
1.65533	-45
1.65900	-49
1.66267	-52
1.66633	-56
1.67000	-60
1.67367	-65
1.67733	-70
1.68100	-75
1.68467	-79
1.68833	-84
1.69200	-88
1.69567	-91
1.69933	-94
1.70300	-97
1.70667	-98
1.71033	-99
1.71400	-100
1.71767	-101
1.72133	-100
1.72500	-100
1.72867	-99
1.73233	-98
1.73600	-98
1.73967	-97
1.74333	-96
1.74700	-95
1.75067	-94
1.75433	-93
1.75800	-93
1.76167	-92
1.76533	-92
1.76900	-92
1.77267	-93
1.77633	-94
1.78000	-95
1.78367	-97
1.78733	-98
1.79100	-99
1.79467	-100
1.79833	-100
1.80200	-101
1.80567	-102
1.80933	-102
1.81300	-103
1.81667	-103
1.82033	-103
1.82400	-103
1.82767	-102
1.83133	-101
1.83500	-100
1.83867	-100
1.84233	-100
1.84600	-100
1.84967	-100
1.85333	-100
1.85700	-100
1.86067	-100
1.86433	-100
1.86800	-100
1.87167	-100
1.87533	-100
1.87900	-100
1.88267	-100
1.88633	-100
1.89000	-100
1.89367	-100
1.89733	-100
1.90100	-100
1.90467	-100
1.90833	-101
1.91200	-101
1.91567	-101
1.91933	-101
1.92300	-101
1.92667	-101
1.93033	-101
1.93400	-100
1.93767	-100
1.94133	-99
1.94500	-98
1.94867	-97
1.95233	-97
1.95600	-97
1.95967	-97
1.96333	-97
1.96700	-97
1.97067	-97
1.97433	-97
1.97800	-97
1.98167	-96
1.98533	-95
1.98900	-95
1.99267	-94
1.99633	-94
2.00000	-93
2.00367	-93
2.00733	-93
2.01100	-93
2.01467	-93
2.01833	-93
2.02200	-94
2.02567	-94
2.02933	-94
2.03300	-94
2.03667	-93
2.04033	-93
2.04400	-92
2.04767	-92
2.05133	-91
2.05500	-91
2.05867	-90
2.06233	-90
2.06600	-90
2.06967	-89
2.07333	-89
2.07700	-89
2.08067	-89
2.08433	-88
2.08800	-88
2.09167	-89
2.09533	-89
2.09900	-89
2.10267	-88
2.10633	-88
2.11000	-87
2.11367	-87
2.11733	-87
2.12100	-87
2.12467	-87
2.12833	-87
2.13200	-86
2.13567	-86
2.13933	-85
2.14300	-85
2.14667	-84
2.15033	-84
2.15400	-83
2.15767	-83
2.16133	-82
2.16500	-82
2.16867	-82
2.17233	-81
2.17600	-81
2.17967	-81
2.18333	-80
2.18700	-80
2.19067	-80
2.19433	-80
2.19800	-79
2.20167	-79
2.20533	-79
2.20900	-79
2.21267	-79
2.21633	-78
2.22000	-78
2.22367	-78
2.22733	-78
2.23100	-78
2.23467	-78
2.23833	-77
2.24200	-77
2.24567	-77
2.24933	-77
2.25300	-77
2.25667	-76
2.26033	-76
2.26400	-75
2.26767	-75
2.27133	-75
2.27500	-74
2.27867	-73
2.28233	-73
2.28600	-72
2.28967	-71
2.29333	-70
2.29700	-70
2.30067	-70
2.30433	-69
2.30800	-69
2.31167	-69
2.31533	-70
2.31900	-70
2.32267	-70
2.32633	-70
2.33000	-70
2.33367	-69
2.33733	-69
2.34100	-68
2.34467	-68
2.34833	-67
2.35200	-66
2.35567	-64
2.35933	-63
2.36300	-62
2.36667	-60
2.37033	-58
2.37400	-55
2.37767	-53
2.38133	-50
2.38500	-46
2.38867	-43
2.39233	-39
2.39600	-35
2.39967	-30
2.40333	-26
2.40700	-22
2.41067	-18
2.41433	-15
2.41800	-12
2.42167	-10
2.42533	-8
2.42900	-6
2.43267	-4
2.43633	-3
2.44000	-1
2.44367	1
2.44733	2
2.45100	3
2.45467	4
2.45833	5
2.46200	6
2.46567	7
2.46933	8
2.47300	9
2.47667	10
2.48033	11
2.48400	12
2.48767	12
2.49133	13
2.49500	14
2.49867	14
2.50233	14
2.50600	14
2.50967	14
2.51333	15
2.51700	15
2.52067	15
2.52433	14
2.52800	14
2.53167	14
2.53533	14
2.53900	14
2.54267	13
2.54633	13
2.55000	13
2.55367	13
2.55733	12
2.56100	12
2.56467	11
2.56833	10
2.57200	9
2.57567	9
2.57933	9
2.58300	10
2.58667	11
2.59033	11
2.59400	12
2.59767	13
2.60133	14
2.60500	14
2.60867	15
2.61233	15
2.61600	16
2.61967	16
2.62333	17
2.62700	17
2.63067	16
2.63433	16
2.63800	16
2.64167	16
2.64533	16
2.64900	17
2.65267	17
2.65633	18
2.66000	18
2.66367	19
2.66733	19
2.67100	19
2.67467	20
2.67833	20
2.68200	20
2.68567	21
2.68933	21
2.69300	21
2.69667	22
2.70033	22
2.70400	23
2.70767	23
2.71133	23
2.71500	24
2.71867	24
2.72233	24
2.72600	25
2.72967	25
2.73333	25
2.73700	25
2.74067	25
2.74433	25
2.74800	25
2.75167	25
2.75533	25
2.75900	25
2.76267	25
2.76633	26
2.77000	26
2.77367	26
2.77733	27
2.78100	27
2.78467	27
2.78833	27
2.79200	27
2.79567	27
2.79933	27
2.80300	27
2.80667	26
2.81033	26
2.81400	26
2.81767	25
2.82133	25
2.82500	25
2.82867	25
2.83233	24
2.83600	24
2.83967	24
2.84333	24
2.84700	24
2.85067	23
2.85433	22
2.85800	21
2.86167	18
2.86533	13
2.86900	5
2.87267	-6
2.87633	-23
2.88000	-44
2.88367	-70
2.88733	-102
2.89100	-140
2.89467	-183
2.89833	-230
2.90200	-283
2.90567	-339
2.90933	-398
2.91300	-461
2.91667	-525
2.92033	-590
2.92400	-655
2.92767	-719
2.93133	-782
2.93500	-841
2.93867	-897
2.94233	-952
2.94600	-1007
2.94967	-1060
2.95333	-1103
2.95700	-1127
2.96067	-1126
2.96433	-1099
2.96800	-1051
2.97167	-986
2.97533	-911
2.97900	-830
2.98267	-747
2.98633	-666
2.99000	-589
2.99367	-517
2.99733	-451
3.00100	-391
3.00467	-338
3.00833	-290
3.01200	-248
3.01567	-212
3.01933	-180
3.02300	-152
3.02667	-129
3.03033	-108
3.03400	-91
3.03767	-75
3.04133	-62
3.04500	-51
3.04867	-41
3.05233	-33
3.05600	-26
3.05967	-20
3.06333	-15
3.06700	-11
3.07067	-7
3.07433	-4
3.07800	-2
3.08167	1
3.08533	3
3.08900	5
3.09267	6
3.09633	8
3.10000	9
3.10367	10
3.10733	11
3.11100	12
3.11467	13
3.11833	14
3.12200	14
3.12567	15
3.12933	15
3.13300	15
3.13667	16
3.14033	16
3.14400	16
3.14767	16
3.15133	17
3.15500	17
3.15867	18
3.16233	18
3.16600	19
3.16967	19
3.17333	19
3.17700	19
3.18067	20
3.18433	20
3.18800	20
3.19167	20
3.19533	21
3.19900	21
3.20267	21
3.20633	21
3.21000	21
3.21367	21
3.21733	21
3.22100	21
3.22467	21
3.22833	21
3.23200	22
3.23567	22
3.23933	22
3.24300	22
3.24667	22
3.25033	22
3.25400	23
3.25767	23
3.26133	23
3.26500	23
3.26867	24
3.27233	24
3.27600	24
3.27967	24
3.28333	25
3.28700	25
3.29067	25
3.29433	26
3.29800	26
3.30167	26
3.30533	26
3.30900	27
3.31267	27
3.31633	27
3.32000	27
3.32367	28
3.32733	28
3.33100	27
3.33467	27
3.33833	27
3.34200	27
3.34567	27
3.34933	27
3.35300	27
3.35667	27
3.36033	27
3.36400	27
3.36767	27
3.37133	27
3.37500	27
3.37867	27
3.38233	27
3.38600	27
3.38967	27
3.39333	27
3.39700	27
3.40067	27
3.40433	27
3.40800	27
3.41167	27
3.41533	27
3.41900	28
3.42267	28
3.42633	28
3.43000	28
3.43367	28
3.43733	28
3.44100	28
3.44467	28
3.44833	28
3.45200	28
3.45567	28
3.45933	28
3.46300	28
3.46667	28
3.47033	27
3.47400	27
3.47767	27
3.48133	26
3.48500	26
3.48867	26
3.49233	26
3.49600	26
3.49967	26
3.50333	26
3.50700	26
3.51067	26
3.51433	26
3.51800	26
3.52167	26
3.52533	26
3.52900	26
3.53267	26
3.53633	26
3.54000	26
3.54367	26
3.54733	26
3.55100	26
3.55467	27
3.55833	27
3.56200	27
3.56567	27
3.56933	27
3.57300	27
3.57667	27
3.58033	27
3.58400	27
3.58767	27
3.59133	26
3.59500	26
3.59867	26
3.60233	26
3.60600	26
3.60967	26
3.61333	26
3.61700	26
3.62067	26
3.62433	26
3.62800	26
3.63167	26
3.63533	26
3.63900	26
3.64267	26
3.64633	26
3.65000	26
3.65367	26
3.65733	26
3.66100	26
3.66467	26
3.66833	26
3.67200	26
3.67567	26
3.67933	26
3.68300	26
3.68667	26
3.69033	26
3.69400	26
3.69767	27
3.70133	27
3.70500	27
3.70867	27
3.71233	27
3.71600	27
3.71967	27
3.72333	27
3.72700	27
3.73067	27
3.73433	27
3.73800	27
3.74167	27
3.74533	27
3.74900	27
3.75267	27
3.75633	27
3.76000	27
3.76367	27
3.76733	27
3.77100	27
3.77467	27
3.77833	27
3.78200	27
3.78567	27
3.78933	27
3.79300	27
3.79667	27
3.80033	27
3.80400	27
3.80767	26
3.81133	26
3.81500	26
3.81867	26
3.82233	26
3.82600	26
3.82967	26
3.83333	26
3.83700	26
3.84067	26
3.84433	26
3.84800	26
3.85167	26
3.85533	26
3.85900	26
3.86267	26
3.86633	25
3.87000	25
3.87367	26
3.87733	26
3.88100	26
3.88467	26
3.88833	27
3.89200	27
3.89567	27
3.89933	27
3.90300	27
3.90667	28
3.91033	28
3.91400	28
3.91767	28
3.92133	28
3.92500	28
3.92867	27
3.93233	27
3.93600	27
3.93967	27
3.94333	27
3.94700	27
3.95067	27
3.95433	27
3.95800	27
3.96167	27
3.96533	27
3.96900	27
3.97267	27
3.97633	27
3.98000	27
3.98367	27
3.98733	27
3.99100	27
3.99467	27
3.99833	27

[Chromatogram (Ch3)]
Interval(msec)	220
# of Points	1091
Start Time(min)	0.002
End Time(min)	3.998
R.Time (min)	Intensity
0.00167	-1
0.00533	-3
0.00900	-5
0.01267	-5
0.01633	-3
0.02000	-2
0.02367	-3
0.02733	-2
0.03100	-2
0.03467	-1
0.03833	1
0.04200	3
0.04567	2
0.04933	2
0.05300	3
0.05667	5
0.06033	5
0.06400	6
0.06767	6
0.07133	6
0.07500	7
0.07867	7
0.08233	4
0.08600	1
0.08967	2
0.09333	1
0.09700	1
0.10067	2
0.10433	2
0.10800	2
0.11167	2
0.11533	1
0.11900	2
0.12267	5
0.12633	6
0.13000	6
0.13367	3
0.13733	-1
0.14100	-3
0.14467	-1
0.14833	4
0.15200	6
0.15567	7
0.15933	4
0.16300	2
0.16667	2
0.17033	4
0.17400	5
0.17767	4
0.18133	1
0.18500	0
0.18867	0
0.19233	2
0.19600	3
0.19967	5
0.20333	7
0.20700	9
0.21067	10
0.21433	10
0.21800	6
0.22167	3
0.22533	1
0.22900	1
0.23267	2
0.23633	3
0.24000	4
0.24367	4
0.24733	4
0.25100	4
0.25467	4
0.25833	4
0.26200	4
0.26567	5
0.26933	4
0.27300	1
0.27667	-1
0.28033	-2
0.28400	-0
0.28767	1
0.29133	1
0.29500	1
0.29867	2
0.30233	2
0.30600	0
0.30967	-0
0.31333	1
0.31700	1
0.32067	-1
0.32433	-4
0.32800	-6
0.33167	-3
0.33533	1
0.33900	1
0.34267	1
0.34633	-0
0.35000	-1
0.35367	-1
0.35733	3
0.36100	6
0.36467	6
0.36833	4
0.37200	3
0.37567	-1
0.37933	-2
0.38300	-1
0.38667	1
0.39033	3
0.39400	2
0.39767	0
0.40133	-2
0.40500	-2
0.40867	1
0.41233	3
0.41600	1
0.41967	-1
0.42333	-3
0.42700	-3
0.43067	-3
0.43433	-4
0.43800	-3
0.44167	-2
0.44533	-3
0.44900	-3
0.45267	-3
0.45633	-2
0.46000	1
0.46367	2
0.46733	1
0.47100	-2
0.47467	-1
0.47833	0
0.48200	0
0.48567	-1
0.48933	-3
0.49300	-4
0.49667	-4
0.50033	-3
0.50400	-3
0.50767	-4
0.51133	-7
0.51500	-7
0.51867	-6
0.52233	-7
0.52600	-7
0.52967	-8
0.53333	-6
0.53700	-2
0.54067	1
0.54433	0
0.54800	-0
0.55167	-3
0.55533	-4
0.55900	-5
0.56267	-2
0.56633	-3
0.57000	-5
0.57367	-4
0.57733	-4
0.58100	-5
0.58467	-3
0.58833	-4
0.59200	-3
0.59567	-4
0.59933	-4
0.60300	-2
0.60667	-0
0.61033	-2
0.61400	-4
0.61767	-4
0.62133	-5
0.62500	-2
0.62867	2
0.63233	4
0.63600	3
0.63967	0
0.64333	-3
0.64700	-2
0.65067	2
0.65433	2
0.65800	0
0.66167	-2
0.66533	-2
0.66900	-1
0.67267	1
0.67633	0
0.68000	-2
0.68367	-4
0.68733	-3
0.69100	-0
0.69467	1
0.69833	4
0.70200	6
0.70567	5
0.70933	1
0.71300	-1
0.71667	-1
0.72033	1
0.72400	1
0.72767	-0
0.73133	-1
0.73500	-1
0.73867	0
0.74233	2
0.74600	3
0.74967	5
0.75333	6
0.75700	6
0.76067	4
0.76433	2
0.76800	0
0.77167	0
0.77533	-1
0.77900	0
0.78267	2
0.78633	4
0.79000	6
0.79367	7
0.79733	7
0.80100	6
0.80467	6
0.80833	4
0.81200	3
0.81567	0
0.81933	-2
0.82300	-4
0.82667	-4
0.83033	-3
0.83400	-1
0.83767	0
0.84133	0
0.84500	-0
0.84867	1
0.85233	3
0.85600	4
0.85967	3
0.86333	2
0.86700	1
0.87067	1
0.87433	-1
0.87800	1
0.88167	4
0.88533	6
0.88900	6
0.89267	6
0.89633	5
0.90000	4
0.90367	3
0.90733	4
0.91100	6
0.91467	4
0.91833	2
0.92200	2
0.92567	3
0.92933	3
0.93300	3
0.93667	4
0.94033	6
0.94400	8
0.94767	7
0.95133	5
0.95500	4
0.95867	3
0.96233	1
0.96600	0
0.96967	2
0.97333	5
0.97700	8
0.98067	8
0.98433	7
0.98800	6
0.99167	6
0.99533	5
0.99900	6
1.00267	7
1.00633	11
1.01000	15
1.01367	17
1.01733	19
1.02100	20
1.02467	18
1.02833	14
1.03200	11
1.03567	9
1.03933	7
1.04300	8
1.04667	9
1.05033	10
1.05400	11
1.05767	11
1.06133	10
1.06500	11
1.06867	12
1.07233	11
1.07600	8
1.07967	7
1.08333	6
1.08700	8
1.09067	9
1.09433	9
1.09800	9
1.10167	11
1.10533	11
1.10900	8
1.11267	6
1.11633	6
1.12000	7
1.12367	7
1.12733	9
1.13100	9
1.13467	9
1.13833	11
1.14200	12
1.14567	12
1.14933	10
1.15300	8
1.15667	6
1.16033	5
1.16400	4
1.16767	4
1.17133	6
1.17500	6
1.17867	5
1.18233	1
1.18600	0
1.18967	3
1.19333	7
1.19700	10
1.20067	10
1.20433	9
1.20800	7
1.21167	7
1.21533	7
1.21900	6
1.22267	6
1.22633	6
1.23000	8
1.23367	10
1.23733	9
1.24100	8
1.24467	6
1.24833	6
1.25200	4
1.25567	3
1.25933	2
1.26300	2
1.26667	2
1.27033	3
1.27400	2
1.27767	2
1.28133	4
1.28500	6
1.28867	6
1.29233	5
1.29600	2
1.29967	1
1.30333	1
1.30700	-1
1.31067	-1
1.31433	1
1.31800	5
1.32167	8
1.32533	10
1.32900	11
1.33267	11
1.33633	8
1.34000	4
1.34367	2
1.34733	4
1.35100	6
1.35467	7
1.35833	9
1.36200	9
1.36567	5
1.36933	2
1.37300	2
1.37667	4
1.38033	6
1.38400	8
1.38767	11
1.39133	12
1.39500	14
1.39867	16
1.40233	16
1.40600	14
1.40967	12
1.41333	11
1.41700	9
1.42067	8
1.42433	9
1.42800	11
1.43167	11
1.43533	13
1.43900	14
1.44267	16
1.44633	18
1.45000	18
1.45367	19
1.45733	18
1.46100	15
1.46467	10
1.46833	8
1.47200	9
1.47567	10
1.47933	10
1.48300	8
1.48667	9
1.49033	11
1.49400	11
1.49767	11
1.50133	8
1.50500	7
1.50867	5
1.51233	3
1.51600	4
1.51967	9
1.52333	12
1.52700	11
1.53067	10
1.53433	11
1.53800	10
1.54167	8
1.54533	6
1.54900	8
1.55267	9
1.55633	11
1.56000	13
1.56367	15
1.56733	17
1.57100	17
1.57467	16
1.57833	17
1.58200	18
1.58567	17
1.58933	15
1.59300	12
1.59667	12
1.60033	10
1.60400	8
1.60767	9
1.61133	10
1.61500	13
1.61867	16
1.62233	18
1.62600	19
1.62967	20
1.63333	20
1.63700	21
1.64067	21
1.64433	21
1.64800	20
1.65167	22
1.65533	25
1.65900	27
1.66267	26
1.66633	25
1.67000	27
1.67367	27
1.67733	26
1.68100	25
1.68467	25
1.68833	24
1.69200	26
1.69567	28
1.69933	29
1.70300	29
1.70667	28
1.71033	26
1.71400	25
1.71767	24
1.72133	24
1.72500	24
1.72867	22
1.73233	21
1.73600	21
1.73967	18
1.74333	14
1.74700	14
1.75067	14
1.75433	16
1.75800	17
1.76167	19
1.76533	20
1.76900	21
1.77267	22
1.77633	22
1.78000	21
1.78367	19
1.78733	18
1.79100	19
1.79467	21
1.79833	22
1.80200	23
1.80567	24
1.80933	27
1.81300	28
1.81667	28
1.82033	28
1.82400	26
1.82767	28
1.83133	27
1.83500	27
1.83867	28
1.84233	31
1.84600	33
1.84967	34
1.85333	32
1.85700	31
1.86067	33
1.86433	34
1.86800	34
1.87167	33
1.87533	29
1.87900	24
1.88267	21
1.88633	20
1.89000	23
1.89367	26
1.89733	28
1.90100	31
1.90467	32
1.90833	34
1.91200	35
1.91567	34
1.91933	35
1.92300	34
1.92667	33
1.93033	32
1.93400	33
1.93767	33
1.94133	30
1.94500	28
1.94867	27
1.95233	28
1.95600	30
1.95967	34
1.96333	37
1.96700	37
1.97067	37
1.97433	36
1.97800	37
1.98167	38
1.98533	37
1.98900	36
1.99267	37
1.99633	39
2.00000	42
2.00367	43
2.00733	43
2.01100	41
2.01467	39
2.01833	39
2.02200	40
2.02567	41
2.02933	44
2.03300	45
2.03667	44
2.04033	44
2.04400	44
2.04767	46
2.05133	47
2.05500	49
2.05867	49
2.06233	48
2.06600	50
2.06967	54
2.07333	56
2.07700	56
2.08067	55
2.08433	57
2.08800	59
2.09167	58
2.09533	55
2.09900	52
2.10267	51
2.10633	51
2.11000	53
2.11367	53
2.11733	53
2.12100	54
2.12467	55
2.12833	55
2.13200	55
2.13567	53
2.13933	50
2.14300	53
2.14667	59
2.15033	61
2.15400	62
2.15767	60
2.16133	59
2.16500	59
2.16867	62
2.17233	63
2.17600	64
2.17967	63
2.18333	65
2.18700	68
2.19067	70
2.19433	73
2.19800	75
2.20167	75
2.20533	78
2.20900	77
2.21267	73
2.21633	71
2.22000	71
2.22367	72
2.22733	72
2.23100	74
2.23467	76
2.23833	79
2.24200	79
2.24567	79
2.24933	82
2.25300	84
2.25667	86
2.26033	87
2.26400	89
2.26767	89
2.27133	86
2.27500	85
2.27867	86
2.28233	89
2.28600	89
2.28967	90
2.29333	92
2.29700	94
2.30067	93
2.30433	94
2.30800	98
2.31167	100
2.31533	102
2.31900	105
2.32267	105
2.32633	107
2.33000	109
2.33367	110
2.33733	109
2.34100	108
2.34467	106
2.34833	105
2.35200	105
2.35567	103
2.35933	104
2.36300	106
2.36667	107
2.37033	107
2.37400	108
2.37767	109
2.38133	107
2.38500	102
2.38867	96
2.39233	98
2.39600	103
2.39967	108
2.40333	114
2.40700	120
2.41067	125
2.41433	128
2.41800	130
2.42167	132
2.42533	132
2.42900	133
2.43267	132
2.43633	131
2.44000	133
2.44367	179
2.44733	263
2.45100	338
2.45467	392
2.45833	415
2.46200	408
2.46567	387
2.46933	365
2.47300	350
2.47667	336
2.48033	323
2.48400	304
2.48767	279
2.49133	255
2.49500	235
2.49867	220
2.50233	210
2.50600	205
2.50967	207
2.51333	212
2.51700	219
2.52067	226
2.52433	229
2.52800	226
2.53167	219
2.53533	207
2.53900	192
2.54267	176
2.54633	163
2.55000	152
2.55367	143
2.55733	134
2.56100	125
2.56467	120
2.56833	120
2.57200	119
2.57567	118
2.57933	118
2.58300	121
2.58667	124
2.59033	128
2.59400	132
2.59767	135
2.60133	140
2.60500	147
2.60867	155
2.61233	163
2.61600	167
2.61967	170
2.62333	172
2.62700	173
2.63067	172
2.63433	172
2.63800	166
2.64167	158
2.64533	149
2.64900	137
2.65267	127
2.65633	118
2.66000	108
2.66367	99
2.66733	92
2.67100	85
2.67467	80
2.67833	78
2.68200	74
2.68567	68
2.68933	64
2.69300	62
2.69667	62
2.70033	60
2.70400	58
2.70767	57
2.71133	60
2.71500	61
2.71867	60
2.72233	61
2.72600	62
2.72967	61
2.73333	57
2.73700	56
2.74067	57
2.74433	59
2.74800	59
2.75167	59
2.75533	60
2.75900	62
2.76267	64
2.76633	66
2.77000	67
2.77367	68
2.77733	71
2.78100	74
2.78467	78
2.78833	80
2.79200	80
2.79567	82
2.79933	85
2.80300	89
2.80667	91
2.81033	91
2.81400	95
2.81767	99
2.82133	101
2.82500	104
2.82867	106
2.83233	111
2.83600	123
2.83967	144
2.84333	182
2.84700	260
2.85067	394
2.85433	601
2.85800	895
2.86167	1276
2.86533	1729
2.86900	2225
2.87267	2725
2.87633	3189
2.88000	3575
2.88367	3851
2.88733	4006
2.89100	4039
2.89467	3963
2.89833	3801
2.90200	3574
2.90567	3306
2.90933	3018
2.91300	2724
2.91667	2438
2.92033	2165
2.92400	1911
2.92767	1678
2.93133	1470
2.93500	1286
2.93867	1125
2.94233	983
2.94600	858
2.94967	749
2.95333	654
2.95700	572
2.96067	501
2.96433	441
2.96800	390
2.97167	346
2.97533	309
2.97900	277
2.98267	251
2.98633	225
2.99000	203
2.99367	184
2.99733	168
3.00100	155
3.00467	144
3.00833	132
3.01200	123
3.01567	115
3.01933	108
3.02300	105
3.02667	103
3.03033	104
3.03400	104
3.03767	102
3.04133	100
3.04500	99
3.04867	98
3.05233	95
3.05600	94
3.05967	93
3.06333	93
3.06700	94
3.07067	94
3.07433	94
3.07800	94
3.08167	93
3.08533	93
3.08900	95
3.09267	96
3.09633	99
3.10000	100
3.10367	101
3.10733	104
3.11100	106
3.11467	106
3.11833	105
3.12200	102
3.12567	101
3.12933	101
3.13300	104
3.13667	109
3.14033	112
3.14400	114
3.14767	113
3.15133	115
3.15500	116
3.15867	116
3.16233	117
3.16600	119
3.16967	122
3.17333	126
3.17700	130
3.18067	134
3.18433	137
3.18800	137
3.19167	137
3.19533	138
3.19900	137
3.20267	138
3.20633	131
3.21000	123
3.21367	124
3.21733	151
3.22100	206
3.22467	277
3.22833	356
3.23200	438
3.23567	519
3.23933	596
3.24300	671
3.24667	741
3.25033	803
3.25400	856
3.25767	902
3.26133	940
3.26500	969
3.26867	993
3.27233	1011
3.27600	1028
3.27967	1040
3.28333	1050
3.28700	1057
3.29067	1059
3.29433	1059
3.29800	1055
3.30167	1050
3.30533	1048
3.30900	1048
3.31267	1047
3.31633	1043
3.32000	1039
3.32367	1034
3.32733	1030
3.33100	1025
3.33467	1021
3.33833	1016
3.34200	1010
3.34567	1005
3.34933	1001
3.35300	997
3.35667	993
3.36033	988
3.36400	982
3.36767	977
3.37133	974
3.37500	969
3.37867	965
3.38233	962
3.38600	958
3.38967	952
3.39333	946
3.39700	940
3.40067	935
3.40433	933
3.40800	933
3.41167	929
3.41533	925
3.41900	921
3.42267	918
3.42633	916
3.43000	912
3.43367	906
3.43733	902
3.44100	895
3.44467	890
3.44833	888
3.45200	886
3.45567	881
3.45933	877
3.46300	874
3.46667	871
3.47033	869
3.47400	865
3.47767	862
3.48133	861
3.48500	859
3.48867	857
3.49233	854
3.49600	855
3.49967	854
3.50333	851
3.50700	849
3.51067	848
3.51433	844
3.51800	839
3.52167	835
3.52533	833
3.52900	832
3.53267	829
3.53633	828
3.54000	826
3.54367	825
3.54733	823
3.55100	821
3.55467	818
3.55833	816
3.56200	813
3.56567	808
3.56933	805
3.57300	805
3.57667	804
3.58033	804
3.58400	805
3.58767	804
3.59133	801
3.59500	798
3.59867	795
3.60233	794
3.60600	792
3.60967	790
3.61333	789
3.61700	791
3.62067	791
3.62433	789
3.62800	789
3.63167	789
3.63533	786
3.63900	784
3.64267	782
3.64633	781
3.65000	778
3.65367	776
3.65733	775
3.66100	773
3.66467	770
3.66833	768
3.67200	765
3.67567	763
3.67933	760
3.68300	760
3.68667	757
3.69033	755
3.69400	755
3.69767	752
3.70133	750
3.70500	746
3.70867	741
3.71233	740
3.71600	739
3.71967	739
3.72333	737
3.72700	735
3.73067	732
3.73433	732
3.73800	730
3.74167	726
3.74533	721
3.74900	715
3.75267	710
3.75633	708
3.76000	707
3.76367	707
3.76733	705
3.77100	705
3.77467	702
3.77833	698
3.78200	695
3.78567	692
3.78933	689
3.79300	690
3.79667	690
3.80033	690
3.80400	687
3.80767	686
3.81133	684
3.81500	684
3.81867	683
3.82233	682
3.82600	680
3.82967	681
3.83333	679
3.83700	675
3.84067	673
3.84433	671
3.84800	670
3.85167	668
3.85533	667
3.85900	667
3.86267	664
3.86633	662
3.87000	660
3.87367	659
3.87733	658
3.88100	657
3.88467	657
3.88833	654
3.89200	651
3.89567	648
3.89933	646
3.90300	644
3.90667	643
3.91033	641
3.91400	639
3.91767	638
3.92133	636
3.92500	633
3.92867	632
3.93233	631
3.93600	628
3.93967	624
3.94333	622
3.94700	622
3.95067	623
3.95433	620
3.95800	618
3.96167	615
3.96533	614
3.96900	615
3.97267	614
3.97633	613
3.98000	612
3.98367	611
3.98733	610
3.99100	609
3.99467	607
3.99833	601

[Status Trace (Column Oven Temperature)]
Interval(msec)	1000
# of Points	240
Start Time(min)	0.004
End Time(min)	3.987
Intensity Units	
Intensity Multiplier	1
R.Time (min)	Intensity
0.00367	35.04
0.02033	35.03
0.03700	35.03
0.05367	35.03
0.07033	35.05
0.08700	35.05
0.10367	35.05
0.12033	35.04
0.13700	35.03
0.15367	35.02
0.17033	35.03
0.18700	35.02
0.20367	35.01
0.22033	35.00
0.23700	35.00
0.25367	35.00
0.27033	34.99
0.28700	35.00
0.30367	35.00
0.32033	35.00
0.33700	34.99
0.35367	35.00
0.37033	35.00
0.38700	34.99
0.40367	34.99
0.42033	35.00
0.43700	35.00
0.45367	35.01
0.47033	35.00
0.48700	34.99
0.50367	34.99
0.52033	34.99
0.53700	34.98
0.55367	34.98
0.57033	34.98
0.58700	34.98
0.60367	34.98
0.62033	35.00
0.63700	35.01
0.65367	35.02
0.67033	35.02
0.68700	35.01
0.70367	35.01
0.72033	35.01
0.73700	35.00
0.75367	35.00
0.77033	34.99
0.78700	34.99
0.80367	34.99
0.82033	34.99
0.83700	35.00
0.85367	35.00
0.87033	35.00
0.88700	35.00
0.90367	35.00
0.92033	35.00
0.93700	35.00
0.95367	34.99
0.97033	34.99
0.98700	34.98
1.00367	34.99
1.02033	34.99
1.03700	34.99
1.05367	34.99
1.07033	35.00
1.08700	34.99
1.10367	34.99
1.12033	34.99
1.13700	34.99
1.15367	34.98
1.17033	34.98
1.18700	34.98
1.20367	34.99
1.22033	34.98
1.23700	34.98
1.25367	34.97
1.27033	34.98
1.28700	34.99
1.30367	34.99
1.32033	34.99
1.33700	35.00
1.35367	35.00
1.37033	35.00
1.38700	35.00
1.40367	35.00
1.42033	35.00
1.43700	35.00
1.45367	34.99
1.47033	34.99
1.48700	34.98
1.50367	34.98
1.52033	34.98
1.53700	35.00
1.55367	35.00
1.57033	35.00
1.58700	35.01
1.60367	35.05
1.62033	35.16
1.63700	35.33
1.65367	35.56
1.67033	35.87
1.68700	36.28
1.70367	36.65
1.72033	36.99
1.73700	37.30
1.75367	37.58
1.77033	37.90
1.78700	38.24
1.80367	38.59
1.82033	38.93
1.83700	39.26
1.85367	39.59
1.87033	39.92
1.88700	40.24
1.90367	40.58
1.92033	40.93
1.93700	41.24
1.95367	41.57
1.97033	41.91
1.98700	42.22
2.00367	42.54
2.02033	42.88
2.03700	43.20
2.05367	43.53
2.07033	43.86
2.08700	44.20
2.10367	44.51
2.12033	44.85
2.13700	45.17
2.15367	45.51
2.17033	45.82
2.18700	46.15
2.20367	46.48
2.22033	46.81
2.23700	47.15
2.25367	47.46
2.27033	47.81
2.28700	48.12
2.30367	48.44
2.32033	48.79
2.33700	49.11
2.35367	49.39
2.37033	49.60
2.38700	49.69
2.40367	49.69
2.42033	49.70
2.43700	49.71
2.45367	49.72
2.47033	49.73
2.48700	49.73
2.50367	49.74
2.52033	49.76
2.53700	49.79
2.55367	49.80
2.57033	49.83
2.58700	49.82
2.60367	49.83
2.62033	49.83
2.63700	49.85
2.65367	49.85
2.67033	49.85
2.68700	49.85
2.70367	49.86
2.72033	49.86
2.73700	49.87
2.75367	49.87
2.77033	49.86
2.78700	49.86
2.80367	49.86
2.82033	49.87
2.83700	49.89
2.85367	49.91
2.87033	49.91
2.88700	49.94
2.90367	49.95
2.92033	49.96
2.93700	49.97
2.95367	49.97
2.97033	49.99
2.98700	50.00
3.00367	50.00
3.02033	50.00
3.03700	50.01
3.05367	50.02
3.07033	50.03
3.08700	50.03
3.10367	50.04
3.12033	50.05
3.13700	50.06
3.15367	50.07
3.17033	50.08
3.18700	50.09
3.20367	50.09
3.22033	50.09
3.23700	50.11
3.25367	50.11
3.27033	50.10
3.28700	50.09
3.30367	50.08
3.32033	50.06
3.33700	50.05
3.35367	50.04
3.37033	50.04
3.38700	50.04
3.40367	50.04
3.42033	50.04
3.43700	50.03
3.45367	50.03
3.47033	50.03
3.48700	50.04
3.50367	50.04
3.52033	50.04
3.53700	50.04
3.55367	50.05
3.57033	50.04
3.58700	50.06
3.60367	50.06
3.62033	50.07
3.63700	50.07
3.65367	50.07
3.67033	50.07
3.68700	50.07
3.70367	50.07
3.72033	50.06
3.73700	50.06
3.75367	50.06
3.77033	50.06
3.78700	50.06
3.80367	50.06
3.82033	50.06
3.83700	50.07
3.85367	50.08
3.87033	50.08
3.88700	50.07
3.90367	50.07
3.92033	50.07
3.93700	50.08
3.95367	50.08
3.97033	50.07
3.98700	50.07

[Status Trace (Injection Unit Temperature)]
Interval(msec)	1000
# of Points	240
Start Time(min)	0.004
End Time(min)	3.987
Intensity Units	
Intensity Multiplier	1
R.Time (min)	Intensity
0.00367	99.97
0.02033	99.97
0.03700	99.98
0.05367	99.97
0.07033	99.97
0.08700	99.97
0.10367	99.98
0.12033	99.97
0.13700	99.98
0.15367	99.98
0.17033	99.97
0.18700	99.98
0.20367	99.98
0.22033	99.98
0.23700	99.98
0.25367	99.98
0.27033	99.98
0.28700	99.98
0.30367	99.98
0.32033	99.98
0.33700	99.98
0.35367	99.98
0.37033	99.98
0.38700	99.98
0.40367	99.98
0.42033	99.98
0.43700	99.98
0.45367	99.98
0.47033	99.98
0.48700	99.98
0.50367	99.97
0.52033	99.98
0.53700	99.98
0.55367	99.98
0.57033	99.98
0.58700	99.98
0.60367	99.98
0.62033	99.98
0.63700	99.98
0.65367	99.98
0.67033	99.98
0.68700	99.98
0.70367	99.98
0.72033	99.98
0.73700	99.98
0.75367	99.98
0.77033	99.98
0.78700	99.98
0.80367	99.98
0.82033	99.98
0.83700	99.98
0.85367	99.98
0.87033	99.98
0.88700	99.98
0.90367	99.98
0.92033	99.98
0.93700	99.98
0.95367	99.98
0.97033	99.98
0.98700	99.98
1.00367	99.98
1.02033	99.98
1.03700	99.98
1.05367	99.98
1.07033	99.98
1.08700	99.98
1.10367	99.98
1.12033	99.98
1.13700	99.98
1.15367	99.98
1.17033	99.98
1.18700	99.98
1.20367	99.98
1.22033	99.98
1.23700	99.98
1.25367	99.98
1.27033	99.98
1.28700	99.99
1.30367	99.98
1.32033	99.98
1.33700	99.98
1.35367	99.98
1.37033	99.98
1.38700	99.98
1.40367	99.99
1.42033	99.98
1.43700	99.98
1.45367	99.99
1.47033	99.99
1.48700	99.99
1.50367	99.99
1.52033	99.99
1.53700	99.99
1.55367	99.98
1.57033	99.99
1.58700	99.98
1.60367	99.98
1.62033	99.98
1.63700	99.99
1.65367	99.99
1.67033	99.99
1.68700	99.98
1.70367	99.99
1.72033	99.99
1.73700	99.99
1.75367	99.98
1.77033	99.99
1.78700	99.98
1.80367	99.98
1.82033	99.98
1.83700	99.99
1.85367	99.98
1.87033	99.98
1.88700	99.98
1.90367	99.98
1.92033	99.98
1.93700	99.98
1.95367	99.98
1.97033	99.98
1.98700	99.98
2.00367	99.98
2.02033	99.97
2.03700	99.97
2.05367	99.97
2.07033	99.97
2.08700	99.97
2.10367	99.97
2.12033	99.97
2.13700	99.97
2.15367	99.97
2.17033	99.96
2.18700	99.97
2.20367	99.97
2.22033	99.96
2.23700	99.96
2.25367	99.96
2.27033	99.96
2.28700	99.96
2.30367	99.96
2.32033	99.96
2.33700	99.96
2.35367	99.96
2.37033	99.96
2.38700	99.96
2.40367	99.96
2.42033	99.96
2.43700	99.96
2.45367	99.96
2.47033	99.96
2.48700	99.96
2.50367	99.96
2.52033	99.96
2.53700	99.96
2.55367	99.96
2.57033	99.96
2.58700	99.96
2.60367	99.96
2.62033	99.96
2.63700	99.96
2.65367	99.97
2.67033	99.97
2.68700	99.97
2.70367	99.97
2.72033	99.97
2.73700	99.98
2.75367	99.98
2.77033	99.98
2.78700	99.98
2.80367	99.98
2.82033	99.98
2.83700	99.98
2.85367	99.99
2.87033	99.99
2.88700	99.99
2.90367	99.99
2.92033	99.99
2.93700	100.00
2.95367	99.99
2.97033	100.00
2.98700	100.00
3.00367	100.00
3.02033	100.01
3.03700	100.00
3.05367	100.01
3.07033	100.01
3.08700	100.01
3.10367	100.01
3.12033	100.01
3.13700	100.01
3.15367	100.01
3.17033	100.02
3.18700	100.02
3.20367	100.02
3.22033	100.02
3.23700	100.02
3.25367	100.02
3.27033	100.02
3.28700	100.02
3.30367	100.02
3.32033	100.03
3.33700	100.02
3.35367	100.03
3.37033	100.03
3.38700	100.02
3.40367	100.03
3.42033	100.02
3.43700	100.03
3.45367	100.03
3.47033	100.03
3.48700	100.02
3.50367	100.03
3.52033	100.03
3.53700	100.03
3.55367	100.03
3.57033	100.03
3.58700	100.03
3.60367	100.03
3.62033	100.03
3.63700	100.03
3.65367	100.04
3.67033	100.03
3.68700	100.03
3.70367	100.04
3.72033	100.04
3.73700	100.04
3.75367	100.04
3.77033	100.04
3.78700	100.04
3.80367	100.04
3.82033	100.04
3.83700	100.04
3.85367	100.04
3.87033	100.04
3.88700	100.05
3.90367	100.04
3.92033	100.04
3.93700	100.05
3.95367	100.04
3.97033	100.05
3.98700	100.05

[Status Trace (Carrier Gas Pressure)]
Interval(msec)	1000
# of Points	240
Start Time(min)	0.004
End Time(min)	3.987
Intensity Units	
Intensity Multiplier	1
R.Time (min)	Intensity
0.00367	58.00
0.02033	56.10
0.03700	56.45
0.05367	58.72
0.07033	59.86
0.08700	58.26
0.10367	57.97
0.12033	58.00
0.13700	58.01
0.15367	58.01
0.17033	58.00
0.18700	58.00
0.20367	58.00
0.22033	58.00
0.23700	58.00
0.25367	58.00
0.27033	58.00
0.28700	58.00
0.30367	58.00
0.32033	58.00
0.33700	58.00
0.35367	58.00
0.37033	58.00
0.38700	58.00
0.40367	58.00
0.42033	58.00
0.43700	58.00
0.45367	58.00
0.47033	58.00
0.48700	58.00
0.50367	58.00
0.52033	58.00
0.53700	58.00
0.55367	58.00
0.57033	58.00
0.58700	58.00
0.60367	58.00
0.62033	58.00
0.63700	58.00
0.65367	58.00
0.67033	58.00
0.68700	58.00
0.70367	58.00
0.72033	58.00
0.73700	58.00
0.75367	58.00
0.77033	58.00
0.78700	58.00
0.80367	58.00
0.82033	58.00
0.83700	58.00
0.85367	58.00
0.87033	58.00
0.88700	58.00
0.90367	58.00
0.92033	58.00
0.93700	58.00
0.95367	58.00
0.97033	58.00
0.98700	58.00
1.00367	58.00
1.02033	58.00
1.03700	58.00
1.05367	58.00
1.07033	58.00
1.08700	58.00
1.10367	58.00
1.12033	58.00
1.13700	58.00
1.15367	58.00
1.17033	58.00
1.18700	58.00
1.20367	58.00
1.22033	58.00
1.23700	58.00
1.25367	58.00
1.27033	58.00
1.28700	58.00
1.30367	58.00
1.32033	58.00
1.33700	58.00
1.35367	58.00
1.37033	58.00
1.38700	58.00
1.40367	58.00
1.42033	58.00
1.43700	58.00
1.45367	58.00
1.47033	58.00
1.48700	58.00
1.50367	58.00
1.52033	58.00
1.53700	58.00
1.55367	58.00
1.57033	58.00
1.58700	58.00
1.60367	58.00
1.62033	58.00
1.63700	58.00
1.65367	58.00
1.67033	58.01
1.68700	58.01
1.70367	58.00
1.72033	58.00
1.73700	58.00
1.75367	58.00
1.77033	58.00
1.78700	58.00
1.80367	58.00
1.82033	58.00
1.83700	58.00
1.85367	58.00
1.87033	58.00
1.88700	58.00
1.90367	58.00
1.92033	58.00
1.93700	58.00
1.95367	58.00
1.97033	58.00
1.98700	58.00
2.00367	58.00
2.02033	58.00
2.03700	58.00
2.05367	58.00
2.07033	58.00
2.08700	58.00
2.10367	58.00
2.12033	58.00
2.13700	58.00
2.15367	58.00
2.17033	58.00
2.18700	58.00
2.20367	58.00
2.22033	58.00
2.23700	58.00
2.25367	58.00
2.27033	58.00
2.28700	58.00
2.30367	58.00
2.32033	58.00
2.33700	58.00
2.35367	58.00
2.37033	58.00
2.38700	57.99
2.40367	57.99
2.42033	58.00
2.43700	58.00
2.45367	58.00
2.47033	58.00
2.48700	58.00
2.50367	57.98
2.52033	58.00
2.53700	57.99
2.55367	58.00
2.57033	58.00
2.58700	58.00
2.60367	58.00
2.62033	58.00
2.63700	58.00
2.65367	58.00
2.67033	58.00
2.68700	58.00
2.70367	58.00
2.72033	58.00
2.73700	58.00
2.75367	58.00
2.77033	58.00
2.78700	58.00
2.80367	58.00
2.82033	58.00
2.83700	58.00
2.85367	58.00
2.87033	58.00
2.88700	58.00
2.90367	58.00
2.92033	58.00
2.93700	58.00
2.95367	58.00
2.97033	58.00
2.98700	58.00
3.00367	58.00
3.02033	58.00
3.03700	58.00
3.05367	58.00
3.07033	58.00
3.08700	58.00
3.10367	58.00
3.12033	58.00
3.13700	58.00
3.15367	58.00
3.17033	58.00
3.18700	58.00
3.20367	58.00
3.22033	58.00
3.23700	58.00
3.25367	58.00
3.27033	58.00
3.28700	58.00
3.30367	58.00
3.32033	58.00
3.33700	58.00
3.35367	58.00
3.37033	58.00
3.38700	58.00
3.40367	58.00
3.42033	58.00
3.43700	58.00
3.45367	58.00
3.47033	58.00
3.48700	58.00
3.50367	58.00
3.52033	58.00
3.53700	58.00
3.55367	58.00
3.57033	58.00
3.58700	58.00
3.60367	58.00
3.62033	58.00
3.63700	58.00
3.65367	58.00
3.67033	58.00
3.68700	58.00
3.70367	58.00
3.72033	58.00
3.73700	58.00
3.75367	58.00
3.77033	58.00
3.78700	58.00
3.80367	58.00
3.82033	58.00
3.83700	58.00
3.85367	58.00
3.87033	58.00
3.88700	58.00
3.90367	58.00
3.92033	58.00
3.93700	58.00
3.95367	58.00
3.97033	58.00
3.98700	58.00

[Status Trace (Carrier Gas Flow)]
Interval(msec)	1000
# of Points	240
Start Time(min)	0.004
End Time(min)	3.987
Intensity Units	
Intensity Multiplier	1
R.Time (min)	Intensity
0.00367	34.52
0.02033	34.59
0.03700	34.54
0.05367	34.55
0.07033	34.49
0.08700	34.51
0.10367	34.52
0.12033	34.52
0.13700	34.52
0.15367	34.51
0.17033	34.52
0.18700	34.52
0.20367	34.51
0.22033	34.52
0.23700	34.52
0.25367	34.51
0.27033	34.52
0.28700	34.51
0.30367	34.52
0.32033	34.52
0.33700	34.52
0.35367	34.51
0.37033	34.52
0.38700	34.51
0.40367	34.51
0.42033	34.52
0.43700	34.52
0.45367	34.53
0.47033	34.51
0.48700	34.52
0.50367	34.52
0.52033	34.51
0.53700	34.52
0.55367	34.51
0.57033	34.52
0.58700	34.52
0.60367	34.52
0.62033	34.52
0.63700	34.52
0.65367	34.52
0.67033	34.53
0.68700	34.52
0.70367	34.52
0.72033	34.52
0.73700	34.51
0.75367	34.52
0.77033	34.52
0.78700	34.52
0.80367	34.52
0.82033	34.52
0.83700	34.52
0.85367	34.52
0.87033	34.52
0.88700	34.52
0.90367	34.52
0.92033	34.52
0.93700	34.52
0.95367	34.52
0.97033	34.51
0.98700	34.52
1.00367	34.52
1.02033	34.52
1.03700	34.52
1.05367	34.52
1.07033	34.52
1.08700	34.52
1.10367	34.52
1.12033	34.52
1.13700	34.52
1.15367	34.52
1.17033	34.52
1.18700	34.52
1.20367	34.52
1.22033	34.52
1.23700	34.52
1.25367	34.52
1.27033	34.52
1.28700	34.53
1.30367	34.52
1.32033	34.52
1.33700	34.52
1.35367	34.52
1.37033	34.52
1.38700	34.52
1.40367	34.52
1.42033	34.52
1.43700	34.51
1.45367	34.52
1.47033	34.52
1.48700	34.52
1.50367	34.52
1.52033	34.52
1.53700	34.52
1.55367	34.52
1.57033	34.52
1.58700	34.52
1.60367	34.52
1.62033	34.52
1.63700	34.53
1.65367	34.52
1.67033	34.52
1.68700	34.52
1.70367	34.52
1.72033	34.52
1.73700	34.52
1.75367	34.52
1.77033	34.52
1.78700	34.52
1.80367	34.52
1.82033	34.52
1.83700	34.51
1.85367	34.52
1.87033	34.52
1.88700	34.52
1.90367	34.52
1.92033	34.52
1.93700	34.52
1.95367	34.52
1.97033	34.52
1.98700	34.52
2.00367	34.52
2.02033	34.51
2.03700	34.52
2.05367	34.52
2.07033	34.51
2.08700	34.52
2.10367	34.52
2.12033	34.52
2.13700	34.52
2.15367	34.52
2.17033	34.52
2.18700	34.51
2.20367	34.52
2.22033	34.52
2.23700	34.52
2.25367	34.52
2.27033	34.52
2.28700	34.52
2.30367	34.51
2.32033	34.52
2.33700	34.52
2.35367	34.52
2.37033	34.52
2.38700	34.52
2.40367	34.52
2.42033	34.52
2.43700	34.51
2.45367	34.52
2.47033	34.52
2.48700	34.51
2.50367	34.65
2.52033	34.52
2.53700	34.52
2.55367	34.52
2.57033	34.52
2.58700	34.52
2.60367	34.52
2.62033	34.51
2.63700	34.52
2.65367	34.52
2.67033	34.51
2.68700	34.52
2.70367	34.52
2.72033	34.52
2.73700	34.52
2.75367	34.52
2.77033	34.52
2.78700	34.52
2.80367	34.52
2.82033	34.52
2.83700	34.52
2.85367	34.52
2.87033	34.52
2.88700	34.52
2.90367	34.51
2.92033	34.52
2.93700	34.52
2.95367	34.52
2.97033	34.51
2.98700	34.52
3.00367	34.52
3.02033	34.52
3.03700	34.52
3.05367	34.52
3.07033	34.52
3.08700	34.52
3.10367	34.52
3.12033	34.52
3.13700	34.52
3.15367	34.52
3.17033	34.52
3.18700	34.52
3.20367	34.52
3.22033	34.52
3.23700	34.52
3.25367	34.52
3.27033	34.52
3.28700	34.52
3.30367	34.52
3.32033	34.52
3.33700	34.52
3.35367	34.52
3.37033	34.52
3.38700	34.52
3.40367	34.52
3.42033	34.52
3.43700	34.52
3.45367	34.52
3.47033	34.52
3.48700	34.52
3.50367	34.52
3.52033	34.52
3.53700	34.51
3.55367	34.52
3.57033	34.52
3.58700	34.52
3.60367	34.52
3.62033	34.52
3.63700	34.51
3.65367	34.52
3.67033	34.52
3.68700	34.52
3.70367	34.52
3.72033	34.52
3.73700	34.52
3.75367	34.52
3.77033	34.52
3.78700	34.52
3.80367	34.52
3.82033	34.51
3.83700	34.52
3.85367	34.52
3.87033	34.51
3.88700	34.52
3.90367	34.52
3.92033	34.52
3.93700	34.52
3.95367	34.52
3.97033	34.52
3.98700	34.51

[Status Trace (Column Flow)]
Interval(msec)	1000
# of Points	240
Start Time(min)	0.004
End Time(min)	3.987
Intensity Units	
Intensity Multiplier	1
R.Time (min)	Intensity
0.00367	5.51
0.02033	5.29
0.03700	5.33
0.05367	5.60
0.07033	5.73
0.08700	5.54
0.10367	5.51
0.12033	5.51
0.13700	5.51
0.15367	5.51
0.17033	5.51
0.18700	5.51
0.20367	5.51
0.22033	5.51
0.23700	5.51
0.25367	5.51
0.27033	5.51
0.28700	5.51
0.30367	5.51
0.32033	5.51
0.33700	5.51
0.35367	5.51
0.37033	5.51
0.38700	5.51
0.40367	5.51
0.42033	5.51
0.43700	5.51
0.45367	5.51
0.47033	5.51
0.48700	5.51
0.50367	5.51
0.52033	5.51
0.53700	5.51
0.55367	5.51
0.57033	5.51
0.58700	5.51
0.60367	5.51
0.62033	5.51
0.63700	5.51
0.65367	5.51
0.67033	5.51
0.68700	5.51
0.70367	5.51
0.72033	5.51
0.73700	5.51
0.75367	5.51
0.77033	5.51
0.78700	5.51
0.80367	5.51
0.82033	5.51
0.83700	5.51
0.85367	5.51
0.87033	5.51
0.88700	5.51
0.90367	5.51
0.92033	5.51
0.93700	5.51
0.95367	5.51
0.97033	5.51
0.98700	5.51
1.00367	5.51
1.02033	5.51
1.03700	5.51
1.05367	5.51
1.07033	5.51
1.08700	5.51
1.10367	5.51
1.12033	5.51
1.13700	5.51
1.15367	5.51
1.17033	5.51
1.18700	5.51
1.20367	5.51
1.22033	5.51
1.23700	5.51
1.25367	5.51
1.27033	5.51
1.28700	5.51
1.30367	5.51
1.32033	5.51
1.33700	5.51
1.35367	5.51
1.37033	5.51
1.38700	5.51
1.40367	5.51
1.42033	5.51
1.43700	5.51
1.45367	5.51
1.47033	5.51
1.48700	5.51
1.50367	5.51
1.52033	5.51
1.53700	5.51
1.55367	5.51
1.57033	5.51
1.58700	5.51
1.60367	5.51
1.62033	5.51
1.63700	5.50
1.65367	5.50
1.67033	5.49
1.68700	5.47
1.70367	5.46
1.72033	5.45
1.73700	5.44
1.75367	5.43
1.77033	5.42
1.78700	5.41
1.80367	5.40
1.82033	5.39
1.83700	5.38
1.85367	5.37
1.87033	5.36
1.88700	5.35
1.90367	5.34
1.92033	5.33
1.93700	5.32
1.95367	5.31
1.97033	5.30
1.98700	5.29
2.00367	5.28
2.02033	5.27
2.03700	5.26
2.05367	5.25
2.07033	5.25
2.08700	5.24
2.10367	5.23
2.12033	5.22
2.13700	5.21
2.15367	5.20
2.17033	5.19
2.18700	5.18
2.20367	5.17
2.22033	5.16
2.23700	5.15
2.25367	5.14
2.27033	5.13
2.28700	5.12
2.30367	5.11
2.32033	5.11
2.33700	5.10
2.35367	5.09
2.37033	5.08
2.38700	5.08
2.40367	5.08
2.42033	5.08
2.43700	5.08
2.45367	5.08
2.47033	5.08
2.48700	5.08
2.50367	5.08
2.52033	5.08
2.53700	5.08
2.55367	5.08
2.57033	5.08
2.58700	5.08
2.60367	5.08
2.62033	5.08
2.63700	5.08
2.65367	5.08
2.67033	5.08
2.68700	5.08
2.70367	5.08
2.72033	5.08
2.73700	5.07
2.75367	5.07
2.77033	5.07
2.78700	5.07
2.80367	5.07
2.82033	5.07
2.83700	5.07
2.85367	5.07
2.87033	5.07
2.88700	5.07
2.90367	5.07
2.92033	5.07
2.93700	5.07
2.95367	5.07
2.97033	5.07
2.98700	5.07
3.00367	5.07
3.02033	5.07
3.03700	5.07
3.05367	5.07
3.07033	5.07
3.08700	5.07
3.10367	5.07
3.12033	5.07
3.13700	5.07
3.15367	5.07
3.17033	5.07
3.18700	5.07
3.20367	5.07
3.22033	5.07
3.23700	5.07
3.25367	5.07
3.27033	5.07
3.28700	5.07
3.30367	5.07
3.32033	5.07
3.33700	5.07
3.35367	5.07
3.37033	5.07
3.38700	5.07
3.40367	5.07
3.42033	5.07
3.43700	5.07
3.45367	5.07
3.47033	5.07
3.48700	5.07
3.50367	5.07
3.52033	5.07
3.53700	5.07
3.55367	5.07
3.57033	5.07
3.58700	5.07
3.60367	5.07
3.62033	5.07
3.63700	5.07
3.65367	5.07
3.67033	5.07
3.68700	5.07
3.70367	5.07
3.72033	5.07
3.73700	5.07
3.75367	5.07
3.77033	5.07
3.78700	5.07
3.80367	5.07
3.82033	5.07
3.83700	5.07
3.85367	5.07
3.87033	5.07
3.88700	5.07
3.90367	5.07
3.92033	5.07
3.93700	5.07
3.95367	5.07
3.97033	5.07
3.98700	5.07

[Status Trace (Linear Velocity)]
Interval(msec)	1000
# of Points	240
Start Time(min)	0.004
End Time(min)	3.987
Intensity Units	
Intensity Multiplier	1
R.Time (min)	Intensity
0.00367	39.01
0.02033	37.77
0.03700	37.99
0.05367	39.48
0.07033	40.23
0.08700	39.18
0.10367	38.99
0.12033	39.01
0.13700	39.02
0.15367	39.02
0.17033	39.01
0.18700	39.02
0.20367	39.02
0.22033	39.02
0.23700	39.02
0.25367	39.02
0.27033	39.02
0.28700	39.02
0.30367	39.02
0.32033	39.02
0.33700	39.02
0.35367	39.01
0.37033	39.01
0.38700	39.02
0.40367	39.02
0.42033	39.02
0.43700	39.02
0.45367	39.01
0.47033	39.01
0.48700	39.02
0.50367	39.02
0.52033	39.02
0.53700	39.02
0.55367	39.02
0.57033	39.02
0.58700	39.02
0.60367	39.02
0.62033	39.02
0.63700	39.01
0.65367	39.01
0.67033	39.01
0.68700	39.01
0.70367	39.01
0.72033	39.01
0.73700	39.01
0.75367	39.01
0.77033	39.02
0.78700	39.02
0.80367	39.02
0.82033	39.02
0.83700	39.01
0.85367	39.01
0.87033	39.02
0.88700	39.01
0.90367	39.01
0.92033	39.01
0.93700	39.01
0.95367	39.02
0.97033	39.01
0.98700	39.02
1.00367	39.02
1.02033	39.02
1.03700	39.02
1.05367	39.02
1.07033	39.01
1.08700	39.02
1.10367	39.02
1.12033	39.02
1.13700	39.02
1.15367	39.02
1.17033	39.02
1.18700	39.02
1.20367	39.02
1.22033	39.02
1.23700	39.02
1.25367	39.02
1.27033	39.02
1.28700	39.02
1.30367	39.02
1.32033	39.02
1.33700	39.01
1.35367	39.01
1.37033	39.01
1.38700	39.01
1.40367	39.01
1.42033	39.01
1.43700	39.02
1.45367	39.02
1.47033	39.02
1.48700	39.02
1.50367	39.02
1.52033	39.02
1.53700	39.02
1.55367	39.01
1.57033	39.01
1.58700	39.01
1.60367	39.01
1.62033	39.00
1.63700	38.99
1.65367	38.96
1.67033	38.94
1.68700	38.90
1.70367	38.86
1.72033	38.83
1.73700	38.79
1.75367	38.77
1.77033	38.74
1.78700	38.71
1.80367	38.67
1.82033	38.64
1.83700	38.61
1.85367	38.58
1.87033	38.55
1.88700	38.52
1.90367	38.49
1.92033	38.46
1.93700	38.42
1.95367	38.39
1.97033	38.37
1.98700	38.33
2.00367	38.30
2.02033	38.28
2.03700	38.24
2.05367	38.21
2.07033	38.19
2.08700	38.15
2.10367	38.12
2.12033	38.10
2.13700	38.06
2.15367	38.03
2.17033	38.01
2.18700	37.97
2.20367	37.94
2.22033	37.92
2.23700	37.89
2.25367	37.86
2.27033	37.83
2.28700	37.80
2.30367	37.77
2.32033	37.74
2.33700	37.71
2.35367	37.68
2.37033	37.67
2.38700	37.65
2.40367	37.65
2.42033	37.66
2.43700	37.66
2.45367	37.65
2.47033	37.65
2.48700	37.65
2.50367	37.64
2.52033	37.65
2.53700	37.65
2.55367	37.65
2.57033	37.65
2.58700	37.65
2.60367	37.65
2.62033	37.65
2.63700	37.64
2.65367	37.64
2.67033	37.64
2.68700	37.64
2.70367	37.64
2.72033	37.64
2.73700	37.64
2.75367	37.64
2.77033	37.64
2.78700	37.64
2.80367	37.64
2.82033	37.64
2.83700	37.64
2.85367	37.64
2.87033	37.64
2.88700	37.64
2.90367	37.64
2.92033	37.63
2.93700	37.63
2.95367	37.63
2.97033	37.63
2.98700	37.63
3.00367	37.63
3.02033	37.63
3.03700	37.63
3.05367	37.63
3.07033	37.63
3.08700	37.63
3.10367	37.63
3.12033	37.63
3.13700	37.63
3.15367	37.62
3.17033	37.62
3.18700	37.62
3.20367	37.62
3.22033	37.62
3.23700	37.62
3.25367	37.62
3.27033	37.62
3.28700	37.62
3.30367	37.62
3.32033	37.63
3.33700	37.63
3.35367	37.63
3.37033	37.63
3.38700	37.63
3.40367	37.63
3.42033	37.63
3.43700	37.63
3.45367	37.63
3.47033	37.63
3.48700	37.63
3.50367	37.63
3.52033	37.63
3.53700	37.63
3.55367	37.63
3.57033	37.63
3.58700	37.63
3.60367	37.62
3.62033	37.62
3.63700	37.62
3.65367	37.62
3.67033	37.62
3.68700	37.62
3.70367	37.62
3.72033	37.62
3.73700	37.63
3.75367	37.63
3.77033	37.63
3.78700	37.63
3.80367	37.63
3.82033	37.63
3.83700	37.62
3.85367	37.62
3.87033	37.62
3.88700	37.62
3.90367	37.62
3.92033	37.62
3.93700	37.62
3.95367	37.62
3.97033	37.62
3.98700	37.62

