[Header]
Application Name	LabSolutions
Version	5.110
Data File Name	C:\Users\User\Desktop\Junior\UIC Prairie Sampling\2023\8.18.23\081823_007.gcd
Output Date	8/31/2023
Output Time	12:48:06 PM

[File Information]
Type	Data File
Generated	8/30/2023 4:51:37 PM
Generated by	System Administrator
Modified	8/30/2023 4:57:55 PM
Modified by	System Administrator

[Sample Information]
Operator Name	System Administrator
Acquired	8/30/2023 4:53:55 PM
Sample Type	0:Unknown
Level	0
Sample Name	007
Sample ID	007
ISTD Amount1	1
ISTD Amount2	1
ISTD Amount3	1
ISTD Amount4	1
ISTD Amount5	1
ISTD Amount6	1
ISTD Amount7	1
ISTD Amount8	1
ISTD Amount9	1
ISTD Amount10	1
ISTD Amount11	1
ISTD Amount12	1
ISTD Amount13	1
ISTD Amount14	1
ISTD Amount15	1
ISTD Amount16	1
ISTD Amount17	1
ISTD Amount18	1
ISTD Amount19	1
ISTD Amount20	1
ISTD Amount21	1
ISTD Amount22	1
ISTD Amount23	1
ISTD Amount24	1
ISTD Amount25	1
ISTD Amount26	1
ISTD Amount27	1
ISTD Amount28	1
ISTD Amount29	1
ISTD Amount30	1
ISTD Amount31	1
ISTD Amount32	1
Sample Amount	1
Dilution Factor	1
Vial#	6
Injection Volume	1
Injection Count	1
Bar Code	

[Original Files]
Data File	C:\Users\User\Desktop\Junior\UIC Prairie Sampling\8.18.23\081823_007.gcd
Method File	C:\LabSolutions\Data\GHG_4min_2022\ghg3_togas_w_acet_4 min_new_int.gcm
Batch File	C:\LabSolutions\Data\BATCH FILES\081823.gcb
Report Format File	c:\LabSolutions\System\DEFAULT.lsr

[File Description]


[Configuration]
Instrument Name	C0B7VH3-Instrument1
Instrument #	1
Line #	1
# of Detectors	3
Detector ID	DET#1	DET#2	DET#3
Detector Name	FID	PTCD	ECD
# of Channels	1	1	1

[Peak Table(Ch1)]
# of Peaks	3
Peak#	R.Time	I.Time	F.Time	Area	Height	A/H	Conc.	Mark	ID#	Name	k'	Plate #	Plate Ht.	Tailing	Resolution	Sep.Factor	Area Ratio	Height Ratio	Conc. %	Norm Conc.
1	1.472	1.439	1.527	5274	2651	1.990	0.000	   	1	CO	0.000	9937	15.095	1.312	0.000	0.000	0	0	0.000	0.000
2	1.564	1.527	1.615	4324	2232	1.937	21.081	 V 	2	CH4	0.062	11839	12.670	1.136	1.573	0.000	0	0	11.103	11.103
3	1.989	1.945	2.502	875806	418669	2.092	168.784	   	3	CO2	0.351	17661	8.493	1.323	7.249	5.640	0	0	88.897	88.897

[Peak Table(Ch2)]
# of Peaks	0

[Peak Table(Ch3)]
# of Peaks	6
Peak#	R.Time	I.Time	F.Time	Area	Height	A/H	Conc.	Mark	ID#	Name	k'	Plate #	Plate Ht.	Tailing	Resolution	Sep.Factor	Area Ratio	Height Ratio	Conc. %	Norm Conc.
1	2.458	2.440	2.502	720	281	2.558	0.000	   			0.000	14996	10.003	0.000	0.000	0.000	0	0	0.000	0.000
2	2.513	2.502	2.557	314	149	2.106	0.000	 V 			0.022	6494	23.097	0.000	0.536	0.000	0	0	0.000	0.000
3	2.605	2.557	2.689	440	121	3.634	0.000	 V 			0.060	10560	14.205	0.000	0.811	2.667	0	0	0.000	0.000
4	2.891	2.832	3.063	14302	3975	3.598	0.212	   	1	N2O	0.176	14144	10.605	1.520	2.880	2.950	0	0	100.000	100.000
5	3.280	3.144	3.404	316	36	8.730	0.000	   			0.334	2726	55.035	0.960	2.230	1.898	0	0	0.000	0.000
6	3.628	3.551	3.980	6668	499	13.365	0.000	   			0.476	1489	100.741	2.835	1.110	1.424	0	0	0.000	0.000

[Compound Results(Ch1)]
# of IDs	6
ID#	Name	R.Time	Area	Height	Conc.	Curve	3rd	2nd	1st	Constant	Area Ratio	Height Ratio	Conc. %	Norm Conc.
1	CO	1.472	5274	2651	0.000	Linear	0.000000e+00	0.000000e+00	0.000000e+00	0.000000e+00	0	0	0.000	0.000
2	CH4	1.564	4324	2232	21.081	Linear	0.000000e+00	0.000000e+00	2.051179e+002	0.000000e+00	0	0	11.103	11.103
3	CO2	1.989	875806	418669	168.784	Linear	0.000000e+00	0.000000e+00	5.188919e+003	0.000000e+00	0	0	88.897	88.897
4	Ethylene	0.000	0	0	0.000	Linear	0.000000e+00	0.000000e+00	0.000000e+00	0.000000e+00	0	0	0.000	0.000
5	Acetylene	0.000	0	0	0.000	Linear	0.000000e+00	0.000000e+00	0.000000e+00	0.000000e+00	0	0	0.000	0.000
6	Ethane	0.000	0	0	0.000	Linear	0.000000e+00	0.000000e+00	0.000000e+00	0.000000e+00	0	0	0.000	0.000

[Compound Results(Ch2)]
# of IDs	5
ID#	Name	R.Time	Area	Height	Conc.	Curve	3rd	2nd	1st	Constant	Area Ratio	Height Ratio	Conc. %	Norm Conc.
1	Hydrogen	0.000	0	0	0.000	Linear	0.000000e+00	0.000000e+00	0.000000e+00	0.000000e+00	0	0	0.000	0.000
2	Oxygen	0.000	0	0	0.000	Linear	0.000000e+00	0.000000e+00	0.000000e+00	0.000000e+00	0	0	0.000	0.000
3	Nitrogen	0.000	0	0	0.000	Linear	0.000000e+00	0.000000e+00	0.000000e+00	0.000000e+00	0	0	0.000	0.000
4	Methane	0.000	0	0	0.000	Linear	0.000000e+00	0.000000e+00	0.000000e+00	0.000000e+00	0	0	0.000	0.000
5	Carbon Monoxide	0.000	0	0	0.000	Linear	0.000000e+00	0.000000e+00	0.000000e+00	0.000000e+00	0	0	0.000	0.000

[Compound Results(Ch3)]
# of IDs	2
ID#	Name	R.Time	Area	Height	Conc.	Curve	3rd	2nd	1st	Constant	Area Ratio	Height Ratio	Conc. %	Norm Conc.
1	N2O	2.891	14302	3975	0.212	Linear	0.000000e+00	0.000000e+00	6.759880e+004	0.000000e+00	0	0	100.000	100.000
2	SF6	0.000	0	0	0.000	Linear	0.000000e+00	0.000000e+00	0.000000e+00	0.000000e+00	0	0	0.000	0.000

[Group Results(Ch1)]
# of Groups	0

[Group Results(Ch2)]
# of Groups	0

[Group Results(Ch3)]
# of Groups	0

[Chromatogram (Ch1)]
Interval(msec)	220
# of Points	1091
Start Time(min)	0.002
End Time(min)	3.998
R.Time (min)	Intensity
0.00167	-3
0.00533	-0
0.00900	3
0.01267	7
0.01633	10
0.02000	10
0.02367	10
0.02733	12
0.03100	13
0.03467	10
0.03833	7
0.04200	4
0.04567	-1
0.04933	-5
0.05300	-8
0.05667	-12
0.06033	-14
0.06400	-15
0.06767	-19
0.07133	-24
0.07500	-28
0.07867	-31
0.08233	-30
0.08600	-27
0.08967	-23
0.09333	-19
0.09700	-13
0.10067	-10
0.10433	-6
0.10800	-1
0.11167	3
0.11533	6
0.11900	7
0.12267	2
0.12633	-6
0.13000	-12
0.13367	-17
0.13733	-19
0.14100	-15
0.14467	-6
0.14833	2
0.15200	4
0.15567	3
0.15933	-1
0.16300	-6
0.16667	-11
0.17033	-14
0.17400	-15
0.17767	-12
0.18133	-4
0.18500	7
0.18867	18
0.19233	24
0.19600	21
0.19967	13
0.20333	3
0.20700	-7
0.21067	-17
0.21433	-29
0.21800	-38
0.22167	-45
0.22533	-51
0.22900	-52
0.23267	-48
0.23633	-42
0.24000	-33
0.24367	-24
0.24733	-18
0.25100	-13
0.25467	-10
0.25833	-8
0.26200	-9
0.26567	-12
0.26933	-15
0.27300	-21
0.27667	-27
0.28033	-30
0.28400	-29
0.28767	-28
0.29133	-27
0.29500	-26
0.29867	-22
0.30233	-15
0.30600	-9
0.30967	-5
0.31333	-3
0.31700	-0
0.32067	2
0.32433	5
0.32800	7
0.33167	7
0.33533	8
0.33900	10
0.34267	10
0.34633	9
0.35000	7
0.35367	4
0.35733	6
0.36100	9
0.36467	9
0.36833	9
0.37200	8
0.37567	7
0.37933	4
0.38300	2
0.38667	1
0.39033	-1
0.39400	-2
0.39767	-2
0.40133	2
0.40500	9
0.40867	17
0.41233	19
0.41600	12
0.41967	1
0.42333	-11
0.42700	-21
0.43067	-25
0.43433	-27
0.43800	-25
0.44167	-21
0.44533	-18
0.44900	-17
0.45267	-17
0.45633	-17
0.46000	-16
0.46367	-18
0.46733	-23
0.47100	-29
0.47467	-32
0.47833	-28
0.48200	-20
0.48567	-9
0.48933	-0
0.49300	3
0.49667	4
0.50033	5
0.50400	9
0.50767	11
0.51133	11
0.51500	8
0.51867	4
0.52233	-1
0.52600	-4
0.52967	-7
0.53333	-10
0.53700	-10
0.54067	-7
0.54433	-5
0.54800	-5
0.55167	-4
0.55533	-7
0.55900	-12
0.56267	-16
0.56633	-14
0.57000	-10
0.57367	-5
0.57733	-3
0.58100	1
0.58467	6
0.58833	5
0.59200	-0
0.59567	-8
0.59933	-16
0.60300	-20
0.60667	-20
0.61033	-15
0.61400	-8
0.61767	-7
0.62133	-9
0.62500	-11
0.62867	-13
0.63233	-13
0.63600	-11
0.63967	-7
0.64333	-2
0.64700	-1
0.65067	-4
0.65433	-10
0.65800	-17
0.66167	-21
0.66533	-24
0.66900	-26
0.67267	-27
0.67633	-26
0.68000	-22
0.68367	-16
0.68733	-9
0.69100	1
0.69467	11
0.69833	15
0.70200	12
0.70567	1
0.70933	-13
0.71300	-25
0.71667	-31
0.72033	-33
0.72400	-32
0.72767	-30
0.73133	-31
0.73500	-30
0.73867	-26
0.74233	-15
0.74600	-3
0.74967	7
0.75333	12
0.75700	12
0.76067	9
0.76433	5
0.76800	2
0.77167	0
0.77533	-2
0.77900	-5
0.78267	-8
0.78633	-13
0.79000	-15
0.79367	-12
0.79733	-4
0.80100	2
0.80467	5
0.80833	6
0.81200	8
0.81567	10
0.81933	9
0.82300	0
0.82667	-16
0.83033	-32
0.83400	-43
0.83767	-46
0.84133	-40
0.84500	-32
0.84867	-25
0.85233	-21
0.85600	-20
0.85967	-20
0.86333	-19
0.86700	-18
0.87067	-18
0.87433	-17
0.87800	-19
0.88167	-19
0.88533	-16
0.88900	-11
0.89267	-5
0.89633	0
0.90000	2
0.90367	-1
0.90733	-3
0.91100	-4
0.91467	-6
0.91833	-6
0.92200	-7
0.92567	-10
0.92933	-12
0.93300	-12
0.93667	-14
0.94033	-16
0.94400	-15
0.94767	-10
0.95133	-1
0.95500	9
0.95867	12
0.96233	5
0.96600	-8
0.96967	-19
0.97333	-26
0.97700	-28
0.98067	-24
0.98433	-21
0.98800	-22
0.99167	-24
0.99533	-27
0.99900	-27
1.00267	-27
1.00633	-30
1.01000	-33
1.01367	-34
1.01733	-32
1.02100	-31
1.02467	-30
1.02833	-27
1.03200	-25
1.03567	-23
1.03933	-21
1.04300	-18
1.04667	-17
1.05033	-19
1.05400	-19
1.05767	-21
1.06133	-22
1.06500	-20
1.06867	-18
1.07233	-13
1.07600	-7
1.07967	-4
1.08333	-4
1.08700	-5
1.09067	-7
1.09433	-7
1.09800	-6
1.10167	-4
1.10533	-3
1.10900	-5
1.11267	-9
1.11633	-12
1.12000	-12
1.12367	-10
1.12733	-8
1.13100	-10
1.13467	-13
1.13833	-17
1.14200	-19
1.14567	-21
1.14933	-22
1.15300	-17
1.15667	-9
1.16033	-5
1.16400	-6
1.16767	-8
1.17133	-11
1.17500	-13
1.17867	-12
1.18233	-11
1.18600	-14
1.18967	-19
1.19333	-25
1.19700	-30
1.20067	-32
1.20433	-33
1.20800	-34
1.21167	-33
1.21533	-26
1.21900	-14
1.22267	-4
1.22633	-1
1.23000	-3
1.23367	-6
1.23733	-12
1.24100	-17
1.24467	-22
1.24833	-28
1.25200	-34
1.25567	-37
1.25933	-36
1.26300	-33
1.26667	-32
1.27033	-33
1.27400	-34
1.27767	-35
1.28133	-37
1.28500	-39
1.28867	-41
1.29233	-43
1.29600	-43
1.29967	-41
1.30333	-37
1.30700	-33
1.31067	-28
1.31433	-24
1.31800	-26
1.32167	-30
1.32533	-32
1.32900	-31
1.33267	-27
1.33633	-24
1.34000	-24
1.34367	-25
1.34733	-24
1.35100	-23
1.35467	-24
1.35833	-26
1.36200	-27
1.36567	-28
1.36933	-27
1.37300	-27
1.37667	-27
1.38033	-27
1.38400	-25
1.38767	-22
1.39133	-19
1.39500	-16
1.39867	-12
1.40233	-9
1.40600	-10
1.40967	-16
1.41333	-22
1.41700	-23
1.42067	-23
1.42433	-23
1.42800	-22
1.43167	-20
1.43533	-17
1.43900	-12
1.44267	-5
1.44633	80
1.45000	358
1.45367	824
1.45733	1361
1.46100	1860
1.46467	2262
1.46833	2533
1.47200	2639
1.47567	2546
1.47933	2270
1.48300	1883
1.48667	1473
1.49033	1102
1.49400	798
1.49767	566
1.50133	398
1.50500	277
1.50867	191
1.51233	127
1.51600	79
1.51967	45
1.52333	23
1.52700	9
1.53067	8
1.53433	47
1.53800	183
1.54167	466
1.54533	872
1.54900	1318
1.55267	1717
1.55633	2018
1.56000	2196
1.56367	2220
1.56733	2072
1.57100	1778
1.57467	1408
1.57833	1040
1.58200	728
1.58567	491
1.58933	325
1.59300	214
1.59667	137
1.60033	82
1.60400	41
1.60767	11
1.61133	-5
1.61500	-12
1.61867	-15
1.62233	-18
1.62600	-21
1.62967	-25
1.63333	-30
1.63700	-32
1.64067	-28
1.64433	-22
1.64800	-18
1.65167	-15
1.65533	-16
1.65900	-20
1.66267	-26
1.66633	-35
1.67000	-43
1.67367	-47
1.67733	-46
1.68100	-44
1.68467	-41
1.68833	-40
1.69200	-41
1.69567	-38
1.69933	-32
1.70300	-28
1.70667	-28
1.71033	-30
1.71400	-36
1.71767	-40
1.72133	-41
1.72500	-40
1.72867	-42
1.73233	-47
1.73600	-54
1.73967	-59
1.74333	-58
1.74700	-54
1.75067	-51
1.75433	-48
1.75800	-46
1.76167	-46
1.76533	-46
1.76900	-48
1.77267	-51
1.77633	-53
1.78000	-54
1.78367	-55
1.78733	-58
1.79100	-65
1.79467	-71
1.79833	-74
1.80200	-75
1.80567	-75
1.80933	-76
1.81300	-75
1.81667	-73
1.82033	-69
1.82400	-64
1.82767	-63
1.83133	-64
1.83500	-63
1.83867	-60
1.84233	-58
1.84600	-57
1.84967	-55
1.85333	-52
1.85700	-50
1.86067	-50
1.86433	-52
1.86800	-54
1.87167	-56
1.87533	-61
1.87900	-67
1.88267	-70
1.88633	-66
1.89000	-59
1.89367	-52
1.89733	-50
1.90100	-52
1.90467	-58
1.90833	-64
1.91200	-66
1.91567	-66
1.91933	-63
1.92300	-57
1.92667	-51
1.93033	-47
1.93400	-46
1.93767	-48
1.94133	-49
1.94500	-42
1.94867	13
1.95233	339
1.95600	1897
1.95967	7524
1.96333	22870
1.96700	55352
1.97067	109494
1.97433	182071
1.97800	262124
1.98167	335773
1.98533	390887
1.98900	418641
1.99267	415090
1.99633	382401
2.00000	328798
2.00367	265678
2.00733	203748
2.01100	150028
2.01467	107351
2.01833	75514
2.02200	52776
2.02567	37002
2.02933	26250
2.03300	18984
2.03667	14084
2.04033	10762
2.04400	8482
2.04767	6890
2.05133	5752
2.05500	4916
2.05867	4288
2.06233	3800
2.06600	3409
2.06967	3090
2.07333	2825
2.07700	2602
2.08067	2415
2.08433	2256
2.08800	2119
2.09167	1994
2.09533	1880
2.09900	1778
2.10267	1689
2.10633	1610
2.11000	1538
2.11367	1470
2.11733	1404
2.12100	1341
2.12467	1283
2.12833	1232
2.13200	1186
2.13567	1145
2.13933	1105
2.14300	1063
2.14667	1019
2.15033	977
2.15400	940
2.15767	908
2.16133	883
2.16500	862
2.16867	844
2.17233	832
2.17600	818
2.17967	798
2.18333	772
2.18700	743
2.19067	714
2.19433	690
2.19800	671
2.20167	656
2.20533	640
2.20900	625
2.21267	614
2.21633	603
2.22000	590
2.22367	575
2.22733	558
2.23100	540
2.23467	522
2.23833	507
2.24200	495
2.24567	482
2.24933	466
2.25300	453
2.25667	443
2.26033	437
2.26400	431
2.26767	426
2.27133	421
2.27500	414
2.27867	406
2.28233	398
2.28600	389
2.28967	380
2.29333	371
2.29700	364
2.30067	357
2.30433	350
2.30800	340
2.31167	331
2.31533	323
2.31900	315
2.32267	305
2.32633	295
2.33000	290
2.33367	288
2.33733	284
2.34100	277
2.34467	267
2.34833	261
2.35200	259
2.35567	258
2.35933	258
2.36300	261
2.36667	264
2.37033	265
2.37400	262
2.37767	255
2.38133	246
2.38500	238
2.38867	233
2.39233	232
2.39600	233
2.39967	229
2.40333	222
2.40700	216
2.41067	210
2.41433	202
2.41800	195
2.42167	191
2.42533	188
2.42900	185
2.43267	183
2.43633	182
2.44000	184
2.44367	186
2.44733	188
2.45100	189
2.45467	189
2.45833	186
2.46200	182
2.46567	179
2.46933	176
2.47300	175
2.47667	171
2.48033	168
2.48400	162
2.48767	156
2.49133	150
2.49500	147
2.49867	145
2.50233	140
2.50600	133
2.50967	126
2.51333	126
2.51700	131
2.52067	136
2.52433	139
2.52800	139
2.53167	140
2.53533	142
2.53900	140
2.54267	137
2.54633	135
2.55000	133
2.55367	132
2.55733	133
2.56100	134
2.56467	132
2.56833	128
2.57200	125
2.57567	122
2.57933	119
2.58300	116
2.58667	113
2.59033	112
2.59400	113
2.59767	111
2.60133	107
2.60500	102
2.60867	94
2.61233	87
2.61600	82
2.61967	81
2.62333	80
2.62700	84
2.63067	91
2.63433	97
2.63800	100
2.64167	96
2.64533	88
2.64900	82
2.65267	78
2.65633	76
2.66000	76
2.66367	75
2.66733	73
2.67100	75
2.67467	79
2.67833	81
2.68200	81
2.68567	81
2.68933	82
2.69300	81
2.69667	78
2.70033	76
2.70400	75
2.70767	69
2.71133	60
2.71500	51
2.71867	46
2.72233	44
2.72600	45
2.72967	49
2.73333	54
2.73700	58
2.74067	57
2.74433	53
2.74800	51
2.75167	55
2.75533	59
2.75900	63
2.76267	67
2.76633	72
2.77000	75
2.77367	75
2.77733	73
2.78100	69
2.78467	67
2.78833	68
2.79200	70
2.79567	72
2.79933	74
2.80300	76
2.80667	78
2.81033	81
2.81400	84
2.81767	85
2.82133	87
2.82500	90
2.82867	89
2.83233	82
2.83600	71
2.83967	62
2.84333	57
2.84700	52
2.85067	45
2.85433	39
2.85800	37
2.86167	40
2.86533	42
2.86900	42
2.87267	41
2.87633	37
2.88000	31
2.88367	28
2.88733	25
2.89100	25
2.89467	27
2.89833	28
2.90200	27
2.90567	28
2.90933	32
2.91300	34
2.91667	35
2.92033	35
2.92400	37
2.92767	44
2.93133	52
2.93500	59
2.93867	61
2.94233	59
2.94600	54
2.94967	48
2.95333	41
2.95700	36
2.96067	33
2.96433	30
2.96800	30
2.97167	33
2.97533	35
2.97900	38
2.98267	42
2.98633	45
2.99000	45
2.99367	44
2.99733	44
3.00100	46
3.00467	53
3.00833	60
3.01200	65
3.01567	67
3.01933	65
3.02300	57
3.02667	48
3.03033	43
3.03400	39
3.03767	35
3.04133	31
3.04500	30
3.04867	28
3.05233	23
3.05600	18
3.05967	17
3.06333	20
3.06700	22
3.07067	25
3.07433	27
3.07800	27
3.08167	28
3.08533	29
3.08900	32
3.09267	33
3.09633	29
3.10000	21
3.10367	13
3.10733	10
3.11100	7
3.11467	7
3.11833	7
3.12200	6
3.12567	4
3.12933	3
3.13300	2
3.13667	2
3.14033	2
3.14400	3
3.14767	4
3.15133	9
3.15500	16
3.15867	21
3.16233	20
3.16600	18
3.16967	20
3.17333	22
3.17700	23
3.18067	23
3.18433	23
3.18800	23
3.19167	22
3.19533	21
3.19900	24
3.20267	29
3.20633	32
3.21000	33
3.21367	32
3.21733	26
3.22100	18
3.22467	11
3.22833	6
3.23200	5
3.23567	7
3.23933	7
3.24300	9
3.24667	14
3.25033	14
3.25400	9
3.25767	4
3.26133	4
3.26500	5
3.26867	5
3.27233	4
3.27600	3
3.27967	1
3.28333	-1
3.28700	1
3.29067	8
3.29433	13
3.29800	14
3.30167	15
3.30533	17
3.30900	18
3.31267	18
3.31633	16
3.32000	13
3.32367	8
3.32733	6
3.33100	5
3.33467	6
3.33833	9
3.34200	12
3.34567	14
3.34933	16
3.35300	18
3.35667	17
3.36033	11
3.36400	4
3.36767	-0
3.37133	1
3.37500	6
3.37867	11
3.38233	15
3.38600	20
3.38967	24
3.39333	22
3.39700	17
3.40067	11
3.40433	7
3.40800	3
3.41167	-2
3.41533	-6
3.41900	-8
3.42267	-7
3.42633	-5
3.43000	-3
3.43367	-3
3.43733	-5
3.44100	-10
3.44467	-14
3.44833	-17
3.45200	-14
3.45567	-6
3.45933	4
3.46300	9
3.46667	10
3.47033	7
3.47400	5
3.47767	5
3.48133	3
3.48500	0
3.48867	-2
3.49233	-5
3.49600	-6
3.49967	-5
3.50333	-4
3.50700	-1
3.51067	-1
3.51433	-1
3.51800	3
3.52167	8
3.52533	12
3.52900	12
3.53267	7
3.53633	1
3.54000	2
3.54367	8
3.54733	10
3.55100	7
3.55467	-1
3.55833	-10
3.56200	-16
3.56567	-22
3.56933	-25
3.57300	-25
3.57667	-25
3.58033	-22
3.58400	-22
3.58767	-24
3.59133	-23
3.59500	-22
3.59867	-22
3.60233	-23
3.60600	-25
3.60967	-26
3.61333	-26
3.61700	-25
3.62067	-23
3.62433	-22
3.62800	-21
3.63167	-21
3.63533	-23
3.63900	-26
3.64267	-28
3.64633	-30
3.65000	-28
3.65367	-26
3.65733	-23
3.66100	-21
3.66467	-21
3.66833	-23
3.67200	-24
3.67567	-23
3.67933	-20
3.68300	-18
3.68667	-16
3.69033	-14
3.69400	-13
3.69767	-13
3.70133	-15
3.70500	-15
3.70867	-12
3.71233	-8
3.71600	-5
3.71967	-2
3.72333	1
3.72700	2
3.73067	-6
3.73433	-17
3.73800	-27
3.74167	-31
3.74533	-32
3.74900	-31
3.75267	-27
3.75633	-23
3.76000	-19
3.76367	-18
3.76733	-21
3.77100	-23
3.77467	-27
3.77833	-32
3.78200	-37
3.78567	-37
3.78933	-32
3.79300	-26
3.79667	-22
3.80033	-22
3.80400	-22
3.80767	-20
3.81133	-19
3.81500	-16
3.81867	-13
3.82233	-12
3.82600	-13
3.82967	-13
3.83333	-13
3.83700	-12
3.84067	-12
3.84433	-15
3.84800	-22
3.85167	-30
3.85533	-35
3.85900	-37
3.86267	-36
3.86633	-36
3.87000	-36
3.87367	-33
3.87733	-26
3.88100	-20
3.88467	-14
3.88833	-9
3.89200	-11
3.89567	-17
3.89933	-21
3.90300	-22
3.90667	-20
3.91033	-19
3.91400	-17
3.91767	-15
3.92133	-12
3.92500	-9
3.92867	-10
3.93233	-14
3.93600	-18
3.93967	-23
3.94333	-28
3.94700	-32
3.95067	-34
3.95433	-39
3.95800	-46
3.96167	-51
3.96533	-56
3.96900	-60
3.97267	-60
3.97633	-57
3.98000	-50
3.98367	-43
3.98733	-36
3.99100	-32
3.99467	-31
3.99833	-32

[Chromatogram (Ch2)]
Interval(msec)	220
# of Points	1091
Start Time(min)	0.002
End Time(min)	3.998
R.Time (min)	Intensity
0.00167	0
0.00533	0
0.00900	1
0.01267	1
0.01633	1
0.02000	0
0.02367	0
0.02733	-0
0.03100	-1
0.03467	-1
0.03833	-1
0.04200	-1
0.04567	-1
0.04933	-1
0.05300	-1
0.05667	-1
0.06033	-0
0.06400	-0
0.06767	-0
0.07133	0
0.07500	0
0.07867	0
0.08233	0
0.08600	0
0.08967	0
0.09333	1
0.09700	1
0.10067	1
0.10433	1
0.10800	1
0.11167	1
0.11533	2
0.11900	2
0.12267	2
0.12633	2
0.13000	2
0.13367	2
0.13733	2
0.14100	2
0.14467	2
0.14833	2
0.15200	2
0.15567	2
0.15933	2
0.16300	1
0.16667	1
0.17033	1
0.17400	0
0.17767	0
0.18133	0
0.18500	0
0.18867	0
0.19233	-0
0.19600	-0
0.19967	-1
0.20333	-1
0.20700	-1
0.21067	-2
0.21433	-2
0.21800	-2
0.22167	-2
0.22533	-2
0.22900	-2
0.23267	-2
0.23633	-2
0.24000	-2
0.24367	-2
0.24733	-2
0.25100	-2
0.25467	-2
0.25833	-2
0.26200	-2
0.26567	-2
0.26933	-2
0.27300	-1
0.27667	-1
0.28033	-1
0.28400	-1
0.28767	-1
0.29133	-0
0.29500	-0
0.29867	-0
0.30233	-0
0.30600	0
0.30967	0
0.31333	0
0.31700	0
0.32067	0
0.32433	0
0.32800	0
0.33167	1
0.33533	1
0.33900	1
0.34267	1
0.34633	1
0.35000	1
0.35367	0
0.35733	0
0.36100	-0
0.36467	-1
0.36833	-1
0.37200	-1
0.37567	-1
0.37933	-1
0.38300	-1
0.38667	-1
0.39033	-1
0.39400	-1
0.39767	-1
0.40133	-1
0.40500	-1
0.40867	-1
0.41233	-1
0.41600	-1
0.41967	-1
0.42333	-1
0.42700	-1
0.43067	-1
0.43433	-1
0.43800	-0
0.44167	-0
0.44533	-0
0.44900	-1
0.45267	-1
0.45633	-1
0.46000	-1
0.46367	-1
0.46733	-2
0.47100	-2
0.47467	-2
0.47833	-2
0.48200	-2
0.48567	-1
0.48933	-1
0.49300	-1
0.49667	-1
0.50033	-1
0.50400	-1
0.50767	-1
0.51133	-1
0.51500	-0
0.51867	-1
0.52233	-1
0.52600	-1
0.52967	-1
0.53333	-1
0.53700	-1
0.54067	-1
0.54433	-1
0.54800	-1
0.55167	-1
0.55533	-1
0.55900	-1
0.56267	-1
0.56633	-1
0.57000	-1
0.57367	-1
0.57733	-2
0.58100	-2
0.58467	-2
0.58833	-2
0.59200	-2
0.59567	-1
0.59933	-1
0.60300	-1
0.60667	-1
0.61033	-1
0.61400	-1
0.61767	-1
0.62133	-1
0.62500	-1
0.62867	-1
0.63233	-1
0.63600	-1
0.63967	-0
0.64333	-1
0.64700	-1
0.65067	-1
0.65433	-1
0.65800	-1
0.66167	-1
0.66533	-1
0.66900	-1
0.67267	-1
0.67633	-1
0.68000	-1
0.68367	-2
0.68733	-2
0.69100	-2
0.69467	-2
0.69833	-2
0.70200	-2
0.70567	-3
0.70933	-3
0.71300	-3
0.71667	-4
0.72033	-4
0.72400	-3
0.72767	-4
0.73133	-4
0.73500	-4
0.73867	-4
0.74233	-4
0.74600	-4
0.74967	-4
0.75333	-3
0.75700	-3
0.76067	-3
0.76433	-2
0.76800	-2
0.77167	-2
0.77533	-2
0.77900	-2
0.78267	-3
0.78633	-3
0.79000	-4
0.79367	-4
0.79733	-4
0.80100	-5
0.80467	-5
0.80833	-5
0.81200	-5
0.81567	-5
0.81933	-4
0.82300	-4
0.82667	-4
0.83033	-4
0.83400	-4
0.83767	-3
0.84133	-3
0.84500	-3
0.84867	-2
0.85233	-2
0.85600	-2
0.85967	-2
0.86333	-2
0.86700	-2
0.87067	-2
0.87433	-1
0.87800	-1
0.88167	-1
0.88533	-1
0.88900	-1
0.89267	-1
0.89633	-1
0.90000	-1
0.90367	-1
0.90733	-1
0.91100	-0
0.91467	-0
0.91833	-0
0.92200	-1
0.92567	-1
0.92933	-1
0.93300	-2
0.93667	-1
0.94033	-1
0.94400	-1
0.94767	-1
0.95133	-1
0.95500	-1
0.95867	-1
0.96233	-1
0.96600	-1
0.96967	-2
0.97333	-2
0.97700	-2
0.98067	-2
0.98433	-2
0.98800	-1
0.99167	-1
0.99533	-1
0.99900	-1
1.00267	-1
1.00633	-1
1.01000	-1
1.01367	-1
1.01733	-1
1.02100	-1
1.02467	-1
1.02833	-0
1.03200	-0
1.03567	0
1.03933	1
1.04300	1
1.04667	1
1.05033	1
1.05400	1
1.05767	2
1.06133	2
1.06500	2
1.06867	1
1.07233	1
1.07600	1
1.07967	1
1.08333	1
1.08700	1
1.09067	0
1.09433	-0
1.09800	-1
1.10167	-1
1.10533	-1
1.10900	-1
1.11267	-2
1.11633	-2
1.12000	-2
1.12367	-2
1.12733	-3
1.13100	-3
1.13467	-3
1.13833	-3
1.14200	-2
1.14567	-2
1.14933	-2
1.15300	-2
1.15667	-2
1.16033	-3
1.16400	-3
1.16767	-3
1.17133	-3
1.17500	-3
1.17867	-4
1.18233	-4
1.18600	-4
1.18967	-4
1.19333	-4
1.19700	-4
1.20067	-5
1.20433	-5
1.20800	-5
1.21167	-5
1.21533	-5
1.21900	-5
1.22267	-4
1.22633	-4
1.23000	-4
1.23367	-3
1.23733	-3
1.24100	-3
1.24467	-2
1.24833	-2
1.25200	-2
1.25567	-1
1.25933	-1
1.26300	-1
1.26667	-1
1.27033	-0
1.27400	-0
1.27767	-0
1.28133	-1
1.28500	-1
1.28867	-1
1.29233	-2
1.29600	-2
1.29967	-2
1.30333	-2
1.30700	-2
1.31067	-2
1.31433	-3
1.31800	-3
1.32167	-3
1.32533	-3
1.32900	-3
1.33267	-3
1.33633	-2
1.34000	-2
1.34367	-2
1.34733	-2
1.35100	-2
1.35467	-2
1.35833	-2
1.36200	-2
1.36567	-2
1.36933	-2
1.37300	-2
1.37667	-2
1.38033	-2
1.38400	-2
1.38767	-2
1.39133	-2
1.39500	-2
1.39867	-2
1.40233	-3
1.40600	-3
1.40967	-3
1.41333	-3
1.41700	-4
1.42067	-4
1.42433	-5
1.42800	-5
1.43167	-5
1.43533	-6
1.43900	-6
1.44267	-6
1.44633	-6
1.45000	-6
1.45367	-6
1.45733	-6
1.46100	-5
1.46467	-4
1.46833	-4
1.47200	-3
1.47567	-3
1.47933	-3
1.48300	-2
1.48667	-2
1.49033	-2
1.49400	-2
1.49767	-2
1.50133	-2
1.50500	-1
1.50867	-1
1.51233	-1
1.51600	-1
1.51967	-1
1.52333	-1
1.52700	-1
1.53067	-1
1.53433	-1
1.53800	-2
1.54167	-2
1.54533	-2
1.54900	-2
1.55267	-2
1.55633	-2
1.56000	-2
1.56367	-2
1.56733	-2
1.57100	-2
1.57467	-3
1.57833	-3
1.58200	-4
1.58567	-4
1.58933	-4
1.59300	-4
1.59667	-5
1.60033	-5
1.60400	-7
1.60767	-8
1.61133	-10
1.61500	-12
1.61867	-14
1.62233	-16
1.62600	-19
1.62967	-22
1.63333	-24
1.63700	-27
1.64067	-31
1.64433	-34
1.64800	-37
1.65167	-40
1.65533	-43
1.65900	-47
1.66267	-50
1.66633	-54
1.67000	-58
1.67367	-63
1.67733	-67
1.68100	-72
1.68467	-76
1.68833	-80
1.69200	-83
1.69567	-86
1.69933	-88
1.70300	-90
1.70667	-91
1.71033	-92
1.71400	-93
1.71767	-94
1.72133	-95
1.72500	-96
1.72867	-96
1.73233	-96
1.73600	-97
1.73967	-98
1.74333	-99
1.74700	-100
1.75067	-101
1.75433	-102
1.75800	-102
1.76167	-102
1.76533	-102
1.76900	-102
1.77267	-101
1.77633	-100
1.78000	-99
1.78367	-98
1.78733	-97
1.79100	-97
1.79467	-98
1.79833	-98
1.80200	-98
1.80567	-98
1.80933	-99
1.81300	-99
1.81667	-99
1.82033	-99
1.82400	-99
1.82767	-99
1.83133	-99
1.83500	-100
1.83867	-100
1.84233	-100
1.84600	-101
1.84967	-101
1.85333	-102
1.85700	-102
1.86067	-103
1.86433	-103
1.86800	-103
1.87167	-103
1.87533	-103
1.87900	-102
1.88267	-102
1.88633	-102
1.89000	-101
1.89367	-100
1.89733	-99
1.90100	-99
1.90467	-98
1.90833	-98
1.91200	-98
1.91567	-98
1.91933	-98
1.92300	-98
1.92667	-97
1.93033	-97
1.93400	-97
1.93767	-97
1.94133	-96
1.94500	-96
1.94867	-96
1.95233	-96
1.95600	-95
1.95967	-95
1.96333	-95
1.96700	-95
1.97067	-95
1.97433	-94
1.97800	-95
1.98167	-94
1.98533	-94
1.98900	-94
1.99267	-94
1.99633	-94
2.00000	-94
2.00367	-94
2.00733	-94
2.01100	-94
2.01467	-94
2.01833	-93
2.02200	-93
2.02567	-92
2.02933	-92
2.03300	-91
2.03667	-90
2.04033	-90
2.04400	-89
2.04767	-89
2.05133	-89
2.05500	-89
2.05867	-89
2.06233	-89
2.06600	-88
2.06967	-88
2.07333	-88
2.07700	-87
2.08067	-87
2.08433	-87
2.08800	-87
2.09167	-86
2.09533	-86
2.09900	-86
2.10267	-85
2.10633	-85
2.11000	-85
2.11367	-85
2.11733	-85
2.12100	-85
2.12467	-85
2.12833	-85
2.13200	-84
2.13567	-83
2.13933	-83
2.14300	-82
2.14667	-82
2.15033	-82
2.15400	-83
2.15767	-83
2.16133	-83
2.16500	-83
2.16867	-82
2.17233	-82
2.17600	-81
2.17967	-81
2.18333	-81
2.18700	-80
2.19067	-80
2.19433	-80
2.19800	-80
2.20167	-80
2.20533	-79
2.20900	-79
2.21267	-79
2.21633	-79
2.22000	-79
2.22367	-78
2.22733	-78
2.23100	-78
2.23467	-77
2.23833	-77
2.24200	-77
2.24567	-76
2.24933	-76
2.25300	-75
2.25667	-75
2.26033	-75
2.26400	-74
2.26767	-73
2.27133	-72
2.27500	-72
2.27867	-71
2.28233	-71
2.28600	-71
2.28967	-71
2.29333	-71
2.29700	-71
2.30067	-71
2.30433	-71
2.30800	-71
2.31167	-71
2.31533	-71
2.31900	-70
2.32267	-69
2.32633	-68
2.33000	-67
2.33367	-66
2.33733	-65
2.34100	-65
2.34467	-64
2.34833	-64
2.35200	-64
2.35567	-64
2.35933	-64
2.36300	-64
2.36667	-63
2.37033	-62
2.37400	-60
2.37767	-57
2.38133	-54
2.38500	-51
2.38867	-47
2.39233	-43
2.39600	-38
2.39967	-34
2.40333	-29
2.40700	-25
2.41067	-21
2.41433	-17
2.41800	-14
2.42167	-11
2.42533	-9
2.42900	-6
2.43267	-4
2.43633	-2
2.44000	-0
2.44367	1
2.44733	3
2.45100	5
2.45467	6
2.45833	7
2.46200	8
2.46567	9
2.46933	10
2.47300	10
2.47667	11
2.48033	12
2.48400	13
2.48767	13
2.49133	14
2.49500	15
2.49867	15
2.50233	16
2.50600	17
2.50967	17
2.51333	17
2.51700	17
2.52067	16
2.52433	16
2.52800	16
2.53167	16
2.53533	16
2.53900	16
2.54267	16
2.54633	16
2.55000	16
2.55367	15
2.55733	15
2.56100	15
2.56467	15
2.56833	15
2.57200	14
2.57567	14
2.57933	14
2.58300	15
2.58667	15
2.59033	16
2.59400	16
2.59767	17
2.60133	17
2.60500	17
2.60867	17
2.61233	17
2.61600	17
2.61967	17
2.62333	17
2.62700	18
2.63067	18
2.63433	18
2.63800	18
2.64167	18
2.64533	19
2.64900	19
2.65267	19
2.65633	20
2.66000	20
2.66367	21
2.66733	22
2.67100	23
2.67467	24
2.67833	24
2.68200	24
2.68567	24
2.68933	24
2.69300	24
2.69667	23
2.70033	23
2.70400	23
2.70767	24
2.71133	24
2.71500	24
2.71867	24
2.72233	25
2.72600	25
2.72967	25
2.73333	25
2.73700	26
2.74067	26
2.74433	27
2.74800	27
2.75167	27
2.75533	27
2.75900	27
2.76267	27
2.76633	27
2.77000	28
2.77367	28
2.77733	28
2.78100	28
2.78467	28
2.78833	28
2.79200	28
2.79567	27
2.79933	27
2.80300	27
2.80667	27
2.81033	27
2.81400	27
2.81767	27
2.82133	27
2.82500	27
2.82867	26
2.83233	26
2.83600	26
2.83967	26
2.84333	26
2.84700	26
2.85067	25
2.85433	24
2.85800	23
2.86167	19
2.86533	14
2.86900	6
2.87267	-7
2.87633	-23
2.88000	-45
2.88367	-73
2.88733	-106
2.89100	-144
2.89467	-187
2.89833	-236
2.90200	-289
2.90567	-345
2.90933	-405
2.91300	-468
2.91667	-532
2.92033	-597
2.92400	-662
2.92767	-726
2.93133	-788
2.93500	-847
2.93867	-902
2.94233	-957
2.94600	-1012
2.94967	-1065
2.95333	-1104
2.95700	-1123
2.96067	-1117
2.96433	-1086
2.96800	-1034
2.97167	-967
2.97533	-890
2.97900	-809
2.98267	-727
2.98633	-647
2.99000	-571
2.99367	-500
2.99733	-435
3.00100	-377
3.00467	-325
3.00833	-278
3.01200	-238
3.01567	-202
3.01933	-171
3.02300	-145
3.02667	-121
3.03033	-102
3.03400	-84
3.03767	-70
3.04133	-58
3.04500	-47
3.04867	-38
3.05233	-30
3.05600	-23
3.05967	-18
3.06333	-13
3.06700	-8
3.07067	-5
3.07433	-2
3.07800	1
3.08167	4
3.08533	6
3.08900	7
3.09267	9
3.09633	10
3.10000	11
3.10367	12
3.10733	13
3.11100	14
3.11467	15
3.11833	15
3.12200	15
3.12567	16
3.12933	16
3.13300	17
3.13667	17
3.14033	18
3.14400	18
3.14767	19
3.15133	19
3.15500	20
3.15867	21
3.16233	21
3.16600	22
3.16967	23
3.17333	23
3.17700	24
3.18067	25
3.18433	25
3.18800	26
3.19167	26
3.19533	27
3.19900	27
3.20267	27
3.20633	27
3.21000	27
3.21367	27
3.21733	27
3.22100	27
3.22467	27
3.22833	27
3.23200	27
3.23567	28
3.23933	28
3.24300	28
3.24667	28
3.25033	28
3.25400	28
3.25767	29
3.26133	29
3.26500	29
3.26867	29
3.27233	29
3.27600	29
3.27967	29
3.28333	29
3.28700	28
3.29067	28
3.29433	28
3.29800	28
3.30167	28
3.30533	28
3.30900	28
3.31267	28
3.31633	28
3.32000	28
3.32367	28
3.32733	28
3.33100	28
3.33467	28
3.33833	28
3.34200	28
3.34567	28
3.34933	28
3.35300	27
3.35667	27
3.36033	27
3.36400	27
3.36767	28
3.37133	28
3.37500	28
3.37867	28
3.38233	28
3.38600	28
3.38967	29
3.39333	29
3.39700	29
3.40067	29
3.40433	29
3.40800	29
3.41167	29
3.41533	29
3.41900	29
3.42267	29
3.42633	29
3.43000	29
3.43367	29
3.43733	29
3.44100	29
3.44467	29
3.44833	29
3.45200	28
3.45567	28
3.45933	28
3.46300	28
3.46667	28
3.47033	28
3.47400	28
3.47767	28
3.48133	28
3.48500	28
3.48867	28
3.49233	28
3.49600	28
3.49967	28
3.50333	28
3.50700	28
3.51067	28
3.51433	28
3.51800	28
3.52167	28
3.52533	28
3.52900	28
3.53267	28
3.53633	28
3.54000	28
3.54367	28
3.54733	29
3.55100	29
3.55467	29
3.55833	29
3.56200	29
3.56567	29
3.56933	29
3.57300	29
3.57667	29
3.58033	29
3.58400	29
3.58767	29
3.59133	29
3.59500	29
3.59867	29
3.60233	29
3.60600	29
3.60967	29
3.61333	30
3.61700	30
3.62067	30
3.62433	30
3.62800	30
3.63167	30
3.63533	30
3.63900	30
3.64267	30
3.64633	30
3.65000	30
3.65367	30
3.65733	30
3.66100	30
3.66467	30
3.66833	30
3.67200	30
3.67567	30
3.67933	30
3.68300	30
3.68667	29
3.69033	29
3.69400	29
3.69767	29
3.70133	29
3.70500	29
3.70867	29
3.71233	29
3.71600	29
3.71967	29
3.72333	29
3.72700	29
3.73067	29
3.73433	29
3.73800	29
3.74167	29
3.74533	29
3.74900	29
3.75267	29
3.75633	29
3.76000	29
3.76367	30
3.76733	30
3.77100	30
3.77467	29
3.77833	29
3.78200	29
3.78567	29
3.78933	29
3.79300	28
3.79667	28
3.80033	28
3.80400	28
3.80767	28
3.81133	28
3.81500	29
3.81867	29
3.82233	29
3.82600	29
3.82967	30
3.83333	30
3.83700	30
3.84067	30
3.84433	30
3.84800	30
3.85167	30
3.85533	30
3.85900	30
3.86267	30
3.86633	30
3.87000	30
3.87367	30
3.87733	30
3.88100	30
3.88467	30
3.88833	30
3.89200	30
3.89567	30
3.89933	30
3.90300	30
3.90667	30
3.91033	30
3.91400	30
3.91767	30
3.92133	30
3.92500	30
3.92867	30
3.93233	30
3.93600	30
3.93967	30
3.94333	30
3.94700	30
3.95067	30
3.95433	30
3.95800	31
3.96167	31
3.96533	31
3.96900	31
3.97267	31
3.97633	31
3.98000	31
3.98367	31
3.98733	31
3.99100	31
3.99467	31
3.99833	31

[Chromatogram (Ch3)]
Interval(msec)	220
# of Points	1091
Start Time(min)	0.002
End Time(min)	3.998
R.Time (min)	Intensity
0.00167	0
0.00533	0
0.00900	1
0.01267	1
0.01633	0
0.02000	0
0.02367	3
0.02733	4
0.03100	2
0.03467	-1
0.03833	-3
0.04200	-1
0.04567	-1
0.04933	-1
0.05300	-1
0.05667	-2
0.06033	-3
0.06400	-4
0.06767	-3
0.07133	1
0.07500	5
0.07867	6
0.08233	3
0.08600	1
0.08967	2
0.09333	2
0.09700	0
0.10067	-1
0.10433	-0
0.10800	1
0.11167	1
0.11533	-0
0.11900	0
0.12267	-3
0.12633	-7
0.13000	-8
0.13367	-6
0.13733	-4
0.14100	-5
0.14467	-9
0.14833	-9
0.15200	-6
0.15567	-3
0.15933	-2
0.16300	0
0.16667	1
0.17033	3
0.17400	0
0.17767	-0
0.18133	-0
0.18500	1
0.18867	2
0.19233	4
0.19600	5
0.19967	4
0.20333	3
0.20700	2
0.21067	3
0.21433	4
0.21800	2
0.22167	3
0.22533	2
0.22900	-0
0.23267	-1
0.23633	1
0.24000	3
0.24367	3
0.24733	3
0.25100	4
0.25467	4
0.25833	5
0.26200	3
0.26567	2
0.26933	-1
0.27300	-2
0.27667	0
0.28033	2
0.28400	3
0.28767	4
0.29133	5
0.29500	7
0.29867	7
0.30233	6
0.30600	6
0.30967	6
0.31333	6
0.31700	6
0.32067	5
0.32433	4
0.32800	4
0.33167	4
0.33533	4
0.33900	3
0.34267	2
0.34633	1
0.35000	1
0.35367	-1
0.35733	-2
0.36100	-1
0.36467	3
0.36833	5
0.37200	6
0.37567	5
0.37933	4
0.38300	7
0.38667	9
0.39033	10
0.39400	10
0.39767	8
0.40133	6
0.40500	6
0.40867	8
0.41233	8
0.41600	6
0.41967	4
0.42333	4
0.42700	4
0.43067	5
0.43433	4
0.43800	2
0.44167	3
0.44533	3
0.44900	4
0.45267	5
0.45633	5
0.46000	6
0.46367	8
0.46733	9
0.47100	8
0.47467	5
0.47833	6
0.48200	7
0.48567	8
0.48933	8
0.49300	8
0.49667	7
0.50033	7
0.50400	6
0.50767	6
0.51133	5
0.51500	3
0.51867	2
0.52233	2
0.52600	2
0.52967	1
0.53333	0
0.53700	1
0.54067	4
0.54433	9
0.54800	11
0.55167	8
0.55533	4
0.55900	3
0.56267	3
0.56633	2
0.57000	0
0.57367	-2
0.57733	-3
0.58100	-6
0.58467	-6
0.58833	-6
0.59200	-3
0.59567	0
0.59933	1
0.60300	1
0.60667	1
0.61033	1
0.61400	1
0.61767	1
0.62133	1
0.62500	-0
0.62867	-2
0.63233	-1
0.63600	-2
0.63967	-2
0.64333	0
0.64700	2
0.65067	3
0.65433	2
0.65800	1
0.66167	0
0.66533	-1
0.66900	-3
0.67267	-2
0.67633	1
0.68000	1
0.68367	-2
0.68733	-3
0.69100	-2
0.69467	-2
0.69833	-3
0.70200	-1
0.70567	-0
0.70933	-2
0.71300	-3
0.71667	-5
0.72033	-4
0.72400	-2
0.72767	-1
0.73133	-2
0.73500	1
0.73867	6
0.74233	11
0.74600	11
0.74967	9
0.75333	8
0.75700	7
0.76067	6
0.76433	7
0.76800	8
0.77167	8
0.77533	7
0.77900	6
0.78267	7
0.78633	12
0.79000	14
0.79367	12
0.79733	10
0.80100	7
0.80467	7
0.80833	5
0.81200	3
0.81567	2
0.81933	2
0.82300	3
0.82667	5
0.83033	8
0.83400	11
0.83767	12
0.84133	12
0.84500	10
0.84867	9
0.85233	9
0.85600	9
0.85967	10
0.86333	10
0.86700	10
0.87067	10
0.87433	11
0.87800	13
0.88167	14
0.88533	13
0.88900	11
0.89267	8
0.89633	9
0.90000	11
0.90367	13
0.90733	13
0.91100	12
0.91467	12
0.91833	12
0.92200	12
0.92567	12
0.92933	13
0.93300	13
0.93667	13
0.94033	12
0.94400	12
0.94767	11
0.95133	10
0.95500	11
0.95867	10
0.96233	9
0.96600	9
0.96967	11
0.97333	10
0.97700	10
0.98067	10
0.98433	9
0.98800	10
0.99167	13
0.99533	13
0.99900	14
1.00267	15
1.00633	16
1.01000	17
1.01367	18
1.01733	17
1.02100	14
1.02467	11
1.02833	10
1.03200	10
1.03567	12
1.03933	14
1.04300	14
1.04667	12
1.05033	10
1.05400	9
1.05767	10
1.06133	10
1.06500	9
1.06867	9
1.07233	8
1.07600	9
1.07967	9
1.08333	9
1.08700	10
1.09067	13
1.09433	14
1.09800	13
1.10167	12
1.10533	13
1.10900	14
1.11267	13
1.11633	11
1.12000	9
1.12367	9
1.12733	10
1.13100	12
1.13467	14
1.13833	11
1.14200	7
1.14567	6
1.14933	9
1.15300	12
1.15667	14
1.16033	12
1.16400	9
1.16767	8
1.17133	8
1.17500	8
1.17867	10
1.18233	12
1.18600	12
1.18967	9
1.19333	8
1.19700	9
1.20067	13
1.20433	17
1.20800	17
1.21167	15
1.21533	12
1.21900	11
1.22267	11
1.22633	14
1.23000	16
1.23367	17
1.23733	17
1.24100	16
1.24467	14
1.24833	14
1.25200	13
1.25567	13
1.25933	12
1.26300	10
1.26667	9
1.27033	10
1.27400	11
1.27767	13
1.28133	13
1.28500	13
1.28867	12
1.29233	11
1.29600	11
1.29967	12
1.30333	14
1.30700	16
1.31067	16
1.31433	14
1.31800	10
1.32167	9
1.32533	9
1.32900	11
1.33267	12
1.33633	11
1.34000	11
1.34367	10
1.34733	12
1.35100	14
1.35467	17
1.35833	18
1.36200	16
1.36567	15
1.36933	14
1.37300	12
1.37667	11
1.38033	11
1.38400	15
1.38767	15
1.39133	12
1.39500	11
1.39867	13
1.40233	12
1.40600	10
1.40967	11
1.41333	11
1.41700	10
1.42067	8
1.42433	7
1.42800	7
1.43167	9
1.43533	9
1.43900	6
1.44267	5
1.44633	5
1.45000	4
1.45367	0
1.45733	-4
1.46100	-3
1.46467	-1
1.46833	1
1.47200	-0
1.47567	0
1.47933	3
1.48300	6
1.48667	9
1.49033	9
1.49400	7
1.49767	6
1.50133	7
1.50500	9
1.50867	12
1.51233	12
1.51600	8
1.51967	5
1.52333	7
1.52700	9
1.53067	8
1.53433	5
1.53800	3
1.54167	5
1.54533	8
1.54900	10
1.55267	9
1.55633	7
1.56000	6
1.56367	5
1.56733	3
1.57100	-0
1.57467	1
1.57833	4
1.58200	7
1.58567	10
1.58933	11
1.59300	9
1.59667	5
1.60033	4
1.60400	5
1.60767	4
1.61133	2
1.61500	2
1.61867	3
1.62233	5
1.62600	6
1.62967	5
1.63333	4
1.63700	4
1.64067	6
1.64433	7
1.64800	9
1.65167	9
1.65533	11
1.65900	14
1.66267	16
1.66633	18
1.67000	20
1.67367	22
1.67733	21
1.68100	16
1.68467	12
1.68833	11
1.69200	13
1.69567	17
1.69933	19
1.70300	19
1.70667	19
1.71033	20
1.71400	21
1.71767	18
1.72133	15
1.72500	14
1.72867	15
1.73233	18
1.73600	21
1.73967	21
1.74333	19
1.74700	18
1.75067	15
1.75433	13
1.75800	12
1.76167	15
1.76533	18
1.76900	20
1.77267	18
1.77633	16
1.78000	13
1.78367	12
1.78733	14
1.79100	16
1.79467	19
1.79833	20
1.80200	20
1.80567	22
1.80933	25
1.81300	26
1.81667	24
1.82033	20
1.82400	16
1.82767	15
1.83133	14
1.83500	16
1.83867	18
1.84233	19
1.84600	24
1.84967	24
1.85333	22
1.85700	21
1.86067	20
1.86433	17
1.86800	16
1.87167	18
1.87533	21
1.87900	24
1.88267	26
1.88633	27
1.89000	24
1.89367	22
1.89733	19
1.90100	17
1.90467	16
1.90833	19
1.91200	23
1.91567	23
1.91933	24
1.92300	25
1.92667	25
1.93033	26
1.93400	28
1.93767	27
1.94133	27
1.94500	27
1.94867	26
1.95233	26
1.95600	26
1.95967	28
1.96333	29
1.96700	29
1.97067	27
1.97433	24
1.97800	23
1.98167	23
1.98533	24
1.98900	25
1.99267	26
1.99633	27
2.00000	25
2.00367	25
2.00733	27
2.01100	27
2.01467	26
2.01833	26
2.02200	27
2.02567	28
2.02933	27
2.03300	28
2.03667	31
2.04033	32
2.04400	32
2.04767	34
2.05133	36
2.05500	38
2.05867	40
2.06233	40
2.06600	39
2.06967	41
2.07333	43
2.07700	43
2.08067	42
2.08433	40
2.08800	39
2.09167	37
2.09533	38
2.09900	41
2.10267	42
2.10633	42
2.11000	43
2.11367	45
2.11733	47
2.12100	47
2.12467	45
2.12833	40
2.13200	38
2.13567	38
2.13933	40
2.14300	42
2.14667	45
2.15033	49
2.15400	52
2.15767	51
2.16133	51
2.16500	51
2.16867	51
2.17233	53
2.17600	56
2.17967	59
2.18333	60
2.18700	58
2.19067	57
2.19433	56
2.19800	53
2.20167	51
2.20533	50
2.20900	52
2.21267	57
2.21633	59
2.22000	60
2.22367	63
2.22733	65
2.23100	67
2.23467	68
2.23833	69
2.24200	69
2.24567	70
2.24933	68
2.25300	65
2.25667	62
2.26033	64
2.26400	67
2.26767	69
2.27133	71
2.27500	73
2.27867	73
2.28233	70
2.28600	69
2.28967	71
2.29333	73
2.29700	73
2.30067	74
2.30433	76
2.30800	76
2.31167	77
2.31533	79
2.31900	78
2.32267	74
2.32633	72
2.33000	72
2.33367	73
2.33733	75
2.34100	74
2.34467	75
2.34833	77
2.35200	76
2.35567	76
2.35933	77
2.36300	77
2.36667	80
2.37033	83
2.37400	83
2.37767	82
2.38133	81
2.38500	77
2.38867	69
2.39233	68
2.39600	75
2.39967	83
2.40333	90
2.40700	95
2.41067	97
2.41433	98
2.41800	100
2.42167	101
2.42533	99
2.42900	97
2.43267	97
2.43633	98
2.44000	104
2.44367	149
2.44733	231
2.45100	308
2.45467	363
2.45833	385
2.46200	382
2.46567	373
2.46933	369
2.47300	360
2.47667	343
2.48033	320
2.48400	294
2.48767	270
2.49133	253
2.49500	240
2.49867	233
2.50233	234
2.50600	241
2.50967	248
2.51333	254
2.51700	253
2.52067	244
2.52433	230
2.52800	211
2.53167	192
2.53533	178
2.53900	165
2.54267	156
2.54633	150
2.55000	146
2.55367	144
2.55733	143
2.56100	144
2.56467	146
2.56833	149
2.57200	151
2.57567	155
2.57933	164
2.58300	175
2.58667	187
2.59033	199
2.59400	209
2.59767	217
2.60133	223
2.60500	227
2.60867	225
2.61233	221
2.61600	217
2.61967	210
2.62333	201
2.62700	191
2.63067	179
2.63433	168
2.63800	156
2.64167	146
2.64533	140
2.64900	135
2.65267	130
2.65633	127
2.66000	123
2.66367	117
2.66733	112
2.67100	111
2.67467	111
2.67833	110
2.68200	108
2.68567	107
2.68933	107
2.69300	108
2.69667	108
2.70033	105
2.70400	104
2.70767	104
2.71133	105
2.71500	108
2.71867	110
2.72233	112
2.72600	112
2.72967	116
2.73333	119
2.73700	121
2.74067	124
2.74433	127
2.74800	132
2.75167	138
2.75533	142
2.75900	145
2.76267	148
2.76633	151
2.77000	155
2.77367	158
2.77733	160
2.78100	161
2.78467	162
2.78833	163
2.79200	166
2.79567	169
2.79933	170
2.80300	173
2.80667	174
2.81033	174
2.81400	175
2.81767	173
2.82133	172
2.82500	171
2.82867	169
2.83233	171
2.83600	175
2.83967	190
2.84333	227
2.84700	303
2.85067	436
2.85433	647
2.85800	945
2.86167	1328
2.86533	1785
2.86900	2287
2.87267	2794
2.87633	3265
2.88000	3657
2.88367	3941
2.88733	4102
2.89100	4139
2.89467	4065
2.89833	3901
2.90200	3671
2.90567	3399
2.90933	3108
2.91300	2811
2.91667	2521
2.92033	2248
2.92400	1995
2.92767	1764
2.93133	1555
2.93500	1368
2.93867	1201
2.94233	1056
2.94600	932
2.94967	822
2.95333	726
2.95700	642
2.96067	571
2.96433	508
2.96800	454
2.97167	409
2.97533	370
2.97900	336
2.98267	309
2.98633	285
2.99000	264
2.99367	244
2.99733	228
3.00100	213
3.00467	202
3.00833	190
3.01200	180
3.01567	173
3.01933	167
3.02300	162
3.02667	160
3.03033	160
3.03400	158
3.03767	155
3.04133	154
3.04500	152
3.04867	150
3.05233	149
3.05600	150
3.05967	149
3.06333	145
3.06700	143
3.07067	144
3.07433	147
3.07800	147
3.08167	147
3.08533	147
3.08900	148
3.09267	149
3.09633	150
3.10000	150
3.10367	150
3.10733	150
3.11100	153
3.11467	153
3.11833	153
3.12200	153
3.12567	154
3.12933	155
3.13300	154
3.13667	154
3.14033	153
3.14400	156
3.14767	160
3.15133	164
3.15500	168
3.15867	169
3.16233	167
3.16600	167
3.16967	166
3.17333	167
3.17700	169
3.18067	173
3.18433	176
3.18800	177
3.19167	178
3.19533	180
3.19900	181
3.20267	181
3.20633	182
3.21000	185
3.21367	187
3.21733	190
3.22100	193
3.22467	192
3.22833	192
3.23200	194
3.23567	196
3.23933	197
3.24300	198
3.24667	200
3.25033	202
3.25400	201
3.25767	200
3.26133	201
3.26500	200
3.26867	200
3.27233	201
3.27600	203
3.27967	206
3.28333	206
3.28700	203
3.29067	203
3.29433	201
3.29800	201
3.30167	199
3.30533	197
3.30900	198
3.31267	198
3.31633	197
3.32000	196
3.32367	196
3.32733	195
3.33100	194
3.33467	193
3.33833	194
3.34200	194
3.34567	196
3.34933	194
3.35300	192
3.35667	191
3.36033	191
3.36400	190
3.36767	188
3.37133	188
3.37500	192
3.37867	194
3.38233	193
3.38600	191
3.38967	191
3.39333	191
3.39700	190
3.40067	186
3.40433	183
3.40800	181
3.41167	181
3.41533	182
3.41900	182
3.42267	182
3.42633	184
3.43000	187
3.43367	190
3.43733	192
3.44100	190
3.44467	187
3.44833	185
3.45200	184
3.45567	181
3.45933	179
3.46300	177
3.46667	175
3.47033	177
3.47400	179
3.47767	180
3.48133	181
3.48500	183
3.48867	186
3.49233	187
3.49600	186
3.49967	185
3.50333	182
3.50700	179
3.51067	178
3.51433	179
3.51800	179
3.52167	179
3.52533	182
3.52900	184
3.53267	184
3.53633	180
3.54000	177
3.54367	174
3.54733	174
3.55100	181
3.55467	198
3.55833	220
3.56200	246
3.56567	275
3.56933	310
3.57300	348
3.57667	390
3.58033	436
3.58400	483
3.58767	524
3.59133	561
3.59500	595
3.59867	627
3.60233	654
3.60600	677
3.60967	694
3.61333	709
3.61700	722
3.62067	732
3.62433	739
3.62800	746
3.63167	749
3.63533	752
3.63900	756
3.64267	756
3.64633	755
3.65000	755
3.65367	758
3.65733	760
3.66100	760
3.66467	758
3.66833	757
3.67200	753
3.67567	750
3.67933	745
3.68300	741
3.68667	736
3.69033	733
3.69400	731
3.69767	729
3.70133	726
3.70500	724
3.70867	721
3.71233	715
3.71600	711
3.71967	707
3.72333	706
3.72700	703
3.73067	697
3.73433	691
3.73800	688
3.74167	685
3.74533	681
3.74900	677
3.75267	676
3.75633	676
3.76000	675
3.76367	673
3.76733	671
3.77100	667
3.77467	664
3.77833	661
3.78200	656
3.78567	653
3.78933	648
3.79300	642
3.79667	641
3.80033	642
3.80400	642
3.80767	640
3.81133	638
3.81500	635
3.81867	634
3.82233	633
3.82600	631
3.82967	629
3.83333	626
3.83700	623
3.84067	619
3.84433	617
3.84800	616
3.85167	615
3.85533	614
3.85900	613
3.86267	610
3.86633	607
3.87000	606
3.87367	604
3.87733	602
3.88100	599
3.88467	597
3.88833	596
3.89200	593
3.89567	588
3.89933	586
3.90300	585
3.90667	585
3.91033	583
3.91400	579
3.91767	575
3.92133	572
3.92500	570
3.92867	568
3.93233	566
3.93600	565
3.93967	563
3.94333	561
3.94700	561
3.95067	561
3.95433	560
3.95800	559
3.96167	556
3.96533	552
3.96900	551
3.97267	551
3.97633	551
3.98000	549
3.98367	548
3.98733	547
3.99100	547
3.99467	546
3.99833	543

[Status Trace (Column Oven Temperature)]
Interval(msec)	1000
# of Points	240
Start Time(min)	0.006
End Time(min)	3.989
Intensity Units	
Intensity Multiplier	1
R.Time (min)	Intensity
0.00583	35.04
0.02250	35.04
0.03917	35.03
0.05583	35.04
0.07250	35.04
0.08917	35.04
0.10583	35.04
0.12250	35.03
0.13917	35.03
0.15583	35.03
0.17250	35.03
0.18917	35.03
0.20583	35.05
0.22250	35.05
0.23917	35.04
0.25583	35.04
0.27250	35.04
0.28917	35.03
0.30583	35.02
0.32250	35.01
0.33917	35.00
0.35583	35.00
0.37250	35.00
0.38917	35.00
0.40583	35.01
0.42250	35.01
0.43917	35.02
0.45583	35.02
0.47250	35.01
0.48917	35.01
0.50583	35.01
0.52250	35.01
0.53917	35.00
0.55583	35.00
0.57250	35.00
0.58917	34.99
0.60583	34.99
0.62250	34.99
0.63917	34.99
0.65583	34.99
0.67250	34.99
0.68917	34.99
0.70583	34.98
0.72250	34.99
0.73917	35.00
0.75583	35.01
0.77250	35.01
0.78917	35.02
0.80583	35.03
0.82250	35.04
0.83917	35.04
0.85583	35.04
0.87250	35.04
0.88917	35.04
0.90583	35.03
0.92250	35.03
0.93917	35.02
0.95583	35.03
0.97250	35.03
0.98917	35.02
1.00583	35.02
1.02250	35.01
1.03917	34.98
1.05583	34.98
1.07250	34.98
1.08917	34.97
1.10583	34.97
1.12250	34.96
1.13917	34.98
1.15583	34.98
1.17250	34.98
1.18917	35.00
1.20583	35.01
1.22250	35.01
1.23917	34.99
1.25583	34.99
1.27250	34.98
1.28917	34.98
1.30583	34.98
1.32250	34.98
1.33917	34.99
1.35583	34.97
1.37250	34.97
1.38917	34.97
1.40583	34.98
1.42250	34.99
1.43917	35.01
1.45583	35.00
1.47250	35.00
1.48917	35.00
1.50583	34.99
1.52250	34.99
1.53917	34.98
1.55583	34.98
1.57250	34.99
1.58917	35.00
1.60583	35.07
1.62250	35.18
1.63917	35.35
1.65583	35.58
1.67250	35.90
1.68917	36.26
1.70583	36.61
1.72250	36.95
1.73917	37.30
1.75583	37.65
1.77250	37.97
1.78917	38.29
1.80583	38.63
1.82250	38.95
1.83917	39.28
1.85583	39.61
1.87250	39.95
1.88917	40.28
1.90583	40.60
1.92250	40.93
1.93917	41.26
1.95583	41.59
1.97250	41.91
1.98917	42.24
2.00583	42.57
2.02250	42.89
2.03917	43.22
2.05583	43.56
2.07250	43.88
2.08917	44.20
2.10583	44.53
2.12250	44.87
2.13917	45.18
2.15583	45.53
2.17250	45.85
2.18917	46.18
2.20583	46.51
2.22250	46.86
2.23917	47.17
2.25583	47.50
2.27250	47.81
2.28917	48.14
2.30583	48.49
2.32250	48.81
2.33917	49.11
2.35583	49.44
2.37250	49.67
2.38917	49.77
2.40583	49.76
2.42250	49.77
2.43917	49.77
2.45583	49.78
2.47250	49.79
2.48917	49.80
2.50583	49.80
2.52250	49.83
2.53917	49.83
2.55583	49.82
2.57250	49.82
2.58917	49.81
2.60583	49.83
2.62250	49.84
2.63917	49.86
2.65583	49.86
2.67250	49.84
2.68917	49.85
2.70583	49.86
2.72250	49.87
2.73917	49.86
2.75583	49.87
2.77250	49.87
2.78917	49.88
2.80583	49.89
2.82250	49.90
2.83917	49.92
2.85583	49.94
2.87250	49.96
2.88917	49.97
2.90583	49.98
2.92250	49.99
2.93917	49.99
2.95583	50.00
2.97250	50.02
2.98917	50.03
3.00583	50.04
3.02250	50.04
3.03917	50.06
3.05583	50.06
3.07250	50.07
3.08917	50.08
3.10583	50.09
3.12250	50.10
3.13917	50.11
3.15583	50.11
3.17250	50.10
3.18917	50.08
3.20583	50.06
3.22250	50.05
3.23917	50.04
3.25583	50.03
3.27250	50.02
3.28917	50.02
3.30583	50.02
3.32250	50.02
3.33917	50.03
3.35583	50.03
3.37250	50.04
3.38917	50.03
3.40583	50.03
3.42250	50.04
3.43917	50.04
3.45583	50.05
3.47250	50.05
3.48917	50.06
3.50583	50.07
3.52250	50.08
3.53917	50.08
3.55583	50.08
3.57250	50.09
3.58917	50.09
3.60583	50.08
3.62250	50.09
3.63917	50.08
3.65583	50.08
3.67250	50.08
3.68917	50.08
3.70583	50.08
3.72250	50.07
3.73917	50.08
3.75583	50.08
3.77250	50.08
3.78917	50.08
3.80583	50.08
3.82250	50.08
3.83917	50.08
3.85583	50.08
3.87250	50.08
3.88917	50.08
3.90583	50.07
3.92250	50.07
3.93917	50.08
3.95583	50.07
3.97250	50.06
3.98917	50.06

[Status Trace (Injection Unit Temperature)]
Interval(msec)	1000
# of Points	240
Start Time(min)	0.006
End Time(min)	3.989
Intensity Units	
Intensity Multiplier	1
R.Time (min)	Intensity
0.00583	99.98
0.02250	99.98
0.03917	99.98
0.05583	99.98
0.07250	99.97
0.08917	99.98
0.10583	99.98
0.12250	99.98
0.13917	99.98
0.15583	99.98
0.17250	99.98
0.18917	99.98
0.20583	99.98
0.22250	99.97
0.23917	99.98
0.25583	99.98
0.27250	99.98
0.28917	99.98
0.30583	99.98
0.32250	99.98
0.33917	99.98
0.35583	99.98
0.37250	99.98
0.38917	99.97
0.40583	99.97
0.42250	99.97
0.43917	99.98
0.45583	99.97
0.47250	99.98
0.48917	99.97
0.50583	99.97
0.52250	99.98
0.53917	99.97
0.55583	99.97
0.57250	99.98
0.58917	99.97
0.60583	99.98
0.62250	99.97
0.63917	99.98
0.65583	99.97
0.67250	99.97
0.68917	99.97
0.70583	99.98
0.72250	99.97
0.73917	99.97
0.75583	99.97
0.77250	99.97
0.78917	99.97
0.80583	99.98
0.82250	99.97
0.83917	99.97
0.85583	99.98
0.87250	99.98
0.88917	99.98
0.90583	99.98
0.92250	99.97
0.93917	99.98
0.95583	99.98
0.97250	99.98
0.98917	99.98
1.00583	99.98
1.02250	99.98
1.03917	99.98
1.05583	99.98
1.07250	99.98
1.08917	99.97
1.10583	99.98
1.12250	99.97
1.13917	99.98
1.15583	99.98
1.17250	99.98
1.18917	99.98
1.20583	99.97
1.22250	99.98
1.23917	99.98
1.25583	99.98
1.27250	99.98
1.28917	99.98
1.30583	99.98
1.32250	99.98
1.33917	99.98
1.35583	99.98
1.37250	99.98
1.38917	99.98
1.40583	99.98
1.42250	99.98
1.43917	99.98
1.45583	99.98
1.47250	99.99
1.48917	99.98
1.50583	99.98
1.52250	99.98
1.53917	99.98
1.55583	99.98
1.57250	99.98
1.58917	99.98
1.60583	99.98
1.62250	99.98
1.63917	99.98
1.65583	99.98
1.67250	99.98
1.68917	99.98
1.70583	99.98
1.72250	99.98
1.73917	99.98
1.75583	99.98
1.77250	99.98
1.78917	99.98
1.80583	99.98
1.82250	99.98
1.83917	99.98
1.85583	99.98
1.87250	99.98
1.88917	99.98
1.90583	99.98
1.92250	99.97
1.93917	99.98
1.95583	99.98
1.97250	99.97
1.98917	99.98
2.00583	99.97
2.02250	99.97
2.03917	99.97
2.05583	99.97
2.07250	99.97
2.08917	99.97
2.10583	99.97
2.12250	99.97
2.13917	99.96
2.15583	99.97
2.17250	99.97
2.18917	99.96
2.20583	99.96
2.22250	99.96
2.23917	99.96
2.25583	99.96
2.27250	99.96
2.28917	99.96
2.30583	99.96
2.32250	99.96
2.33917	99.96
2.35583	99.96
2.37250	99.96
2.38917	99.96
2.40583	99.96
2.42250	99.96
2.43917	99.96
2.45583	99.96
2.47250	99.95
2.48917	99.96
2.50583	99.96
2.52250	99.96
2.53917	99.96
2.55583	99.96
2.57250	99.96
2.58917	99.96
2.60583	99.96
2.62250	99.96
2.63917	99.96
2.65583	99.97
2.67250	99.96
2.68917	99.97
2.70583	99.97
2.72250	99.97
2.73917	99.97
2.75583	99.97
2.77250	99.97
2.78917	99.98
2.80583	99.98
2.82250	99.98
2.83917	99.98
2.85583	99.99
2.87250	99.99
2.88917	99.99
2.90583	99.99
2.92250	99.99
2.93917	100.00
2.95583	100.00
2.97250	100.00
2.98917	100.00
3.00583	100.01
3.02250	100.00
3.03917	100.01
3.05583	100.01
3.07250	100.01
3.08917	100.01
3.10583	100.01
3.12250	100.01
3.13917	100.02
3.15583	100.01
3.17250	100.02
3.18917	100.02
3.20583	100.02
3.22250	100.02
3.23917	100.02
3.25583	100.02
3.27250	100.02
3.28917	100.02
3.30583	100.03
3.32250	100.03
3.33917	100.03
3.35583	100.03
3.37250	100.03
3.38917	100.03
3.40583	100.03
3.42250	100.03
3.43917	100.04
3.45583	100.04
3.47250	100.03
3.48917	100.04
3.50583	100.04
3.52250	100.04
3.53917	100.04
3.55583	100.04
3.57250	100.04
3.58917	100.04
3.60583	100.04
3.62250	100.04
3.63917	100.04
3.65583	100.05
3.67250	100.04
3.68917	100.04
3.70583	100.05
3.72250	100.04
3.73917	100.05
3.75583	100.04
3.77250	100.05
3.78917	100.05
3.80583	100.04
3.82250	100.05
3.83917	100.05
3.85583	100.05
3.87250	100.05
3.88917	100.05
3.90583	100.05
3.92250	100.05
3.93917	100.05
3.95583	100.05
3.97250	100.05
3.98917	100.05

[Status Trace (Carrier Gas Pressure)]
Interval(msec)	1000
# of Points	240
Start Time(min)	0.006
End Time(min)	3.989
Intensity Units	
Intensity Multiplier	1
R.Time (min)	Intensity
0.00583	58.00
0.02250	55.64
0.03917	56.72
0.05583	58.94
0.07250	59.68
0.08917	58.17
0.10583	57.98
0.12250	58.01
0.13917	58.01
0.15583	58.01
0.17250	58.00
0.18917	58.00
0.20583	58.00
0.22250	58.00
0.23917	58.00
0.25583	58.00
0.27250	58.00
0.28917	58.00
0.30583	58.00
0.32250	58.00
0.33917	58.00
0.35583	58.00
0.37250	58.00
0.38917	58.00
0.40583	58.00
0.42250	58.00
0.43917	58.00
0.45583	58.00
0.47250	58.00
0.48917	58.00
0.50583	58.00
0.52250	58.00
0.53917	58.00
0.55583	58.00
0.57250	58.00
0.58917	58.00
0.60583	58.00
0.62250	58.00
0.63917	58.00
0.65583	58.00
0.67250	58.00
0.68917	58.00
0.70583	58.00
0.72250	58.00
0.73917	58.00
0.75583	58.00
0.77250	58.00
0.78917	58.00
0.80583	58.00
0.82250	58.00
0.83917	58.00
0.85583	58.00
0.87250	58.00
0.88917	58.00
0.90583	58.00
0.92250	58.00
0.93917	58.00
0.95583	58.00
0.97250	58.00
0.98917	58.00
1.00583	58.00
1.02250	58.00
1.03917	58.00
1.05583	58.00
1.07250	58.00
1.08917	58.00
1.10583	58.00
1.12250	58.00
1.13917	58.00
1.15583	58.00
1.17250	58.00
1.18917	58.00
1.20583	58.00
1.22250	58.00
1.23917	58.00
1.25583	58.00
1.27250	58.00
1.28917	58.00
1.30583	58.00
1.32250	58.00
1.33917	58.00
1.35583	58.00
1.37250	58.00
1.38917	58.00
1.40583	58.00
1.42250	58.00
1.43917	58.00
1.45583	58.00
1.47250	58.00
1.48917	58.00
1.50583	58.00
1.52250	58.00
1.53917	58.00
1.55583	58.00
1.57250	58.00
1.58917	58.00
1.60583	58.00
1.62250	58.00
1.63917	58.00
1.65583	58.00
1.67250	58.01
1.68917	58.01
1.70583	58.00
1.72250	58.00
1.73917	58.00
1.75583	58.00
1.77250	58.00
1.78917	58.00
1.80583	58.00
1.82250	58.00
1.83917	58.00
1.85583	58.00
1.87250	58.00
1.88917	58.00
1.90583	58.00
1.92250	58.00
1.93917	58.00
1.95583	58.00
1.97250	58.00
1.98917	58.00
2.00583	58.00
2.02250	58.00
2.03917	58.00
2.05583	58.00
2.07250	58.00
2.08917	58.00
2.10583	58.00
2.12250	58.00
2.13917	58.00
2.15583	58.00
2.17250	58.00
2.18917	58.00
2.20583	58.00
2.22250	58.00
2.23917	58.00
2.25583	58.00
2.27250	58.00
2.28917	58.00
2.30583	58.00
2.32250	58.00
2.33917	58.00
2.35583	58.00
2.37250	58.00
2.38917	57.99
2.40583	57.99
2.42250	58.00
2.43917	58.00
2.45583	58.00
2.47250	58.00
2.48917	58.00
2.50583	57.99
2.52250	57.99
2.53917	58.00
2.55583	58.00
2.57250	58.00
2.58917	58.00
2.60583	58.00
2.62250	58.00
2.63917	58.00
2.65583	58.00
2.67250	58.00
2.68917	58.00
2.70583	58.00
2.72250	58.00
2.73917	58.00
2.75583	58.00
2.77250	58.00
2.78917	58.00
2.80583	58.00
2.82250	58.00
2.83917	58.00
2.85583	58.00
2.87250	58.00
2.88917	58.00
2.90583	58.00
2.92250	58.00
2.93917	58.00
2.95583	58.00
2.97250	58.00
2.98917	58.00
3.00583	58.00
3.02250	58.00
3.03917	58.00
3.05583	58.00
3.07250	58.00
3.08917	58.00
3.10583	58.00
3.12250	58.00
3.13917	58.00
3.15583	58.00
3.17250	58.00
3.18917	58.00
3.20583	58.00
3.22250	58.00
3.23917	58.00
3.25583	58.00
3.27250	58.00
3.28917	58.00
3.30583	58.00
3.32250	58.00
3.33917	58.00
3.35583	58.00
3.37250	58.00
3.38917	58.00
3.40583	58.00
3.42250	58.00
3.43917	58.00
3.45583	58.00
3.47250	58.00
3.48917	58.00
3.50583	58.00
3.52250	58.00
3.53917	58.00
3.55583	58.00
3.57250	58.00
3.58917	58.00
3.60583	58.00
3.62250	58.00
3.63917	58.00
3.65583	58.00
3.67250	58.00
3.68917	58.00
3.70583	58.00
3.72250	58.00
3.73917	58.00
3.75583	58.00
3.77250	58.00
3.78917	58.00
3.80583	58.00
3.82250	58.00
3.83917	58.00
3.85583	58.00
3.87250	58.00
3.88917	58.00
3.90583	58.00
3.92250	58.00
3.93917	58.00
3.95583	58.00
3.97250	58.00
3.98917	58.00

[Status Trace (Carrier Gas Flow)]
Interval(msec)	1000
# of Points	240
Start Time(min)	0.006
End Time(min)	3.989
Intensity Units	
Intensity Multiplier	1
R.Time (min)	Intensity
0.00583	34.52
0.02250	34.54
0.03917	34.55
0.05583	34.55
0.07250	34.50
0.08917	34.52
0.10583	34.52
0.12250	34.52
0.13917	34.52
0.15583	34.52
0.17250	34.52
0.18917	34.52
0.20583	34.52
0.22250	34.52
0.23917	34.52
0.25583	34.52
0.27250	34.52
0.28917	34.52
0.30583	34.52
0.32250	34.52
0.33917	34.52
0.35583	34.52
0.37250	34.52
0.38917	34.52
0.40583	34.52
0.42250	34.52
0.43917	34.52
0.45583	34.52
0.47250	34.52
0.48917	34.52
0.50583	34.52
0.52250	34.52
0.53917	34.52
0.55583	34.51
0.57250	34.52
0.58917	34.52
0.60583	34.51
0.62250	34.52
0.63917	34.52
0.65583	34.52
0.67250	34.52
0.68917	34.51
0.70583	34.52
0.72250	34.51
0.73917	34.52
0.75583	34.52
0.77250	34.52
0.78917	34.52
0.80583	34.52
0.82250	34.51
0.83917	34.52
0.85583	34.53
0.87250	34.52
0.88917	34.52
0.90583	34.51
0.92250	34.52
0.93917	34.52
0.95583	34.52
0.97250	34.52
0.98917	34.52
1.00583	34.51
1.02250	34.53
1.03917	34.52
1.05583	34.52
1.07250	34.52
1.08917	34.52
1.10583	34.52
1.12250	34.52
1.13917	34.52
1.15583	34.52
1.17250	34.52
1.18917	34.52
1.20583	34.52
1.22250	34.51
1.23917	34.52
1.25583	34.52
1.27250	34.52
1.28917	34.52
1.30583	34.52
1.32250	34.52
1.33917	34.51
1.35583	34.52
1.37250	34.52
1.38917	34.52
1.40583	34.52
1.42250	34.52
1.43917	34.52
1.45583	34.52
1.47250	34.52
1.48917	34.52
1.50583	34.52
1.52250	34.52
1.53917	34.52
1.55583	34.52
1.57250	34.52
1.58917	34.52
1.60583	34.52
1.62250	34.52
1.63917	34.52
1.65583	34.52
1.67250	34.52
1.68917	34.52
1.70583	34.52
1.72250	34.52
1.73917	34.52
1.75583	34.52
1.77250	34.52
1.78917	34.52
1.80583	34.52
1.82250	34.52
1.83917	34.52
1.85583	34.52
1.87250	34.52
1.88917	34.51
1.90583	34.52
1.92250	34.52
1.93917	34.52
1.95583	34.52
1.97250	34.52
1.98917	34.52
2.00583	34.51
2.02250	34.52
2.03917	34.52
2.05583	34.52
2.07250	34.52
2.08917	34.52
2.10583	34.52
2.12250	34.52
2.13917	34.52
2.15583	34.52
2.17250	34.52
2.18917	34.52
2.20583	34.51
2.22250	34.52
2.23917	34.52
2.25583	34.52
2.27250	34.52
2.28917	34.52
2.30583	34.52
2.32250	34.52
2.33917	34.52
2.35583	34.52
2.37250	34.52
2.38917	34.52
2.40583	34.52
2.42250	34.52
2.43917	34.52
2.45583	34.52
2.47250	34.52
2.48917	34.52
2.50583	34.52
2.52250	34.52
2.53917	34.52
2.55583	34.51
2.57250	34.52
2.58917	34.52
2.60583	34.52
2.62250	34.51
2.63917	34.52
2.65583	34.52
2.67250	34.52
2.68917	34.51
2.70583	34.52
2.72250	34.52
2.73917	34.52
2.75583	34.52
2.77250	34.52
2.78917	34.52
2.80583	34.52
2.82250	34.51
2.83917	34.52
2.85583	34.52
2.87250	34.52
2.88917	34.52
2.90583	34.52
2.92250	34.52
2.93917	34.52
2.95583	34.53
2.97250	34.52
2.98917	34.52
3.00583	34.52
3.02250	34.52
3.03917	34.52
3.05583	34.53
3.07250	34.51
3.08917	34.52
3.10583	34.52
3.12250	34.52
3.13917	34.52
3.15583	34.52
3.17250	34.52
3.18917	34.52
3.20583	34.52
3.22250	34.52
3.23917	34.52
3.25583	34.52
3.27250	34.52
3.28917	34.51
3.30583	34.51
3.32250	34.52
3.33917	34.52
3.35583	34.52
3.37250	34.52
3.38917	34.52
3.40583	34.52
3.42250	34.52
3.43917	34.52
3.45583	34.52
3.47250	34.52
3.48917	34.52
3.50583	34.52
3.52250	34.52
3.53917	34.52
3.55583	34.52
3.57250	34.52
3.58917	34.52
3.60583	34.52
3.62250	34.51
3.63917	34.52
3.65583	34.52
3.67250	34.52
3.68917	34.52
3.70583	34.52
3.72250	34.51
3.73917	34.52
3.75583	34.52
3.77250	34.52
3.78917	34.52
3.80583	34.52
3.82250	34.52
3.83917	34.52
3.85583	34.52
3.87250	34.52
3.88917	34.51
3.90583	34.51
3.92250	34.52
3.93917	34.52
3.95583	34.51
3.97250	34.52
3.98917	34.52

[Status Trace (Column Flow)]
Interval(msec)	1000
# of Points	240
Start Time(min)	0.006
End Time(min)	3.989
Intensity Units	
Intensity Multiplier	1
R.Time (min)	Intensity
0.00583	5.51
0.02250	5.24
0.03917	5.36
0.05583	5.62
0.07250	5.71
0.08917	5.53
0.10583	5.51
0.12250	5.51
0.13917	5.51
0.15583	5.51
0.17250	5.51
0.18917	5.51
0.20583	5.51
0.22250	5.51
0.23917	5.51
0.25583	5.51
0.27250	5.51
0.28917	5.51
0.30583	5.51
0.32250	5.51
0.33917	5.51
0.35583	5.51
0.37250	5.51
0.38917	5.51
0.40583	5.51
0.42250	5.51
0.43917	5.51
0.45583	5.51
0.47250	5.51
0.48917	5.51
0.50583	5.51
0.52250	5.51
0.53917	5.51
0.55583	5.51
0.57250	5.51
0.58917	5.51
0.60583	5.51
0.62250	5.51
0.63917	5.51
0.65583	5.51
0.67250	5.51
0.68917	5.51
0.70583	5.51
0.72250	5.51
0.73917	5.51
0.75583	5.51
0.77250	5.51
0.78917	5.51
0.80583	5.51
0.82250	5.51
0.83917	5.51
0.85583	5.51
0.87250	5.51
0.88917	5.51
0.90583	5.51
0.92250	5.51
0.93917	5.51
0.95583	5.51
0.97250	5.51
0.98917	5.51
1.00583	5.51
1.02250	5.51
1.03917	5.51
1.05583	5.51
1.07250	5.51
1.08917	5.51
1.10583	5.51
1.12250	5.51
1.13917	5.51
1.15583	5.51
1.17250	5.51
1.18917	5.51
1.20583	5.51
1.22250	5.51
1.23917	5.51
1.25583	5.51
1.27250	5.51
1.28917	5.51
1.30583	5.51
1.32250	5.51
1.33917	5.51
1.35583	5.51
1.37250	5.51
1.38917	5.51
1.40583	5.51
1.42250	5.51
1.43917	5.51
1.45583	5.51
1.47250	5.51
1.48917	5.51
1.50583	5.51
1.52250	5.51
1.53917	5.51
1.55583	5.51
1.57250	5.51
1.58917	5.51
1.60583	5.51
1.62250	5.51
1.63917	5.50
1.65583	5.50
1.67250	5.49
1.68917	5.48
1.70583	5.46
1.72250	5.45
1.73917	5.44
1.75583	5.43
1.77250	5.42
1.78917	5.41
1.80583	5.40
1.82250	5.39
1.83917	5.38
1.85583	5.37
1.87250	5.36
1.88917	5.35
1.90583	5.34
1.92250	5.33
1.93917	5.32
1.95583	5.31
1.97250	5.30
1.98917	5.29
2.00583	5.28
2.02250	5.27
2.03917	5.26
2.05583	5.25
2.07250	5.24
2.08917	5.24
2.10583	5.23
2.12250	5.22
2.13917	5.21
2.15583	5.20
2.17250	5.19
2.18917	5.18
2.20583	5.17
2.22250	5.16
2.23917	5.15
2.25583	5.14
2.27250	5.13
2.28917	5.12
2.30583	5.11
2.32250	5.10
2.33917	5.10
2.35583	5.09
2.37250	5.08
2.38917	5.08
2.40583	5.08
2.42250	5.08
2.43917	5.08
2.45583	5.08
2.47250	5.08
2.48917	5.08
2.50583	5.08
2.52250	5.07
2.53917	5.08
2.55583	5.08
2.57250	5.08
2.58917	5.08
2.60583	5.08
2.62250	5.08
2.63917	5.07
2.65583	5.07
2.67250	5.08
2.68917	5.07
2.70583	5.07
2.72250	5.07
2.73917	5.07
2.75583	5.07
2.77250	5.07
2.78917	5.07
2.80583	5.07
2.82250	5.07
2.83917	5.07
2.85583	5.07
2.87250	5.07
2.88917	5.07
2.90583	5.07
2.92250	5.07
2.93917	5.07
2.95583	5.07
2.97250	5.07
2.98917	5.07
3.00583	5.07
3.02250	5.07
3.03917	5.07
3.05583	5.07
3.07250	5.07
3.08917	5.07
3.10583	5.07
3.12250	5.07
3.13917	5.07
3.15583	5.07
3.17250	5.07
3.18917	5.07
3.20583	5.07
3.22250	5.07
3.23917	5.07
3.25583	5.07
3.27250	5.07
3.28917	5.07
3.30583	5.07
3.32250	5.07
3.33917	5.07
3.35583	5.07
3.37250	5.07
3.38917	5.07
3.40583	5.07
3.42250	5.07
3.43917	5.07
3.45583	5.07
3.47250	5.07
3.48917	5.07
3.50583	5.07
3.52250	5.07
3.53917	5.07
3.55583	5.07
3.57250	5.07
3.58917	5.07
3.60583	5.07
3.62250	5.07
3.63917	5.07
3.65583	5.07
3.67250	5.07
3.68917	5.07
3.70583	5.07
3.72250	5.07
3.73917	5.07
3.75583	5.07
3.77250	5.07
3.78917	5.07
3.80583	5.07
3.82250	5.07
3.83917	5.07
3.85583	5.07
3.87250	5.07
3.88917	5.07
3.90583	5.07
3.92250	5.07
3.93917	5.07
3.95583	5.07
3.97250	5.07
3.98917	5.07

[Status Trace (Linear Velocity)]
Interval(msec)	1000
# of Points	240
Start Time(min)	0.006
End Time(min)	3.989
Intensity Units	
Intensity Multiplier	1
R.Time (min)	Intensity
0.00583	39.01
0.02250	37.46
0.03917	38.17
0.05583	39.63
0.07250	40.11
0.08917	39.12
0.10583	38.99
0.12250	39.02
0.13917	39.02
0.15583	39.02
0.17250	39.01
0.18917	39.01
0.20583	39.01
0.22250	39.01
0.23917	39.01
0.25583	39.01
0.27250	39.01
0.28917	39.01
0.30583	39.01
0.32250	39.02
0.33917	39.02
0.35583	39.01
0.37250	39.01
0.38917	39.01
0.40583	39.01
0.42250	39.01
0.43917	39.01
0.45583	39.01
0.47250	39.01
0.48917	39.01
0.50583	39.01
0.52250	39.01
0.53917	39.01
0.55583	39.02
0.57250	39.02
0.58917	39.02
0.60583	39.02
0.62250	39.02
0.63917	39.02
0.65583	39.02
0.67250	39.02
0.68917	39.02
0.70583	39.02
0.72250	39.02
0.73917	39.01
0.75583	39.01
0.77250	39.01
0.78917	39.01
0.80583	39.01
0.82250	39.01
0.83917	39.01
0.85583	39.01
0.87250	39.01
0.88917	39.01
0.90583	39.01
0.92250	39.01
0.93917	39.01
0.95583	39.01
0.97250	39.01
0.98917	39.01
1.00583	39.01
1.02250	39.01
1.03917	39.02
1.05583	39.02
1.07250	39.02
1.08917	39.02
1.10583	39.02
1.12250	39.02
1.13917	39.02
1.15583	39.02
1.17250	39.02
1.18917	39.02
1.20583	39.01
1.22250	39.01
1.23917	39.02
1.25583	39.02
1.27250	39.02
1.28917	39.02
1.30583	39.02
1.32250	39.02
1.33917	39.02
1.35583	39.02
1.37250	39.02
1.38917	39.02
1.40583	39.02
1.42250	39.02
1.43917	39.01
1.45583	39.01
1.47250	39.01
1.48917	39.02
1.50583	39.02
1.52250	39.02
1.53917	39.02
1.55583	39.02
1.57250	39.02
1.58917	39.01
1.60583	39.01
1.62250	39.00
1.63917	38.99
1.65583	38.96
1.67250	38.93
1.68917	38.90
1.70583	38.86
1.72250	38.83
1.73917	38.80
1.75583	38.76
1.77250	38.73
1.78917	38.70
1.80583	38.67
1.82250	38.64
1.83917	38.61
1.85583	38.58
1.87250	38.55
1.88917	38.52
1.90583	38.48
1.92250	38.45
1.93917	38.43
1.95583	38.39
1.97250	38.36
1.98917	38.34
2.00583	38.30
2.02250	38.27
2.03917	38.24
2.05583	38.21
2.07250	38.18
2.08917	38.15
2.10583	38.12
2.12250	38.09
2.13917	38.06
2.15583	38.03
2.17250	38.00
2.18917	37.98
2.20583	37.94
2.22250	37.91
2.23917	37.89
2.25583	37.85
2.27250	37.82
2.28917	37.80
2.30583	37.76
2.32250	37.74
2.33917	37.71
2.35583	37.68
2.37250	37.66
2.38917	37.65
2.40583	37.65
2.42250	37.65
2.43917	37.65
2.45583	37.65
2.47250	37.65
2.48917	37.65
2.50583	37.64
2.52250	37.64
2.53917	37.64
2.55583	37.65
2.57250	37.65
2.58917	37.65
2.60583	37.65
2.62250	37.64
2.63917	37.64
2.65583	37.64
2.67250	37.64
2.68917	37.64
2.70583	37.64
2.72250	37.64
2.73917	37.64
2.75583	37.64
2.77250	37.64
2.78917	37.64
2.80583	37.64
2.82250	37.64
2.83917	37.64
2.85583	37.64
2.87250	37.63
2.88917	37.63
2.90583	37.63
2.92250	37.63
2.93917	37.63
2.95583	37.63
2.97250	37.63
2.98917	37.63
3.00583	37.63
3.02250	37.63
3.03917	37.63
3.05583	37.63
3.07250	37.62
3.08917	37.62
3.10583	37.62
3.12250	37.62
3.13917	37.62
3.15583	37.62
3.17250	37.62
3.18917	37.62
3.20583	37.63
3.22250	37.63
3.23917	37.63
3.25583	37.63
3.27250	37.63
3.28917	37.63
3.30583	37.63
3.32250	37.63
3.33917	37.63
3.35583	37.63
3.37250	37.63
3.38917	37.63
3.40583	37.63
3.42250	37.63
3.43917	37.63
3.45583	37.63
3.47250	37.63
3.48917	37.63
3.50583	37.62
3.52250	37.62
3.53917	37.62
3.55583	37.62
3.57250	37.62
3.58917	37.62
3.60583	37.62
3.62250	37.62
3.63917	37.62
3.65583	37.62
3.67250	37.62
3.68917	37.62
3.70583	37.62
3.72250	37.62
3.73917	37.62
3.75583	37.62
3.77250	37.62
3.78917	37.62
3.80583	37.62
3.82250	37.62
3.83917	37.62
3.85583	37.62
3.87250	37.62
3.88917	37.62
3.90583	37.62
3.92250	37.62
3.93917	37.62
3.95583	37.62
3.97250	37.63
3.98917	37.63

