[Header]
Application Name	LabSolutions
Version	5.110
Data File Name	C:\Users\User\Desktop\Junior\UIC Prairie Sampling\2023\8.18.23\081823_084.gcd
Output Date	8/31/2023
Output Time	12:48:12 PM

[File Information]
Type	Data File
Generated	8/31/2023 1:07:22 AM
Generated by	System Administrator
Modified	8/31/2023 1:13:44 AM
Modified by	System Administrator

[Sample Information]
Operator Name	System Administrator
Acquired	8/31/2023 1:09:43 AM
Sample Type	0:Unknown
Level	0
Sample Name	084
Sample ID	084
ISTD Amount1	1
ISTD Amount2	1
ISTD Amount3	1
ISTD Amount4	1
ISTD Amount5	1
ISTD Amount6	1
ISTD Amount7	1
ISTD Amount8	1
ISTD Amount9	1
ISTD Amount10	1
ISTD Amount11	1
ISTD Amount12	1
ISTD Amount13	1
ISTD Amount14	1
ISTD Amount15	1
ISTD Amount16	1
ISTD Amount17	1
ISTD Amount18	1
ISTD Amount19	1
ISTD Amount20	1
ISTD Amount21	1
ISTD Amount22	1
ISTD Amount23	1
ISTD Amount24	1
ISTD Amount25	1
ISTD Amount26	1
ISTD Amount27	1
ISTD Amount28	1
ISTD Amount29	1
ISTD Amount30	1
ISTD Amount31	1
ISTD Amount32	1
Sample Amount	1
Dilution Factor	1
Vial#	83
Injection Volume	1
Injection Count	1
Bar Code	

[Original Files]
Data File	C:\Users\User\Desktop\Junior\UIC Prairie Sampling\8.18.23\081823_084.gcd
Method File	C:\LabSolutions\Data\GHG_4min_2022\ghg3_togas_w_acet_4 min_new_int.gcm
Batch File	C:\LabSolutions\Data\BATCH FILES\081823.gcb
Report Format File	c:\LabSolutions\System\DEFAULT.lsr

[File Description]


[Configuration]
Instrument Name	C0B7VH3-Instrument1
Instrument #	1
Line #	1
# of Detectors	3
Detector ID	DET#1	DET#2	DET#3
Detector Name	FID	PTCD	ECD
# of Channels	1	1	1

[Peak Table(Ch1)]
# of Peaks	3
Peak#	R.Time	I.Time	F.Time	Area	Height	A/H	Conc.	Mark	ID#	Name	k'	Plate #	Plate Ht.	Tailing	Resolution	Sep.Factor	Area Ratio	Height Ratio	Conc. %	Norm Conc.
1	1.472	1.435	1.531	5008	2530	1.980	0.000	   	1	CO	0.000	9881	15.181	1.342	0.000	0.000	0	0	0.000	0.000
2	1.564	1.531	1.622	4275	2177	1.964	20.843	 V 	2	CH4	0.062	11563	12.973	1.124	1.562	0.000	0	0	5.383	5.383
3	1.989	1.941	2.598	1901188	909844	2.090	366.394	   	3	CO2	0.351	17485	8.579	1.299	7.189	5.640	0	0	94.617	94.617

[Peak Table(Ch2)]
# of Peaks	0

[Peak Table(Ch3)]
# of Peaks	5
Peak#	R.Time	I.Time	F.Time	Area	Height	A/H	Conc.	Mark	ID#	Name	k'	Plate #	Plate Ht.	Tailing	Resolution	Sep.Factor	Area Ratio	Height Ratio	Conc. %	Norm Conc.
1	2.458	2.337	2.510	1069	348	3.068	0.000	   			0.000	10893	13.770	0.000	0.000	0.000	0	0	0.000	0.000
2	2.524	2.510	2.579	452	157	2.890	0.000	 V 			0.027	3368	44.534	0.000	0.492	0.000	0	0	0.000	0.000
3	2.631	2.579	2.733	530	125	4.246	0.000	 V 			0.070	7111	21.094	0.000	0.712	2.611	0	0	0.000	0.000
4	2.891	2.825	3.052	14549	3970	3.665	0.215	   	1	N2O	0.176	14072	10.659	1.529	2.343	2.511	0	0	100.000	100.000
5	3.122	3.056	3.518	13679	958	14.277	0.000	   	2	SF6	0.270	896	167.348	3.486	0.898	1.534	0	0	0.000	0.000

[Compound Results(Ch1)]
# of IDs	6
ID#	Name	R.Time	Area	Height	Conc.	Curve	3rd	2nd	1st	Constant	Area Ratio	Height Ratio	Conc. %	Norm Conc.
1	CO	1.472	5008	2530	0.000	Linear	0.000000e+00	0.000000e+00	0.000000e+00	0.000000e+00	0	0	0.000	0.000
2	CH4	1.564	4275	2177	20.843	Linear	0.000000e+00	0.000000e+00	2.051179e+002	0.000000e+00	0	0	5.383	5.383
3	CO2	1.989	1901188	909844	366.394	Linear	0.000000e+00	0.000000e+00	5.188919e+003	0.000000e+00	0	0	94.617	94.617
4	Ethylene	0.000	0	0	0.000	Linear	0.000000e+00	0.000000e+00	0.000000e+00	0.000000e+00	0	0	0.000	0.000
5	Acetylene	0.000	0	0	0.000	Linear	0.000000e+00	0.000000e+00	0.000000e+00	0.000000e+00	0	0	0.000	0.000
6	Ethane	0.000	0	0	0.000	Linear	0.000000e+00	0.000000e+00	0.000000e+00	0.000000e+00	0	0	0.000	0.000

[Compound Results(Ch2)]
# of IDs	5
ID#	Name	R.Time	Area	Height	Conc.	Curve	3rd	2nd	1st	Constant	Area Ratio	Height Ratio	Conc. %	Norm Conc.
1	Hydrogen	0.000	0	0	0.000	Linear	0.000000e+00	0.000000e+00	0.000000e+00	0.000000e+00	0	0	0.000	0.000
2	Oxygen	0.000	0	0	0.000	Linear	0.000000e+00	0.000000e+00	0.000000e+00	0.000000e+00	0	0	0.000	0.000
3	Nitrogen	0.000	0	0	0.000	Linear	0.000000e+00	0.000000e+00	0.000000e+00	0.000000e+00	0	0	0.000	0.000
4	Methane	0.000	0	0	0.000	Linear	0.000000e+00	0.000000e+00	0.000000e+00	0.000000e+00	0	0	0.000	0.000
5	Carbon Monoxide	0.000	0	0	0.000	Linear	0.000000e+00	0.000000e+00	0.000000e+00	0.000000e+00	0	0	0.000	0.000

[Compound Results(Ch3)]
# of IDs	2
ID#	Name	R.Time	Area	Height	Conc.	Curve	3rd	2nd	1st	Constant	Area Ratio	Height Ratio	Conc. %	Norm Conc.
1	N2O	2.891	14549	3970	0.215	Linear	0.000000e+00	0.000000e+00	6.759880e+004	0.000000e+00	0	0	100.000	100.000
2	SF6	3.122	13679	958	0.000	Linear	0.000000e+00	0.000000e+00	0.000000e+00	0.000000e+00	0	0	0.000	0.000

[Group Results(Ch1)]
# of Groups	0

[Group Results(Ch2)]
# of Groups	0

[Group Results(Ch3)]
# of Groups	0

[Chromatogram (Ch1)]
Interval(msec)	220
# of Points	1091
Start Time(min)	0.002
End Time(min)	3.998
R.Time (min)	Intensity
0.00167	-16
0.00533	-21
0.00900	-24
0.01267	-22
0.01633	-17
0.02000	-12
0.02367	-9
0.02733	-8
0.03100	-10
0.03467	-15
0.03833	-18
0.04200	-20
0.04567	-21
0.04933	-20
0.05300	-18
0.05667	-16
0.06033	-14
0.06400	-12
0.06767	-9
0.07133	-9
0.07500	-10
0.07867	-13
0.08233	-19
0.08600	-24
0.08967	-24
0.09333	-20
0.09700	-12
0.10067	-4
0.10433	1
0.10800	2
0.11167	1
0.11533	-1
0.11900	-6
0.12267	-12
0.12633	-16
0.13000	-22
0.13367	-26
0.13733	-26
0.14100	-21
0.14467	-16
0.14833	-14
0.15200	-13
0.15567	-10
0.15933	-9
0.16300	-6
0.16667	-3
0.17033	-3
0.17400	-4
0.17767	-2
0.18133	2
0.18500	4
0.18867	5
0.19233	6
0.19600	6
0.19967	6
0.20333	3
0.20700	-2
0.21067	-7
0.21433	-10
0.21800	-11
0.22167	-13
0.22533	-15
0.22900	-18
0.23267	-18
0.23633	-15
0.24000	-13
0.24367	-13
0.24733	-13
0.25100	-11
0.25467	-6
0.25833	-3
0.26200	-1
0.26567	-0
0.26933	-1
0.27300	-7
0.27667	-14
0.28033	-18
0.28400	-23
0.28767	-27
0.29133	-29
0.29500	-27
0.29867	-24
0.30233	-19
0.30600	-13
0.30967	-8
0.31333	-4
0.31700	-3
0.32067	-5
0.32433	-6
0.32800	-5
0.33167	-6
0.33533	-10
0.33900	-13
0.34267	-13
0.34633	-14
0.35000	-16
0.35367	-18
0.35733	-17
0.36100	-13
0.36467	-7
0.36833	-4
0.37200	-3
0.37567	-5
0.37933	-11
0.38300	-15
0.38667	-13
0.39033	-5
0.39400	4
0.39767	10
0.40133	13
0.40500	15
0.40867	13
0.41233	8
0.41600	4
0.41967	1
0.42333	-1
0.42700	-1
0.43067	1
0.43433	2
0.43800	2
0.44167	1
0.44533	-1
0.44900	-4
0.45267	-6
0.45633	-8
0.46000	-10
0.46367	-11
0.46733	-8
0.47100	-4
0.47467	-1
0.47833	3
0.48200	4
0.48567	8
0.48933	14
0.49300	17
0.49667	17
0.50033	16
0.50400	19
0.50767	24
0.51133	31
0.51500	35
0.51867	37
0.52233	36
0.52600	35
0.52967	35
0.53333	34
0.53700	35
0.54067	38
0.54433	39
0.54800	36
0.55167	33
0.55533	33
0.55900	34
0.56267	35
0.56633	32
0.57000	28
0.57367	27
0.57733	30
0.58100	36
0.58467	41
0.58833	42
0.59200	41
0.59567	40
0.59933	37
0.60300	34
0.60667	29
0.61033	25
0.61400	19
0.61767	13
0.62133	8
0.62500	6
0.62867	5
0.63233	5
0.63600	6
0.63967	9
0.64333	10
0.64700	9
0.65067	6
0.65433	4
0.65800	4
0.66167	4
0.66533	6
0.66900	7
0.67267	5
0.67633	1
0.68000	-5
0.68367	-12
0.68733	-18
0.69100	-24
0.69467	-27
0.69833	-28
0.70200	-27
0.70567	-24
0.70933	-19
0.71300	-15
0.71667	-15
0.72033	-18
0.72400	-21
0.72767	-21
0.73133	-19
0.73500	-15
0.73867	-9
0.74233	-6
0.74600	-7
0.74967	-10
0.75333	-13
0.75700	-16
0.76067	-20
0.76433	-22
0.76800	-24
0.77167	-25
0.77533	-23
0.77900	-17
0.78267	-10
0.78633	-6
0.79000	-6
0.79367	-9
0.79733	-12
0.80100	-15
0.80467	-18
0.80833	-19
0.81200	-19
0.81567	-18
0.81933	-16
0.82300	-14
0.82667	-13
0.83033	-13
0.83400	-13
0.83767	-14
0.84133	-14
0.84500	-14
0.84867	-12
0.85233	-11
0.85600	-13
0.85967	-17
0.86333	-18
0.86700	-20
0.87067	-27
0.87433	-35
0.87800	-41
0.88167	-45
0.88533	-44
0.88900	-39
0.89267	-34
0.89633	-30
0.90000	-27
0.90367	-25
0.90733	-25
0.91100	-25
0.91467	-21
0.91833	-18
0.92200	-17
0.92567	-15
0.92933	-14
0.93300	-17
0.93667	-23
0.94033	-26
0.94400	-28
0.94767	-32
0.95133	-35
0.95500	-38
0.95867	-43
0.96233	-47
0.96600	-47
0.96967	-44
0.97333	-42
0.97700	-40
0.98067	-39
0.98433	-39
0.98800	-37
0.99167	-33
0.99533	-29
0.99900	-27
1.00267	-25
1.00633	-23
1.01000	-22
1.01367	-23
1.01733	-26
1.02100	-29
1.02467	-33
1.02833	-39
1.03200	-45
1.03567	-46
1.03933	-46
1.04300	-46
1.04667	-42
1.05033	-37
1.05400	-32
1.05767	-30
1.06133	-32
1.06500	-33
1.06867	-30
1.07233	-26
1.07600	-22
1.07967	-22
1.08333	-21
1.08700	-19
1.09067	-20
1.09433	-23
1.09800	-27
1.10167	-29
1.10533	-28
1.10900	-23
1.11267	-19
1.11633	-18
1.12000	-21
1.12367	-23
1.12733	-24
1.13100	-27
1.13467	-28
1.13833	-26
1.14200	-27
1.14567	-29
1.14933	-30
1.15300	-31
1.15667	-32
1.16033	-30
1.16400	-27
1.16767	-28
1.17133	-34
1.17500	-40
1.17867	-46
1.18233	-50
1.18600	-52
1.18967	-55
1.19333	-58
1.19700	-57
1.20067	-55
1.20433	-54
1.20800	-55
1.21167	-54
1.21533	-52
1.21900	-52
1.22267	-53
1.22633	-53
1.23000	-48
1.23367	-46
1.23733	-46
1.24100	-48
1.24467	-50
1.24833	-49
1.25200	-48
1.25567	-48
1.25933	-48
1.26300	-45
1.26667	-39
1.27033	-33
1.27400	-26
1.27767	-23
1.28133	-26
1.28500	-33
1.28867	-39
1.29233	-41
1.29600	-43
1.29967	-42
1.30333	-37
1.30700	-29
1.31067	-25
1.31433	-28
1.31800	-38
1.32167	-48
1.32533	-57
1.32900	-61
1.33267	-61
1.33633	-57
1.34000	-55
1.34367	-54
1.34733	-53
1.35100	-53
1.35467	-53
1.35833	-52
1.36200	-53
1.36567	-52
1.36933	-51
1.37300	-51
1.37667	-50
1.38033	-48
1.38400	-46
1.38767	-47
1.39133	-47
1.39500	-46
1.39867	-45
1.40233	-48
1.40600	-50
1.40967	-49
1.41333	-44
1.41700	-41
1.42067	-43
1.42433	-46
1.42800	-48
1.43167	-47
1.43533	-42
1.43900	-33
1.44267	-31
1.44633	27
1.45000	262
1.45367	689
1.45733	1199
1.46100	1682
1.46467	2083
1.46833	2366
1.47200	2486
1.47567	2411
1.47933	2155
1.48300	1781
1.48667	1378
1.49033	1011
1.49400	713
1.49767	488
1.50133	327
1.50500	217
1.50867	143
1.51233	92
1.51600	64
1.51967	51
1.52333	42
1.52700	31
1.53067	26
1.53433	55
1.53800	171
1.54167	430
1.54533	817
1.54900	1244
1.55267	1626
1.55633	1918
1.56000	2097
1.56367	2130
1.56733	1993
1.57100	1711
1.57467	1355
1.57833	999
1.58200	698
1.58567	466
1.58933	298
1.59300	184
1.59667	107
1.60033	55
1.60400	19
1.60767	-5
1.61133	-20
1.61500	-33
1.61867	-43
1.62233	-49
1.62600	-52
1.62967	-51
1.63333	-48
1.63700	-43
1.64067	-40
1.64433	-40
1.64800	-42
1.65167	-44
1.65533	-46
1.65900	-45
1.66267	-47
1.66633	-49
1.67000	-49
1.67367	-45
1.67733	-42
1.68100	-43
1.68467	-43
1.68833	-44
1.69200	-45
1.69567	-46
1.69933	-47
1.70300	-47
1.70667	-46
1.71033	-43
1.71400	-42
1.71767	-42
1.72133	-42
1.72500	-44
1.72867	-50
1.73233	-55
1.73600	-55
1.73967	-53
1.74333	-52
1.74700	-53
1.75067	-54
1.75433	-52
1.75800	-48
1.76167	-45
1.76533	-47
1.76900	-50
1.77267	-51
1.77633	-52
1.78000	-53
1.78367	-56
1.78733	-60
1.79100	-64
1.79467	-66
1.79833	-66
1.80200	-65
1.80567	-66
1.80933	-68
1.81300	-68
1.81667	-67
1.82033	-65
1.82400	-64
1.82767	-63
1.83133	-60
1.83500	-57
1.83867	-58
1.84233	-61
1.84600	-62
1.84967	-61
1.85333	-61
1.85700	-60
1.86067	-64
1.86433	-69
1.86800	-72
1.87167	-76
1.87533	-77
1.87900	-75
1.88267	-72
1.88633	-69
1.89000	-65
1.89367	-59
1.89733	-55
1.90100	-54
1.90467	-57
1.90833	-61
1.91200	-61
1.91567	-57
1.91933	-54
1.92300	-54
1.92667	-59
1.93033	-63
1.93400	-68
1.93767	-67
1.94133	-60
1.94500	-35
1.94867	99
1.95233	886
1.95600	4635
1.95967	18061
1.96333	54708
1.96700	131885
1.97067	258541
1.97433	424088
1.97800	600562
1.98167	755714
1.98533	864037
1.98900	909813
1.99267	888649
1.99633	808812
2.00000	689131
2.00367	553384
2.00733	422705
2.01100	310528
2.01467	221946
2.01833	156080
2.02200	109121
2.02567	76572
2.02933	54399
2.03300	39421
2.03667	29312
2.04033	22451
2.04400	17737
2.04767	14440
2.05133	12084
2.05500	10360
2.05867	9060
2.06233	8053
2.06600	7252
2.06967	6602
2.07333	6064
2.07700	5612
2.08067	5225
2.08433	4892
2.08800	4601
2.09167	4342
2.09533	4105
2.09900	3888
2.10267	3690
2.10633	3515
2.11000	3360
2.11367	3220
2.11733	3092
2.12100	2975
2.12467	2861
2.12833	2751
2.13200	2645
2.13567	2547
2.13933	2457
2.14300	2378
2.14667	2305
2.15033	2234
2.15400	2164
2.15767	2094
2.16133	2024
2.16500	1955
2.16867	1891
2.17233	1834
2.17600	1779
2.17967	1727
2.18333	1682
2.18700	1638
2.19067	1596
2.19433	1559
2.19800	1523
2.20167	1488
2.20533	1450
2.20900	1412
2.21267	1373
2.21633	1337
2.22000	1305
2.22367	1277
2.22733	1247
2.23100	1218
2.23467	1191
2.23833	1167
2.24200	1147
2.24567	1129
2.24933	1113
2.25300	1096
2.25667	1076
2.26033	1056
2.26400	1035
2.26767	1013
2.27133	992
2.27500	971
2.27867	946
2.28233	921
2.28600	899
2.28967	881
2.29333	867
2.29700	854
2.30067	840
2.30433	826
2.30800	814
2.31167	803
2.31533	794
2.31900	782
2.32267	768
2.32633	751
2.33000	734
2.33367	718
2.33733	703
2.34100	687
2.34467	673
2.34833	661
2.35200	654
2.35567	647
2.35933	641
2.36300	637
2.36667	633
2.37033	629
2.37400	622
2.37767	612
2.38133	603
2.38500	596
2.38867	592
2.39233	589
2.39600	586
2.39967	581
2.40333	573
2.40700	562
2.41067	551
2.41433	544
2.41800	541
2.42167	540
2.42533	538
2.42900	530
2.43267	518
2.43633	509
2.44000	504
2.44367	502
2.44733	498
2.45100	491
2.45467	481
2.45833	472
2.46200	462
2.46567	456
2.46933	451
2.47300	447
2.47667	442
2.48033	439
2.48400	438
2.48767	441
2.49133	448
2.49500	453
2.49867	453
2.50233	447
2.50600	439
2.50967	429
2.51333	420
2.51700	411
2.52067	405
2.52433	398
2.52800	392
2.53167	390
2.53533	392
2.53900	394
2.54267	394
2.54633	391
2.55000	385
2.55367	377
2.55733	369
2.56100	363
2.56467	361
2.56833	360
2.57200	357
2.57567	355
2.57933	355
2.58300	355
2.58667	353
2.59033	349
2.59400	342
2.59767	335
2.60133	330
2.60500	331
2.60867	336
2.61233	343
2.61600	348
2.61967	348
2.62333	341
2.62700	335
2.63067	333
2.63433	335
2.63800	337
2.64167	339
2.64533	341
2.64900	339
2.65267	335
2.65633	329
2.66000	323
2.66367	321
2.66733	321
2.67100	319
2.67467	316
2.67833	315
2.68200	316
2.68567	317
2.68933	317
2.69300	319
2.69667	321
2.70033	321
2.70400	320
2.70767	319
2.71133	320
2.71500	319
2.71867	313
2.72233	306
2.72600	299
2.72967	294
2.73333	288
2.73700	282
2.74067	275
2.74433	270
2.74800	270
2.75167	272
2.75533	275
2.75900	278
2.76267	281
2.76633	283
2.77000	283
2.77367	286
2.77733	290
2.78100	294
2.78467	295
2.78833	294
2.79200	292
2.79567	291
2.79933	291
2.80300	289
2.80667	287
2.81033	288
2.81400	290
2.81767	294
2.82133	297
2.82500	295
2.82867	290
2.83233	286
2.83600	280
2.83967	274
2.84333	274
2.84700	277
2.85067	280
2.85433	281
2.85800	282
2.86167	279
2.86533	278
2.86900	281
2.87267	287
2.87633	288
2.88000	286
2.88367	284
2.88733	282
2.89100	281
2.89467	278
2.89833	275
2.90200	273
2.90567	273
2.90933	274
2.91300	274
2.91667	274
2.92033	274
2.92400	275
2.92767	277
2.93133	276
2.93500	275
2.93867	273
2.94233	272
2.94600	272
2.94967	274
2.95333	280
2.95700	285
2.96067	284
2.96433	278
2.96800	270
2.97167	264
2.97533	263
2.97900	266
2.98267	271
2.98633	276
2.99000	280
2.99367	284
2.99733	285
3.00100	284
3.00467	284
3.00833	286
3.01200	287
3.01567	285
3.01933	278
3.02300	270
3.02667	263
3.03033	259
3.03400	258
3.03767	258
3.04133	257
3.04500	258
3.04867	260
3.05233	260
3.05600	262
3.05967	266
3.06333	267
3.06700	265
3.07067	265
3.07433	268
3.07800	273
3.08167	279
3.08533	288
3.08900	293
3.09267	292
3.09633	289
3.10000	286
3.10367	284
3.10733	280
3.11100	279
3.11467	281
3.11833	284
3.12200	286
3.12567	286
3.12933	283
3.13300	278
3.13667	272
3.14033	265
3.14400	261
3.14767	259
3.15133	259
3.15500	262
3.15867	265
3.16233	270
3.16600	273
3.16967	274
3.17333	271
3.17700	264
3.18067	255
3.18433	248
3.18800	244
3.19167	245
3.19533	251
3.19900	260
3.20267	269
3.20633	277
3.21000	283
3.21367	287
3.21733	287
3.22100	282
3.22467	273
3.22833	264
3.23200	257
3.23567	253
3.23933	255
3.24300	260
3.24667	266
3.25033	269
3.25400	271
3.25767	273
3.26133	276
3.26500	277
3.26867	280
3.27233	281
3.27600	283
3.27967	283
3.28333	283
3.28700	280
3.29067	275
3.29433	270
3.29800	267
3.30167	264
3.30533	259
3.30900	256
3.31267	257
3.31633	259
3.32000	263
3.32367	268
3.32733	270
3.33100	271
3.33467	269
3.33833	267
3.34200	269
3.34567	270
3.34933	265
3.35300	256
3.35667	248
3.36033	244
3.36400	244
3.36767	248
3.37133	254
3.37500	258
3.37867	261
3.38233	263
3.38600	264
3.38967	264
3.39333	263
3.39700	259
3.40067	253
3.40433	245
3.40800	238
3.41167	234
3.41533	233
3.41900	234
3.42267	234
3.42633	236
3.43000	240
3.43367	242
3.43733	244
3.44100	246
3.44467	246
3.44833	247
3.45200	248
3.45567	246
3.45933	243
3.46300	244
3.46667	248
3.47033	253
3.47400	256
3.47767	258
3.48133	255
3.48500	253
3.48867	253
3.49233	253
3.49600	253
3.49967	254
3.50333	255
3.50700	256
3.51067	256
3.51433	255
3.51800	252
3.52167	251
3.52533	251
3.52900	253
3.53267	254
3.53633	255
3.54000	256
3.54367	254
3.54733	251
3.55100	250
3.55467	249
3.55833	247
3.56200	245
3.56567	242
3.56933	239
3.57300	238
3.57667	238
3.58033	239
3.58400	240
3.58767	240
3.59133	240
3.59500	241
3.59867	242
3.60233	242
3.60600	241
3.60967	239
3.61333	235
3.61700	231
3.62067	227
3.62433	225
3.62800	225
3.63167	228
3.63533	230
3.63900	230
3.64267	228
3.64633	226
3.65000	224
3.65367	221
3.65733	219
3.66100	219
3.66467	219
3.66833	221
3.67200	222
3.67567	225
3.67933	227
3.68300	229
3.68667	228
3.69033	227
3.69400	226
3.69767	229
3.70133	237
3.70500	246
3.70867	254
3.71233	257
3.71600	253
3.71967	247
3.72333	243
3.72700	241
3.73067	238
3.73433	235
3.73800	232
3.74167	230
3.74533	229
3.74900	226
3.75267	227
3.75633	226
3.76000	223
3.76367	220
3.76733	218
3.77100	216
3.77467	214
3.77833	211
3.78200	209
3.78567	207
3.78933	204
3.79300	204
3.79667	208
3.80033	211
3.80400	212
3.80767	212
3.81133	209
3.81500	206
3.81867	205
3.82233	208
3.82600	210
3.82967	210
3.83333	208
3.83700	206
3.84067	205
3.84433	207
3.84800	210
3.85167	213
3.85533	214
3.85900	213
3.86267	210
3.86633	204
3.87000	200
3.87367	196
3.87733	194
3.88100	193
3.88467	191
3.88833	192
3.89200	194
3.89567	197
3.89933	200
3.90300	200
3.90667	201
3.91033	204
3.91400	206
3.91767	204
3.92133	202
3.92500	200
3.92867	200
3.93233	203
3.93600	205
3.93967	205
3.94333	204
3.94700	201
3.95067	200
3.95433	199
3.95800	199
3.96167	197
3.96533	196
3.96900	196
3.97267	198
3.97633	199
3.98000	197
3.98367	193
3.98733	198
3.99100	206
3.99467	214
3.99833	219

[Chromatogram (Ch2)]
Interval(msec)	220
# of Points	1091
Start Time(min)	0.002
End Time(min)	3.998
R.Time (min)	Intensity
0.00167	-0
0.00533	-0
0.00900	-0
0.01267	-0
0.01633	0
0.02000	0
0.02367	0
0.02733	1
0.03100	1
0.03467	1
0.03833	1
0.04200	0
0.04567	1
0.04933	1
0.05300	1
0.05667	1
0.06033	0
0.06400	0
0.06767	0
0.07133	-0
0.07500	-0
0.07867	-0
0.08233	0
0.08600	0
0.08967	1
0.09333	1
0.09700	1
0.10067	1
0.10433	0
0.10800	-0
0.11167	-1
0.11533	-1
0.11900	-1
0.12267	-2
0.12633	-1
0.13000	-1
0.13367	-1
0.13733	-1
0.14100	-1
0.14467	-1
0.14833	-1
0.15200	-0
0.15567	-0
0.15933	0
0.16300	0
0.16667	1
0.17033	1
0.17400	1
0.17767	0
0.18133	1
0.18500	1
0.18867	1
0.19233	1
0.19600	1
0.19967	1
0.20333	1
0.20700	1
0.21067	1
0.21433	1
0.21800	1
0.22167	1
0.22533	1
0.22900	0
0.23267	0
0.23633	0
0.24000	0
0.24367	0
0.24733	1
0.25100	1
0.25467	1
0.25833	1
0.26200	1
0.26567	1
0.26933	1
0.27300	1
0.27667	1
0.28033	1
0.28400	1
0.28767	1
0.29133	1
0.29500	1
0.29867	1
0.30233	1
0.30600	1
0.30967	1
0.31333	1
0.31700	0
0.32067	0
0.32433	0
0.32800	0
0.33167	-0
0.33533	-0
0.33900	-1
0.34267	-1
0.34633	-1
0.35000	-1
0.35367	-1
0.35733	-1
0.36100	-1
0.36467	-0
0.36833	-0
0.37200	0
0.37567	0
0.37933	0
0.38300	0
0.38667	0
0.39033	0
0.39400	0
0.39767	1
0.40133	1
0.40500	1
0.40867	1
0.41233	1
0.41600	1
0.41967	0
0.42333	0
0.42700	0
0.43067	0
0.43433	0
0.43800	0
0.44167	0
0.44533	0
0.44900	-0
0.45267	-0
0.45633	-0
0.46000	-0
0.46367	-0
0.46733	-0
0.47100	-1
0.47467	-1
0.47833	-0
0.48200	-0
0.48567	-0
0.48933	-0
0.49300	0
0.49667	0
0.50033	1
0.50400	1
0.50767	1
0.51133	1
0.51500	1
0.51867	1
0.52233	0
0.52600	0
0.52967	0
0.53333	0
0.53700	-0
0.54067	-0
0.54433	-0
0.54800	-0
0.55167	-0
0.55533	-0
0.55900	-0
0.56267	-0
0.56633	-0
0.57000	0
0.57367	0
0.57733	-0
0.58100	0
0.58467	0
0.58833	0
0.59200	0
0.59567	0
0.59933	0
0.60300	0
0.60667	0
0.61033	-0
0.61400	-0
0.61767	-1
0.62133	-1
0.62500	-1
0.62867	-1
0.63233	-1
0.63600	-1
0.63967	-1
0.64333	-1
0.64700	-1
0.65067	-1
0.65433	-1
0.65800	-1
0.66167	-1
0.66533	-1
0.66900	-1
0.67267	-1
0.67633	-0
0.68000	-0
0.68367	-0
0.68733	-0
0.69100	-0
0.69467	-0
0.69833	-0
0.70200	-0
0.70567	-1
0.70933	-1
0.71300	-1
0.71667	-1
0.72033	-1
0.72400	-1
0.72767	-1
0.73133	-1
0.73500	-1
0.73867	-1
0.74233	-1
0.74600	-1
0.74967	-1
0.75333	-1
0.75700	-1
0.76067	-1
0.76433	-1
0.76800	-1
0.77167	-1
0.77533	-1
0.77900	-1
0.78267	-1
0.78633	-1
0.79000	-1
0.79367	-1
0.79733	-1
0.80100	-2
0.80467	-2
0.80833	-2
0.81200	-2
0.81567	-2
0.81933	-3
0.82300	-3
0.82667	-3
0.83033	-2
0.83400	-2
0.83767	-2
0.84133	-2
0.84500	-2
0.84867	-2
0.85233	-2
0.85600	-2
0.85967	-2
0.86333	-1
0.86700	-1
0.87067	-1
0.87433	-1
0.87800	-1
0.88167	-1
0.88533	-1
0.88900	-1
0.89267	-1
0.89633	-1
0.90000	-1
0.90367	-1
0.90733	-1
0.91100	-1
0.91467	-1
0.91833	-1
0.92200	-1
0.92567	-1
0.92933	-1
0.93300	-1
0.93667	-1
0.94033	-1
0.94400	-1
0.94767	-1
0.95133	-1
0.95500	-1
0.95867	-1
0.96233	-1
0.96600	-1
0.96967	-2
0.97333	-2
0.97700	-2
0.98067	-2
0.98433	-2
0.98800	-3
0.99167	-3
0.99533	-3
0.99900	-3
1.00267	-3
1.00633	-3
1.01000	-3
1.01367	-3
1.01733	-3
1.02100	-3
1.02467	-3
1.02833	-3
1.03200	-3
1.03567	-2
1.03933	-2
1.04300	-1
1.04667	-1
1.05033	-1
1.05400	-1
1.05767	-1
1.06133	-1
1.06500	-1
1.06867	-1
1.07233	-1
1.07600	-2
1.07967	-2
1.08333	-2
1.08700	-2
1.09067	-3
1.09433	-3
1.09800	-3
1.10167	-3
1.10533	-3
1.10900	-3
1.11267	-3
1.11633	-2
1.12000	-2
1.12367	-2
1.12733	-2
1.13100	-2
1.13467	-2
1.13833	-2
1.14200	-2
1.14567	-2
1.14933	-2
1.15300	-2
1.15667	-2
1.16033	-2
1.16400	-2
1.16767	-2
1.17133	-2
1.17500	-2
1.17867	-2
1.18233	-2
1.18600	-2
1.18967	-2
1.19333	-2
1.19700	-2
1.20067	-2
1.20433	-2
1.20800	-2
1.21167	-2
1.21533	-2
1.21900	-2
1.22267	-2
1.22633	-2
1.23000	-2
1.23367	-2
1.23733	-2
1.24100	-2
1.24467	-2
1.24833	-2
1.25200	-2
1.25567	-2
1.25933	-2
1.26300	-2
1.26667	-2
1.27033	-2
1.27400	-2
1.27767	-2
1.28133	-2
1.28500	-2
1.28867	-1
1.29233	-1
1.29600	-1
1.29967	-2
1.30333	-2
1.30700	-2
1.31067	-2
1.31433	-2
1.31800	-3
1.32167	-3
1.32533	-3
1.32900	-3
1.33267	-3
1.33633	-3
1.34000	-3
1.34367	-3
1.34733	-3
1.35100	-3
1.35467	-3
1.35833	-3
1.36200	-3
1.36567	-3
1.36933	-3
1.37300	-3
1.37667	-3
1.38033	-3
1.38400	-3
1.38767	-3
1.39133	-3
1.39500	-3
1.39867	-3
1.40233	-2
1.40600	-2
1.40967	-2
1.41333	-2
1.41700	-2
1.42067	-2
1.42433	-3
1.42800	-3
1.43167	-3
1.43533	-3
1.43900	-3
1.44267	-3
1.44633	-3
1.45000	-3
1.45367	-3
1.45733	-3
1.46100	-2
1.46467	-2
1.46833	-2
1.47200	-2
1.47567	-2
1.47933	-2
1.48300	-2
1.48667	-2
1.49033	-3
1.49400	-3
1.49767	-3
1.50133	-3
1.50500	-4
1.50867	-4
1.51233	-4
1.51600	-3
1.51967	-3
1.52333	-3
1.52700	-3
1.53067	-2
1.53433	-2
1.53800	-2
1.54167	-2
1.54533	-3
1.54900	-3
1.55267	-3
1.55633	-3
1.56000	-3
1.56367	-3
1.56733	-3
1.57100	-3
1.57467	-3
1.57833	-3
1.58200	-3
1.58567	-3
1.58933	-3
1.59300	-4
1.59667	-4
1.60033	-5
1.60400	-6
1.60767	-8
1.61133	-9
1.61500	-11
1.61867	-13
1.62233	-16
1.62600	-18
1.62967	-21
1.63333	-24
1.63700	-27
1.64067	-30
1.64433	-33
1.64800	-36
1.65167	-39
1.65533	-42
1.65900	-45
1.66267	-49
1.66633	-53
1.67000	-57
1.67367	-62
1.67733	-67
1.68100	-72
1.68467	-76
1.68833	-81
1.69200	-84
1.69567	-87
1.69933	-90
1.70300	-92
1.70667	-93
1.71033	-94
1.71400	-95
1.71767	-96
1.72133	-96
1.72500	-96
1.72867	-96
1.73233	-96
1.73600	-95
1.73967	-95
1.74333	-95
1.74700	-95
1.75067	-95
1.75433	-95
1.75800	-96
1.76167	-96
1.76533	-96
1.76900	-97
1.77267	-97
1.77633	-98
1.78000	-98
1.78367	-99
1.78733	-100
1.79100	-101
1.79467	-101
1.79833	-102
1.80200	-102
1.80567	-101
1.80933	-101
1.81300	-101
1.81667	-101
1.82033	-101
1.82400	-101
1.82767	-100
1.83133	-100
1.83500	-99
1.83867	-99
1.84233	-99
1.84600	-99
1.84967	-99
1.85333	-100
1.85700	-100
1.86067	-100
1.86433	-101
1.86800	-101
1.87167	-101
1.87533	-101
1.87900	-101
1.88267	-100
1.88633	-100
1.89000	-99
1.89367	-99
1.89733	-99
1.90100	-99
1.90467	-98
1.90833	-98
1.91200	-97
1.91567	-97
1.91933	-97
1.92300	-98
1.92667	-98
1.93033	-98
1.93400	-98
1.93767	-97
1.94133	-97
1.94500	-96
1.94867	-95
1.95233	-95
1.95600	-95
1.95967	-95
1.96333	-95
1.96700	-95
1.97067	-95
1.97433	-95
1.97800	-95
1.98167	-94
1.98533	-94
1.98900	-94
1.99267	-93
1.99633	-93
2.00000	-92
2.00367	-92
2.00733	-92
2.01100	-92
2.01467	-92
2.01833	-92
2.02200	-92
2.02567	-92
2.02933	-92
2.03300	-93
2.03667	-93
2.04033	-93
2.04400	-92
2.04767	-92
2.05133	-91
2.05500	-90
2.05867	-89
2.06233	-88
2.06600	-87
2.06967	-86
2.07333	-86
2.07700	-86
2.08067	-85
2.08433	-84
2.08800	-84
2.09167	-84
2.09533	-83
2.09900	-84
2.10267	-84
2.10633	-84
2.11000	-85
2.11367	-85
2.11733	-85
2.12100	-85
2.12467	-85
2.12833	-85
2.13200	-84
2.13567	-84
2.13933	-83
2.14300	-83
2.14667	-83
2.15033	-83
2.15400	-82
2.15767	-81
2.16133	-81
2.16500	-81
2.16867	-81
2.17233	-81
2.17600	-81
2.17967	-81
2.18333	-81
2.18700	-80
2.19067	-80
2.19433	-80
2.19800	-79
2.20167	-79
2.20533	-78
2.20900	-78
2.21267	-77
2.21633	-77
2.22000	-77
2.22367	-77
2.22733	-76
2.23100	-76
2.23467	-75
2.23833	-75
2.24200	-74
2.24567	-74
2.24933	-74
2.25300	-74
2.25667	-73
2.26033	-73
2.26400	-73
2.26767	-73
2.27133	-72
2.27500	-72
2.27867	-72
2.28233	-72
2.28600	-72
2.28967	-72
2.29333	-72
2.29700	-71
2.30067	-71
2.30433	-71
2.30800	-71
2.31167	-71
2.31533	-71
2.31900	-71
2.32267	-71
2.32633	-70
2.33000	-70
2.33367	-69
2.33733	-68
2.34100	-67
2.34467	-67
2.34833	-66
2.35200	-65
2.35567	-64
2.35933	-63
2.36300	-61
2.36667	-58
2.37033	-56
2.37400	-53
2.37767	-49
2.38133	-46
2.38500	-42
2.38867	-38
2.39233	-33
2.39600	-29
2.39967	-25
2.40333	-21
2.40700	-17
2.41067	-14
2.41433	-11
2.41800	-9
2.42167	-6
2.42533	-5
2.42900	-3
2.43267	-1
2.43633	0
2.44000	1
2.44367	3
2.44733	4
2.45100	5
2.45467	6
2.45833	8
2.46200	9
2.46567	10
2.46933	11
2.47300	12
2.47667	13
2.48033	13
2.48400	14
2.48767	15
2.49133	16
2.49500	17
2.49867	18
2.50233	18
2.50600	18
2.50967	18
2.51333	18
2.51700	18
2.52067	18
2.52433	18
2.52800	18
2.53167	18
2.53533	18
2.53900	18
2.54267	17
2.54633	17
2.55000	16
2.55367	16
2.55733	15
2.56100	14
2.56467	13
2.56833	12
2.57200	11
2.57567	11
2.57933	11
2.58300	11
2.58667	12
2.59033	13
2.59400	13
2.59767	14
2.60133	15
2.60500	15
2.60867	16
2.61233	17
2.61600	17
2.61967	17
2.62333	17
2.62700	17
2.63067	17
2.63433	17
2.63800	17
2.64167	17
2.64533	18
2.64900	18
2.65267	19
2.65633	19
2.66000	19
2.66367	20
2.66733	20
2.67100	21
2.67467	21
2.67833	21
2.68200	21
2.68567	21
2.68933	21
2.69300	21
2.69667	22
2.70033	22
2.70400	23
2.70767	23
2.71133	24
2.71500	25
2.71867	25
2.72233	26
2.72600	26
2.72967	27
2.73333	27
2.73700	27
2.74067	27
2.74433	27
2.74800	27
2.75167	27
2.75533	27
2.75900	28
2.76267	28
2.76633	29
2.77000	29
2.77367	29
2.77733	29
2.78100	29
2.78467	29
2.78833	29
2.79200	29
2.79567	29
2.79933	28
2.80300	28
2.80667	28
2.81033	28
2.81400	28
2.81767	28
2.82133	27
2.82500	27
2.82867	27
2.83233	27
2.83600	27
2.83967	27
2.84333	27
2.84700	28
2.85067	28
2.85433	27
2.85800	26
2.86167	23
2.86533	18
2.86900	10
2.87267	-2
2.87633	-18
2.88000	-39
2.88367	-65
2.88733	-97
2.89100	-134
2.89467	-176
2.89833	-224
2.90200	-275
2.90567	-331
2.90933	-389
2.91300	-451
2.91667	-514
2.92033	-578
2.92400	-643
2.92767	-707
2.93133	-769
2.93500	-828
2.93867	-883
2.94233	-937
2.94600	-992
2.94967	-1046
2.95333	-1089
2.95700	-1112
2.96067	-1112
2.96433	-1086
2.96800	-1039
2.97167	-975
2.97533	-901
2.97900	-820
2.98267	-739
2.98633	-658
2.99000	-582
2.99367	-510
2.99733	-445
3.00100	-386
3.00467	-333
3.00833	-286
3.01200	-244
3.01567	-208
3.01933	-176
3.02300	-149
3.02667	-125
3.03033	-105
3.03400	-87
3.03767	-72
3.04133	-60
3.04500	-49
3.04867	-39
3.05233	-31
3.05600	-24
3.05967	-18
3.06333	-13
3.06700	-9
3.07067	-5
3.07433	-2
3.07800	1
3.08167	3
3.08533	6
3.08900	7
3.09267	9
3.09633	10
3.10000	12
3.10367	13
3.10733	14
3.11100	15
3.11467	16
3.11833	16
3.12200	16
3.12567	17
3.12933	17
3.13300	17
3.13667	18
3.14033	18
3.14400	18
3.14767	18
3.15133	19
3.15500	19
3.15867	20
3.16233	20
3.16600	21
3.16967	21
3.17333	21
3.17700	21
3.18067	22
3.18433	22
3.18800	22
3.19167	22
3.19533	22
3.19900	23
3.20267	23
3.20633	23
3.21000	23
3.21367	23
3.21733	23
3.22100	24
3.22467	24
3.22833	24
3.23200	25
3.23567	25
3.23933	25
3.24300	25
3.24667	25
3.25033	25
3.25400	25
3.25767	25
3.26133	26
3.26500	26
3.26867	26
3.27233	27
3.27600	27
3.27967	27
3.28333	27
3.28700	27
3.29067	27
3.29433	26
3.29800	26
3.30167	26
3.30533	26
3.30900	26
3.31267	26
3.31633	26
3.32000	26
3.32367	27
3.32733	27
3.33100	27
3.33467	27
3.33833	28
3.34200	28
3.34567	28
3.34933	28
3.35300	28
3.35667	28
3.36033	28
3.36400	28
3.36767	28
3.37133	28
3.37500	28
3.37867	28
3.38233	28
3.38600	28
3.38967	28
3.39333	28
3.39700	28
3.40067	28
3.40433	28
3.40800	28
3.41167	28
3.41533	28
3.41900	28
3.42267	28
3.42633	28
3.43000	28
3.43367	28
3.43733	28
3.44100	28
3.44467	28
3.44833	28
3.45200	29
3.45567	29
3.45933	29
3.46300	29
3.46667	29
3.47033	29
3.47400	29
3.47767	29
3.48133	29
3.48500	30
3.48867	30
3.49233	30
3.49600	30
3.49967	30
3.50333	30
3.50700	30
3.51067	30
3.51433	30
3.51800	30
3.52167	30
3.52533	29
3.52900	29
3.53267	29
3.53633	29
3.54000	29
3.54367	29
3.54733	29
3.55100	29
3.55467	29
3.55833	29
3.56200	29
3.56567	29
3.56933	29
3.57300	29
3.57667	29
3.58033	29
3.58400	29
3.58767	29
3.59133	29
3.59500	29
3.59867	28
3.60233	28
3.60600	29
3.60967	29
3.61333	29
3.61700	29
3.62067	29
3.62433	29
3.62800	29
3.63167	29
3.63533	29
3.63900	29
3.64267	29
3.64633	28
3.65000	28
3.65367	28
3.65733	28
3.66100	28
3.66467	28
3.66833	28
3.67200	28
3.67567	28
3.67933	28
3.68300	28
3.68667	28
3.69033	28
3.69400	28
3.69767	28
3.70133	28
3.70500	28
3.70867	28
3.71233	28
3.71600	28
3.71967	28
3.72333	28
3.72700	28
3.73067	28
3.73433	28
3.73800	28
3.74167	28
3.74533	29
3.74900	29
3.75267	29
3.75633	29
3.76000	29
3.76367	29
3.76733	29
3.77100	29
3.77467	30
3.77833	30
3.78200	30
3.78567	30
3.78933	30
3.79300	30
3.79667	30
3.80033	30
3.80400	30
3.80767	30
3.81133	30
3.81500	29
3.81867	29
3.82233	29
3.82600	29
3.82967	29
3.83333	29
3.83700	28
3.84067	28
3.84433	28
3.84800	28
3.85167	28
3.85533	28
3.85900	28
3.86267	29
3.86633	29
3.87000	29
3.87367	29
3.87733	29
3.88100	29
3.88467	29
3.88833	29
3.89200	29
3.89567	29
3.89933	29
3.90300	28
3.90667	28
3.91033	29
3.91400	29
3.91767	29
3.92133	29
3.92500	29
3.92867	29
3.93233	29
3.93600	29
3.93967	29
3.94333	28
3.94700	28
3.95067	28
3.95433	28
3.95800	28
3.96167	28
3.96533	28
3.96900	29
3.97267	29
3.97633	29
3.98000	29
3.98367	29
3.98733	29
3.99100	29
3.99467	29
3.99833	29

[Chromatogram (Ch3)]
Interval(msec)	220
# of Points	1091
Start Time(min)	0.002
End Time(min)	3.998
R.Time (min)	Intensity
0.00167	0
0.00533	1
0.00900	1
0.01267	-0
0.01633	0
0.02000	0
0.02367	0
0.02733	1
0.03100	0
0.03467	-0
0.03833	0
0.04200	2
0.04567	5
0.04933	6
0.05300	6
0.05667	7
0.06033	8
0.06400	7
0.06767	4
0.07133	3
0.07500	2
0.07867	2
0.08233	2
0.08600	2
0.08967	1
0.09333	1
0.09700	-1
0.10067	-2
0.10433	-1
0.10800	1
0.11167	2
0.11533	0
0.11900	-1
0.12267	-2
0.12633	-1
0.13000	-0
0.13367	-1
0.13733	-1
0.14100	1
0.14467	5
0.14833	6
0.15200	5
0.15567	4
0.15933	5
0.16300	5
0.16667	4
0.17033	3
0.17400	2
0.17767	-0
0.18133	-1
0.18500	-1
0.18867	-2
0.19233	-1
0.19600	2
0.19967	2
0.20333	3
0.20700	5
0.21067	6
0.21433	5
0.21800	5
0.22167	3
0.22533	2
0.22900	3
0.23267	2
0.23633	2
0.24000	3
0.24367	3
0.24733	2
0.25100	3
0.25467	2
0.25833	2
0.26200	3
0.26567	3
0.26933	2
0.27300	2
0.27667	3
0.28033	5
0.28400	6
0.28767	7
0.29133	6
0.29500	4
0.29867	1
0.30233	1
0.30600	1
0.30967	-0
0.31333	-0
0.31700	-1
0.32067	-2
0.32433	-4
0.32800	-5
0.33167	-6
0.33533	-7
0.33900	-4
0.34267	-4
0.34633	-5
0.35000	-6
0.35367	-6
0.35733	-5
0.36100	-4
0.36467	-5
0.36833	-6
0.37200	-6
0.37567	-8
0.37933	-10
0.38300	-9
0.38667	-7
0.39033	-5
0.39400	-4
0.39767	-3
0.40133	-2
0.40500	-4
0.40867	-7
0.41233	-10
0.41600	-13
0.41967	-14
0.42333	-13
0.42700	-12
0.43067	-9
0.43433	-9
0.43800	-9
0.44167	-10
0.44533	-10
0.44900	-9
0.45267	-8
0.45633	-8
0.46000	-8
0.46367	-7
0.46733	-5
0.47100	-4
0.47467	-6
0.47833	-7
0.48200	-8
0.48567	-7
0.48933	-6
0.49300	-6
0.49667	-6
0.50033	-6
0.50400	-6
0.50767	-4
0.51133	-3
0.51500	-2
0.51867	-1
0.52233	-2
0.52600	-3
0.52967	-3
0.53333	-1
0.53700	0
0.54067	-1
0.54433	-4
0.54800	-4
0.55167	-3
0.55533	-1
0.55900	-0
0.56267	-3
0.56633	-6
0.57000	-9
0.57367	-11
0.57733	-11
0.58100	-12
0.58467	-13
0.58833	-11
0.59200	-11
0.59567	-11
0.59933	-11
0.60300	-8
0.60667	-8
0.61033	-9
0.61400	-9
0.61767	-9
0.62133	-7
0.62500	-5
0.62867	-3
0.63233	-3
0.63600	-3
0.63967	-4
0.64333	-5
0.64700	-6
0.65067	-7
0.65433	-5
0.65800	-4
0.66167	-5
0.66533	-3
0.66900	-2
0.67267	-1
0.67633	-1
0.68000	-0
0.68367	0
0.68733	1
0.69100	1
0.69467	1
0.69833	1
0.70200	1
0.70567	2
0.70933	2
0.71300	3
0.71667	2
0.72033	2
0.72400	3
0.72767	3
0.73133	4
0.73500	5
0.73867	7
0.74233	7
0.74600	5
0.74967	4
0.75333	4
0.75700	4
0.76067	3
0.76433	4
0.76800	4
0.77167	4
0.77533	5
0.77900	4
0.78267	2
0.78633	-1
0.79000	-3
0.79367	-4
0.79733	-3
0.80100	-0
0.80467	2
0.80833	5
0.81200	6
0.81567	3
0.81933	1
0.82300	1
0.82667	2
0.83033	2
0.83400	2
0.83767	2
0.84133	-1
0.84500	-3
0.84867	-2
0.85233	-3
0.85600	-4
0.85967	-4
0.86333	-2
0.86700	1
0.87067	3
0.87433	3
0.87800	2
0.88167	3
0.88533	5
0.88900	6
0.89267	7
0.89633	6
0.90000	7
0.90367	7
0.90733	5
0.91100	3
0.91467	1
0.91833	-1
0.92200	-2
0.92567	-2
0.92933	1
0.93300	5
0.93667	7
0.94033	5
0.94400	3
0.94767	3
0.95133	3
0.95500	1
0.95867	2
0.96233	2
0.96600	2
0.96967	5
0.97333	6
0.97700	5
0.98067	3
0.98433	2
0.98800	2
0.99167	-0
0.99533	-2
0.99900	-3
1.00267	-4
1.00633	-3
1.01000	-4
1.01367	-6
1.01733	-6
1.02100	-7
1.02467	-9
1.02833	-10
1.03200	-9
1.03567	-9
1.03933	-7
1.04300	-5
1.04667	-4
1.05033	-3
1.05400	-2
1.05767	-6
1.06133	-7
1.06500	-6
1.06867	-6
1.07233	-7
1.07600	-7
1.07967	-6
1.08333	-6
1.08700	-5
1.09067	-5
1.09433	-7
1.09800	-8
1.10167	-9
1.10533	-8
1.10900	-5
1.11267	-3
1.11633	-5
1.12000	-8
1.12367	-8
1.12733	-7
1.13100	-5
1.13467	-4
1.13833	-2
1.14200	-1
1.14567	-1
1.14933	-2
1.15300	-3
1.15667	-4
1.16033	-5
1.16400	-4
1.16767	-4
1.17133	-2
1.17500	-1
1.17867	-1
1.18233	-1
1.18600	-3
1.18967	-4
1.19333	-3
1.19700	0
1.20067	3
1.20433	5
1.20800	5
1.21167	4
1.21533	5
1.21900	3
1.22267	3
1.22633	4
1.23000	7
1.23367	7
1.23733	8
1.24100	7
1.24467	5
1.24833	6
1.25200	7
1.25567	7
1.25933	7
1.26300	5
1.26667	2
1.27033	1
1.27400	0
1.27767	-2
1.28133	-2
1.28500	-2
1.28867	-4
1.29233	-5
1.29600	-7
1.29967	-8
1.30333	-7
1.30700	-6
1.31067	-6
1.31433	-6
1.31800	-6
1.32167	-4
1.32533	-2
1.32900	-1
1.33267	2
1.33633	1
1.34000	0
1.34367	-1
1.34733	-2
1.35100	-3
1.35467	-5
1.35833	-8
1.36200	-8
1.36567	-7
1.36933	-6
1.37300	-4
1.37667	-3
1.38033	-3
1.38400	-1
1.38767	-1
1.39133	2
1.39500	3
1.39867	2
1.40233	-0
1.40600	-0
1.40967	1
1.41333	2
1.41700	2
1.42067	1
1.42433	0
1.42800	1
1.43167	2
1.43533	1
1.43900	-0
1.44267	-2
1.44633	-3
1.45000	-3
1.45367	-2
1.45733	-4
1.46100	-6
1.46467	-6
1.46833	-4
1.47200	-3
1.47567	-4
1.47933	-3
1.48300	-4
1.48667	-6
1.49033	-7
1.49400	-8
1.49767	-9
1.50133	-8
1.50500	-8
1.50867	-9
1.51233	-10
1.51600	-10
1.51967	-9
1.52333	-7
1.52700	-7
1.53067	-8
1.53433	-7
1.53800	-8
1.54167	-7
1.54533	-7
1.54900	-7
1.55267	-5
1.55633	-4
1.56000	-3
1.56367	-1
1.56733	2
1.57100	4
1.57467	4
1.57833	4
1.58200	4
1.58567	3
1.58933	5
1.59300	7
1.59667	8
1.60033	7
1.60400	8
1.60767	9
1.61133	10
1.61500	7
1.61867	4
1.62233	1
1.62600	-1
1.62967	-1
1.63333	-2
1.63700	-1
1.64067	1
1.64433	5
1.64800	8
1.65167	11
1.65533	11
1.65900	11
1.66267	12
1.66633	13
1.67000	13
1.67367	11
1.67733	11
1.68100	12
1.68467	12
1.68833	13
1.69200	12
1.69567	15
1.69933	18
1.70300	18
1.70667	14
1.71033	12
1.71400	10
1.71767	10
1.72133	9
1.72500	9
1.72867	11
1.73233	13
1.73600	15
1.73967	16
1.74333	15
1.74700	15
1.75067	15
1.75433	13
1.75800	13
1.76167	14
1.76533	16
1.76900	16
1.77267	16
1.77633	15
1.78000	11
1.78367	9
1.78733	9
1.79100	10
1.79467	11
1.79833	11
1.80200	12
1.80567	15
1.80933	16
1.81300	15
1.81667	14
1.82033	14
1.82400	14
1.82767	15
1.83133	17
1.83500	18
1.83867	20
1.84233	19
1.84600	17
1.84967	15
1.85333	16
1.85700	18
1.86067	21
1.86433	23
1.86800	26
1.87167	25
1.87533	24
1.87900	23
1.88267	23
1.88633	22
1.89000	19
1.89367	16
1.89733	16
1.90100	19
1.90467	22
1.90833	24
1.91200	26
1.91567	24
1.91933	23
1.92300	24
1.92667	25
1.93033	25
1.93400	27
1.93767	30
1.94133	32
1.94500	32
1.94867	33
1.95233	34
1.95600	35
1.95967	35
1.96333	34
1.96700	32
1.97067	33
1.97433	34
1.97800	34
1.98167	36
1.98533	37
1.98900	36
1.99267	34
1.99633	34
2.00000	35
2.00367	39
2.00733	40
2.01100	40
2.01467	41
2.01833	39
2.02200	37
2.02567	34
2.02933	36
2.03300	40
2.03667	43
2.04033	45
2.04400	47
2.04767	47
2.05133	46
2.05500	45
2.05867	45
2.06233	46
2.06600	46
2.06967	44
2.07333	43
2.07700	44
2.08067	46
2.08433	48
2.08800	49
2.09167	50
2.09533	52
2.09900	55
2.10267	57
2.10633	59
2.11000	62
2.11367	63
2.11733	64
2.12100	64
2.12467	64
2.12833	62
2.13200	61
2.13567	60
2.13933	62
2.14300	63
2.14667	64
2.15033	66
2.15400	67
2.15767	68
2.16133	69
2.16500	69
2.16867	70
2.17233	73
2.17600	75
2.17967	76
2.18333	77
2.18700	77
2.19067	78
2.19433	77
2.19800	77
2.20167	75
2.20533	77
2.20900	80
2.21267	83
2.21633	85
2.22000	86
2.22367	86
2.22733	85
2.23100	85
2.23467	87
2.23833	89
2.24200	89
2.24567	89
2.24933	93
2.25300	97
2.25667	97
2.26033	97
2.26400	97
2.26767	98
2.27133	98
2.27500	98
2.27867	98
2.28233	100
2.28600	102
2.28967	103
2.29333	102
2.29700	103
2.30067	106
2.30433	108
2.30800	109
2.31167	109
2.31533	107
2.31900	106
2.32267	106
2.32633	107
2.33000	112
2.33367	112
2.33733	111
2.34100	111
2.34467	112
2.34833	111
2.35200	111
2.35567	110
2.35933	111
2.36300	111
2.36667	112
2.37033	112
2.37400	114
2.37767	114
2.38133	113
2.38500	108
2.38867	102
2.39233	101
2.39600	106
2.39967	112
2.40333	119
2.40700	125
2.41067	131
2.41433	134
2.41800	136
2.42167	135
2.42533	134
2.42900	134
2.43267	136
2.43633	135
2.44000	139
2.44367	189
2.44733	278
2.45100	356
2.45467	411
2.45833	436
2.46200	432
2.46567	412
2.46933	390
2.47300	370
2.47667	358
2.48033	343
2.48400	323
2.48767	301
2.49133	276
2.49500	255
2.49867	236
2.50233	222
2.50600	215
2.50967	215
2.51333	219
2.51700	223
2.52067	228
2.52433	232
2.52800	231
2.53167	223
2.53533	212
2.53900	198
2.54267	186
2.54633	176
2.55000	165
2.55367	155
2.55733	145
2.56100	140
2.56467	135
2.56833	130
2.57200	126
2.57567	124
2.57933	122
2.58300	123
2.58667	124
2.59033	126
2.59400	129
2.59767	135
2.60133	143
2.60500	152
2.60867	162
2.61233	167
2.61600	170
2.61967	174
2.62333	178
2.62700	181
2.63067	180
2.63433	177
2.63800	170
2.64167	160
2.64533	150
2.64900	140
2.65267	131
2.65633	121
2.66000	110
2.66367	99
2.66733	90
2.67100	83
2.67467	80
2.67833	77
2.68200	73
2.68567	68
2.68933	66
2.69300	62
2.69667	57
2.70033	53
2.70400	49
2.70767	45
2.71133	44
2.71500	44
2.71867	43
2.72233	41
2.72600	41
2.72967	39
2.73333	36
2.73700	34
2.74067	33
2.74433	33
2.74800	31
2.75167	30
2.75533	32
2.75900	33
2.76267	33
2.76633	33
2.77000	36
2.77367	39
2.77733	41
2.78100	42
2.78467	42
2.78833	42
2.79200	41
2.79567	42
2.79933	46
2.80300	51
2.80667	55
2.81033	54
2.81400	52
2.81767	53
2.82133	56
2.82500	59
2.82867	62
2.83233	66
2.83600	73
2.83967	91
2.84333	131
2.84700	208
2.85067	339
2.85433	546
2.85800	841
2.86167	1224
2.86533	1679
2.86900	2174
2.87267	2673
2.87633	3134
2.88000	3517
2.88367	3795
2.88733	3957
2.89100	3995
2.89467	3919
2.89833	3753
2.90200	3520
2.90567	3247
2.90933	2953
2.91300	2657
2.91667	2369
2.92033	2096
2.92400	1841
2.92767	1610
2.93133	1404
2.93500	1218
2.93867	1053
2.94233	908
2.94600	782
2.94967	672
2.95333	575
2.95700	491
2.96067	417
2.96433	354
2.96800	301
2.97167	256
2.97533	215
2.97900	181
2.98267	153
2.98633	128
2.99000	107
2.99367	89
2.99733	75
3.00100	63
3.00467	53
3.00833	45
3.01200	36
3.01567	29
3.01933	26
3.02300	23
3.02667	19
3.03033	15
3.03400	11
3.03767	9
3.04133	6
3.04500	-2
3.04867	-31
3.05233	-58
3.05600	-50
3.05967	1
3.06333	85
3.06700	186
3.07067	296
3.07433	406
3.07800	512
3.08167	607
3.08533	691
3.08900	765
3.09267	827
3.09633	878
3.10000	919
3.10367	952
3.10733	979
3.11100	997
3.11467	1010
3.11833	1023
3.12200	1032
3.12567	1035
3.12933	1036
3.13300	1037
3.13667	1039
3.14033	1039
3.14400	1036
3.14767	1035
3.15133	1034
3.15500	1032
3.15867	1028
3.16233	1025
3.16600	1022
3.16967	1018
3.17333	1015
3.17700	1013
3.18067	1009
3.18433	1005
3.18800	1002
3.19167	1000
3.19533	997
3.19900	996
3.20267	996
3.20633	995
3.21000	993
3.21367	994
3.21733	997
3.22100	997
3.22467	996
3.22833	997
3.23200	999
3.23567	997
3.23933	993
3.24300	989
3.24667	985
3.25033	982
3.25400	981
3.25767	982
3.26133	982
3.26500	982
3.26867	978
3.27233	972
3.27600	965
3.27967	960
3.28333	957
3.28700	955
3.29067	953
3.29433	949
3.29800	943
3.30167	936
3.30533	932
3.30900	927
3.31267	923
3.31633	918
3.32000	914
3.32367	908
3.32733	903
3.33100	900
3.33467	896
3.33833	892
3.34200	885
3.34567	878
3.34933	877
3.35300	874
3.35667	868
3.36033	864
3.36400	860
3.36767	855
3.37133	852
3.37500	850
3.37867	847
3.38233	845
3.38600	843
3.38967	841
3.39333	839
3.39700	837
3.40067	838
3.40433	838
3.40800	837
3.41167	834
3.41533	834
3.41900	833
3.42267	830
3.42633	828
3.43000	827
3.43367	823
3.43733	822
3.44100	820
3.44467	819
3.44833	822
3.45200	823
3.45567	821
3.45933	818
3.46300	817
3.46667	817
3.47033	818
3.47400	820
3.47767	822
3.48133	825
3.48500	822
3.48867	819
3.49233	819
3.49600	820
3.49967	821
3.50333	819
3.50700	818
3.51067	818
3.51433	818
3.51800	818
3.52167	818
3.52533	818
3.52900	818
3.53267	819
3.53633	819
3.54000	822
3.54367	822
3.54733	820
3.55100	817
3.55467	813
3.55833	811
3.56200	810
3.56567	810
3.56933	809
3.57300	808
3.57667	805
3.58033	800
3.58400	798
3.58767	799
3.59133	799
3.59500	798
3.59867	795
3.60233	790
3.60600	786
3.60967	782
3.61333	778
3.61700	773
3.62067	768
3.62433	766
3.62800	765
3.63167	764
3.63533	761
3.63900	758
3.64267	755
3.64633	753
3.65000	751
3.65367	750
3.65733	749
3.66100	747
3.66467	744
3.66833	741
3.67200	740
3.67567	739
3.67933	736
3.68300	735
3.68667	732
3.69033	726
3.69400	724
3.69767	723
3.70133	723
3.70500	723
3.70867	722
3.71233	721
3.71600	717
3.71967	713
3.72333	709
3.72700	705
3.73067	701
3.73433	698
3.73800	696
3.74167	695
3.74533	691
3.74900	687
3.75267	686
3.75633	685
3.76000	685
3.76367	685
3.76733	683
3.77100	680
3.77467	676
3.77833	673
3.78200	671
3.78567	669
3.78933	667
3.79300	666
3.79667	665
3.80033	665
3.80400	666
3.80767	667
3.81133	666
3.81500	665
3.81867	661
3.82233	658
3.82600	658
3.82967	656
3.83333	653
3.83700	652
3.84067	652
3.84433	652
3.84800	650
3.85167	650
3.85533	649
3.85900	647
3.86267	647
3.86633	648
3.87000	646
3.87367	642
3.87733	639
3.88100	637
3.88467	636
3.88833	634
3.89200	637
3.89567	637
3.89933	635
3.90300	633
3.90667	634
3.91033	633
3.91400	631
3.91767	628
3.92133	625
3.92500	621
3.92867	619
3.93233	616
3.93600	614
3.93967	613
3.94333	614
3.94700	613
3.95067	614
3.95433	614
3.95800	612
3.96167	611
3.96533	611
3.96900	610
3.97267	609
3.97633	607
3.98000	604
3.98367	602
3.98733	601
3.99100	604
3.99467	602
3.99833	597

[Status Trace (Column Oven Temperature)]
Interval(msec)	1000
# of Points	240
Start Time(min)	0.003
End Time(min)	3.986
Intensity Units	
Intensity Multiplier	1
R.Time (min)	Intensity
0.00267	35.03
0.01933	35.02
0.03600	35.02
0.05267	35.01
0.06933	35.02
0.08600	35.02
0.10267	35.03
0.11933	35.04
0.13600	35.03
0.15267	35.04
0.16933	35.03
0.18600	35.01
0.20267	35.02
0.21933	35.02
0.23600	35.02
0.25267	35.02
0.26933	35.02
0.28600	35.02
0.30267	35.02
0.31933	35.02
0.33600	35.02
0.35267	35.01
0.36933	35.01
0.38600	35.00
0.40267	35.00
0.41933	35.01
0.43600	35.01
0.45267	35.00
0.46933	35.01
0.48600	35.00
0.50267	35.00
0.51933	34.99
0.53600	35.00
0.55267	34.99
0.56933	34.99
0.58600	34.98
0.60267	34.97
0.61933	34.98
0.63600	34.98
0.65267	34.98
0.66933	34.99
0.68600	35.00
0.70267	34.99
0.71933	34.98
0.73600	34.99
0.75267	34.98
0.76933	34.97
0.78600	34.98
0.80267	34.98
0.81933	34.99
0.83600	34.98
0.85267	34.99
0.86933	34.99
0.88600	34.98
0.90267	34.99
0.91933	34.99
0.93600	34.99
0.95267	34.98
0.96933	34.98
0.98600	34.98
1.00267	34.98
1.01933	34.98
1.03600	34.98
1.05267	34.98
1.06933	34.99
1.08600	34.99
1.10267	35.00
1.11933	35.00
1.13600	35.00
1.15267	35.00
1.16933	35.00
1.18600	35.00
1.20267	35.00
1.21933	35.00
1.23600	35.00
1.25267	35.00
1.26933	35.00
1.28600	35.00
1.30267	34.99
1.31933	34.99
1.33600	34.99
1.35267	35.00
1.36933	34.99
1.38600	34.99
1.40267	34.99
1.41933	34.99
1.43600	34.98
1.45267	34.98
1.46933	34.99
1.48600	35.00
1.50267	35.00
1.51933	35.00
1.53600	35.00
1.55267	35.00
1.56933	35.00
1.58600	35.01
1.60267	35.06
1.61933	35.16
1.63600	35.33
1.65267	35.54
1.66933	35.85
1.68600	36.23
1.70267	36.59
1.71933	36.93
1.73600	37.23
1.75267	37.56
1.76933	37.89
1.78600	38.23
1.80267	38.56
1.81933	38.89
1.83600	39.23
1.85267	39.56
1.86933	39.90
1.88600	40.23
1.90267	40.55
1.91933	40.88
1.93600	41.21
1.95267	41.54
1.96933	41.88
1.98600	42.21
2.00267	42.52
2.01933	42.86
2.03600	43.20
2.05267	43.53
2.06933	43.85
2.08600	44.15
2.10267	44.50
2.11933	44.82
2.13600	45.16
2.15267	45.48
2.16933	45.82
2.18600	46.14
2.20267	46.47
2.21933	46.80
2.23600	47.11
2.25267	47.45
2.26933	47.78
2.28600	48.11
2.30267	48.44
2.31933	48.77
2.33600	49.07
2.35267	49.40
2.36933	49.58
2.38600	49.64
2.40267	49.64
2.41933	49.65
2.43600	49.67
2.45267	49.67
2.46933	49.68
2.48600	49.69
2.50267	49.70
2.51933	49.72
2.53600	49.73
2.55267	49.74
2.56933	49.77
2.58600	49.78
2.60267	49.79
2.61933	49.80
2.63600	49.82
2.65267	49.82
2.66933	49.83
2.68600	49.85
2.70267	49.86
2.71933	49.85
2.73600	49.85
2.75267	49.86
2.76933	49.85
2.78600	49.86
2.80267	49.86
2.81933	49.87
2.83600	49.88
2.85267	49.89
2.86933	49.90
2.88600	49.90
2.90267	49.91
2.91933	49.92
2.93600	49.93
2.95267	49.94
2.96933	49.96
2.98600	49.97
3.00267	49.98
3.01933	49.99
3.03600	50.01
3.05267	50.02
3.06933	50.02
3.08600	50.03
3.10267	50.03
3.11933	50.05
3.13600	50.06
3.15267	50.06
3.16933	50.06
3.18600	50.07
3.20267	50.08
3.21933	50.09
3.23600	50.10
3.25267	50.10
3.26933	50.10
3.28600	50.09
3.30267	50.09
3.31933	50.10
3.33600	50.09
3.35267	50.09
3.36933	50.10
3.38600	50.10
3.40267	50.09
3.41933	50.09
3.43600	50.09
3.45267	50.09
3.46933	50.08
3.48600	50.09
3.50267	50.09
3.51933	50.09
3.53600	50.09
3.55267	50.09
3.56933	50.09
3.58600	50.09
3.60267	50.09
3.61933	50.08
3.63600	50.09
3.65267	50.09
3.66933	50.08
3.68600	50.09
3.70267	50.10
3.71933	50.10
3.73600	50.10
3.75267	50.09
3.76933	50.09
3.78600	50.08
3.80267	50.06
3.81933	50.06
3.83600	50.05
3.85267	50.05
3.86933	50.04
3.88600	50.04
3.90267	50.05
3.91933	50.06
3.93600	50.06
3.95267	50.06
3.96933	50.05
3.98600	50.06

[Status Trace (Injection Unit Temperature)]
Interval(msec)	1000
# of Points	240
Start Time(min)	0.003
End Time(min)	3.986
Intensity Units	
Intensity Multiplier	1
R.Time (min)	Intensity
0.00267	99.97
0.01933	99.97
0.03600	99.97
0.05267	99.98
0.06933	99.97
0.08600	99.97
0.10267	99.97
0.11933	99.97
0.13600	99.98
0.15267	99.98
0.16933	99.97
0.18600	99.98
0.20267	99.98
0.21933	99.98
0.23600	99.98
0.25267	99.98
0.26933	99.98
0.28600	99.98
0.30267	99.98
0.31933	99.98
0.33600	99.98
0.35267	99.98
0.36933	99.98
0.38600	99.98
0.40267	99.98
0.41933	99.98
0.43600	99.99
0.45267	99.99
0.46933	99.99
0.48600	99.98
0.50267	99.98
0.51933	99.99
0.53600	99.98
0.55267	99.98
0.56933	99.98
0.58600	99.99
0.60267	99.99
0.61933	99.98
0.63600	99.98
0.65267	99.98
0.66933	99.98
0.68600	99.99
0.70267	99.98
0.71933	99.98
0.73600	99.98
0.75267	99.98
0.76933	99.98
0.78600	99.98
0.80267	99.98
0.81933	99.98
0.83600	99.98
0.85267	99.98
0.86933	99.98
0.88600	99.98
0.90267	99.98
0.91933	99.98
0.93600	99.98
0.95267	99.98
0.96933	99.98
0.98600	99.98
1.00267	99.98
1.01933	99.98
1.03600	99.98
1.05267	99.98
1.06933	99.98
1.08600	99.98
1.10267	99.98
1.11933	99.98
1.13600	99.98
1.15267	99.98
1.16933	99.98
1.18600	99.98
1.20267	99.98
1.21933	99.98
1.23600	99.98
1.25267	99.98
1.26933	99.98
1.28600	99.98
1.30267	99.98
1.31933	99.98
1.33600	99.98
1.35267	99.98
1.36933	99.98
1.38600	99.98
1.40267	99.99
1.41933	99.99
1.43600	99.98
1.45267	99.98
1.46933	99.98
1.48600	99.99
1.50267	99.99
1.51933	99.98
1.53600	99.98
1.55267	99.99
1.56933	99.98
1.58600	99.99
1.60267	99.99
1.61933	99.99
1.63600	99.98
1.65267	99.99
1.66933	99.99
1.68600	99.99
1.70267	99.99
1.71933	99.99
1.73600	99.99
1.75267	99.99
1.76933	99.99
1.78600	99.99
1.80267	99.99
1.81933	99.99
1.83600	99.99
1.85267	99.99
1.86933	99.98
1.88600	99.98
1.90267	99.98
1.91933	99.98
1.93600	99.98
1.95267	99.98
1.96933	99.98
1.98600	99.98
2.00267	99.98
2.01933	99.98
2.03600	99.98
2.05267	99.97
2.06933	99.97
2.08600	99.97
2.10267	99.97
2.11933	99.97
2.13600	99.97
2.15267	99.97
2.16933	99.97
2.18600	99.96
2.20267	99.96
2.21933	99.96
2.23600	99.96
2.25267	99.96
2.26933	99.96
2.28600	99.96
2.30267	99.96
2.31933	99.96
2.33600	99.96
2.35267	99.96
2.36933	99.96
2.38600	99.95
2.40267	99.96
2.41933	99.96
2.43600	99.96
2.45267	99.96
2.46933	99.96
2.48600	99.96
2.50267	99.95
2.51933	99.96
2.53600	99.96
2.55267	99.96
2.56933	99.96
2.58600	99.96
2.60267	99.97
2.61933	99.97
2.63600	99.97
2.65267	99.97
2.66933	99.97
2.68600	99.97
2.70267	99.97
2.71933	99.98
2.73600	99.97
2.75267	99.98
2.76933	99.98
2.78600	99.98
2.80267	99.98
2.81933	99.98
2.83600	99.99
2.85267	99.99
2.86933	99.99
2.88600	99.99
2.90267	100.00
2.91933	100.00
2.93600	100.00
2.95267	100.00
2.96933	100.00
2.98600	100.00
3.00267	100.01
3.01933	100.01
3.03600	100.01
3.05267	100.01
3.06933	100.01
3.08600	100.02
3.10267	100.01
3.11933	100.01
3.13600	100.01
3.15267	100.02
3.16933	100.02
3.18600	100.02
3.20267	100.02
3.21933	100.02
3.23600	100.02
3.25267	100.02
3.26933	100.02
3.28600	100.02
3.30267	100.02
3.31933	100.02
3.33600	100.03
3.35267	100.03
3.36933	100.03
3.38600	100.02
3.40267	100.03
3.41933	100.03
3.43600	100.03
3.45267	100.03
3.46933	100.03
3.48600	100.03
3.50267	100.03
3.51933	100.03
3.53600	100.03
3.55267	100.03
3.56933	100.04
3.58600	100.04
3.60267	100.04
3.61933	100.04
3.63600	100.04
3.65267	100.04
3.66933	100.04
3.68600	100.04
3.70267	100.04
3.71933	100.05
3.73600	100.04
3.75267	100.04
3.76933	100.04
3.78600	100.05
3.80267	100.05
3.81933	100.05
3.83600	100.05
3.85267	100.05
3.86933	100.05
3.88600	100.05
3.90267	100.05
3.91933	100.05
3.93600	100.05
3.95267	100.05
3.96933	100.05
3.98600	100.05

[Status Trace (Carrier Gas Pressure)]
Interval(msec)	1000
# of Points	240
Start Time(min)	0.003
End Time(min)	3.986
Intensity Units	
Intensity Multiplier	1
R.Time (min)	Intensity
0.00267	58.00
0.01933	56.29
0.03600	56.31
0.05267	58.60
0.06933	59.89
0.08600	58.31
0.10267	57.97
0.11933	58.00
0.13600	58.01
0.15267	58.01
0.16933	58.00
0.18600	58.00
0.20267	58.00
0.21933	58.00
0.23600	58.00
0.25267	58.00
0.26933	58.00
0.28600	58.00
0.30267	58.00
0.31933	58.00
0.33600	58.00
0.35267	58.00
0.36933	58.00
0.38600	58.00
0.40267	58.00
0.41933	58.00
0.43600	58.00
0.45267	58.00
0.46933	58.00
0.48600	58.00
0.50267	58.00
0.51933	58.00
0.53600	58.00
0.55267	58.00
0.56933	58.00
0.58600	58.00
0.60267	58.00
0.61933	58.00
0.63600	58.00
0.65267	58.00
0.66933	58.00
0.68600	58.00
0.70267	58.00
0.71933	58.00
0.73600	58.00
0.75267	58.00
0.76933	58.00
0.78600	58.00
0.80267	58.00
0.81933	58.00
0.83600	58.00
0.85267	58.00
0.86933	58.00
0.88600	58.00
0.90267	58.00
0.91933	58.00
0.93600	58.00
0.95267	58.00
0.96933	58.00
0.98600	58.00
1.00267	58.00
1.01933	58.00
1.03600	58.00
1.05267	58.00
1.06933	58.00
1.08600	58.00
1.10267	58.00
1.11933	58.00
1.13600	58.00
1.15267	58.00
1.16933	58.00
1.18600	58.00
1.20267	58.00
1.21933	58.00
1.23600	58.00
1.25267	58.00
1.26933	58.00
1.28600	58.00
1.30267	58.00
1.31933	58.00
1.33600	58.00
1.35267	58.00
1.36933	58.00
1.38600	58.00
1.40267	58.00
1.41933	58.00
1.43600	58.00
1.45267	58.00
1.46933	58.00
1.48600	58.00
1.50267	58.00
1.51933	58.00
1.53600	58.00
1.55267	58.00
1.56933	58.00
1.58600	58.00
1.60267	58.00
1.61933	58.00
1.63600	58.00
1.65267	58.00
1.66933	58.01
1.68600	58.01
1.70267	58.00
1.71933	58.00
1.73600	58.00
1.75267	58.00
1.76933	58.00
1.78600	58.00
1.80267	58.00
1.81933	58.00
1.83600	58.00
1.85267	58.00
1.86933	58.00
1.88600	58.00
1.90267	58.00
1.91933	58.00
1.93600	58.00
1.95267	58.00
1.96933	58.00
1.98600	58.00
2.00267	58.00
2.01933	58.00
2.03600	58.00
2.05267	58.00
2.06933	58.00
2.08600	58.00
2.10267	58.00
2.11933	58.00
2.13600	58.00
2.15267	58.00
2.16933	58.00
2.18600	58.00
2.20267	58.00
2.21933	58.00
2.23600	58.00
2.25267	58.00
2.26933	58.00
2.28600	58.00
2.30267	58.00
2.31933	58.00
2.33600	58.00
2.35267	58.00
2.36933	58.00
2.38600	57.99
2.40267	57.99
2.41933	58.00
2.43600	58.00
2.45267	58.00
2.46933	58.00
2.48600	58.00
2.50267	57.96
2.51933	58.02
2.53600	57.99
2.55267	58.00
2.56933	58.00
2.58600	58.00
2.60267	58.00
2.61933	58.00
2.63600	58.00
2.65267	58.00
2.66933	58.00
2.68600	58.00
2.70267	58.00
2.71933	58.00
2.73600	58.00
2.75267	58.00
2.76933	58.00
2.78600	58.00
2.80267	58.00
2.81933	58.00
2.83600	58.00
2.85267	58.00
2.86933	58.00
2.88600	58.00
2.90267	58.00
2.91933	58.00
2.93600	58.00
2.95267	58.00
2.96933	58.00
2.98600	58.00
3.00267	58.00
3.01933	58.00
3.03600	58.00
3.05267	58.00
3.06933	58.00
3.08600	58.00
3.10267	58.00
3.11933	58.00
3.13600	58.00
3.15267	58.00
3.16933	58.00
3.18600	58.00
3.20267	58.00
3.21933	58.00
3.23600	58.00
3.25267	58.00
3.26933	58.00
3.28600	58.00
3.30267	58.00
3.31933	58.00
3.33600	58.00
3.35267	58.00
3.36933	58.00
3.38600	58.00
3.40267	58.00
3.41933	58.00
3.43600	58.00
3.45267	58.00
3.46933	58.00
3.48600	58.00
3.50267	58.00
3.51933	58.00
3.53600	58.00
3.55267	58.00
3.56933	58.00
3.58600	58.00
3.60267	58.00
3.61933	58.00
3.63600	58.00
3.65267	58.00
3.66933	58.00
3.68600	58.00
3.70267	58.00
3.71933	58.00
3.73600	58.00
3.75267	58.00
3.76933	58.00
3.78600	58.00
3.80267	58.00
3.81933	58.00
3.83600	58.00
3.85267	58.00
3.86933	58.00
3.88600	58.00
3.90267	58.00
3.91933	58.00
3.93600	58.00
3.95267	58.00
3.96933	58.00
3.98600	58.00

[Status Trace (Carrier Gas Flow)]
Interval(msec)	1000
# of Points	240
Start Time(min)	0.003
End Time(min)	3.986
Intensity Units	
Intensity Multiplier	1
R.Time (min)	Intensity
0.00267	34.52
0.01933	34.53
0.03600	34.54
0.05267	34.55
0.06933	34.49
0.08600	34.51
0.10267	34.52
0.11933	34.53
0.13600	34.52
0.15267	34.52
0.16933	34.52
0.18600	34.52
0.20267	34.52
0.21933	34.52
0.23600	34.52
0.25267	34.52
0.26933	34.52
0.28600	34.52
0.30267	34.52
0.31933	34.52
0.33600	34.52
0.35267	34.52
0.36933	34.52
0.38600	34.52
0.40267	34.52
0.41933	34.51
0.43600	34.52
0.45267	34.52
0.46933	34.52
0.48600	34.52
0.50267	34.52
0.51933	34.52
0.53600	34.51
0.55267	34.53
0.56933	34.52
0.58600	34.52
0.60267	34.52
0.61933	34.52
0.63600	34.52
0.65267	34.51
0.66933	34.52
0.68600	34.52
0.70267	34.52
0.71933	34.52
0.73600	34.52
0.75267	34.52
0.76933	34.52
0.78600	34.52
0.80267	34.52
0.81933	34.52
0.83600	34.52
0.85267	34.53
0.86933	34.52
0.88600	34.52
0.90267	34.52
0.91933	34.51
0.93600	34.52
0.95267	34.52
0.96933	34.51
0.98600	34.52
1.00267	34.52
1.01933	34.51
1.03600	34.52
1.05267	34.52
1.06933	34.52
1.08600	34.52
1.10267	34.51
1.11933	34.52
1.13600	34.52
1.15267	34.52
1.16933	34.52
1.18600	34.52
1.20267	34.52
1.21933	34.53
1.23600	34.52
1.25267	34.52
1.26933	34.52
1.28600	34.52
1.30267	34.53
1.31933	34.52
1.33600	34.52
1.35267	34.52
1.36933	34.52
1.38600	34.52
1.40267	34.52
1.41933	34.51
1.43600	34.52
1.45267	34.52
1.46933	34.52
1.48600	34.51
1.50267	34.52
1.51933	34.52
1.53600	34.51
1.55267	34.52
1.56933	34.52
1.58600	34.52
1.60267	34.52
1.61933	34.52
1.63600	34.52
1.65267	34.51
1.66933	34.52
1.68600	34.52
1.70267	34.52
1.71933	34.51
1.73600	34.52
1.75267	34.52
1.76933	34.52
1.78600	34.51
1.80267	34.52
1.81933	34.51
1.83600	34.52
1.85267	34.52
1.86933	34.51
1.88600	34.51
1.90267	34.52
1.91933	34.52
1.93600	34.51
1.95267	34.51
1.96933	34.51
1.98600	34.52
2.00267	34.52
2.01933	34.52
2.03600	34.52
2.05267	34.52
2.06933	34.52
2.08600	34.51
2.10267	34.52
2.11933	34.52
2.13600	34.52
2.15267	34.52
2.16933	34.52
2.18600	34.52
2.20267	34.52
2.21933	34.51
2.23600	34.52
2.25267	34.52
2.26933	34.52
2.28600	34.52
2.30267	34.52
2.31933	34.52
2.33600	34.52
2.35267	34.52
2.36933	34.52
2.38600	34.52
2.40267	34.53
2.41933	34.52
2.43600	34.52
2.45267	34.51
2.46933	34.52
2.48600	34.52
2.50267	34.64
2.51933	34.52
2.53600	34.52
2.55267	34.52
2.56933	34.52
2.58600	34.52
2.60267	34.52
2.61933	34.51
2.63600	34.52
2.65267	34.52
2.66933	34.52
2.68600	34.52
2.70267	34.52
2.71933	34.51
2.73600	34.52
2.75267	34.52
2.76933	34.52
2.78600	34.52
2.80267	34.53
2.81933	34.52
2.83600	34.51
2.85267	34.52
2.86933	34.52
2.88600	34.51
2.90267	34.52
2.91933	34.52
2.93600	34.52
2.95267	34.52
2.96933	34.51
2.98600	34.53
3.00267	34.52
3.01933	34.52
3.03600	34.53
3.05267	34.51
3.06933	34.52
3.08600	34.52
3.10267	34.52
3.11933	34.52
3.13600	34.52
3.15267	34.53
3.16933	34.52
3.18600	34.52
3.20267	34.52
3.21933	34.53
3.23600	34.51
3.25267	34.52
3.26933	34.52
3.28600	34.52
3.30267	34.52
3.31933	34.52
3.33600	34.52
3.35267	34.51
3.36933	34.52
3.38600	34.52
3.40267	34.52
3.41933	34.52
3.43600	34.52
3.45267	34.52
3.46933	34.52
3.48600	34.51
3.50267	34.52
3.51933	34.51
3.53600	34.52
3.55267	34.52
3.56933	34.52
3.58600	34.51
3.60267	34.52
3.61933	34.52
3.63600	34.51
3.65267	34.52
3.66933	34.52
3.68600	34.51
3.70267	34.52
3.71933	34.53
3.73600	34.52
3.75267	34.51
3.76933	34.52
3.78600	34.52
3.80267	34.53
3.81933	34.52
3.83600	34.52
3.85267	34.52
3.86933	34.52
3.88600	34.52
3.90267	34.52
3.91933	34.52
3.93600	34.52
3.95267	34.52
3.96933	34.52
3.98600	34.52

[Status Trace (Column Flow)]
Interval(msec)	1000
# of Points	240
Start Time(min)	0.003
End Time(min)	3.986
Intensity Units	
Intensity Multiplier	1
R.Time (min)	Intensity
0.00267	5.51
0.01933	5.32
0.03600	5.32
0.05267	5.58
0.06933	5.74
0.08600	5.55
0.10267	5.51
0.11933	5.51
0.13600	5.51
0.15267	5.51
0.16933	5.51
0.18600	5.51
0.20267	5.51
0.21933	5.51
0.23600	5.51
0.25267	5.51
0.26933	5.51
0.28600	5.51
0.30267	5.51
0.31933	5.51
0.33600	5.51
0.35267	5.51
0.36933	5.51
0.38600	5.51
0.40267	5.51
0.41933	5.51
0.43600	5.51
0.45267	5.51
0.46933	5.51
0.48600	5.51
0.50267	5.51
0.51933	5.51
0.53600	5.51
0.55267	5.51
0.56933	5.51
0.58600	5.52
0.60267	5.52
0.61933	5.52
0.63600	5.52
0.65267	5.52
0.66933	5.51
0.68600	5.51
0.70267	5.51
0.71933	5.52
0.73600	5.52
0.75267	5.52
0.76933	5.52
0.78600	5.52
0.80267	5.52
0.81933	5.51
0.83600	5.51
0.85267	5.51
0.86933	5.51
0.88600	5.51
0.90267	5.51
0.91933	5.51
0.93600	5.51
0.95267	5.51
0.96933	5.52
0.98600	5.52
1.00267	5.51
1.01933	5.52
1.03600	5.52
1.05267	5.51
1.06933	5.51
1.08600	5.51
1.10267	5.51
1.11933	5.51
1.13600	5.51
1.15267	5.51
1.16933	5.51
1.18600	5.51
1.20267	5.51
1.21933	5.51
1.23600	5.51
1.25267	5.51
1.26933	5.51
1.28600	5.51
1.30267	5.51
1.31933	5.51
1.33600	5.51
1.35267	5.51
1.36933	5.51
1.38600	5.51
1.40267	5.51
1.41933	5.51
1.43600	5.51
1.45267	5.52
1.46933	5.51
1.48600	5.51
1.50267	5.51
1.51933	5.51
1.53600	5.51
1.55267	5.51
1.56933	5.51
1.58600	5.51
1.60267	5.51
1.61933	5.51
1.63600	5.50
1.65267	5.50
1.66933	5.49
1.68600	5.48
1.70267	5.46
1.71933	5.46
1.73600	5.44
1.75267	5.43
1.76933	5.43
1.78600	5.41
1.80267	5.40
1.81933	5.39
1.83600	5.38
1.85267	5.37
1.86933	5.36
1.88600	5.35
1.90267	5.34
1.91933	5.33
1.93600	5.32
1.95267	5.31
1.96933	5.31
1.98600	5.29
2.00267	5.29
2.01933	5.28
2.03600	5.27
2.05267	5.26
2.06933	5.25
2.08600	5.24
2.10267	5.23
2.11933	5.22
2.13600	5.21
2.15267	5.20
2.16933	5.19
2.18600	5.18
2.20267	5.17
2.21933	5.16
2.23600	5.15
2.25267	5.14
2.26933	5.13
2.28600	5.12
2.30267	5.11
2.31933	5.11
2.33600	5.10
2.35267	5.09
2.36933	5.08
2.38600	5.08
2.40267	5.08
2.41933	5.08
2.43600	5.08
2.45267	5.08
2.46933	5.08
2.48600	5.08
2.50267	5.08
2.51933	5.08
2.53600	5.08
2.55267	5.08
2.56933	5.08
2.58600	5.08
2.60267	5.08
2.61933	5.08
2.63600	5.08
2.65267	5.08
2.66933	5.08
2.68600	5.08
2.70267	5.08
2.71933	5.08
2.73600	5.08
2.75267	5.08
2.76933	5.08
2.78600	5.08
2.80267	5.08
2.81933	5.08
2.83600	5.07
2.85267	5.07
2.86933	5.07
2.88600	5.07
2.90267	5.07
2.91933	5.07
2.93600	5.07
2.95267	5.07
2.96933	5.07
2.98600	5.07
3.00267	5.07
3.01933	5.07
3.03600	5.07
3.05267	5.07
3.06933	5.07
3.08600	5.07
3.10267	5.07
3.11933	5.07
3.13600	5.07
3.15267	5.07
3.16933	5.07
3.18600	5.07
3.20267	5.07
3.21933	5.07
3.23600	5.07
3.25267	5.07
3.26933	5.07
3.28600	5.07
3.30267	5.07
3.31933	5.07
3.33600	5.07
3.35267	5.07
3.36933	5.07
3.38600	5.07
3.40267	5.07
3.41933	5.07
3.43600	5.07
3.45267	5.07
3.46933	5.07
3.48600	5.07
3.50267	5.07
3.51933	5.07
3.53600	5.07
3.55267	5.07
3.56933	5.07
3.58600	5.07
3.60267	5.07
3.61933	5.07
3.63600	5.07
3.65267	5.07
3.66933	5.07
3.68600	5.07
3.70267	5.07
3.71933	5.07
3.73600	5.07
3.75267	5.07
3.76933	5.07
3.78600	5.07
3.80267	5.07
3.81933	5.07
3.83600	5.07
3.85267	5.07
3.86933	5.07
3.88600	5.07
3.90267	5.07
3.91933	5.07
3.93600	5.07
3.95267	5.07
3.96933	5.07
3.98600	5.07

[Status Trace (Linear Velocity)]
Interval(msec)	1000
# of Points	240
Start Time(min)	0.003
End Time(min)	3.986
Intensity Units	
Intensity Multiplier	1
R.Time (min)	Intensity
0.00267	39.01
0.01933	37.89
0.03600	37.90
0.05267	39.41
0.06933	40.25
0.08600	39.22
0.10267	38.99
0.11933	39.01
0.13600	39.02
0.15267	39.02
0.16933	39.02
0.18600	39.02
0.20267	39.01
0.21933	39.01
0.23600	39.01
0.25267	39.01
0.26933	39.01
0.28600	39.01
0.30267	39.01
0.31933	39.01
0.33600	39.01
0.35267	39.01
0.36933	39.01
0.38600	39.02
0.40267	39.02
0.41933	39.02
0.43600	39.01
0.45267	39.01
0.46933	39.01
0.48600	39.01
0.50267	39.01
0.51933	39.02
0.53600	39.02
0.55267	39.02
0.56933	39.02
0.58600	39.02
0.60267	39.02
0.61933	39.02
0.63600	39.02
0.65267	39.02
0.66933	39.02
0.68600	39.02
0.70267	39.02
0.71933	39.02
0.73600	39.02
0.75267	39.02
0.76933	39.02
0.78600	39.02
0.80267	39.02
0.81933	39.02
0.83600	39.02
0.85267	39.02
0.86933	39.02
0.88600	39.02
0.90267	39.02
0.91933	39.02
0.93600	39.02
0.95267	39.02
0.96933	39.02
0.98600	39.02
1.00267	39.02
1.01933	39.02
1.03600	39.02
1.05267	39.02
1.06933	39.02
1.08600	39.02
1.10267	39.02
1.11933	39.01
1.13600	39.02
1.15267	39.02
1.16933	39.02
1.18600	39.02
1.20267	39.02
1.21933	39.01
1.23600	39.01
1.25267	39.02
1.26933	39.02
1.28600	39.02
1.30267	39.02
1.31933	39.02
1.33600	39.02
1.35267	39.01
1.36933	39.02
1.38600	39.02
1.40267	39.02
1.41933	39.02
1.43600	39.02
1.45267	39.02
1.46933	39.02
1.48600	39.02
1.50267	39.02
1.51933	39.01
1.53600	39.01
1.55267	39.02
1.56933	39.01
1.58600	39.01
1.60267	39.01
1.61933	39.00
1.63600	38.99
1.65267	38.97
1.66933	38.94
1.68600	38.90
1.70267	38.86
1.71933	38.83
1.73600	38.80
1.75267	38.77
1.76933	38.74
1.78600	38.71
1.80267	38.68
1.81933	38.65
1.83600	38.61
1.85267	38.58
1.86933	38.55
1.88600	38.52
1.90267	38.49
1.91933	38.46
1.93600	38.43
1.95267	38.40
1.96933	38.37
1.98600	38.33
2.00267	38.31
2.01933	38.28
2.03600	38.24
2.05267	38.21
2.06933	38.19
2.08600	38.16
2.10267	38.13
2.11933	38.10
2.13600	38.06
2.15267	38.04
2.16933	38.01
2.18600	37.98
2.20267	37.95
2.21933	37.92
2.23600	37.89
2.25267	37.86
2.26933	37.83
2.28600	37.80
2.30267	37.77
2.31933	37.74
2.33600	37.71
2.35267	37.68
2.36933	37.67
2.38600	37.66
2.40267	37.66
2.41933	37.66
2.43600	37.66
2.45267	37.66
2.46933	37.66
2.48600	37.66
2.50267	37.64
2.51933	37.67
2.53600	37.65
2.55267	37.65
2.56933	37.65
2.58600	37.65
2.60267	37.65
2.61933	37.65
2.63600	37.65
2.65267	37.65
2.66933	37.65
2.68600	37.64
2.70267	37.64
2.71933	37.64
2.73600	37.64
2.75267	37.64
2.76933	37.64
2.78600	37.64
2.80267	37.64
2.81933	37.64
2.83600	37.64
2.85267	37.64
2.86933	37.64
2.88600	37.64
2.90267	37.64
2.91933	37.64
2.93600	37.64
2.95267	37.64
2.96933	37.64
2.98600	37.63
3.00267	37.63
3.01933	37.63
3.03600	37.63
3.05267	37.63
3.06933	37.63
3.08600	37.63
3.10267	37.63
3.11933	37.63
3.13600	37.63
3.15267	37.63
3.16933	37.63
3.18600	37.63
3.20267	37.62
3.21933	37.62
3.23600	37.62
3.25267	37.62
3.26933	37.62
3.28600	37.62
3.30267	37.62
3.31933	37.62
3.33600	37.62
3.35267	37.62
3.36933	37.62
3.38600	37.62
3.40267	37.62
3.41933	37.62
3.43600	37.62
3.45267	37.62
3.46933	37.62
3.48600	37.62
3.50267	37.62
3.51933	37.62
3.53600	37.62
3.55267	37.62
3.56933	37.62
3.58600	37.62
3.60267	37.62
3.61933	37.62
3.63600	37.62
3.65267	37.62
3.66933	37.62
3.68600	37.62
3.70267	37.62
3.71933	37.62
3.73600	37.62
3.75267	37.62
3.76933	37.62
3.78600	37.62
3.80267	37.63
3.81933	37.63
3.83600	37.63
3.85267	37.63
3.86933	37.63
3.88600	37.63
3.90267	37.63
3.91933	37.63
3.93600	37.63
3.95267	37.63
3.96933	37.63
3.98600	37.63

