[Header]
Application Name	LabSolutions
Version	5.110
Data File Name	C:\Users\User\Desktop\Junior\UIC Prairie Sampling\2023\8.18.23\081823_062.gcd
Output Date	8/31/2023
Output Time	12:48:11 PM

[File Information]
Type	Data File
Generated	8/30/2023 10:45:38 PM
Generated by	System Administrator
Modified	8/30/2023 10:52:03 PM
Modified by	System Administrator

[Sample Information]
Operator Name	System Administrator
Acquired	8/30/2023 10:48:03 PM
Sample Type	0:Unknown
Level	0
Sample Name	062
Sample ID	062
ISTD Amount1	1
ISTD Amount2	1
ISTD Amount3	1
ISTD Amount4	1
ISTD Amount5	1
ISTD Amount6	1
ISTD Amount7	1
ISTD Amount8	1
ISTD Amount9	1
ISTD Amount10	1
ISTD Amount11	1
ISTD Amount12	1
ISTD Amount13	1
ISTD Amount14	1
ISTD Amount15	1
ISTD Amount16	1
ISTD Amount17	1
ISTD Amount18	1
ISTD Amount19	1
ISTD Amount20	1
ISTD Amount21	1
ISTD Amount22	1
ISTD Amount23	1
ISTD Amount24	1
ISTD Amount25	1
ISTD Amount26	1
ISTD Amount27	1
ISTD Amount28	1
ISTD Amount29	1
ISTD Amount30	1
ISTD Amount31	1
ISTD Amount32	1
Sample Amount	1
Dilution Factor	1
Vial#	61
Injection Volume	1
Injection Count	1
Bar Code	

[Original Files]
Data File	C:\Users\User\Desktop\Junior\UIC Prairie Sampling\8.18.23\081823_062.gcd
Method File	C:\LabSolutions\Data\GHG_4min_2022\ghg3_togas_w_acet_4 min_new_int.gcm
Batch File	C:\LabSolutions\Data\BATCH FILES\081823.gcb
Report Format File	c:\LabSolutions\System\DEFAULT.lsr

[File Description]


[Configuration]
Instrument Name	C0B7VH3-Instrument1
Instrument #	1
Line #	1
# of Detectors	3
Detector ID	DET#1	DET#2	DET#3
Detector Name	FID	PTCD	ECD
# of Channels	1	1	1

[Peak Table(Ch1)]
# of Peaks	3
Peak#	R.Time	I.Time	F.Time	Area	Height	A/H	Conc.	Mark	ID#	Name	k'	Plate #	Plate Ht.	Tailing	Resolution	Sep.Factor	Area Ratio	Height Ratio	Conc. %	Norm Conc.
1	1.498	1.468	1.527	1044	368	2.837	0.000	   	1	CO	0.000	549	273.348	0.000	0.000	0.000	0	0	0.000	0.000
2	1.564	1.527	1.688	5936	2440	2.432	28.940	 V 	2	CH4	0.044	9389	15.976	0.000	0.412	0.000	0	0	15.182	15.182
3	1.989	1.941	2.499	838936	399816	2.098	161.678	   	3	CO2	0.328	17563	8.541	1.313	6.828	7.444	0	0	84.818	84.818

[Peak Table(Ch2)]
# of Peaks	0

[Peak Table(Ch3)]
# of Peaks	5
Peak#	R.Time	I.Time	F.Time	Area	Height	A/H	Conc.	Mark	ID#	Name	k'	Plate #	Plate Ht.	Tailing	Resolution	Sep.Factor	Area Ratio	Height Ratio	Conc. %	Norm Conc.
1	2.458	2.440	2.510	823	304	2.707	0.000	   			0.000	12878	11.647	0.000	0.000	0.000	0	0	0.000	0.000
2	2.528	2.510	2.572	359	138	2.600	0.000	 V 			0.028	4061	36.939	0.000	0.568	0.000	0	0	0.000	0.000
3	2.631	2.572	2.708	442	106	4.167	0.000	 V 			0.070	8036	18.666	0.000	0.744	2.474	0	0	0.000	0.000
4	2.891	2.755	3.041	14710	3997	3.680	0.218	   	1	N2O	0.176	13924	10.773	1.499	2.417	2.511	0	0	100.000	100.000
5	3.129	3.052	3.932	22799	887	25.694	0.000	   	2	SF6	0.273	406	369.072	5.820	0.663	1.551	0	0	0.000	0.000

[Compound Results(Ch1)]
# of IDs	6
ID#	Name	R.Time	Area	Height	Conc.	Curve	3rd	2nd	1st	Constant	Area Ratio	Height Ratio	Conc. %	Norm Conc.
1	CO	1.498	1044	368	0.000	Linear	0.000000e+00	0.000000e+00	0.000000e+00	0.000000e+00	0	0	0.000	0.000
2	CH4	1.564	5936	2440	28.940	Linear	0.000000e+00	0.000000e+00	2.051179e+002	0.000000e+00	0	0	15.182	15.182
3	CO2	1.989	838936	399816	161.678	Linear	0.000000e+00	0.000000e+00	5.188919e+003	0.000000e+00	0	0	84.818	84.818
4	Ethylene	0.000	0	0	0.000	Linear	0.000000e+00	0.000000e+00	0.000000e+00	0.000000e+00	0	0	0.000	0.000
5	Acetylene	0.000	0	0	0.000	Linear	0.000000e+00	0.000000e+00	0.000000e+00	0.000000e+00	0	0	0.000	0.000
6	Ethane	0.000	0	0	0.000	Linear	0.000000e+00	0.000000e+00	0.000000e+00	0.000000e+00	0	0	0.000	0.000

[Compound Results(Ch2)]
# of IDs	5
ID#	Name	R.Time	Area	Height	Conc.	Curve	3rd	2nd	1st	Constant	Area Ratio	Height Ratio	Conc. %	Norm Conc.
1	Hydrogen	0.000	0	0	0.000	Linear	0.000000e+00	0.000000e+00	0.000000e+00	0.000000e+00	0	0	0.000	0.000
2	Oxygen	0.000	0	0	0.000	Linear	0.000000e+00	0.000000e+00	0.000000e+00	0.000000e+00	0	0	0.000	0.000
3	Nitrogen	0.000	0	0	0.000	Linear	0.000000e+00	0.000000e+00	0.000000e+00	0.000000e+00	0	0	0.000	0.000
4	Methane	0.000	0	0	0.000	Linear	0.000000e+00	0.000000e+00	0.000000e+00	0.000000e+00	0	0	0.000	0.000
5	Carbon Monoxide	0.000	0	0	0.000	Linear	0.000000e+00	0.000000e+00	0.000000e+00	0.000000e+00	0	0	0.000	0.000

[Compound Results(Ch3)]
# of IDs	2
ID#	Name	R.Time	Area	Height	Conc.	Curve	3rd	2nd	1st	Constant	Area Ratio	Height Ratio	Conc. %	Norm Conc.
1	N2O	2.891	14710	3997	0.218	Linear	0.000000e+00	0.000000e+00	6.759880e+004	0.000000e+00	0	0	100.000	100.000
2	SF6	3.129	22799	887	0.000	Linear	0.000000e+00	0.000000e+00	0.000000e+00	0.000000e+00	0	0	0.000	0.000

[Group Results(Ch1)]
# of Groups	0

[Group Results(Ch2)]
# of Groups	0

[Group Results(Ch3)]
# of Groups	0

[Chromatogram (Ch1)]
Interval(msec)	220
# of Points	1091
Start Time(min)	0.002
End Time(min)	3.998
R.Time (min)	Intensity
0.00167	15
0.00533	19
0.00900	20
0.01267	17
0.01633	13
0.02000	7
0.02367	3
0.02733	2
0.03100	7
0.03467	17
0.03833	26
0.04200	30
0.04567	28
0.04933	25
0.05300	22
0.05667	18
0.06033	13
0.06400	8
0.06767	-0
0.07133	-8
0.07500	-15
0.07867	-19
0.08233	-20
0.08600	-14
0.08967	-5
0.09333	5
0.09700	13
0.10067	17
0.10433	19
0.10800	17
0.11167	13
0.11533	7
0.11900	2
0.12267	-1
0.12633	-1
0.13000	-0
0.13367	1
0.13733	1
0.14100	1
0.14467	2
0.14833	4
0.15200	7
0.15567	7
0.15933	2
0.16300	-3
0.16667	-6
0.17033	-7
0.17400	-5
0.17767	-2
0.18133	-0
0.18500	-3
0.18867	-6
0.19233	-8
0.19600	-9
0.19967	-11
0.20333	-14
0.20700	-11
0.21067	-4
0.21433	5
0.21800	11
0.22167	16
0.22533	17
0.22900	15
0.23267	15
0.23633	16
0.24000	16
0.24367	14
0.24733	11
0.25100	8
0.25467	7
0.25833	9
0.26200	12
0.26567	14
0.26933	13
0.27300	10
0.27667	7
0.28033	4
0.28400	3
0.28767	2
0.29133	1
0.29500	1
0.29867	0
0.30233	-1
0.30600	-2
0.30967	-0
0.31333	0
0.31700	-0
0.32067	2
0.32433	5
0.32800	5
0.33167	3
0.33533	3
0.33900	6
0.34267	8
0.34633	10
0.35000	12
0.35367	11
0.35733	7
0.36100	5
0.36467	5
0.36833	6
0.37200	5
0.37567	5
0.37933	4
0.38300	3
0.38667	1
0.39033	-2
0.39400	-6
0.39767	-8
0.40133	-6
0.40500	1
0.40867	9
0.41233	14
0.41600	20
0.41967	27
0.42333	33
0.42700	38
0.43067	41
0.43433	42
0.43800	44
0.44167	45
0.44533	42
0.44900	38
0.45267	36
0.45633	35
0.46000	33
0.46367	32
0.46733	29
0.47100	24
0.47467	21
0.47833	24
0.48200	30
0.48567	37
0.48933	44
0.49300	49
0.49667	54
0.50033	60
0.50400	65
0.50767	67
0.51133	67
0.51500	67
0.51867	67
0.52233	68
0.52600	71
0.52967	73
0.53333	75
0.53700	76
0.54067	74
0.54433	74
0.54800	73
0.55167	70
0.55533	64
0.55900	57
0.56267	51
0.56633	47
0.57000	47
0.57367	48
0.57733	48
0.58100	47
0.58467	43
0.58833	37
0.59200	31
0.59567	27
0.59933	27
0.60300	27
0.60667	28
0.61033	32
0.61400	36
0.61767	37
0.62133	37
0.62500	39
0.62867	37
0.63233	28
0.63600	18
0.63967	11
0.64333	6
0.64700	0
0.65067	-9
0.65433	-15
0.65800	-16
0.66167	-15
0.66533	-13
0.66900	-12
0.67267	-12
0.67633	-11
0.68000	-6
0.68367	-0
0.68733	1
0.69100	-2
0.69467	-7
0.69833	-12
0.70200	-12
0.70567	-12
0.70933	-13
0.71300	-13
0.71667	-14
0.72033	-15
0.72400	-15
0.72767	-15
0.73133	-14
0.73500	-15
0.73867	-16
0.74233	-16
0.74600	-14
0.74967	-14
0.75333	-15
0.75700	-19
0.76067	-24
0.76433	-27
0.76800	-28
0.77167	-28
0.77533	-28
0.77900	-28
0.78267	-23
0.78633	-17
0.79000	-11
0.79367	-10
0.79733	-18
0.80100	-28
0.80467	-34
0.80833	-33
0.81200	-29
0.81567	-25
0.81933	-20
0.82300	-16
0.82667	-12
0.83033	-9
0.83400	-9
0.83767	-11
0.84133	-13
0.84500	-17
0.84867	-19
0.85233	-18
0.85600	-15
0.85967	-15
0.86333	-19
0.86700	-25
0.87067	-28
0.87433	-28
0.87800	-28
0.88167	-24
0.88533	-19
0.88900	-18
0.89267	-22
0.89633	-25
0.90000	-27
0.90367	-29
0.90733	-32
0.91100	-35
0.91467	-39
0.91833	-38
0.92200	-33
0.92567	-24
0.92933	-17
0.93300	-15
0.93667	-16
0.94033	-16
0.94400	-16
0.94767	-16
0.95133	-18
0.95500	-20
0.95867	-21
0.96233	-25
0.96600	-29
0.96967	-34
0.97333	-36
0.97700	-34
0.98067	-32
0.98433	-33
0.98800	-29
0.99167	-21
0.99533	-10
0.99900	-2
1.00267	-1
1.00633	-4
1.01000	-7
1.01367	-9
1.01733	-11
1.02100	-14
1.02467	-14
1.02833	-12
1.03200	-13
1.03567	-17
1.03933	-21
1.04300	-21
1.04667	-21
1.05033	-21
1.05400	-23
1.05767	-26
1.06133	-27
1.06500	-27
1.06867	-27
1.07233	-24
1.07600	-21
1.07967	-17
1.08333	-16
1.08700	-16
1.09067	-16
1.09433	-15
1.09800	-11
1.10167	-7
1.10533	-7
1.10900	-7
1.11267	-8
1.11633	-10
1.12000	-13
1.12367	-18
1.12733	-24
1.13100	-29
1.13467	-32
1.13833	-33
1.14200	-35
1.14567	-37
1.14933	-38
1.15300	-37
1.15667	-35
1.16033	-32
1.16400	-27
1.16767	-20
1.17133	-13
1.17500	-10
1.17867	-14
1.18233	-17
1.18600	-18
1.18967	-20
1.19333	-23
1.19700	-25
1.20067	-26
1.20433	-26
1.20800	-25
1.21167	-21
1.21533	-15
1.21900	-11
1.22267	-12
1.22633	-14
1.23000	-17
1.23367	-22
1.23733	-27
1.24100	-32
1.24467	-36
1.24833	-38
1.25200	-37
1.25567	-36
1.25933	-34
1.26300	-31
1.26667	-31
1.27033	-32
1.27400	-32
1.27767	-28
1.28133	-18
1.28500	-3
1.28867	9
1.29233	15
1.29600	14
1.29967	9
1.30333	-0
1.30700	-9
1.31067	-14
1.31433	-18
1.31800	-22
1.32167	-27
1.32533	-33
1.32900	-35
1.33267	-34
1.33633	-34
1.34000	-35
1.34367	-35
1.34733	-35
1.35100	-34
1.35467	-36
1.35833	-36
1.36200	-35
1.36567	-36
1.36933	-36
1.37300	-36
1.37667	-31
1.38033	-26
1.38400	-20
1.38767	-17
1.39133	-16
1.39500	-17
1.39867	-21
1.40233	-24
1.40600	-26
1.40967	-27
1.41333	-29
1.41700	-30
1.42067	-30
1.42433	-28
1.42800	-26
1.43167	-25
1.43533	-17
1.43900	-9
1.44267	-41
1.44633	-127
1.45000	-237
1.45367	-333
1.45733	-407
1.46100	-452
1.46467	-459
1.46833	-425
1.47200	-354
1.47567	-264
1.47933	-179
1.48300	-110
1.48667	-62
1.49033	-33
1.49400	-18
1.49767	-8
1.50133	-2
1.50500	-1
1.50867	-5
1.51233	-7
1.51600	-5
1.51967	-1
1.52333	-2
1.52700	-4
1.53067	2
1.53433	43
1.53800	180
1.54167	460
1.54533	860
1.54900	1294
1.55267	1681
1.55633	1973
1.56000	2147
1.56367	2176
1.56733	2038
1.57100	1756
1.57467	1399
1.57833	1047
1.58200	745
1.58567	513
1.58933	345
1.59300	228
1.59667	151
1.60033	101
1.60400	66
1.60767	39
1.61133	19
1.61500	6
1.61867	-6
1.62233	-17
1.62600	-26
1.62967	-33
1.63333	-36
1.63700	-34
1.64067	-32
1.64433	-30
1.64800	-28
1.65167	-28
1.65533	-30
1.65900	-33
1.66267	-36
1.66633	-40
1.67000	-45
1.67367	-48
1.67733	-50
1.68100	-50
1.68467	-52
1.68833	-55
1.69200	-57
1.69567	-55
1.69933	-49
1.70300	-40
1.70667	-35
1.71033	-34
1.71400	-37
1.71767	-44
1.72133	-48
1.72500	-47
1.72867	-45
1.73233	-43
1.73600	-41
1.73967	-37
1.74333	-31
1.74700	-28
1.75067	-26
1.75433	-25
1.75800	-23
1.76167	-26
1.76533	-30
1.76900	-33
1.77267	-38
1.77633	-41
1.78000	-40
1.78367	-40
1.78733	-41
1.79100	-40
1.79467	-39
1.79833	-40
1.80200	-43
1.80567	-46
1.80933	-51
1.81300	-58
1.81667	-65
1.82033	-68
1.82400	-68
1.82767	-64
1.83133	-59
1.83500	-54
1.83867	-52
1.84233	-51
1.84600	-48
1.84967	-47
1.85333	-48
1.85700	-49
1.86067	-48
1.86433	-44
1.86800	-37
1.87167	-30
1.87533	-29
1.87900	-28
1.88267	-27
1.88633	-25
1.89000	-28
1.89367	-35
1.89733	-42
1.90100	-45
1.90467	-45
1.90833	-46
1.91200	-51
1.91567	-56
1.91933	-61
1.92300	-62
1.92667	-59
1.93033	-55
1.93400	-51
1.93767	-48
1.94133	-44
1.94500	-32
1.94867	33
1.95233	395
1.95600	2059
1.95967	7889
1.96333	23422
1.96700	55583
1.97067	108339
1.97433	178151
1.97800	254427
1.98167	324047
1.98533	375226
1.98900	399792
1.99267	394564
1.99633	362110
2.00000	310406
2.00367	250299
2.00733	191749
2.01100	141188
2.01467	101135
2.01833	71293
2.02200	49987
2.02567	35198
2.02933	25109
2.03300	18279
2.03667	13657
2.04033	10506
2.04400	8332
2.04767	6807
2.05133	5716
2.05500	4913
2.05867	4307
2.06233	3839
2.06600	3467
2.06967	3160
2.07333	2903
2.07700	2687
2.08067	2505
2.08433	2348
2.08800	2208
2.09167	2085
2.09533	1976
2.09900	1884
2.10267	1802
2.10633	1723
2.11000	1646
2.11367	1572
2.11733	1500
2.12100	1432
2.12467	1371
2.12833	1317
2.13200	1270
2.13567	1227
2.13933	1187
2.14300	1149
2.14667	1113
2.15033	1078
2.15400	1046
2.15767	1014
2.16133	981
2.16500	953
2.16867	928
2.17233	903
2.17600	876
2.17967	850
2.18333	824
2.18700	801
2.19067	781
2.19433	765
2.19800	750
2.20167	729
2.20533	703
2.20900	681
2.21267	664
2.21633	652
2.22000	642
2.22367	629
2.22733	613
2.23100	600
2.23467	588
2.23833	575
2.24200	563
2.24567	549
2.24933	534
2.25300	518
2.25667	503
2.26033	489
2.26400	480
2.26767	476
2.27133	474
2.27500	473
2.27867	472
2.28233	469
2.28600	461
2.28967	450
2.29333	438
2.29700	422
2.30067	406
2.30433	396
2.30800	389
2.31167	383
2.31533	375
2.31900	368
2.32267	359
2.32633	351
2.33000	346
2.33367	342
2.33733	339
2.34100	336
2.34467	334
2.34833	331
2.35200	329
2.35567	327
2.35933	325
2.36300	321
2.36667	315
2.37033	308
2.37400	301
2.37767	294
2.38133	288
2.38500	281
2.38867	277
2.39233	275
2.39600	274
2.39967	273
2.40333	273
2.40700	277
2.41067	277
2.41433	273
2.41800	266
2.42167	261
2.42533	257
2.42900	253
2.43267	250
2.43633	248
2.44000	243
2.44367	237
2.44733	234
2.45100	231
2.45467	231
2.45833	228
2.46200	223
2.46567	222
2.46933	223
2.47300	222
2.47667	218
2.48033	215
2.48400	212
2.48767	210
2.49133	208
2.49500	205
2.49867	200
2.50233	194
2.50600	191
2.50967	193
2.51333	197
2.51700	199
2.52067	200
2.52433	201
2.52800	201
2.53167	200
2.53533	196
2.53900	192
2.54267	188
2.54633	185
2.55000	180
2.55367	173
2.55733	169
2.56100	166
2.56467	166
2.56833	168
2.57200	171
2.57567	172
2.57933	175
2.58300	178
2.58667	183
2.59033	188
2.59400	192
2.59767	192
2.60133	191
2.60500	192
2.60867	193
2.61233	190
2.61600	184
2.61967	177
2.62333	172
2.62700	168
2.63067	164
2.63433	158
2.63800	152
2.64167	152
2.64533	152
2.64900	149
2.65267	148
2.65633	149
2.66000	155
2.66367	163
2.66733	169
2.67100	171
2.67467	170
2.67833	164
2.68200	157
2.68567	153
2.68933	150
2.69300	146
2.69667	143
2.70033	142
2.70400	146
2.70767	153
2.71133	159
2.71500	162
2.71867	162
2.72233	161
2.72600	161
2.72967	161
2.73333	162
2.73700	166
2.74067	168
2.74433	168
2.74800	165
2.75167	160
2.75533	153
2.75900	144
2.76267	136
2.76633	132
2.77000	132
2.77367	134
2.77733	136
2.78100	139
2.78467	143
2.78833	144
2.79200	144
2.79567	144
2.79933	143
2.80300	141
2.80667	140
2.81033	137
2.81400	135
2.81767	135
2.82133	139
2.82500	143
2.82867	145
2.83233	145
2.83600	145
2.83967	145
2.84333	146
2.84700	149
2.85067	151
2.85433	150
2.85800	149
2.86167	148
2.86533	152
2.86900	159
2.87267	164
2.87633	165
2.88000	164
2.88367	162
2.88733	160
2.89100	156
2.89467	152
2.89833	149
2.90200	147
2.90567	144
2.90933	146
2.91300	152
2.91667	160
2.92033	166
2.92400	167
2.92767	168
2.93133	168
2.93500	164
2.93867	159
2.94233	157
2.94600	159
2.94967	162
2.95333	166
2.95700	167
2.96067	167
2.96433	164
2.96800	160
2.97167	157
2.97533	157
2.97900	158
2.98267	158
2.98633	156
2.99000	154
2.99367	152
2.99733	153
3.00100	154
3.00467	155
3.00833	155
3.01200	154
3.01567	153
3.01933	154
3.02300	158
3.02667	160
3.03033	160
3.03400	159
3.03767	156
3.04133	149
3.04500	142
3.04867	141
3.05233	143
3.05600	148
3.05967	151
3.06333	154
3.06700	157
3.07067	159
3.07433	160
3.07800	163
3.08167	164
3.08533	164
3.08900	163
3.09267	165
3.09633	166
3.10000	165
3.10367	161
3.10733	153
3.11100	146
3.11467	141
3.11833	141
3.12200	144
3.12567	147
3.12933	149
3.13300	151
3.13667	151
3.14033	150
3.14400	152
3.14767	156
3.15133	163
3.15500	172
3.15867	179
3.16233	181
3.16600	180
3.16967	178
3.17333	176
3.17700	177
3.18067	180
3.18433	179
3.18800	172
3.19167	162
3.19533	151
3.19900	144
3.20267	141
3.20633	142
3.21000	146
3.21367	148
3.21733	150
3.22100	154
3.22467	158
3.22833	162
3.23200	165
3.23567	169
3.23933	169
3.24300	166
3.24667	163
3.25033	161
3.25400	161
3.25767	161
3.26133	162
3.26500	165
3.26867	168
3.27233	170
3.27600	169
3.27967	165
3.28333	164
3.28700	163
3.29067	160
3.29433	157
3.29800	154
3.30167	153
3.30533	153
3.30900	154
3.31267	155
3.31633	161
3.32000	166
3.32367	170
3.32733	174
3.33100	175
3.33467	174
3.33833	172
3.34200	169
3.34567	167
3.34933	166
3.35300	167
3.35667	169
3.36033	172
3.36400	175
3.36767	176
3.37133	173
3.37500	170
3.37867	170
3.38233	170
3.38600	168
3.38967	166
3.39333	165
3.39700	165
3.40067	167
3.40433	170
3.40800	174
3.41167	178
3.41533	180
3.41900	177
3.42267	171
3.42633	164
3.43000	162
3.43367	162
3.43733	164
3.44100	170
3.44467	175
3.44833	178
3.45200	174
3.45567	171
3.45933	168
3.46300	165
3.46667	161
3.47033	157
3.47400	153
3.47767	152
3.48133	152
3.48500	154
3.48867	159
3.49233	161
3.49600	163
3.49967	165
3.50333	165
3.50700	162
3.51067	158
3.51433	157
3.51800	158
3.52167	160
3.52533	161
3.52900	161
3.53267	157
3.53633	152
3.54000	147
3.54367	145
3.54733	146
3.55100	148
3.55467	149
3.55833	153
3.56200	157
3.56567	160
3.56933	161
3.57300	159
3.57667	156
3.58033	154
3.58400	151
3.58767	148
3.59133	146
3.59500	143
3.59867	140
3.60233	140
3.60600	145
3.60967	153
3.61333	158
3.61700	159
3.62067	157
3.62433	157
3.62800	160
3.63167	164
3.63533	169
3.63900	170
3.64267	167
3.64633	163
3.65000	157
3.65367	149
3.65733	140
3.66100	134
3.66467	132
3.66833	134
3.67200	137
3.67567	143
3.67933	151
3.68300	159
3.68667	166
3.69033	168
3.69400	166
3.69767	163
3.70133	162
3.70500	161
3.70867	159
3.71233	158
3.71600	156
3.71967	153
3.72333	149
3.72700	144
3.73067	137
3.73433	129
3.73800	127
3.74167	131
3.74533	135
3.74900	138
3.75267	137
3.75633	134
3.76000	130
3.76367	129
3.76733	129
3.77100	132
3.77467	136
3.77833	140
3.78200	141
3.78567	140
3.78933	138
3.79300	139
3.79667	143
3.80033	146
3.80400	145
3.80767	145
3.81133	141
3.81500	137
3.81867	131
3.82233	124
3.82600	117
3.82967	113
3.83333	116
3.83700	120
3.84067	121
3.84433	122
3.84800	124
3.85167	127
3.85533	129
3.85900	128
3.86267	129
3.86633	130
3.87000	131
3.87367	131
3.87733	132
3.88100	132
3.88467	128
3.88833	122
3.89200	117
3.89567	116
3.89933	118
3.90300	120
3.90667	122
3.91033	122
3.91400	122
3.91767	120
3.92133	117
3.92500	112
3.92867	113
3.93233	119
3.93600	126
3.93967	133
3.94333	135
3.94700	133
3.95067	128
3.95433	125
3.95800	122
3.96167	121
3.96533	120
3.96900	123
3.97267	126
3.97633	126
3.98000	125
3.98367	122
3.98733	116
3.99100	110
3.99467	107
3.99833	105

[Chromatogram (Ch2)]
Interval(msec)	220
# of Points	1091
Start Time(min)	0.002
End Time(min)	3.998
R.Time (min)	Intensity
0.00167	0
0.00533	-0
0.00900	-0
0.01267	-0
0.01633	-0
0.02000	0
0.02367	0
0.02733	0
0.03100	0
0.03467	0
0.03833	0
0.04200	1
0.04567	1
0.04933	1
0.05300	1
0.05667	1
0.06033	1
0.06400	1
0.06767	0
0.07133	0
0.07500	0
0.07867	0
0.08233	0
0.08600	0
0.08967	1
0.09333	1
0.09700	1
0.10067	2
0.10433	2
0.10800	2
0.11167	3
0.11533	3
0.11900	3
0.12267	3
0.12633	3
0.13000	3
0.13367	3
0.13733	2
0.14100	2
0.14467	2
0.14833	2
0.15200	1
0.15567	1
0.15933	1
0.16300	1
0.16667	1
0.17033	1
0.17400	1
0.17767	1
0.18133	1
0.18500	2
0.18867	2
0.19233	2
0.19600	1
0.19967	1
0.20333	1
0.20700	1
0.21067	1
0.21433	1
0.21800	1
0.22167	1
0.22533	1
0.22900	2
0.23267	2
0.23633	1
0.24000	1
0.24367	1
0.24733	1
0.25100	1
0.25467	1
0.25833	1
0.26200	1
0.26567	1
0.26933	1
0.27300	1
0.27667	1
0.28033	1
0.28400	1
0.28767	1
0.29133	1
0.29500	1
0.29867	1
0.30233	1
0.30600	1
0.30967	2
0.31333	2
0.31700	2
0.32067	2
0.32433	2
0.32800	1
0.33167	1
0.33533	1
0.33900	1
0.34267	1
0.34633	0
0.35000	0
0.35367	-0
0.35733	-0
0.36100	-1
0.36467	-1
0.36833	-1
0.37200	-0
0.37567	-0
0.37933	-0
0.38300	0
0.38667	0
0.39033	0
0.39400	1
0.39767	1
0.40133	1
0.40500	1
0.40867	1
0.41233	1
0.41600	1
0.41967	1
0.42333	1
0.42700	1
0.43067	1
0.43433	1
0.43800	1
0.44167	1
0.44533	1
0.44900	1
0.45267	1
0.45633	1
0.46000	1
0.46367	1
0.46733	1
0.47100	1
0.47467	1
0.47833	1
0.48200	0
0.48567	0
0.48933	-0
0.49300	-0
0.49667	-0
0.50033	-0
0.50400	0
0.50767	0
0.51133	0
0.51500	0
0.51867	0
0.52233	0
0.52600	1
0.52967	1
0.53333	1
0.53700	1
0.54067	1
0.54433	1
0.54800	1
0.55167	1
0.55533	1
0.55900	1
0.56267	1
0.56633	1
0.57000	1
0.57367	1
0.57733	1
0.58100	0
0.58467	0
0.58833	0
0.59200	0
0.59567	0
0.59933	0
0.60300	0
0.60667	0
0.61033	0
0.61400	1
0.61767	1
0.62133	1
0.62500	1
0.62867	0
0.63233	0
0.63600	0
0.63967	0
0.64333	0
0.64700	0
0.65067	-0
0.65433	-0
0.65800	-0
0.66167	-1
0.66533	-1
0.66900	-1
0.67267	-1
0.67633	-1
0.68000	-1
0.68367	-1
0.68733	-1
0.69100	-1
0.69467	-1
0.69833	-1
0.70200	-1
0.70567	-1
0.70933	-1
0.71300	-1
0.71667	-0
0.72033	-0
0.72400	0
0.72767	0
0.73133	0
0.73500	-0
0.73867	-0
0.74233	-0
0.74600	-1
0.74967	-1
0.75333	-1
0.75700	-1
0.76067	-1
0.76433	-1
0.76800	-1
0.77167	-1
0.77533	-1
0.77900	-1
0.78267	-1
0.78633	-1
0.79000	-1
0.79367	-1
0.79733	-1
0.80100	-1
0.80467	-2
0.80833	-2
0.81200	-1
0.81567	-1
0.81933	-1
0.82300	-1
0.82667	-1
0.83033	-1
0.83400	-1
0.83767	-0
0.84133	-0
0.84500	-0
0.84867	-0
0.85233	0
0.85600	0
0.85967	0
0.86333	0
0.86700	0
0.87067	0
0.87433	0
0.87800	1
0.88167	1
0.88533	0
0.88900	0
0.89267	0
0.89633	0
0.90000	0
0.90367	0
0.90733	0
0.91100	0
0.91467	0
0.91833	0
0.92200	0
0.92567	0
0.92933	0
0.93300	1
0.93667	1
0.94033	1
0.94400	1
0.94767	1
0.95133	1
0.95500	1
0.95867	1
0.96233	1
0.96600	1
0.96967	1
0.97333	0
0.97700	0
0.98067	0
0.98433	0
0.98800	0
0.99167	0
0.99533	0
0.99900	0
1.00267	0
1.00633	0
1.01000	0
1.01367	-0
1.01733	-0
1.02100	-0
1.02467	-0
1.02833	-0
1.03200	-0
1.03567	0
1.03933	0
1.04300	0
1.04667	0
1.05033	0
1.05400	0
1.05767	0
1.06133	0
1.06500	0
1.06867	-0
1.07233	-0
1.07600	-0
1.07967	-1
1.08333	-1
1.08700	-1
1.09067	-2
1.09433	-2
1.09800	-2
1.10167	-2
1.10533	-2
1.10900	-2
1.11267	-2
1.11633	-2
1.12000	-2
1.12367	-2
1.12733	-2
1.13100	-2
1.13467	-2
1.13833	-2
1.14200	-1
1.14567	-1
1.14933	-1
1.15300	-1
1.15667	-1
1.16033	-1
1.16400	-0
1.16767	-0
1.17133	-0
1.17500	-0
1.17867	-0
1.18233	-0
1.18600	-0
1.18967	0
1.19333	0
1.19700	0
1.20067	-0
1.20433	-0
1.20800	-0
1.21167	-1
1.21533	-1
1.21900	-1
1.22267	-1
1.22633	-1
1.23000	-2
1.23367	-2
1.23733	-1
1.24100	-1
1.24467	-1
1.24833	-1
1.25200	-2
1.25567	-2
1.25933	-2
1.26300	-2
1.26667	-1
1.27033	-1
1.27400	-1
1.27767	-1
1.28133	-1
1.28500	-1
1.28867	-1
1.29233	-1
1.29600	-0
1.29967	-1
1.30333	-1
1.30700	-1
1.31067	-1
1.31433	-2
1.31800	-2
1.32167	-2
1.32533	-2
1.32900	-1
1.33267	-1
1.33633	-1
1.34000	-1
1.34367	-1
1.34733	-1
1.35100	-1
1.35467	-1
1.35833	-1
1.36200	-1
1.36567	-1
1.36933	-1
1.37300	-1
1.37667	-1
1.38033	-1
1.38400	-1
1.38767	-1
1.39133	-1
1.39500	-1
1.39867	-2
1.40233	-2
1.40600	-1
1.40967	-1
1.41333	-1
1.41700	-1
1.42067	-1
1.42433	-0
1.42800	-0
1.43167	-1
1.43533	-1
1.43900	-1
1.44267	-1
1.44633	-1
1.45000	-1
1.45367	-1
1.45733	-1
1.46100	-1
1.46467	-1
1.46833	-1
1.47200	-1
1.47567	-1
1.47933	-1
1.48300	-1
1.48667	-1
1.49033	-1
1.49400	-1
1.49767	-1
1.50133	-1
1.50500	-1
1.50867	-1
1.51233	-1
1.51600	-1
1.51967	-1
1.52333	-1
1.52700	-1
1.53067	-2
1.53433	-2
1.53800	-2
1.54167	-2
1.54533	-2
1.54900	-2
1.55267	-2
1.55633	-1
1.56000	-1
1.56367	-1
1.56733	-1
1.57100	-1
1.57467	-1
1.57833	-1
1.58200	-2
1.58567	-2
1.58933	-2
1.59300	-2
1.59667	-3
1.60033	-4
1.60400	-5
1.60767	-6
1.61133	-8
1.61500	-10
1.61867	-12
1.62233	-15
1.62600	-17
1.62967	-21
1.63333	-24
1.63700	-27
1.64067	-31
1.64433	-34
1.64800	-38
1.65167	-41
1.65533	-44
1.65900	-47
1.66267	-51
1.66633	-55
1.67000	-59
1.67367	-63
1.67733	-68
1.68100	-73
1.68467	-77
1.68833	-81
1.69200	-85
1.69567	-87
1.69933	-90
1.70300	-92
1.70667	-93
1.71033	-94
1.71400	-95
1.71767	-95
1.72133	-95
1.72500	-95
1.72867	-95
1.73233	-95
1.73600	-95
1.73967	-95
1.74333	-94
1.74700	-94
1.75067	-93
1.75433	-93
1.75800	-93
1.76167	-93
1.76533	-94
1.76900	-95
1.77267	-96
1.77633	-96
1.78000	-97
1.78367	-98
1.78733	-98
1.79100	-99
1.79467	-99
1.79833	-99
1.80200	-99
1.80567	-100
1.80933	-100
1.81300	-100
1.81667	-99
1.82033	-99
1.82400	-98
1.82767	-98
1.83133	-97
1.83500	-97
1.83867	-97
1.84233	-98
1.84600	-98
1.84967	-98
1.85333	-99
1.85700	-99
1.86067	-100
1.86433	-100
1.86800	-100
1.87167	-100
1.87533	-100
1.87900	-100
1.88267	-100
1.88633	-99
1.89000	-99
1.89367	-98
1.89733	-98
1.90100	-97
1.90467	-97
1.90833	-97
1.91200	-96
1.91567	-97
1.91933	-97
1.92300	-97
1.92667	-97
1.93033	-97
1.93400	-97
1.93767	-97
1.94133	-96
1.94500	-96
1.94867	-96
1.95233	-96
1.95600	-95
1.95967	-95
1.96333	-95
1.96700	-95
1.97067	-94
1.97433	-94
1.97800	-93
1.98167	-92
1.98533	-92
1.98900	-92
1.99267	-92
1.99633	-92
2.00000	-92
2.00367	-92
2.00733	-92
2.01100	-92
2.01467	-91
2.01833	-91
2.02200	-90
2.02567	-90
2.02933	-90
2.03300	-91
2.03667	-91
2.04033	-91
2.04400	-91
2.04767	-90
2.05133	-90
2.05500	-89
2.05867	-89
2.06233	-89
2.06600	-88
2.06967	-88
2.07333	-87
2.07700	-87
2.08067	-86
2.08433	-86
2.08800	-86
2.09167	-85
2.09533	-85
2.09900	-85
2.10267	-84
2.10633	-83
2.11000	-82
2.11367	-82
2.11733	-82
2.12100	-82
2.12467	-82
2.12833	-82
2.13200	-81
2.13567	-81
2.13933	-80
2.14300	-80
2.14667	-79
2.15033	-78
2.15400	-78
2.15767	-78
2.16133	-78
2.16500	-79
2.16867	-79
2.17233	-79
2.17600	-79
2.17967	-79
2.18333	-79
2.18700	-79
2.19067	-79
2.19433	-78
2.19800	-78
2.20167	-78
2.20533	-77
2.20900	-77
2.21267	-77
2.21633	-77
2.22000	-76
2.22367	-76
2.22733	-76
2.23100	-75
2.23467	-75
2.23833	-74
2.24200	-74
2.24567	-73
2.24933	-73
2.25300	-73
2.25667	-73
2.26033	-73
2.26400	-73
2.26767	-73
2.27133	-73
2.27500	-72
2.27867	-72
2.28233	-72
2.28600	-72
2.28967	-72
2.29333	-71
2.29700	-71
2.30067	-71
2.30433	-71
2.30800	-71
2.31167	-71
2.31533	-71
2.31900	-70
2.32267	-70
2.32633	-70
2.33000	-69
2.33367	-68
2.33733	-67
2.34100	-66
2.34467	-65
2.34833	-64
2.35200	-63
2.35567	-62
2.35933	-61
2.36300	-60
2.36667	-58
2.37033	-56
2.37400	-54
2.37767	-51
2.38133	-47
2.38500	-43
2.38867	-39
2.39233	-35
2.39600	-31
2.39967	-26
2.40333	-22
2.40700	-18
2.41067	-14
2.41433	-11
2.41800	-8
2.42167	-5
2.42533	-3
2.42900	-2
2.43267	-0
2.43633	1
2.44000	2
2.44367	3
2.44733	5
2.45100	6
2.45467	7
2.45833	8
2.46200	9
2.46567	10
2.46933	11
2.47300	11
2.47667	12
2.48033	13
2.48400	14
2.48767	14
2.49133	15
2.49500	16
2.49867	16
2.50233	17
2.50600	17
2.50967	18
2.51333	18
2.51700	19
2.52067	19
2.52433	18
2.52800	18
2.53167	17
2.53533	16
2.53900	16
2.54267	16
2.54633	15
2.55000	15
2.55367	14
2.55733	13
2.56100	12
2.56467	12
2.56833	11
2.57200	11
2.57567	12
2.57933	12
2.58300	13
2.58667	14
2.59033	15
2.59400	15
2.59767	15
2.60133	15
2.60500	15
2.60867	15
2.61233	15
2.61600	16
2.61967	16
2.62333	17
2.62700	17
2.63067	18
2.63433	18
2.63800	18
2.64167	18
2.64533	19
2.64900	19
2.65267	19
2.65633	20
2.66000	21
2.66367	22
2.66733	22
2.67100	23
2.67467	23
2.67833	24
2.68200	24
2.68567	24
2.68933	24
2.69300	24
2.69667	24
2.70033	25
2.70400	25
2.70767	26
2.71133	26
2.71500	26
2.71867	26
2.72233	26
2.72600	27
2.72967	27
2.73333	27
2.73700	28
2.74067	28
2.74433	28
2.74800	28
2.75167	28
2.75533	28
2.75900	28
2.76267	28
2.76633	27
2.77000	27
2.77367	27
2.77733	26
2.78100	26
2.78467	26
2.78833	26
2.79200	26
2.79567	26
2.79933	26
2.80300	26
2.80667	26
2.81033	26
2.81400	26
2.81767	26
2.82133	27
2.82500	27
2.82867	27
2.83233	27
2.83600	28
2.83967	28
2.84333	28
2.84700	28
2.85067	28
2.85433	27
2.85800	26
2.86167	23
2.86533	18
2.86900	10
2.87267	-2
2.87633	-19
2.88000	-40
2.88367	-67
2.88733	-99
2.89100	-136
2.89467	-179
2.89833	-227
2.90200	-279
2.90567	-335
2.90933	-394
2.91300	-456
2.91667	-520
2.92033	-585
2.92400	-650
2.92767	-714
2.93133	-777
2.93500	-836
2.93867	-892
2.94233	-947
2.94600	-1002
2.94967	-1055
2.95333	-1098
2.95700	-1122
2.96067	-1120
2.96433	-1094
2.96800	-1046
2.97167	-982
2.97533	-907
2.97900	-826
2.98267	-743
2.98633	-663
2.99000	-586
2.99367	-514
2.99733	-448
3.00100	-388
3.00467	-335
3.00833	-287
3.01200	-245
3.01567	-208
3.01933	-176
3.02300	-149
3.02667	-125
3.03033	-105
3.03400	-87
3.03767	-72
3.04133	-59
3.04500	-48
3.04867	-39
3.05233	-31
3.05600	-24
3.05967	-18
3.06333	-13
3.06700	-8
3.07067	-4
3.07433	-1
3.07800	2
3.08167	4
3.08533	6
3.08900	8
3.09267	10
3.09633	11
3.10000	12
3.10367	13
3.10733	14
3.11100	14
3.11467	15
3.11833	16
3.12200	16
3.12567	17
3.12933	17
3.13300	18
3.13667	18
3.14033	19
3.14400	19
3.14767	20
3.15133	21
3.15500	21
3.15867	21
3.16233	21
3.16600	22
3.16967	22
3.17333	22
3.17700	22
3.18067	22
3.18433	22
3.18800	22
3.19167	22
3.19533	22
3.19900	22
3.20267	22
3.20633	23
3.21000	23
3.21367	23
3.21733	24
3.22100	24
3.22467	24
3.22833	25
3.23200	25
3.23567	25
3.23933	25
3.24300	26
3.24667	26
3.25033	26
3.25400	26
3.25767	27
3.26133	27
3.26500	27
3.26867	28
3.27233	28
3.27600	28
3.27967	28
3.28333	28
3.28700	29
3.29067	29
3.29433	30
3.29800	30
3.30167	30
3.30533	30
3.30900	31
3.31267	31
3.31633	30
3.32000	30
3.32367	30
3.32733	30
3.33100	30
3.33467	30
3.33833	29
3.34200	29
3.34567	29
3.34933	29
3.35300	30
3.35667	30
3.36033	30
3.36400	30
3.36767	30
3.37133	30
3.37500	30
3.37867	30
3.38233	30
3.38600	30
3.38967	30
3.39333	30
3.39700	30
3.40067	30
3.40433	29
3.40800	29
3.41167	29
3.41533	29
3.41900	29
3.42267	29
3.42633	28
3.43000	28
3.43367	28
3.43733	28
3.44100	28
3.44467	28
3.44833	28
3.45200	28
3.45567	29
3.45933	29
3.46300	29
3.46667	29
3.47033	29
3.47400	29
3.47767	29
3.48133	28
3.48500	28
3.48867	28
3.49233	28
3.49600	29
3.49967	29
3.50333	29
3.50700	29
3.51067	29
3.51433	30
3.51800	30
3.52167	30
3.52533	29
3.52900	29
3.53267	29
3.53633	29
3.54000	29
3.54367	30
3.54733	30
3.55100	30
3.55467	29
3.55833	29
3.56200	29
3.56567	29
3.56933	29
3.57300	29
3.57667	28
3.58033	28
3.58400	29
3.58767	29
3.59133	29
3.59500	29
3.59867	29
3.60233	30
3.60600	30
3.60967	30
3.61333	30
3.61700	30
3.62067	30
3.62433	30
3.62800	30
3.63167	30
3.63533	30
3.63900	30
3.64267	30
3.64633	30
3.65000	29
3.65367	29
3.65733	29
3.66100	29
3.66467	29
3.66833	28
3.67200	28
3.67567	28
3.67933	28
3.68300	28
3.68667	28
3.69033	29
3.69400	29
3.69767	30
3.70133	30
3.70500	30
3.70867	30
3.71233	30
3.71600	30
3.71967	30
3.72333	30
3.72700	30
3.73067	30
3.73433	30
3.73800	29
3.74167	29
3.74533	29
3.74900	29
3.75267	29
3.75633	29
3.76000	30
3.76367	30
3.76733	30
3.77100	29
3.77467	29
3.77833	29
3.78200	29
3.78567	29
3.78933	29
3.79300	29
3.79667	29
3.80033	29
3.80400	29
3.80767	29
3.81133	29
3.81500	29
3.81867	29
3.82233	29
3.82600	29
3.82967	29
3.83333	29
3.83700	29
3.84067	29
3.84433	29
3.84800	29
3.85167	29
3.85533	30
3.85900	30
3.86267	30
3.86633	30
3.87000	30
3.87367	29
3.87733	29
3.88100	29
3.88467	29
3.88833	29
3.89200	29
3.89567	29
3.89933	29
3.90300	29
3.90667	30
3.91033	30
3.91400	30
3.91767	30
3.92133	30
3.92500	30
3.92867	30
3.93233	30
3.93600	30
3.93967	30
3.94333	30
3.94700	30
3.95067	30
3.95433	30
3.95800	30
3.96167	30
3.96533	30
3.96900	30
3.97267	30
3.97633	30
3.98000	30
3.98367	30
3.98733	30
3.99100	30
3.99467	30
3.99833	30

[Chromatogram (Ch3)]
Interval(msec)	220
# of Points	1091
Start Time(min)	0.002
End Time(min)	3.998
R.Time (min)	Intensity
0.00167	-1
0.00533	-0
0.00900	1
0.01267	2
0.01633	3
0.02000	1
0.02367	-0
0.02733	-0
0.03100	2
0.03467	6
0.03833	10
0.04200	9
0.04567	9
0.04933	8
0.05300	5
0.05667	4
0.06033	6
0.06400	7
0.06767	8
0.07133	7
0.07500	7
0.07867	6
0.08233	5
0.08600	3
0.08967	2
0.09333	5
0.09700	7
0.10067	7
0.10433	5
0.10800	1
0.11167	-1
0.11533	-1
0.11900	-2
0.12267	-1
0.12633	0
0.13000	1
0.13367	2
0.13733	1
0.14100	0
0.14467	2
0.14833	2
0.15200	-0
0.15567	-2
0.15933	-2
0.16300	-1
0.16667	0
0.17033	1
0.17400	3
0.17767	4
0.18133	3
0.18500	3
0.18867	2
0.19233	2
0.19600	3
0.19967	2
0.20333	1
0.20700	1
0.21067	2
0.21433	4
0.21800	8
0.22167	10
0.22533	11
0.22900	12
0.23267	9
0.23633	5
0.24000	2
0.24367	2
0.24733	2
0.25100	2
0.25467	1
0.25833	1
0.26200	1
0.26567	3
0.26933	6
0.27300	8
0.27667	7
0.28033	4
0.28400	2
0.28767	2
0.29133	4
0.29500	7
0.29867	9
0.30233	11
0.30600	8
0.30967	4
0.31333	1
0.31700	1
0.32067	-1
0.32433	-1
0.32800	-0
0.33167	1
0.33533	-0
0.33900	-1
0.34267	1
0.34633	5
0.35000	9
0.35367	10
0.35733	11
0.36100	10
0.36467	10
0.36833	9
0.37200	6
0.37567	7
0.37933	4
0.38300	1
0.38667	-3
0.39033	-5
0.39400	-4
0.39767	-1
0.40133	4
0.40500	6
0.40867	2
0.41233	0
0.41600	-2
0.41967	-2
0.42333	-1
0.42700	0
0.43067	1
0.43433	0
0.43800	-1
0.44167	-3
0.44533	-3
0.44900	-1
0.45267	1
0.45633	1
0.46000	1
0.46367	1
0.46733	1
0.47100	3
0.47467	4
0.47833	4
0.48200	3
0.48567	3
0.48933	4
0.49300	5
0.49667	5
0.50033	6
0.50400	6
0.50767	5
0.51133	3
0.51500	2
0.51867	2
0.52233	1
0.52600	2
0.52967	3
0.53333	3
0.53700	1
0.54067	-2
0.54433	-1
0.54800	1
0.55167	3
0.55533	3
0.55900	2
0.56267	1
0.56633	1
0.57000	3
0.57367	5
0.57733	3
0.58100	2
0.58467	2
0.58833	3
0.59200	4
0.59567	3
0.59933	3
0.60300	4
0.60667	3
0.61033	1
0.61400	-0
0.61767	-1
0.62133	2
0.62500	6
0.62867	8
0.63233	10
0.63600	8
0.63967	7
0.64333	7
0.64700	7
0.65067	9
0.65433	9
0.65800	11
0.66167	11
0.66533	9
0.66900	4
0.67267	-1
0.67633	-2
0.68000	-1
0.68367	1
0.68733	2
0.69100	2
0.69467	-0
0.69833	0
0.70200	3
0.70567	2
0.70933	3
0.71300	4
0.71667	4
0.72033	4
0.72400	4
0.72767	4
0.73133	4
0.73500	4
0.73867	4
0.74233	3
0.74600	2
0.74967	2
0.75333	4
0.75700	5
0.76067	7
0.76433	8
0.76800	8
0.77167	7
0.77533	5
0.77900	3
0.78267	4
0.78633	6
0.79000	5
0.79367	6
0.79733	4
0.80100	3
0.80467	2
0.80833	1
0.81200	-0
0.81567	-1
0.81933	0
0.82300	3
0.82667	4
0.83033	3
0.83400	2
0.83767	4
0.84133	5
0.84500	8
0.84867	10
0.85233	10
0.85600	7
0.85967	4
0.86333	1
0.86700	1
0.87067	2
0.87433	2
0.87800	2
0.88167	3
0.88533	-1
0.88900	-1
0.89267	2
0.89633	2
0.90000	3
0.90367	4
0.90733	3
0.91100	2
0.91467	3
0.91833	5
0.92200	8
0.92567	9
0.92933	9
0.93300	8
0.93667	7
0.94033	4
0.94400	3
0.94767	2
0.95133	2
0.95500	2
0.95867	4
0.96233	4
0.96600	3
0.96967	3
0.97333	3
0.97700	4
0.98067	5
0.98433	3
0.98800	3
0.99167	2
0.99533	2
0.99900	3
1.00267	5
1.00633	5
1.01000	3
1.01367	-1
1.01733	-3
1.02100	-3
1.02467	-2
1.02833	-2
1.03200	-1
1.03567	-2
1.03933	-2
1.04300	-3
1.04667	-2
1.05033	1
1.05400	3
1.05767	3
1.06133	3
1.06500	4
1.06867	6
1.07233	8
1.07600	11
1.07967	11
1.08333	9
1.08700	7
1.09067	3
1.09433	2
1.09800	2
1.10167	3
1.10533	4
1.10900	4
1.11267	5
1.11633	8
1.12000	8
1.12367	8
1.12733	6
1.13100	4
1.13467	3
1.13833	4
1.14200	4
1.14567	2
1.14933	1
1.15300	1
1.15667	2
1.16033	3
1.16400	2
1.16767	3
1.17133	4
1.17500	3
1.17867	2
1.18233	5
1.18600	10
1.18967	12
1.19333	11
1.19700	9
1.20067	8
1.20433	6
1.20800	6
1.21167	5
1.21533	5
1.21900	8
1.22267	13
1.22633	15
1.23000	16
1.23367	14
1.23733	12
1.24100	10
1.24467	7
1.24833	6
1.25200	5
1.25567	6
1.25933	9
1.26300	9
1.26667	9
1.27033	9
1.27400	6
1.27767	4
1.28133	4
1.28500	4
1.28867	5
1.29233	7
1.29600	7
1.29967	5
1.30333	5
1.30700	4
1.31067	3
1.31433	4
1.31800	6
1.32167	6
1.32533	3
1.32900	-1
1.33267	-4
1.33633	-3
1.34000	-1
1.34367	1
1.34733	3
1.35100	3
1.35467	1
1.35833	2
1.36200	3
1.36567	4
1.36933	5
1.37300	5
1.37667	4
1.38033	3
1.38400	3
1.38767	4
1.39133	8
1.39500	11
1.39867	12
1.40233	11
1.40600	11
1.40967	9
1.41333	7
1.41700	6
1.42067	5
1.42433	4
1.42800	5
1.43167	7
1.43533	6
1.43900	2
1.44267	1
1.44633	3
1.45000	6
1.45367	9
1.45733	7
1.46100	6
1.46467	5
1.46833	5
1.47200	6
1.47567	8
1.47933	10
1.48300	9
1.48667	7
1.49033	6
1.49400	3
1.49767	3
1.50133	3
1.50500	4
1.50867	4
1.51233	5
1.51600	7
1.51967	7
1.52333	5
1.52700	5
1.53067	6
1.53433	7
1.53800	6
1.54167	4
1.54533	2
1.54900	2
1.55267	4
1.55633	4
1.56000	6
1.56367	8
1.56733	10
1.57100	11
1.57467	11
1.57833	11
1.58200	10
1.58567	7
1.58933	6
1.59300	4
1.59667	6
1.60033	5
1.60400	5
1.60767	4
1.61133	3
1.61500	3
1.61867	5
1.62233	5
1.62600	6
1.62967	9
1.63333	12
1.63700	15
1.64067	16
1.64433	16
1.64800	14
1.65167	12
1.65533	10
1.65900	9
1.66267	7
1.66633	5
1.67000	6
1.67367	9
1.67733	11
1.68100	14
1.68467	18
1.68833	21
1.69200	18
1.69567	15
1.69933	13
1.70300	11
1.70667	9
1.71033	8
1.71400	10
1.71767	12
1.72133	14
1.72500	13
1.72867	12
1.73233	9
1.73600	10
1.73967	11
1.74333	11
1.74700	14
1.75067	15
1.75433	15
1.75800	16
1.76167	17
1.76533	20
1.76900	20
1.77267	18
1.77633	17
1.78000	17
1.78367	20
1.78733	22
1.79100	24
1.79467	25
1.79833	26
1.80200	28
1.80567	28
1.80933	27
1.81300	26
1.81667	25
1.82033	24
1.82400	23
1.82767	24
1.83133	24
1.83500	24
1.83867	27
1.84233	29
1.84600	30
1.84967	32
1.85333	31
1.85700	28
1.86067	26
1.86433	27
1.86800	30
1.87167	32
1.87533	34
1.87900	35
1.88267	34
1.88633	31
1.89000	28
1.89367	30
1.89733	34
1.90100	35
1.90467	33
1.90833	34
1.91200	37
1.91567	38
1.91933	39
1.92300	41
1.92667	41
1.93033	38
1.93400	35
1.93767	34
1.94133	35
1.94500	35
1.94867	36
1.95233	38
1.95600	38
1.95967	39
1.96333	41
1.96700	40
1.97067	39
1.97433	37
1.97800	38
1.98167	37
1.98533	36
1.98900	39
1.99267	42
1.99633	42
2.00000	43
2.00367	45
2.00733	47
2.01100	48
2.01467	49
2.01833	50
2.02200	51
2.02567	50
2.02933	49
2.03300	50
2.03667	51
2.04033	52
2.04400	53
2.04767	52
2.05133	51
2.05500	49
2.05867	51
2.06233	52
2.06600	53
2.06967	53
2.07333	55
2.07700	56
2.08067	56
2.08433	55
2.08800	52
2.09167	52
2.09533	52
2.09900	55
2.10267	58
2.10633	57
2.11000	58
2.11367	60
2.11733	64
2.12100	67
2.12467	70
2.12833	70
2.13200	69
2.13567	69
2.13933	69
2.14300	67
2.14667	67
2.15033	70
2.15400	72
2.15767	73
2.16133	74
2.16500	75
2.16867	76
2.17233	76
2.17600	76
2.17967	76
2.18333	78
2.18700	79
2.19067	80
2.19433	82
2.19800	83
2.20167	84
2.20533	85
2.20900	86
2.21267	87
2.21633	86
2.22000	85
2.22367	85
2.22733	87
2.23100	89
2.23467	90
2.23833	91
2.24200	90
2.24567	90
2.24933	92
2.25300	94
2.25667	95
2.26033	95
2.26400	94
2.26767	93
2.27133	92
2.27500	95
2.27867	98
2.28233	99
2.28600	100
2.28967	100
2.29333	102
2.29700	103
2.30067	102
2.30433	101
2.30800	104
2.31167	107
2.31533	108
2.31900	108
2.32267	109
2.32633	109
2.33000	110
2.33367	108
2.33733	110
2.34100	112
2.34467	113
2.34833	112
2.35200	113
2.35567	115
2.35933	116
2.36300	115
2.36667	115
2.37033	115
2.37400	113
2.37767	112
2.38133	112
2.38500	112
2.38867	108
2.39233	106
2.39600	109
2.39967	114
2.40333	120
2.40700	126
2.41067	130
2.41433	134
2.41800	136
2.42167	136
2.42533	136
2.42900	135
2.43267	131
2.43633	126
2.44000	132
2.44367	181
2.44733	268
2.45100	349
2.45467	409
2.45833	437
2.46200	435
2.46567	421
2.46933	403
2.47300	389
2.47667	379
2.48033	369
2.48400	352
2.48767	329
2.49133	305
2.49500	284
2.49867	269
2.50233	260
2.50600	256
2.50967	257
2.51333	261
2.51700	267
2.52067	272
2.52433	275
2.52800	276
2.53167	272
2.53533	263
2.53900	250
2.54267	236
2.54633	222
2.55000	211
2.55367	203
2.55733	196
2.56100	190
2.56467	188
2.56833	186
2.57200	184
2.57567	185
2.57933	187
2.58300	188
2.58667	189
2.59033	191
2.59400	194
2.59767	199
2.60133	208
2.60500	219
2.60867	226
2.61233	232
2.61600	239
2.61967	245
2.62333	248
2.62700	250
2.63067	251
2.63433	249
2.63800	243
2.64167	237
2.64533	229
2.64900	219
2.65267	211
2.65633	204
2.66000	195
2.66367	189
2.66733	184
2.67100	179
2.67467	174
2.67833	168
2.68200	163
2.68567	159
2.68933	157
2.69300	155
2.69667	154
2.70033	152
2.70400	151
2.70767	150
2.71133	148
2.71500	148
2.71867	149
2.72233	148
2.72600	149
2.72967	150
2.73333	151
2.73700	152
2.74067	151
2.74433	151
2.74800	152
2.75167	153
2.75533	156
2.75900	158
2.76267	158
2.76633	160
2.77000	162
2.77367	165
2.77733	168
2.78100	169
2.78467	171
2.78833	173
2.79200	176
2.79567	180
2.79933	183
2.80300	188
2.80667	192
2.81033	194
2.81400	198
2.81767	201
2.82133	204
2.82500	206
2.82867	205
2.83233	209
2.83600	220
2.83967	240
2.84333	282
2.84700	363
2.85067	504
2.85433	722
2.85800	1029
2.86167	1418
2.86533	1879
2.86900	2380
2.87267	2882
2.87633	3343
2.88000	3722
2.88367	3994
2.88733	4142
2.89100	4169
2.89467	4087
2.89833	3918
2.90200	3686
2.90567	3414
2.90933	3123
2.91300	2826
2.91667	2538
2.92033	2269
2.92400	2018
2.92767	1789
2.93133	1584
2.93500	1400
2.93867	1238
2.94233	1094
2.94600	969
2.94967	860
2.95333	764
2.95700	683
2.96067	613
2.96433	551
2.96800	499
2.97167	452
2.97533	414
2.97900	380
2.98267	351
2.98633	326
2.99000	305
2.99367	285
2.99733	268
3.00100	254
3.00467	244
3.00833	234
3.01200	227
3.01567	220
3.01933	211
3.02300	202
3.02667	193
3.03033	190
3.03400	191
3.03767	191
3.04133	190
3.04500	188
3.04867	186
3.05233	190
3.05600	212
3.05967	256
3.06333	316
3.06700	383
3.07067	457
3.07433	537
3.07800	619
3.08167	701
3.08533	777
3.08900	846
3.09267	904
3.09633	953
3.10000	994
3.10367	1028
3.10733	1054
3.11100	1073
3.11467	1089
3.11833	1101
3.12200	1110
3.12567	1116
3.12933	1118
3.13300	1118
3.13667	1118
3.14033	1114
3.14400	1110
3.14767	1107
3.15133	1103
3.15500	1099
3.15867	1095
3.16233	1092
3.16600	1090
3.16967	1088
3.17333	1083
3.17700	1079
3.18067	1074
3.18433	1071
3.18800	1069
3.19167	1064
3.19533	1060
3.19900	1058
3.20267	1055
3.20633	1051
3.21000	1050
3.21367	1050
3.21733	1047
3.22100	1045
3.22467	1045
3.22833	1044
3.23200	1045
3.23567	1045
3.23933	1044
3.24300	1041
3.24667	1036
3.25033	1033
3.25400	1030
3.25767	1026
3.26133	1023
3.26500	1022
3.26867	1019
3.27233	1014
3.27600	1012
3.27967	1012
3.28333	1009
3.28700	1008
3.29067	1005
3.29433	1001
3.29800	997
3.30167	992
3.30533	986
3.30900	982
3.31267	978
3.31633	971
3.32000	962
3.32367	956
3.32733	952
3.33100	948
3.33467	942
3.33833	937
3.34200	934
3.34567	930
3.34933	925
3.35300	920
3.35667	914
3.36033	910
3.36400	906
3.36767	902
3.37133	899
3.37500	898
3.37867	896
3.38233	894
3.38600	893
3.38967	891
3.39333	890
3.39700	889
3.40067	886
3.40433	882
3.40800	877
3.41167	874
3.41533	876
3.41900	877
3.42267	876
3.42633	873
3.43000	870
3.43367	867
3.43733	864
3.44100	864
3.44467	865
3.44833	865
3.45200	867
3.45567	868
3.45933	870
3.46300	871
3.46667	870
3.47033	870
3.47400	872
3.47767	876
3.48133	880
3.48500	883
3.48867	884
3.49233	886
3.49600	887
3.49967	888
3.50333	892
3.50700	894
3.51067	894
3.51433	893
3.51800	892
3.52167	891
3.52533	890
3.52900	890
3.53267	891
3.53633	891
3.54000	890
3.54367	890
3.54733	893
3.55100	896
3.55467	897
3.55833	895
3.56200	889
3.56567	883
3.56933	878
3.57300	873
3.57667	868
3.58033	866
3.58400	863
3.58767	858
3.59133	850
3.59500	842
3.59867	835
3.60233	832
3.60600	830
3.60967	826
3.61333	822
3.61700	819
3.62067	815
3.62433	811
3.62800	808
3.63167	804
3.63533	800
3.63900	797
3.64267	795
3.64633	792
3.65000	790
3.65367	788
3.65733	786
3.66100	784
3.66467	783
3.66833	781
3.67200	779
3.67567	778
3.67933	776
3.68300	774
3.68667	773
3.69033	770
3.69400	765
3.69767	762
3.70133	759
3.70500	756
3.70867	754
3.71233	751
3.71600	749
3.71967	748
3.72333	744
3.72700	739
3.73067	738
3.73433	736
3.73800	734
3.74167	733
3.74533	732
3.74900	732
3.75267	731
3.75633	729
3.76000	724
3.76367	722
3.76733	722
3.77100	721
3.77467	721
3.77833	718
3.78200	713
3.78567	707
3.78933	705
3.79300	706
3.79667	707
3.80033	706
3.80400	707
3.80767	705
3.81133	702
3.81500	700
3.81867	699
3.82233	696
3.82600	693
3.82967	693
3.83333	694
3.83700	696
3.84067	695
3.84433	693
3.84800	690
3.85167	687
3.85533	687
3.85900	686
3.86267	684
3.86633	684
3.87000	683
3.87367	683
3.87733	680
3.88100	678
3.88467	676
3.88833	672
3.89200	669
3.89567	668
3.89933	665
3.90300	665
3.90667	665
3.91033	663
3.91400	660
3.91767	658
3.92133	658
3.92500	657
3.92867	655
3.93233	652
3.93600	651
3.93967	650
3.94333	649
3.94700	649
3.95067	650
3.95433	651
3.95800	649
3.96167	645
3.96533	642
3.96900	639
3.97267	639
3.97633	640
3.98000	638
3.98367	636
3.98733	635
3.99100	634
3.99467	631
3.99833	626

[Status Trace (Column Oven Temperature)]
Interval(msec)	1000
# of Points	240
Start Time(min)	0.008
End Time(min)	3.991
Intensity Units	
Intensity Multiplier	1
R.Time (min)	Intensity
0.00800	35.04
0.02467	35.05
0.04133	35.05
0.05800	35.05
0.07467	35.05
0.09133	35.05
0.10800	35.04
0.12467	35.04
0.14133	35.03
0.15800	35.04
0.17467	35.03
0.19133	35.04
0.20800	35.03
0.22467	35.03
0.24133	35.03
0.25800	35.03
0.27467	35.02
0.29133	35.02
0.30800	35.01
0.32467	35.00
0.34133	35.00
0.35800	35.01
0.37467	35.00
0.39133	35.01
0.40800	35.00
0.42467	35.00
0.44133	35.00
0.45800	35.00
0.47467	35.00
0.49133	35.00
0.50800	35.00
0.52467	35.00
0.54133	34.99
0.55800	34.99
0.57467	34.99
0.59133	34.99
0.60800	34.99
0.62467	34.99
0.64133	34.99
0.65800	34.99
0.67467	34.99
0.69133	34.99
0.70800	35.00
0.72467	34.99
0.74133	34.99
0.75800	35.00
0.77467	35.00
0.79133	35.01
0.80800	35.00
0.82467	35.00
0.84133	35.00
0.85800	34.99
0.87467	34.99
0.89133	34.99
0.90800	34.99
0.92467	34.99
0.94133	34.99
0.95800	34.99
0.97467	34.98
0.99133	34.99
1.00800	34.98
1.02467	34.98
1.04133	34.98
1.05800	34.98
1.07467	34.98
1.09133	34.99
1.10800	35.00
1.12467	35.00
1.14133	35.01
1.15800	34.99
1.17467	35.00
1.19133	34.99
1.20800	34.99
1.22467	34.99
1.24133	35.00
1.25800	34.99
1.27467	34.99
1.29133	34.98
1.30800	34.99
1.32467	34.98
1.34133	34.99
1.35800	35.00
1.37467	35.00
1.39133	34.99
1.40800	34.99
1.42467	34.99
1.44133	34.99
1.45800	35.00
1.47467	34.99
1.49133	34.99
1.50800	34.99
1.52467	35.00
1.54133	35.00
1.55800	35.00
1.57467	34.99
1.59133	35.00
1.60800	35.06
1.62467	35.18
1.64133	35.38
1.65800	35.63
1.67467	35.98
1.69133	36.36
1.70800	36.70
1.72467	37.03
1.74133	37.34
1.75800	37.66
1.77467	38.01
1.79133	38.34
1.80800	38.69
1.82467	38.99
1.84133	39.34
1.85800	39.68
1.87467	40.02
1.89133	40.33
1.90800	40.65
1.92467	41.00
1.94133	41.32
1.95800	41.67
1.97467	41.99
1.99133	42.33
2.00800	42.66
2.02467	42.98
2.04133	43.30
2.05800	43.63
2.07467	43.95
2.09133	44.29
2.10800	44.59
2.12467	44.93
2.14133	45.24
2.15800	45.57
2.17467	45.91
2.19133	46.24
2.20800	46.58
2.22467	46.90
2.24133	47.24
2.25800	47.57
2.27467	47.91
2.29133	48.24
2.30800	48.57
2.32467	48.90
2.34133	49.21
2.35800	49.49
2.37467	49.67
2.39133	49.73
2.40800	49.70
2.42467	49.71
2.44133	49.71
2.45800	49.73
2.47467	49.73
2.49133	49.74
2.50800	49.74
2.52467	49.77
2.54133	49.78
2.55800	49.81
2.57467	49.81
2.59133	49.81
2.60800	49.83
2.62467	49.84
2.64133	49.85
2.65800	49.85
2.67467	49.85
2.69133	49.87
2.70800	49.86
2.72467	49.85
2.74133	49.85
2.75800	49.87
2.77467	49.88
2.79133	49.90
2.80800	49.91
2.82467	49.92
2.84133	49.91
2.85800	49.92
2.87467	49.93
2.89133	49.94
2.90800	49.95
2.92467	49.97
2.94133	49.98
2.95800	49.98
2.97467	49.99
2.99133	50.00
3.00800	50.01
3.02467	50.01
3.04133	50.02
3.05800	50.02
3.07467	50.04
3.09133	50.05
3.10800	50.06
3.12467	50.07
3.14133	50.07
3.15800	50.08
3.17467	50.09
3.19133	50.10
3.20800	50.10
3.22467	50.11
3.24133	50.10
3.25800	50.09
3.27467	50.08
3.29133	50.05
3.30800	50.04
3.32467	50.04
3.34133	50.04
3.35800	50.02
3.37467	50.02
3.39133	50.02
3.40800	50.02
3.42467	50.03
3.44133	50.03
3.45800	50.02
3.47467	50.03
3.49133	50.03
3.50800	50.03
3.52467	50.04
3.54133	50.04
3.55800	50.04
3.57467	50.04
3.59133	50.04
3.60800	50.04
3.62467	50.04
3.64133	50.04
3.65800	50.04
3.67467	50.05
3.69133	50.04
3.70800	50.04
3.72467	50.05
3.74133	50.05
3.75800	50.06
3.77467	50.06
3.79133	50.07
3.80800	50.07
3.82467	50.07
3.84133	50.07
3.85800	50.08
3.87467	50.08
3.89133	50.09
3.90800	50.08
3.92467	50.08
3.94133	50.08
3.95800	50.07
3.97467	50.08
3.99133	50.08

[Status Trace (Injection Unit Temperature)]
Interval(msec)	1000
# of Points	240
Start Time(min)	0.008
End Time(min)	3.991
Intensity Units	
Intensity Multiplier	1
R.Time (min)	Intensity
0.00800	99.97
0.02467	99.97
0.04133	99.97
0.05800	99.97
0.07467	99.97
0.09133	99.98
0.10800	99.97
0.12467	99.97
0.14133	99.98
0.15800	99.98
0.17467	99.98
0.19133	99.98
0.20800	99.97
0.22467	99.98
0.24133	99.98
0.25800	99.98
0.27467	99.98
0.29133	99.98
0.30800	99.98
0.32467	99.97
0.34133	99.98
0.35800	99.98
0.37467	99.98
0.39133	99.98
0.40800	99.98
0.42467	99.98
0.44133	99.98
0.45800	99.98
0.47467	99.98
0.49133	99.98
0.50800	99.98
0.52467	99.98
0.54133	99.98
0.55800	99.98
0.57467	99.98
0.59133	99.98
0.60800	99.98
0.62467	99.98
0.64133	99.98
0.65800	99.98
0.67467	99.98
0.69133	99.99
0.70800	99.98
0.72467	99.98
0.74133	99.99
0.75800	99.98
0.77467	99.98
0.79133	99.98
0.80800	99.99
0.82467	99.98
0.84133	99.98
0.85800	99.99
0.87467	99.98
0.89133	99.98
0.90800	99.98
0.92467	99.98
0.94133	99.99
0.95800	99.98
0.97467	99.98
0.99133	99.98
1.00800	99.98
1.02467	99.98
1.04133	99.98
1.05800	99.99
1.07467	99.98
1.09133	99.99
1.10800	99.98
1.12467	99.99
1.14133	99.98
1.15800	99.98
1.17467	99.98
1.19133	99.98
1.20800	99.98
1.22467	99.98
1.24133	99.98
1.25800	99.98
1.27467	99.98
1.29133	99.98
1.30800	99.98
1.32467	99.98
1.34133	99.98
1.35800	99.98
1.37467	99.98
1.39133	99.98
1.40800	99.98
1.42467	99.98
1.44133	99.98
1.45800	99.98
1.47467	99.98
1.49133	99.98
1.50800	99.98
1.52467	99.98
1.54133	99.98
1.55800	99.98
1.57467	99.98
1.59133	99.98
1.60800	99.98
1.62467	99.98
1.64133	99.98
1.65800	99.98
1.67467	99.98
1.69133	99.98
1.70800	99.99
1.72467	99.98
1.74133	99.98
1.75800	99.98
1.77467	99.98
1.79133	99.98
1.80800	99.98
1.82467	99.98
1.84133	99.98
1.85800	99.98
1.87467	99.98
1.89133	99.98
1.90800	99.98
1.92467	99.98
1.94133	99.98
1.95800	99.98
1.97467	99.98
1.99133	99.98
2.00800	99.98
2.02467	99.98
2.04133	99.98
2.05800	99.98
2.07467	99.98
2.09133	99.97
2.10800	99.98
2.12467	99.97
2.14133	99.97
2.15800	99.97
2.17467	99.97
2.19133	99.97
2.20800	99.97
2.22467	99.97
2.24133	99.97
2.25800	99.97
2.27467	99.97
2.29133	99.97
2.30800	99.97
2.32467	99.97
2.34133	99.97
2.35800	99.97
2.37467	99.97
2.39133	99.97
2.40800	99.97
2.42467	99.97
2.44133	99.97
2.45800	99.97
2.47467	99.97
2.49133	99.97
2.50800	99.97
2.52467	99.97
2.54133	99.97
2.55800	99.98
2.57467	99.98
2.59133	99.98
2.60800	99.98
2.62467	99.98
2.64133	99.98
2.65800	99.98
2.67467	99.98
2.69133	99.98
2.70800	99.99
2.72467	99.99
2.74133	99.99
2.75800	99.98
2.77467	99.99
2.79133	99.99
2.80800	99.99
2.82467	99.99
2.84133	99.99
2.85800	99.99
2.87467	99.99
2.89133	100.00
2.90800	100.00
2.92467	99.99
2.94133	100.00
2.95800	100.00
2.97467	100.00
2.99133	100.00
3.00800	100.00
3.02467	100.00
3.04133	100.01
3.05800	100.00
3.07467	100.01
3.09133	100.01
3.10800	100.01
3.12467	100.01
3.14133	100.01
3.15800	100.01
3.17467	100.01
3.19133	100.01
3.20800	100.01
3.22467	100.02
3.24133	100.01
3.25800	100.02
3.27467	100.02
3.29133	100.02
3.30800	100.02
3.32467	100.02
3.34133	100.02
3.35800	100.02
3.37467	100.02
3.39133	100.03
3.40800	100.03
3.42467	100.03
3.44133	100.03
3.45800	100.03
3.47467	100.03
3.49133	100.03
3.50800	100.03
3.52467	100.04
3.54133	100.03
3.55800	100.03
3.57467	100.04
3.59133	100.04
3.60800	100.04
3.62467	100.03
3.64133	100.04
3.65800	100.04
3.67467	100.04
3.69133	100.04
3.70800	100.04
3.72467	100.04
3.74133	100.04
3.75800	100.04
3.77467	100.04
3.79133	100.04
3.80800	100.04
3.82467	100.04
3.84133	100.05
3.85800	100.05
3.87467	100.05
3.89133	100.04
3.90800	100.05
3.92467	100.05
3.94133	100.04
3.95800	100.04
3.97467	100.05
3.99133	100.05

[Status Trace (Carrier Gas Pressure)]
Interval(msec)	1000
# of Points	240
Start Time(min)	0.008
End Time(min)	3.991
Intensity Units	
Intensity Multiplier	1
R.Time (min)	Intensity
0.00800	58.00
0.02467	55.38
0.04133	57.12
0.05800	59.17
0.07467	59.49
0.09133	58.07
0.10800	57.98
0.12467	58.01
0.14133	58.01
0.15800	58.01
0.17467	58.00
0.19133	58.00
0.20800	58.00
0.22467	58.00
0.24133	58.00
0.25800	58.00
0.27467	58.00
0.29133	58.00
0.30800	58.00
0.32467	58.00
0.34133	58.00
0.35800	58.00
0.37467	58.00
0.39133	58.00
0.40800	58.00
0.42467	58.00
0.44133	58.00
0.45800	58.00
0.47467	58.00
0.49133	58.00
0.50800	58.00
0.52467	58.00
0.54133	58.00
0.55800	58.00
0.57467	58.00
0.59133	58.00
0.60800	58.00
0.62467	58.00
0.64133	58.00
0.65800	58.00
0.67467	58.00
0.69133	58.00
0.70800	58.00
0.72467	58.00
0.74133	58.00
0.75800	58.00
0.77467	58.00
0.79133	58.00
0.80800	58.00
0.82467	58.00
0.84133	58.00
0.85800	58.00
0.87467	58.00
0.89133	58.00
0.90800	58.00
0.92467	58.00
0.94133	58.00
0.95800	58.00
0.97467	58.00
0.99133	58.00
1.00800	58.00
1.02467	58.00
1.04133	58.00
1.05800	58.00
1.07467	58.00
1.09133	58.00
1.10800	58.00
1.12467	58.00
1.14133	58.00
1.15800	58.00
1.17467	58.00
1.19133	58.00
1.20800	58.00
1.22467	58.00
1.24133	58.00
1.25800	58.00
1.27467	58.00
1.29133	58.00
1.30800	58.00
1.32467	58.00
1.34133	58.00
1.35800	58.00
1.37467	58.00
1.39133	58.00
1.40800	58.00
1.42467	58.00
1.44133	58.00
1.45800	58.00
1.47467	58.00
1.49133	58.00
1.50800	58.00
1.52467	58.00
1.54133	58.00
1.55800	58.00
1.57467	58.00
1.59133	58.00
1.60800	58.00
1.62467	58.00
1.64133	58.00
1.65800	58.00
1.67467	58.01
1.69133	58.00
1.70800	58.00
1.72467	58.00
1.74133	58.00
1.75800	58.00
1.77467	58.00
1.79133	58.00
1.80800	58.00
1.82467	58.00
1.84133	58.00
1.85800	58.00
1.87467	58.00
1.89133	58.00
1.90800	58.00
1.92467	58.00
1.94133	58.00
1.95800	58.00
1.97467	58.00
1.99133	58.00
2.00800	58.00
2.02467	58.00
2.04133	58.00
2.05800	58.00
2.07467	58.00
2.09133	58.00
2.10800	58.00
2.12467	58.00
2.14133	58.00
2.15800	58.00
2.17467	58.00
2.19133	58.00
2.20800	58.00
2.22467	58.00
2.24133	58.00
2.25800	58.00
2.27467	58.00
2.29133	58.00
2.30800	58.00
2.32467	58.00
2.34133	58.00
2.35800	58.00
2.37467	58.00
2.39133	57.99
2.40800	57.99
2.42467	58.00
2.44133	58.00
2.45800	58.00
2.47467	58.00
2.49133	58.00
2.50800	58.00
2.52467	57.99
2.54133	58.00
2.55800	58.00
2.57467	58.00
2.59133	58.00
2.60800	58.00
2.62467	58.00
2.64133	58.00
2.65800	58.00
2.67467	58.00
2.69133	58.00
2.70800	58.00
2.72467	58.00
2.74133	58.00
2.75800	58.00
2.77467	58.00
2.79133	58.00
2.80800	58.00
2.82467	58.00
2.84133	58.00
2.85800	58.00
2.87467	58.00
2.89133	58.00
2.90800	58.00
2.92467	58.00
2.94133	58.00
2.95800	58.00
2.97467	58.00
2.99133	58.00
3.00800	58.00
3.02467	58.00
3.04133	58.00
3.05800	58.00
3.07467	58.00
3.09133	58.00
3.10800	58.00
3.12467	58.00
3.14133	58.00
3.15800	58.00
3.17467	58.00
3.19133	58.00
3.20800	58.00
3.22467	58.00
3.24133	58.00
3.25800	58.00
3.27467	58.00
3.29133	58.00
3.30800	58.00
3.32467	58.00
3.34133	58.00
3.35800	58.00
3.37467	58.00
3.39133	58.00
3.40800	58.00
3.42467	58.00
3.44133	58.00
3.45800	58.00
3.47467	58.00
3.49133	58.00
3.50800	58.00
3.52467	58.00
3.54133	58.00
3.55800	58.00
3.57467	58.00
3.59133	58.00
3.60800	58.00
3.62467	58.00
3.64133	58.00
3.65800	58.00
3.67467	58.00
3.69133	58.00
3.70800	58.00
3.72467	58.00
3.74133	58.00
3.75800	58.00
3.77467	58.00
3.79133	58.00
3.80800	58.00
3.82467	58.00
3.84133	58.00
3.85800	58.00
3.87467	58.00
3.89133	58.00
3.90800	58.00
3.92467	58.00
3.94133	58.00
3.95800	58.00
3.97467	58.00
3.99133	58.00

[Status Trace (Carrier Gas Flow)]
Interval(msec)	1000
# of Points	240
Start Time(min)	0.008
End Time(min)	3.991
Intensity Units	
Intensity Multiplier	1
R.Time (min)	Intensity
0.00800	34.52
0.02467	34.53
0.04133	34.55
0.05800	34.55
0.07467	34.50
0.09133	34.52
0.10800	34.52
0.12467	34.52
0.14133	34.52
0.15800	34.52
0.17467	34.51
0.19133	34.52
0.20800	34.52
0.22467	34.52
0.24133	34.52
0.25800	34.52
0.27467	34.52
0.29133	34.52
0.30800	34.52
0.32467	34.52
0.34133	34.52
0.35800	34.52
0.37467	34.52
0.39133	34.52
0.40800	34.52
0.42467	34.52
0.44133	34.52
0.45800	34.52
0.47467	34.52
0.49133	34.52
0.50800	34.52
0.52467	34.52
0.54133	34.52
0.55800	34.51
0.57467	34.51
0.59133	34.52
0.60800	34.52
0.62467	34.52
0.64133	34.52
0.65800	34.52
0.67467	34.52
0.69133	34.52
0.70800	34.52
0.72467	34.52
0.74133	34.52
0.75800	34.52
0.77467	34.52
0.79133	34.52
0.80800	34.52
0.82467	34.52
0.84133	34.51
0.85800	34.52
0.87467	34.52
0.89133	34.52
0.90800	34.51
0.92467	34.52
0.94133	34.52
0.95800	34.51
0.97467	34.52
0.99133	34.52
1.00800	34.52
1.02467	34.51
1.04133	34.52
1.05800	34.52
1.07467	34.52
1.09133	34.53
1.10800	34.52
1.12467	34.52
1.14133	34.52
1.15800	34.51
1.17467	34.52
1.19133	34.52
1.20800	34.52
1.22467	34.53
1.24133	34.51
1.25800	34.52
1.27467	34.53
1.29133	34.52
1.30800	34.52
1.32467	34.52
1.34133	34.52
1.35800	34.51
1.37467	34.52
1.39133	34.52
1.40800	34.52
1.42467	34.52
1.44133	34.52
1.45800	34.52
1.47467	34.52
1.49133	34.52
1.50800	34.52
1.52467	34.51
1.54133	34.52
1.55800	34.52
1.57467	34.52
1.59133	34.51
1.60800	34.52
1.62467	34.53
1.64133	34.52
1.65800	34.52
1.67467	34.52
1.69133	34.52
1.70800	34.53
1.72467	34.53
1.74133	34.52
1.75800	34.52
1.77467	34.52
1.79133	34.52
1.80800	34.52
1.82467	34.52
1.84133	34.52
1.85800	34.52
1.87467	34.52
1.89133	34.51
1.90800	34.52
1.92467	34.52
1.94133	34.52
1.95800	34.52
1.97467	34.52
1.99133	34.52
2.00800	34.52
2.02467	34.52
2.04133	34.51
2.05800	34.52
2.07467	34.52
2.09133	34.51
2.10800	34.52
2.12467	34.52
2.14133	34.52
2.15800	34.52
2.17467	34.52
2.19133	34.52
2.20800	34.52
2.22467	34.51
2.24133	34.52
2.25800	34.52
2.27467	34.52
2.29133	34.52
2.30800	34.52
2.32467	34.52
2.34133	34.52
2.35800	34.52
2.37467	34.52
2.39133	34.52
2.40800	34.52
2.42467	34.52
2.44133	34.52
2.45800	34.52
2.47467	34.52
2.49133	34.52
2.50800	34.34
2.52467	34.52
2.54133	34.52
2.55800	34.52
2.57467	34.52
2.59133	34.52
2.60800	34.52
2.62467	34.52
2.64133	34.52
2.65800	34.52
2.67467	34.51
2.69133	34.52
2.70800	34.52
2.72467	34.52
2.74133	34.51
2.75800	34.52
2.77467	34.51
2.79133	34.52
2.80800	34.52
2.82467	34.52
2.84133	34.52
2.85800	34.52
2.87467	34.52
2.89133	34.52
2.90800	34.51
2.92467	34.52
2.94133	34.52
2.95800	34.52
2.97467	34.52
2.99133	34.52
3.00800	34.52
3.02467	34.51
3.04133	34.52
3.05800	34.52
3.07467	34.52
3.09133	34.51
3.10800	34.52
3.12467	34.52
3.14133	34.52
3.15800	34.52
3.17467	34.52
3.19133	34.52
3.20800	34.53
3.22467	34.52
3.24133	34.52
3.25800	34.52
3.27467	34.52
3.29133	34.52
3.30800	34.52
3.32467	34.51
3.34133	34.52
3.35800	34.52
3.37467	34.52
3.39133	34.52
3.40800	34.52
3.42467	34.52
3.44133	34.52
3.45800	34.52
3.47467	34.52
3.49133	34.52
3.50800	34.52
3.52467	34.51
3.54133	34.52
3.55800	34.52
3.57467	34.52
3.59133	34.52
3.60800	34.52
3.62467	34.52
3.64133	34.52
3.65800	34.52
3.67467	34.53
3.69133	34.53
3.70800	34.51
3.72467	34.52
3.74133	34.52
3.75800	34.52
3.77467	34.52
3.79133	34.52
3.80800	34.52
3.82467	34.53
3.84133	34.52
3.85800	34.51
3.87467	34.52
3.89133	34.52
3.90800	34.52
3.92467	34.52
3.94133	34.52
3.95800	34.52
3.97467	34.52
3.99133	34.52

[Status Trace (Column Flow)]
Interval(msec)	1000
# of Points	240
Start Time(min)	0.008
End Time(min)	3.991
Intensity Units	
Intensity Multiplier	1
R.Time (min)	Intensity
0.00800	5.51
0.02467	5.21
0.04133	5.41
0.05800	5.65
0.07467	5.69
0.09133	5.52
0.10800	5.51
0.12467	5.52
0.14133	5.52
0.15800	5.52
0.17467	5.52
0.19133	5.51
0.20800	5.51
0.22467	5.52
0.24133	5.52
0.25800	5.51
0.27467	5.52
0.29133	5.52
0.30800	5.52
0.32467	5.52
0.34133	5.52
0.35800	5.52
0.37467	5.52
0.39133	5.52
0.40800	5.52
0.42467	5.52
0.44133	5.52
0.45800	5.52
0.47467	5.52
0.49133	5.52
0.50800	5.52
0.52467	5.52
0.54133	5.52
0.55800	5.52
0.57467	5.52
0.59133	5.52
0.60800	5.52
0.62467	5.52
0.64133	5.52
0.65800	5.52
0.67467	5.52
0.69133	5.52
0.70800	5.52
0.72467	5.52
0.74133	5.52
0.75800	5.52
0.77467	5.52
0.79133	5.52
0.80800	5.52
0.82467	5.52
0.84133	5.52
0.85800	5.52
0.87467	5.52
0.89133	5.52
0.90800	5.52
0.92467	5.52
0.94133	5.52
0.95800	5.52
0.97467	5.52
0.99133	5.52
1.00800	5.52
1.02467	5.52
1.04133	5.52
1.05800	5.52
1.07467	5.52
1.09133	5.52
1.10800	5.52
1.12467	5.52
1.14133	5.52
1.15800	5.52
1.17467	5.52
1.19133	5.52
1.20800	5.52
1.22467	5.52
1.24133	5.52
1.25800	5.52
1.27467	5.52
1.29133	5.52
1.30800	5.52
1.32467	5.52
1.34133	5.52
1.35800	5.52
1.37467	5.52
1.39133	5.52
1.40800	5.52
1.42467	5.52
1.44133	5.52
1.45800	5.52
1.47467	5.52
1.49133	5.52
1.50800	5.52
1.52467	5.52
1.54133	5.52
1.55800	5.52
1.57467	5.52
1.59133	5.52
1.60800	5.51
1.62467	5.51
1.64133	5.50
1.65800	5.50
1.67467	5.49
1.69133	5.47
1.70800	5.46
1.72467	5.45
1.74133	5.44
1.75800	5.43
1.77467	5.42
1.79133	5.41
1.80800	5.40
1.82467	5.39
1.84133	5.38
1.85800	5.37
1.87467	5.36
1.89133	5.35
1.90800	5.34
1.92467	5.33
1.94133	5.32
1.95800	5.31
1.97467	5.30
1.99133	5.29
2.00800	5.28
2.02467	5.27
2.04133	5.26
2.05800	5.25
2.07467	5.24
2.09133	5.23
2.10800	5.23
2.12467	5.22
2.14133	5.21
2.15800	5.20
2.17467	5.19
2.19133	5.18
2.20800	5.17
2.22467	5.16
2.24133	5.15
2.25800	5.14
2.27467	5.13
2.29133	5.12
2.30800	5.11
2.32467	5.10
2.34133	5.09
2.35800	5.09
2.37467	5.08
2.39133	5.08
2.40800	5.08
2.42467	5.08
2.44133	5.08
2.45800	5.08
2.47467	5.08
2.49133	5.08
2.50800	5.08
2.52467	5.08
2.54133	5.08
2.55800	5.08
2.57467	5.08
2.59133	5.08
2.60800	5.08
2.62467	5.08
2.64133	5.08
2.65800	5.08
2.67467	5.08
2.69133	5.08
2.70800	5.08
2.72467	5.08
2.74133	5.08
2.75800	5.08
2.77467	5.08
2.79133	5.08
2.80800	5.08
2.82467	5.08
2.84133	5.08
2.85800	5.08
2.87467	5.07
2.89133	5.07
2.90800	5.07
2.92467	5.07
2.94133	5.07
2.95800	5.07
2.97467	5.07
2.99133	5.07
3.00800	5.07
3.02467	5.07
3.04133	5.07
3.05800	5.07
3.07467	5.07
3.09133	5.07
3.10800	5.07
3.12467	5.07
3.14133	5.07
3.15800	5.07
3.17467	5.07
3.19133	5.07
3.20800	5.07
3.22467	5.07
3.24133	5.07
3.25800	5.07
3.27467	5.07
3.29133	5.07
3.30800	5.07
3.32467	5.07
3.34133	5.07
3.35800	5.07
3.37467	5.07
3.39133	5.07
3.40800	5.07
3.42467	5.07
3.44133	5.07
3.45800	5.07
3.47467	5.07
3.49133	5.07
3.50800	5.07
3.52467	5.07
3.54133	5.07
3.55800	5.07
3.57467	5.07
3.59133	5.07
3.60800	5.07
3.62467	5.07
3.64133	5.07
3.65800	5.07
3.67467	5.07
3.69133	5.07
3.70800	5.07
3.72467	5.07
3.74133	5.07
3.75800	5.07
3.77467	5.07
3.79133	5.07
3.80800	5.07
3.82467	5.07
3.84133	5.07
3.85800	5.07
3.87467	5.07
3.89133	5.07
3.90800	5.07
3.92467	5.07
3.94133	5.07
3.95800	5.07
3.97467	5.07
3.99133	5.07

[Status Trace (Linear Velocity)]
Interval(msec)	1000
# of Points	240
Start Time(min)	0.008
End Time(min)	3.991
Intensity Units	
Intensity Multiplier	1
R.Time (min)	Intensity
0.00800	39.01
0.02467	37.29
0.04133	38.43
0.05800	39.78
0.07467	39.98
0.09133	39.06
0.10800	39.00
0.12467	39.02
0.14133	39.02
0.15800	39.02
0.17467	39.01
0.19133	39.01
0.20800	39.01
0.22467	39.01
0.24133	39.01
0.25800	39.01
0.27467	39.01
0.29133	39.01
0.30800	39.01
0.32467	39.02
0.34133	39.02
0.35800	39.01
0.37467	39.01
0.39133	39.02
0.40800	39.02
0.42467	39.02
0.44133	39.02
0.45800	39.02
0.47467	39.02
0.49133	39.02
0.50800	39.02
0.52467	39.02
0.54133	39.02
0.55800	39.02
0.57467	39.02
0.59133	39.02
0.60800	39.02
0.62467	39.02
0.64133	39.02
0.65800	39.02
0.67467	39.02
0.69133	39.02
0.70800	39.02
0.72467	39.02
0.74133	39.02
0.75800	39.02
0.77467	39.02
0.79133	39.01
0.80800	39.02
0.82467	39.01
0.84133	39.02
0.85800	39.02
0.87467	39.02
0.89133	39.02
0.90800	39.02
0.92467	39.02
0.94133	39.02
0.95800	39.02
0.97467	39.02
0.99133	39.02
1.00800	39.02
1.02467	39.02
1.04133	39.02
1.05800	39.02
1.07467	39.02
1.09133	39.02
1.10800	39.01
1.12467	39.02
1.14133	39.01
1.15800	39.02
1.17467	39.02
1.19133	39.02
1.20800	39.02
1.22467	39.02
1.24133	39.02
1.25800	39.02
1.27467	39.02
1.29133	39.02
1.30800	39.02
1.32467	39.02
1.34133	39.02
1.35800	39.02
1.37467	39.02
1.39133	39.02
1.40800	39.02
1.42467	39.02
1.44133	39.02
1.45800	39.02
1.47467	39.02
1.49133	39.02
1.50800	39.02
1.52467	39.02
1.54133	39.02
1.55800	39.02
1.57467	39.02
1.59133	39.02
1.60800	39.01
1.62467	39.00
1.64133	38.98
1.65800	38.96
1.67467	38.93
1.69133	38.89
1.70800	38.86
1.72467	38.82
1.74133	38.79
1.75800	38.76
1.77467	38.73
1.79133	38.70
1.80800	38.67
1.82467	38.63
1.84133	38.60
1.85800	38.57
1.87467	38.54
1.89133	38.51
1.90800	38.48
1.92467	38.45
1.94133	38.42
1.95800	38.39
1.97467	38.36
1.99133	38.32
2.00800	38.30
2.02467	38.26
2.04133	38.23
2.05800	38.21
2.07467	38.18
2.09133	38.14
2.10800	38.12
2.12467	38.09
2.14133	38.06
2.15800	38.03
2.17467	38.00
2.19133	37.97
2.20800	37.94
2.22467	37.91
2.24133	37.88
2.25800	37.85
2.27467	37.82
2.29133	37.79
2.30800	37.76
2.32467	37.73
2.34133	37.70
2.35800	37.68
2.37467	37.66
2.39133	37.65
2.40800	37.65
2.42467	37.66
2.44133	37.66
2.45800	37.65
2.47467	37.65
2.49133	37.65
2.50800	37.65
2.52467	37.64
2.54133	37.65
2.55800	37.65
2.57467	37.65
2.59133	37.65
2.60800	37.65
2.62467	37.65
2.64133	37.64
2.65800	37.64
2.67467	37.64
2.69133	37.64
2.70800	37.64
2.72467	37.64
2.74133	37.64
2.75800	37.64
2.77467	37.64
2.79133	37.64
2.80800	37.64
2.82467	37.64
2.84133	37.64
2.85800	37.64
2.87467	37.64
2.89133	37.64
2.90800	37.64
2.92467	37.63
2.94133	37.63
2.95800	37.63
2.97467	37.63
2.99133	37.63
3.00800	37.63
3.02467	37.63
3.04133	37.63
3.05800	37.63
3.07467	37.63
3.09133	37.63
3.10800	37.63
3.12467	37.63
3.14133	37.62
3.15800	37.62
3.17467	37.62
3.19133	37.62
3.20800	37.62
3.22467	37.62
3.24133	37.62
3.25800	37.62
3.27467	37.62
3.29133	37.63
3.30800	37.63
3.32467	37.63
3.34133	37.63
3.35800	37.63
3.37467	37.63
3.39133	37.63
3.40800	37.63
3.42467	37.63
3.44133	37.63
3.45800	37.63
3.47467	37.63
3.49133	37.63
3.50800	37.63
3.52467	37.63
3.54133	37.63
3.55800	37.63
3.57467	37.63
3.59133	37.63
3.60800	37.63
3.62467	37.63
3.64133	37.63
3.65800	37.63
3.67467	37.63
3.69133	37.63
3.70800	37.63
3.72467	37.63
3.74133	37.63
3.75800	37.63
3.77467	37.63
3.79133	37.63
3.80800	37.62
3.82467	37.63
3.84133	37.62
3.85800	37.62
3.87467	37.62
3.89133	37.62
3.90800	37.62
3.92467	37.62
3.94133	37.62
3.95800	37.62
3.97467	37.62
3.99133	37.62

