[Header]
Application Name	LabSolutions
Version	5.110
Data File Name	C:\Users\User\Desktop\Junior\UIC Prairie Sampling\2023\8.18.23\081823_013.gcd
Output Date	8/31/2023
Output Time	12:48:07 PM

[File Information]
Type	Data File
Generated	8/30/2023 5:30:01 PM
Generated by	System Administrator
Modified	8/30/2023 5:36:23 PM
Modified by	System Administrator

[Sample Information]
Operator Name	System Administrator
Acquired	8/30/2023 5:32:23 PM
Sample Type	0:Unknown
Level	0
Sample Name	013
Sample ID	013
ISTD Amount1	1
ISTD Amount2	1
ISTD Amount3	1
ISTD Amount4	1
ISTD Amount5	1
ISTD Amount6	1
ISTD Amount7	1
ISTD Amount8	1
ISTD Amount9	1
ISTD Amount10	1
ISTD Amount11	1
ISTD Amount12	1
ISTD Amount13	1
ISTD Amount14	1
ISTD Amount15	1
ISTD Amount16	1
ISTD Amount17	1
ISTD Amount18	1
ISTD Amount19	1
ISTD Amount20	1
ISTD Amount21	1
ISTD Amount22	1
ISTD Amount23	1
ISTD Amount24	1
ISTD Amount25	1
ISTD Amount26	1
ISTD Amount27	1
ISTD Amount28	1
ISTD Amount29	1
ISTD Amount30	1
ISTD Amount31	1
ISTD Amount32	1
Sample Amount	1
Dilution Factor	1
Vial#	12
Injection Volume	1
Injection Count	1
Bar Code	

[Original Files]
Data File	C:\Users\User\Desktop\Junior\UIC Prairie Sampling\8.18.23\081823_013.gcd
Method File	C:\LabSolutions\Data\GHG_4min_2022\ghg3_togas_w_acet_4 min_new_int.gcm
Batch File	C:\LabSolutions\Data\BATCH FILES\081823.gcb
Report Format File	c:\LabSolutions\System\DEFAULT.lsr

[File Description]


[Configuration]
Instrument Name	C0B7VH3-Instrument1
Instrument #	1
Line #	1
# of Detectors	3
Detector ID	DET#1	DET#2	DET#3
Detector Name	FID	PTCD	ECD
# of Channels	1	1	1

[Peak Table(Ch1)]
# of Peaks	3
Peak#	R.Time	I.Time	F.Time	Area	Height	A/H	Conc.	Mark	ID#	Name	k'	Plate #	Plate Ht.	Tailing	Resolution	Sep.Factor	Area Ratio	Height Ratio	Conc. %	Norm Conc.
1	1.472	1.432	1.527	3363	1700	1.979	0.000	   	1	CO	0.000	10067	14.900	1.379	0.000	0.000	0	0	0.000	0.000
2	1.564	1.527	1.630	4327	2210	1.958	21.096	 V 	2	CH4	0.062	11643	12.884	1.116	1.572	0.000	0	0	10.862	10.862
3	1.989	1.941	2.524	898282	429626	2.091	173.115	   	3	CO2	0.351	17544	8.550	1.301	7.207	5.640	0	0	89.138	89.138

[Peak Table(Ch2)]
# of Peaks	0

[Peak Table(Ch3)]
# of Peaks	5
Peak#	R.Time	I.Time	F.Time	Area	Height	A/H	Conc.	Mark	ID#	Name	k'	Plate #	Plate Ht.	Tailing	Resolution	Sep.Factor	Area Ratio	Height Ratio	Conc. %	Norm Conc.
1	2.458	2.440	2.506	694	273	2.539	0.000	   			0.000	15618	9.604	0.000	0.000	0.000	0	0	0.000	0.000
2	2.521	2.506	2.565	291	123	2.371	0.000	 V 			0.025	6942	21.609	0.000	0.624	0.000	0	0	0.000	0.000
3	2.620	2.565	2.693	385	104	3.695	0.000	 V 			0.066	10926	13.729	0.000	0.895	2.588	0	0	0.000	0.000
4	2.891	2.748	3.030	14630	4003	3.655	0.216	   	1	N2O	0.176	14010	10.707	1.473	2.741	2.682	0	0	100.000	100.000
5	3.206	3.118	3.995	21600	853	25.321	0.000	   	2	SF6	0.304	179	836.922	5.073	0.597	1.729	0	0	0.000	0.000

[Compound Results(Ch1)]
# of IDs	6
ID#	Name	R.Time	Area	Height	Conc.	Curve	3rd	2nd	1st	Constant	Area Ratio	Height Ratio	Conc. %	Norm Conc.
1	CO	1.472	3363	1700	0.000	Linear	0.000000e+00	0.000000e+00	0.000000e+00	0.000000e+00	0	0	0.000	0.000
2	CH4	1.564	4327	2210	21.096	Linear	0.000000e+00	0.000000e+00	2.051179e+002	0.000000e+00	0	0	10.862	10.862
3	CO2	1.989	898282	429626	173.115	Linear	0.000000e+00	0.000000e+00	5.188919e+003	0.000000e+00	0	0	89.138	89.138
4	Ethylene	0.000	0	0	0.000	Linear	0.000000e+00	0.000000e+00	0.000000e+00	0.000000e+00	0	0	0.000	0.000
5	Acetylene	0.000	0	0	0.000	Linear	0.000000e+00	0.000000e+00	0.000000e+00	0.000000e+00	0	0	0.000	0.000
6	Ethane	0.000	0	0	0.000	Linear	0.000000e+00	0.000000e+00	0.000000e+00	0.000000e+00	0	0	0.000	0.000

[Compound Results(Ch2)]
# of IDs	5
ID#	Name	R.Time	Area	Height	Conc.	Curve	3rd	2nd	1st	Constant	Area Ratio	Height Ratio	Conc. %	Norm Conc.
1	Hydrogen	0.000	0	0	0.000	Linear	0.000000e+00	0.000000e+00	0.000000e+00	0.000000e+00	0	0	0.000	0.000
2	Oxygen	0.000	0	0	0.000	Linear	0.000000e+00	0.000000e+00	0.000000e+00	0.000000e+00	0	0	0.000	0.000
3	Nitrogen	0.000	0	0	0.000	Linear	0.000000e+00	0.000000e+00	0.000000e+00	0.000000e+00	0	0	0.000	0.000
4	Methane	0.000	0	0	0.000	Linear	0.000000e+00	0.000000e+00	0.000000e+00	0.000000e+00	0	0	0.000	0.000
5	Carbon Monoxide	0.000	0	0	0.000	Linear	0.000000e+00	0.000000e+00	0.000000e+00	0.000000e+00	0	0	0.000	0.000

[Compound Results(Ch3)]
# of IDs	2
ID#	Name	R.Time	Area	Height	Conc.	Curve	3rd	2nd	1st	Constant	Area Ratio	Height Ratio	Conc. %	Norm Conc.
1	N2O	2.891	14630	4003	0.216	Linear	0.000000e+00	0.000000e+00	6.759880e+004	0.000000e+00	0	0	100.000	100.000
2	SF6	3.206	21600	853	0.000	Linear	0.000000e+00	0.000000e+00	0.000000e+00	0.000000e+00	0	0	0.000	0.000

[Group Results(Ch1)]
# of Groups	0

[Group Results(Ch2)]
# of Groups	0

[Group Results(Ch3)]
# of Groups	0

[Chromatogram (Ch1)]
Interval(msec)	220
# of Points	1091
Start Time(min)	0.002
End Time(min)	3.998
R.Time (min)	Intensity
0.00167	-10
0.00533	-14
0.00900	-16
0.01267	-19
0.01633	-22
0.02000	-21
0.02367	-18
0.02733	-16
0.03100	-16
0.03467	-16
0.03833	-16
0.04200	-16
0.04567	-17
0.04933	-20
0.05300	-24
0.05667	-26
0.06033	-26
0.06400	-25
0.06767	-23
0.07133	-20
0.07500	-17
0.07867	-11
0.08233	-1
0.08600	10
0.08967	19
0.09333	22
0.09700	25
0.10067	27
0.10433	29
0.10800	29
0.11167	26
0.11533	25
0.11900	22
0.12267	20
0.12633	17
0.13000	18
0.13367	18
0.13733	16
0.14100	14
0.14467	14
0.14833	15
0.15200	14
0.15567	11
0.15933	8
0.16300	6
0.16667	3
0.17033	0
0.17400	-2
0.17767	-3
0.18133	-2
0.18500	-1
0.18867	2
0.19233	3
0.19600	4
0.19967	3
0.20333	-3
0.20700	-11
0.21067	-15
0.21433	-15
0.21800	-13
0.22167	-9
0.22533	-5
0.22900	-4
0.23267	-5
0.23633	-6
0.24000	-8
0.24367	-8
0.24733	-6
0.25100	-1
0.25467	1
0.25833	-3
0.26200	-6
0.26567	-10
0.26933	-15
0.27300	-17
0.27667	-18
0.28033	-21
0.28400	-24
0.28767	-26
0.29133	-24
0.29500	-23
0.29867	-20
0.30233	-16
0.30600	-14
0.30967	-13
0.31333	-11
0.31700	-9
0.32067	-11
0.32433	-17
0.32800	-24
0.33167	-30
0.33533	-32
0.33900	-29
0.34267	-23
0.34633	-14
0.35000	-3
0.35367	4
0.35733	8
0.36100	9
0.36467	7
0.36833	4
0.37200	0
0.37567	-3
0.37933	-4
0.38300	-3
0.38667	1
0.39033	7
0.39400	10
0.39767	6
0.40133	1
0.40500	-3
0.40867	-6
0.41233	-8
0.41600	-8
0.41967	-6
0.42333	-4
0.42700	-2
0.43067	-3
0.43433	-5
0.43800	-5
0.44167	-2
0.44533	5
0.44900	11
0.45267	14
0.45633	12
0.46000	9
0.46367	5
0.46733	1
0.47100	1
0.47467	8
0.47833	16
0.48200	24
0.48567	29
0.48933	31
0.49300	31
0.49667	27
0.50033	22
0.50400	20
0.50767	21
0.51133	21
0.51500	22
0.51867	26
0.52233	33
0.52600	38
0.52967	42
0.53333	44
0.53700	43
0.54067	40
0.54433	36
0.54800	33
0.55167	32
0.55533	30
0.55900	30
0.56267	34
0.56633	40
0.57000	48
0.57367	53
0.57733	53
0.58100	49
0.58467	44
0.58833	38
0.59200	31
0.59567	24
0.59933	16
0.60300	11
0.60667	10
0.61033	11
0.61400	12
0.61767	13
0.62133	10
0.62500	7
0.62867	6
0.63233	5
0.63600	3
0.63967	1
0.64333	-2
0.64700	-5
0.65067	-6
0.65433	-5
0.65800	-1
0.66167	1
0.66533	0
0.66900	-2
0.67267	-7
0.67633	-12
0.68000	-16
0.68367	-18
0.68733	-19
0.69100	-17
0.69467	-15
0.69833	-12
0.70200	-9
0.70567	-9
0.70933	-13
0.71300	-20
0.71667	-28
0.72033	-32
0.72400	-32
0.72767	-29
0.73133	-23
0.73500	-15
0.73867	-12
0.74233	-15
0.74600	-19
0.74967	-24
0.75333	-28
0.75700	-32
0.76067	-38
0.76433	-42
0.76800	-42
0.77167	-36
0.77533	-32
0.77900	-31
0.78267	-34
0.78633	-35
0.79000	-35
0.79367	-31
0.79733	-26
0.80100	-21
0.80467	-15
0.80833	-10
0.81200	-4
0.81567	0
0.81933	1
0.82300	-1
0.82667	-6
0.83033	-13
0.83400	-21
0.83767	-28
0.84133	-30
0.84500	-31
0.84867	-31
0.85233	-28
0.85600	-23
0.85967	-20
0.86333	-15
0.86700	-10
0.87067	-4
0.87433	-1
0.87800	-2
0.88167	-2
0.88533	-4
0.88900	-10
0.89267	-19
0.89633	-27
0.90000	-33
0.90367	-34
0.90733	-29
0.91100	-27
0.91467	-33
0.91833	-39
0.92200	-44
0.92567	-46
0.92933	-44
0.93300	-40
0.93667	-34
0.94033	-30
0.94400	-27
0.94767	-22
0.95133	-19
0.95500	-19
0.95867	-19
0.96233	-23
0.96600	-26
0.96967	-27
0.97333	-26
0.97700	-27
0.98067	-30
0.98433	-33
0.98800	-36
0.99167	-38
0.99533	-39
0.99900	-39
1.00267	-36
1.00633	-31
1.01000	-31
1.01367	-32
1.01733	-33
1.02100	-33
1.02467	-33
1.02833	-36
1.03200	-40
1.03567	-42
1.03933	-39
1.04300	-32
1.04667	-25
1.05033	-20
1.05400	-18
1.05767	-19
1.06133	-22
1.06500	-26
1.06867	-31
1.07233	-35
1.07600	-41
1.07967	-46
1.08333	-49
1.08700	-50
1.09067	-47
1.09433	-43
1.09800	-41
1.10167	-39
1.10533	-38
1.10900	-38
1.11267	-39
1.11633	-41
1.12000	-45
1.12367	-49
1.12733	-53
1.13100	-56
1.13467	-56
1.13833	-52
1.14200	-50
1.14567	-46
1.14933	-41
1.15300	-35
1.15667	-31
1.16033	-31
1.16400	-32
1.16767	-33
1.17133	-35
1.17500	-37
1.17867	-38
1.18233	-44
1.18600	-52
1.18967	-57
1.19333	-59
1.19700	-57
1.20067	-55
1.20433	-50
1.20800	-45
1.21167	-42
1.21533	-42
1.21900	-43
1.22267	-44
1.22633	-47
1.23000	-50
1.23367	-50
1.23733	-48
1.24100	-44
1.24467	-38
1.24833	-35
1.25200	-36
1.25567	-39
1.25933	-44
1.26300	-48
1.26667	-53
1.27033	-60
1.27400	-65
1.27767	-69
1.28133	-71
1.28500	-70
1.28867	-68
1.29233	-68
1.29600	-64
1.29967	-61
1.30333	-62
1.30700	-63
1.31067	-62
1.31433	-57
1.31800	-51
1.32167	-47
1.32533	-45
1.32900	-45
1.33267	-46
1.33633	-49
1.34000	-52
1.34367	-56
1.34733	-58
1.35100	-57
1.35467	-55
1.35833	-53
1.36200	-55
1.36567	-58
1.36933	-57
1.37300	-56
1.37667	-53
1.38033	-51
1.38400	-54
1.38767	-58
1.39133	-59
1.39500	-62
1.39867	-64
1.40233	-65
1.40600	-65
1.40967	-65
1.41333	-65
1.41700	-65
1.42067	-64
1.42433	-61
1.42800	-59
1.43167	-55
1.43533	-44
1.43900	-32
1.44267	-38
1.44633	-20
1.45000	114
1.45367	386
1.45733	720
1.46100	1044
1.46467	1324
1.46833	1537
1.47200	1648
1.47567	1623
1.47933	1467
1.48300	1221
1.48667	948
1.49033	700
1.49400	500
1.49767	347
1.50133	232
1.50500	149
1.50867	91
1.51233	53
1.51600	27
1.51967	7
1.52333	-8
1.52700	-15
1.53067	-11
1.53433	29
1.53800	160
1.54167	435
1.54533	833
1.54900	1265
1.55267	1655
1.55633	1953
1.56000	2134
1.56367	2166
1.56733	2028
1.57100	1745
1.57467	1383
1.57833	1024
1.58200	715
1.58567	474
1.58933	297
1.59300	174
1.59667	95
1.60033	46
1.60400	17
1.60767	-0
1.61133	-12
1.61500	-21
1.61867	-25
1.62233	-29
1.62600	-33
1.62967	-38
1.63333	-43
1.63700	-47
1.64067	-47
1.64433	-44
1.64800	-42
1.65167	-44
1.65533	-50
1.65900	-59
1.66267	-66
1.66633	-72
1.67000	-79
1.67367	-83
1.67733	-84
1.68100	-83
1.68467	-83
1.68833	-84
1.69200	-86
1.69567	-88
1.69933	-91
1.70300	-91
1.70667	-86
1.71033	-76
1.71400	-67
1.71767	-61
1.72133	-59
1.72500	-56
1.72867	-52
1.73233	-49
1.73600	-49
1.73967	-52
1.74333	-57
1.74700	-64
1.75067	-69
1.75433	-69
1.75800	-66
1.76167	-63
1.76533	-61
1.76900	-61
1.77267	-63
1.77633	-65
1.78000	-68
1.78367	-73
1.78733	-77
1.79100	-77
1.79467	-73
1.79833	-68
1.80200	-65
1.80567	-61
1.80933	-60
1.81300	-64
1.81667	-69
1.82033	-73
1.82400	-77
1.82767	-80
1.83133	-79
1.83500	-75
1.83867	-69
1.84233	-65
1.84600	-63
1.84967	-63
1.85333	-63
1.85700	-62
1.86067	-64
1.86433	-65
1.86800	-65
1.87167	-64
1.87533	-63
1.87900	-63
1.88267	-60
1.88633	-53
1.89000	-47
1.89367	-45
1.89733	-48
1.90100	-58
1.90467	-70
1.90833	-82
1.91200	-89
1.91567	-92
1.91933	-92
1.92300	-89
1.92667	-86
1.93033	-81
1.93400	-73
1.93767	-68
1.94133	-66
1.94500	-56
1.94867	15
1.95233	421
1.95600	2284
1.95967	8785
1.96333	26037
1.96700	61597
1.97067	119516
1.97433	195506
1.97800	277596
1.98167	351445
1.98533	404819
1.98900	429577
1.99267	422457
1.99633	386316
2.00000	330017
2.00367	265254
2.00733	202579
2.01100	148732
2.01467	106244
2.01833	74690
2.02200	52220
2.02567	36660
2.02933	26065
2.03300	18907
2.03667	14075
2.04033	10791
2.04400	8531
2.04767	6948
2.05133	5813
2.05500	4980
2.05867	4355
2.06233	3871
2.06600	3485
2.06967	3171
2.07333	2911
2.07700	2692
2.08067	2503
2.08433	2335
2.08800	2186
2.09167	2055
2.09533	1940
2.09900	1840
2.10267	1753
2.10633	1677
2.11000	1606
2.11367	1540
2.11733	1474
2.12100	1410
2.12467	1348
2.12833	1290
2.13200	1235
2.13567	1186
2.13933	1141
2.14300	1097
2.14667	1056
2.15033	1019
2.15400	987
2.15767	954
2.16133	918
2.16500	884
2.16867	856
2.17233	836
2.17600	820
2.17967	804
2.18333	782
2.18700	758
2.19067	733
2.19433	711
2.19800	689
2.20167	664
2.20533	640
2.20900	620
2.21267	605
2.21633	592
2.22000	580
2.22367	571
2.22733	562
2.23100	547
2.23467	530
2.23833	516
2.24200	508
2.24567	504
2.24933	499
2.25300	493
2.25667	483
2.26033	468
2.26400	450
2.26767	429
2.27133	412
2.27500	402
2.27867	395
2.28233	392
2.28600	389
2.28967	382
2.29333	374
2.29700	368
2.30067	362
2.30433	356
2.30800	348
2.31167	343
2.31533	341
2.31900	337
2.32267	332
2.32633	326
2.33000	319
2.33367	312
2.33733	303
2.34100	293
2.34467	286
2.34833	282
2.35200	277
2.35567	270
2.35933	267
2.36300	266
2.36667	264
2.37033	262
2.37400	259
2.37767	258
2.38133	256
2.38500	250
2.38867	243
2.39233	238
2.39600	234
2.39967	228
2.40333	224
2.40700	223
2.41067	222
2.41433	223
2.41800	222
2.42167	217
2.42533	208
2.42900	202
2.43267	201
2.43633	200
2.44000	200
2.44367	201
2.44733	202
2.45100	202
2.45467	200
2.45833	190
2.46200	177
2.46567	168
2.46933	163
2.47300	160
2.47667	159
2.48033	160
2.48400	163
2.48767	165
2.49133	165
2.49500	164
2.49867	163
2.50233	159
2.50600	154
2.50967	150
2.51333	147
2.51700	145
2.52067	145
2.52433	144
2.52800	139
2.53167	134
2.53533	131
2.53900	131
2.54267	131
2.54633	133
2.55000	134
2.55367	133
2.55733	133
2.56100	129
2.56467	123
2.56833	123
2.57200	126
2.57567	127
2.57933	122
2.58300	117
2.58667	111
2.59033	105
2.59400	101
2.59767	103
2.60133	107
2.60500	107
2.60867	104
2.61233	100
2.61600	97
2.61967	98
2.62333	100
2.62700	101
2.63067	99
2.63433	94
2.63800	88
2.64167	82
2.64533	78
2.64900	76
2.65267	75
2.65633	75
2.66000	74
2.66367	70
2.66733	65
2.67100	61
2.67467	63
2.67833	71
2.68200	79
2.68567	83
2.68933	79
2.69300	71
2.69667	65
2.70033	63
2.70400	64
2.70767	68
2.71133	75
2.71500	81
2.71867	88
2.72233	95
2.72600	94
2.72967	82
2.73333	69
2.73700	62
2.74067	59
2.74433	60
2.74800	60
2.75167	59
2.75533	53
2.75900	45
2.76267	38
2.76633	34
2.77000	36
2.77367	40
2.77733	43
2.78100	43
2.78467	41
2.78833	36
2.79200	33
2.79567	35
2.79933	41
2.80300	46
2.80667	50
2.81033	51
2.81400	48
2.81767	47
2.82133	48
2.82500	49
2.82867	52
2.83233	50
2.83600	44
2.83967	37
2.84333	32
2.84700	31
2.85067	34
2.85433	41
2.85800	50
2.86167	55
2.86533	55
2.86900	52
2.87267	47
2.87633	43
2.88000	40
2.88367	38
2.88733	37
2.89100	36
2.89467	34
2.89833	32
2.90200	30
2.90567	29
2.90933	31
2.91300	36
2.91667	38
2.92033	37
2.92400	35
2.92767	34
2.93133	34
2.93500	31
2.93867	27
2.94233	27
2.94600	28
2.94967	31
2.95333	32
2.95700	28
2.96067	24
2.96433	23
2.96800	24
2.97167	27
2.97533	32
2.97900	35
2.98267	40
2.98633	46
2.99000	51
2.99367	50
2.99733	47
3.00100	43
3.00467	38
3.00833	31
3.01200	24
3.01567	18
3.01933	12
3.02300	7
3.02667	6
3.03033	7
3.03400	9
3.03767	14
3.04133	19
3.04500	25
3.04867	29
3.05233	28
3.05600	24
3.05967	21
3.06333	19
3.06700	18
3.07067	19
3.07433	20
3.07800	21
3.08167	25
3.08533	28
3.08900	30
3.09267	30
3.09633	28
3.10000	25
3.10367	20
3.10733	17
3.11100	17
3.11467	17
3.11833	14
3.12200	10
3.12567	8
3.12933	7
3.13300	6
3.13667	1
3.14033	-0
3.14400	1
3.14767	-2
3.15133	-7
3.15500	-12
3.15867	-13
3.16233	-10
3.16600	-6
3.16967	-3
3.17333	1
3.17700	5
3.18067	9
3.18433	11
3.18800	11
3.19167	9
3.19533	5
3.19900	1
3.20267	-1
3.20633	-1
3.21000	-2
3.21367	-2
3.21733	-1
3.22100	1
3.22467	1
3.22833	5
3.23200	8
3.23567	11
3.23933	14
3.24300	16
3.24667	18
3.25033	20
3.25400	20
3.25767	20
3.26133	24
3.26500	29
3.26867	30
3.27233	28
3.27600	23
3.27967	20
3.28333	17
3.28700	17
3.29067	13
3.29433	7
3.29800	1
3.30167	-5
3.30533	-13
3.30900	-20
3.31267	-26
3.31633	-29
3.32000	-28
3.32367	-24
3.32733	-19
3.33100	-15
3.33467	-10
3.33833	-5
3.34200	-1
3.34567	1
3.34933	2
3.35300	4
3.35667	6
3.36033	6
3.36400	3
3.36767	-2
3.37133	-7
3.37500	-9
3.37867	-9
3.38233	-7
3.38600	-5
3.38967	-3
3.39333	-4
3.39700	-5
3.40067	-5
3.40433	-2
3.40800	1
3.41167	3
3.41533	7
3.41900	9
3.42267	8
3.42633	6
3.43000	5
3.43367	5
3.43733	5
3.44100	5
3.44467	5
3.44833	4
3.45200	1
3.45567	-4
3.45933	-11
3.46300	-18
3.46667	-22
3.47033	-20
3.47400	-16
3.47767	-12
3.48133	-8
3.48500	-5
3.48867	-1
3.49233	0
3.49600	-0
3.49967	1
3.50333	3
3.50700	4
3.51067	5
3.51433	5
3.51800	6
3.52167	4
3.52533	-1
3.52900	-6
3.53267	-6
3.53633	-1
3.54000	5
3.54367	7
3.54733	7
3.55100	7
3.55467	4
3.55833	-1
3.56200	-7
3.56567	-10
3.56933	-10
3.57300	-9
3.57667	-7
3.58033	-5
3.58400	-6
3.58767	-8
3.59133	-6
3.59500	-3
3.59867	-3
3.60233	-5
3.60600	-5
3.60967	-4
3.61333	-4
3.61700	-6
3.62067	-9
3.62433	-13
3.62800	-14
3.63167	-14
3.63533	-14
3.63900	-16
3.64267	-20
3.64633	-24
3.65000	-26
3.65367	-26
3.65733	-25
3.66100	-22
3.66467	-20
3.66833	-15
3.67200	-12
3.67567	-12
3.67933	-14
3.68300	-17
3.68667	-20
3.69033	-25
3.69400	-28
3.69767	-28
3.70133	-26
3.70500	-23
3.70867	-22
3.71233	-21
3.71600	-24
3.71967	-26
3.72333	-25
3.72700	-26
3.73067	-26
3.73433	-28
3.73800	-31
3.74167	-37
3.74533	-41
3.74900	-41
3.75267	-40
3.75633	-38
3.76000	-31
3.76367	-22
3.76733	-12
3.77100	-4
3.77467	0
3.77833	-0
3.78200	-4
3.78567	-10
3.78933	-13
3.79300	-16
3.79667	-18
3.80033	-18
3.80400	-17
3.80767	-13
3.81133	-9
3.81500	-8
3.81867	-11
3.82233	-13
3.82600	-17
3.82967	-23
3.83333	-28
3.83700	-30
3.84067	-29
3.84433	-27
3.84800	-25
3.85167	-22
3.85533	-21
3.85900	-21
3.86267	-19
3.86633	-19
3.87000	-22
3.87367	-22
3.87733	-23
3.88100	-23
3.88467	-21
3.88833	-20
3.89200	-22
3.89567	-25
3.89933	-27
3.90300	-24
3.90667	-19
3.91033	-17
3.91400	-15
3.91767	-14
3.92133	-19
3.92500	-29
3.92867	-35
3.93233	-38
3.93600	-38
3.93967	-36
3.94333	-34
3.94700	-30
3.95067	-25
3.95433	-21
3.95800	-19
3.96167	-19
3.96533	-20
3.96900	-22
3.97267	-27
3.97633	-31
3.98000	-35
3.98367	-41
3.98733	-49
3.99100	-55
3.99467	-58
3.99833	-55

[Chromatogram (Ch2)]
Interval(msec)	220
# of Points	1091
Start Time(min)	0.002
End Time(min)	3.998
R.Time (min)	Intensity
0.00167	0
0.00533	1
0.00900	1
0.01267	1
0.01633	1
0.02000	1
0.02367	1
0.02733	1
0.03100	1
0.03467	1
0.03833	1
0.04200	2
0.04567	2
0.04933	2
0.05300	2
0.05667	2
0.06033	2
0.06400	1
0.06767	1
0.07133	1
0.07500	1
0.07867	1
0.08233	1
0.08600	2
0.08967	2
0.09333	2
0.09700	2
0.10067	2
0.10433	2
0.10800	2
0.11167	2
0.11533	2
0.11900	2
0.12267	3
0.12633	3
0.13000	3
0.13367	3
0.13733	3
0.14100	3
0.14467	3
0.14833	3
0.15200	3
0.15567	3
0.15933	3
0.16300	3
0.16667	2
0.17033	2
0.17400	2
0.17767	2
0.18133	2
0.18500	2
0.18867	2
0.19233	2
0.19600	2
0.19967	2
0.20333	2
0.20700	2
0.21067	2
0.21433	1
0.21800	1
0.22167	1
0.22533	1
0.22900	1
0.23267	1
0.23633	0
0.24000	0
0.24367	0
0.24733	-0
0.25100	-0
0.25467	0
0.25833	0
0.26200	0
0.26567	1
0.26933	1
0.27300	1
0.27667	1
0.28033	1
0.28400	1
0.28767	1
0.29133	1
0.29500	1
0.29867	1
0.30233	1
0.30600	0
0.30967	0
0.31333	0
0.31700	-0
0.32067	-0
0.32433	0
0.32800	0
0.33167	0
0.33533	0
0.33900	0
0.34267	-0
0.34633	-0
0.35000	-0
0.35367	-0
0.35733	-0
0.36100	0
0.36467	0
0.36833	0
0.37200	0
0.37567	0
0.37933	0
0.38300	0
0.38667	0
0.39033	0
0.39400	1
0.39767	1
0.40133	1
0.40500	1
0.40867	2
0.41233	2
0.41600	2
0.41967	2
0.42333	2
0.42700	1
0.43067	1
0.43433	1
0.43800	1
0.44167	1
0.44533	1
0.44900	1
0.45267	1
0.45633	1
0.46000	1
0.46367	1
0.46733	1
0.47100	1
0.47467	1
0.47833	1
0.48200	1
0.48567	0
0.48933	0
0.49300	-0
0.49667	-1
0.50033	-1
0.50400	-1
0.50767	-1
0.51133	-1
0.51500	-1
0.51867	-1
0.52233	-1
0.52600	-1
0.52967	-1
0.53333	-1
0.53700	-0
0.54067	-0
0.54433	-0
0.54800	-0
0.55167	-0
0.55533	0
0.55900	0
0.56267	0
0.56633	0
0.57000	0
0.57367	0
0.57733	-0
0.58100	-0
0.58467	-0
0.58833	-0
0.59200	0
0.59567	0
0.59933	0
0.60300	1
0.60667	1
0.61033	1
0.61400	1
0.61767	1
0.62133	1
0.62500	1
0.62867	1
0.63233	1
0.63600	1
0.63967	1
0.64333	1
0.64700	1
0.65067	0
0.65433	0
0.65800	0
0.66167	1
0.66533	1
0.66900	0
0.67267	0
0.67633	0
0.68000	0
0.68367	0
0.68733	0
0.69100	0
0.69467	0
0.69833	-0
0.70200	-0
0.70567	-0
0.70933	-0
0.71300	-0
0.71667	-0
0.72033	0
0.72400	0
0.72767	0
0.73133	0
0.73500	0
0.73867	0
0.74233	0
0.74600	0
0.74967	1
0.75333	1
0.75700	1
0.76067	1
0.76433	1
0.76800	1
0.77167	2
0.77533	2
0.77900	1
0.78267	1
0.78633	1
0.79000	1
0.79367	0
0.79733	0
0.80100	-0
0.80467	-0
0.80833	-0
0.81200	-1
0.81567	-1
0.81933	-1
0.82300	-1
0.82667	-1
0.83033	-1
0.83400	-1
0.83767	-1
0.84133	-1
0.84500	-0
0.84867	-0
0.85233	-0
0.85600	-0
0.85967	-0
0.86333	-0
0.86700	-0
0.87067	-1
0.87433	-1
0.87800	-1
0.88167	-1
0.88533	-1
0.88900	-1
0.89267	-1
0.89633	-0
0.90000	-0
0.90367	-0
0.90733	-0
0.91100	-0
0.91467	-0
0.91833	-0
0.92200	-0
0.92567	-0
0.92933	-0
0.93300	-0
0.93667	-0
0.94033	-0
0.94400	-1
0.94767	-1
0.95133	-1
0.95500	-1
0.95867	-1
0.96233	-1
0.96600	-1
0.96967	-1
0.97333	-1
0.97700	-1
0.98067	-1
0.98433	-1
0.98800	-1
0.99167	-1
0.99533	-1
0.99900	-0
1.00267	-0
1.00633	-0
1.01000	-0
1.01367	0
1.01733	0
1.02100	0
1.02467	0
1.02833	1
1.03200	1
1.03567	1
1.03933	1
1.04300	1
1.04667	1
1.05033	1
1.05400	1
1.05767	1
1.06133	0
1.06500	0
1.06867	0
1.07233	0
1.07600	0
1.07967	0
1.08333	0
1.08700	0
1.09067	0
1.09433	0
1.09800	0
1.10167	0
1.10533	0
1.10900	0
1.11267	0
1.11633	0
1.12000	-0
1.12367	-0
1.12733	-0
1.13100	-0
1.13467	-0
1.13833	-0
1.14200	-1
1.14567	-1
1.14933	-1
1.15300	-1
1.15667	-1
1.16033	-1
1.16400	-1
1.16767	-1
1.17133	-1
1.17500	-1
1.17867	-1
1.18233	-1
1.18600	-2
1.18967	-2
1.19333	-2
1.19700	-1
1.20067	-1
1.20433	-1
1.20800	-1
1.21167	-1
1.21533	-1
1.21900	-1
1.22267	-1
1.22633	-1
1.23000	-1
1.23367	-1
1.23733	-1
1.24100	-2
1.24467	-2
1.24833	-1
1.25200	-1
1.25567	-1
1.25933	-1
1.26300	-1
1.26667	-1
1.27033	-1
1.27400	-1
1.27767	-1
1.28133	-1
1.28500	-1
1.28867	-1
1.29233	-1
1.29600	-1
1.29967	-1
1.30333	-1
1.30700	-1
1.31067	-1
1.31433	-1
1.31800	-1
1.32167	-1
1.32533	-1
1.32900	-1
1.33267	-1
1.33633	-0
1.34000	0
1.34367	0
1.34733	0
1.35100	0
1.35467	1
1.35833	1
1.36200	0
1.36567	0
1.36933	0
1.37300	0
1.37667	0
1.38033	0
1.38400	0
1.38767	0
1.39133	0
1.39500	1
1.39867	1
1.40233	1
1.40600	1
1.40967	1
1.41333	1
1.41700	0
1.42067	0
1.42433	-0
1.42800	-0
1.43167	0
1.43533	0
1.43900	0
1.44267	1
1.44633	1
1.45000	1
1.45367	1
1.45733	1
1.46100	0
1.46467	0
1.46833	-0
1.47200	-0
1.47567	-0
1.47933	-0
1.48300	-0
1.48667	-0
1.49033	-0
1.49400	-0
1.49767	-0
1.50133	-1
1.50500	-1
1.50867	-1
1.51233	-1
1.51600	-2
1.51967	-2
1.52333	-2
1.52700	-2
1.53067	-2
1.53433	-2
1.53800	-2
1.54167	-2
1.54533	-2
1.54900	-1
1.55267	-1
1.55633	-1
1.56000	-2
1.56367	-1
1.56733	-1
1.57100	-1
1.57467	-1
1.57833	-1
1.58200	-1
1.58567	-1
1.58933	-1
1.59300	-2
1.59667	-2
1.60033	-3
1.60400	-4
1.60767	-6
1.61133	-7
1.61500	-9
1.61867	-11
1.62233	-13
1.62600	-16
1.62967	-19
1.63333	-22
1.63700	-25
1.64067	-28
1.64433	-31
1.64800	-34
1.65167	-38
1.65533	-41
1.65900	-45
1.66267	-49
1.66633	-53
1.67000	-58
1.67367	-62
1.67733	-67
1.68100	-72
1.68467	-76
1.68833	-80
1.69200	-84
1.69567	-86
1.69933	-88
1.70300	-90
1.70667	-91
1.71033	-92
1.71400	-92
1.71767	-93
1.72133	-94
1.72500	-95
1.72867	-95
1.73233	-96
1.73600	-96
1.73967	-96
1.74333	-97
1.74700	-97
1.75067	-96
1.75433	-96
1.75800	-96
1.76167	-95
1.76533	-95
1.76900	-95
1.77267	-95
1.77633	-95
1.78000	-96
1.78367	-97
1.78733	-97
1.79100	-98
1.79467	-98
1.79833	-98
1.80200	-97
1.80567	-98
1.80933	-98
1.81300	-98
1.81667	-98
1.82033	-98
1.82400	-99
1.82767	-99
1.83133	-99
1.83500	-99
1.83867	-99
1.84233	-98
1.84600	-98
1.84967	-98
1.85333	-97
1.85700	-98
1.86067	-98
1.86433	-98
1.86800	-98
1.87167	-98
1.87533	-98
1.87900	-99
1.88267	-99
1.88633	-99
1.89000	-99
1.89367	-99
1.89733	-98
1.90100	-98
1.90467	-98
1.90833	-98
1.91200	-97
1.91567	-97
1.91933	-97
1.92300	-96
1.92667	-95
1.93033	-95
1.93400	-94
1.93767	-93
1.94133	-93
1.94500	-92
1.94867	-92
1.95233	-92
1.95600	-92
1.95967	-92
1.96333	-92
1.96700	-92
1.97067	-92
1.97433	-92
1.97800	-92
1.98167	-92
1.98533	-91
1.98900	-91
1.99267	-91
1.99633	-90
2.00000	-90
2.00367	-90
2.00733	-90
2.01100	-90
2.01467	-90
2.01833	-90
2.02200	-89
2.02567	-89
2.02933	-88
2.03300	-88
2.03667	-88
2.04033	-88
2.04400	-88
2.04767	-88
2.05133	-88
2.05500	-88
2.05867	-88
2.06233	-88
2.06600	-88
2.06967	-88
2.07333	-87
2.07700	-87
2.08067	-87
2.08433	-86
2.08800	-86
2.09167	-85
2.09533	-84
2.09900	-83
2.10267	-83
2.10633	-83
2.11000	-82
2.11367	-82
2.11733	-82
2.12100	-81
2.12467	-81
2.12833	-81
2.13200	-82
2.13567	-82
2.13933	-82
2.14300	-82
2.14667	-82
2.15033	-82
2.15400	-82
2.15767	-82
2.16133	-82
2.16500	-82
2.16867	-81
2.17233	-81
2.17600	-81
2.17967	-80
2.18333	-80
2.18700	-79
2.19067	-79
2.19433	-78
2.19800	-78
2.20167	-77
2.20533	-77
2.20900	-77
2.21267	-77
2.21633	-77
2.22000	-77
2.22367	-76
2.22733	-76
2.23100	-75
2.23467	-74
2.23833	-73
2.24200	-73
2.24567	-72
2.24933	-71
2.25300	-71
2.25667	-71
2.26033	-71
2.26400	-71
2.26767	-70
2.27133	-70
2.27500	-70
2.27867	-70
2.28233	-69
2.28600	-69
2.28967	-69
2.29333	-68
2.29700	-68
2.30067	-68
2.30433	-67
2.30800	-67
2.31167	-67
2.31533	-67
2.31900	-67
2.32267	-67
2.32633	-67
2.33000	-67
2.33367	-66
2.33733	-66
2.34100	-66
2.34467	-65
2.34833	-65
2.35200	-64
2.35567	-64
2.35933	-63
2.36300	-62
2.36667	-61
2.37033	-59
2.37400	-57
2.37767	-54
2.38133	-51
2.38500	-47
2.38867	-43
2.39233	-39
2.39600	-35
2.39967	-31
2.40333	-27
2.40700	-23
2.41067	-20
2.41433	-16
2.41800	-13
2.42167	-10
2.42533	-7
2.42900	-4
2.43267	-2
2.43633	0
2.44000	2
2.44367	4
2.44733	6
2.45100	7
2.45467	8
2.45833	8
2.46200	8
2.46567	9
2.46933	9
2.47300	10
2.47667	11
2.48033	12
2.48400	13
2.48767	14
2.49133	14
2.49500	15
2.49867	15
2.50233	16
2.50600	17
2.50967	18
2.51333	18
2.51700	19
2.52067	19
2.52433	20
2.52800	20
2.53167	19
2.53533	19
2.53900	19
2.54267	19
2.54633	19
2.55000	18
2.55367	17
2.55733	16
2.56100	15
2.56467	14
2.56833	14
2.57200	14
2.57567	14
2.57933	14
2.58300	14
2.58667	14
2.59033	14
2.59400	15
2.59767	15
2.60133	16
2.60500	16
2.60867	17
2.61233	17
2.61600	18
2.61967	18
2.62333	19
2.62700	19
2.63067	19
2.63433	20
2.63800	20
2.64167	20
2.64533	20
2.64900	21
2.65267	21
2.65633	22
2.66000	22
2.66367	22
2.66733	23
2.67100	23
2.67467	23
2.67833	24
2.68200	24
2.68567	24
2.68933	24
2.69300	25
2.69667	25
2.70033	25
2.70400	26
2.70767	26
2.71133	26
2.71500	26
2.71867	27
2.72233	27
2.72600	28
2.72967	28
2.73333	28
2.73700	28
2.74067	27
2.74433	27
2.74800	26
2.75167	26
2.75533	26
2.75900	26
2.76267	26
2.76633	26
2.77000	26
2.77367	26
2.77733	27
2.78100	27
2.78467	28
2.78833	28
2.79200	28
2.79567	29
2.79933	29
2.80300	29
2.80667	29
2.81033	30
2.81400	30
2.81767	29
2.82133	29
2.82500	29
2.82867	29
2.83233	29
2.83600	29
2.83967	29
2.84333	28
2.84700	28
2.85067	28
2.85433	27
2.85800	25
2.86167	22
2.86533	17
2.86900	9
2.87267	-3
2.87633	-20
2.88000	-41
2.88367	-68
2.88733	-100
2.89100	-138
2.89467	-181
2.89833	-229
2.90200	-282
2.90567	-339
2.90933	-398
2.91300	-461
2.91667	-525
2.92033	-590
2.92400	-655
2.92767	-719
2.93133	-781
2.93500	-840
2.93867	-896
2.94233	-950
2.94600	-1005
2.94967	-1058
2.95333	-1099
2.95700	-1121
2.96067	-1118
2.96433	-1090
2.96800	-1041
2.97167	-975
2.97533	-900
2.97900	-819
2.98267	-737
2.98633	-656
2.99000	-579
2.99367	-508
2.99733	-442
3.00100	-383
3.00467	-330
3.00833	-283
3.01200	-242
3.01567	-206
3.01933	-175
3.02300	-147
3.02667	-123
3.03033	-103
3.03400	-85
3.03767	-70
3.04133	-57
3.04500	-46
3.04867	-37
3.05233	-29
3.05600	-23
3.05967	-17
3.06333	-12
3.06700	-8
3.07067	-4
3.07433	-1
3.07800	1
3.08167	4
3.08533	6
3.08900	8
3.09267	9
3.09633	10
3.10000	12
3.10367	12
3.10733	13
3.11100	14
3.11467	15
3.11833	15
3.12200	16
3.12567	16
3.12933	17
3.13300	17
3.13667	18
3.14033	18
3.14400	18
3.14767	19
3.15133	19
3.15500	20
3.15867	20
3.16233	21
3.16600	21
3.16967	21
3.17333	22
3.17700	22
3.18067	22
3.18433	22
3.18800	23
3.19167	23
3.19533	23
3.19900	24
3.20267	24
3.20633	25
3.21000	25
3.21367	26
3.21733	26
3.22100	26
3.22467	27
3.22833	27
3.23200	27
3.23567	28
3.23933	28
3.24300	29
3.24667	29
3.25033	29
3.25400	29
3.25767	30
3.26133	30
3.26500	29
3.26867	29
3.27233	29
3.27600	29
3.27967	29
3.28333	30
3.28700	30
3.29067	30
3.29433	30
3.29800	30
3.30167	29
3.30533	30
3.30900	30
3.31267	30
3.31633	30
3.32000	30
3.32367	29
3.32733	29
3.33100	29
3.33467	29
3.33833	29
3.34200	30
3.34567	30
3.34933	30
3.35300	30
3.35667	30
3.36033	30
3.36400	29
3.36767	29
3.37133	29
3.37500	29
3.37867	29
3.38233	29
3.38600	29
3.38967	29
3.39333	28
3.39700	28
3.40067	28
3.40433	29
3.40800	29
3.41167	29
3.41533	29
3.41900	29
3.42267	29
3.42633	29
3.43000	29
3.43367	30
3.43733	29
3.44100	29
3.44467	29
3.44833	29
3.45200	29
3.45567	29
3.45933	29
3.46300	28
3.46667	28
3.47033	28
3.47400	28
3.47767	28
3.48133	28
3.48500	28
3.48867	28
3.49233	29
3.49600	29
3.49967	29
3.50333	29
3.50700	29
3.51067	29
3.51433	29
3.51800	29
3.52167	29
3.52533	29
3.52900	29
3.53267	29
3.53633	29
3.54000	29
3.54367	30
3.54733	30
3.55100	30
3.55467	30
3.55833	29
3.56200	29
3.56567	29
3.56933	29
3.57300	29
3.57667	29
3.58033	29
3.58400	29
3.58767	29
3.59133	29
3.59500	29
3.59867	29
3.60233	29
3.60600	29
3.60967	29
3.61333	29
3.61700	29
3.62067	30
3.62433	30
3.62800	30
3.63167	30
3.63533	30
3.63900	30
3.64267	30
3.64633	30
3.65000	30
3.65367	30
3.65733	30
3.66100	30
3.66467	30
3.66833	30
3.67200	30
3.67567	30
3.67933	30
3.68300	30
3.68667	30
3.69033	30
3.69400	30
3.69767	30
3.70133	30
3.70500	30
3.70867	30
3.71233	31
3.71600	31
3.71967	31
3.72333	30
3.72700	30
3.73067	30
3.73433	30
3.73800	30
3.74167	30
3.74533	30
3.74900	30
3.75267	30
3.75633	30
3.76000	30
3.76367	30
3.76733	30
3.77100	30
3.77467	30
3.77833	30
3.78200	30
3.78567	30
3.78933	30
3.79300	30
3.79667	30
3.80033	30
3.80400	30
3.80767	30
3.81133	31
3.81500	31
3.81867	31
3.82233	31
3.82600	31
3.82967	31
3.83333	30
3.83700	30
3.84067	30
3.84433	31
3.84800	31
3.85167	31
3.85533	31
3.85900	31
3.86267	31
3.86633	31
3.87000	31
3.87367	31
3.87733	31
3.88100	31
3.88467	31
3.88833	31
3.89200	31
3.89567	30
3.89933	30
3.90300	31
3.90667	31
3.91033	31
3.91400	31
3.91767	31
3.92133	31
3.92500	31
3.92867	31
3.93233	31
3.93600	31
3.93967	30
3.94333	30
3.94700	30
3.95067	30
3.95433	30
3.95800	30
3.96167	31
3.96533	31
3.96900	31
3.97267	31
3.97633	31
3.98000	31
3.98367	31
3.98733	31
3.99100	31
3.99467	31
3.99833	31

[Chromatogram (Ch3)]
Interval(msec)	220
# of Points	1091
Start Time(min)	0.002
End Time(min)	3.998
R.Time (min)	Intensity
0.00167	0
0.00533	-1
0.00900	-5
0.01267	-5
0.01633	-5
0.02000	-7
0.02367	-9
0.02733	-11
0.03100	-9
0.03467	-7
0.03833	-7
0.04200	-7
0.04567	-6
0.04933	-6
0.05300	-5
0.05667	-6
0.06033	-7
0.06400	-5
0.06767	-6
0.07133	-5
0.07500	-3
0.07867	-2
0.08233	-3
0.08600	-6
0.08967	-7
0.09333	-7
0.09700	-7
0.10067	-7
0.10433	-8
0.10800	-9
0.11167	-9
0.11533	-8
0.11900	-6
0.12267	-6
0.12633	-5
0.13000	-4
0.13367	-5
0.13733	-6
0.14100	-6
0.14467	-6
0.14833	-7
0.15200	-7
0.15567	-8
0.15933	-9
0.16300	-11
0.16667	-8
0.17033	-4
0.17400	-3
0.17767	-4
0.18133	-5
0.18500	-7
0.18867	-7
0.19233	-7
0.19600	-7
0.19967	-5
0.20333	-5
0.20700	-7
0.21067	-7
0.21433	-4
0.21800	-5
0.22167	-6
0.22533	-6
0.22900	-8
0.23267	-8
0.23633	-6
0.24000	-8
0.24367	-10
0.24733	-8
0.25100	-5
0.25467	-4
0.25833	-6
0.26200	-6
0.26567	-4
0.26933	-4
0.27300	-3
0.27667	-3
0.28033	-3
0.28400	-4
0.28767	-5
0.29133	-9
0.29500	-10
0.29867	-9
0.30233	-7
0.30600	-5
0.30967	-2
0.31333	-5
0.31700	-7
0.32067	-6
0.32433	-8
0.32800	-7
0.33167	-4
0.33533	-3
0.33900	-3
0.34267	-4
0.34633	-3
0.35000	0
0.35367	3
0.35733	3
0.36100	4
0.36467	5
0.36833	4
0.37200	1
0.37567	-0
0.37933	-2
0.38300	-4
0.38667	-5
0.39033	-5
0.39400	-7
0.39767	-6
0.40133	-5
0.40500	-6
0.40867	-5
0.41233	-5
0.41600	-7
0.41967	-7
0.42333	-8
0.42700	-9
0.43067	-9
0.43433	-7
0.43800	-5
0.44167	-5
0.44533	-6
0.44900	-6
0.45267	-5
0.45633	-4
0.46000	-5
0.46367	-6
0.46733	-6
0.47100	-6
0.47467	-6
0.47833	-4
0.48200	-1
0.48567	1
0.48933	4
0.49300	8
0.49667	12
0.50033	13
0.50400	11
0.50767	7
0.51133	5
0.51500	3
0.51867	1
0.52233	1
0.52600	-1
0.52967	-1
0.53333	-1
0.53700	-2
0.54067	-4
0.54433	-4
0.54800	-4
0.55167	-6
0.55533	-7
0.55900	-6
0.56267	-4
0.56633	-4
0.57000	-3
0.57367	-1
0.57733	-0
0.58100	1
0.58467	0
0.58833	0
0.59200	2
0.59567	3
0.59933	2
0.60300	-1
0.60667	-3
0.61033	-4
0.61400	-4
0.61767	-3
0.62133	-4
0.62500	-2
0.62867	1
0.63233	-0
0.63600	-1
0.63967	0
0.64333	-1
0.64700	-2
0.65067	-0
0.65433	-1
0.65800	-1
0.66167	1
0.66533	4
0.66900	4
0.67267	2
0.67633	-0
0.68000	-3
0.68367	-4
0.68733	-2
0.69100	-1
0.69467	-2
0.69833	-1
0.70200	0
0.70567	-0
0.70933	-0
0.71300	1
0.71667	-1
0.72033	-3
0.72400	-7
0.72767	-8
0.73133	-6
0.73500	-2
0.73867	-2
0.74233	-2
0.74600	-2
0.74967	-2
0.75333	-3
0.75700	-3
0.76067	-4
0.76433	-5
0.76800	-3
0.77167	-4
0.77533	-3
0.77900	-2
0.78267	-3
0.78633	-4
0.79000	-4
0.79367	-5
0.79733	-4
0.80100	-6
0.80467	-7
0.80833	-4
0.81200	-3
0.81567	-1
0.81933	0
0.82300	1
0.82667	0
0.83033	1
0.83400	2
0.83767	-0
0.84133	-1
0.84500	-1
0.84867	-2
0.85233	-4
0.85600	-4
0.85967	-3
0.86333	-2
0.86700	-1
0.87067	-2
0.87433	-3
0.87800	-1
0.88167	3
0.88533	4
0.88900	5
0.89267	4
0.89633	-0
0.90000	-2
0.90367	-0
0.90733	-0
0.91100	-3
0.91467	-2
0.91833	1
0.92200	-0
0.92567	-1
0.92933	-2
0.93300	-4
0.93667	-4
0.94033	-1
0.94400	-1
0.94767	-3
0.95133	-0
0.95500	-0
0.95867	0
0.96233	2
0.96600	4
0.96967	2
0.97333	4
0.97700	5
0.98067	4
0.98433	1
0.98800	-1
0.99167	-1
0.99533	-2
0.99900	-1
1.00267	-1
1.00633	-1
1.01000	1
1.01367	2
1.01733	3
1.02100	4
1.02467	7
1.02833	11
1.03200	12
1.03567	10
1.03933	10
1.04300	11
1.04667	12
1.05033	9
1.05400	7
1.05767	6
1.06133	5
1.06500	3
1.06867	3
1.07233	6
1.07600	5
1.07967	5
1.08333	6
1.08700	5
1.09067	4
1.09433	5
1.09800	6
1.10167	5
1.10533	3
1.10900	2
1.11267	2
1.11633	4
1.12000	6
1.12367	9
1.12733	12
1.13100	12
1.13467	10
1.13833	9
1.14200	9
1.14567	9
1.14933	7
1.15300	7
1.15667	7
1.16033	5
1.16400	5
1.16767	4
1.17133	3
1.17500	3
1.17867	5
1.18233	5
1.18600	3
1.18967	3
1.19333	3
1.19700	2
1.20067	1
1.20433	-1
1.20800	-0
1.21167	0
1.21533	2
1.21900	5
1.22267	5
1.22633	6
1.23000	8
1.23367	8
1.23733	5
1.24100	2
1.24467	1
1.24833	-1
1.25200	-3
1.25567	-2
1.25933	-2
1.26300	1
1.26667	4
1.27033	7
1.27400	9
1.27767	8
1.28133	7
1.28500	4
1.28867	4
1.29233	4
1.29600	4
1.29967	4
1.30333	4
1.30700	5
1.31067	6
1.31433	6
1.31800	7
1.32167	6
1.32533	7
1.32900	6
1.33267	4
1.33633	3
1.34000	4
1.34367	4
1.34733	6
1.35100	6
1.35467	5
1.35833	6
1.36200	6
1.36567	6
1.36933	6
1.37300	7
1.37667	9
1.38033	9
1.38400	8
1.38767	7
1.39133	8
1.39500	9
1.39867	7
1.40233	7
1.40600	7
1.40967	7
1.41333	8
1.41700	10
1.42067	11
1.42433	11
1.42800	9
1.43167	10
1.43533	10
1.43900	10
1.44267	7
1.44633	5
1.45000	6
1.45367	5
1.45733	5
1.46100	7
1.46467	7
1.46833	6
1.47200	7
1.47567	8
1.47933	7
1.48300	5
1.48667	4
1.49033	6
1.49400	5
1.49767	4
1.50133	6
1.50500	9
1.50867	10
1.51233	9
1.51600	8
1.51967	8
1.52333	7
1.52700	6
1.53067	7
1.53433	7
1.53800	7
1.54167	8
1.54533	6
1.54900	5
1.55267	6
1.55633	8
1.56000	9
1.56367	8
1.56733	6
1.57100	5
1.57467	3
1.57833	2
1.58200	2
1.58567	3
1.58933	3
1.59300	4
1.59667	5
1.60033	7
1.60400	8
1.60767	7
1.61133	7
1.61500	7
1.61867	6
1.62233	6
1.62600	5
1.62967	4
1.63333	5
1.63700	6
1.64067	7
1.64433	7
1.64800	6
1.65167	6
1.65533	7
1.65900	6
1.66267	7
1.66633	9
1.67000	11
1.67367	13
1.67733	14
1.68100	12
1.68467	12
1.68833	11
1.69200	11
1.69567	10
1.69933	10
1.70300	12
1.70667	12
1.71033	11
1.71400	12
1.71767	13
1.72133	14
1.72500	15
1.72867	15
1.73233	13
1.73600	14
1.73967	15
1.74333	13
1.74700	11
1.75067	12
1.75433	15
1.75800	18
1.76167	19
1.76533	20
1.76900	20
1.77267	20
1.77633	20
1.78000	18
1.78367	17
1.78733	17
1.79100	18
1.79467	18
1.79833	22
1.80200	22
1.80567	18
1.80933	16
1.81300	17
1.81667	17
1.82033	19
1.82400	20
1.82767	19
1.83133	18
1.83500	20
1.83867	20
1.84233	20
1.84600	20
1.84967	21
1.85333	22
1.85700	24
1.86067	27
1.86433	27
1.86800	23
1.87167	21
1.87533	20
1.87900	20
1.88267	23
1.88633	26
1.89000	29
1.89367	30
1.89733	30
1.90100	29
1.90467	27
1.90833	26
1.91200	25
1.91567	27
1.91933	27
1.92300	26
1.92667	27
1.93033	27
1.93400	27
1.93767	28
1.94133	30
1.94500	31
1.94867	31
1.95233	32
1.95600	34
1.95967	37
1.96333	39
1.96700	41
1.97067	42
1.97433	42
1.97800	38
1.98167	34
1.98533	31
1.98900	31
1.99267	31
1.99633	33
2.00000	39
2.00367	41
2.00733	43
2.01100	45
2.01467	46
2.01833	46
2.02200	46
2.02567	48
2.02933	50
2.03300	50
2.03667	51
2.04033	52
2.04400	53
2.04767	54
2.05133	54
2.05500	52
2.05867	51
2.06233	52
2.06600	53
2.06967	54
2.07333	55
2.07700	54
2.08067	54
2.08433	53
2.08800	54
2.09167	52
2.09533	53
2.09900	52
2.10267	51
2.10633	53
2.11000	53
2.11367	53
2.11733	55
2.12100	61
2.12467	64
2.12833	64
2.13200	63
2.13567	62
2.13933	63
2.14300	64
2.14667	66
2.15033	66
2.15400	66
2.15767	65
2.16133	66
2.16500	67
2.16867	69
2.17233	70
2.17600	73
2.17967	75
2.18333	75
2.18700	74
2.19067	76
2.19433	78
2.19800	76
2.20167	75
2.20533	77
2.20900	80
2.21267	80
2.21633	78
2.22000	77
2.22367	76
2.22733	78
2.23100	78
2.23467	77
2.23833	74
2.24200	75
2.24567	78
2.24933	81
2.25300	82
2.25667	83
2.26033	83
2.26400	83
2.26767	80
2.27133	79
2.27500	80
2.27867	83
2.28233	82
2.28600	84
2.28967	88
2.29333	89
2.29700	91
2.30067	92
2.30433	91
2.30800	88
2.31167	88
2.31533	90
2.31900	91
2.32267	94
2.32633	97
2.33000	97
2.33367	98
2.33733	98
2.34100	98
2.34467	101
2.34833	101
2.35200	98
2.35567	97
2.35933	97
2.36300	96
2.36667	94
2.37033	93
2.37400	93
2.37767	94
2.38133	96
2.38500	96
2.38867	95
2.39233	96
2.39600	100
2.39967	108
2.40333	115
2.40700	121
2.41067	126
2.41433	128
2.41800	130
2.42167	129
2.42533	127
2.42900	125
2.43267	124
2.43633	123
2.44000	129
2.44367	177
2.44733	257
2.45100	332
2.45467	383
2.45833	403
2.46200	398
2.46567	381
2.46933	368
2.47300	361
2.47667	350
2.48033	332
2.48400	307
2.48767	283
2.49133	261
2.49500	246
2.49867	237
2.50233	233
2.50600	236
2.50967	242
2.51333	249
2.51700	253
2.52067	253
2.52433	251
2.52800	245
2.53167	237
2.53533	225
2.53900	211
2.54267	196
2.54633	185
2.55000	174
2.55367	169
2.55733	164
2.56100	163
2.56467	163
2.56833	163
2.57200	164
2.57567	168
2.57933	172
2.58300	174
2.58667	177
2.59033	182
2.59400	190
2.59767	199
2.60133	210
2.60500	220
2.60867	227
2.61233	231
2.61600	235
2.61967	236
2.62333	235
2.62700	232
2.63067	227
2.63433	218
2.63800	208
2.64167	197
2.64533	188
2.64900	177
2.65267	168
2.65633	160
2.66000	154
2.66367	150
2.66733	147
2.67100	144
2.67467	140
2.67833	137
2.68200	135
2.68567	134
2.68933	134
2.69300	133
2.69667	133
2.70033	131
2.70400	130
2.70767	131
2.71133	131
2.71500	130
2.71867	130
2.72233	131
2.72600	133
2.72967	134
2.73333	135
2.73700	137
2.74067	140
2.74433	142
2.74800	142
2.75167	143
2.75533	146
2.75900	148
2.76267	149
2.76633	152
2.77000	156
2.77367	160
2.77733	163
2.78100	165
2.78467	168
2.78833	172
2.79200	175
2.79567	176
2.79933	179
2.80300	183
2.80667	185
2.81033	187
2.81400	190
2.81767	195
2.82133	200
2.82500	201
2.82867	202
2.83233	202
2.83600	206
2.83967	224
2.84333	269
2.84700	354
2.85067	497
2.85433	717
2.85800	1026
2.86167	1420
2.86533	1879
2.86900	2376
2.87267	2875
2.87633	3333
2.88000	3714
2.88367	3988
2.88733	4140
2.89100	4168
2.89467	4084
2.89833	3911
2.90200	3674
2.90567	3400
2.90933	3108
2.91300	2811
2.91667	2520
2.92033	2247
2.92400	1994
2.92767	1767
2.93133	1562
2.93500	1380
2.93867	1218
2.94233	1075
2.94600	949
2.94967	839
2.95333	740
2.95700	658
2.96067	588
2.96433	527
2.96800	473
2.97167	429
2.97533	390
2.97900	355
2.98267	328
2.98633	304
2.99000	283
2.99367	266
2.99733	254
3.00100	243
3.00467	234
3.00833	226
3.01200	216
3.01567	206
3.01933	200
3.02300	198
3.02667	194
3.03033	188
3.03400	182
3.03767	179
3.04133	176
3.04500	173
3.04867	173
3.05233	171
3.05600	169
3.05967	171
3.06333	174
3.06700	176
3.07067	178
3.07433	180
3.07800	181
3.08167	181
3.08533	181
3.08900	179
3.09267	176
3.09633	175
3.10000	176
3.10367	176
3.10733	175
3.11100	177
3.11467	177
3.11833	181
3.12200	196
3.12567	229
3.12933	279
3.13300	339
3.13667	406
3.14033	480
3.14400	559
3.14767	638
3.15133	711
3.15500	776
3.15867	834
3.16233	882
3.16600	926
3.16967	962
3.17333	989
3.17700	1010
3.18067	1029
3.18433	1043
3.18800	1052
3.19167	1060
3.19533	1065
3.19900	1068
3.20267	1073
3.20633	1076
3.21000	1076
3.21367	1075
3.21733	1073
3.22100	1070
3.22467	1070
3.22833	1069
3.23200	1068
3.23567	1068
3.23933	1066
3.24300	1064
3.24667	1062
3.25033	1062
3.25400	1061
3.25767	1057
3.26133	1053
3.26500	1048
3.26867	1043
3.27233	1039
3.27600	1034
3.27967	1029
3.28333	1025
3.28700	1020
3.29067	1013
3.29433	1007
3.29800	1002
3.30167	999
3.30533	995
3.30900	991
3.31267	986
3.31633	979
3.32000	971
3.32367	964
3.32733	958
3.33100	951
3.33467	946
3.33833	941
3.34200	936
3.34567	932
3.34933	927
3.35300	922
3.35667	917
3.36033	913
3.36400	910
3.36767	908
3.37133	905
3.37500	901
3.37867	898
3.38233	893
3.38600	888
3.38967	885
3.39333	882
3.39700	880
3.40067	879
3.40433	878
3.40800	874
3.41167	869
3.41533	866
3.41900	864
3.42267	862
3.42633	861
3.43000	861
3.43367	859
3.43733	857
3.44100	857
3.44467	859
3.44833	859
3.45200	858
3.45567	858
3.45933	856
3.46300	852
3.46667	850
3.47033	850
3.47400	852
3.47767	853
3.48133	853
3.48500	853
3.48867	851
3.49233	849
3.49600	848
3.49967	848
3.50333	851
3.50700	853
3.51067	852
3.51433	853
3.51800	853
3.52167	853
3.52533	852
3.52900	852
3.53267	853
3.53633	852
3.54000	853
3.54367	855
3.54733	856
3.55100	856
3.55467	854
3.55833	851
3.56200	851
3.56567	851
3.56933	850
3.57300	850
3.57667	850
3.58033	847
3.58400	846
3.58767	842
3.59133	838
3.59500	834
3.59867	830
3.60233	825
3.60600	819
3.60967	814
3.61333	811
3.61700	809
3.62067	806
3.62433	800
3.62800	793
3.63167	787
3.63533	785
3.63900	782
3.64267	776
3.64633	770
3.65000	767
3.65367	766
3.65733	764
3.66100	763
3.66467	760
3.66833	753
3.67200	749
3.67567	746
3.67933	743
3.68300	739
3.68667	737
3.69033	734
3.69400	730
3.69767	728
3.70133	726
3.70500	723
3.70867	721
3.71233	722
3.71600	720
3.71967	718
3.72333	713
3.72700	709
3.73067	706
3.73433	705
3.73800	705
3.74167	704
3.74533	702
3.74900	698
3.75267	694
3.75633	690
3.76000	689
3.76367	689
3.76733	686
3.77100	682
3.77467	679
3.77833	677
3.78200	676
3.78567	676
3.78933	676
3.79300	676
3.79667	674
3.80033	672
3.80400	669
3.80767	667
3.81133	667
3.81500	665
3.81867	662
3.82233	659
3.82600	656
3.82967	657
3.83333	658
3.83700	656
3.84067	654
3.84433	653
3.84800	652
3.85167	650
3.85533	649
3.85900	648
3.86267	647
3.86633	648
3.87000	651
3.87367	651
3.87733	650
3.88100	646
3.88467	643
3.88833	639
3.89200	638
3.89567	638
3.89933	637
3.90300	634
3.90667	632
3.91033	628
3.91400	626
3.91767	624
3.92133	624
3.92500	622
3.92867	620
3.93233	618
3.93600	618
3.93967	618
3.94333	617
3.94700	614
3.95067	613
3.95433	612
3.95800	610
3.96167	609
3.96533	607
3.96900	605
3.97267	605
3.97633	603
3.98000	603
3.98367	603
3.98733	601
3.99100	598
3.99467	594
3.99833	589

[Status Trace (Column Oven Temperature)]
Interval(msec)	1000
# of Points	240
Start Time(min)	0.002
End Time(min)	3.985
Intensity Units	
Intensity Multiplier	1
R.Time (min)	Intensity
0.00200	35.06
0.01867	35.06
0.03533	35.04
0.05200	35.04
0.06867	35.04
0.08533	35.04
0.10200	35.04
0.11867	35.04
0.13533	35.04
0.15200	35.04
0.16867	35.03
0.18533	35.03
0.20200	35.03
0.21867	35.02
0.23533	35.02
0.25200	35.02
0.26867	35.01
0.28533	35.01
0.30200	35.02
0.31867	35.02
0.33533	35.02
0.35200	35.02
0.36867	35.01
0.38533	35.01
0.40200	35.00
0.41867	34.99
0.43533	35.00
0.45200	35.00
0.46867	35.00
0.48533	35.00
0.50200	35.00
0.51867	35.02
0.53533	35.01
0.55200	35.01
0.56867	35.00
0.58533	35.00
0.60200	34.99
0.61867	34.99
0.63533	34.99
0.65200	34.99
0.66867	34.99
0.68533	34.99
0.70200	35.00
0.71867	35.00
0.73533	34.99
0.75200	34.99
0.76867	34.99
0.78533	34.98
0.80200	34.99
0.81867	34.99
0.83533	35.00
0.85200	35.00
0.86867	34.99
0.88533	34.99
0.90200	34.99
0.91867	34.99
0.93533	35.00
0.95200	35.00
0.96867	34.99
0.98533	35.00
1.00200	35.01
1.01867	35.00
1.03533	35.00
1.05200	35.00
1.06867	34.99
1.08533	34.99
1.10200	34.99
1.11867	34.99
1.13533	35.00
1.15200	35.01
1.16867	35.00
1.18533	35.01
1.20200	35.00
1.21867	35.00
1.23533	35.00
1.25200	35.01
1.26867	35.00
1.28533	35.00
1.30200	35.00
1.31867	35.00
1.33533	35.00
1.35200	35.00
1.36867	35.00
1.38533	34.99
1.40200	34.99
1.41867	34.99
1.43533	34.99
1.45200	34.99
1.46867	34.98
1.48533	34.98
1.50200	34.99
1.51867	35.00
1.53533	35.00
1.55200	34.99
1.56867	35.00
1.58533	35.00
1.60200	35.04
1.61867	35.13
1.63533	35.29
1.65200	35.52
1.66867	35.83
1.68533	36.20
1.70200	36.55
1.71867	36.90
1.73533	37.24
1.75200	37.56
1.76867	37.88
1.78533	38.23
1.80200	38.56
1.81867	38.90
1.83533	39.23
1.85200	39.55
1.86867	39.88
1.88533	40.23
1.90200	40.56
1.91867	40.89
1.93533	41.20
1.95200	41.53
1.96867	41.86
1.98533	42.17
2.00200	42.50
2.01867	42.82
2.03533	43.13
2.05200	43.46
2.06867	43.80
2.08533	44.12
2.10200	44.44
2.11867	44.77
2.13533	45.12
2.15200	45.45
2.16867	45.79
2.18533	46.11
2.20200	46.44
2.21867	46.78
2.23533	47.10
2.25200	47.40
2.26867	47.73
2.28533	48.07
2.30200	48.37
2.31867	48.72
2.33533	49.04
2.35200	49.34
2.36867	49.58
2.38533	49.69
2.40200	49.71
2.41867	49.72
2.43533	49.72
2.45200	49.72
2.46867	49.74
2.48533	49.73
2.50200	49.74
2.51867	49.76
2.53533	49.76
2.55200	49.79
2.56867	49.80
2.58533	49.82
2.60200	49.83
2.61867	49.83
2.63533	49.84
2.65200	49.84
2.66867	49.86
2.68533	49.86
2.70200	49.85
2.71867	49.84
2.73533	49.86
2.75200	49.88
2.76867	49.90
2.78533	49.90
2.80200	49.90
2.81867	49.91
2.83533	49.91
2.85200	49.92
2.86867	49.94
2.88533	49.95
2.90200	49.97
2.91867	49.98
2.93533	49.99
2.95200	49.99
2.96867	49.99
2.98533	50.01
3.00200	50.02
3.01867	50.02
3.03533	50.02
3.05200	50.03
3.06867	50.03
3.08533	50.05
3.10200	50.06
3.11867	50.08
3.13533	50.09
3.15200	50.10
3.16867	50.11
3.18533	50.11
3.20200	50.10
3.21867	50.09
3.23533	50.08
3.25200	50.06
3.26867	50.05
3.28533	50.04
3.30200	50.04
3.31867	50.04
3.33533	50.04
3.35200	50.04
3.36867	50.04
3.38533	50.05
3.40200	50.05
3.41867	50.05
3.43533	50.05
3.45200	50.05
3.46867	50.05
3.48533	50.05
3.50200	50.06
3.51867	50.06
3.53533	50.06
3.55200	50.06
3.56867	50.07
3.58533	50.07
3.60200	50.08
3.61867	50.09
3.63533	50.08
3.65200	50.08
3.66867	50.08
3.68533	50.08
3.70200	50.08
3.71867	50.08
3.73533	50.08
3.75200	50.08
3.76867	50.08
3.78533	50.08
3.80200	50.08
3.81867	50.07
3.83533	50.07
3.85200	50.07
3.86867	50.07
3.88533	50.07
3.90200	50.08
3.91867	50.08
3.93533	50.08
3.95200	50.08
3.96867	50.07
3.98533	50.07

[Status Trace (Injection Unit Temperature)]
Interval(msec)	1000
# of Points	240
Start Time(min)	0.002
End Time(min)	3.985
Intensity Units	
Intensity Multiplier	1
R.Time (min)	Intensity
0.00200	99.97
0.01867	99.97
0.03533	99.97
0.05200	99.98
0.06867	99.97
0.08533	99.97
0.10200	99.97
0.11867	99.97
0.13533	99.97
0.15200	99.97
0.16867	99.97
0.18533	99.97
0.20200	99.97
0.21867	99.97
0.23533	99.97
0.25200	99.97
0.26867	99.97
0.28533	99.97
0.30200	99.97
0.31867	99.98
0.33533	99.97
0.35200	99.98
0.36867	99.97
0.38533	99.97
0.40200	99.97
0.41867	99.98
0.43533	99.97
0.45200	99.97
0.46867	99.97
0.48533	99.97
0.50200	99.98
0.51867	99.97
0.53533	99.98
0.55200	99.98
0.56867	99.97
0.58533	99.97
0.60200	99.98
0.61867	99.97
0.63533	99.98
0.65200	99.98
0.66867	99.97
0.68533	99.97
0.70200	99.98
0.71867	99.98
0.73533	99.97
0.75200	99.98
0.76867	99.98
0.78533	99.98
0.80200	99.97
0.81867	99.98
0.83533	99.98
0.85200	99.97
0.86867	99.97
0.88533	99.98
0.90200	99.98
0.91867	99.97
0.93533	99.98
0.95200	99.98
0.96867	99.98
0.98533	99.98
1.00200	99.98
1.01867	99.98
1.03533	99.98
1.05200	99.98
1.06867	99.98
1.08533	99.98
1.10200	99.98
1.11867	99.97
1.13533	99.98
1.15200	99.98
1.16867	99.98
1.18533	99.98
1.20200	99.98
1.21867	99.98
1.23533	99.98
1.25200	99.98
1.26867	99.98
1.28533	99.98
1.30200	99.98
1.31867	99.98
1.33533	99.98
1.35200	99.98
1.36867	99.98
1.38533	99.98
1.40200	99.98
1.41867	99.98
1.43533	99.98
1.45200	99.98
1.46867	99.98
1.48533	99.98
1.50200	99.98
1.51867	99.98
1.53533	99.99
1.55200	99.98
1.56867	99.98
1.58533	99.98
1.60200	99.98
1.61867	99.98
1.63533	99.98
1.65200	99.98
1.66867	99.98
1.68533	99.98
1.70200	99.98
1.71867	99.98
1.73533	99.98
1.75200	99.98
1.76867	99.98
1.78533	99.98
1.80200	99.98
1.81867	99.98
1.83533	99.98
1.85200	99.98
1.86867	99.98
1.88533	99.98
1.90200	99.97
1.91867	99.98
1.93533	99.98
1.95200	99.97
1.96867	99.97
1.98533	99.97
2.00200	99.97
2.01867	99.97
2.03533	99.97
2.05200	99.97
2.06867	99.97
2.08533	99.97
2.10200	99.97
2.11867	99.97
2.13533	99.97
2.15200	99.96
2.16867	99.97
2.18533	99.96
2.20200	99.96
2.21867	99.96
2.23533	99.96
2.25200	99.96
2.26867	99.96
2.28533	99.96
2.30200	99.96
2.31867	99.96
2.33533	99.96
2.35200	99.96
2.36867	99.96
2.38533	99.96
2.40200	99.96
2.41867	99.96
2.43533	99.96
2.45200	99.97
2.46867	99.96
2.48533	99.96
2.50200	99.97
2.51867	99.97
2.53533	99.96
2.55200	99.97
2.56867	99.97
2.58533	99.97
2.60200	99.97
2.61867	99.97
2.63533	99.97
2.65200	99.98
2.66867	99.98
2.68533	99.98
2.70200	99.98
2.71867	99.98
2.73533	99.98
2.75200	99.98
2.76867	99.99
2.78533	99.98
2.80200	99.99
2.81867	99.99
2.83533	99.99
2.85200	100.00
2.86867	100.00
2.88533	100.00
2.90200	100.00
2.91867	100.00
2.93533	100.00
2.95200	100.00
2.96867	100.00
2.98533	100.01
3.00200	100.00
3.01867	100.01
3.03533	100.01
3.05200	100.01
3.06867	100.01
3.08533	100.01
3.10200	100.01
3.11867	100.01
3.13533	100.01
3.15200	100.02
3.16867	100.01
3.18533	100.02
3.20200	100.02
3.21867	100.02
3.23533	100.02
3.25200	100.02
3.26867	100.02
3.28533	100.02
3.30200	100.02
3.31867	100.02
3.33533	100.02
3.35200	100.02
3.36867	100.02
3.38533	100.02
3.40200	100.02
3.41867	100.02
3.43533	100.03
3.45200	100.02
3.46867	100.02
3.48533	100.02
3.50200	100.03
3.51867	100.03
3.53533	100.03
3.55200	100.02
3.56867	100.03
3.58533	100.03
3.60200	100.03
3.61867	100.03
3.63533	100.03
3.65200	100.03
3.66867	100.03
3.68533	100.03
3.70200	100.03
3.71867	100.03
3.73533	100.03
3.75200	100.03
3.76867	100.04
3.78533	100.04
3.80200	100.04
3.81867	100.04
3.83533	100.04
3.85200	100.04
3.86867	100.04
3.88533	100.04
3.90200	100.04
3.91867	100.04
3.93533	100.04
3.95200	100.05
3.96867	100.04
3.98533	100.05

[Status Trace (Carrier Gas Pressure)]
Interval(msec)	1000
# of Points	240
Start Time(min)	0.002
End Time(min)	3.985
Intensity Units	
Intensity Multiplier	1
R.Time (min)	Intensity
0.00200	58.00
0.01867	56.44
0.03533	56.20
0.05200	58.51
0.06867	59.91
0.08533	58.36
0.10200	57.97
0.11867	58.00
0.13533	58.01
0.15200	58.01
0.16867	58.00
0.18533	58.00
0.20200	58.00
0.21867	58.00
0.23533	58.00
0.25200	58.00
0.26867	58.00
0.28533	58.00
0.30200	58.00
0.31867	58.00
0.33533	58.00
0.35200	58.00
0.36867	58.00
0.38533	58.00
0.40200	58.00
0.41867	58.00
0.43533	58.00
0.45200	58.00
0.46867	58.00
0.48533	58.00
0.50200	58.00
0.51867	58.00
0.53533	58.00
0.55200	58.00
0.56867	58.00
0.58533	58.00
0.60200	58.00
0.61867	58.00
0.63533	58.00
0.65200	58.00
0.66867	58.00
0.68533	58.00
0.70200	58.00
0.71867	58.00
0.73533	58.00
0.75200	58.00
0.76867	58.00
0.78533	58.00
0.80200	58.00
0.81867	58.00
0.83533	58.00
0.85200	58.00
0.86867	58.00
0.88533	58.00
0.90200	58.00
0.91867	58.00
0.93533	58.00
0.95200	58.00
0.96867	58.00
0.98533	58.00
1.00200	58.00
1.01867	58.00
1.03533	58.00
1.05200	58.00
1.06867	58.00
1.08533	58.00
1.10200	58.00
1.11867	58.00
1.13533	58.00
1.15200	58.00
1.16867	58.00
1.18533	58.00
1.20200	58.00
1.21867	58.00
1.23533	58.00
1.25200	58.00
1.26867	58.00
1.28533	58.00
1.30200	58.00
1.31867	58.00
1.33533	58.00
1.35200	58.00
1.36867	58.00
1.38533	58.00
1.40200	58.00
1.41867	58.00
1.43533	58.00
1.45200	58.00
1.46867	58.00
1.48533	58.00
1.50200	58.00
1.51867	58.00
1.53533	58.00
1.55200	58.00
1.56867	58.00
1.58533	58.00
1.60200	58.00
1.61867	58.00
1.63533	58.00
1.65200	58.00
1.66867	58.01
1.68533	58.01
1.70200	58.00
1.71867	58.00
1.73533	58.00
1.75200	58.00
1.76867	58.00
1.78533	58.00
1.80200	58.00
1.81867	58.00
1.83533	58.00
1.85200	58.00
1.86867	58.00
1.88533	58.00
1.90200	58.00
1.91867	58.00
1.93533	58.00
1.95200	58.00
1.96867	58.00
1.98533	58.00
2.00200	58.00
2.01867	58.00
2.03533	58.00
2.05200	58.00
2.06867	58.00
2.08533	58.00
2.10200	58.00
2.11867	58.00
2.13533	58.00
2.15200	58.00
2.16867	58.00
2.18533	58.00
2.20200	58.00
2.21867	58.00
2.23533	58.00
2.25200	58.00
2.26867	58.00
2.28533	58.00
2.30200	58.00
2.31867	58.00
2.33533	58.00
2.35200	58.00
2.36867	58.00
2.38533	57.99
2.40200	57.99
2.41867	58.00
2.43533	58.00
2.45200	58.00
2.46867	58.00
2.48533	58.00
2.50200	57.99
2.51867	57.99
2.53533	57.99
2.55200	58.00
2.56867	58.00
2.58533	58.00
2.60200	58.00
2.61867	58.00
2.63533	58.00
2.65200	58.00
2.66867	58.00
2.68533	58.00
2.70200	58.00
2.71867	58.00
2.73533	58.00
2.75200	58.00
2.76867	58.00
2.78533	58.00
2.80200	58.00
2.81867	58.00
2.83533	58.00
2.85200	58.00
2.86867	58.00
2.88533	58.00
2.90200	58.00
2.91867	58.00
2.93533	58.00
2.95200	58.00
2.96867	58.00
2.98533	58.00
3.00200	58.00
3.01867	58.00
3.03533	58.00
3.05200	58.00
3.06867	58.00
3.08533	58.00
3.10200	58.00
3.11867	58.00
3.13533	58.00
3.15200	58.00
3.16867	58.00
3.18533	58.00
3.20200	58.00
3.21867	58.00
3.23533	58.00
3.25200	58.00
3.26867	58.00
3.28533	58.00
3.30200	58.00
3.31867	58.00
3.33533	58.00
3.35200	58.00
3.36867	58.00
3.38533	58.00
3.40200	58.00
3.41867	58.00
3.43533	58.00
3.45200	58.00
3.46867	58.00
3.48533	58.00
3.50200	58.00
3.51867	58.00
3.53533	58.00
3.55200	58.00
3.56867	58.00
3.58533	58.00
3.60200	58.00
3.61867	58.00
3.63533	58.00
3.65200	58.00
3.66867	58.00
3.68533	58.00
3.70200	58.00
3.71867	58.00
3.73533	58.00
3.75200	58.00
3.76867	58.00
3.78533	58.00
3.80200	58.00
3.81867	58.00
3.83533	58.00
3.85200	58.00
3.86867	58.00
3.88533	58.00
3.90200	58.00
3.91867	58.00
3.93533	58.00
3.95200	58.00
3.96867	58.00
3.98533	58.00

[Status Trace (Carrier Gas Flow)]
Interval(msec)	1000
# of Points	240
Start Time(min)	0.002
End Time(min)	3.985
Intensity Units	
Intensity Multiplier	1
R.Time (min)	Intensity
0.00200	34.52
0.01867	34.24
0.03533	34.54
0.05200	34.55
0.06867	34.50
0.08533	34.52
0.10200	34.51
0.11867	34.52
0.13533	34.51
0.15200	34.52
0.16867	34.52
0.18533	34.52
0.20200	34.52
0.21867	34.52
0.23533	34.52
0.25200	34.52
0.26867	34.52
0.28533	34.51
0.30200	34.52
0.31867	34.52
0.33533	34.52
0.35200	34.51
0.36867	34.52
0.38533	34.52
0.40200	34.52
0.41867	34.52
0.43533	34.52
0.45200	34.52
0.46867	34.51
0.48533	34.52
0.50200	34.52
0.51867	34.52
0.53533	34.52
0.55200	34.52
0.56867	34.52
0.58533	34.52
0.60200	34.52
0.61867	34.52
0.63533	34.52
0.65200	34.52
0.66867	34.52
0.68533	34.52
0.70200	34.51
0.71867	34.51
0.73533	34.52
0.75200	34.52
0.76867	34.52
0.78533	34.52
0.80200	34.52
0.81867	34.52
0.83533	34.52
0.85200	34.52
0.86867	34.52
0.88533	34.52
0.90200	34.52
0.91867	34.52
0.93533	34.52
0.95200	34.52
0.96867	34.52
0.98533	34.51
1.00200	34.52
1.01867	34.52
1.03533	34.52
1.05200	34.52
1.06867	34.52
1.08533	34.52
1.10200	34.52
1.11867	34.52
1.13533	34.52
1.15200	34.52
1.16867	34.52
1.18533	34.52
1.20200	34.52
1.21867	34.51
1.23533	34.52
1.25200	34.52
1.26867	34.52
1.28533	34.52
1.30200	34.52
1.31867	34.52
1.33533	34.52
1.35200	34.52
1.36867	34.52
1.38533	34.51
1.40200	34.52
1.41867	34.52
1.43533	34.52
1.45200	34.52
1.46867	34.52
1.48533	34.52
1.50200	34.52
1.51867	34.52
1.53533	34.52
1.55200	34.52
1.56867	34.51
1.58533	34.52
1.60200	34.52
1.61867	34.52
1.63533	34.52
1.65200	34.53
1.66867	34.52
1.68533	34.51
1.70200	34.52
1.71867	34.52
1.73533	34.52
1.75200	34.52
1.76867	34.52
1.78533	34.51
1.80200	34.52
1.81867	34.53
1.83533	34.52
1.85200	34.52
1.86867	34.51
1.88533	34.52
1.90200	34.52
1.91867	34.52
1.93533	34.53
1.95200	34.53
1.96867	34.52
1.98533	34.52
2.00200	34.53
2.01867	34.52
2.03533	34.52
2.05200	34.52
2.06867	34.51
2.08533	34.52
2.10200	34.52
2.11867	34.52
2.13533	34.52
2.15200	34.52
2.16867	34.52
2.18533	34.52
2.20200	34.51
2.21867	34.52
2.23533	34.52
2.25200	34.52
2.26867	34.52
2.28533	34.52
2.30200	34.52
2.31867	34.51
2.33533	34.52
2.35200	34.52
2.36867	34.52
2.38533	34.52
2.40200	34.52
2.41867	34.52
2.43533	34.51
2.45200	34.52
2.46867	34.52
2.48533	34.52
2.50200	34.55
2.51867	34.52
2.53533	34.52
2.55200	34.52
2.56867	34.52
2.58533	34.52
2.60200	34.52
2.61867	34.51
2.63533	34.52
2.65200	34.52
2.66867	34.52
2.68533	34.52
2.70200	34.52
2.71867	34.52
2.73533	34.51
2.75200	34.51
2.76867	34.52
2.78533	34.52
2.80200	34.52
2.81867	34.53
2.83533	34.52
2.85200	34.52
2.86867	34.52
2.88533	34.52
2.90200	34.52
2.91867	34.51
2.93533	34.52
2.95200	34.52
2.96867	34.52
2.98533	34.51
3.00200	34.52
3.01867	34.53
3.03533	34.52
3.05200	34.52
3.06867	34.52
3.08533	34.52
3.10200	34.52
3.11867	34.52
3.13533	34.52
3.15200	34.52
3.16867	34.52
3.18533	34.52
3.20200	34.52
3.21867	34.52
3.23533	34.51
3.25200	34.53
3.26867	34.51
3.28533	34.51
3.30200	34.52
3.31867	34.52
3.33533	34.52
3.35200	34.52
3.36867	34.52
3.38533	34.52
3.40200	34.52
3.41867	34.52
3.43533	34.52
3.45200	34.52
3.46867	34.52
3.48533	34.52
3.50200	34.52
3.51867	34.52
3.53533	34.52
3.55200	34.52
3.56867	34.51
3.58533	34.52
3.60200	34.52
3.61867	34.52
3.63533	34.52
3.65200	34.52
3.66867	34.52
3.68533	34.52
3.70200	34.52
3.71867	34.52
3.73533	34.52
3.75200	34.52
3.76867	34.52
3.78533	34.52
3.80200	34.52
3.81867	34.52
3.83533	34.52
3.85200	34.53
3.86867	34.52
3.88533	34.52
3.90200	34.52
3.91867	34.51
3.93533	34.52
3.95200	34.52
3.96867	34.52
3.98533	34.52

[Status Trace (Column Flow)]
Interval(msec)	1000
# of Points	240
Start Time(min)	0.002
End Time(min)	3.985
Intensity Units	
Intensity Multiplier	1
R.Time (min)	Intensity
0.00200	5.51
0.01867	5.33
0.03533	5.30
0.05200	5.57
0.06867	5.74
0.08533	5.55
0.10200	5.51
0.11867	5.51
0.13533	5.51
0.15200	5.51
0.16867	5.51
0.18533	5.51
0.20200	5.51
0.21867	5.51
0.23533	5.51
0.25200	5.51
0.26867	5.51
0.28533	5.51
0.30200	5.51
0.31867	5.51
0.33533	5.51
0.35200	5.51
0.36867	5.51
0.38533	5.51
0.40200	5.51
0.41867	5.51
0.43533	5.51
0.45200	5.51
0.46867	5.51
0.48533	5.51
0.50200	5.51
0.51867	5.51
0.53533	5.51
0.55200	5.51
0.56867	5.51
0.58533	5.51
0.60200	5.51
0.61867	5.51
0.63533	5.51
0.65200	5.51
0.66867	5.51
0.68533	5.51
0.70200	5.51
0.71867	5.51
0.73533	5.51
0.75200	5.51
0.76867	5.51
0.78533	5.51
0.80200	5.51
0.81867	5.51
0.83533	5.51
0.85200	5.51
0.86867	5.51
0.88533	5.51
0.90200	5.51
0.91867	5.51
0.93533	5.51
0.95200	5.51
0.96867	5.51
0.98533	5.51
1.00200	5.51
1.01867	5.51
1.03533	5.51
1.05200	5.51
1.06867	5.51
1.08533	5.51
1.10200	5.51
1.11867	5.51
1.13533	5.51
1.15200	5.51
1.16867	5.51
1.18533	5.51
1.20200	5.51
1.21867	5.51
1.23533	5.51
1.25200	5.51
1.26867	5.51
1.28533	5.51
1.30200	5.51
1.31867	5.51
1.33533	5.51
1.35200	5.51
1.36867	5.51
1.38533	5.51
1.40200	5.51
1.41867	5.51
1.43533	5.51
1.45200	5.51
1.46867	5.51
1.48533	5.51
1.50200	5.51
1.51867	5.51
1.53533	5.51
1.55200	5.51
1.56867	5.51
1.58533	5.51
1.60200	5.51
1.61867	5.51
1.63533	5.50
1.65200	5.50
1.66867	5.49
1.68533	5.48
1.70200	5.47
1.71867	5.46
1.73533	5.44
1.75200	5.43
1.76867	5.43
1.78533	5.41
1.80200	5.40
1.81867	5.39
1.83533	5.38
1.85200	5.37
1.86867	5.36
1.88533	5.35
1.90200	5.34
1.91867	5.33
1.93533	5.32
1.95200	5.31
1.96867	5.31
1.98533	5.29
2.00200	5.29
2.01867	5.28
2.03533	5.27
2.05200	5.26
2.06867	5.25
2.08533	5.24
2.10200	5.23
2.11867	5.22
2.13533	5.21
2.15200	5.20
2.16867	5.19
2.18533	5.18
2.20200	5.17
2.21867	5.16
2.23533	5.15
2.25200	5.14
2.26867	5.14
2.28533	5.12
2.30200	5.12
2.31867	5.11
2.33533	5.10
2.35200	5.09
2.36867	5.08
2.38533	5.08
2.40200	5.08
2.41867	5.08
2.43533	5.08
2.45200	5.08
2.46867	5.08
2.48533	5.08
2.50200	5.08
2.51867	5.08
2.53533	5.08
2.55200	5.08
2.56867	5.08
2.58533	5.08
2.60200	5.08
2.61867	5.08
2.63533	5.08
2.65200	5.08
2.66867	5.08
2.68533	5.07
2.70200	5.08
2.71867	5.08
2.73533	5.07
2.75200	5.07
2.76867	5.07
2.78533	5.07
2.80200	5.07
2.81867	5.07
2.83533	5.07
2.85200	5.07
2.86867	5.07
2.88533	5.07
2.90200	5.07
2.91867	5.07
2.93533	5.07
2.95200	5.07
2.96867	5.07
2.98533	5.07
3.00200	5.07
3.01867	5.07
3.03533	5.07
3.05200	5.07
3.06867	5.07
3.08533	5.07
3.10200	5.07
3.11867	5.07
3.13533	5.07
3.15200	5.07
3.16867	5.07
3.18533	5.07
3.20200	5.07
3.21867	5.07
3.23533	5.07
3.25200	5.07
3.26867	5.07
3.28533	5.07
3.30200	5.07
3.31867	5.07
3.33533	5.07
3.35200	5.07
3.36867	5.07
3.38533	5.07
3.40200	5.07
3.41867	5.07
3.43533	5.07
3.45200	5.07
3.46867	5.07
3.48533	5.07
3.50200	5.07
3.51867	5.07
3.53533	5.07
3.55200	5.07
3.56867	5.07
3.58533	5.07
3.60200	5.07
3.61867	5.07
3.63533	5.07
3.65200	5.07
3.66867	5.07
3.68533	5.07
3.70200	5.07
3.71867	5.07
3.73533	5.07
3.75200	5.07
3.76867	5.07
3.78533	5.07
3.80200	5.07
3.81867	5.07
3.83533	5.07
3.85200	5.07
3.86867	5.07
3.88533	5.07
3.90200	5.07
3.91867	5.07
3.93533	5.07
3.95200	5.07
3.96867	5.07
3.98533	5.07

[Status Trace (Linear Velocity)]
Interval(msec)	1000
# of Points	240
Start Time(min)	0.002
End Time(min)	3.985
Intensity Units	
Intensity Multiplier	1
R.Time (min)	Intensity
0.00200	39.01
0.01867	37.99
0.03533	37.83
0.05200	39.35
0.06867	40.26
0.08533	39.25
0.10200	38.99
0.11867	39.01
0.13533	39.02
0.15200	39.02
0.16867	39.01
0.18533	39.01
0.20200	39.01
0.21867	39.01
0.23533	39.01
0.25200	39.01
0.26867	39.01
0.28533	39.01
0.30200	39.01
0.31867	39.02
0.33533	39.01
0.35200	39.01
0.36867	39.01
0.38533	39.01
0.40200	39.02
0.41867	39.02
0.43533	39.02
0.45200	39.02
0.46867	39.02
0.48533	39.01
0.50200	39.02
0.51867	39.01
0.53533	39.01
0.55200	39.01
0.56867	39.01
0.58533	39.02
0.60200	39.02
0.61867	39.02
0.63533	39.02
0.65200	39.02
0.66867	39.02
0.68533	39.02
0.70200	39.01
0.71867	39.02
0.73533	39.02
0.75200	39.02
0.76867	39.02
0.78533	39.02
0.80200	39.02
0.81867	39.02
0.83533	39.02
0.85200	39.01
0.86867	39.02
0.88533	39.02
0.90200	39.02
0.91867	39.02
0.93533	39.02
0.95200	39.02
0.96867	39.02
0.98533	39.01
1.00200	39.01
1.01867	39.01
1.03533	39.01
1.05200	39.01
1.06867	39.02
1.08533	39.02
1.10200	39.02
1.11867	39.02
1.13533	39.02
1.15200	39.01
1.16867	39.01
1.18533	39.01
1.20200	39.01
1.21867	39.01
1.23533	39.01
1.25200	39.01
1.26867	39.01
1.28533	39.01
1.30200	39.01
1.31867	39.01
1.33533	39.01
1.35200	39.01
1.36867	39.02
1.38533	39.02
1.40200	39.02
1.41867	39.02
1.43533	39.02
1.45200	39.02
1.46867	39.02
1.48533	39.02
1.50200	39.02
1.51867	39.02
1.53533	39.02
1.55200	39.01
1.56867	39.02
1.58533	39.01
1.60200	39.01
1.61867	39.01
1.63533	38.99
1.65200	38.97
1.66867	38.94
1.68533	38.90
1.70200	38.87
1.71867	38.84
1.73533	38.80
1.75200	38.77
1.76867	38.74
1.78533	38.71
1.80200	38.68
1.81867	38.65
1.83533	38.61
1.85200	38.58
1.86867	38.56
1.88533	38.52
1.90200	38.49
1.91867	38.46
1.93533	38.43
1.95200	38.40
1.96867	38.37
1.98533	38.34
2.00200	38.31
2.01867	38.28
2.03533	38.25
2.05200	38.22
2.06867	38.19
2.08533	38.16
2.10200	38.13
2.11867	38.10
2.13533	38.07
2.15200	38.04
2.16867	38.01
2.18533	37.98
2.20200	37.95
2.21867	37.92
2.23533	37.89
2.25200	37.86
2.26867	37.84
2.28533	37.80
2.30200	37.77
2.31867	37.75
2.33533	37.72
2.35200	37.69
2.36867	37.67
2.38533	37.65
2.40200	37.65
2.41867	37.65
2.43533	37.66
2.45200	37.65
2.46867	37.65
2.48533	37.65
2.50200	37.65
2.51867	37.65
2.53533	37.65
2.55200	37.65
2.56867	37.65
2.58533	37.65
2.60200	37.65
2.61867	37.65
2.63533	37.65
2.65200	37.64
2.66867	37.64
2.68533	37.64
2.70200	37.64
2.71867	37.64
2.73533	37.64
2.75200	37.64
2.76867	37.64
2.78533	37.64
2.80200	37.64
2.81867	37.64
2.83533	37.64
2.85200	37.64
2.86867	37.64
2.88533	37.64
2.90200	37.63
2.91867	37.63
2.93533	37.63
2.95200	37.63
2.96867	37.63
2.98533	37.63
3.00200	37.63
3.01867	37.63
3.03533	37.63
3.05200	37.63
3.06867	37.63
3.08533	37.63
3.10200	37.63
3.11867	37.62
3.13533	37.62
3.15200	37.62
3.16867	37.62
3.18533	37.62
3.20200	37.62
3.21867	37.62
3.23533	37.62
3.25200	37.63
3.26867	37.63
3.28533	37.63
3.30200	37.63
3.31867	37.63
3.33533	37.63
3.35200	37.63
3.36867	37.63
3.38533	37.63
3.40200	37.63
3.41867	37.63
3.43533	37.63
3.45200	37.63
3.46867	37.63
3.48533	37.63
3.50200	37.63
3.51867	37.63
3.53533	37.63
3.55200	37.63
3.56867	37.62
3.58533	37.62
3.60200	37.62
3.61867	37.62
3.63533	37.62
3.65200	37.62
3.66867	37.62
3.68533	37.62
3.70200	37.62
3.71867	37.62
3.73533	37.62
3.75200	37.62
3.76867	37.62
3.78533	37.62
3.80200	37.62
3.81867	37.62
3.83533	37.63
3.85200	37.62
3.86867	37.62
3.88533	37.62
3.90200	37.62
3.91867	37.62
3.93533	37.62
3.95200	37.62
3.96867	37.62
3.98533	37.62

