[Header]
Application Name	LabSolutions
Version	5.110
Data File Name	C:\Users\User\Desktop\Junior\UIC Prairie Sampling\2023\8.18.23\081823_079.gcd
Output Date	8/31/2023
Output Time	12:48:12 PM

[File Information]
Type	Data File
Generated	8/31/2023 12:35:20 AM
Generated by	System Administrator
Modified	8/31/2023 12:41:39 AM
Modified by	System Administrator

[Sample Information]
Operator Name	System Administrator
Acquired	8/31/2023 12:37:38 AM
Sample Type	0:Unknown
Level	0
Sample Name	079
Sample ID	079
ISTD Amount1	1
ISTD Amount2	1
ISTD Amount3	1
ISTD Amount4	1
ISTD Amount5	1
ISTD Amount6	1
ISTD Amount7	1
ISTD Amount8	1
ISTD Amount9	1
ISTD Amount10	1
ISTD Amount11	1
ISTD Amount12	1
ISTD Amount13	1
ISTD Amount14	1
ISTD Amount15	1
ISTD Amount16	1
ISTD Amount17	1
ISTD Amount18	1
ISTD Amount19	1
ISTD Amount20	1
ISTD Amount21	1
ISTD Amount22	1
ISTD Amount23	1
ISTD Amount24	1
ISTD Amount25	1
ISTD Amount26	1
ISTD Amount27	1
ISTD Amount28	1
ISTD Amount29	1
ISTD Amount30	1
ISTD Amount31	1
ISTD Amount32	1
Sample Amount	1
Dilution Factor	1
Vial#	78
Injection Volume	1
Injection Count	1
Bar Code	

[Original Files]
Data File	C:\Users\User\Desktop\Junior\UIC Prairie Sampling\8.18.23\081823_079.gcd
Method File	C:\LabSolutions\Data\GHG_4min_2022\ghg3_togas_w_acet_4 min_new_int.gcm
Batch File	C:\LabSolutions\Data\BATCH FILES\081823.gcb
Report Format File	c:\LabSolutions\System\DEFAULT.lsr

[File Description]


[Configuration]
Instrument Name	C0B7VH3-Instrument1
Instrument #	1
Line #	1
# of Detectors	3
Detector ID	DET#1	DET#2	DET#3
Detector Name	FID	PTCD	ECD
# of Channels	1	1	1

[Peak Table(Ch1)]
# of Peaks	3
Peak#	R.Time	I.Time	F.Time	Area	Height	A/H	Conc.	Mark	ID#	Name	k'	Plate #	Plate Ht.	Tailing	Resolution	Sep.Factor	Area Ratio	Height Ratio	Conc. %	Norm Conc.
1	1.472	1.435	1.527	4523	2272	1.990	0.000	   	1	CO	0.000	9646	15.550	1.323	0.000	0.000	0	0	0.000	0.000
2	1.564	1.527	1.619	4753	2415	1.968	23.170	 V 	2	CH4	0.062	11536	13.002	1.137	1.551	0.000	0	0	7.603	7.603
3	1.989	1.934	2.576	1461061	696115	2.099	281.573	   	3	CO2	0.351	17534	8.555	1.323	7.190	5.640	0	0	92.397	92.397

[Peak Table(Ch2)]
# of Peaks	0

[Peak Table(Ch3)]
# of Peaks	6
Peak#	R.Time	I.Time	F.Time	Area	Height	A/H	Conc.	Mark	ID#	Name	k'	Plate #	Plate Ht.	Tailing	Resolution	Sep.Factor	Area Ratio	Height Ratio	Conc. %	Norm Conc.
1	2.458	2.396	2.510	939	331	2.841	0.000	   			0.000	12751	11.764	0.000	0.000	0.000	0	0	0.000	0.000
2	2.524	2.510	2.579	363	139	2.611	0.000	 V 			0.027	6033	24.864	0.000	0.608	0.000	0	0	0.000	0.000
3	2.627	2.579	2.700	393	109	3.610	0.000	 V 			0.069	9464	15.850	0.000	0.863	2.556	0	0	0.000	0.000
4	2.891	2.752	3.041	14871	4023	3.697	0.220	   	1	N2O	0.176	13886	10.802	1.491	2.561	2.565	0	0	100.000	100.000
5	3.298	3.111	3.478	759	57	13.335	0.000	   			0.342	120	1254.240	0.992	0.624	1.941	0	0	0.000	0.000
6	3.573	3.485	3.995	9783	606	16.154	0.000	   			0.453	1069	140.367	2.872	0.335	1.328	0	0	0.000	0.000

[Compound Results(Ch1)]
# of IDs	6
ID#	Name	R.Time	Area	Height	Conc.	Curve	3rd	2nd	1st	Constant	Area Ratio	Height Ratio	Conc. %	Norm Conc.
1	CO	1.472	4523	2272	0.000	Linear	0.000000e+00	0.000000e+00	0.000000e+00	0.000000e+00	0	0	0.000	0.000
2	CH4	1.564	4753	2415	23.170	Linear	0.000000e+00	0.000000e+00	2.051179e+002	0.000000e+00	0	0	7.603	7.603
3	CO2	1.989	1461061	696115	281.573	Linear	0.000000e+00	0.000000e+00	5.188919e+003	0.000000e+00	0	0	92.397	92.397
4	Ethylene	0.000	0	0	0.000	Linear	0.000000e+00	0.000000e+00	0.000000e+00	0.000000e+00	0	0	0.000	0.000
5	Acetylene	0.000	0	0	0.000	Linear	0.000000e+00	0.000000e+00	0.000000e+00	0.000000e+00	0	0	0.000	0.000
6	Ethane	0.000	0	0	0.000	Linear	0.000000e+00	0.000000e+00	0.000000e+00	0.000000e+00	0	0	0.000	0.000

[Compound Results(Ch2)]
# of IDs	5
ID#	Name	R.Time	Area	Height	Conc.	Curve	3rd	2nd	1st	Constant	Area Ratio	Height Ratio	Conc. %	Norm Conc.
1	Hydrogen	0.000	0	0	0.000	Linear	0.000000e+00	0.000000e+00	0.000000e+00	0.000000e+00	0	0	0.000	0.000
2	Oxygen	0.000	0	0	0.000	Linear	0.000000e+00	0.000000e+00	0.000000e+00	0.000000e+00	0	0	0.000	0.000
3	Nitrogen	0.000	0	0	0.000	Linear	0.000000e+00	0.000000e+00	0.000000e+00	0.000000e+00	0	0	0.000	0.000
4	Methane	0.000	0	0	0.000	Linear	0.000000e+00	0.000000e+00	0.000000e+00	0.000000e+00	0	0	0.000	0.000
5	Carbon Monoxide	0.000	0	0	0.000	Linear	0.000000e+00	0.000000e+00	0.000000e+00	0.000000e+00	0	0	0.000	0.000

[Compound Results(Ch3)]
# of IDs	2
ID#	Name	R.Time	Area	Height	Conc.	Curve	3rd	2nd	1st	Constant	Area Ratio	Height Ratio	Conc. %	Norm Conc.
1	N2O	2.891	14871	4023	0.220	Linear	0.000000e+00	0.000000e+00	6.759880e+004	0.000000e+00	0	0	100.000	100.000
2	SF6	0.000	0	0	0.000	Linear	0.000000e+00	0.000000e+00	0.000000e+00	0.000000e+00	0	0	0.000	0.000

[Group Results(Ch1)]
# of Groups	0

[Group Results(Ch2)]
# of Groups	0

[Group Results(Ch3)]
# of Groups	0

[Chromatogram (Ch1)]
Interval(msec)	220
# of Points	1091
Start Time(min)	0.002
End Time(min)	3.998
R.Time (min)	Intensity
0.00167	-7
0.00533	-6
0.00900	-1
0.01267	5
0.01633	8
0.02000	8
0.02367	6
0.02733	5
0.03100	4
0.03467	4
0.03833	4
0.04200	6
0.04567	10
0.04933	15
0.05300	22
0.05667	28
0.06033	32
0.06400	29
0.06767	23
0.07133	15
0.07500	8
0.07867	1
0.08233	-7
0.08600	-14
0.08967	-14
0.09333	-12
0.09700	-10
0.10067	-11
0.10433	-14
0.10800	-17
0.11167	-17
0.11533	-16
0.11900	-11
0.12267	-4
0.12633	-1
0.13000	-2
0.13367	-4
0.13733	-2
0.14100	2
0.14467	4
0.14833	2
0.15200	-6
0.15567	-16
0.15933	-21
0.16300	-22
0.16667	-19
0.17033	-13
0.17400	-9
0.17767	-5
0.18133	-2
0.18500	1
0.18867	2
0.19233	2
0.19600	2
0.19967	1
0.20333	-1
0.20700	-5
0.21067	-10
0.21433	-12
0.21800	-12
0.22167	-12
0.22533	-10
0.22900	-5
0.23267	-0
0.23633	1
0.24000	1
0.24367	-2
0.24733	-5
0.25100	-6
0.25467	-10
0.25833	-13
0.26200	-16
0.26567	-18
0.26933	-17
0.27300	-15
0.27667	-11
0.28033	-9
0.28400	-7
0.28767	-6
0.29133	-7
0.29500	-8
0.29867	-7
0.30233	-5
0.30600	-2
0.30967	0
0.31333	-1
0.31700	-6
0.32067	-12
0.32433	-19
0.32800	-26
0.33167	-33
0.33533	-36
0.33900	-30
0.34267	-18
0.34633	-4
0.35000	3
0.35367	2
0.35733	-3
0.36100	-5
0.36467	-3
0.36833	-1
0.37200	-1
0.37567	2
0.37933	6
0.38300	7
0.38667	2
0.39033	-5
0.39400	-12
0.39767	-17
0.40133	-19
0.40500	-20
0.40867	-25
0.41233	-30
0.41600	-33
0.41967	-32
0.42333	-28
0.42700	-25
0.43067	-25
0.43433	-27
0.43800	-27
0.44167	-26
0.44533	-22
0.44900	-17
0.45267	-12
0.45633	-9
0.46000	-8
0.46367	-10
0.46733	-14
0.47100	-16
0.47467	-16
0.47833	-16
0.48200	-15
0.48567	-15
0.48933	-16
0.49300	-16
0.49667	-17
0.50033	-15
0.50400	-11
0.50767	-5
0.51133	8
0.51500	22
0.51867	33
0.52233	40
0.52600	41
0.52967	35
0.53333	29
0.53700	26
0.54067	25
0.54433	25
0.54800	23
0.55167	20
0.55533	16
0.55900	12
0.56267	9
0.56633	7
0.57000	6
0.57367	6
0.57733	7
0.58100	7
0.58467	5
0.58833	1
0.59200	-1
0.59567	-4
0.59933	-5
0.60300	-2
0.60667	3
0.61033	3
0.61400	-1
0.61767	-4
0.62133	-5
0.62500	-5
0.62867	-3
0.63233	1
0.63600	4
0.63967	5
0.64333	1
0.64700	-6
0.65067	-11
0.65433	-16
0.65800	-17
0.66167	-15
0.66533	-12
0.66900	-10
0.67267	-11
0.67633	-15
0.68000	-19
0.68367	-22
0.68733	-20
0.69100	-13
0.69467	-9
0.69833	-9
0.70200	-10
0.70567	-11
0.70933	-11
0.71300	-11
0.71667	-13
0.72033	-12
0.72400	-8
0.72767	-4
0.73133	-4
0.73500	-5
0.73867	-6
0.74233	-7
0.74600	-5
0.74967	-2
0.75333	-1
0.75700	-3
0.76067	-7
0.76433	-14
0.76800	-22
0.77167	-30
0.77533	-34
0.77900	-33
0.78267	-29
0.78633	-28
0.79000	-29
0.79367	-31
0.79733	-34
0.80100	-34
0.80467	-34
0.80833	-34
0.81200	-35
0.81567	-37
0.81933	-38
0.82300	-32
0.82667	-25
0.83033	-19
0.83400	-16
0.83767	-14
0.84133	-15
0.84500	-17
0.84867	-19
0.85233	-17
0.85600	-13
0.85967	-10
0.86333	-9
0.86700	-6
0.87067	-3
0.87433	0
0.87800	1
0.88167	0
0.88533	0
0.88900	-2
0.89267	-7
0.89633	-14
0.90000	-19
0.90367	-23
0.90733	-27
0.91100	-28
0.91467	-27
0.91833	-25
0.92200	-23
0.92567	-20
0.92933	-25
0.93300	-32
0.93667	-33
0.94033	-29
0.94400	-25
0.94767	-22
0.95133	-17
0.95500	-13
0.95867	-11
0.96233	-14
0.96600	-19
0.96967	-28
0.97333	-33
0.97700	-36
0.98067	-38
0.98433	-40
0.98800	-38
0.99167	-33
0.99533	-28
0.99900	-23
1.00267	-16
1.00633	-9
1.01000	-7
1.01367	-3
1.01733	-1
1.02100	-2
1.02467	-4
1.02833	-8
1.03200	-11
1.03567	-14
1.03933	-17
1.04300	-20
1.04667	-24
1.05033	-26
1.05400	-26
1.05767	-26
1.06133	-28
1.06500	-28
1.06867	-26
1.07233	-27
1.07600	-27
1.07967	-27
1.08333	-25
1.08700	-23
1.09067	-21
1.09433	-21
1.09800	-24
1.10167	-24
1.10533	-24
1.10900	-27
1.11267	-31
1.11633	-32
1.12000	-31
1.12367	-30
1.12733	-30
1.13100	-27
1.13467	-24
1.13833	-25
1.14200	-28
1.14567	-32
1.14933	-32
1.15300	-26
1.15667	-16
1.16033	-7
1.16400	-2
1.16767	1
1.17133	5
1.17500	1
1.17867	-6
1.18233	-13
1.18600	-17
1.18967	-17
1.19333	-16
1.19700	-17
1.20067	-21
1.20433	-27
1.20800	-32
1.21167	-34
1.21533	-33
1.21900	-29
1.22267	-24
1.22633	-20
1.23000	-21
1.23367	-22
1.23733	-29
1.24100	-37
1.24467	-40
1.24833	-38
1.25200	-36
1.25567	-33
1.25933	-31
1.26300	-28
1.26667	-23
1.27033	-18
1.27400	-13
1.27767	-10
1.28133	-10
1.28500	-16
1.28867	-24
1.29233	-30
1.29600	-33
1.29967	-34
1.30333	-38
1.30700	-46
1.31067	-55
1.31433	-59
1.31800	-57
1.32167	-51
1.32533	-42
1.32900	-35
1.33267	-33
1.33633	-32
1.34000	-31
1.34367	-28
1.34733	-23
1.35100	-16
1.35467	-12
1.35833	-11
1.36200	-14
1.36567	-18
1.36933	-18
1.37300	-17
1.37667	-14
1.38033	-14
1.38400	-16
1.38767	-17
1.39133	-17
1.39500	-18
1.39867	-20
1.40233	-21
1.40600	-21
1.40967	-22
1.41333	-27
1.41700	-30
1.42067	-28
1.42433	-28
1.42800	-28
1.43167	-26
1.43533	-16
1.43900	-0
1.44267	6
1.44633	61
1.45000	275
1.45367	657
1.45733	1110
1.46100	1540
1.46467	1895
1.46833	2146
1.47200	2256
1.47567	2194
1.47933	1968
1.48300	1638
1.48667	1281
1.49033	954
1.49400	689
1.49767	488
1.50133	340
1.50500	232
1.50867	156
1.51233	104
1.51600	69
1.51967	44
1.52333	26
1.52700	14
1.53067	15
1.53433	58
1.53800	199
1.54167	498
1.54533	934
1.54900	1416
1.55267	1843
1.55633	2166
1.56000	2360
1.56367	2395
1.56733	2248
1.57100	1944
1.57467	1556
1.57833	1165
1.58200	827
1.58567	565
1.58933	374
1.59300	238
1.59667	146
1.60033	88
1.60400	51
1.60767	24
1.61133	4
1.61500	-12
1.61867	-22
1.62233	-26
1.62600	-27
1.62967	-25
1.63333	-21
1.63700	-15
1.64067	-11
1.64433	-6
1.64800	-3
1.65167	-3
1.65533	-7
1.65900	-12
1.66267	-20
1.66633	-24
1.67000	-23
1.67367	-21
1.67733	-17
1.68100	-15
1.68467	-18
1.68833	-22
1.69200	-28
1.69567	-34
1.69933	-36
1.70300	-34
1.70667	-31
1.71033	-26
1.71400	-21
1.71767	-18
1.72133	-22
1.72500	-28
1.72867	-32
1.73233	-32
1.73600	-31
1.73967	-32
1.74333	-33
1.74700	-33
1.75067	-27
1.75433	-19
1.75800	-10
1.76167	-7
1.76533	-11
1.76900	-21
1.77267	-27
1.77633	-29
1.78000	-29
1.78367	-31
1.78733	-33
1.79100	-34
1.79467	-31
1.79833	-30
1.80200	-31
1.80567	-34
1.80933	-39
1.81300	-43
1.81667	-48
1.82033	-51
1.82400	-52
1.82767	-54
1.83133	-56
1.83500	-55
1.83867	-54
1.84233	-52
1.84600	-48
1.84967	-44
1.85333	-41
1.85700	-38
1.86067	-37
1.86433	-41
1.86800	-42
1.87167	-40
1.87533	-38
1.87900	-36
1.88267	-32
1.88633	-29
1.89000	-28
1.89367	-29
1.89733	-32
1.90100	-35
1.90467	-38
1.90833	-38
1.91200	-36
1.91567	-36
1.91933	-41
1.92300	-43
1.92667	-42
1.93033	-38
1.93400	-33
1.93767	-28
1.94133	-22
1.94500	-8
1.94867	76
1.95233	599
1.95600	3139
1.95967	12425
1.96333	38143
1.96700	93227
1.97067	185439
1.97433	308568
1.97800	442804
1.98167	564248
1.98533	653146
1.98900	696111
1.99267	687693
1.99633	632276
2.00000	543345
2.00367	439309
2.00733	337326
2.01100	248769
2.01467	178289
2.01833	125599
2.02200	87900
2.02567	61709
2.02933	43837
2.03300	31747
2.03667	23581
2.04033	18036
2.04400	14224
2.04767	11558
2.05133	9654
2.05500	8265
2.05867	7224
2.06233	6419
2.06600	5779
2.06967	5262
2.07333	4839
2.07700	4483
2.08067	4175
2.08433	3907
2.08800	3673
2.09167	3464
2.09533	3278
2.09900	3109
2.10267	2956
2.10633	2817
2.11000	2688
2.11367	2570
2.11733	2459
2.12100	2355
2.12467	2260
2.12833	2176
2.13200	2099
2.13567	2029
2.13933	1963
2.14300	1898
2.14667	1832
2.15033	1766
2.15400	1702
2.15767	1644
2.16133	1594
2.16500	1549
2.16867	1502
2.17233	1456
2.17600	1413
2.17967	1378
2.18333	1351
2.18700	1329
2.19067	1305
2.19433	1280
2.19800	1253
2.20167	1225
2.20533	1193
2.20900	1159
2.21267	1128
2.21633	1096
2.22000	1068
2.22367	1044
2.22733	1021
2.23100	993
2.23467	963
2.23833	935
2.24200	909
2.24567	887
2.24933	868
2.25300	848
2.25667	830
2.26033	816
2.26400	805
2.26767	792
2.27133	778
2.27500	764
2.27867	751
2.28233	737
2.28600	719
2.28967	700
2.29333	681
2.29700	668
2.30067	663
2.30433	662
2.30800	658
2.31167	652
2.31533	645
2.31900	633
2.32267	617
2.32633	601
2.33000	587
2.33367	578
2.33733	572
2.34100	566
2.34467	559
2.34833	553
2.35200	546
2.35567	535
2.35933	523
2.36300	512
2.36667	503
2.37033	496
2.37400	491
2.37767	487
2.38133	481
2.38500	479
2.38867	479
2.39233	478
2.39600	473
2.39967	469
2.40333	465
2.40700	461
2.41067	455
2.41433	449
2.41800	443
2.42167	438
2.42533	435
2.42900	434
2.43267	433
2.43633	429
2.44000	424
2.44367	420
2.44733	412
2.45100	403
2.45467	395
2.45833	393
2.46200	393
2.46567	394
2.46933	395
2.47300	395
2.47667	391
2.48033	383
2.48400	373
2.48767	364
2.49133	354
2.49500	347
2.49867	344
2.50233	344
2.50600	348
2.50967	352
2.51333	352
2.51700	352
2.52067	353
2.52433	354
2.52800	353
2.53167	351
2.53533	349
2.53900	346
2.54267	343
2.54633	341
2.55000	340
2.55367	336
2.55733	328
2.56100	319
2.56467	312
2.56833	307
2.57200	306
2.57567	306
2.57933	308
2.58300	312
2.58667	315
2.59033	318
2.59400	318
2.59767	315
2.60133	310
2.60500	304
2.60867	297
2.61233	294
2.61600	297
2.61967	303
2.62333	304
2.62700	304
2.63067	301
2.63433	297
2.63800	293
2.64167	291
2.64533	292
2.64900	296
2.65267	301
2.65633	300
2.66000	296
2.66367	290
2.66733	285
2.67100	282
2.67467	280
2.67833	277
2.68200	274
2.68567	269
2.68933	266
2.69300	266
2.69667	268
2.70033	268
2.70400	266
2.70767	265
2.71133	266
2.71500	270
2.71867	274
2.72233	279
2.72600	284
2.72967	288
2.73333	287
2.73700	282
2.74067	280
2.74433	280
2.74800	280
2.75167	282
2.75533	284
2.75900	289
2.76267	292
2.76633	293
2.77000	291
2.77367	284
2.77733	279
2.78100	272
2.78467	269
2.78833	269
2.79200	270
2.79567	270
2.79933	267
2.80300	261
2.80667	256
2.81033	251
2.81400	247
2.81767	246
2.82133	247
2.82500	250
2.82867	252
2.83233	252
2.83600	255
2.83967	263
2.84333	270
2.84700	270
2.85067	269
2.85433	269
2.85800	269
2.86167	269
2.86533	267
2.86900	263
2.87267	261
2.87633	261
2.88000	265
2.88367	269
2.88733	271
2.89100	275
2.89467	280
2.89833	286
2.90200	288
2.90567	288
2.90933	283
2.91300	277
2.91667	272
2.92033	270
2.92400	271
2.92767	272
2.93133	274
2.93500	274
2.93867	272
2.94233	268
2.94600	265
2.94967	266
2.95333	268
2.95700	266
2.96067	264
2.96433	262
2.96800	261
2.97167	261
2.97533	259
2.97900	260
2.98267	262
2.98633	265
2.99000	269
2.99367	273
2.99733	279
3.00100	282
3.00467	282
3.00833	283
3.01200	285
3.01567	288
3.01933	290
3.02300	288
3.02667	280
3.03033	275
3.03400	274
3.03767	270
3.04133	268
3.04500	266
3.04867	264
3.05233	264
3.05600	264
3.05967	263
3.06333	264
3.06700	269
3.07067	277
3.07433	282
3.07800	285
3.08167	285
3.08533	282
3.08900	280
3.09267	278
3.09633	271
3.10000	265
3.10367	261
3.10733	262
3.11100	267
3.11467	270
3.11833	272
3.12200	275
3.12567	277
3.12933	276
3.13300	271
3.13667	267
3.14033	266
3.14400	268
3.14767	271
3.15133	273
3.15500	273
3.15867	275
3.16233	279
3.16600	284
3.16967	287
3.17333	285
3.17700	281
3.18067	276
3.18433	271
3.18800	266
3.19167	259
3.19533	254
3.19900	256
3.20267	259
3.20633	263
3.21000	269
3.21367	274
3.21733	274
3.22100	272
3.22467	268
3.22833	263
3.23200	260
3.23567	263
3.23933	266
3.24300	265
3.24667	263
3.25033	260
3.25400	254
3.25767	250
3.26133	250
3.26500	254
3.26867	260
3.27233	263
3.27600	264
3.27967	264
3.28333	267
3.28700	273
3.29067	278
3.29433	280
3.29800	279
3.30167	277
3.30533	275
3.30900	272
3.31267	271
3.31633	269
3.32000	267
3.32367	266
3.32733	264
3.33100	262
3.33467	259
3.33833	257
3.34200	254
3.34567	253
3.34933	254
3.35300	257
3.35667	262
3.36033	265
3.36400	265
3.36767	263
3.37133	263
3.37500	265
3.37867	267
3.38233	266
3.38600	262
3.38967	262
3.39333	268
3.39700	274
3.40067	279
3.40433	279
3.40800	277
3.41167	273
3.41533	271
3.41900	271
3.42267	272
3.42633	274
3.43000	278
3.43367	280
3.43733	276
3.44100	271
3.44467	269
3.44833	268
3.45200	267
3.45567	263
3.45933	260
3.46300	258
3.46667	254
3.47033	250
3.47400	247
3.47767	247
3.48133	247
3.48500	246
3.48867	249
3.49233	254
3.49600	253
3.49967	249
3.50333	247
3.50700	248
3.51067	249
3.51433	251
3.51800	253
3.52167	256
3.52533	258
3.52900	256
3.53267	252
3.53633	245
3.54000	240
3.54367	236
3.54733	235
3.55100	234
3.55467	233
3.55833	236
3.56200	241
3.56567	243
3.56933	244
3.57300	243
3.57667	241
3.58033	239
3.58400	240
3.58767	241
3.59133	240
3.59500	239
3.59867	239
3.60233	242
3.60600	247
3.60967	251
3.61333	252
3.61700	252
3.62067	253
3.62433	257
3.62800	259
3.63167	259
3.63533	258
3.63900	256
3.64267	254
3.64633	252
3.65000	248
3.65367	243
3.65733	239
3.66100	238
3.66467	239
3.66833	237
3.67200	233
3.67567	227
3.67933	222
3.68300	222
3.68667	227
3.69033	233
3.69400	237
3.69767	237
3.70133	240
3.70500	242
3.70867	241
3.71233	239
3.71600	235
3.71967	232
3.72333	228
3.72700	227
3.73067	230
3.73433	234
3.73800	240
3.74167	246
3.74533	252
3.74900	256
3.75267	258
3.75633	255
3.76000	248
3.76367	243
3.76733	240
3.77100	239
3.77467	240
3.77833	238
3.78200	234
3.78567	227
3.78933	220
3.79300	216
3.79667	213
3.80033	211
3.80400	211
3.80767	213
3.81133	219
3.81500	223
3.81867	223
3.82233	224
3.82600	226
3.82967	226
3.83333	225
3.83700	223
3.84067	216
3.84433	210
3.84800	208
3.85167	210
3.85533	215
3.85900	219
3.86267	221
3.86633	220
3.87000	217
3.87367	215
3.87733	215
3.88100	216
3.88467	212
3.88833	206
3.89200	203
3.89567	205
3.89933	210
3.90300	214
3.90667	217
3.91033	218
3.91400	215
3.91767	212
3.92133	209
3.92500	205
3.92867	204
3.93233	208
3.93600	213
3.93967	217
3.94333	218
3.94700	215
3.95067	212
3.95433	208
3.95800	203
3.96167	199
3.96533	197
3.96900	198
3.97267	202
3.97633	207
3.98000	206
3.98367	205
3.98733	208
3.99100	213
3.99467	218
3.99833	222

[Chromatogram (Ch2)]
Interval(msec)	220
# of Points	1091
Start Time(min)	0.002
End Time(min)	3.998
R.Time (min)	Intensity
0.00167	-0
0.00533	-1
0.00900	-1
0.01267	-0
0.01633	-0
0.02000	-0
0.02367	-0
0.02733	-0
0.03100	0
0.03467	0
0.03833	0
0.04200	0
0.04567	0
0.04933	-0
0.05300	-0
0.05667	-0
0.06033	-0
0.06400	-0
0.06767	0
0.07133	1
0.07500	1
0.07867	0
0.08233	-0
0.08600	-0
0.08967	-0
0.09333	0
0.09700	1
0.10067	1
0.10433	2
0.10800	3
0.11167	3
0.11533	4
0.11900	5
0.12267	5
0.12633	5
0.13000	6
0.13367	6
0.13733	6
0.14100	6
0.14467	6
0.14833	5
0.15200	5
0.15567	5
0.15933	5
0.16300	5
0.16667	5
0.17033	5
0.17400	4
0.17767	4
0.18133	4
0.18500	4
0.18867	4
0.19233	4
0.19600	4
0.19967	3
0.20333	4
0.20700	4
0.21067	4
0.21433	4
0.21800	4
0.22167	4
0.22533	4
0.22900	4
0.23267	4
0.23633	4
0.24000	3
0.24367	3
0.24733	3
0.25100	3
0.25467	3
0.25833	3
0.26200	3
0.26567	3
0.26933	3
0.27300	3
0.27667	3
0.28033	2
0.28400	2
0.28767	2
0.29133	2
0.29500	2
0.29867	2
0.30233	2
0.30600	2
0.30967	2
0.31333	2
0.31700	1
0.32067	1
0.32433	1
0.32800	1
0.33167	1
0.33533	1
0.33900	0
0.34267	0
0.34633	1
0.35000	1
0.35367	1
0.35733	1
0.36100	1
0.36467	1
0.36833	1
0.37200	1
0.37567	1
0.37933	0
0.38300	1
0.38667	1
0.39033	1
0.39400	1
0.39767	1
0.40133	1
0.40500	1
0.40867	1
0.41233	1
0.41600	1
0.41967	1
0.42333	1
0.42700	1
0.43067	0
0.43433	0
0.43800	0
0.44167	0
0.44533	0
0.44900	0
0.45267	0
0.45633	-0
0.46000	-0
0.46367	-0
0.46733	-0
0.47100	-0
0.47467	-0
0.47833	0
0.48200	0
0.48567	0
0.48933	1
0.49300	1
0.49667	1
0.50033	1
0.50400	1
0.50767	1
0.51133	1
0.51500	1
0.51867	1
0.52233	1
0.52600	1
0.52967	1
0.53333	1
0.53700	1
0.54067	1
0.54433	2
0.54800	2
0.55167	2
0.55533	2
0.55900	2
0.56267	2
0.56633	2
0.57000	2
0.57367	2
0.57733	2
0.58100	2
0.58467	1
0.58833	1
0.59200	1
0.59567	1
0.59933	0
0.60300	0
0.60667	-0
0.61033	-1
0.61400	-1
0.61767	-0
0.62133	-0
0.62500	0
0.62867	0
0.63233	1
0.63600	1
0.63967	1
0.64333	1
0.64700	1
0.65067	1
0.65433	1
0.65800	1
0.66167	1
0.66533	0
0.66900	0
0.67267	0
0.67633	0
0.68000	1
0.68367	1
0.68733	1
0.69100	1
0.69467	1
0.69833	1
0.70200	1
0.70567	1
0.70933	1
0.71300	1
0.71667	1
0.72033	1
0.72400	1
0.72767	1
0.73133	1
0.73500	1
0.73867	1
0.74233	1
0.74600	1
0.74967	1
0.75333	1
0.75700	0
0.76067	-0
0.76433	-1
0.76800	-1
0.77167	-1
0.77533	-1
0.77900	-1
0.78267	-1
0.78633	-2
0.79000	-2
0.79367	-2
0.79733	-1
0.80100	-1
0.80467	-1
0.80833	-1
0.81200	-1
0.81567	-1
0.81933	-1
0.82300	-0
0.82667	-0
0.83033	-0
0.83400	-0
0.83767	-0
0.84133	-0
0.84500	-0
0.84867	-0
0.85233	-0
0.85600	-0
0.85967	-0
0.86333	-0
0.86700	-0
0.87067	-0
0.87433	-0
0.87800	-0
0.88167	-0
0.88533	-0
0.88900	-0
0.89267	-0
0.89633	-0
0.90000	-0
0.90367	0
0.90733	0
0.91100	0
0.91467	0
0.91833	0
0.92200	1
0.92567	1
0.92933	1
0.93300	1
0.93667	1
0.94033	1
0.94400	1
0.94767	1
0.95133	0
0.95500	0
0.95867	-0
0.96233	-0
0.96600	-0
0.96967	0
0.97333	0
0.97700	1
0.98067	1
0.98433	1
0.98800	0
0.99167	0
0.99533	-0
0.99900	-0
1.00267	-1
1.00633	-1
1.01000	-1
1.01367	-1
1.01733	-2
1.02100	-2
1.02467	-2
1.02833	-2
1.03200	-1
1.03567	-1
1.03933	-1
1.04300	-1
1.04667	-2
1.05033	-2
1.05400	-2
1.05767	-2
1.06133	-2
1.06500	-2
1.06867	-2
1.07233	-2
1.07600	-1
1.07967	-1
1.08333	-1
1.08700	-0
1.09067	-0
1.09433	-0
1.09800	0
1.10167	0
1.10533	0
1.10900	0
1.11267	0
1.11633	0
1.12000	0
1.12367	0
1.12733	-0
1.13100	-0
1.13467	-0
1.13833	-0
1.14200	-0
1.14567	-0
1.14933	-0
1.15300	0
1.15667	0
1.16033	0
1.16400	0
1.16767	-0
1.17133	-0
1.17500	-0
1.17867	-0
1.18233	-0
1.18600	-0
1.18967	-0
1.19333	-0
1.19700	-0
1.20067	-0
1.20433	-0
1.20800	-0
1.21167	-0
1.21533	-0
1.21900	-0
1.22267	-1
1.22633	-1
1.23000	-1
1.23367	-1
1.23733	-1
1.24100	-1
1.24467	-1
1.24833	-1
1.25200	-1
1.25567	-1
1.25933	-1
1.26300	-1
1.26667	-1
1.27033	-1
1.27400	-1
1.27767	-1
1.28133	-1
1.28500	-1
1.28867	-1
1.29233	-1
1.29600	-1
1.29967	-1
1.30333	-2
1.30700	-2
1.31067	-1
1.31433	-1
1.31800	-1
1.32167	-1
1.32533	-1
1.32900	-1
1.33267	-2
1.33633	-2
1.34000	-1
1.34367	-1
1.34733	-1
1.35100	-1
1.35467	-1
1.35833	-1
1.36200	-1
1.36567	-1
1.36933	-2
1.37300	-2
1.37667	-2
1.38033	-2
1.38400	-2
1.38767	-1
1.39133	-1
1.39500	-1
1.39867	-1
1.40233	-1
1.40600	-1
1.40967	-1
1.41333	-1
1.41700	-1
1.42067	-1
1.42433	-1
1.42800	-1
1.43167	-2
1.43533	-2
1.43900	-2
1.44267	-2
1.44633	-2
1.45000	-3
1.45367	-3
1.45733	-3
1.46100	-2
1.46467	-2
1.46833	-2
1.47200	-2
1.47567	-2
1.47933	-2
1.48300	-2
1.48667	-2
1.49033	-2
1.49400	-2
1.49767	-1
1.50133	-1
1.50500	-1
1.50867	-0
1.51233	-0
1.51600	-0
1.51967	-0
1.52333	0
1.52700	0
1.53067	1
1.53433	1
1.53800	1
1.54167	1
1.54533	1
1.54900	1
1.55267	1
1.55633	1
1.56000	1
1.56367	1
1.56733	1
1.57100	0
1.57467	0
1.57833	0
1.58200	0
1.58567	-0
1.58933	-1
1.59300	-1
1.59667	-2
1.60033	-3
1.60400	-4
1.60767	-6
1.61133	-7
1.61500	-9
1.61867	-12
1.62233	-14
1.62600	-17
1.62967	-20
1.63333	-24
1.63700	-27
1.64067	-30
1.64433	-33
1.64800	-36
1.65167	-39
1.65533	-43
1.65900	-46
1.66267	-50
1.66633	-54
1.67000	-58
1.67367	-63
1.67733	-67
1.68100	-72
1.68467	-76
1.68833	-80
1.69200	-84
1.69567	-87
1.69933	-89
1.70300	-91
1.70667	-93
1.71033	-93
1.71400	-94
1.71767	-94
1.72133	-94
1.72500	-94
1.72867	-94
1.73233	-94
1.73600	-94
1.73967	-94
1.74333	-93
1.74700	-93
1.75067	-92
1.75433	-92
1.75800	-92
1.76167	-92
1.76533	-92
1.76900	-93
1.77267	-94
1.77633	-95
1.78000	-96
1.78367	-96
1.78733	-97
1.79100	-97
1.79467	-98
1.79833	-98
1.80200	-98
1.80567	-99
1.80933	-99
1.81300	-99
1.81667	-100
1.82033	-100
1.82400	-100
1.82767	-100
1.83133	-99
1.83500	-98
1.83867	-97
1.84233	-96
1.84600	-96
1.84967	-96
1.85333	-96
1.85700	-96
1.86067	-96
1.86433	-97
1.86800	-97
1.87167	-98
1.87533	-98
1.87900	-98
1.88267	-98
1.88633	-98
1.89000	-98
1.89367	-98
1.89733	-98
1.90100	-98
1.90467	-98
1.90833	-99
1.91200	-99
1.91567	-100
1.91933	-100
1.92300	-99
1.92667	-99
1.93033	-98
1.93400	-98
1.93767	-97
1.94133	-97
1.94500	-97
1.94867	-96
1.95233	-95
1.95600	-95
1.95967	-94
1.96333	-94
1.96700	-94
1.97067	-94
1.97433	-94
1.97800	-94
1.98167	-94
1.98533	-93
1.98900	-93
1.99267	-93
1.99633	-93
2.00000	-93
2.00367	-93
2.00733	-94
2.01100	-94
2.01467	-94
2.01833	-95
2.02200	-94
2.02567	-94
2.02933	-94
2.03300	-93
2.03667	-93
2.04033	-93
2.04400	-93
2.04767	-92
2.05133	-92
2.05500	-91
2.05867	-91
2.06233	-90
2.06600	-90
2.06967	-90
2.07333	-89
2.07700	-89
2.08067	-89
2.08433	-89
2.08800	-88
2.09167	-87
2.09533	-86
2.09900	-85
2.10267	-84
2.10633	-84
2.11000	-83
2.11367	-83
2.11733	-82
2.12100	-82
2.12467	-82
2.12833	-82
2.13200	-82
2.13567	-82
2.13933	-82
2.14300	-82
2.14667	-82
2.15033	-82
2.15400	-81
2.15767	-80
2.16133	-80
2.16500	-79
2.16867	-78
2.17233	-77
2.17600	-77
2.17967	-76
2.18333	-77
2.18700	-77
2.19067	-77
2.19433	-77
2.19800	-77
2.20167	-77
2.20533	-77
2.20900	-76
2.21267	-75
2.21633	-75
2.22000	-74
2.22367	-74
2.22733	-74
2.23100	-73
2.23467	-73
2.23833	-73
2.24200	-73
2.24567	-73
2.24933	-74
2.25300	-74
2.25667	-74
2.26033	-73
2.26400	-73
2.26767	-72
2.27133	-72
2.27500	-72
2.27867	-71
2.28233	-71
2.28600	-71
2.28967	-70
2.29333	-70
2.29700	-69
2.30067	-69
2.30433	-69
2.30800	-70
2.31167	-70
2.31533	-70
2.31900	-70
2.32267	-70
2.32633	-70
2.33000	-70
2.33367	-69
2.33733	-69
2.34100	-68
2.34467	-68
2.34833	-67
2.35200	-66
2.35567	-64
2.35933	-63
2.36300	-61
2.36667	-59
2.37033	-56
2.37400	-53
2.37767	-50
2.38133	-47
2.38500	-43
2.38867	-40
2.39233	-36
2.39600	-32
2.39967	-28
2.40333	-24
2.40700	-20
2.41067	-16
2.41433	-13
2.41800	-10
2.42167	-8
2.42533	-6
2.42900	-4
2.43267	-3
2.43633	-1
2.44000	1
2.44367	3
2.44733	5
2.45100	7
2.45467	8
2.45833	9
2.46200	10
2.46567	11
2.46933	11
2.47300	12
2.47667	13
2.48033	14
2.48400	15
2.48767	16
2.49133	17
2.49500	17
2.49867	18
2.50233	18
2.50600	18
2.50967	19
2.51333	19
2.51700	19
2.52067	19
2.52433	18
2.52800	18
2.53167	17
2.53533	17
2.53900	16
2.54267	16
2.54633	16
2.55000	16
2.55367	15
2.55733	15
2.56100	14
2.56467	14
2.56833	13
2.57200	13
2.57567	13
2.57933	13
2.58300	13
2.58667	14
2.59033	15
2.59400	16
2.59767	17
2.60133	17
2.60500	18
2.60867	18
2.61233	18
2.61600	18
2.61967	18
2.62333	18
2.62700	18
2.63067	18
2.63433	18
2.63800	19
2.64167	19
2.64533	20
2.64900	20
2.65267	21
2.65633	21
2.66000	21
2.66367	21
2.66733	21
2.67100	21
2.67467	22
2.67833	22
2.68200	23
2.68567	24
2.68933	24
2.69300	25
2.69667	26
2.70033	27
2.70400	27
2.70767	27
2.71133	28
2.71500	28
2.71867	28
2.72233	28
2.72600	28
2.72967	28
2.73333	28
2.73700	28
2.74067	28
2.74433	28
2.74800	27
2.75167	27
2.75533	27
2.75900	26
2.76267	26
2.76633	26
2.77000	26
2.77367	26
2.77733	26
2.78100	26
2.78467	26
2.78833	27
2.79200	27
2.79567	27
2.79933	27
2.80300	28
2.80667	28
2.81033	28
2.81400	28
2.81767	29
2.82133	29
2.82500	29
2.82867	29
2.83233	30
2.83600	30
2.83967	30
2.84333	29
2.84700	29
2.85067	29
2.85433	28
2.85800	26
2.86167	22
2.86533	17
2.86900	8
2.87267	-4
2.87633	-21
2.88000	-43
2.88367	-70
2.88733	-103
2.89100	-141
2.89467	-184
2.89833	-233
2.90200	-285
2.90567	-342
2.90933	-402
2.91300	-464
2.91667	-528
2.92033	-593
2.92400	-658
2.92767	-722
2.93133	-784
2.93500	-842
2.93867	-898
2.94233	-953
2.94600	-1008
2.94967	-1061
2.95333	-1101
2.95700	-1119
2.96067	-1113
2.96433	-1082
2.96800	-1030
2.97167	-963
2.97533	-887
2.97900	-806
2.98267	-724
2.98633	-644
2.99000	-568
2.99367	-497
2.99733	-433
3.00100	-374
3.00467	-322
3.00833	-276
3.01200	-236
3.01567	-200
3.01933	-170
3.02300	-143
3.02667	-120
3.03033	-100
3.03400	-83
3.03767	-68
3.04133	-56
3.04500	-45
3.04867	-35
3.05233	-28
3.05600	-21
3.05967	-15
3.06333	-10
3.06700	-6
3.07067	-2
3.07433	1
3.07800	4
3.08167	6
3.08533	8
3.08900	9
3.09267	11
3.09633	12
3.10000	13
3.10367	14
3.10733	15
3.11100	16
3.11467	17
3.11833	17
3.12200	18
3.12567	19
3.12933	19
3.13300	20
3.13667	20
3.14033	20
3.14400	20
3.14767	21
3.15133	21
3.15500	21
3.15867	22
3.16233	22
3.16600	22
3.16967	22
3.17333	22
3.17700	23
3.18067	23
3.18433	23
3.18800	23
3.19167	24
3.19533	24
3.19900	24
3.20267	25
3.20633	25
3.21000	25
3.21367	25
3.21733	25
3.22100	25
3.22467	26
3.22833	26
3.23200	26
3.23567	26
3.23933	26
3.24300	26
3.24667	26
3.25033	26
3.25400	26
3.25767	27
3.26133	27
3.26500	27
3.26867	28
3.27233	28
3.27600	28
3.27967	29
3.28333	29
3.28700	30
3.29067	30
3.29433	30
3.29800	31
3.30167	31
3.30533	31
3.30900	31
3.31267	31
3.31633	31
3.32000	31
3.32367	31
3.32733	31
3.33100	31
3.33467	31
3.33833	31
3.34200	31
3.34567	31
3.34933	31
3.35300	31
3.35667	31
3.36033	31
3.36400	31
3.36767	31
3.37133	31
3.37500	31
3.37867	31
3.38233	31
3.38600	31
3.38967	31
3.39333	31
3.39700	31
3.40067	31
3.40433	30
3.40800	30
3.41167	30
3.41533	30
3.41900	30
3.42267	30
3.42633	30
3.43000	31
3.43367	31
3.43733	31
3.44100	31
3.44467	31
3.44833	31
3.45200	30
3.45567	31
3.45933	31
3.46300	31
3.46667	31
3.47033	31
3.47400	31
3.47767	31
3.48133	31
3.48500	31
3.48867	31
3.49233	30
3.49600	30
3.49967	30
3.50333	30
3.50700	30
3.51067	31
3.51433	31
3.51800	31
3.52167	31
3.52533	31
3.52900	31
3.53267	31
3.53633	31
3.54000	31
3.54367	31
3.54733	31
3.55100	31
3.55467	32
3.55833	32
3.56200	32
3.56567	32
3.56933	32
3.57300	32
3.57667	32
3.58033	32
3.58400	31
3.58767	31
3.59133	31
3.59500	30
3.59867	30
3.60233	30
3.60600	30
3.60967	29
3.61333	29
3.61700	29
3.62067	29
3.62433	29
3.62800	29
3.63167	29
3.63533	29
3.63900	29
3.64267	29
3.64633	29
3.65000	28
3.65367	28
3.65733	29
3.66100	29
3.66467	29
3.66833	29
3.67200	29
3.67567	29
3.67933	29
3.68300	29
3.68667	29
3.69033	29
3.69400	29
3.69767	30
3.70133	30
3.70500	30
3.70867	30
3.71233	30
3.71600	30
3.71967	30
3.72333	30
3.72700	30
3.73067	31
3.73433	30
3.73800	30
3.74167	30
3.74533	30
3.74900	30
3.75267	30
3.75633	30
3.76000	30
3.76367	30
3.76733	30
3.77100	30
3.77467	30
3.77833	30
3.78200	31
3.78567	31
3.78933	31
3.79300	31
3.79667	32
3.80033	32
3.80400	32
3.80767	32
3.81133	32
3.81500	32
3.81867	32
3.82233	31
3.82600	31
3.82967	31
3.83333	31
3.83700	31
3.84067	31
3.84433	31
3.84800	31
3.85167	31
3.85533	31
3.85900	31
3.86267	31
3.86633	31
3.87000	31
3.87367	31
3.87733	32
3.88100	31
3.88467	31
3.88833	32
3.89200	32
3.89567	32
3.89933	32
3.90300	32
3.90667	32
3.91033	32
3.91400	32
3.91767	32
3.92133	31
3.92500	31
3.92867	31
3.93233	32
3.93600	32
3.93967	31
3.94333	31
3.94700	31
3.95067	31
3.95433	31
3.95800	31
3.96167	31
3.96533	31
3.96900	31
3.97267	31
3.97633	31
3.98000	31
3.98367	31
3.98733	31
3.99100	31
3.99467	31
3.99833	31

[Chromatogram (Ch3)]
Interval(msec)	220
# of Points	1091
Start Time(min)	0.002
End Time(min)	3.998
R.Time (min)	Intensity
0.00167	0
0.00533	-0
0.00900	-0
0.01267	1
0.01633	0
0.02000	1
0.02367	1
0.02733	1
0.03100	-1
0.03467	-3
0.03833	-5
0.04200	-7
0.04567	-8
0.04933	-8
0.05300	-8
0.05667	-7
0.06033	-6
0.06400	-7
0.06767	-8
0.07133	-7
0.07500	-6
0.07867	-7
0.08233	-8
0.08600	-7
0.08967	-7
0.09333	-5
0.09700	-2
0.10067	-0
0.10433	-1
0.10800	-2
0.11167	-3
0.11533	-3
0.11900	-2
0.12267	-0
0.12633	1
0.13000	2
0.13367	2
0.13733	1
0.14100	2
0.14467	1
0.14833	1
0.15200	1
0.15567	2
0.15933	2
0.16300	2
0.16667	2
0.17033	1
0.17400	-2
0.17767	-4
0.18133	-8
0.18500	-12
0.18867	-12
0.19233	-11
0.19600	-11
0.19967	-9
0.20333	-6
0.20700	-4
0.21067	-5
0.21433	-7
0.21800	-10
0.22167	-14
0.22533	-13
0.22900	-12
0.23267	-12
0.23633	-10
0.24000	-8
0.24367	-10
0.24733	-11
0.25100	-11
0.25467	-10
0.25833	-10
0.26200	-10
0.26567	-10
0.26933	-11
0.27300	-12
0.27667	-15
0.28033	-15
0.28400	-13
0.28767	-12
0.29133	-12
0.29500	-12
0.29867	-10
0.30233	-9
0.30600	-8
0.30967	-7
0.31333	-5
0.31700	-5
0.32067	-6
0.32433	-6
0.32800	-6
0.33167	-7
0.33533	-9
0.33900	-6
0.34267	-5
0.34633	-4
0.35000	-5
0.35367	-5
0.35733	-6
0.36100	-8
0.36467	-10
0.36833	-13
0.37200	-17
0.37567	-19
0.37933	-19
0.38300	-16
0.38667	-13
0.39033	-12
0.39400	-12
0.39767	-12
0.40133	-11
0.40500	-11
0.40867	-12
0.41233	-11
0.41600	-12
0.41967	-11
0.42333	-8
0.42700	-6
0.43067	-6
0.43433	-7
0.43800	-7
0.44167	-8
0.44533	-9
0.44900	-9
0.45267	-10
0.45633	-11
0.46000	-11
0.46367	-11
0.46733	-12
0.47100	-11
0.47467	-13
0.47833	-16
0.48200	-18
0.48567	-19
0.48933	-19
0.49300	-16
0.49667	-13
0.50033	-10
0.50400	-9
0.50767	-8
0.51133	-8
0.51500	-8
0.51867	-8
0.52233	-9
0.52600	-9
0.52967	-9
0.53333	-13
0.53700	-17
0.54067	-19
0.54433	-20
0.54800	-18
0.55167	-16
0.55533	-16
0.55900	-16
0.56267	-13
0.56633	-10
0.57000	-7
0.57367	-6
0.57733	-5
0.58100	-5
0.58467	-5
0.58833	-2
0.59200	-2
0.59567	-5
0.59933	-5
0.60300	-6
0.60667	-7
0.61033	-10
0.61400	-12
0.61767	-15
0.62133	-17
0.62500	-16
0.62867	-13
0.63233	-13
0.63600	-13
0.63967	-12
0.64333	-12
0.64700	-14
0.65067	-16
0.65433	-16
0.65800	-16
0.66167	-13
0.66533	-10
0.66900	-7
0.67267	-6
0.67633	-6
0.68000	-6
0.68367	-7
0.68733	-8
0.69100	-9
0.69467	-10
0.69833	-11
0.70200	-11
0.70567	-11
0.70933	-11
0.71300	-11
0.71667	-13
0.72033	-14
0.72400	-15
0.72767	-15
0.73133	-16
0.73500	-17
0.73867	-16
0.74233	-18
0.74600	-19
0.74967	-18
0.75333	-16
0.75700	-15
0.76067	-13
0.76433	-11
0.76800	-11
0.77167	-15
0.77533	-18
0.77900	-21
0.78267	-20
0.78633	-16
0.79000	-13
0.79367	-12
0.79733	-11
0.80100	-9
0.80467	-9
0.80833	-11
0.81200	-11
0.81567	-11
0.81933	-12
0.82300	-15
0.82667	-18
0.83033	-20
0.83400	-21
0.83767	-21
0.84133	-20
0.84500	-18
0.84867	-16
0.85233	-13
0.85600	-11
0.85967	-11
0.86333	-14
0.86700	-17
0.87067	-16
0.87433	-16
0.87800	-16
0.88167	-15
0.88533	-15
0.88900	-17
0.89267	-19
0.89633	-17
0.90000	-15
0.90367	-13
0.90733	-12
0.91100	-10
0.91467	-8
0.91833	-8
0.92200	-12
0.92567	-15
0.92933	-16
0.93300	-19
0.93667	-19
0.94033	-18
0.94400	-18
0.94767	-18
0.95133	-16
0.95500	-15
0.95867	-15
0.96233	-15
0.96600	-15
0.96967	-15
0.97333	-15
0.97700	-14
0.98067	-14
0.98433	-14
0.98800	-14
0.99167	-14
0.99533	-13
0.99900	-14
1.00267	-15
1.00633	-17
1.01000	-19
1.01367	-19
1.01733	-17
1.02100	-15
1.02467	-12
1.02833	-10
1.03200	-11
1.03567	-13
1.03933	-14
1.04300	-15
1.04667	-14
1.05033	-12
1.05400	-12
1.05767	-14
1.06133	-16
1.06500	-18
1.06867	-17
1.07233	-17
1.07600	-14
1.07967	-14
1.08333	-15
1.08700	-15
1.09067	-13
1.09433	-11
1.09800	-9
1.10167	-8
1.10533	-7
1.10900	-10
1.11267	-12
1.11633	-12
1.12000	-12
1.12367	-12
1.12733	-11
1.13100	-12
1.13467	-13
1.13833	-13
1.14200	-15
1.14567	-15
1.14933	-15
1.15300	-13
1.15667	-14
1.16033	-13
1.16400	-12
1.16767	-10
1.17133	-10
1.17500	-9
1.17867	-8
1.18233	-9
1.18600	-9
1.18967	-8
1.19333	-7
1.19700	-7
1.20067	-7
1.20433	-8
1.20800	-7
1.21167	-7
1.21533	-6
1.21900	-4
1.22267	-3
1.22633	-2
1.23000	-2
1.23367	-2
1.23733	-4
1.24100	-6
1.24467	-6
1.24833	-9
1.25200	-12
1.25567	-15
1.25933	-16
1.26300	-18
1.26667	-21
1.27033	-18
1.27400	-15
1.27767	-11
1.28133	-10
1.28500	-10
1.28867	-10
1.29233	-9
1.29600	-8
1.29967	-6
1.30333	-6
1.30700	-5
1.31067	-2
1.31433	0
1.31800	1
1.32167	1
1.32533	1
1.32900	-0
1.33267	-2
1.33633	-5
1.34000	-6
1.34367	-7
1.34733	-7
1.35100	-8
1.35467	-12
1.35833	-15
1.36200	-16
1.36567	-18
1.36933	-16
1.37300	-14
1.37667	-14
1.38033	-14
1.38400	-14
1.38767	-13
1.39133	-13
1.39500	-11
1.39867	-12
1.40233	-11
1.40600	-8
1.40967	-6
1.41333	-4
1.41700	-3
1.42067	-4
1.42433	-4
1.42800	-4
1.43167	-5
1.43533	-6
1.43900	-10
1.44267	-12
1.44633	-14
1.45000	-18
1.45367	-20
1.45733	-19
1.46100	-16
1.46467	-16
1.46833	-16
1.47200	-16
1.47567	-12
1.47933	-9
1.48300	-9
1.48667	-8
1.49033	-5
1.49400	-4
1.49767	-7
1.50133	-8
1.50500	-9
1.50867	-10
1.51233	-11
1.51600	-12
1.51967	-13
1.52333	-15
1.52700	-16
1.53067	-15
1.53433	-15
1.53800	-13
1.54167	-12
1.54533	-13
1.54900	-14
1.55267	-13
1.55633	-11
1.56000	-8
1.56367	-7
1.56733	-8
1.57100	-8
1.57467	-7
1.57833	-7
1.58200	-8
1.58567	-9
1.58933	-11
1.59300	-10
1.59667	-9
1.60033	-8
1.60400	-7
1.60767	-8
1.61133	-6
1.61500	-6
1.61867	-7
1.62233	-9
1.62600	-12
1.62967	-15
1.63333	-14
1.63700	-10
1.64067	-10
1.64433	-10
1.64800	-10
1.65167	-11
1.65533	-11
1.65900	-10
1.66267	-9
1.66633	-8
1.67000	-11
1.67367	-11
1.67733	-10
1.68100	-9
1.68467	-7
1.68833	-5
1.69200	-5
1.69567	-6
1.69933	-5
1.70300	-5
1.70667	-6
1.71033	-7
1.71400	-8
1.71767	-8
1.72133	-8
1.72500	-9
1.72867	-9
1.73233	-7
1.73600	-6
1.73967	-4
1.74333	-5
1.74700	-5
1.75067	-5
1.75433	-2
1.75800	1
1.76167	4
1.76533	6
1.76900	9
1.77267	10
1.77633	8
1.78000	6
1.78367	6
1.78733	6
1.79100	6
1.79467	3
1.79833	1
1.80200	2
1.80567	4
1.80933	6
1.81300	6
1.81667	8
1.82033	10
1.82400	12
1.82767	13
1.83133	13
1.83500	11
1.83867	9
1.84233	9
1.84600	11
1.84967	13
1.85333	14
1.85700	13
1.86067	14
1.86433	14
1.86800	14
1.87167	14
1.87533	14
1.87900	14
1.88267	14
1.88633	14
1.89000	16
1.89367	17
1.89733	15
1.90100	13
1.90467	12
1.90833	12
1.91200	11
1.91567	14
1.91933	19
1.92300	19
1.92667	17
1.93033	16
1.93400	17
1.93767	17
1.94133	19
1.94500	21
1.94867	22
1.95233	22
1.95600	23
1.95967	22
1.96333	20
1.96700	19
1.97067	17
1.97433	14
1.97800	14
1.98167	15
1.98533	18
1.98900	20
1.99267	21
1.99633	23
2.00000	26
2.00367	27
2.00733	27
2.01100	26
2.01467	27
2.01833	27
2.02200	28
2.02567	28
2.02933	28
2.03300	29
2.03667	31
2.04033	34
2.04400	36
2.04767	36
2.05133	36
2.05500	35
2.05867	35
2.06233	37
2.06600	40
2.06967	40
2.07333	39
2.07700	40
2.08067	41
2.08433	42
2.08800	45
2.09167	46
2.09533	43
2.09900	44
2.10267	46
2.10633	46
2.11000	46
2.11367	48
2.11733	48
2.12100	48
2.12467	51
2.12833	53
2.13200	55
2.13567	54
2.13933	54
2.14300	54
2.14667	56
2.15033	58
2.15400	60
2.15767	62
2.16133	64
2.16500	65
2.16867	65
2.17233	64
2.17600	66
2.17967	69
2.18333	70
2.18700	69
2.19067	70
2.19433	69
2.19800	69
2.20167	69
2.20533	70
2.20900	71
2.21267	71
2.21633	71
2.22000	71
2.22367	73
2.22733	75
2.23100	76
2.23467	79
2.23833	83
2.24200	84
2.24567	82
2.24933	83
2.25300	84
2.25667	85
2.26033	85
2.26400	86
2.26767	85
2.27133	86
2.27500	89
2.27867	94
2.28233	94
2.28600	92
2.28967	92
2.29333	93
2.29700	93
2.30067	92
2.30433	93
2.30800	95
2.31167	97
2.31533	100
2.31900	102
2.32267	102
2.32633	102
2.33000	101
2.33367	101
2.33733	102
2.34100	106
2.34467	110
2.34833	111
2.35200	111
2.35567	110
2.35933	108
2.36300	106
2.36667	106
2.37033	105
2.37400	103
2.37767	100
2.38133	100
2.38500	98
2.38867	95
2.39233	97
2.39600	101
2.39967	106
2.40333	110
2.40700	115
2.41067	121
2.41433	125
2.41800	128
2.42167	128
2.42533	126
2.42900	124
2.43267	123
2.43633	122
2.44000	125
2.44367	172
2.44733	261
2.45100	345
2.45467	405
2.45833	434
2.46200	433
2.46567	416
2.46933	396
2.47300	379
2.47667	368
2.48033	354
2.48400	333
2.48767	308
2.49133	282
2.49500	261
2.49867	244
2.50233	232
2.50600	225
2.50967	223
2.51333	228
2.51700	235
2.52067	241
2.52433	245
2.52800	243
2.53167	237
2.53533	226
2.53900	213
2.54267	200
2.54633	187
2.55000	176
2.55367	165
2.55733	156
2.56100	153
2.56467	152
2.56833	149
2.57200	146
2.57567	144
2.57933	142
2.58300	144
2.58667	148
2.59033	151
2.59400	158
2.59767	165
2.60133	172
2.60500	182
2.60867	191
2.61233	199
2.61600	206
2.61967	213
2.62333	217
2.62700	219
2.63067	215
2.63433	208
2.63800	204
2.64167	197
2.64533	190
2.64900	180
2.65267	170
2.65633	162
2.66000	155
2.66367	147
2.66733	141
2.67100	136
2.67467	131
2.67833	126
2.68200	122
2.68567	118
2.68933	115
2.69300	114
2.69667	114
2.70033	113
2.70400	113
2.70767	113
2.71133	112
2.71500	114
2.71867	115
2.72233	117
2.72600	117
2.72967	116
2.73333	115
2.73700	115
2.74067	114
2.74433	114
2.74800	116
2.75167	118
2.75533	121
2.75900	124
2.76267	127
2.76633	130
2.77000	132
2.77367	136
2.77733	139
2.78100	140
2.78467	141
2.78833	144
2.79200	150
2.79567	153
2.79933	154
2.80300	156
2.80667	160
2.81033	165
2.81400	169
2.81767	172
2.82133	174
2.82500	178
2.82867	183
2.83233	189
2.83600	197
2.83967	216
2.84333	259
2.84700	341
2.85067	479
2.85433	695
2.85800	1000
2.86167	1390
2.86533	1846
2.86900	2343
2.87267	2842
2.87633	3302
2.88000	3687
2.88367	3966
2.88733	4125
2.89100	4160
2.89467	4082
2.89833	3914
2.90200	3683
2.90567	3411
2.90933	3116
2.91300	2818
2.91667	2528
2.92033	2254
2.92400	1999
2.92767	1768
2.93133	1562
2.93500	1379
2.93867	1218
2.94233	1074
2.94600	948
2.94967	836
2.95333	741
2.95700	657
2.96067	584
2.96433	522
2.96800	469
2.97167	423
2.97533	384
2.97900	350
2.98267	319
2.98633	293
2.99000	274
2.99367	257
2.99733	243
3.00100	232
3.00467	217
3.00833	206
3.01200	199
3.01567	190
3.01933	183
3.02300	178
3.02667	174
3.03033	170
3.03400	164
3.03767	160
3.04133	158
3.04500	158
3.04867	158
3.05233	160
3.05600	162
3.05967	161
3.06333	160
3.06700	158
3.07067	156
3.07433	155
3.07800	152
3.08167	151
3.08533	151
3.08900	152
3.09267	154
3.09633	157
3.10000	157
3.10367	154
3.10733	152
3.11100	153
3.11467	156
3.11833	157
3.12200	159
3.12567	160
3.12933	159
3.13300	156
3.13667	157
3.14033	159
3.14400	160
3.14767	161
3.15133	161
3.15500	162
3.15867	163
3.16233	165
3.16600	166
3.16967	167
3.17333	169
3.17700	171
3.18067	172
3.18433	173
3.18800	174
3.19167	175
3.19533	176
3.19900	179
3.20267	181
3.20633	182
3.21000	182
3.21367	182
3.21733	184
3.22100	186
3.22467	189
3.22833	188
3.23200	190
3.23567	191
3.23933	191
3.24300	193
3.24667	194
3.25033	193
3.25400	192
3.25767	193
3.26133	194
3.26500	195
3.26867	199
3.27233	200
3.27600	201
3.27967	203
3.28333	204
3.28700	207
3.29067	209
3.29433	210
3.29800	211
3.30167	209
3.30533	205
3.30900	203
3.31267	202
3.31633	201
3.32000	200
3.32367	199
3.32733	200
3.33100	199
3.33467	198
3.33833	199
3.34200	199
3.34567	200
3.34933	200
3.35300	201
3.35667	202
3.36033	202
3.36400	201
3.36767	200
3.37133	199
3.37500	200
3.37867	200
3.38233	201
3.38600	201
3.38967	202
3.39333	201
3.39700	200
3.40067	199
3.40433	198
3.40800	198
3.41167	196
3.41533	195
3.41900	195
3.42267	195
3.42633	193
3.43000	193
3.43367	194
3.43733	195
3.44100	195
3.44467	194
3.44833	192
3.45200	192
3.45567	193
3.45933	194
3.46300	193
3.46667	191
3.47033	188
3.47400	174
3.47767	154
3.48133	145
3.48500	153
3.48867	180
3.49233	221
3.49600	267
3.49967	316
3.50333	364
3.50700	413
3.51067	460
3.51433	503
3.51800	543
3.52167	581
3.52533	614
3.52900	647
3.53267	679
3.53633	711
3.54000	736
3.54367	756
3.54733	775
3.55100	793
3.55467	806
3.55833	815
3.56200	822
3.56567	827
3.56933	830
3.57300	834
3.57667	836
3.58033	839
3.58400	842
3.58767	843
3.59133	842
3.59500	840
3.59867	839
3.60233	837
3.60600	834
3.60967	829
3.61333	825
3.61700	820
3.62067	818
3.62433	817
3.62800	814
3.63167	811
3.63533	808
3.63900	807
3.64267	804
3.64633	801
3.65000	798
3.65367	796
3.65733	795
3.66100	794
3.66467	791
3.66833	787
3.67200	782
3.67567	780
3.67933	777
3.68300	773
3.68667	771
3.69033	770
3.69400	767
3.69767	764
3.70133	762
3.70500	759
3.70867	757
3.71233	756
3.71600	753
3.71967	749
3.72333	747
3.72700	746
3.73067	744
3.73433	741
3.73800	737
3.74167	731
3.74533	725
3.74900	720
3.75267	718
3.75633	716
3.76000	713
3.76367	711
3.76733	708
3.77100	707
3.77467	705
3.77833	703
3.78200	700
3.78567	696
3.78933	696
3.79300	695
3.79667	694
3.80033	696
3.80400	694
3.80767	691
3.81133	688
3.81500	682
3.81867	679
3.82233	678
3.82600	677
3.82967	677
3.83333	674
3.83700	671
3.84067	670
3.84433	670
3.84800	668
3.85167	667
3.85533	666
3.85900	664
3.86267	664
3.86633	662
3.87000	660
3.87367	659
3.87733	659
3.88100	656
3.88467	653
3.88833	650
3.89200	649
3.89567	649
3.89933	648
3.90300	647
3.90667	642
3.91033	636
3.91400	631
3.91767	628
3.92133	625
3.92500	623
3.92867	621
3.93233	618
3.93600	615
3.93967	614
3.94333	615
3.94700	613
3.95067	611
3.95433	610
3.95800	609
3.96167	607
3.96533	601
3.96900	598
3.97267	596
3.97633	596
3.98000	594
3.98367	592
3.98733	590
3.99100	588
3.99467	588
3.99833	584

[Status Trace (Column Oven Temperature)]
Interval(msec)	1000
# of Points	240
Start Time(min)	0.007
End Time(min)	3.990
Intensity Units	
Intensity Multiplier	1
R.Time (min)	Intensity
0.00717	35.08
0.02383	35.08
0.04050	35.08
0.05717	35.08
0.07383	35.08
0.09050	35.09
0.10717	35.08
0.12383	35.07
0.14050	35.06
0.15717	35.05
0.17383	35.04
0.19050	35.02
0.20717	35.03
0.22383	35.02
0.24050	35.02
0.25717	35.02
0.27383	35.02
0.29050	35.01
0.30717	35.01
0.32383	35.01
0.34050	35.01
0.35717	35.00
0.37383	35.00
0.39050	35.00
0.40717	34.99
0.42383	35.00
0.44050	35.00
0.45717	35.00
0.47383	34.99
0.49050	34.99
0.50717	35.00
0.52383	34.99
0.54050	34.99
0.55717	34.99
0.57383	34.99
0.59050	35.01
0.60717	35.02
0.62383	35.01
0.64050	35.00
0.65717	35.00
0.67383	34.99
0.69050	35.00
0.70717	34.99
0.72383	34.99
0.74050	34.98
0.75717	34.98
0.77383	34.99
0.79050	34.99
0.80717	35.00
0.82383	35.00
0.84050	35.00
0.85717	34.99
0.87383	34.99
0.89050	34.99
0.90717	34.99
0.92383	34.99
0.94050	34.98
0.95717	34.98
0.97383	34.98
0.99050	34.98
1.00717	34.99
1.02383	35.00
1.04050	35.00
1.05717	35.01
1.07383	35.01
1.09050	35.00
1.10717	34.99
1.12383	34.99
1.14050	34.98
1.15717	34.98
1.17383	34.97
1.19050	34.98
1.20717	34.98
1.22383	34.98
1.24050	34.98
1.25717	34.97
1.27383	34.96
1.29050	34.97
1.30717	34.98
1.32383	34.98
1.34050	34.98
1.35717	34.99
1.37383	34.99
1.39050	34.99
1.40717	34.99
1.42383	34.99
1.44050	35.00
1.45717	35.00
1.47383	35.00
1.49050	35.00
1.50717	35.00
1.52383	34.99
1.54050	34.98
1.55717	34.99
1.57383	34.99
1.59050	35.00
1.60717	35.05
1.62383	35.18
1.64050	35.36
1.65717	35.62
1.67383	35.96
1.69050	36.33
1.70717	36.69
1.72383	37.02
1.74050	37.34
1.75717	37.65
1.77383	38.00
1.79050	38.33
1.80717	38.67
1.82383	39.00
1.84050	39.31
1.85717	39.64
1.87383	39.98
1.89050	40.31
1.90717	40.65
1.92383	40.98
1.94050	41.32
1.95717	41.64
1.97383	41.97
1.99050	42.30
2.00717	42.64
2.02383	42.97
2.04050	43.31
2.05717	43.63
2.07383	43.97
2.09050	44.28
2.10717	44.60
2.12383	44.93
2.14050	45.28
2.15717	45.58
2.17383	45.90
2.19050	46.25
2.20717	46.57
2.22383	46.87
2.24050	47.22
2.25717	47.54
2.27383	47.88
2.29050	48.21
2.30717	48.56
2.32383	48.89
2.34050	49.22
2.35717	49.49
2.37383	49.66
2.39050	49.72
2.40717	49.71
2.42383	49.73
2.44050	49.72
2.45717	49.73
2.47383	49.75
2.49050	49.74
2.50717	49.74
2.52383	49.78
2.54050	49.78
2.55717	49.79
2.57383	49.82
2.59050	49.82
2.60717	49.83
2.62383	49.84
2.64050	49.84
2.65717	49.86
2.67383	49.86
2.69050	49.86
2.70717	49.85
2.72383	49.84
2.74050	49.86
2.75717	49.89
2.77383	49.90
2.79050	49.91
2.80717	49.91
2.82383	49.91
2.84050	49.91
2.85717	49.93
2.87383	49.94
2.89050	49.95
2.90717	49.97
2.92383	49.99
2.94050	50.00
2.95717	50.01
2.97383	50.02
2.99050	50.02
3.00717	50.02
3.02383	50.03
3.04050	50.03
3.05717	50.04
3.07383	50.04
3.09050	50.05
3.10717	50.05
3.12383	50.05
3.14050	50.06
3.15717	50.07
3.17383	50.08
3.19050	50.09
3.20717	50.09
3.22383	50.10
3.24050	50.11
3.25717	50.11
3.27383	50.10
3.29050	50.08
3.30717	50.07
3.32383	50.06
3.34050	50.05
3.35717	50.05
3.37383	50.04
3.39050	50.05
3.40717	50.05
3.42383	50.04
3.44050	50.04
3.45717	50.04
3.47383	50.04
3.49050	50.04
3.50717	50.04
3.52383	50.05
3.54050	50.05
3.55717	50.04
3.57383	50.03
3.59050	50.05
3.60717	50.05
3.62383	50.06
3.64050	50.07
3.65717	50.07
3.67383	50.08
3.69050	50.08
3.70717	50.08
3.72383	50.09
3.74050	50.09
3.75717	50.09
3.77383	50.09
3.79050	50.09
3.80717	50.08
3.82383	50.08
3.84050	50.08
3.85717	50.08
3.87383	50.08
3.89050	50.07
3.90717	50.06
3.92383	50.07
3.94050	50.07
3.95717	50.06
3.97383	50.06
3.99050	50.07

[Status Trace (Injection Unit Temperature)]
Interval(msec)	1000
# of Points	240
Start Time(min)	0.007
End Time(min)	3.990
Intensity Units	
Intensity Multiplier	1
R.Time (min)	Intensity
0.00717	99.97
0.02383	99.97
0.04050	99.97
0.05717	99.97
0.07383	99.97
0.09050	99.97
0.10717	99.97
0.12383	99.97
0.14050	99.97
0.15717	99.97
0.17383	99.97
0.19050	99.97
0.20717	99.97
0.22383	99.98
0.24050	99.97
0.25717	99.97
0.27383	99.98
0.29050	99.97
0.30717	99.98
0.32383	99.97
0.34050	99.98
0.35717	99.98
0.37383	99.98
0.39050	99.98
0.40717	99.98
0.42383	99.98
0.44050	99.98
0.45717	99.98
0.47383	99.98
0.49050	99.98
0.50717	99.98
0.52383	99.98
0.54050	99.98
0.55717	99.98
0.57383	99.98
0.59050	99.98
0.60717	99.98
0.62383	99.98
0.64050	99.98
0.65717	99.98
0.67383	99.98
0.69050	99.98
0.70717	99.99
0.72383	99.98
0.74050	99.98
0.75717	99.98
0.77383	99.98
0.79050	99.99
0.80717	99.99
0.82383	99.99
0.84050	99.99
0.85717	99.98
0.87383	99.98
0.89050	99.98
0.90717	99.98
0.92383	99.98
0.94050	99.98
0.95717	99.98
0.97383	99.99
0.99050	99.99
1.00717	99.98
1.02383	99.98
1.04050	99.98
1.05717	99.98
1.07383	99.99
1.09050	99.98
1.10717	99.98
1.12383	99.98
1.14050	99.98
1.15717	99.98
1.17383	99.98
1.19050	99.98
1.20717	99.98
1.22383	99.98
1.24050	99.98
1.25717	99.98
1.27383	99.98
1.29050	99.98
1.30717	99.98
1.32383	99.98
1.34050	99.98
1.35717	99.98
1.37383	99.98
1.39050	99.98
1.40717	99.98
1.42383	99.98
1.44050	99.98
1.45717	99.98
1.47383	99.98
1.49050	99.98
1.50717	99.98
1.52383	99.98
1.54050	99.97
1.55717	99.98
1.57383	99.98
1.59050	99.97
1.60717	99.98
1.62383	99.98
1.64050	99.98
1.65717	99.98
1.67383	99.98
1.69050	99.98
1.70717	99.98
1.72383	99.98
1.74050	99.98
1.75717	99.98
1.77383	99.98
1.79050	99.98
1.80717	99.98
1.82383	99.98
1.84050	99.98
1.85717	99.98
1.87383	99.98
1.89050	99.98
1.90717	99.98
1.92383	99.97
1.94050	99.97
1.95717	99.98
1.97383	99.97
1.99050	99.97
2.00717	99.97
2.02383	99.97
2.04050	99.97
2.05717	99.97
2.07383	99.97
2.09050	99.97
2.10717	99.97
2.12383	99.97
2.14050	99.97
2.15717	99.97
2.17383	99.97
2.19050	99.97
2.20717	99.97
2.22383	99.96
2.24050	99.97
2.25717	99.96
2.27383	99.96
2.29050	99.96
2.30717	99.96
2.32383	99.96
2.34050	99.96
2.35717	99.96
2.37383	99.96
2.39050	99.96
2.40717	99.96
2.42383	99.96
2.44050	99.96
2.45717	99.96
2.47383	99.96
2.49050	99.96
2.50717	99.97
2.52383	99.96
2.54050	99.96
2.55717	99.96
2.57383	99.97
2.59050	99.97
2.60717	99.97
2.62383	99.97
2.64050	99.97
2.65717	99.97
2.67383	99.97
2.69050	99.97
2.70717	99.97
2.72383	99.98
2.74050	99.98
2.75717	99.98
2.77383	99.98
2.79050	99.98
2.80717	99.98
2.82383	99.98
2.84050	99.99
2.85717	99.99
2.87383	99.99
2.89050	99.99
2.90717	100.00
2.92383	99.99
2.94050	100.00
2.95717	100.00
2.97383	100.00
2.99050	100.00
3.00717	100.00
3.02383	100.00
3.04050	100.00
3.05717	100.00
3.07383	100.00
3.09050	100.01
3.10717	100.01
3.12383	100.01
3.14050	100.01
3.15717	100.01
3.17383	100.01
3.19050	100.02
3.20717	100.01
3.22383	100.02
3.24050	100.02
3.25717	100.02
3.27383	100.02
3.29050	100.02
3.30717	100.02
3.32383	100.02
3.34050	100.02
3.35717	100.02
3.37383	100.03
3.39050	100.03
3.40717	100.02
3.42383	100.03
3.44050	100.02
3.45717	100.03
3.47383	100.02
3.49050	100.02
3.50717	100.03
3.52383	100.03
3.54050	100.03
3.55717	100.03
3.57383	100.03
3.59050	100.03
3.60717	100.03
3.62383	100.03
3.64050	100.03
3.65717	100.03
3.67383	100.03
3.69050	100.03
3.70717	100.03
3.72383	100.03
3.74050	100.04
3.75717	100.03
3.77383	100.03
3.79050	100.04
3.80717	100.03
3.82383	100.04
3.84050	100.04
3.85717	100.04
3.87383	100.04
3.89050	100.04
3.90717	100.04
3.92383	100.04
3.94050	100.04
3.95717	100.04
3.97383	100.04
3.99050	100.04

[Status Trace (Carrier Gas Pressure)]
Interval(msec)	1000
# of Points	240
Start Time(min)	0.007
End Time(min)	3.990
Intensity Units	
Intensity Multiplier	1
R.Time (min)	Intensity
0.00717	58.00
0.02383	55.48
0.04050	57.00
0.05717	59.07
0.07383	59.58
0.09050	58.10
0.10717	57.98
0.12383	58.01
0.14050	58.01
0.15717	58.01
0.17383	58.00
0.19050	58.00
0.20717	58.00
0.22383	58.00
0.24050	58.00
0.25717	58.00
0.27383	58.00
0.29050	58.00
0.30717	58.00
0.32383	58.00
0.34050	58.00
0.35717	58.00
0.37383	58.00
0.39050	58.00
0.40717	58.00
0.42383	58.00
0.44050	58.00
0.45717	58.00
0.47383	58.00
0.49050	58.00
0.50717	58.00
0.52383	58.00
0.54050	58.00
0.55717	58.00
0.57383	58.00
0.59050	58.00
0.60717	58.00
0.62383	58.00
0.64050	58.00
0.65717	58.00
0.67383	58.00
0.69050	58.00
0.70717	58.00
0.72383	58.00
0.74050	58.00
0.75717	58.00
0.77383	58.00
0.79050	58.00
0.80717	58.00
0.82383	58.00
0.84050	58.00
0.85717	58.00
0.87383	58.00
0.89050	58.00
0.90717	58.00
0.92383	58.00
0.94050	58.00
0.95717	58.00
0.97383	58.00
0.99050	58.00
1.00717	58.00
1.02383	58.00
1.04050	58.00
1.05717	58.00
1.07383	58.00
1.09050	58.00
1.10717	58.00
1.12383	58.00
1.14050	58.00
1.15717	58.00
1.17383	58.00
1.19050	58.00
1.20717	58.00
1.22383	58.00
1.24050	58.00
1.25717	58.00
1.27383	58.00
1.29050	58.00
1.30717	58.00
1.32383	58.00
1.34050	58.00
1.35717	58.00
1.37383	58.00
1.39050	58.00
1.40717	58.00
1.42383	58.00
1.44050	58.00
1.45717	58.00
1.47383	58.00
1.49050	58.00
1.50717	58.00
1.52383	58.00
1.54050	58.00
1.55717	58.00
1.57383	58.00
1.59050	58.00
1.60717	58.00
1.62383	58.00
1.64050	58.00
1.65717	58.00
1.67383	58.01
1.69050	58.00
1.70717	58.00
1.72383	58.00
1.74050	58.00
1.75717	58.00
1.77383	58.00
1.79050	58.00
1.80717	58.00
1.82383	58.00
1.84050	58.00
1.85717	58.00
1.87383	58.00
1.89050	58.00
1.90717	58.00
1.92383	58.00
1.94050	58.00
1.95717	58.00
1.97383	58.00
1.99050	58.00
2.00717	58.00
2.02383	58.00
2.04050	58.00
2.05717	58.00
2.07383	58.00
2.09050	58.00
2.10717	58.00
2.12383	58.00
2.14050	58.00
2.15717	58.00
2.17383	58.00
2.19050	58.00
2.20717	58.00
2.22383	58.00
2.24050	58.00
2.25717	58.00
2.27383	58.00
2.29050	58.00
2.30717	58.00
2.32383	58.00
2.34050	58.00
2.35717	58.00
2.37383	58.00
2.39050	57.99
2.40717	57.99
2.42383	58.00
2.44050	58.00
2.45717	58.00
2.47383	58.00
2.49050	58.00
2.50717	58.00
2.52383	57.99
2.54050	58.00
2.55717	58.00
2.57383	58.00
2.59050	58.00
2.60717	58.00
2.62383	58.00
2.64050	58.00
2.65717	58.00
2.67383	58.00
2.69050	58.00
2.70717	58.00
2.72383	58.00
2.74050	58.00
2.75717	58.00
2.77383	58.00
2.79050	58.00
2.80717	58.00
2.82383	58.00
2.84050	58.00
2.85717	58.00
2.87383	58.00
2.89050	58.00
2.90717	58.00
2.92383	58.00
2.94050	58.00
2.95717	58.00
2.97383	58.00
2.99050	58.00
3.00717	58.00
3.02383	58.00
3.04050	58.00
3.05717	58.00
3.07383	58.00
3.09050	58.00
3.10717	58.00
3.12383	58.00
3.14050	58.00
3.15717	58.00
3.17383	58.00
3.19050	58.00
3.20717	58.00
3.22383	58.00
3.24050	58.00
3.25717	58.00
3.27383	58.00
3.29050	58.00
3.30717	58.00
3.32383	58.00
3.34050	58.00
3.35717	58.00
3.37383	58.00
3.39050	58.00
3.40717	58.00
3.42383	58.00
3.44050	58.00
3.45717	58.00
3.47383	58.00
3.49050	58.00
3.50717	58.00
3.52383	58.00
3.54050	58.00
3.55717	58.00
3.57383	58.00
3.59050	58.00
3.60717	58.00
3.62383	58.00
3.64050	58.00
3.65717	58.00
3.67383	58.00
3.69050	58.00
3.70717	58.00
3.72383	58.00
3.74050	58.00
3.75717	58.00
3.77383	58.00
3.79050	58.00
3.80717	58.00
3.82383	58.00
3.84050	58.00
3.85717	58.00
3.87383	58.00
3.89050	58.00
3.90717	58.00
3.92383	58.00
3.94050	58.00
3.95717	58.00
3.97383	58.00
3.99050	58.00

[Status Trace (Carrier Gas Flow)]
Interval(msec)	1000
# of Points	240
Start Time(min)	0.007
End Time(min)	3.990
Intensity Units	
Intensity Multiplier	1
R.Time (min)	Intensity
0.00717	34.51
0.02383	34.53
0.04050	34.55
0.05717	34.55
0.07383	34.50
0.09050	34.51
0.10717	34.52
0.12383	34.52
0.14050	34.52
0.15717	34.53
0.17383	34.52
0.19050	34.51
0.20717	34.52
0.22383	34.52
0.24050	34.51
0.25717	34.52
0.27383	34.51
0.29050	34.52
0.30717	34.52
0.32383	34.52
0.34050	34.52
0.35717	34.52
0.37383	34.52
0.39050	34.52
0.40717	34.51
0.42383	34.52
0.44050	34.52
0.45717	34.52
0.47383	34.51
0.49050	34.51
0.50717	34.52
0.52383	34.51
0.54050	34.52
0.55717	34.52
0.57383	34.51
0.59050	34.52
0.60717	34.52
0.62383	34.52
0.64050	34.52
0.65717	34.51
0.67383	34.52
0.69050	34.52
0.70717	34.52
0.72383	34.52
0.74050	34.52
0.75717	34.51
0.77383	34.52
0.79050	34.52
0.80717	34.52
0.82383	34.52
0.84050	34.52
0.85717	34.52
0.87383	34.52
0.89050	34.52
0.90717	34.52
0.92383	34.51
0.94050	34.52
0.95717	34.52
0.97383	34.52
0.99050	34.52
1.00717	34.52
1.02383	34.52
1.04050	34.52
1.05717	34.52
1.07383	34.52
1.09050	34.52
1.10717	34.52
1.12383	34.52
1.14050	34.52
1.15717	34.52
1.17383	34.52
1.19050	34.52
1.20717	34.52
1.22383	34.52
1.24050	34.52
1.25717	34.51
1.27383	34.52
1.29050	34.52
1.30717	34.52
1.32383	34.52
1.34050	34.52
1.35717	34.52
1.37383	34.52
1.39050	34.52
1.40717	34.52
1.42383	34.52
1.44050	34.52
1.45717	34.52
1.47383	34.52
1.49050	34.52
1.50717	34.52
1.52383	34.52
1.54050	34.52
1.55717	34.51
1.57383	34.52
1.59050	34.52
1.60717	34.51
1.62383	34.52
1.64050	34.51
1.65717	34.53
1.67383	34.51
1.69050	34.53
1.70717	34.52
1.72383	34.52
1.74050	34.52
1.75717	34.52
1.77383	34.51
1.79050	34.52
1.80717	34.52
1.82383	34.52
1.84050	34.52
1.85717	34.52
1.87383	34.52
1.89050	34.51
1.90717	34.52
1.92383	34.51
1.94050	34.53
1.95717	34.52
1.97383	34.52
1.99050	34.51
2.00717	34.52
2.02383	34.52
2.04050	34.52
2.05717	34.52
2.07383	34.52
2.09050	34.52
2.10717	34.52
2.12383	34.52
2.14050	34.52
2.15717	34.51
2.17383	34.51
2.19050	34.52
2.20717	34.52
2.22383	34.52
2.24050	34.52
2.25717	34.52
2.27383	34.51
2.29050	34.52
2.30717	34.51
2.32383	34.52
2.34050	34.52
2.35717	34.52
2.37383	34.51
2.39050	34.52
2.40717	34.52
2.42383	34.52
2.44050	34.52
2.45717	34.52
2.47383	34.52
2.49050	34.52
2.50717	34.39
2.52383	34.52
2.54050	34.52
2.55717	34.52
2.57383	34.52
2.59050	34.52
2.60717	34.52
2.62383	34.52
2.64050	34.52
2.65717	34.51
2.67383	34.51
2.69050	34.52
2.70717	34.52
2.72383	34.51
2.74050	34.52
2.75717	34.52
2.77383	34.52
2.79050	34.51
2.80717	34.52
2.82383	34.52
2.84050	34.52
2.85717	34.53
2.87383	34.51
2.89050	34.52
2.90717	34.52
2.92383	34.52
2.94050	34.52
2.95717	34.51
2.97383	34.51
2.99050	34.53
3.00717	34.52
3.02383	34.52
3.04050	34.52
3.05717	34.53
3.07383	34.52
3.09050	34.52
3.10717	34.52
3.12383	34.52
3.14050	34.52
3.15717	34.52
3.17383	34.51
3.19050	34.52
3.20717	34.52
3.22383	34.52
3.24050	34.52
3.25717	34.52
3.27383	34.52
3.29050	34.52
3.30717	34.51
3.32383	34.53
3.34050	34.52
3.35717	34.52
3.37383	34.52
3.39050	34.52
3.40717	34.52
3.42383	34.51
3.44050	34.52
3.45717	34.52
3.47383	34.52
3.49050	34.52
3.50717	34.52
3.52383	34.52
3.54050	34.52
3.55717	34.52
3.57383	34.52
3.59050	34.52
3.60717	34.52
3.62383	34.52
3.64050	34.52
3.65717	34.52
3.67383	34.52
3.69050	34.52
3.70717	34.52
3.72383	34.52
3.74050	34.52
3.75717	34.52
3.77383	34.52
3.79050	34.52
3.80717	34.52
3.82383	34.52
3.84050	34.52
3.85717	34.52
3.87383	34.52
3.89050	34.52
3.90717	34.52
3.92383	34.52
3.94050	34.52
3.95717	34.52
3.97383	34.52
3.99050	34.52

[Status Trace (Column Flow)]
Interval(msec)	1000
# of Points	240
Start Time(min)	0.007
End Time(min)	3.990
Intensity Units	
Intensity Multiplier	1
R.Time (min)	Intensity
0.00717	5.51
0.02383	5.22
0.04050	5.40
0.05717	5.64
0.07383	5.70
0.09050	5.52
0.10717	5.51
0.12383	5.51
0.14050	5.51
0.15717	5.51
0.17383	5.51
0.19050	5.51
0.20717	5.51
0.22383	5.51
0.24050	5.51
0.25717	5.51
0.27383	5.51
0.29050	5.51
0.30717	5.51
0.32383	5.51
0.34050	5.51
0.35717	5.51
0.37383	5.51
0.39050	5.51
0.40717	5.52
0.42383	5.51
0.44050	5.51
0.45717	5.51
0.47383	5.51
0.49050	5.51
0.50717	5.51
0.52383	5.51
0.54050	5.51
0.55717	5.52
0.57383	5.52
0.59050	5.51
0.60717	5.51
0.62383	5.51
0.64050	5.51
0.65717	5.51
0.67383	5.51
0.69050	5.51
0.70717	5.52
0.72383	5.52
0.74050	5.52
0.75717	5.52
0.77383	5.51
0.79050	5.51
0.80717	5.51
0.82383	5.51
0.84050	5.51
0.85717	5.51
0.87383	5.51
0.89050	5.52
0.90717	5.51
0.92383	5.52
0.94050	5.52
0.95717	5.52
0.97383	5.52
0.99050	5.52
1.00717	5.52
1.02383	5.51
1.04050	5.51
1.05717	5.51
1.07383	5.51
1.09050	5.51
1.10717	5.52
1.12383	5.52
1.14050	5.52
1.15717	5.52
1.17383	5.52
1.19050	5.52
1.20717	5.52
1.22383	5.52
1.24050	5.52
1.25717	5.52
1.27383	5.52
1.29050	5.52
1.30717	5.52
1.32383	5.52
1.34050	5.52
1.35717	5.52
1.37383	5.52
1.39050	5.51
1.40717	5.51
1.42383	5.51
1.44050	5.51
1.45717	5.51
1.47383	5.51
1.49050	5.51
1.50717	5.51
1.52383	5.52
1.54050	5.52
1.55717	5.52
1.57383	5.52
1.59050	5.51
1.60717	5.51
1.62383	5.51
1.64050	5.50
1.65717	5.50
1.67383	5.49
1.69050	5.47
1.70717	5.46
1.72383	5.45
1.74050	5.44
1.75717	5.43
1.77383	5.42
1.79050	5.41
1.80717	5.40
1.82383	5.39
1.84050	5.38
1.85717	5.37
1.87383	5.36
1.89050	5.35
1.90717	5.34
1.92383	5.33
1.94050	5.32
1.95717	5.31
1.97383	5.30
1.99050	5.29
2.00717	5.28
2.02383	5.27
2.04050	5.26
2.05717	5.25
2.07383	5.24
2.09050	5.23
2.10717	5.23
2.12383	5.22
2.14050	5.21
2.15717	5.20
2.17383	5.19
2.19050	5.18
2.20717	5.17
2.22383	5.16
2.24050	5.15
2.25717	5.14
2.27383	5.13
2.29050	5.12
2.30717	5.11
2.32383	5.10
2.34050	5.09
2.35717	5.09
2.37383	5.08
2.39050	5.08
2.40717	5.08
2.42383	5.08
2.44050	5.08
2.45717	5.08
2.47383	5.08
2.49050	5.08
2.50717	5.08
2.52383	5.08
2.54050	5.08
2.55717	5.08
2.57383	5.08
2.59050	5.08
2.60717	5.08
2.62383	5.08
2.64050	5.08
2.65717	5.08
2.67383	5.08
2.69050	5.08
2.70717	5.08
2.72383	5.08
2.74050	5.08
2.75717	5.08
2.77383	5.07
2.79050	5.07
2.80717	5.07
2.82383	5.07
2.84050	5.07
2.85717	5.07
2.87383	5.07
2.89050	5.07
2.90717	5.07
2.92383	5.07
2.94050	5.07
2.95717	5.07
2.97383	5.07
2.99050	5.07
3.00717	5.07
3.02383	5.07
3.04050	5.07
3.05717	5.07
3.07383	5.07
3.09050	5.07
3.10717	5.07
3.12383	5.07
3.14050	5.07
3.15717	5.07
3.17383	5.07
3.19050	5.07
3.20717	5.07
3.22383	5.07
3.24050	5.07
3.25717	5.07
3.27383	5.07
3.29050	5.07
3.30717	5.07
3.32383	5.07
3.34050	5.07
3.35717	5.07
3.37383	5.07
3.39050	5.07
3.40717	5.07
3.42383	5.07
3.44050	5.07
3.45717	5.07
3.47383	5.07
3.49050	5.07
3.50717	5.07
3.52383	5.07
3.54050	5.07
3.55717	5.07
3.57383	5.07
3.59050	5.07
3.60717	5.07
3.62383	5.07
3.64050	5.07
3.65717	5.07
3.67383	5.07
3.69050	5.07
3.70717	5.07
3.72383	5.07
3.74050	5.07
3.75717	5.07
3.77383	5.07
3.79050	5.07
3.80717	5.07
3.82383	5.07
3.84050	5.07
3.85717	5.07
3.87383	5.07
3.89050	5.07
3.90717	5.07
3.92383	5.07
3.94050	5.07
3.95717	5.07
3.97383	5.07
3.99050	5.07

[Status Trace (Linear Velocity)]
Interval(msec)	1000
# of Points	240
Start Time(min)	0.007
End Time(min)	3.990
Intensity Units	
Intensity Multiplier	1
R.Time (min)	Intensity
0.00717	39.01
0.02383	37.35
0.04050	38.35
0.05717	39.71
0.07383	40.04
0.09050	39.07
0.10717	38.99
0.12383	39.01
0.14050	39.02
0.15717	39.01
0.17383	39.01
0.19050	39.01
0.20717	39.01
0.22383	39.01
0.24050	39.01
0.25717	39.01
0.27383	39.01
0.29050	39.01
0.30717	39.01
0.32383	39.02
0.34050	39.01
0.35717	39.01
0.37383	39.01
0.39050	39.02
0.40717	39.02
0.42383	39.02
0.44050	39.02
0.45717	39.01
0.47383	39.02
0.49050	39.02
0.50717	39.02
0.52383	39.02
0.54050	39.02
0.55717	39.02
0.57383	39.02
0.59050	39.02
0.60717	39.01
0.62383	39.01
0.64050	39.01
0.65717	39.02
0.67383	39.02
0.69050	39.02
0.70717	39.02
0.72383	39.02
0.74050	39.02
0.75717	39.02
0.77383	39.02
0.79050	39.02
0.80717	39.02
0.82383	39.02
0.84050	39.02
0.85717	39.02
0.87383	39.02
0.89050	39.02
0.90717	39.02
0.92383	39.02
0.94050	39.02
0.95717	39.02
0.97383	39.02
0.99050	39.02
1.00717	39.02
1.02383	39.02
1.04050	39.01
1.05717	39.01
1.07383	39.01
1.09050	39.01
1.10717	39.02
1.12383	39.02
1.14050	39.02
1.15717	39.02
1.17383	39.02
1.19050	39.02
1.20717	39.02
1.22383	39.02
1.24050	39.02
1.25717	39.02
1.27383	39.02
1.29050	39.02
1.30717	39.02
1.32383	39.02
1.34050	39.02
1.35717	39.02
1.37383	39.02
1.39050	39.02
1.40717	39.02
1.42383	39.02
1.44050	39.02
1.45717	39.01
1.47383	39.01
1.49050	39.01
1.50717	39.01
1.52383	39.02
1.54050	39.02
1.55717	39.02
1.57383	39.02
1.59050	39.02
1.60717	39.01
1.62383	39.00
1.64050	38.98
1.65717	38.96
1.67383	38.93
1.69050	38.89
1.70717	38.86
1.72383	38.82
1.74050	38.79
1.75717	38.76
1.77383	38.73
1.79050	38.70
1.80717	38.67
1.82383	38.63
1.84050	38.60
1.85717	38.58
1.87383	38.54
1.89050	38.51
1.90717	38.48
1.92383	38.45
1.94050	38.42
1.95717	38.39
1.97383	38.36
1.99050	38.33
2.00717	38.30
2.02383	38.27
2.04050	38.23
2.05717	38.21
2.07383	38.17
2.09050	38.14
2.10717	38.12
2.12383	38.09
2.14050	38.05
2.15717	38.03
2.17383	38.00
2.19050	37.97
2.20717	37.94
2.22383	37.91
2.24050	37.88
2.25717	37.85
2.27383	37.82
2.29050	37.79
2.30717	37.76
2.32383	37.73
2.34050	37.70
2.35717	37.68
2.37383	37.66
2.39050	37.65
2.40717	37.65
2.42383	37.65
2.44050	37.65
2.45717	37.65
2.47383	37.65
2.49050	37.65
2.50717	37.65
2.52383	37.64
2.54050	37.65
2.55717	37.65
2.57383	37.65
2.59050	37.65
2.60717	37.65
2.62383	37.65
2.64050	37.64
2.65717	37.64
2.67383	37.64
2.69050	37.64
2.70717	37.64
2.72383	37.65
2.74050	37.64
2.75717	37.64
2.77383	37.64
2.79050	37.64
2.80717	37.64
2.82383	37.64
2.84050	37.64
2.85717	37.64
2.87383	37.64
2.89050	37.64
2.90717	37.63
2.92383	37.63
2.94050	37.63
2.95717	37.63
2.97383	37.63
2.99050	37.63
3.00717	37.63
3.02383	37.63
3.04050	37.63
3.05717	37.63
3.07383	37.63
3.09050	37.63
3.10717	37.63
3.12383	37.63
3.14050	37.63
3.15717	37.62
3.17383	37.62
3.19050	37.62
3.20717	37.62
3.22383	37.62
3.24050	37.62
3.25717	37.62
3.27383	37.62
3.29050	37.62
3.30717	37.62
3.32383	37.63
3.34050	37.63
3.35717	37.63
3.37383	37.63
3.39050	37.63
3.40717	37.63
3.42383	37.63
3.44050	37.63
3.45717	37.63
3.47383	37.63
3.49050	37.63
3.50717	37.63
3.52383	37.63
3.54050	37.63
3.55717	37.63
3.57383	37.63
3.59050	37.63
3.60717	37.63
3.62383	37.63
3.64050	37.62
3.65717	37.62
3.67383	37.62
3.69050	37.62
3.70717	37.62
3.72383	37.62
3.74050	37.62
3.75717	37.62
3.77383	37.62
3.79050	37.62
3.80717	37.62
3.82383	37.62
3.84050	37.62
3.85717	37.62
3.87383	37.62
3.89050	37.63
3.90717	37.63
3.92383	37.63
3.94050	37.62
3.95717	37.63
3.97383	37.63
3.99050	37.63

