[Header]
Application Name	LabSolutions
Version	5.110
Data File Name	C:\Users\User\Desktop\GC Analyses\Jack\UIC Prairie Sampling\9.16.22\220916_123.gcd
Output Date	11/29/2022
Output Time	11:10:23 AM

[File Information]
Type	Data File
Generated	11/28/2022 4:19:28 PM
Generated by	System Administrator
Modified	11/28/2022 4:23:49 PM
Modified by	System Administrator

[Sample Information]
Operator Name	System Administrator
Acquired	11/28/2022 4:19:48 PM
Sample Type	1:Standard
Level	1
Sample Name	220916_UICPrairie
Sample ID	220916_UICPrairie
ISTD Amount1	1
ISTD Amount2	1
ISTD Amount3	1
ISTD Amount4	1
ISTD Amount5	1
ISTD Amount6	1
ISTD Amount7	1
ISTD Amount8	1
ISTD Amount9	1
ISTD Amount10	1
ISTD Amount11	1
ISTD Amount12	1
ISTD Amount13	1
ISTD Amount14	1
ISTD Amount15	1
ISTD Amount16	1
ISTD Amount17	1
ISTD Amount18	1
ISTD Amount19	1
ISTD Amount20	1
ISTD Amount21	1
ISTD Amount22	1
ISTD Amount23	1
ISTD Amount24	1
ISTD Amount25	1
ISTD Amount26	1
ISTD Amount27	1
ISTD Amount28	1
ISTD Amount29	1
ISTD Amount30	1
ISTD Amount31	1
ISTD Amount32	1
Sample Amount	1
Dilution Factor	1
Vial#	1
Injection Volume	1
Injection Count	1
Bar Code	

[Original Files]
Data File	C:\Users\User\Desktop\GC Analyses\Jack\UIC Prairie Sampling\9.16.22\220916_123.gcd
Method File	C:\LabSolutions\Data\GHG_4min_2022\ghg3_togas_w_acet_4 min_new_int.gcm
Batch File	
Report Format File	c:\LabSolutions\System\DEFAULT.lsr

[File Description]


[Configuration]
Instrument Name	C0B7VH3-Instrument1
Instrument #	1
Line #	1
# of Detectors	3
Detector ID	DET#1	DET#2	DET#3
Detector Name	FID	PTCD	ECD
# of Channels	1	1	1

[Peak Table(Ch1)]
# of Peaks	3
Peak#	R.Time	I.Time	F.Time	Area	Height	A/H	Conc.	Mark	ID#	Name	k'	Plate #	Plate Ht.	Tailing	Resolution	Sep.Factor	Area Ratio	Height Ratio	Conc. %	Norm Conc.
1	1.479	1.439	1.542	14991	6763	2.217	100.000	   	1	CO	0.000	8517	17.611	1.240	0.000	0.000	0	0	16.667	16.667
2	1.571	1.542	1.633	4907	2445	2.007	100.000	 V 	2	CH4	0.062	10957	13.690	0.000	1.477	0.000	0	0	16.667	16.667
3	2.000	1.952	2.414	1535209	737745	2.081	400.000	   	3	CO2	0.352	17476	8.583	1.277	7.117	5.680	0	0	66.667	66.667

[Peak Table(Ch2)]
# of Peaks	0

[Peak Table(Ch3)]
# of Peaks	5
Peak#	R.Time	I.Time	F.Time	Area	Height	A/H	Conc.	Mark	ID#	Name	k'	Plate #	Plate Ht.	Tailing	Resolution	Sep.Factor	Area Ratio	Height Ratio	Conc. %	Norm Conc.
1	0.871	0.383	1.534	892	26	34.931	0.000	   			0.000	260	576.376	1.312	0.000	0.000	0	0	0.000	0.000
2	2.458	2.352	2.565	1600	262	6.094	0.000	   			1.824	7442	20.155	0.000	9.626	0.000	0	0	0.000	0.000
3	2.609	2.565	2.656	666	177	3.755	0.000	 V 			1.996	1497	100.194	0.000	0.784	1.095	0	0	0.000	0.000
4	2.799	2.686	2.829	4816	750	6.423	0.128	   	1	N2O	2.215	50	3011.787	0.000	0.205	1.110	0	0	12.825	12.825
5	2.887	2.829	3.580	32740	5550	5.900	0.872	 V 	1	N2O	2.316	11087	13.529	0.000	0.104	1.046	0	0	87.175	87.175

[Compound Results(Ch1)]
# of IDs	6
ID#	Name	R.Time	Area	Height	Conc.	Curve	3rd	2nd	1st	Constant	Area Ratio	Height Ratio	Conc. %	Norm Conc.
1	CO	1.479	14991	6763	100.000	Linear	0.000000e+00	0.000000e+00	1.499066e+002	0.000000e+00	0	0	16.667	16.667
2	CH4	1.571	4907	2445	100.000	Linear	0.000000e+00	0.000000e+00	4.906706e+001	0.000000e+00	0	0	16.667	16.667
3	CO2	2.000	1535209	737745	400.000	Linear	0.000000e+00	0.000000e+00	3.838023e+003	0.000000e+00	0	0	66.667	66.667
4	Ethylene	0.000	0	0	0.000	Linear	0.000000e+00	0.000000e+00	0.000000e+00	0.000000e+00	0	0	0.000	0.000
5	Acetylene	0.000	0	0	0.000	Linear	0.000000e+00	0.000000e+00	0.000000e+00	0.000000e+00	0	0	0.000	0.000
6	Ethane	0.000	0	0	0.000	Linear	0.000000e+00	0.000000e+00	0.000000e+00	0.000000e+00	0	0	0.000	0.000

[Compound Results(Ch2)]
# of IDs	5
ID#	Name	R.Time	Area	Height	Conc.	Curve	3rd	2nd	1st	Constant	Area Ratio	Height Ratio	Conc. %	Norm Conc.
1	Hydrogen	0.000	0	0	0.000	Linear	0.000000e+00	0.000000e+00	0.000000e+00	0.000000e+00	0	0	0.000	0.000
2	Oxygen	0.000	0	0	0.000	Linear	0.000000e+00	0.000000e+00	0.000000e+00	0.000000e+00	0	0	0.000	0.000
3	Nitrogen	0.000	0	0	0.000	Linear	0.000000e+00	0.000000e+00	0.000000e+00	0.000000e+00	0	0	0.000	0.000
4	Methane	0.000	0	0	0.000	Linear	0.000000e+00	0.000000e+00	0.000000e+00	0.000000e+00	0	0	0.000	0.000
5	Carbon Monoxide	0.000	0	0	0.000	Linear	0.000000e+00	0.000000e+00	0.000000e+00	0.000000e+00	0	0	0.000	0.000

[Compound Results(Ch3)]
# of IDs	2
ID#	Name	R.Time	Area	Height	Conc.	Curve	3rd	2nd	1st	Constant	Area Ratio	Height Ratio	Conc. %	Norm Conc.
1	N2O	2.887	37556	6299	1.000	Linear	0.000000e+00	0.000000e+00	3.755622e+004	0.000000e+00	0	0	100.000	100.000
2	SF6	0.000	0	0	0.000	Linear	0.000000e+00	0.000000e+00	0.000000e+00	0.000000e+00	0	0	0.000	0.000

[Group Results(Ch1)]
# of Groups	0

[Group Results(Ch2)]
# of Groups	0

[Group Results(Ch3)]
# of Groups	0

[Chromatogram (Ch1)]
Interval(msec)	220
# of Points	1091
Start Time(min)	0.002
End Time(min)	3.998
R.Time (min)	Intensity
0.00167	13
0.00533	20
0.00900	24
0.01267	21
0.01633	13
0.02000	1
0.02367	-6
0.02733	-7
0.03100	-6
0.03467	-5
0.03833	-3
0.04200	-1
0.04567	2
0.04933	4
0.05300	8
0.05667	18
0.06033	25
0.06400	23
0.06767	17
0.07133	11
0.07500	5
0.07867	2
0.08233	1
0.08600	1
0.08967	0
0.09333	1
0.09700	2
0.10067	2
0.10433	1
0.10800	-2
0.11167	-3
0.11533	-2
0.11900	2
0.12267	3
0.12633	-1
0.13000	-5
0.13367	-10
0.13733	-17
0.14100	-20
0.14467	-22
0.14833	-21
0.15200	-16
0.15567	-8
0.15933	1
0.16300	13
0.16667	24
0.17033	27
0.17400	24
0.17767	20
0.18133	16
0.18500	11
0.18867	5
0.19233	1
0.19600	-4
0.19967	-10
0.20333	-17
0.20700	-22
0.21067	-26
0.21433	-28
0.21800	-31
0.22167	-28
0.22533	-23
0.22900	-15
0.23267	-11
0.23633	-10
0.24000	-10
0.24367	-6
0.24733	0
0.25100	4
0.25467	5
0.25833	7
0.26200	7
0.26567	2
0.26933	-6
0.27300	-12
0.27667	-14
0.28033	-13
0.28400	-12
0.28767	-15
0.29133	-20
0.29500	-23
0.29867	-19
0.30233	-13
0.30600	-10
0.30967	-8
0.31333	-7
0.31700	-5
0.32067	1
0.32433	7
0.32800	11
0.33167	11
0.33533	9
0.33900	7
0.34267	7
0.34633	5
0.35000	2
0.35367	-3
0.35733	-11
0.36100	-20
0.36467	-26
0.36833	-28
0.37200	-25
0.37567	-24
0.37933	-21
0.38300	-14
0.38667	-4
0.39033	5
0.39400	9
0.39767	7
0.40133	1
0.40500	-6
0.40867	-12
0.41233	-15
0.41600	-14
0.41967	-13
0.42333	-16
0.42700	-21
0.43067	-25
0.43433	-24
0.43800	-21
0.44167	-20
0.44533	-19
0.44900	-18
0.45267	-14
0.45633	-10
0.46000	-7
0.46367	-8
0.46733	-12
0.47100	-15
0.47467	-18
0.47833	-21
0.48200	-23
0.48567	-24
0.48933	-24
0.49300	-26
0.49667	-27
0.50033	-22
0.50400	-13
0.50767	-7
0.51133	-6
0.51500	-10
0.51867	-14
0.52233	-13
0.52600	-8
0.52967	-2
0.53333	-1
0.53700	-2
0.54067	-3
0.54433	-7
0.54800	-15
0.55167	-23
0.55533	-29
0.55900	-30
0.56267	-28
0.56633	-24
0.57000	-19
0.57367	-14
0.57733	-14
0.58100	-19
0.58467	-25
0.58833	-31
0.59200	-33
0.59567	-33
0.59933	-33
0.60300	-34
0.60667	-35
0.61033	-33
0.61400	-29
0.61767	-23
0.62133	-18
0.62500	-18
0.62867	-19
0.63233	-20
0.63600	-20
0.63967	-22
0.64333	-22
0.64700	-24
0.65067	-28
0.65433	-30
0.65800	-31
0.66167	-31
0.66533	-33
0.66900	-36
0.67267	-39
0.67633	-38
0.68000	-33
0.68367	-26
0.68733	-19
0.69100	-15
0.69467	-13
0.69833	-11
0.70200	-8
0.70567	-7
0.70933	-11
0.71300	-20
0.71667	-29
0.72033	-35
0.72400	-36
0.72767	-35
0.73133	-34
0.73500	-34
0.73867	-32
0.74233	-32
0.74600	-36
0.74967	-44
0.75333	-50
0.75700	-51
0.76067	-47
0.76433	-40
0.76800	-33
0.77167	-28
0.77533	-26
0.77900	-26
0.78267	-29
0.78633	-33
0.79000	-37
0.79367	-39
0.79733	-41
0.80100	-40
0.80467	-37
0.80833	-33
0.81200	-30
0.81567	-27
0.81933	-25
0.82300	-25
0.82667	-26
0.83033	-26
0.83400	-24
0.83767	-21
0.84133	-20
0.84500	-23
0.84867	-30
0.85233	-40
0.85600	-49
0.85967	-55
0.86333	-58
0.86700	-60
0.87067	-57
0.87433	-54
0.87800	-49
0.88167	-45
0.88533	-39
0.88900	-32
0.89267	-27
0.89633	-22
0.90000	-19
0.90367	-19
0.90733	-20
0.91100	-21
0.91467	-27
0.91833	-36
0.92200	-39
0.92567	-38
0.92933	-39
0.93300	-43
0.93667	-51
0.94033	-53
0.94400	-53
0.94767	-51
0.95133	-50
0.95500	-49
0.95867	-44
0.96233	-38
0.96600	-35
0.96967	-35
0.97333	-36
0.97700	-34
0.98067	-32
0.98433	-30
0.98800	-31
0.99167	-34
0.99533	-33
0.99900	-29
1.00267	-22
1.00633	-16
1.01000	-13
1.01367	-16
1.01733	-23
1.02100	-31
1.02467	-38
1.02833	-43
1.03200	-48
1.03567	-50
1.03933	-51
1.04300	-51
1.04667	-48
1.05033	-43
1.05400	-37
1.05767	-31
1.06133	-24
1.06500	-17
1.06867	-13
1.07233	-14
1.07600	-15
1.07967	-16
1.08333	-18
1.08700	-25
1.09067	-34
1.09433	-41
1.09800	-47
1.10167	-49
1.10533	-52
1.10900	-56
1.11267	-60
1.11633	-59
1.12000	-57
1.12367	-52
1.12733	-50
1.13100	-48
1.13467	-46
1.13833	-45
1.14200	-46
1.14567	-45
1.14933	-44
1.15300	-44
1.15667	-45
1.16033	-49
1.16400	-51
1.16767	-51
1.17133	-51
1.17500	-51
1.17867	-51
1.18233	-50
1.18600	-48
1.18967	-47
1.19333	-43
1.19700	-41
1.20067	-41
1.20433	-43
1.20800	-46
1.21167	-49
1.21533	-52
1.21900	-53
1.22267	-52
1.22633	-51
1.23000	-51
1.23367	-52
1.23733	-54
1.24100	-58
1.24467	-59
1.24833	-61
1.25200	-59
1.25567	-55
1.25933	-53
1.26300	-54
1.26667	-56
1.27033	-58
1.27400	-59
1.27767	-60
1.28133	-55
1.28500	-47
1.28867	-41
1.29233	-39
1.29600	-41
1.29967	-49
1.30333	-57
1.30700	-62
1.31067	-64
1.31433	-67
1.31800	-70
1.32167	-75
1.32533	-80
1.32900	-79
1.33267	-71
1.33633	-63
1.34000	-60
1.34367	-66
1.34733	-72
1.35100	-75
1.35467	-72
1.35833	-64
1.36200	-57
1.36567	-56
1.36933	-58
1.37300	-62
1.37667	-64
1.38033	-65
1.38400	-62
1.38767	-59
1.39133	-59
1.39500	-63
1.39867	-67
1.40233	-69
1.40600	-70
1.40967	-69
1.41333	-72
1.41700	-78
1.42067	-82
1.42433	-86
1.42800	-90
1.43167	-94
1.43533	-92
1.43900	-82
1.44267	-36
1.44633	106
1.45000	389
1.45367	884
1.45733	1718
1.46100	2860
1.46467	4089
1.46833	5182
1.47200	6018
1.47567	6535
1.47933	6682
1.48300	6416
1.48667	5769
1.49033	4866
1.49400	3883
1.49767	2965
1.50133	2192
1.50500	1583
1.50867	1125
1.51233	795
1.51600	565
1.51967	407
1.52333	299
1.52700	224
1.53067	167
1.53433	122
1.53800	88
1.54167	83
1.54533	152
1.54900	360
1.55267	726
1.55633	1184
1.56000	1632
1.56367	2000
1.56733	2255
1.57100	2367
1.57467	2307
1.57833	2071
1.58200	1710
1.58567	1307
1.58933	937
1.59300	639
1.59667	419
1.60033	262
1.60400	153
1.60767	80
1.61133	29
1.61500	-6
1.61867	-31
1.62233	-48
1.62600	-59
1.62967	-68
1.63333	-75
1.63700	-80
1.64067	-81
1.64433	-80
1.64800	-76
1.65167	-68
1.65533	-62
1.65900	-59
1.66267	-59
1.66633	-61
1.67000	-65
1.67367	-68
1.67733	-72
1.68100	-75
1.68467	-78
1.68833	-79
1.69200	-77
1.69567	-76
1.69933	-75
1.70300	-76
1.70667	-78
1.71033	-78
1.71400	-77
1.71767	-79
1.72133	-83
1.72500	-85
1.72867	-84
1.73233	-81
1.73600	-79
1.73967	-80
1.74333	-82
1.74700	-84
1.75067	-87
1.75433	-91
1.75800	-92
1.76167	-89
1.76533	-82
1.76900	-74
1.77267	-64
1.77633	-55
1.78000	-50
1.78367	-49
1.78733	-51
1.79100	-60
1.79467	-73
1.79833	-85
1.80200	-90
1.80567	-88
1.80933	-83
1.81300	-73
1.81667	-63
1.82033	-61
1.82400	-65
1.82767	-70
1.83133	-72
1.83500	-75
1.83867	-76
1.84233	-76
1.84600	-75
1.84967	-72
1.85333	-66
1.85700	-63
1.86067	-64
1.86433	-67
1.86800	-67
1.87167	-65
1.87533	-62
1.87900	-59
1.88267	-57
1.88633	-57
1.89000	-59
1.89367	-59
1.89733	-56
1.90100	-56
1.90467	-58
1.90833	-60
1.91200	-56
1.91567	-49
1.91933	-43
1.92300	-43
1.92667	-43
1.93033	-43
1.93400	-43
1.93767	-43
1.94133	-42
1.94500	-40
1.94867	-37
1.95233	-32
1.95600	-8
1.95967	138
1.96333	957
1.96700	4605
1.97067	16997
1.97433	49298
1.97800	114647
1.98167	218507
1.98533	351220
1.98900	491130
1.99267	613873
1.99633	700194
2.00000	737750
2.00367	721987
2.00733	658375
2.01100	561746
2.01467	451249
2.01833	344396
2.02200	252516
2.02567	179941
2.02933	125991
2.03300	87544
2.03667	60914
2.04033	42782
2.04400	30546
2.04767	22300
2.05133	16715
2.05500	12888
2.05867	10226
2.06233	8338
2.06600	6964
2.06967	5938
2.07333	5159
2.07700	4555
2.08067	4072
2.08433	3677
2.08800	3345
2.09167	3064
2.09533	2827
2.09900	2622
2.10267	2443
2.10633	2286
2.11000	2149
2.11367	2028
2.11733	1917
2.12100	1817
2.12467	1729
2.12833	1655
2.13200	1585
2.13567	1519
2.13933	1457
2.14300	1400
2.14667	1346
2.15033	1294
2.15400	1242
2.15767	1192
2.16133	1147
2.16500	1107
2.16867	1068
2.17233	1031
2.17600	996
2.17967	960
2.18333	925
2.18700	892
2.19067	862
2.19433	838
2.19800	821
2.20167	808
2.20533	797
2.20900	780
2.21267	759
2.21633	737
2.22000	714
2.22367	696
2.22733	682
2.23100	674
2.23467	667
2.23833	655
2.24200	640
2.24567	624
2.24933	607
2.25300	588
2.25667	568
2.26033	552
2.26400	541
2.26767	532
2.27133	523
2.27500	514
2.27867	507
2.28233	502
2.28600	499
2.28967	493
2.29333	484
2.29700	474
2.30067	463
2.30433	451
2.30800	438
2.31167	428
2.31533	423
2.31900	419
2.32267	416
2.32633	415
2.33000	412
2.33367	408
2.33733	404
2.34100	402
2.34467	399
2.34833	395
2.35200	390
2.35567	385
2.35933	379
2.36300	377
2.36667	377
2.37033	377
2.37400	377
2.37767	373
2.38133	366
2.38500	356
2.38867	345
2.39233	335
2.39600	326
2.39967	322
2.40333	320
2.40700	318
2.41067	318
2.41433	320
2.41800	323
2.42167	327
2.42533	329
2.42900	331
2.43267	335
2.43633	338
2.44000	335
2.44367	323
2.44733	308
2.45100	293
2.45467	281
2.45833	274
2.46200	272
2.46567	273
2.46933	272
2.47300	267
2.47667	265
2.48033	267
2.48400	269
2.48767	270
2.49133	271
2.49500	270
2.49867	269
2.50233	268
2.50600	266
2.50967	262
2.51333	255
2.51700	249
2.52067	246
2.52433	246
2.52800	245
2.53167	244
2.53533	241
2.53900	239
2.54267	235
2.54633	232
2.55000	229
2.55367	227
2.55733	225
2.56100	223
2.56467	226
2.56833	230
2.57200	233
2.57567	234
2.57933	232
2.58300	229
2.58667	224
2.59033	218
2.59400	210
2.59767	202
2.60133	193
2.60500	185
2.60867	178
2.61233	170
2.61600	167
2.61967	169
2.62333	170
2.62700	171
2.63067	170
2.63433	168
2.63800	166
2.64167	165
2.64533	165
2.64900	165
2.65267	166
2.65633	168
2.66000	168
2.66367	165
2.66733	164
2.67100	164
2.67467	162
2.67833	158
2.68200	157
2.68567	157
2.68933	155
2.69300	154
2.69667	153
2.70033	151
2.70400	147
2.70767	146
2.71133	145
2.71500	142
2.71867	140
2.72233	139
2.72600	137
2.72967	133
2.73333	128
2.73700	123
2.74067	124
2.74433	129
2.74800	135
2.75167	139
2.75533	141
2.75900	138
2.76267	136
2.76633	137
2.77000	141
2.77367	144
2.77733	146
2.78100	147
2.78467	145
2.78833	142
2.79200	137
2.79567	131
2.79933	128
2.80300	124
2.80667	119
2.81033	112
2.81400	106
2.81767	101
2.82133	96
2.82500	92
2.82867	90
2.83233	92
2.83600	96
2.83967	102
2.84333	106
2.84700	107
2.85067	107
2.85433	107
2.85800	108
2.86167	109
2.86533	108
2.86900	104
2.87267	102
2.87633	102
2.88000	103
2.88367	107
2.88733	107
2.89100	103
2.89467	98
2.89833	94
2.90200	90
2.90567	86
2.90933	82
2.91300	78
2.91667	75
2.92033	73
2.92400	72
2.92767	79
2.93133	90
2.93500	103
2.93867	114
2.94233	119
2.94600	121
2.94967	118
2.95333	110
2.95700	100
2.96067	91
2.96433	83
2.96800	78
2.97167	77
2.97533	74
2.97900	68
2.98267	65
2.98633	66
2.99000	73
2.99367	85
2.99733	96
3.00100	102
3.00467	103
3.00833	104
3.01200	107
3.01567	108
3.01933	109
3.02300	106
3.02667	104
3.03033	103
3.03400	105
3.03767	109
3.04133	109
3.04500	105
3.04867	99
3.05233	95
3.05600	93
3.05967	91
3.06333	88
3.06700	86
3.07067	83
3.07433	80
3.07800	80
3.08167	80
3.08533	79
3.08900	75
3.09267	69
3.09633	66
3.10000	64
3.10367	67
3.10733	72
3.11100	78
3.11467	82
3.11833	82
3.12200	79
3.12567	77
3.12933	76
3.13300	77
3.13667	77
3.14033	74
3.14400	74
3.14767	76
3.15133	76
3.15500	75
3.15867	75
3.16233	75
3.16600	74
3.16967	75
3.17333	77
3.17700	82
3.18067	87
3.18433	88
3.18800	88
3.19167	88
3.19533	89
3.19900	89
3.20267	90
3.20633	92
3.21000	94
3.21367	97
3.21733	97
3.22100	94
3.22467	89
3.22833	87
3.23200	88
3.23567	93
3.23933	96
3.24300	99
3.24667	101
3.25033	104
3.25400	108
3.25767	107
3.26133	102
3.26500	93
3.26867	86
3.27233	83
3.27600	85
3.27967	89
3.28333	93
3.28700	95
3.29067	96
3.29433	94
3.29800	88
3.30167	82
3.30533	78
3.30900	76
3.31267	74
3.31633	72
3.32000	72
3.32367	75
3.32733	79
3.33100	85
3.33467	94
3.33833	103
3.34200	110
3.34567	111
3.34933	105
3.35300	95
3.35667	86
3.36033	85
3.36400	88
3.36767	91
3.37133	92
3.37500	91
3.37867	88
3.38233	83
3.38600	78
3.38967	74
3.39333	75
3.39700	79
3.40067	83
3.40433	86
3.40800	87
3.41167	89
3.41533	91
3.41900	92
3.42267	91
3.42633	88
3.43000	84
3.43367	81
3.43733	81
3.44100	83
3.44467	84
3.44833	83
3.45200	78
3.45567	71
3.45933	68
3.46300	66
3.46667	65
3.47033	65
3.47400	62
3.47767	59
3.48133	56
3.48500	57
3.48867	59
3.49233	61
3.49600	64
3.49967	66
3.50333	65
3.50700	60
3.51067	56
3.51433	57
3.51800	59
3.52167	61
3.52533	63
3.52900	65
3.53267	69
3.53633	72
3.54000	75
3.54367	80
3.54733	85
3.55100	89
3.55467	90
3.55833	88
3.56200	84
3.56567	81
3.56933	78
3.57300	75
3.57667	71
3.58033	68
3.58400	65
3.58767	60
3.59133	52
3.59500	44
3.59867	40
3.60233	41
3.60600	44
3.60967	50
3.61333	57
3.61700	61
3.62067	60
3.62433	53
3.62800	45
3.63167	38
3.63533	38
3.63900	43
3.64267	49
3.64633	50
3.65000	50
3.65367	53
3.65733	53
3.66100	50
3.66467	47
3.66833	44
3.67200	42
3.67567	43
3.67933	47
3.68300	48
3.68667	46
3.69033	46
3.69400	48
3.69767	49
3.70133	49
3.70500	47
3.70867	41
3.71233	33
3.71600	26
3.71967	20
3.72333	18
3.72700	19
3.73067	18
3.73433	20
3.73800	25
3.74167	32
3.74533	36
3.74900	36
3.75267	34
3.75633	30
3.76000	26
3.76367	23
3.76733	20
3.77100	18
3.77467	19
3.77833	25
3.78200	27
3.78567	26
3.78933	23
3.79300	21
3.79667	20
3.80033	19
3.80400	21
3.80767	24
3.81133	25
3.81500	21
3.81867	14
3.82233	10
3.82600	7
3.82967	5
3.83333	4
3.83700	5
3.84067	7
3.84433	7
3.84800	5
3.85167	5
3.85533	4
3.85900	4
3.86267	5
3.86633	7
3.87000	8
3.87367	8
3.87733	7
3.88100	8
3.88467	8
3.88833	9
3.89200	11
3.89567	11
3.89933	8
3.90300	9
3.90667	11
3.91033	14
3.91400	14
3.91767	13
3.92133	10
3.92500	6
3.92867	1
3.93233	-3
3.93600	-8
3.93967	-13
3.94333	-16
3.94700	-18
3.95067	-21
3.95433	-24
3.95800	-28
3.96167	-29
3.96533	-27
3.96900	-23
3.97267	-19
3.97633	-15
3.98000	-9
3.98367	-5
3.98733	-5
3.99100	-10
3.99467	-17
3.99833	-26

[Chromatogram (Ch2)]
Interval(msec)	220
# of Points	1091
Start Time(min)	0.002
End Time(min)	3.998
R.Time (min)	Intensity
0.00167	0
0.00533	1
0.00900	1
0.01267	0
0.01633	0
0.02000	-0
0.02367	-0
0.02733	-1
0.03100	-1
0.03467	-1
0.03833	-1
0.04200	-1
0.04567	-1
0.04933	-1
0.05300	-1
0.05667	-1
0.06033	-1
0.06400	-1
0.06767	-1
0.07133	-1
0.07500	-1
0.07867	-0
0.08233	-0
0.08600	0
0.08967	0
0.09333	0
0.09700	0
0.10067	1
0.10433	1
0.10800	1
0.11167	1
0.11533	1
0.11900	1
0.12267	1
0.12633	1
0.13000	1
0.13367	1
0.13733	1
0.14100	1
0.14467	1
0.14833	1
0.15200	1
0.15567	1
0.15933	1
0.16300	1
0.16667	1
0.17033	1
0.17400	0
0.17767	0
0.18133	0
0.18500	0
0.18867	0
0.19233	-0
0.19600	-0
0.19967	-0
0.20333	-0
0.20700	-1
0.21067	-1
0.21433	-0
0.21800	-0
0.22167	-0
0.22533	0
0.22900	0
0.23267	0
0.23633	0
0.24000	0
0.24367	0
0.24733	0
0.25100	0
0.25467	0
0.25833	0
0.26200	0
0.26567	-0
0.26933	-0
0.27300	-1
0.27667	-1
0.28033	-1
0.28400	-1
0.28767	-1
0.29133	-1
0.29500	-1
0.29867	-1
0.30233	-1
0.30600	-1
0.30967	-1
0.31333	-1
0.31700	-1
0.32067	-1
0.32433	-1
0.32800	-1
0.33167	-2
0.33533	-2
0.33900	-2
0.34267	-2
0.34633	-3
0.35000	-3
0.35367	-3
0.35733	-2
0.36100	-2
0.36467	-2
0.36833	-2
0.37200	-2
0.37567	-2
0.37933	-2
0.38300	-2
0.38667	-2
0.39033	-2
0.39400	-2
0.39767	-2
0.40133	-2
0.40500	-2
0.40867	-2
0.41233	-2
0.41600	-2
0.41967	-2
0.42333	-2
0.42700	-2
0.43067	-2
0.43433	-2
0.43800	-2
0.44167	-2
0.44533	-1
0.44900	-1
0.45267	-1
0.45633	-1
0.46000	-1
0.46367	-1
0.46733	-1
0.47100	-1
0.47467	-1
0.47833	-1
0.48200	-2
0.48567	-2
0.48933	-2
0.49300	-2
0.49667	-2
0.50033	-2
0.50400	-2
0.50767	-2
0.51133	-2
0.51500	-2
0.51867	-2
0.52233	-2
0.52600	-3
0.52967	-3
0.53333	-3
0.53700	-3
0.54067	-2
0.54433	-2
0.54800	-2
0.55167	-2
0.55533	-2
0.55900	-1
0.56267	-1
0.56633	-1
0.57000	-1
0.57367	-0
0.57733	-0
0.58100	0
0.58467	0
0.58833	-0
0.59200	-0
0.59567	-0
0.59933	-0
0.60300	-0
0.60667	-0
0.61033	-0
0.61400	-1
0.61767	-1
0.62133	-1
0.62500	-1
0.62867	-1
0.63233	-2
0.63600	-2
0.63967	-2
0.64333	-2
0.64700	-2
0.65067	-2
0.65433	-2
0.65800	-3
0.66167	-3
0.66533	-3
0.66900	-2
0.67267	-2
0.67633	-2
0.68000	-3
0.68367	-3
0.68733	-3
0.69100	-3
0.69467	-3
0.69833	-3
0.70200	-3
0.70567	-3
0.70933	-3
0.71300	-3
0.71667	-4
0.72033	-4
0.72400	-4
0.72767	-4
0.73133	-3
0.73500	-3
0.73867	-3
0.74233	-3
0.74600	-3
0.74967	-3
0.75333	-3
0.75700	-3
0.76067	-3
0.76433	-2
0.76800	-2
0.77167	-2
0.77533	-2
0.77900	-2
0.78267	-2
0.78633	-2
0.79000	-2
0.79367	-2
0.79733	-2
0.80100	-2
0.80467	-2
0.80833	-2
0.81200	-2
0.81567	-2
0.81933	-2
0.82300	-2
0.82667	-2
0.83033	-2
0.83400	-2
0.83767	-2
0.84133	-2
0.84500	-2
0.84867	-2
0.85233	-2
0.85600	-3
0.85967	-3
0.86333	-3
0.86700	-3
0.87067	-3
0.87433	-3
0.87800	-3
0.88167	-3
0.88533	-3
0.88900	-3
0.89267	-3
0.89633	-3
0.90000	-3
0.90367	-3
0.90733	-3
0.91100	-3
0.91467	-3
0.91833	-3
0.92200	-3
0.92567	-3
0.92933	-3
0.93300	-3
0.93667	-3
0.94033	-3
0.94400	-3
0.94767	-3
0.95133	-3
0.95500	-3
0.95867	-3
0.96233	-4
0.96600	-4
0.96967	-4
0.97333	-4
0.97700	-4
0.98067	-4
0.98433	-4
0.98800	-4
0.99167	-4
0.99533	-4
0.99900	-4
1.00267	-4
1.00633	-4
1.01000	-4
1.01367	-4
1.01733	-4
1.02100	-4
1.02467	-5
1.02833	-5
1.03200	-5
1.03567	-5
1.03933	-5
1.04300	-5
1.04667	-5
1.05033	-5
1.05400	-5
1.05767	-5
1.06133	-5
1.06500	-4
1.06867	-4
1.07233	-4
1.07600	-4
1.07967	-3
1.08333	-3
1.08700	-3
1.09067	-3
1.09433	-3
1.09800	-3
1.10167	-3
1.10533	-3
1.10900	-3
1.11267	-3
1.11633	-2
1.12000	-2
1.12367	-2
1.12733	-2
1.13100	-2
1.13467	-2
1.13833	-2
1.14200	-2
1.14567	-2
1.14933	-2
1.15300	-2
1.15667	-2
1.16033	-2
1.16400	-2
1.16767	-2
1.17133	-2
1.17500	-2
1.17867	-2
1.18233	-2
1.18600	-2
1.18967	-2
1.19333	-2
1.19700	-2
1.20067	-2
1.20433	-3
1.20800	-3
1.21167	-3
1.21533	-3
1.21900	-4
1.22267	-4
1.22633	-4
1.23000	-5
1.23367	-5
1.23733	-5
1.24100	-5
1.24467	-4
1.24833	-4
1.25200	-4
1.25567	-4
1.25933	-4
1.26300	-4
1.26667	-4
1.27033	-4
1.27400	-4
1.27767	-4
1.28133	-4
1.28500	-4
1.28867	-4
1.29233	-4
1.29600	-4
1.29967	-4
1.30333	-4
1.30700	-4
1.31067	-4
1.31433	-5
1.31800	-5
1.32167	-5
1.32533	-5
1.32900	-5
1.33267	-5
1.33633	-4
1.34000	-4
1.34367	-4
1.34733	-4
1.35100	-3
1.35467	-3
1.35833	-3
1.36200	-3
1.36567	-3
1.36933	-3
1.37300	-2
1.37667	-2
1.38033	-2
1.38400	-2
1.38767	-2
1.39133	-3
1.39500	-3
1.39867	-3
1.40233	-3
1.40600	-3
1.40967	-3
1.41333	-3
1.41700	-3
1.42067	-3
1.42433	-4
1.42800	-4
1.43167	-4
1.43533	-4
1.43900	-4
1.44267	-4
1.44633	-4
1.45000	-4
1.45367	-4
1.45733	-4
1.46100	-4
1.46467	-4
1.46833	-4
1.47200	-4
1.47567	-4
1.47933	-4
1.48300	-4
1.48667	-4
1.49033	-3
1.49400	-3
1.49767	-3
1.50133	-3
1.50500	-3
1.50867	-3
1.51233	-4
1.51600	-4
1.51967	-4
1.52333	-4
1.52700	-4
1.53067	-4
1.53433	-4
1.53800	-4
1.54167	-4
1.54533	-4
1.54900	-4
1.55267	-4
1.55633	-4
1.56000	-4
1.56367	-4
1.56733	-4
1.57100	-4
1.57467	-4
1.57833	-3
1.58200	-3
1.58567	-3
1.58933	-3
1.59300	-4
1.59667	-4
1.60033	-5
1.60400	-7
1.60767	-8
1.61133	-10
1.61500	-12
1.61867	-14
1.62233	-16
1.62600	-18
1.62967	-21
1.63333	-24
1.63700	-27
1.64067	-30
1.64433	-34
1.64800	-37
1.65167	-41
1.65533	-44
1.65900	-48
1.66267	-52
1.66633	-56
1.67000	-61
1.67367	-66
1.67733	-71
1.68100	-76
1.68467	-82
1.68833	-87
1.69200	-91
1.69567	-95
1.69933	-98
1.70300	-101
1.70667	-103
1.71033	-105
1.71400	-107
1.71767	-108
1.72133	-109
1.72500	-110
1.72867	-111
1.73233	-111
1.73600	-112
1.73967	-113
1.74333	-113
1.74700	-114
1.75067	-114
1.75433	-115
1.75800	-115
1.76167	-115
1.76533	-116
1.76900	-117
1.77267	-117
1.77633	-118
1.78000	-118
1.78367	-119
1.78733	-119
1.79100	-120
1.79467	-120
1.79833	-121
1.80200	-121
1.80567	-121
1.80933	-122
1.81300	-122
1.81667	-122
1.82033	-122
1.82400	-122
1.82767	-122
1.83133	-121
1.83500	-121
1.83867	-121
1.84233	-121
1.84600	-121
1.84967	-121
1.85333	-122
1.85700	-122
1.86067	-122
1.86433	-121
1.86800	-121
1.87167	-121
1.87533	-121
1.87900	-120
1.88267	-120
1.88633	-119
1.89000	-119
1.89367	-118
1.89733	-118
1.90100	-118
1.90467	-118
1.90833	-118
1.91200	-118
1.91567	-119
1.91933	-119
1.92300	-119
1.92667	-119
1.93033	-119
1.93400	-119
1.93767	-118
1.94133	-118
1.94500	-118
1.94867	-117
1.95233	-117
1.95600	-116
1.95967	-115
1.96333	-115
1.96700	-115
1.97067	-115
1.97433	-115
1.97800	-115
1.98167	-115
1.98533	-115
1.98900	-115
1.99267	-115
1.99633	-115
2.00000	-115
2.00367	-114
2.00733	-114
2.01100	-114
2.01467	-114
2.01833	-114
2.02200	-113
2.02567	-113
2.02933	-112
2.03300	-112
2.03667	-112
2.04033	-112
2.04400	-112
2.04767	-112
2.05133	-112
2.05500	-112
2.05867	-112
2.06233	-111
2.06600	-110
2.06967	-110
2.07333	-109
2.07700	-109
2.08067	-108
2.08433	-108
2.08800	-107
2.09167	-107
2.09533	-107
2.09900	-107
2.10267	-107
2.10633	-107
2.11000	-106
2.11367	-106
2.11733	-105
2.12100	-105
2.12467	-104
2.12833	-104
2.13200	-104
2.13567	-104
2.13933	-103
2.14300	-104
2.14667	-104
2.15033	-104
2.15400	-104
2.15767	-104
2.16133	-104
2.16500	-104
2.16867	-103
2.17233	-103
2.17600	-103
2.17967	-102
2.18333	-101
2.18700	-101
2.19067	-100
2.19433	-100
2.19800	-99
2.20167	-99
2.20533	-98
2.20900	-98
2.21267	-97
2.21633	-96
2.22000	-95
2.22367	-94
2.22733	-94
2.23100	-94
2.23467	-94
2.23833	-94
2.24200	-94
2.24567	-94
2.24933	-93
2.25300	-93
2.25667	-93
2.26033	-93
2.26400	-93
2.26767	-94
2.27133	-94
2.27500	-95
2.27867	-95
2.28233	-95
2.28600	-94
2.28967	-93
2.29333	-92
2.29700	-91
2.30067	-90
2.30433	-89
2.30800	-89
2.31167	-88
2.31533	-87
2.31900	-87
2.32267	-87
2.32633	-87
2.33000	-87
2.33367	-88
2.33733	-88
2.34100	-88
2.34467	-87
2.34833	-86
2.35200	-85
2.35567	-84
2.35933	-83
2.36300	-82
2.36667	-80
2.37033	-79
2.37400	-77
2.37767	-75
2.38133	-72
2.38500	-69
2.38867	-66
2.39233	-63
2.39600	-59
2.39967	-55
2.40333	-51
2.40700	-46
2.41067	-42
2.41433	-38
2.41800	-34
2.42167	-31
2.42533	-28
2.42900	-25
2.43267	-22
2.43633	-20
2.44000	-17
2.44367	-15
2.44733	-14
2.45100	-12
2.45467	-10
2.45833	-9
2.46200	-7
2.46567	-6
2.46933	-5
2.47300	-3
2.47667	-2
2.48033	-1
2.48400	0
2.48767	1
2.49133	3
2.49500	4
2.49867	5
2.50233	6
2.50600	6
2.50967	7
2.51333	7
2.51700	7
2.52067	8
2.52433	8
2.52800	9
2.53167	9
2.53533	9
2.53900	10
2.54267	10
2.54633	10
2.55000	10
2.55367	10
2.55733	11
2.56100	11
2.56467	12
2.56833	12
2.57200	12
2.57567	12
2.57933	13
2.58300	13
2.58667	13
2.59033	13
2.59400	13
2.59767	13
2.60133	13
2.60500	13
2.60867	13
2.61233	13
2.61600	12
2.61967	12
2.62333	13
2.62700	13
2.63067	13
2.63433	14
2.63800	14
2.64167	15
2.64533	16
2.64900	16
2.65267	17
2.65633	17
2.66000	17
2.66367	17
2.66733	17
2.67100	17
2.67467	17
2.67833	18
2.68200	18
2.68567	18
2.68933	19
2.69300	19
2.69667	19
2.70033	19
2.70400	19
2.70767	20
2.71133	20
2.71500	20
2.71867	20
2.72233	20
2.72600	20
2.72967	20
2.73333	20
2.73700	21
2.74067	21
2.74433	22
2.74800	22
2.75167	23
2.75533	23
2.75900	23
2.76267	23
2.76633	23
2.77000	23
2.77367	23
2.77733	23
2.78100	23
2.78467	23
2.78833	24
2.79200	24
2.79567	24
2.79933	25
2.80300	25
2.80667	25
2.81033	24
2.81400	24
2.81767	24
2.82133	25
2.82500	25
2.82867	25
2.83233	26
2.83600	26
2.83967	26
2.84333	26
2.84700	25
2.85067	24
2.85433	23
2.85800	20
2.86167	16
2.86533	11
2.86900	3
2.87267	-8
2.87633	-22
2.88000	-40
2.88367	-61
2.88733	-87
2.89100	-116
2.89467	-149
2.89833	-186
2.90200	-225
2.90567	-268
2.90933	-313
2.91300	-360
2.91667	-409
2.92033	-458
2.92400	-509
2.92767	-559
2.93133	-609
2.93500	-660
2.93867	-710
2.94233	-759
2.94600	-809
2.94967	-860
2.95333	-916
2.95700	-977
2.96067	-1035
2.96433	-1081
2.96800	-1103
2.97167	-1100
2.97533	-1071
2.97900	-1021
2.98267	-955
2.98633	-880
2.99000	-800
2.99367	-720
2.99733	-641
3.00100	-566
3.00467	-497
3.00833	-433
3.01200	-376
3.01567	-324
3.01933	-279
3.02300	-239
3.02667	-204
3.03033	-173
3.03400	-147
3.03767	-124
3.04133	-105
3.04500	-88
3.04867	-73
3.05233	-61
3.05600	-50
3.05967	-41
3.06333	-33
3.06700	-26
3.07067	-21
3.07433	-16
3.07800	-12
3.08167	-9
3.08533	-6
3.08900	-3
3.09267	-0
3.09633	2
3.10000	3
3.10367	5
3.10733	6
3.11100	7
3.11467	8
3.11833	9
3.12200	10
3.12567	10
3.12933	11
3.13300	11
3.13667	12
3.14033	12
3.14400	12
3.14767	13
3.15133	13
3.15500	13
3.15867	13
3.16233	14
3.16600	14
3.16967	14
3.17333	14
3.17700	14
3.18067	15
3.18433	15
3.18800	15
3.19167	15
3.19533	15
3.19900	15
3.20267	16
3.20633	16
3.21000	16
3.21367	17
3.21733	17
3.22100	17
3.22467	17
3.22833	17
3.23200	17
3.23567	18
3.23933	18
3.24300	18
3.24667	18
3.25033	19
3.25400	19
3.25767	19
3.26133	19
3.26500	19
3.26867	19
3.27233	20
3.27600	20
3.27967	20
3.28333	20
3.28700	20
3.29067	20
3.29433	20
3.29800	21
3.30167	21
3.30533	21
3.30900	21
3.31267	21
3.31633	21
3.32000	21
3.32367	21
3.32733	21
3.33100	21
3.33467	21
3.33833	20
3.34200	20
3.34567	20
3.34933	20
3.35300	20
3.35667	20
3.36033	21
3.36400	21
3.36767	21
3.37133	21
3.37500	22
3.37867	22
3.38233	22
3.38600	22
3.38967	23
3.39333	23
3.39700	23
3.40067	23
3.40433	23
3.40800	23
3.41167	24
3.41533	24
3.41900	24
3.42267	24
3.42633	24
3.43000	24
3.43367	24
3.43733	24
3.44100	25
3.44467	25
3.44833	25
3.45200	25
3.45567	25
3.45933	25
3.46300	25
3.46667	25
3.47033	25
3.47400	25
3.47767	25
3.48133	25
3.48500	25
3.48867	25
3.49233	25
3.49600	25
3.49967	25
3.50333	25
3.50700	25
3.51067	25
3.51433	25
3.51800	24
3.52167	24
3.52533	24
3.52900	24
3.53267	24
3.53633	24
3.54000	24
3.54367	24
3.54733	24
3.55100	24
3.55467	25
3.55833	25
3.56200	25
3.56567	24
3.56933	24
3.57300	24
3.57667	24
3.58033	24
3.58400	24
3.58767	24
3.59133	24
3.59500	24
3.59867	23
3.60233	23
3.60600	23
3.60967	23
3.61333	23
3.61700	23
3.62067	23
3.62433	23
3.62800	23
3.63167	23
3.63533	23
3.63900	23
3.64267	23
3.64633	23
3.65000	23
3.65367	23
3.65733	23
3.66100	22
3.66467	22
3.66833	22
3.67200	22
3.67567	22
3.67933	22
3.68300	22
3.68667	22
3.69033	22
3.69400	22
3.69767	22
3.70133	22
3.70500	22
3.70867	22
3.71233	23
3.71600	23
3.71967	23
3.72333	23
3.72700	24
3.73067	24
3.73433	24
3.73800	24
3.74167	24
3.74533	23
3.74900	23
3.75267	23
3.75633	23
3.76000	23
3.76367	24
3.76733	24
3.77100	24
3.77467	24
3.77833	24
3.78200	24
3.78567	24
3.78933	24
3.79300	24
3.79667	24
3.80033	24
3.80400	24
3.80767	24
3.81133	24
3.81500	24
3.81867	24
3.82233	24
3.82600	24
3.82967	24
3.83333	24
3.83700	24
3.84067	24
3.84433	24
3.84800	24
3.85167	24
3.85533	24
3.85900	24
3.86267	24
3.86633	24
3.87000	24
3.87367	24
3.87733	24
3.88100	24
3.88467	24
3.88833	24
3.89200	24
3.89567	24
3.89933	24
3.90300	24
3.90667	24
3.91033	24
3.91400	24
3.91767	24
3.92133	24
3.92500	24
3.92867	24
3.93233	24
3.93600	24
3.93967	24
3.94333	24
3.94700	24
3.95067	24
3.95433	24
3.95800	24
3.96167	24
3.96533	24
3.96900	24
3.97267	24
3.97633	24
3.98000	24
3.98367	24
3.98733	24
3.99100	24
3.99467	24
3.99833	24

[Chromatogram (Ch3)]
Interval(msec)	220
# of Points	1091
Start Time(min)	0.002
End Time(min)	3.998
R.Time (min)	Intensity
0.00167	1
0.00533	4
0.00900	5
0.01267	7
0.01633	8
0.02000	9
0.02367	9
0.02733	10
0.03100	10
0.03467	9
0.03833	9
0.04200	11
0.04567	14
0.04933	14
0.05300	13
0.05667	11
0.06033	12
0.06400	12
0.06767	12
0.07133	11
0.07500	12
0.07867	13
0.08233	13
0.08600	15
0.08967	14
0.09333	13
0.09700	13
0.10067	13
0.10433	13
0.10800	13
0.11167	12
0.11533	12
0.11900	11
0.12267	12
0.12633	14
0.13000	15
0.13367	15
0.13733	16
0.14100	17
0.14467	17
0.14833	16
0.15200	16
0.15567	15
0.15933	13
0.16300	13
0.16667	13
0.17033	14
0.17400	13
0.17767	14
0.18133	13
0.18500	14
0.18867	16
0.19233	16
0.19600	15
0.19967	17
0.20333	20
0.20700	22
0.21067	21
0.21433	18
0.21800	16
0.22167	16
0.22533	17
0.22900	17
0.23267	16
0.23633	16
0.24000	16
0.24367	18
0.24733	20
0.25100	21
0.25467	20
0.25833	18
0.26200	19
0.26567	18
0.26933	16
0.27300	19
0.27667	22
0.28033	25
0.28400	28
0.28767	29
0.29133	28
0.29500	26
0.29867	24
0.30233	25
0.30600	24
0.30967	23
0.31333	24
0.31700	23
0.32067	23
0.32433	24
0.32800	22
0.33167	19
0.33533	17
0.33900	18
0.34267	19
0.34633	19
0.35000	19
0.35367	19
0.35733	19
0.36100	19
0.36467	20
0.36833	20
0.37200	19
0.37567	18
0.37933	19
0.38300	20
0.38667	22
0.39033	23
0.39400	24
0.39767	23
0.40133	24
0.40500	26
0.40867	26
0.41233	27
0.41600	28
0.41967	30
0.42333	31
0.42700	32
0.43067	31
0.43433	28
0.43800	26
0.44167	26
0.44533	27
0.44900	29
0.45267	29
0.45633	28
0.46000	24
0.46367	22
0.46733	25
0.47100	27
0.47467	29
0.47833	31
0.48200	29
0.48567	31
0.48933	31
0.49300	31
0.49667	32
0.50033	31
0.50400	30
0.50767	30
0.51133	30
0.51500	28
0.51867	28
0.52233	30
0.52600	32
0.52967	32
0.53333	29
0.53700	28
0.54067	28
0.54433	27
0.54800	28
0.55167	28
0.55533	29
0.55900	30
0.56267	31
0.56633	31
0.57000	30
0.57367	30
0.57733	32
0.58100	32
0.58467	33
0.58833	32
0.59200	29
0.59567	28
0.59933	28
0.60300	28
0.60667	27
0.61033	28
0.61400	29
0.61767	32
0.62133	34
0.62500	35
0.62867	37
0.63233	38
0.63600	40
0.63967	41
0.64333	40
0.64700	39
0.65067	37
0.65433	35
0.65800	35
0.66167	34
0.66533	36
0.66900	38
0.67267	37
0.67633	35
0.68000	35
0.68367	37
0.68733	37
0.69100	38
0.69467	39
0.69833	41
0.70200	43
0.70567	43
0.70933	41
0.71300	41
0.71667	41
0.72033	42
0.72400	43
0.72767	44
0.73133	46
0.73500	46
0.73867	45
0.74233	43
0.74600	41
0.74967	39
0.75333	39
0.75700	39
0.76067	38
0.76433	38
0.76800	40
0.77167	42
0.77533	44
0.77900	45
0.78267	48
0.78633	48
0.79000	47
0.79367	45
0.79733	45
0.80100	47
0.80467	49
0.80833	50
0.81200	48
0.81567	48
0.81933	48
0.82300	47
0.82667	47
0.83033	49
0.83400	47
0.83767	44
0.84133	43
0.84500	44
0.84867	45
0.85233	47
0.85600	49
0.85967	50
0.86333	51
0.86700	52
0.87067	53
0.87433	50
0.87800	50
0.88167	50
0.88533	46
0.88900	42
0.89267	41
0.89633	43
0.90000	47
0.90367	47
0.90733	42
0.91100	41
0.91467	42
0.91833	43
0.92200	44
0.92567	47
0.92933	48
0.93300	48
0.93667	48
0.94033	47
0.94400	48
0.94767	48
0.95133	51
0.95500	54
0.95867	53
0.96233	51
0.96600	48
0.96967	47
0.97333	47
0.97700	46
0.98067	45
0.98433	46
0.98800	48
0.99167	48
0.99533	48
0.99900	49
1.00267	51
1.00633	51
1.01000	49
1.01367	47
1.01733	45
1.02100	44
1.02467	43
1.02833	44
1.03200	45
1.03567	47
1.03933	49
1.04300	48
1.04667	45
1.05033	42
1.05400	42
1.05767	45
1.06133	47
1.06500	48
1.06867	50
1.07233	49
1.07600	47
1.07967	45
1.08333	46
1.08700	44
1.09067	43
1.09433	43
1.09800	45
1.10167	45
1.10533	45
1.10900	48
1.11267	50
1.11633	49
1.12000	49
1.12367	49
1.12733	48
1.13100	48
1.13467	50
1.13833	51
1.14200	49
1.14567	49
1.14933	47
1.15300	46
1.15667	48
1.16033	50
1.16400	51
1.16767	52
1.17133	54
1.17500	53
1.17867	51
1.18233	50
1.18600	48
1.18967	45
1.19333	43
1.19700	42
1.20067	42
1.20433	46
1.20800	48
1.21167	47
1.21533	46
1.21900	45
1.22267	44
1.22633	45
1.23000	46
1.23367	48
1.23733	46
1.24100	46
1.24467	47
1.24833	47
1.25200	48
1.25567	47
1.25933	46
1.26300	44
1.26667	44
1.27033	43
1.27400	44
1.27767	46
1.28133	47
1.28500	46
1.28867	46
1.29233	46
1.29600	47
1.29967	45
1.30333	44
1.30700	45
1.31067	44
1.31433	44
1.31800	44
1.32167	44
1.32533	43
1.32900	45
1.33267	45
1.33633	45
1.34000	42
1.34367	43
1.34733	43
1.35100	43
1.35467	43
1.35833	42
1.36200	42
1.36567	43
1.36933	44
1.37300	42
1.37667	42
1.38033	41
1.38400	42
1.38767	41
1.39133	42
1.39500	44
1.39867	43
1.40233	41
1.40600	41
1.40967	41
1.41333	43
1.41700	43
1.42067	43
1.42433	43
1.42800	44
1.43167	43
1.43533	42
1.43900	42
1.44267	41
1.44633	41
1.45000	41
1.45367	39
1.45733	40
1.46100	42
1.46467	44
1.46833	46
1.47200	46
1.47567	44
1.47933	44
1.48300	46
1.48667	45
1.49033	44
1.49400	43
1.49767	42
1.50133	41
1.50500	41
1.50867	42
1.51233	42
1.51600	41
1.51967	42
1.52333	42
1.52700	41
1.53067	39
1.53433	37
1.53800	34
1.54167	32
1.54533	31
1.54900	31
1.55267	32
1.55633	36
1.56000	40
1.56367	43
1.56733	41
1.57100	39
1.57467	38
1.57833	38
1.58200	39
1.58567	43
1.58933	43
1.59300	42
1.59667	40
1.60033	40
1.60400	38
1.60767	38
1.61133	41
1.61500	43
1.61867	45
1.62233	43
1.62600	42
1.62967	42
1.63333	43
1.63700	47
1.64067	51
1.64433	49
1.64800	47
1.65167	46
1.65533	47
1.65900	46
1.66267	47
1.66633	50
1.67000	52
1.67367	54
1.67733	54
1.68100	55
1.68467	53
1.68833	51
1.69200	52
1.69567	52
1.69933	55
1.70300	59
1.70667	58
1.71033	55
1.71400	53
1.71767	53
1.72133	52
1.72500	54
1.72867	57
1.73233	60
1.73600	61
1.73967	60
1.74333	60
1.74700	61
1.75067	63
1.75433	62
1.75800	62
1.76167	64
1.76533	64
1.76900	63
1.77267	61
1.77633	62
1.78000	63
1.78367	65
1.78733	65
1.79100	66
1.79467	69
1.79833	71
1.80200	69
1.80567	67
1.80933	65
1.81300	65
1.81667	67
1.82033	70
1.82400	72
1.82767	73
1.83133	74
1.83500	75
1.83867	75
1.84233	75
1.84600	74
1.84967	72
1.85333	72
1.85700	70
1.86067	69
1.86433	71
1.86800	75
1.87167	79
1.87533	80
1.87900	80
1.88267	79
1.88633	78
1.89000	78
1.89367	77
1.89733	75
1.90100	75
1.90467	75
1.90833	76
1.91200	77
1.91567	76
1.91933	78
1.92300	77
1.92667	77
1.93033	77
1.93400	76
1.93767	76
1.94133	76
1.94500	76
1.94867	76
1.95233	77
1.95600	79
1.95967	81
1.96333	82
1.96700	81
1.97067	82
1.97433	84
1.97800	86
1.98167	88
1.98533	90
1.98900	91
1.99267	91
1.99633	92
2.00000	91
2.00367	89
2.00733	88
2.01100	90
2.01467	94
2.01833	98
2.02200	99
2.02567	98
2.02933	99
2.03300	100
2.03667	103
2.04033	106
2.04400	107
2.04767	107
2.05133	106
2.05500	108
2.05867	110
2.06233	110
2.06600	109
2.06967	110
2.07333	113
2.07700	115
2.08067	116
2.08433	115
2.08800	116
2.09167	116
2.09533	118
2.09900	120
2.10267	121
2.10633	122
2.11000	124
2.11367	124
2.11733	125
2.12100	125
2.12467	123
2.12833	121
2.13200	122
2.13567	122
2.13933	122
2.14300	121
2.14667	123
2.15033	124
2.15400	127
2.15767	131
2.16133	132
2.16500	133
2.16867	135
2.17233	136
2.17600	136
2.17967	138
2.18333	140
2.18700	139
2.19067	137
2.19433	137
2.19800	137
2.20167	140
2.20533	142
2.20900	144
2.21267	142
2.21633	140
2.22000	139
2.22367	141
2.22733	147
2.23100	152
2.23467	152
2.23833	151
2.24200	148
2.24567	146
2.24933	145
2.25300	145
2.25667	146
2.26033	149
2.26400	150
2.26767	152
2.27133	155
2.27500	156
2.27867	157
2.28233	158
2.28600	159
2.28967	162
2.29333	162
2.29700	162
2.30067	163
2.30433	164
2.30800	166
2.31167	168
2.31533	170
2.31900	169
2.32267	168
2.32633	171
2.33000	173
2.33367	175
2.33733	178
2.34100	182
2.34467	185
2.34833	185
2.35200	185
2.35567	185
2.35933	188
2.36300	188
2.36667	186
2.37033	186
2.37400	187
2.37767	187
2.38133	187
2.38500	187
2.38867	188
2.39233	189
2.39600	192
2.39967	195
2.40333	198
2.40700	198
2.41067	199
2.41433	200
2.41800	198
2.42167	196
2.42533	197
2.42900	200
2.43267	201
2.43633	202
2.44000	203
2.44367	218
2.44733	257
2.45100	300
2.45467	329
2.45833	334
2.46200	320
2.46567	304
2.46933	292
2.47300	284
2.47667	273
2.48033	258
2.48400	237
2.48767	215
2.49133	196
2.49500	180
2.49867	171
2.50233	166
2.50600	165
2.50967	165
2.51333	164
2.51700	167
2.52067	168
2.52433	166
2.52800	162
2.53167	159
2.53533	151
2.53900	139
2.54267	128
2.54633	119
2.55000	115
2.55367	109
2.55733	104
2.56100	99
2.56467	95
2.56833	90
2.57200	88
2.57567	89
2.57933	89
2.58300	88
2.58667	86
2.59033	83
2.59400	83
2.59767	84
2.60133	88
2.60500	89
2.60867	88
2.61233	84
2.61600	75
2.61967	60
2.62333	38
2.62700	13
2.63067	-11
2.63433	-38
2.63800	-64
2.64167	-86
2.64533	-104
2.64900	-119
2.65267	-131
2.65633	-141
2.66000	-147
2.66367	-150
2.66733	-152
2.67100	-152
2.67467	-162
2.67833	-182
2.68200	-191
2.68567	-183
2.68933	-151
2.69300	-105
2.69667	-59
2.70033	-16
2.70400	31
2.70767	81
2.71133	132
2.71500	182
2.71867	228
2.72233	273
2.72600	314
2.72967	353
2.73333	389
2.73700	418
2.74067	444
2.74433	469
2.74800	487
2.75167	503
2.75533	518
2.75900	528
2.76267	538
2.76633	551
2.77000	564
2.77367	575
2.77733	586
2.78100	595
2.78467	601
2.78833	606
2.79200	610
2.79567	615
2.79933	618
2.80300	619
2.80667	618
2.81033	617
2.81400	618
2.81767	618
2.82133	619
2.82500	620
2.82867	619
2.83233	620
2.83600	635
2.83967	676
2.84333	761
2.84700	913
2.85067	1154
2.85433	1501
2.85800	1953
2.86167	2496
2.86533	3100
2.86900	3716
2.87267	4295
2.87633	4788
2.88000	5157
2.88367	5382
2.88733	5457
2.89100	5395
2.89467	5215
2.89833	4947
2.90200	4626
2.90567	4273
2.90933	3910
2.91300	3554
2.91667	3212
2.92033	2891
2.92400	2597
2.92767	2334
2.93133	2100
2.93500	1891
2.93867	1705
2.94233	1540
2.94600	1396
2.94967	1269
2.95333	1163
2.95700	1071
2.96067	988
2.96433	918
2.96800	857
2.97167	803
2.97533	757
2.97900	715
2.98267	675
2.98633	644
2.99000	619
2.99367	596
2.99733	576
3.00100	558
3.00467	542
3.00833	529
3.01200	517
3.01567	506
3.01933	497
3.02300	489
3.02667	486
3.03033	483
3.03400	479
3.03767	472
3.04133	468
3.04500	466
3.04867	462
3.05233	458
3.05600	456
3.05967	454
3.06333	452
3.06700	449
3.07067	445
3.07433	444
3.07800	443
3.08167	442
3.08533	445
3.08900	445
3.09267	441
3.09633	440
3.10000	438
3.10367	433
3.10733	430
3.11100	428
3.11467	426
3.11833	423
3.12200	423
3.12567	421
3.12933	418
3.13300	415
3.13667	412
3.14033	410
3.14400	407
3.14767	403
3.15133	402
3.15500	399
3.15867	396
3.16233	394
3.16600	393
3.16967	391
3.17333	388
3.17700	385
3.18067	381
3.18433	378
3.18800	378
3.19167	376
3.19533	375
3.19900	372
3.20267	368
3.20633	365
3.21000	361
3.21367	360
3.21733	360
3.22100	360
3.22467	358
3.22833	357
3.23200	353
3.23567	350
3.23933	349
3.24300	349
3.24667	347
3.25033	346
3.25400	343
3.25767	341
3.26133	337
3.26500	335
3.26867	332
3.27233	329
3.27600	326
3.27967	324
3.28333	323
3.28700	323
3.29067	320
3.29433	317
3.29800	313
3.30167	309
3.30533	305
3.30900	303
3.31267	302
3.31633	302
3.32000	302
3.32367	302
3.32733	299
3.33100	296
3.33467	293
3.33833	290
3.34200	288
3.34567	286
3.34933	285
3.35300	284
3.35667	282
3.36033	279
3.36400	278
3.36767	276
3.37133	274
3.37500	271
3.37867	272
3.38233	273
3.38600	272
3.38967	272
3.39333	273
3.39700	274
3.40067	272
3.40433	268
3.40800	265
3.41167	263
3.41533	262
3.41900	258
3.42267	256
3.42633	254
3.43000	253
3.43367	253
3.43733	252
3.44100	251
3.44467	249
3.44833	247
3.45200	245
3.45567	242
3.45933	240
3.46300	240
3.46667	240
3.47033	240
3.47400	238
3.47767	239
3.48133	237
3.48500	235
3.48867	235
3.49233	236
3.49600	234
3.49967	232
3.50333	230
3.50700	228
3.51067	228
3.51433	230
3.51800	230
3.52167	229
3.52533	228
3.52900	228
3.53267	227
3.53633	227
3.54000	228
3.54367	229
3.54733	229
3.55100	228
3.55467	230
3.55833	228
3.56200	226
3.56567	226
3.56933	225
3.57300	223
3.57667	220
3.58033	218
3.58400	216
3.58767	215
3.59133	216
3.59500	218
3.59867	220
3.60233	222
3.60600	220
3.60967	218
3.61333	216
3.61700	213
3.62067	210
3.62433	208
3.62800	205
3.63167	205
3.63533	207
3.63900	208
3.64267	207
3.64633	208
3.65000	207
3.65367	206
3.65733	205
3.66100	202
3.66467	202
3.66833	200
3.67200	201
3.67567	200
3.67933	198
3.68300	198
3.68667	197
3.69033	194
3.69400	192
3.69767	191
3.70133	190
3.70500	188
3.70867	188
3.71233	188
3.71600	186
3.71967	184
3.72333	183
3.72700	183
3.73067	182
3.73433	183
3.73800	185
3.74167	185
3.74533	184
3.74900	183
3.75267	183
3.75633	184
3.76000	182
3.76367	180
3.76733	181
3.77100	181
3.77467	178
3.77833	174
3.78200	171
3.78567	168
3.78933	166
3.79300	167
3.79667	170
3.80033	175
3.80400	175
3.80767	173
3.81133	171
3.81500	171
3.81867	171
3.82233	171
3.82600	171
3.82967	170
3.83333	169
3.83700	168
3.84067	167
3.84433	167
3.84800	165
3.85167	164
3.85533	162
3.85900	160
3.86267	157
3.86633	155
3.87000	155
3.87367	157
3.87733	157
3.88100	158
3.88467	158
3.88833	158
3.89200	158
3.89567	157
3.89933	156
3.90300	155
3.90667	153
3.91033	153
3.91400	151
3.91767	150
3.92133	150
3.92500	149
3.92867	148
3.93233	149
3.93600	149
3.93967	147
3.94333	145
3.94700	143
3.95067	141
3.95433	138
3.95800	139
3.96167	144
3.96533	146
3.96900	145
3.97267	143
3.97633	144
3.98000	143
3.98367	142
3.98733	140
3.99100	137
3.99467	135
3.99833	133

[Status Trace (Column Oven Temperature)]
Interval(msec)	1000
# of Points	240
Start Time(min)	0.011
End Time(min)	3.994
Intensity Units	
Intensity Multiplier	1
R.Time (min)	Intensity
0.01098	35.04
0.02765	35.04
0.04432	35.04
0.06098	35.05
0.07765	35.04
0.09432	35.03
0.11098	35.03
0.12765	35.02
0.14432	35.03
0.16098	35.02
0.17765	35.02
0.19432	35.02
0.21098	35.01
0.22765	35.01
0.24432	35.00
0.26098	34.99
0.27765	34.99
0.29432	34.99
0.31098	34.99
0.32765	35.00
0.34432	35.00
0.36098	35.01
0.37765	35.01
0.39432	35.02
0.41098	35.01
0.42765	35.01
0.44432	35.00
0.46098	35.00
0.47765	35.00
0.49432	35.01
0.51098	35.00
0.52765	35.00
0.54432	35.00
0.56098	35.00
0.57765	34.99
0.59432	34.98
0.61098	34.98
0.62765	34.97
0.64432	34.97
0.66098	34.97
0.67765	34.98
0.69432	34.98
0.71098	34.99
0.72765	35.00
0.74432	35.01
0.76098	35.00
0.77765	34.99
0.79432	35.00
0.81098	34.99
0.82765	34.99
0.84432	34.99
0.86098	34.99
0.87765	34.99
0.89432	34.99
0.91098	34.99
0.92765	34.99
0.94432	35.00
0.96098	35.00
0.97765	35.00
0.99432	35.00
1.01098	35.01
1.02765	35.02
1.04432	35.02
1.06098	35.02
1.07765	35.02
1.09432	35.01
1.11098	35.01
1.12765	35.00
1.14432	34.99
1.16098	34.98
1.17765	34.98
1.19432	34.98
1.21098	34.98
1.22765	34.98
1.24432	34.99
1.26098	35.00
1.27765	35.00
1.29432	35.00
1.31098	35.01
1.32765	35.00
1.34432	35.00
1.36098	35.00
1.37765	35.01
1.39432	35.00
1.41098	35.00
1.42765	34.99
1.44432	34.99
1.46098	34.99
1.47765	34.99
1.49432	34.99
1.51098	34.99
1.52765	35.00
1.54432	35.00
1.56098	35.00
1.57765	35.01
1.59432	35.01
1.61098	35.08
1.62765	35.21
1.64432	35.40
1.66098	35.64
1.67765	35.99
1.69432	36.35
1.71098	36.70
1.72765	37.04
1.74432	37.37
1.76098	37.70
1.77765	38.04
1.79432	38.37
1.81098	38.71
1.82765	39.04
1.84432	39.37
1.86098	39.71
1.87765	40.02
1.89432	40.35
1.91098	40.67
1.92765	41.00
1.94432	41.33
1.96098	41.64
1.97765	41.97
1.99432	42.29
2.01098	42.62
2.02765	42.93
2.04432	43.28
2.06098	43.59
2.07765	43.92
2.09432	44.24
2.11098	44.57
2.12765	44.89
2.14432	45.21
2.16098	45.57
2.17765	45.89
2.19432	46.22
2.21098	46.54
2.22765	46.86
2.24432	47.19
2.26098	47.52
2.27765	47.89
2.29432	48.21
2.31098	48.52
2.32765	48.88
2.34432	49.19
2.36098	49.46
2.37765	49.62
2.39432	49.67
2.41098	49.67
2.42765	49.66
2.44432	49.67
2.46098	49.68
2.47765	49.69
2.49432	49.70
2.51098	49.72
2.52765	49.73
2.54432	49.75
2.56098	49.75
2.57765	49.77
2.59432	49.78
2.61098	49.81
2.62765	49.82
2.64432	49.82
2.66098	49.83
2.67765	49.84
2.69432	49.85
2.71098	49.85
2.72765	49.86
2.74432	49.84
2.76098	49.86
2.77765	49.87
2.79432	49.86
2.81098	49.86
2.82765	49.84
2.84432	49.87
2.86098	49.90
2.87765	49.91
2.89432	49.92
2.91098	49.93
2.92765	49.94
2.94432	49.95
2.96098	49.95
2.97765	49.96
2.99432	49.96
3.01098	49.96
3.02765	49.95
3.04432	49.96
3.06098	49.95
3.07765	49.96
3.09432	49.97
3.11098	49.98
3.12765	49.99
3.14432	50.00
3.16098	50.01
3.17765	50.02
3.19432	50.03
3.21098	50.04
3.22765	50.05
3.24432	50.06
3.26098	50.05
3.27765	50.06
3.29432	50.07
3.31098	50.08
3.32765	50.09
3.34432	50.10
3.36098	50.10
3.37765	50.10
3.39432	50.10
3.41098	50.09
3.42765	50.09
3.44432	50.08
3.46098	50.07
3.47765	50.06
3.49432	50.06
3.51098	50.05
3.52765	50.06
3.54432	50.06
3.56098	50.06
3.57765	50.06
3.59432	50.07
3.61098	50.06
3.62765	50.06
3.64432	50.06
3.66098	50.07
3.67765	50.07
3.69432	50.09
3.71098	50.09
3.72765	50.08
3.74432	50.08
3.76098	50.07
3.77765	50.08
3.79432	50.08
3.81098	50.08
3.82765	50.08
3.84432	50.08
3.86098	50.08
3.87765	50.07
3.89432	50.07
3.91098	50.08
3.92765	50.07
3.94432	50.07
3.96098	50.07
3.97765	50.07
3.99432	50.06

[Status Trace (Injection Unit Temperature)]
Interval(msec)	1000
# of Points	240
Start Time(min)	0.011
End Time(min)	3.994
Intensity Units	
Intensity Multiplier	1
R.Time (min)	Intensity
0.01098	99.98
0.02765	99.98
0.04432	99.98
0.06098	99.99
0.07765	99.98
0.09432	99.98
0.11098	99.98
0.12765	99.98
0.14432	99.98
0.16098	99.98
0.17765	99.98
0.19432	99.99
0.21098	99.99
0.22765	99.98
0.24432	99.98
0.26098	99.98
0.27765	99.98
0.29432	99.98
0.31098	99.98
0.32765	99.98
0.34432	99.99
0.36098	99.98
0.37765	99.99
0.39432	99.98
0.41098	99.98
0.42765	99.98
0.44432	99.98
0.46098	99.98
0.47765	99.98
0.49432	99.98
0.51098	99.98
0.52765	99.98
0.54432	99.98
0.56098	99.98
0.57765	99.98
0.59432	99.98
0.61098	99.98
0.62765	99.98
0.64432	99.98
0.66098	99.98
0.67765	99.98
0.69432	99.98
0.71098	99.98
0.72765	99.98
0.74432	99.98
0.76098	99.98
0.77765	99.98
0.79432	99.98
0.81098	99.98
0.82765	99.98
0.84432	99.98
0.86098	99.98
0.87765	99.98
0.89432	99.98
0.91098	99.98
0.92765	99.98
0.94432	99.98
0.96098	99.98
0.97765	99.98
0.99432	99.98
1.01098	99.98
1.02765	99.98
1.04432	99.98
1.06098	99.98
1.07765	99.98
1.09432	99.98
1.11098	99.98
1.12765	99.98
1.14432	99.98
1.16098	99.98
1.17765	99.98
1.19432	99.99
1.21098	99.98
1.22765	99.98
1.24432	99.98
1.26098	99.98
1.27765	99.99
1.29432	99.98
1.31098	99.98
1.32765	99.98
1.34432	99.98
1.36098	99.98
1.37765	99.98
1.39432	99.98
1.41098	99.98
1.42765	99.98
1.44432	99.98
1.46098	99.98
1.47765	99.98
1.49432	99.98
1.51098	99.98
1.52765	99.98
1.54432	99.98
1.56098	99.99
1.57765	99.99
1.59432	99.99
1.61098	99.98
1.62765	99.99
1.64432	99.99
1.66098	99.99
1.67765	99.99
1.69432	99.98
1.71098	99.99
1.72765	99.99
1.74432	99.98
1.76098	99.98
1.77765	99.99
1.79432	99.98
1.81098	99.98
1.82765	99.98
1.84432	99.98
1.86098	99.99
1.87765	99.98
1.89432	99.98
1.91098	99.98
1.92765	99.98
1.94432	99.98
1.96098	99.98
1.97765	99.98
1.99432	99.98
2.01098	99.98
2.02765	99.97
2.04432	99.97
2.06098	99.98
2.07765	99.98
2.09432	99.97
2.11098	99.98
2.12765	99.97
2.14432	99.97
2.16098	99.98
2.17765	99.97
2.19432	99.97
2.21098	99.97
2.22765	99.97
2.24432	99.98
2.26098	99.97
2.27765	99.97
2.29432	99.97
2.31098	99.97
2.32765	99.97
2.34432	99.98
2.36098	99.97
2.37765	99.97
2.39432	99.97
2.41098	99.97
2.42765	99.97
2.44432	99.97
2.46098	99.97
2.47765	99.97
2.49432	99.97
2.51098	99.97
2.52765	99.97
2.54432	99.97
2.56098	99.98
2.57765	99.98
2.59432	99.97
2.61098	99.98
2.62765	99.98
2.64432	99.97
2.66098	99.98
2.67765	99.98
2.69432	99.98
2.71098	99.98
2.72765	99.99
2.74432	99.99
2.76098	99.99
2.77765	99.99
2.79432	99.99
2.81098	99.99
2.82765	99.99
2.84432	99.99
2.86098	100.00
2.87765	100.00
2.89432	100.00
2.91098	100.00
2.92765	100.00
2.94432	100.00
2.96098	100.00
2.97765	100.01
2.99432	100.01
3.01098	100.01
3.02765	100.01
3.04432	100.01
3.06098	100.01
3.07765	100.02
3.09432	100.02
3.11098	100.02
3.12765	100.02
3.14432	100.02
3.16098	100.02
3.17765	100.02
3.19432	100.02
3.21098	100.02
3.22765	100.02
3.24432	100.02
3.26098	100.03
3.27765	100.03
3.29432	100.03
3.31098	100.03
3.32765	100.03
3.34432	100.03
3.36098	100.03
3.37765	100.03
3.39432	100.03
3.41098	100.04
3.42765	100.04
3.44432	100.04
3.46098	100.04
3.47765	100.04
3.49432	100.04
3.51098	100.05
3.52765	100.04
3.54432	100.04
3.56098	100.05
3.57765	100.05
3.59432	100.04
3.61098	100.05
3.62765	100.05
3.64432	100.05
3.66098	100.05
3.67765	100.05
3.69432	100.05
3.71098	100.05
3.72765	100.05
3.74432	100.05
3.76098	100.05
3.77765	100.05
3.79432	100.05
3.81098	100.05
3.82765	100.05
3.84432	100.05
3.86098	100.05
3.87765	100.05
3.89432	100.05
3.91098	100.05
3.92765	100.05
3.94432	100.05
3.96098	100.05
3.97765	100.05
3.99432	100.05

[Status Trace (Carrier Gas Pressure)]
Interval(msec)	1000
# of Points	240
Start Time(min)	0.011
End Time(min)	3.994
Intensity Units	
Intensity Multiplier	1
R.Time (min)	Intensity
0.01098	58.00
0.02765	54.99
0.04432	57.43
0.06098	59.52
0.07765	59.13
0.09432	58.02
0.11098	57.98
0.12765	58.01
0.14432	58.01
0.16098	58.01
0.17765	58.00
0.19432	58.00
0.21098	58.00
0.22765	58.00
0.24432	58.00
0.26098	58.00
0.27765	58.00
0.29432	58.00
0.31098	58.00
0.32765	58.00
0.34432	58.00
0.36098	58.00
0.37765	58.00
0.39432	58.00
0.41098	58.00
0.42765	58.00
0.44432	58.00
0.46098	58.00
0.47765	58.00
0.49432	58.00
0.51098	58.00
0.52765	58.00
0.54432	58.00
0.56098	58.00
0.57765	58.00
0.59432	58.00
0.61098	58.00
0.62765	58.00
0.64432	58.00
0.66098	58.00
0.67765	58.00
0.69432	58.00
0.71098	58.00
0.72765	58.00
0.74432	58.00
0.76098	58.00
0.77765	58.00
0.79432	58.00
0.81098	58.00
0.82765	58.00
0.84432	58.00
0.86098	58.00
0.87765	58.00
0.89432	58.00
0.91098	58.00
0.92765	58.00
0.94432	58.00
0.96098	58.00
0.97765	58.00
0.99432	58.00
1.01098	58.00
1.02765	58.00
1.04432	58.00
1.06098	58.00
1.07765	58.00
1.09432	58.00
1.11098	58.00
1.12765	58.00
1.14432	58.00
1.16098	58.00
1.17765	58.00
1.19432	58.00
1.21098	58.00
1.22765	58.00
1.24432	58.00
1.26098	58.00
1.27765	58.00
1.29432	58.00
1.31098	58.00
1.32765	58.00
1.34432	58.00
1.36098	58.00
1.37765	58.00
1.39432	58.00
1.41098	58.00
1.42765	58.00
1.44432	58.00
1.46098	58.00
1.47765	58.00
1.49432	58.00
1.51098	58.00
1.52765	58.00
1.54432	58.00
1.56098	58.00
1.57765	58.00
1.59432	58.00
1.61098	58.00
1.62765	58.00
1.64432	58.00
1.66098	58.00
1.67765	58.01
1.69432	58.00
1.71098	58.00
1.72765	58.00
1.74432	58.00
1.76098	58.00
1.77765	58.00
1.79432	58.00
1.81098	58.00
1.82765	58.00
1.84432	58.00
1.86098	58.00
1.87765	58.00
1.89432	58.00
1.91098	58.00
1.92765	58.00
1.94432	58.00
1.96098	58.00
1.97765	58.00
1.99432	58.00
2.01098	58.00
2.02765	58.00
2.04432	58.00
2.06098	58.00
2.07765	58.00
2.09432	58.00
2.11098	58.00
2.12765	58.00
2.14432	58.00
2.16098	58.00
2.17765	58.00
2.19432	58.00
2.21098	58.00
2.22765	58.00
2.24432	58.00
2.26098	58.00
2.27765	58.00
2.29432	58.00
2.31098	58.00
2.32765	58.00
2.34432	58.00
2.36098	58.00
2.37765	58.00
2.39432	57.99
2.41098	57.99
2.42765	58.00
2.44432	58.00
2.46098	58.00
2.47765	58.00
2.49432	58.00
2.51098	58.00
2.52765	57.99
2.54432	58.00
2.56098	58.00
2.57765	58.00
2.59432	58.00
2.61098	58.00
2.62765	58.00
2.64432	58.00
2.66098	58.00
2.67765	58.00
2.69432	58.00
2.71098	58.00
2.72765	58.00
2.74432	58.00
2.76098	58.00
2.77765	58.00
2.79432	58.00
2.81098	58.00
2.82765	58.00
2.84432	58.00
2.86098	58.00
2.87765	58.00
2.89432	58.00
2.91098	58.00
2.92765	58.00
2.94432	58.00
2.96098	58.00
2.97765	58.00
2.99432	58.00
3.01098	58.00
3.02765	58.00
3.04432	58.00
3.06098	58.00
3.07765	58.00
3.09432	58.00
3.11098	58.00
3.12765	58.00
3.14432	58.00
3.16098	58.00
3.17765	58.00
3.19432	58.00
3.21098	58.00
3.22765	58.00
3.24432	58.00
3.26098	58.00
3.27765	58.00
3.29432	58.00
3.31098	58.00
3.32765	58.00
3.34432	58.00
3.36098	58.00
3.37765	58.00
3.39432	58.00
3.41098	58.00
3.42765	58.00
3.44432	58.00
3.46098	58.00
3.47765	58.00
3.49432	58.00
3.51098	58.00
3.52765	58.00
3.54432	58.00
3.56098	58.00
3.57765	58.00
3.59432	58.00
3.61098	58.00
3.62765	58.00
3.64432	58.00
3.66098	58.00
3.67765	58.00
3.69432	58.00
3.71098	58.00
3.72765	58.00
3.74432	58.00
3.76098	58.00
3.77765	58.00
3.79432	58.00
3.81098	58.00
3.82765	58.00
3.84432	58.00
3.86098	58.00
3.87765	58.00
3.89432	58.00
3.91098	58.00
3.92765	58.00
3.94432	58.00
3.96098	58.00
3.97765	58.00
3.99432	58.00

[Status Trace (Carrier Gas Flow)]
Interval(msec)	1000
# of Points	240
Start Time(min)	0.011
End Time(min)	3.994
Intensity Units	
Intensity Multiplier	1
R.Time (min)	Intensity
0.01098	34.52
0.02765	34.52
0.04432	34.55
0.06098	34.54
0.07765	34.51
0.09432	34.52
0.11098	34.52
0.12765	34.52
0.14432	34.52
0.16098	34.52
0.17765	34.52
0.19432	34.52
0.21098	34.53
0.22765	34.52
0.24432	34.52
0.26098	34.52
0.27765	34.52
0.29432	34.52
0.31098	34.52
0.32765	34.52
0.34432	34.52
0.36098	34.52
0.37765	34.52
0.39432	34.52
0.41098	34.52
0.42765	34.52
0.44432	34.52
0.46098	34.52
0.47765	34.52
0.49432	34.52
0.51098	34.52
0.52765	34.52
0.54432	34.52
0.56098	34.52
0.57765	34.52
0.59432	34.52
0.61098	34.52
0.62765	34.52
0.64432	34.52
0.66098	34.52
0.67765	34.52
0.69432	34.52
0.71098	34.52
0.72765	34.52
0.74432	34.52
0.76098	34.52
0.77765	34.52
0.79432	34.52
0.81098	34.52
0.82765	34.52
0.84432	34.52
0.86098	34.52
0.87765	34.52
0.89432	34.52
0.91098	34.52
0.92765	34.52
0.94432	34.52
0.96098	34.52
0.97765	34.52
0.99432	34.52
1.01098	34.52
1.02765	34.52
1.04432	34.52
1.06098	34.52
1.07765	34.52
1.09432	34.52
1.11098	34.52
1.12765	34.52
1.14432	34.52
1.16098	34.52
1.17765	34.52
1.19432	34.52
1.21098	34.52
1.22765	34.52
1.24432	34.52
1.26098	34.52
1.27765	34.52
1.29432	34.52
1.31098	34.52
1.32765	34.52
1.34432	34.52
1.36098	34.52
1.37765	34.52
1.39432	34.52
1.41098	34.52
1.42765	34.52
1.44432	34.52
1.46098	34.52
1.47765	34.52
1.49432	34.52
1.51098	34.52
1.52765	34.52
1.54432	34.52
1.56098	34.52
1.57765	34.52
1.59432	34.52
1.61098	34.52
1.62765	34.52
1.64432	34.52
1.66098	34.52
1.67765	34.52
1.69432	34.52
1.71098	34.52
1.72765	34.52
1.74432	34.52
1.76098	34.52
1.77765	34.52
1.79432	34.52
1.81098	34.52
1.82765	34.52
1.84432	34.52
1.86098	34.52
1.87765	34.52
1.89432	34.52
1.91098	34.52
1.92765	34.52
1.94432	34.52
1.96098	34.52
1.97765	34.52
1.99432	34.52
2.01098	34.52
2.02765	34.52
2.04432	34.52
2.06098	34.52
2.07765	34.52
2.09432	34.52
2.11098	34.52
2.12765	34.52
2.14432	34.52
2.16098	34.52
2.17765	34.52
2.19432	34.52
2.21098	34.52
2.22765	34.52
2.24432	34.52
2.26098	34.52
2.27765	34.52
2.29432	34.52
2.31098	34.52
2.32765	34.52
2.34432	34.52
2.36098	34.52
2.37765	34.52
2.39432	34.52
2.41098	34.52
2.42765	34.52
2.44432	34.52
2.46098	34.52
2.47765	34.52
2.49432	34.52
2.51098	34.52
2.52765	34.52
2.54432	34.52
2.56098	34.52
2.57765	34.52
2.59432	34.52
2.61098	34.52
2.62765	34.52
2.64432	34.52
2.66098	34.52
2.67765	34.52
2.69432	34.52
2.71098	34.52
2.72765	34.52
2.74432	34.52
2.76098	34.52
2.77765	34.52
2.79432	34.52
2.81098	34.52
2.82765	34.52
2.84432	34.52
2.86098	34.52
2.87765	34.52
2.89432	34.52
2.91098	34.52
2.92765	34.52
2.94432	34.52
2.96098	34.52
2.97765	34.52
2.99432	34.52
3.01098	34.52
3.02765	34.52
3.04432	34.52
3.06098	34.52
3.07765	34.52
3.09432	34.52
3.11098	34.52
3.12765	34.52
3.14432	34.52
3.16098	34.52
3.17765	34.52
3.19432	34.52
3.21098	34.52
3.22765	34.52
3.24432	34.52
3.26098	34.52
3.27765	34.52
3.29432	34.52
3.31098	34.52
3.32765	34.52
3.34432	34.52
3.36098	34.52
3.37765	34.52
3.39432	34.52
3.41098	34.52
3.42765	34.52
3.44432	34.52
3.46098	34.52
3.47765	34.52
3.49432	34.52
3.51098	34.52
3.52765	34.52
3.54432	34.52
3.56098	34.52
3.57765	34.50
3.59432	34.52
3.61098	34.52
3.62765	34.52
3.64432	34.52
3.66098	34.52
3.67765	34.52
3.69432	34.52
3.71098	34.52
3.72765	34.52
3.74432	34.52
3.76098	34.52
3.77765	34.52
3.79432	34.52
3.81098	34.52
3.82765	34.52
3.84432	34.52
3.86098	34.52
3.87765	34.52
3.89432	34.52
3.91098	34.52
3.92765	34.52
3.94432	34.52
3.96098	34.52
3.97765	34.52
3.99432	34.52

[Status Trace (Column Flow)]
Interval(msec)	1000
# of Points	240
Start Time(min)	0.011
End Time(min)	3.994
Intensity Units	
Intensity Multiplier	1
R.Time (min)	Intensity
0.01098	5.49
0.02765	5.15
0.04432	5.43
0.06098	5.67
0.07765	5.62
0.09432	5.50
0.11098	5.49
0.12765	5.50
0.14432	5.49
0.16098	5.49
0.17765	5.49
0.19432	5.49
0.21098	5.49
0.22765	5.49
0.24432	5.49
0.26098	5.49
0.27765	5.49
0.29432	5.49
0.31098	5.50
0.32765	5.49
0.34432	5.49
0.36098	5.49
0.37765	5.49
0.39432	5.49
0.41098	5.49
0.42765	5.49
0.44432	5.49
0.46098	5.49
0.47765	5.49
0.49432	5.49
0.51098	5.49
0.52765	5.49
0.54432	5.49
0.56098	5.49
0.57765	5.50
0.59432	5.50
0.61098	5.50
0.62765	5.50
0.64432	5.50
0.66098	5.50
0.67765	5.50
0.69432	5.50
0.71098	5.49
0.72765	5.49
0.74432	5.49
0.76098	5.49
0.77765	5.49
0.79432	5.49
0.81098	5.50
0.82765	5.49
0.84432	5.50
0.86098	5.50
0.87765	5.49
0.89432	5.49
0.91098	5.49
0.92765	5.49
0.94432	5.49
0.96098	5.49
0.97765	5.49
0.99432	5.49
1.01098	5.49
1.02765	5.49
1.04432	5.49
1.06098	5.49
1.07765	5.49
1.09432	5.49
1.11098	5.49
1.12765	5.49
1.14432	5.50
1.16098	5.50
1.17765	5.50
1.19432	5.50
1.21098	5.50
1.22765	5.50
1.24432	5.50
1.26098	5.50
1.27765	5.49
1.29432	5.49
1.31098	5.49
1.32765	5.49
1.34432	5.49
1.36098	5.49
1.37765	5.49
1.39432	5.49
1.41098	5.49
1.42765	5.50
1.44432	5.50
1.46098	5.50
1.47765	5.50
1.49432	5.50
1.51098	5.49
1.52765	5.49
1.54432	5.49
1.56098	5.49
1.57765	5.49
1.59432	5.49
1.61098	5.49
1.62765	5.49
1.64432	5.48
1.66098	5.48
1.67765	5.46
1.69432	5.45
1.71098	5.44
1.72765	5.43
1.74432	5.42
1.76098	5.41
1.77765	5.40
1.79432	5.39
1.81098	5.38
1.82765	5.37
1.84432	5.36
1.86098	5.35
1.87765	5.34
1.89432	5.33
1.91098	5.32
1.92765	5.31
1.94432	5.30
1.96098	5.29
1.97765	5.28
1.99432	5.27
2.01098	5.26
2.02765	5.25
2.04432	5.24
2.06098	5.24
2.07765	5.23
2.09432	5.22
2.11098	5.21
2.12765	5.20
2.14432	5.19
2.16098	5.18
2.17765	5.17
2.19432	5.16
2.21098	5.15
2.22765	5.14
2.24432	5.13
2.26098	5.12
2.27765	5.11
2.29432	5.10
2.31098	5.09
2.32765	5.08
2.34432	5.08
2.36098	5.07
2.37765	5.06
2.39432	5.06
2.41098	5.06
2.42765	5.06
2.44432	5.06
2.46098	5.06
2.47765	5.06
2.49432	5.06
2.51098	5.06
2.52765	5.06
2.54432	5.06
2.56098	5.06
2.57765	5.06
2.59432	5.06
2.61098	5.06
2.62765	5.06
2.64432	5.06
2.66098	5.06
2.67765	5.06
2.69432	5.06
2.71098	5.06
2.72765	5.06
2.74432	5.06
2.76098	5.06
2.77765	5.06
2.79432	5.06
2.81098	5.06
2.82765	5.06
2.84432	5.06
2.86098	5.06
2.87765	5.06
2.89432	5.06
2.91098	5.06
2.92765	5.06
2.94432	5.06
2.96098	5.06
2.97765	5.05
2.99432	5.05
3.01098	5.06
3.02765	5.05
3.04432	5.05
3.06098	5.06
3.07765	5.05
3.09432	5.05
3.11098	5.05
3.12765	5.05
3.14432	5.05
3.16098	5.05
3.17765	5.05
3.19432	5.05
3.21098	5.05
3.22765	5.05
3.24432	5.05
3.26098	5.05
3.27765	5.05
3.29432	5.05
3.31098	5.05
3.32765	5.05
3.34432	5.05
3.36098	5.05
3.37765	5.05
3.39432	5.05
3.41098	5.05
3.42765	5.05
3.44432	5.05
3.46098	5.05
3.47765	5.05
3.49432	5.05
3.51098	5.05
3.52765	5.05
3.54432	5.05
3.56098	5.05
3.57765	5.05
3.59432	5.05
3.61098	5.05
3.62765	5.05
3.64432	5.05
3.66098	5.05
3.67765	5.05
3.69432	5.05
3.71098	5.05
3.72765	5.05
3.74432	5.05
3.76098	5.05
3.77765	5.05
3.79432	5.05
3.81098	5.05
3.82765	5.05
3.84432	5.05
3.86098	5.05
3.87765	5.05
3.89432	5.05
3.91098	5.05
3.92765	5.05
3.94432	5.05
3.96098	5.05
3.97765	5.05
3.99432	5.05

[Status Trace (Linear Velocity)]
Interval(msec)	1000
# of Points	240
Start Time(min)	0.011
End Time(min)	3.994
Intensity Units	
Intensity Multiplier	1
R.Time (min)	Intensity
0.01098	39.01
0.02765	37.03
0.04432	38.64
0.06098	40.00
0.07765	39.74
0.09432	39.02
0.11098	39.00
0.12765	39.02
0.14432	39.01
0.16098	39.01
0.17765	39.01
0.19432	39.01
0.21098	39.01
0.22765	39.01
0.24432	39.01
0.26098	39.01
0.27765	39.01
0.29432	39.01
0.31098	39.01
0.32765	39.01
0.34432	39.01
0.36098	39.01
0.37765	39.01
0.39432	39.01
0.41098	39.01
0.42765	39.01
0.44432	39.01
0.46098	39.01
0.47765	39.01
0.49432	39.01
0.51098	39.01
0.52765	39.01
0.54432	39.01
0.56098	39.01
0.57765	39.01
0.59432	39.01
0.61098	39.01
0.62765	39.01
0.64432	39.01
0.66098	39.01
0.67765	39.01
0.69432	39.01
0.71098	39.01
0.72765	39.01
0.74432	39.01
0.76098	39.01
0.77765	39.01
0.79432	39.01
0.81098	39.01
0.82765	39.01
0.84432	39.01
0.86098	39.01
0.87765	39.01
0.89432	39.01
0.91098	39.01
0.92765	39.01
0.94432	39.01
0.96098	39.01
0.97765	39.01
0.99432	39.01
1.01098	39.01
1.02765	39.01
1.04432	39.01
1.06098	39.01
1.07765	39.01
1.09432	39.01
1.11098	39.01
1.12765	39.01
1.14432	39.01
1.16098	39.01
1.17765	39.01
1.19432	39.01
1.21098	39.01
1.22765	39.01
1.24432	39.01
1.26098	39.01
1.27765	39.01
1.29432	39.01
1.31098	39.01
1.32765	39.01
1.34432	39.01
1.36098	39.01
1.37765	39.01
1.39432	39.01
1.41098	39.01
1.42765	39.01
1.44432	39.01
1.46098	39.01
1.47765	39.01
1.49432	39.01
1.51098	39.01
1.52765	39.01
1.54432	39.01
1.56098	39.01
1.57765	39.01
1.59432	39.01
1.61098	39.00
1.62765	38.99
1.64432	38.98
1.66098	38.95
1.67765	38.92
1.69432	38.88
1.71098	38.85
1.72765	38.82
1.74432	38.78
1.76098	38.75
1.77765	38.72
1.79432	38.69
1.81098	38.66
1.82765	38.63
1.84432	38.59
1.86098	38.56
1.87765	38.53
1.89432	38.50
1.91098	38.47
1.92765	38.44
1.94432	38.41
1.96098	38.38
1.97765	38.35
1.99432	38.32
2.01098	38.29
2.02765	38.26
2.04432	38.23
2.06098	38.20
2.07765	38.17
2.09432	38.14
2.11098	38.11
2.12765	38.08
2.14432	38.06
2.16098	38.02
2.17765	37.99
2.19432	37.96
2.21098	37.94
2.22765	37.91
2.24432	37.88
2.26098	37.85
2.27765	37.81
2.29432	37.78
2.31098	37.76
2.32765	37.73
2.34432	37.70
2.36098	37.67
2.37765	37.66
2.39432	37.65
2.41098	37.65
2.42765	37.66
2.44432	37.66
2.46098	37.65
2.47765	37.65
2.49432	37.65
2.51098	37.65
2.52765	37.64
2.54432	37.65
2.56098	37.65
2.57765	37.65
2.59432	37.65
2.61098	37.64
2.62765	37.64
2.64432	37.64
2.66098	37.64
2.67765	37.64
2.69432	37.64
2.71098	37.64
2.72765	37.64
2.74432	37.64
2.76098	37.64
2.77765	37.64
2.79432	37.64
2.81098	37.64
2.82765	37.64
2.84432	37.64
2.86098	37.64
2.87765	37.63
2.89432	37.63
2.91098	37.63
2.92765	37.63
2.94432	37.63
2.96098	37.63
2.97765	37.63
2.99432	37.63
3.01098	37.63
3.02765	37.63
3.04432	37.63
3.06098	37.63
3.07765	37.63
3.09432	37.63
3.11098	37.63
3.12765	37.63
3.14432	37.63
3.16098	37.63
3.17765	37.62
3.19432	37.62
3.21098	37.62
3.22765	37.62
3.24432	37.62
3.26098	37.62
3.27765	37.62
3.29432	37.62
3.31098	37.62
3.32765	37.62
3.34432	37.62
3.36098	37.62
3.37765	37.62
3.39432	37.62
3.41098	37.62
3.42765	37.62
3.44432	37.62
3.46098	37.62
3.47765	37.62
3.49432	37.62
3.51098	37.62
3.52765	37.62
3.54432	37.62
3.56098	37.62
3.57765	37.62
3.59432	37.62
3.61098	37.62
3.62765	37.62
3.64432	37.62
3.66098	37.62
3.67765	37.62
3.69432	37.62
3.71098	37.62
3.72765	37.62
3.74432	37.62
3.76098	37.62
3.77765	37.62
3.79432	37.62
3.81098	37.62
3.82765	37.62
3.84432	37.62
3.86098	37.62
3.87765	37.62
3.89432	37.62
3.91098	37.62
3.92765	37.62
3.94432	37.62
3.96098	37.62
3.97765	37.62
3.99432	37.62

