[Header]
Application Name	LabSolutions
Version	5.110
Data File Name	C:\Users\User\Desktop\GC Analyses\Jack\UIC Prairie Sampling\9.16.22\220916_063.gcd
Output Date	11/29/2022
Output Time	11:10:19 AM

[File Information]
Type	Data File
Generated	11/15/2022 2:19:36 PM
Generated by	System Administrator
Modified	11/15/2022 2:23:55 PM
Modified by	System Administrator

[Sample Information]
Operator Name	System Administrator
Acquired	11/15/2022 2:19:54 PM
Sample Type	1:Standard
Level	1
Sample Name	220916_UICPrairie
Sample ID	220916_UICPrairie
ISTD Amount1	1
ISTD Amount2	1
ISTD Amount3	1
ISTD Amount4	1
ISTD Amount5	1
ISTD Amount6	1
ISTD Amount7	1
ISTD Amount8	1
ISTD Amount9	1
ISTD Amount10	1
ISTD Amount11	1
ISTD Amount12	1
ISTD Amount13	1
ISTD Amount14	1
ISTD Amount15	1
ISTD Amount16	1
ISTD Amount17	1
ISTD Amount18	1
ISTD Amount19	1
ISTD Amount20	1
ISTD Amount21	1
ISTD Amount22	1
ISTD Amount23	1
ISTD Amount24	1
ISTD Amount25	1
ISTD Amount26	1
ISTD Amount27	1
ISTD Amount28	1
ISTD Amount29	1
ISTD Amount30	1
ISTD Amount31	1
ISTD Amount32	1
Sample Amount	1
Dilution Factor	1
Vial#	1
Injection Volume	1
Injection Count	1
Bar Code	

[Original Files]
Data File	C:\Users\User\Desktop\GC Analyses\Jack\UIC Prairie Sampling\9.16.22\220916_063.gcd
Method File	C:\LabSolutions\Data\GHG_4min_2022\ghg3_togas_w_acet_4 min_new_int.gcm
Batch File	
Report Format File	c:\LabSolutions\System\DEFAULT.lsr

[File Description]


[Configuration]
Instrument Name	C0B7VH3-Instrument1
Instrument #	1
Line #	1
# of Detectors	3
Detector ID	DET#1	DET#2	DET#3
Detector Name	FID	PTCD	ECD
# of Channels	1	1	1

[Peak Table(Ch1)]
# of Peaks	3
Peak#	R.Time	I.Time	F.Time	Area	Height	A/H	Conc.	Mark	ID#	Name	k'	Plate #	Plate Ht.	Tailing	Resolution	Sep.Factor	Area Ratio	Height Ratio	Conc. %	Norm Conc.
1	1.483	1.454	1.549	5797	3238	1.791	100.000	   	1	CO	0.000	12606	11.899	1.329	0.000	0.000	0	0	16.667	16.667
2	1.575	1.549	1.630	2108	1365	1.544	100.000	 V 	2	CH4	0.062	18127	8.275	1.417	1.840	0.000	0	0	16.667	16.667
3	2.007	1.963	2.264	523058	299420	1.747	400.000	   	3	CO2	0.354	24787	6.052	1.231	8.849	5.720	0	0	66.667	66.667

[Peak Table(Ch2)]
# of Peaks	0

[Peak Table(Ch3)]
# of Peaks	2
Peak#	R.Time	I.Time	F.Time	Area	Height	A/H	Conc.	Mark	ID#	Name	k'	Plate #	Plate Ht.	Tailing	Resolution	Sep.Factor	Area Ratio	Height Ratio	Conc. %	Norm Conc.
1	2.458	2.330	2.499	378	132	2.861	0.000	   			0.000	24714	6.069	0.655	0.000	0.000	0	0	0.000	0.000
2	2.891	2.631	3.965	35479	2964	11.971	1.000	   	1	N2O	0.176	10532	14.243	2.058	4.938	0.000	0	0	100.000	100.000

[Compound Results(Ch1)]
# of IDs	6
ID#	Name	R.Time	Area	Height	Conc.	Curve	3rd	2nd	1st	Constant	Area Ratio	Height Ratio	Conc. %	Norm Conc.
1	CO	1.483	5797	3238	100.000	Linear	0.000000e+00	0.000000e+00	5.796781e+001	0.000000e+00	0	0	16.667	16.667
2	CH4	1.575	2108	1365	100.000	Linear	0.000000e+00	0.000000e+00	2.107900e+001	0.000000e+00	0	0	16.667	16.667
3	CO2	2.007	523058	299420	400.000	Linear	0.000000e+00	0.000000e+00	1.307644e+003	0.000000e+00	0	0	66.667	66.667
4	Ethylene	0.000	0	0	0.000	Linear	0.000000e+00	0.000000e+00	0.000000e+00	0.000000e+00	0	0	0.000	0.000
5	Acetylene	0.000	0	0	0.000	Linear	0.000000e+00	0.000000e+00	0.000000e+00	0.000000e+00	0	0	0.000	0.000
6	Ethane	0.000	0	0	0.000	Linear	0.000000e+00	0.000000e+00	0.000000e+00	0.000000e+00	0	0	0.000	0.000

[Compound Results(Ch2)]
# of IDs	5
ID#	Name	R.Time	Area	Height	Conc.	Curve	3rd	2nd	1st	Constant	Area Ratio	Height Ratio	Conc. %	Norm Conc.
1	Hydrogen	0.000	0	0	0.000	Linear	0.000000e+00	0.000000e+00	0.000000e+00	0.000000e+00	0	0	0.000	0.000
2	Oxygen	0.000	0	0	0.000	Linear	0.000000e+00	0.000000e+00	0.000000e+00	0.000000e+00	0	0	0.000	0.000
3	Nitrogen	0.000	0	0	0.000	Linear	0.000000e+00	0.000000e+00	0.000000e+00	0.000000e+00	0	0	0.000	0.000
4	Methane	0.000	0	0	0.000	Linear	0.000000e+00	0.000000e+00	0.000000e+00	0.000000e+00	0	0	0.000	0.000
5	Carbon Monoxide	0.000	0	0	0.000	Linear	0.000000e+00	0.000000e+00	0.000000e+00	0.000000e+00	0	0	0.000	0.000

[Compound Results(Ch3)]
# of IDs	2
ID#	Name	R.Time	Area	Height	Conc.	Curve	3rd	2nd	1st	Constant	Area Ratio	Height Ratio	Conc. %	Norm Conc.
1	N2O	2.891	35479	2964	1.000	Linear	0.000000e+00	0.000000e+00	3.547919e+004	0.000000e+00	0	0	100.000	100.000
2	SF6	0.000	0	0	0.000	Linear	0.000000e+00	0.000000e+00	0.000000e+00	0.000000e+00	0	0	0.000	0.000

[Group Results(Ch1)]
# of Groups	0

[Group Results(Ch2)]
# of Groups	0

[Group Results(Ch3)]
# of Groups	0

[Chromatogram (Ch1)]
Interval(msec)	220
# of Points	1091
Start Time(min)	0.002
End Time(min)	3.998
R.Time (min)	Intensity
0.00167	0
0.00533	1
0.00900	-2
0.01267	-6
0.01633	-6
0.02000	-2
0.02367	2
0.02733	4
0.03100	7
0.03467	12
0.03833	21
0.04200	27
0.04567	26
0.04933	21
0.05300	16
0.05667	12
0.06033	10
0.06400	10
0.06767	11
0.07133	9
0.07500	2
0.07867	-3
0.08233	-6
0.08600	-6
0.08967	-4
0.09333	-4
0.09700	-5
0.10067	-3
0.10433	3
0.10800	11
0.11167	17
0.11533	16
0.11900	10
0.12267	7
0.12633	7
0.13000	9
0.13367	13
0.13733	16
0.14100	13
0.14467	10
0.14833	9
0.15200	6
0.15567	-1
0.15933	-7
0.16300	-10
0.16667	-7
0.17033	-2
0.17400	0
0.17767	2
0.18133	4
0.18500	0
0.18867	-6
0.19233	-13
0.19600	-20
0.19967	-26
0.20333	-28
0.20700	-28
0.21067	-26
0.21433	-23
0.21800	-22
0.22167	-20
0.22533	-17
0.22900	-14
0.23267	-10
0.23633	-5
0.24000	-1
0.24367	-1
0.24733	-5
0.25100	-5
0.25467	-4
0.25833	-6
0.26200	-8
0.26567	-7
0.26933	-6
0.27300	-3
0.27667	-3
0.28033	-2
0.28400	-1
0.28767	0
0.29133	-3
0.29500	-10
0.29867	-17
0.30233	-20
0.30600	-23
0.30967	-23
0.31333	-22
0.31700	-18
0.32067	-12
0.32433	-9
0.32800	-10
0.33167	-13
0.33533	-17
0.33900	-20
0.34267	-20
0.34633	-20
0.35000	-19
0.35367	-19
0.35733	-17
0.36100	-12
0.36467	-5
0.36833	2
0.37200	3
0.37567	-5
0.37933	-17
0.38300	-27
0.38667	-34
0.39033	-36
0.39400	-32
0.39767	-27
0.40133	-26
0.40500	-29
0.40867	-35
0.41233	-38
0.41600	-33
0.41967	-24
0.42333	-16
0.42700	-17
0.43067	-24
0.43433	-32
0.43800	-35
0.44167	-35
0.44533	-32
0.44900	-30
0.45267	-30
0.45633	-28
0.46000	-24
0.46367	-21
0.46733	-20
0.47100	-23
0.47467	-23
0.47833	-21
0.48200	-23
0.48567	-25
0.48933	-26
0.49300	-25
0.49667	-24
0.50033	-22
0.50400	-16
0.50767	-10
0.51133	-9
0.51500	-11
0.51867	-14
0.52233	-16
0.52600	-17
0.52967	-20
0.53333	-25
0.53700	-25
0.54067	-21
0.54433	-15
0.54800	-10
0.55167	-13
0.55533	-20
0.55900	-26
0.56267	-29
0.56633	-26
0.57000	-23
0.57367	-20
0.57733	-16
0.58100	-14
0.58467	-15
0.58833	-20
0.59200	-27
0.59567	-32
0.59933	-33
0.60300	-32
0.60667	-29
0.61033	-27
0.61400	-29
0.61767	-34
0.62133	-37
0.62500	-38
0.62867	-37
0.63233	-36
0.63600	-35
0.63967	-34
0.64333	-33
0.64700	-29
0.65067	-24
0.65433	-21
0.65800	-21
0.66167	-26
0.66533	-28
0.66900	-27
0.67267	-26
0.67633	-24
0.68000	-24
0.68367	-23
0.68733	-24
0.69100	-26
0.69467	-29
0.69833	-31
0.70200	-34
0.70567	-36
0.70933	-34
0.71300	-28
0.71667	-23
0.72033	-21
0.72400	-25
0.72767	-28
0.73133	-30
0.73500	-34
0.73867	-42
0.74233	-48
0.74600	-46
0.74967	-37
0.75333	-27
0.75700	-17
0.76067	-14
0.76433	-18
0.76800	-24
0.77167	-29
0.77533	-34
0.77900	-37
0.78267	-35
0.78633	-30
0.79000	-24
0.79367	-20
0.79733	-16
0.80100	-9
0.80467	-4
0.80833	-4
0.81200	-10
0.81567	-20
0.81933	-29
0.82300	-35
0.82667	-39
0.83033	-40
0.83400	-41
0.83767	-42
0.84133	-44
0.84500	-43
0.84867	-42
0.85233	-42
0.85600	-45
0.85967	-49
0.86333	-49
0.86700	-46
0.87067	-41
0.87433	-36
0.87800	-33
0.88167	-27
0.88533	-22
0.88900	-19
0.89267	-18
0.89633	-18
0.90000	-19
0.90367	-19
0.90733	-20
0.91100	-24
0.91467	-31
0.91833	-36
0.92200	-39
0.92567	-39
0.92933	-36
0.93300	-32
0.93667	-32
0.94033	-34
0.94400	-39
0.94767	-46
0.95133	-52
0.95500	-54
0.95867	-51
0.96233	-47
0.96600	-43
0.96967	-41
0.97333	-42
0.97700	-44
0.98067	-47
0.98433	-53
0.98800	-61
0.99167	-68
0.99533	-71
0.99900	-67
1.00267	-59
1.00633	-49
1.01000	-41
1.01367	-38
1.01733	-42
1.02100	-48
1.02467	-54
1.02833	-56
1.03200	-53
1.03567	-46
1.03933	-39
1.04300	-34
1.04667	-29
1.05033	-26
1.05400	-26
1.05767	-26
1.06133	-28
1.06500	-33
1.06867	-38
1.07233	-41
1.07600	-46
1.07967	-50
1.08333	-51
1.08700	-47
1.09067	-43
1.09433	-41
1.09800	-46
1.10167	-53
1.10533	-60
1.10900	-62
1.11267	-63
1.11633	-61
1.12000	-60
1.12367	-59
1.12733	-57
1.13100	-55
1.13467	-52
1.13833	-46
1.14200	-39
1.14567	-37
1.14933	-37
1.15300	-35
1.15667	-33
1.16033	-30
1.16400	-24
1.16767	-21
1.17133	-24
1.17500	-32
1.17867	-41
1.18233	-49
1.18600	-53
1.18967	-54
1.19333	-53
1.19700	-52
1.20067	-54
1.20433	-53
1.20800	-52
1.21167	-53
1.21533	-58
1.21900	-65
1.22267	-69
1.22633	-70
1.23000	-68
1.23367	-68
1.23733	-69
1.24100	-69
1.24467	-70
1.24833	-70
1.25200	-67
1.25567	-61
1.25933	-56
1.26300	-54
1.26667	-54
1.27033	-54
1.27400	-52
1.27767	-47
1.28133	-42
1.28500	-39
1.28867	-35
1.29233	-32
1.29600	-29
1.29967	-27
1.30333	-29
1.30700	-35
1.31067	-39
1.31433	-44
1.31800	-51
1.32167	-61
1.32533	-70
1.32900	-73
1.33267	-71
1.33633	-65
1.34000	-60
1.34367	-59
1.34733	-61
1.35100	-63
1.35467	-66
1.35833	-70
1.36200	-75
1.36567	-77
1.36933	-77
1.37300	-75
1.37667	-73
1.38033	-70
1.38400	-68
1.38767	-67
1.39133	-67
1.39500	-66
1.39867	-63
1.40233	-60
1.40600	-57
1.40967	-56
1.41333	-60
1.41700	-62
1.42067	-62
1.42433	-59
1.42800	-56
1.43167	-56
1.43533	-57
1.43900	-61
1.44267	-67
1.44633	-72
1.45000	-74
1.45367	-60
1.45733	18
1.46100	210
1.46467	504
1.46833	909
1.47200	1486
1.47567	2192
1.47933	2830
1.48300	3176
1.48667	3132
1.49033	2769
1.49400	2242
1.49767	1700
1.50133	1233
1.50500	866
1.50867	595
1.51233	397
1.51600	256
1.51967	158
1.52333	92
1.52700	48
1.53067	20
1.53433	3
1.53800	-7
1.54167	-14
1.54533	-22
1.54900	-29
1.55267	-30
1.55633	10
1.56000	146
1.56367	417
1.56733	783
1.57100	1121
1.57467	1302
1.57833	1278
1.58200	1098
1.58567	849
1.58933	602
1.59300	396
1.59667	241
1.60033	136
1.60400	65
1.60767	17
1.61133	-16
1.61500	-35
1.61867	-45
1.62233	-53
1.62600	-60
1.62967	-65
1.63333	-67
1.63700	-69
1.64067	-71
1.64433	-72
1.64800	-71
1.65167	-68
1.65533	-67
1.65900	-67
1.66267	-69
1.66633	-75
1.67000	-82
1.67367	-89
1.67733	-94
1.68100	-95
1.68467	-92
1.68833	-86
1.69200	-78
1.69567	-73
1.69933	-71
1.70300	-68
1.70667	-65
1.71033	-64
1.71400	-62
1.71767	-61
1.72133	-62
1.72500	-66
1.72867	-73
1.73233	-81
1.73600	-86
1.73967	-87
1.74333	-82
1.74700	-72
1.75067	-64
1.75433	-60
1.75800	-61
1.76167	-63
1.76533	-66
1.76900	-70
1.77267	-76
1.77633	-81
1.78000	-84
1.78367	-84
1.78733	-82
1.79100	-81
1.79467	-79
1.79833	-78
1.80200	-79
1.80567	-80
1.80933	-76
1.81300	-67
1.81667	-57
1.82033	-50
1.82400	-53
1.82767	-64
1.83133	-76
1.83500	-86
1.83867	-92
1.84233	-91
1.84600	-87
1.84967	-84
1.85333	-81
1.85700	-80
1.86067	-79
1.86433	-79
1.86800	-80
1.87167	-82
1.87533	-84
1.87900	-82
1.88267	-76
1.88633	-64
1.89000	-52
1.89367	-46
1.89733	-45
1.90100	-47
1.90467	-50
1.90833	-52
1.91200	-54
1.91567	-56
1.91933	-60
1.92300	-67
1.92667	-72
1.93033	-75
1.93400	-79
1.93767	-82
1.94133	-84
1.94500	-81
1.94867	-74
1.95233	-69
1.95600	-66
1.95967	-62
1.96333	-54
1.96700	-29
1.97067	65
1.97433	512
1.97800	2440
1.98167	9069
1.98533	26707
1.98900	63140
1.99267	121259
1.99633	192371
2.00000	257189
2.00367	296001
2.00733	299391
2.01100	271536
2.01467	225165
2.01833	173942
2.02200	127391
2.02567	89849
2.02933	61860
2.03300	42058
2.03667	28521
2.04033	19469
2.04400	13486
2.04767	9546
2.05133	6940
2.05500	5197
2.05867	4016
2.06233	3197
2.06600	2617
2.06967	2197
2.07333	1886
2.07700	1647
2.08067	1456
2.08433	1297
2.08800	1166
2.09167	1057
2.09533	966
2.09900	888
2.10267	822
2.10633	768
2.11000	720
2.11367	675
2.11733	633
2.12100	596
2.12467	560
2.12833	527
2.13200	498
2.13567	472
2.13933	449
2.14300	425
2.14667	403
2.15033	383
2.15400	363
2.15767	343
2.16133	327
2.16500	317
2.16867	311
2.17233	305
2.17600	295
2.17967	283
2.18333	272
2.18700	260
2.19067	253
2.19433	246
2.19800	238
2.20167	230
2.20533	223
2.20900	212
2.21267	200
2.21633	190
2.22000	185
2.22367	183
2.22733	183
2.23100	182
2.23467	181
2.23833	179
2.24200	173
2.24567	163
2.24933	151
2.25300	139
2.25667	130
2.26033	124
2.26400	121
2.26767	124
2.27133	128
2.27500	132
2.27867	134
2.28233	137
2.28600	138
2.28967	130
2.29333	116
2.29700	105
2.30067	96
2.30433	91
2.30800	90
2.31167	96
2.31533	103
2.31900	108
2.32267	108
2.32633	105
2.33000	100
2.33367	95
2.33733	91
2.34100	88
2.34467	87
2.34833	88
2.35200	89
2.35567	89
2.35933	89
2.36300	90
2.36667	89
2.37033	85
2.37400	78
2.37767	72
2.38133	70
2.38500	72
2.38867	75
2.39233	78
2.39600	80
2.39967	82
2.40333	86
2.40700	88
2.41067	84
2.41433	79
2.41800	76
2.42167	76
2.42533	77
2.42900	76
2.43267	72
2.43633	64
2.44000	56
2.44367	52
2.44733	50
2.45100	48
2.45467	47
2.45833	48
2.46200	55
2.46567	66
2.46933	75
2.47300	77
2.47667	70
2.48033	58
2.48400	50
2.48767	48
2.49133	52
2.49500	61
2.49867	66
2.50233	69
2.50600	72
2.50967	72
2.51333	73
2.51700	74
2.52067	74
2.52433	73
2.52800	71
2.53167	68
2.53533	63
2.53900	59
2.54267	58
2.54633	61
2.55000	64
2.55367	62
2.55733	60
2.56100	58
2.56467	55
2.56833	53
2.57200	58
2.57567	65
2.57933	69
2.58300	69
2.58667	64
2.59033	55
2.59400	49
2.59767	47
2.60133	48
2.60500	51
2.60867	54
2.61233	60
2.61600	69
2.61967	75
2.62333	75
2.62700	69
2.63067	58
2.63433	46
2.63800	39
2.64167	38
2.64533	39
2.64900	42
2.65267	45
2.65633	46
2.66000	45
2.66367	43
2.66733	42
2.67100	42
2.67467	43
2.67833	42
2.68200	44
2.68567	47
2.68933	53
2.69300	57
2.69667	59
2.70033	58
2.70400	56
2.70767	53
2.71133	57
2.71500	66
2.71867	72
2.72233	71
2.72600	65
2.72967	58
2.73333	49
2.73700	41
2.74067	35
2.74433	32
2.74800	31
2.75167	30
2.75533	30
2.75900	33
2.76267	41
2.76633	48
2.77000	53
2.77367	57
2.77733	58
2.78100	53
2.78467	45
2.78833	40
2.79200	39
2.79567	40
2.79933	42
2.80300	44
2.80667	44
2.81033	42
2.81400	40
2.81767	36
2.82133	36
2.82500	42
2.82867	50
2.83233	59
2.83600	68
2.83967	74
2.84333	78
2.84700	80
2.85067	78
2.85433	71
2.85800	63
2.86167	58
2.86533	55
2.86900	56
2.87267	59
2.87633	59
2.88000	62
2.88367	66
2.88733	67
2.89100	65
2.89467	63
2.89833	63
2.90200	62
2.90567	61
2.90933	60
2.91300	60
2.91667	59
2.92033	57
2.92400	57
2.92767	58
2.93133	60
2.93500	60
2.93867	55
2.94233	48
2.94600	42
2.94967	40
2.95333	40
2.95700	45
2.96067	52
2.96433	61
2.96800	68
2.97167	76
2.97533	83
2.97900	88
2.98267	91
2.98633	95
2.99000	103
2.99367	113
2.99733	120
3.00100	120
3.00467	116
3.00833	112
3.01200	111
3.01567	111
3.01933	114
3.02300	117
3.02667	113
3.03033	106
3.03400	102
3.03767	99
3.04133	92
3.04500	88
3.04867	86
3.05233	85
3.05600	86
3.05967	88
3.06333	86
3.06700	84
3.07067	82
3.07433	83
3.07800	84
3.08167	88
3.08533	95
3.08900	101
3.09267	103
3.09633	105
3.10000	108
3.10367	112
3.10733	113
3.11100	109
3.11467	105
3.11833	102
3.12200	99
3.12567	94
3.12933	90
3.13300	86
3.13667	88
3.14033	95
3.14400	107
3.14767	120
3.15133	129
3.15500	131
3.15867	128
3.16233	121
3.16600	114
3.16967	108
3.17333	104
3.17700	102
3.18067	101
3.18433	98
3.18800	95
3.19167	95
3.19533	98
3.19900	98
3.20267	96
3.20633	96
3.21000	98
3.21367	105
3.21733	116
3.22100	120
3.22467	122
3.22833	125
3.23200	127
3.23567	124
3.23933	116
3.24300	108
3.24667	99
3.25033	93
3.25400	90
3.25767	88
3.26133	88
3.26500	89
3.26867	90
3.27233	93
3.27600	98
3.27967	103
3.28333	107
3.28700	108
3.29067	106
3.29433	102
3.29800	95
3.30167	88
3.30533	83
3.30900	85
3.31267	93
3.31633	101
3.32000	108
3.32367	112
3.32733	115
3.33100	118
3.33467	121
3.33833	122
3.34200	120
3.34567	112
3.34933	103
3.35300	95
3.35667	92
3.36033	89
3.36400	85
3.36767	80
3.37133	79
3.37500	80
3.37867	84
3.38233	87
3.38600	90
3.38967	93
3.39333	96
3.39700	99
3.40067	102
3.40433	104
3.40800	106
3.41167	108
3.41533	108
3.41900	108
3.42267	110
3.42633	110
3.43000	108
3.43367	102
3.43733	95
3.44100	91
3.44467	89
3.44833	89
3.45200	87
3.45567	87
3.45933	89
3.46300	95
3.46667	102
3.47033	101
3.47400	95
3.47767	88
3.48133	86
3.48500	90
3.48867	96
3.49233	100
3.49600	102
3.49967	100
3.50333	97
3.50700	92
3.51067	87
3.51433	85
3.51800	88
3.52167	93
3.52533	102
3.52900	111
3.53267	116
3.53633	109
3.54000	92
3.54367	76
3.54733	70
3.55100	71
3.55467	75
3.55833	78
3.56200	78
3.56567	75
3.56933	71
3.57300	69
3.57667	72
3.58033	78
3.58400	83
3.58767	90
3.59133	94
3.59500	96
3.59867	97
3.60233	95
3.60600	89
3.60967	85
3.61333	83
3.61700	86
3.62067	90
3.62433	92
3.62800	92
3.63167	89
3.63533	80
3.63900	70
3.64267	63
3.64633	63
3.65000	68
3.65367	76
3.65733	83
3.66100	85
3.66467	84
3.66833	81
3.67200	78
3.67567	76
3.67933	74
3.68300	73
3.68667	73
3.69033	77
3.69400	83
3.69767	91
3.70133	97
3.70500	97
3.70867	93
3.71233	86
3.71600	77
3.71967	68
3.72333	64
3.72700	62
3.73067	60
3.73433	60
3.73800	61
3.74167	63
3.74533	64
3.74900	67
3.75267	70
3.75633	69
3.76000	66
3.76367	63
3.76733	60
3.77100	58
3.77467	58
3.77833	62
3.78200	63
3.78567	61
3.78933	57
3.79300	55
3.79667	54
3.80033	56
3.80400	57
3.80767	58
3.81133	60
3.81500	65
3.81867	68
3.82233	66
3.82600	62
3.82967	57
3.83333	55
3.83700	59
3.84067	66
3.84433	73
3.84800	76
3.85167	76
3.85533	73
3.85900	69
3.86267	64
3.86633	63
3.87000	64
3.87367	64
3.87733	64
3.88100	64
3.88467	66
3.88833	68
3.89200	70
3.89567	74
3.89933	75
3.90300	75
3.90667	77
3.91033	80
3.91400	78
3.91767	73
3.92133	67
3.92500	63
3.92867	63
3.93233	67
3.93600	69
3.93967	75
3.94333	79
3.94700	77
3.95067	76
3.95433	77
3.95800	77
3.96167	73
3.96533	67
3.96900	63
3.97267	62
3.97633	62
3.98000	61
3.98367	59
3.98733	56
3.99100	51
3.99467	44
3.99833	40

[Chromatogram (Ch2)]
Interval(msec)	220
# of Points	1091
Start Time(min)	0.002
End Time(min)	3.998
R.Time (min)	Intensity
0.00167	1
0.00533	1
0.00900	2
0.01267	2
0.01633	2
0.02000	3
0.02367	3
0.02733	4
0.03100	4
0.03467	5
0.03833	5
0.04200	5
0.04567	5
0.04933	5
0.05300	4
0.05667	4
0.06033	3
0.06400	3
0.06767	3
0.07133	3
0.07500	3
0.07867	3
0.08233	2
0.08600	2
0.08967	2
0.09333	2
0.09700	1
0.10067	1
0.10433	1
0.10800	1
0.11167	1
0.11533	2
0.11900	2
0.12267	3
0.12633	4
0.13000	4
0.13367	5
0.13733	5
0.14100	5
0.14467	5
0.14833	5
0.15200	5
0.15567	5
0.15933	5
0.16300	5
0.16667	5
0.17033	5
0.17400	4
0.17767	4
0.18133	4
0.18500	4
0.18867	4
0.19233	4
0.19600	4
0.19967	5
0.20333	5
0.20700	5
0.21067	5
0.21433	5
0.21800	4
0.22167	4
0.22533	4
0.22900	3
0.23267	3
0.23633	3
0.24000	3
0.24367	3
0.24733	3
0.25100	2
0.25467	2
0.25833	2
0.26200	2
0.26567	1
0.26933	1
0.27300	1
0.27667	0
0.28033	0
0.28400	0
0.28767	0
0.29133	1
0.29500	1
0.29867	1
0.30233	1
0.30600	1
0.30967	1
0.31333	2
0.31700	1
0.32067	1
0.32433	1
0.32800	1
0.33167	1
0.33533	0
0.33900	0
0.34267	0
0.34633	0
0.35000	0
0.35367	0
0.35733	0
0.36100	0
0.36467	0
0.36833	0
0.37200	0
0.37567	0
0.37933	0
0.38300	-0
0.38667	-0
0.39033	-0
0.39400	-0
0.39767	-0
0.40133	-0
0.40500	-0
0.40867	0
0.41233	1
0.41600	1
0.41967	1
0.42333	1
0.42700	1
0.43067	1
0.43433	1
0.43800	0
0.44167	0
0.44533	0
0.44900	0
0.45267	0
0.45633	0
0.46000	0
0.46367	0
0.46733	1
0.47100	1
0.47467	1
0.47833	1
0.48200	1
0.48567	1
0.48933	1
0.49300	1
0.49667	1
0.50033	1
0.50400	1
0.50767	1
0.51133	1
0.51500	2
0.51867	2
0.52233	1
0.52600	1
0.52967	1
0.53333	1
0.53700	1
0.54067	1
0.54433	1
0.54800	1
0.55167	1
0.55533	1
0.55900	1
0.56267	1
0.56633	1
0.57000	1
0.57367	1
0.57733	1
0.58100	1
0.58467	1
0.58833	1
0.59200	0
0.59567	0
0.59933	-0
0.60300	-0
0.60667	-0
0.61033	-0
0.61400	-0
0.61767	-0
0.62133	0
0.62500	0
0.62867	0
0.63233	0
0.63600	0
0.63967	1
0.64333	1
0.64700	1
0.65067	1
0.65433	0
0.65800	0
0.66167	0
0.66533	0
0.66900	0
0.67267	-0
0.67633	-0
0.68000	-0
0.68367	-1
0.68733	-0
0.69100	-0
0.69467	-0
0.69833	-1
0.70200	-1
0.70567	-1
0.70933	-1
0.71300	-1
0.71667	-1
0.72033	-1
0.72400	-1
0.72767	-1
0.73133	-1
0.73500	-1
0.73867	-1
0.74233	-1
0.74600	-1
0.74967	-1
0.75333	-1
0.75700	-1
0.76067	-1
0.76433	-0
0.76800	-0
0.77167	-0
0.77533	-0
0.77900	-0
0.78267	-0
0.78633	-0
0.79000	-0
0.79367	-0
0.79733	0
0.80100	1
0.80467	1
0.80833	1
0.81200	2
0.81567	2
0.81933	2
0.82300	2
0.82667	2
0.83033	2
0.83400	2
0.83767	2
0.84133	2
0.84500	2
0.84867	2
0.85233	2
0.85600	3
0.85967	3
0.86333	3
0.86700	2
0.87067	3
0.87433	3
0.87800	3
0.88167	3
0.88533	3
0.88900	3
0.89267	3
0.89633	3
0.90000	3
0.90367	3
0.90733	3
0.91100	3
0.91467	3
0.91833	3
0.92200	3
0.92567	3
0.92933	3
0.93300	3
0.93667	2
0.94033	2
0.94400	1
0.94767	1
0.95133	0
0.95500	-0
0.95867	-1
0.96233	-1
0.96600	-2
0.96967	-2
0.97333	-2
0.97700	-2
0.98067	-2
0.98433	-2
0.98800	-2
0.99167	-2
0.99533	-2
0.99900	-2
1.00267	-1
1.00633	-1
1.01000	-1
1.01367	-1
1.01733	-1
1.02100	-1
1.02467	-1
1.02833	-1
1.03200	-1
1.03567	-0
1.03933	0
1.04300	0
1.04667	0
1.05033	1
1.05400	1
1.05767	1
1.06133	1
1.06500	1
1.06867	2
1.07233	2
1.07600	2
1.07967	2
1.08333	2
1.08700	2
1.09067	2
1.09433	2
1.09800	2
1.10167	1
1.10533	1
1.10900	1
1.11267	1
1.11633	1
1.12000	1
1.12367	1
1.12733	1
1.13100	1
1.13467	2
1.13833	2
1.14200	2
1.14567	2
1.14933	2
1.15300	3
1.15667	3
1.16033	3
1.16400	3
1.16767	3
1.17133	3
1.17500	3
1.17867	3
1.18233	3
1.18600	2
1.18967	2
1.19333	2
1.19700	2
1.20067	2
1.20433	2
1.20800	2
1.21167	2
1.21533	2
1.21900	2
1.22267	2
1.22633	2
1.23000	1
1.23367	1
1.23733	1
1.24100	1
1.24467	0
1.24833	0
1.25200	0
1.25567	0
1.25933	0
1.26300	0
1.26667	-0
1.27033	-0
1.27400	-1
1.27767	-1
1.28133	-1
1.28500	-1
1.28867	-1
1.29233	-1
1.29600	-1
1.29967	-1
1.30333	-1
1.30700	-2
1.31067	-2
1.31433	-2
1.31800	-3
1.32167	-3
1.32533	-3
1.32900	-3
1.33267	-4
1.33633	-4
1.34000	-4
1.34367	-4
1.34733	-4
1.35100	-4
1.35467	-4
1.35833	-3
1.36200	-3
1.36567	-3
1.36933	-3
1.37300	-3
1.37667	-3
1.38033	-3
1.38400	-3
1.38767	-3
1.39133	-3
1.39500	-2
1.39867	-2
1.40233	-2
1.40600	-2
1.40967	-1
1.41333	-1
1.41700	-0
1.42067	-0
1.42433	0
1.42800	0
1.43167	1
1.43533	1
1.43900	2
1.44267	2
1.44633	2
1.45000	3
1.45367	3
1.45733	3
1.46100	3
1.46467	3
1.46833	3
1.47200	3
1.47567	3
1.47933	3
1.48300	3
1.48667	2
1.49033	2
1.49400	2
1.49767	2
1.50133	1
1.50500	1
1.50867	1
1.51233	1
1.51600	1
1.51967	1
1.52333	1
1.52700	1
1.53067	1
1.53433	1
1.53800	1
1.54167	1
1.54533	1
1.54900	1
1.55267	0
1.55633	0
1.56000	0
1.56367	0
1.56733	0
1.57100	0
1.57467	0
1.57833	0
1.58200	0
1.58567	0
1.58933	0
1.59300	-0
1.59667	-1
1.60033	-1
1.60400	-3
1.60767	-4
1.61133	-6
1.61500	-8
1.61867	-10
1.62233	-13
1.62600	-16
1.62967	-19
1.63333	-23
1.63700	-26
1.64067	-30
1.64433	-33
1.64800	-36
1.65167	-40
1.65533	-44
1.65900	-48
1.66267	-52
1.66633	-57
1.67000	-63
1.67367	-68
1.67733	-73
1.68100	-79
1.68467	-84
1.68833	-89
1.69200	-93
1.69567	-96
1.69933	-99
1.70300	-102
1.70667	-104
1.71033	-105
1.71400	-107
1.71767	-108
1.72133	-109
1.72500	-110
1.72867	-110
1.73233	-110
1.73600	-110
1.73967	-110
1.74333	-110
1.74700	-110
1.75067	-111
1.75433	-111
1.75800	-112
1.76167	-113
1.76533	-114
1.76900	-115
1.77267	-117
1.77633	-118
1.78000	-119
1.78367	-120
1.78733	-121
1.79100	-121
1.79467	-121
1.79833	-121
1.80200	-121
1.80567	-121
1.80933	-120
1.81300	-120
1.81667	-120
1.82033	-120
1.82400	-120
1.82767	-120
1.83133	-120
1.83500	-120
1.83867	-120
1.84233	-120
1.84600	-120
1.84967	-120
1.85333	-120
1.85700	-120
1.86067	-120
1.86433	-120
1.86800	-120
1.87167	-120
1.87533	-121
1.87900	-121
1.88267	-121
1.88633	-121
1.89000	-120
1.89367	-120
1.89733	-120
1.90100	-120
1.90467	-120
1.90833	-120
1.91200	-119
1.91567	-119
1.91933	-119
1.92300	-119
1.92667	-119
1.93033	-118
1.93400	-118
1.93767	-117
1.94133	-117
1.94500	-117
1.94867	-116
1.95233	-116
1.95600	-116
1.95967	-116
1.96333	-116
1.96700	-116
1.97067	-116
1.97433	-116
1.97800	-116
1.98167	-116
1.98533	-116
1.98900	-115
1.99267	-115
1.99633	-115
2.00000	-115
2.00367	-114
2.00733	-114
2.01100	-114
2.01467	-114
2.01833	-113
2.02200	-113
2.02567	-113
2.02933	-113
2.03300	-112
2.03667	-112
2.04033	-111
2.04400	-111
2.04767	-111
2.05133	-111
2.05500	-111
2.05867	-110
2.06233	-110
2.06600	-109
2.06967	-108
2.07333	-107
2.07700	-107
2.08067	-107
2.08433	-106
2.08800	-106
2.09167	-106
2.09533	-105
2.09900	-105
2.10267	-105
2.10633	-105
2.11000	-105
2.11367	-105
2.11733	-105
2.12100	-105
2.12467	-105
2.12833	-105
2.13200	-105
2.13567	-105
2.13933	-104
2.14300	-103
2.14667	-102
2.15033	-100
2.15400	-99
2.15767	-99
2.16133	-98
2.16500	-98
2.16867	-98
2.17233	-98
2.17600	-98
2.17967	-98
2.18333	-97
2.18700	-97
2.19067	-96
2.19433	-96
2.19800	-95
2.20167	-95
2.20533	-95
2.20900	-95
2.21267	-95
2.21633	-95
2.22000	-94
2.22367	-94
2.22733	-94
2.23100	-94
2.23467	-93
2.23833	-92
2.24200	-92
2.24567	-91
2.24933	-91
2.25300	-91
2.25667	-90
2.26033	-90
2.26400	-90
2.26767	-90
2.27133	-90
2.27500	-89
2.27867	-88
2.28233	-88
2.28600	-87
2.28967	-87
2.29333	-87
2.29700	-87
2.30067	-88
2.30433	-88
2.30800	-88
2.31167	-87
2.31533	-87
2.31900	-87
2.32267	-87
2.32633	-87
2.33000	-87
2.33367	-88
2.33733	-88
2.34100	-87
2.34467	-87
2.34833	-86
2.35200	-85
2.35567	-83
2.35933	-82
2.36300	-81
2.36667	-79
2.37033	-78
2.37400	-75
2.37767	-73
2.38133	-70
2.38500	-67
2.38867	-63
2.39233	-59
2.39600	-54
2.39967	-50
2.40333	-45
2.40700	-40
2.41067	-36
2.41433	-32
2.41800	-28
2.42167	-24
2.42533	-21
2.42900	-18
2.43267	-16
2.43633	-13
2.44000	-11
2.44367	-9
2.44733	-6
2.45100	-5
2.45467	-3
2.45833	-2
2.46200	-1
2.46567	-0
2.46933	0
2.47300	1
2.47667	3
2.48033	4
2.48400	5
2.48767	6
2.49133	6
2.49500	7
2.49867	8
2.50233	8
2.50600	9
2.50967	9
2.51333	9
2.51700	10
2.52067	11
2.52433	11
2.52800	12
2.53167	13
2.53533	13
2.53900	13
2.54267	14
2.54633	14
2.55000	14
2.55367	14
2.55733	15
2.56100	15
2.56467	16
2.56833	17
2.57200	18
2.57567	18
2.57933	18
2.58300	18
2.58667	18
2.59033	18
2.59400	18
2.59767	18
2.60133	18
2.60500	18
2.60867	18
2.61233	18
2.61600	18
2.61967	18
2.62333	19
2.62700	19
2.63067	19
2.63433	20
2.63800	21
2.64167	21
2.64533	22
2.64900	23
2.65267	23
2.65633	24
2.66000	24
2.66367	24
2.66733	24
2.67100	24
2.67467	24
2.67833	24
2.68200	24
2.68567	24
2.68933	24
2.69300	24
2.69667	24
2.70033	24
2.70400	24
2.70767	25
2.71133	25
2.71500	25
2.71867	25
2.72233	25
2.72600	25
2.72967	25
2.73333	25
2.73700	26
2.74067	26
2.74433	26
2.74800	25
2.75167	25
2.75533	24
2.75900	24
2.76267	23
2.76633	23
2.77000	23
2.77367	22
2.77733	22
2.78100	22
2.78467	23
2.78833	22
2.79200	22
2.79567	22
2.79933	22
2.80300	22
2.80667	22
2.81033	23
2.81400	23
2.81767	23
2.82133	24
2.82500	24
2.82867	25
2.83233	25
2.83600	26
2.83967	26
2.84333	26
2.84700	26
2.85067	26
2.85433	26
2.85800	26
2.86167	26
2.86533	26
2.86900	25
2.87267	23
2.87633	19
2.88000	14
2.88367	6
2.88733	-5
2.89100	-19
2.89467	-37
2.89833	-58
2.90200	-82
2.90567	-110
2.90933	-140
2.91300	-174
2.91667	-209
2.92033	-247
2.92400	-287
2.92767	-329
2.93133	-374
2.93500	-419
2.93867	-459
2.94233	-488
2.94600	-503
2.94967	-504
2.95333	-491
2.95700	-467
2.96067	-436
2.96433	-401
2.96800	-363
2.97167	-325
2.97533	-287
2.97900	-252
2.98267	-219
2.98633	-189
2.99000	-161
2.99367	-137
2.99733	-115
3.00100	-96
3.00467	-79
3.00833	-65
3.01200	-52
3.01567	-42
3.01933	-32
3.02300	-24
3.02667	-18
3.03033	-12
3.03400	-7
3.03767	-3
3.04133	1
3.04500	3
3.04867	6
3.05233	8
3.05600	10
3.05967	11
3.06333	12
3.06700	13
3.07067	14
3.07433	14
3.07800	15
3.08167	16
3.08533	16
3.08900	17
3.09267	17
3.09633	18
3.10000	18
3.10367	19
3.10733	20
3.11100	20
3.11467	20
3.11833	21
3.12200	21
3.12567	21
3.12933	21
3.13300	21
3.13667	21
3.14033	21
3.14400	22
3.14767	22
3.15133	22
3.15500	22
3.15867	22
3.16233	22
3.16600	22
3.16967	22
3.17333	22
3.17700	23
3.18067	23
3.18433	23
3.18800	23
3.19167	23
3.19533	23
3.19900	23
3.20267	23
3.20633	23
3.21000	23
3.21367	23
3.21733	23
3.22100	23
3.22467	24
3.22833	24
3.23200	24
3.23567	25
3.23933	25
3.24300	25
3.24667	25
3.25033	25
3.25400	25
3.25767	25
3.26133	25
3.26500	25
3.26867	26
3.27233	26
3.27600	26
3.27967	27
3.28333	27
3.28700	27
3.29067	27
3.29433	27
3.29800	27
3.30167	27
3.30533	27
3.30900	27
3.31267	27
3.31633	27
3.32000	27
3.32367	27
3.32733	27
3.33100	27
3.33467	27
3.33833	27
3.34200	26
3.34567	26
3.34933	26
3.35300	26
3.35667	26
3.36033	26
3.36400	26
3.36767	26
3.37133	26
3.37500	26
3.37867	26
3.38233	26
3.38600	26
3.38967	25
3.39333	26
3.39700	26
3.40067	26
3.40433	26
3.40800	26
3.41167	27
3.41533	27
3.41900	27
3.42267	27
3.42633	27
3.43000	27
3.43367	27
3.43733	27
3.44100	27
3.44467	27
3.44833	27
3.45200	27
3.45567	27
3.45933	28
3.46300	27
3.46667	27
3.47033	27
3.47400	27
3.47767	27
3.48133	27
3.48500	27
3.48867	27
3.49233	27
3.49600	27
3.49967	26
3.50333	26
3.50700	26
3.51067	25
3.51433	25
3.51800	25
3.52167	25
3.52533	25
3.52900	25
3.53267	25
3.53633	25
3.54000	25
3.54367	25
3.54733	26
3.55100	26
3.55467	26
3.55833	26
3.56200	27
3.56567	27
3.56933	27
3.57300	28
3.57667	28
3.58033	28
3.58400	29
3.58767	29
3.59133	29
3.59500	29
3.59867	29
3.60233	29
3.60600	29
3.60967	29
3.61333	29
3.61700	29
3.62067	29
3.62433	29
3.62800	29
3.63167	29
3.63533	29
3.63900	29
3.64267	29
3.64633	29
3.65000	29
3.65367	29
3.65733	29
3.66100	29
3.66467	29
3.66833	29
3.67200	29
3.67567	29
3.67933	29
3.68300	29
3.68667	29
3.69033	29
3.69400	29
3.69767	29
3.70133	29
3.70500	29
3.70867	29
3.71233	29
3.71600	28
3.71967	28
3.72333	28
3.72700	29
3.73067	29
3.73433	29
3.73800	29
3.74167	28
3.74533	28
3.74900	28
3.75267	28
3.75633	28
3.76000	28
3.76367	28
3.76733	28
3.77100	27
3.77467	27
3.77833	27
3.78200	27
3.78567	27
3.78933	27
3.79300	27
3.79667	27
3.80033	27
3.80400	27
3.80767	27
3.81133	27
3.81500	27
3.81867	27
3.82233	27
3.82600	27
3.82967	27
3.83333	27
3.83700	27
3.84067	26
3.84433	26
3.84800	26
3.85167	26
3.85533	26
3.85900	26
3.86267	26
3.86633	26
3.87000	26
3.87367	26
3.87733	26
3.88100	26
3.88467	26
3.88833	26
3.89200	26
3.89567	26
3.89933	26
3.90300	26
3.90667	26
3.91033	26
3.91400	26
3.91767	26
3.92133	26
3.92500	26
3.92867	26
3.93233	26
3.93600	26
3.93967	26
3.94333	25
3.94700	25
3.95067	25
3.95433	25
3.95800	25
3.96167	24
3.96533	24
3.96900	24
3.97267	25
3.97633	25
3.98000	25
3.98367	25
3.98733	25
3.99100	25
3.99467	25
3.99833	25

[Chromatogram (Ch3)]
Interval(msec)	220
# of Points	1091
Start Time(min)	0.002
End Time(min)	3.998
R.Time (min)	Intensity
0.00167	-1
0.00533	-2
0.00900	-2
0.01267	-1
0.01633	1
0.02000	2
0.02367	3
0.02733	4
0.03100	3
0.03467	3
0.03833	4
0.04200	5
0.04567	6
0.04933	6
0.05300	7
0.05667	7
0.06033	6
0.06400	5
0.06767	5
0.07133	7
0.07500	7
0.07867	4
0.08233	3
0.08600	5
0.08967	6
0.09333	7
0.09700	8
0.10067	9
0.10433	9
0.10800	8
0.11167	8
0.11533	10
0.11900	11
0.12267	9
0.12633	7
0.13000	8
0.13367	9
0.13733	9
0.14100	9
0.14467	11
0.14833	9
0.15200	9
0.15567	11
0.15933	13
0.16300	14
0.16667	13
0.17033	13
0.17400	12
0.17767	12
0.18133	10
0.18500	9
0.18867	8
0.19233	8
0.19600	10
0.19967	12
0.20333	13
0.20700	14
0.21067	13
0.21433	13
0.21800	12
0.22167	14
0.22533	13
0.22900	10
0.23267	9
0.23633	12
0.24000	14
0.24367	15
0.24733	16
0.25100	17
0.25467	16
0.25833	16
0.26200	15
0.26567	14
0.26933	12
0.27300	13
0.27667	15
0.28033	16
0.28400	16
0.28767	15
0.29133	15
0.29500	14
0.29867	14
0.30233	14
0.30600	15
0.30967	15
0.31333	14
0.31700	16
0.32067	17
0.32433	16
0.32800	16
0.33167	17
0.33533	18
0.33900	19
0.34267	20
0.34633	20
0.35000	21
0.35367	21
0.35733	20
0.36100	18
0.36467	19
0.36833	20
0.37200	19
0.37567	20
0.37933	20
0.38300	19
0.38667	19
0.39033	20
0.39400	21
0.39767	22
0.40133	22
0.40500	20
0.40867	17
0.41233	18
0.41600	20
0.41967	21
0.42333	23
0.42700	22
0.43067	20
0.43433	17
0.43800	15
0.44167	15
0.44533	18
0.44900	22
0.45267	23
0.45633	24
0.46000	24
0.46367	26
0.46733	27
0.47100	26
0.47467	25
0.47833	26
0.48200	25
0.48567	24
0.48933	24
0.49300	23
0.49667	23
0.50033	24
0.50400	22
0.50767	22
0.51133	21
0.51500	21
0.51867	21
0.52233	22
0.52600	25
0.52967	26
0.53333	27
0.53700	27
0.54067	30
0.54433	30
0.54800	29
0.55167	28
0.55533	27
0.55900	25
0.56267	24
0.56633	25
0.57000	27
0.57367	28
0.57733	29
0.58100	29
0.58467	29
0.58833	30
0.59200	31
0.59567	30
0.59933	29
0.60300	30
0.60667	29
0.61033	30
0.61400	32
0.61767	32
0.62133	32
0.62500	33
0.62867	32
0.63233	32
0.63600	31
0.63967	29
0.64333	29
0.64700	29
0.65067	29
0.65433	29
0.65800	28
0.66167	25
0.66533	23
0.66900	22
0.67267	25
0.67633	29
0.68000	31
0.68367	30
0.68733	30
0.69100	28
0.69467	29
0.69833	29
0.70200	31
0.70567	33
0.70933	37
0.71300	39
0.71667	39
0.72033	37
0.72400	36
0.72767	34
0.73133	30
0.73500	29
0.73867	29
0.74233	29
0.74600	30
0.74967	33
0.75333	34
0.75700	33
0.76067	32
0.76433	29
0.76800	30
0.77167	30
0.77533	31
0.77900	37
0.78267	39
0.78633	40
0.79000	41
0.79367	40
0.79733	39
0.80100	39
0.80467	37
0.80833	36
0.81200	37
0.81567	40
0.81933	39
0.82300	37
0.82667	37
0.83033	36
0.83400	36
0.83767	36
0.84133	36
0.84500	38
0.84867	40
0.85233	39
0.85600	40
0.85967	40
0.86333	37
0.86700	36
0.87067	34
0.87433	33
0.87800	32
0.88167	32
0.88533	32
0.88900	34
0.89267	36
0.89633	39
0.90000	41
0.90367	43
0.90733	41
0.91100	40
0.91467	41
0.91833	43
0.92200	45
0.92567	44
0.92933	44
0.93300	41
0.93667	38
0.94033	38
0.94400	39
0.94767	38
0.95133	37
0.95500	39
0.95867	41
0.96233	41
0.96600	41
0.96967	40
0.97333	41
0.97700	42
0.98067	40
0.98433	40
0.98800	39
0.99167	38
0.99533	39
0.99900	40
1.00267	45
1.00633	51
1.01000	52
1.01367	50
1.01733	47
1.02100	46
1.02467	48
1.02833	47
1.03200	46
1.03567	45
1.03933	44
1.04300	43
1.04667	40
1.05033	37
1.05400	37
1.05767	36
1.06133	34
1.06500	33
1.06867	36
1.07233	38
1.07600	39
1.07967	39
1.08333	40
1.08700	41
1.09067	41
1.09433	41
1.09800	41
1.10167	44
1.10533	47
1.10900	47
1.11267	47
1.11633	45
1.12000	43
1.12367	43
1.12733	43
1.13100	43
1.13467	43
1.13833	43
1.14200	43
1.14567	44
1.14933	43
1.15300	44
1.15667	44
1.16033	45
1.16400	45
1.16767	43
1.17133	42
1.17500	47
1.17867	49
1.18233	47
1.18600	47
1.18967	46
1.19333	45
1.19700	45
1.20067	47
1.20433	47
1.20800	48
1.21167	48
1.21533	49
1.21900	47
1.22267	46
1.22633	49
1.23000	52
1.23367	51
1.23733	49
1.24100	48
1.24467	48
1.24833	50
1.25200	49
1.25567	48
1.25933	49
1.26300	50
1.26667	53
1.27033	53
1.27400	51
1.27767	47
1.28133	45
1.28500	46
1.28867	47
1.29233	47
1.29600	48
1.29967	49
1.30333	51
1.30700	53
1.31067	53
1.31433	52
1.31800	51
1.32167	50
1.32533	50
1.32900	50
1.33267	49
1.33633	47
1.34000	46
1.34367	46
1.34733	45
1.35100	44
1.35467	43
1.35833	43
1.36200	44
1.36567	45
1.36933	43
1.37300	43
1.37667	44
1.38033	45
1.38400	45
1.38767	44
1.39133	44
1.39500	45
1.39867	47
1.40233	48
1.40600	47
1.40967	47
1.41333	48
1.41700	46
1.42067	44
1.42433	45
1.42800	46
1.43167	48
1.43533	48
1.43900	48
1.44267	51
1.44633	51
1.45000	49
1.45367	49
1.45733	49
1.46100	48
1.46467	46
1.46833	47
1.47200	49
1.47567	48
1.47933	47
1.48300	45
1.48667	46
1.49033	46
1.49400	45
1.49767	46
1.50133	47
1.50500	46
1.50867	47
1.51233	48
1.51600	50
1.51967	50
1.52333	50
1.52700	49
1.53067	48
1.53433	45
1.53800	44
1.54167	45
1.54533	47
1.54900	46
1.55267	46
1.55633	45
1.56000	45
1.56367	45
1.56733	45
1.57100	44
1.57467	42
1.57833	40
1.58200	39
1.58567	36
1.58933	36
1.59300	38
1.59667	41
1.60033	42
1.60400	43
1.60767	45
1.61133	48
1.61500	50
1.61867	52
1.62233	53
1.62600	53
1.62967	52
1.63333	51
1.63700	49
1.64067	49
1.64433	48
1.64800	48
1.65167	48
1.65533	49
1.65900	49
1.66267	49
1.66633	53
1.67000	54
1.67367	53
1.67733	54
1.68100	57
1.68467	58
1.68833	59
1.69200	59
1.69567	59
1.69933	58
1.70300	59
1.70667	59
1.71033	60
1.71400	62
1.71767	64
1.72133	64
1.72500	64
1.72867	65
1.73233	65
1.73600	65
1.73967	63
1.74333	63
1.74700	64
1.75067	65
1.75433	67
1.75800	67
1.76167	67
1.76533	66
1.76900	65
1.77267	65
1.77633	66
1.78000	67
1.78367	67
1.78733	68
1.79100	69
1.79467	71
1.79833	72
1.80200	72
1.80567	72
1.80933	72
1.81300	72
1.81667	70
1.82033	71
1.82400	72
1.82767	71
1.83133	70
1.83500	69
1.83867	68
1.84233	67
1.84600	67
1.84967	66
1.85333	68
1.85700	69
1.86067	68
1.86433	69
1.86800	71
1.87167	72
1.87533	73
1.87900	72
1.88267	72
1.88633	72
1.89000	71
1.89367	71
1.89733	71
1.90100	72
1.90467	72
1.90833	75
1.91200	78
1.91567	78
1.91933	77
1.92300	78
1.92667	81
1.93033	79
1.93400	77
1.93767	79
1.94133	83
1.94500	86
1.94867	87
1.95233	86
1.95600	85
1.95967	84
1.96333	85
1.96700	86
1.97067	86
1.97433	87
1.97800	85
1.98167	85
1.98533	85
1.98900	88
1.99267	90
1.99633	91
2.00000	91
2.00367	93
2.00733	94
2.01100	93
2.01467	91
2.01833	91
2.02200	90
2.02567	89
2.02933	91
2.03300	94
2.03667	99
2.04033	102
2.04400	104
2.04767	105
2.05133	107
2.05500	106
2.05867	106
2.06233	107
2.06600	106
2.06967	102
2.07333	102
2.07700	101
2.08067	103
2.08433	107
2.08800	109
2.09167	110
2.09533	107
2.09900	108
2.10267	111
2.10633	112
2.11000	114
2.11367	116
2.11733	118
2.12100	118
2.12467	117
2.12833	116
2.13200	116
2.13567	118
2.13933	119
2.14300	120
2.14667	121
2.15033	120
2.15400	121
2.15767	120
2.16133	120
2.16500	122
2.16867	123
2.17233	123
2.17600	124
2.17967	123
2.18333	122
2.18700	122
2.19067	125
2.19433	127
2.19800	127
2.20167	128
2.20533	129
2.20900	129
2.21267	130
2.21633	132
2.22000	134
2.22367	135
2.22733	135
2.23100	135
2.23467	133
2.23833	131
2.24200	132
2.24567	133
2.24933	133
2.25300	134
2.25667	135
2.26033	135
2.26400	137
2.26767	139
2.27133	139
2.27500	138
2.27867	138
2.28233	139
2.28600	139
2.28967	141
2.29333	143
2.29700	144
2.30067	144
2.30433	144
2.30800	145
2.31167	146
2.31533	143
2.31900	142
2.32267	142
2.32633	143
2.33000	144
2.33367	147
2.33733	149
2.34100	149
2.34467	149
2.34833	149
2.35200	150
2.35567	149
2.35933	149
2.36300	149
2.36667	148
2.37033	147
2.37400	149
2.37767	152
2.38133	155
2.38500	153
2.38867	149
2.39233	145
2.39600	143
2.39967	145
2.40333	148
2.40700	152
2.41067	156
2.41433	160
2.41800	162
2.42167	163
2.42533	163
2.42900	162
2.43267	162
2.43633	164
2.44000	164
2.44367	172
2.44733	199
2.45100	227
2.45467	247
2.45833	249
2.46200	235
2.46567	218
2.46933	205
2.47300	194
2.47667	181
2.48033	167
2.48400	152
2.48767	139
2.49133	127
2.49500	117
2.49867	109
2.50233	104
2.50600	102
2.50967	102
2.51333	105
2.51700	105
2.52067	104
2.52433	104
2.52800	104
2.53167	103
2.53533	99
2.53900	93
2.54267	85
2.54633	79
2.55000	74
2.55367	70
2.55733	66
2.56100	63
2.56467	60
2.56833	56
2.57200	54
2.57567	49
2.57933	46
2.58300	42
2.58667	39
2.59033	42
2.59400	45
2.59767	47
2.60133	48
2.60500	50
2.60867	53
2.61233	53
2.61600	49
2.61967	28
2.62333	6
2.62700	-0
2.63067	11
2.63433	34
2.63800	63
2.64167	91
2.64533	118
2.64900	148
2.65267	181
2.65633	214
2.66000	250
2.66367	288
2.66733	324
2.67100	358
2.67467	389
2.67833	416
2.68200	439
2.68567	461
2.68933	482
2.69300	499
2.69667	513
2.70033	527
2.70400	542
2.70767	556
2.71133	568
2.71500	576
2.71867	585
2.72233	593
2.72600	600
2.72967	607
2.73333	615
2.73700	621
2.74067	628
2.74433	635
2.74800	643
2.75167	649
2.75533	655
2.75900	659
2.76267	662
2.76633	667
2.77000	673
2.77367	678
2.77733	680
2.78100	680
2.78467	682
2.78833	685
2.79200	686
2.79567	687
2.79933	687
2.80300	687
2.80667	687
2.81033	689
2.81400	690
2.81767	691
2.82133	692
2.82500	692
2.82867	690
2.83233	689
2.83600	689
2.83967	693
2.84333	701
2.84700	722
2.85067	765
2.85433	850
2.85800	991
2.86167	1201
2.86533	1477
2.86900	1804
2.87267	2147
2.87633	2468
2.88000	2732
2.88367	2916
2.88733	3009
2.89100	3018
2.89467	2956
2.89833	2840
2.90200	2686
2.90567	2511
2.90933	2327
2.91300	2146
2.91667	1971
2.92033	1809
2.92400	1663
2.92767	1534
2.93133	1415
2.93500	1309
2.93867	1219
2.94233	1139
2.94600	1068
2.94967	1006
2.95333	950
2.95700	902
2.96067	862
2.96433	828
2.96800	797
2.97167	769
2.97533	742
2.97900	722
2.98267	708
2.98633	696
2.99000	682
2.99367	670
2.99733	658
3.00100	648
3.00467	641
3.00833	635
3.01200	630
3.01567	626
3.01933	622
3.02300	618
3.02667	614
3.03033	607
3.03400	603
3.03767	601
3.04133	601
3.04500	599
3.04867	599
3.05233	599
3.05600	598
3.05967	597
3.06333	598
3.06700	597
3.07067	595
3.07433	592
3.07800	591
3.08167	590
3.08533	589
3.08900	588
3.09267	586
3.09633	585
3.10000	587
3.10367	591
3.10733	590
3.11100	589
3.11467	588
3.11833	588
3.12200	586
3.12567	583
3.12933	582
3.13300	581
3.13667	583
3.14033	584
3.14400	582
3.14767	581
3.15133	581
3.15500	581
3.15867	579
3.16233	577
3.16600	574
3.16967	571
3.17333	569
3.17700	566
3.18067	565
3.18433	566
3.18800	564
3.19167	560
3.19533	557
3.19900	555
3.20267	553
3.20633	553
3.21000	554
3.21367	555
3.21733	555
3.22100	556
3.22467	553
3.22833	551
3.23200	549
3.23567	547
3.23933	544
3.24300	540
3.24667	537
3.25033	533
3.25400	532
3.25767	532
3.26133	530
3.26500	528
3.26867	526
3.27233	524
3.27600	520
3.27967	516
3.28333	513
3.28700	513
3.29067	512
3.29433	513
3.29800	512
3.30167	509
3.30533	506
3.30900	505
3.31267	501
3.31633	498
3.32000	494
3.32367	491
3.32733	490
3.33100	489
3.33467	489
3.33833	491
3.34200	490
3.34567	488
3.34933	486
3.35300	484
3.35667	481
3.36033	479
3.36400	476
3.36767	474
3.37133	472
3.37500	469
3.37867	467
3.38233	465
3.38600	463
3.38967	461
3.39333	460
3.39700	457
3.40067	456
3.40433	456
3.40800	451
3.41167	448
3.41533	445
3.41900	441
3.42267	438
3.42633	436
3.43000	435
3.43367	434
3.43733	435
3.44100	436
3.44467	430
3.44833	426
3.45200	423
3.45567	420
3.45933	416
3.46300	413
3.46667	414
3.47033	414
3.47400	413
3.47767	411
3.48133	408
3.48500	404
3.48867	400
3.49233	397
3.49600	395
3.49967	393
3.50333	391
3.50700	389
3.51067	387
3.51433	385
3.51800	382
3.52167	381
3.52533	381
3.52900	382
3.53267	383
3.53633	381
3.54000	379
3.54367	376
3.54733	375
3.55100	374
3.55467	373
3.55833	373
3.56200	371
3.56567	367
3.56933	364
3.57300	362
3.57667	360
3.58033	357
3.58400	353
3.58767	348
3.59133	347
3.59500	347
3.59867	345
3.60233	344
3.60600	343
3.60967	341
3.61333	341
3.61700	341
3.62067	340
3.62433	337
3.62800	335
3.63167	332
3.63533	329
3.63900	325
3.64267	322
3.64633	320
3.65000	321
3.65367	322
3.65733	322
3.66100	320
3.66467	320
3.66833	318
3.67200	317
3.67567	318
3.67933	317
3.68300	314
3.68667	312
3.69033	312
3.69400	309
3.69767	307
3.70133	305
3.70500	302
3.70867	302
3.71233	303
3.71600	303
3.71967	300
3.72333	298
3.72700	298
3.73067	297
3.73433	295
3.73800	292
3.74167	292
3.74533	292
3.74900	291
3.75267	291
3.75633	290
3.76000	289
3.76367	291
3.76733	291
3.77100	289
3.77467	288
3.77833	288
3.78200	286
3.78567	285
3.78933	285
3.79300	285
3.79667	284
3.80033	283
3.80400	281
3.80767	279
3.81133	277
3.81500	274
3.81867	271
3.82233	269
3.82600	269
3.82967	268
3.83333	267
3.83700	268
3.84067	267
3.84433	267
3.84800	267
3.85167	264
3.85533	261
3.85900	259
3.86267	256
3.86633	254
3.87000	255
3.87367	255
3.87733	255
3.88100	253
3.88467	252
3.88833	253
3.89200	254
3.89567	252
3.89933	249
3.90300	247
3.90667	243
3.91033	238
3.91400	238
3.91767	240
3.92133	241
3.92500	245
3.92867	245
3.93233	244
3.93600	243
3.93967	241
3.94333	236
3.94700	231
3.95067	229
3.95433	231
3.95800	233
3.96167	232
3.96533	230
3.96900	227
3.97267	225
3.97633	225
3.98000	225
3.98367	225
3.98733	225
3.99100	225
3.99467	223
3.99833	221

[Status Trace (Column Oven Temperature)]
Interval(msec)	1000
# of Points	240
Start Time(min)	0.001
End Time(min)	3.984
Intensity Units	
Intensity Multiplier	1
R.Time (min)	Intensity
0.00060	35.03
0.01727	35.02
0.03393	35.00
0.05060	35.00
0.06727	35.00
0.08393	35.01
0.10060	35.01
0.11727	35.01
0.13393	34.99
0.15060	34.99
0.16727	34.98
0.18393	34.97
0.20060	34.96
0.21727	34.96
0.23393	34.95
0.25060	34.96
0.26727	34.96
0.28393	34.96
0.30060	34.96
0.31727	34.96
0.33393	34.98
0.35060	34.97
0.36727	34.97
0.38393	34.97
0.40060	34.98
0.41727	34.98
0.43393	34.98
0.45060	34.99
0.46727	34.99
0.48393	34.99
0.50060	34.98
0.51727	34.98
0.53393	34.98
0.55060	34.98
0.56727	34.97
0.58393	34.97
0.60060	34.98
0.61727	34.98
0.63393	34.98
0.65060	34.98
0.66727	34.98
0.68393	34.99
0.70060	34.99
0.71727	35.01
0.73393	35.02
0.75060	35.02
0.76727	35.02
0.78393	35.02
0.80060	35.00
0.81727	35.01
0.83393	34.99
0.85060	34.99
0.86727	34.99
0.88393	34.98
0.90060	34.97
0.91727	34.97
0.93393	34.97
0.95060	34.99
0.96727	35.01
0.98393	35.01
1.00060	35.02
1.01727	35.02
1.03393	35.01
1.05060	35.01
1.06727	35.00
1.08393	35.00
1.10060	35.00
1.11727	35.00
1.13393	34.99
1.15060	34.98
1.16727	34.97
1.18393	34.97
1.20060	34.97
1.21727	34.97
1.23393	34.98
1.25060	34.98
1.26727	34.98
1.28393	34.98
1.30060	34.99
1.31727	35.00
1.33393	35.02
1.35060	35.02
1.36727	35.03
1.38393	35.03
1.40060	35.03
1.41727	35.03
1.43393	35.01
1.45060	35.00
1.46727	34.99
1.48393	34.98
1.50060	34.98
1.51727	34.98
1.53393	34.97
1.55060	34.97
1.56727	34.97
1.58393	34.97
1.60060	35.01
1.61727	35.11
1.63393	35.27
1.65060	35.49
1.66727	35.80
1.68393	36.18
1.70060	36.55
1.71727	36.89
1.73393	37.19
1.75060	37.53
1.76727	37.87
1.78393	38.21
1.80060	38.53
1.81727	38.86
1.83393	39.18
1.85060	39.52
1.86727	39.84
1.88393	40.18
1.90060	40.51
1.91727	40.84
1.93393	41.16
1.95060	41.50
1.96727	41.82
1.98393	42.15
2.00060	42.47
2.01727	42.81
2.03393	43.13
2.05060	43.47
2.06727	43.80
2.08393	44.11
2.10060	44.43
2.11727	44.76
2.13393	45.09
2.15060	45.40
2.16727	45.74
2.18393	46.05
2.20060	46.38
2.21727	46.72
2.23393	47.03
2.25060	47.36
2.26727	47.69
2.28393	48.01
2.30060	48.34
2.31727	48.67
2.33393	49.03
2.35060	49.32
2.36727	49.57
2.38393	49.69
2.40060	49.70
2.41727	49.71
2.43393	49.72
2.45060	49.72
2.46727	49.75
2.48393	49.75
2.50060	49.76
2.51727	49.78
2.53393	49.77
2.55060	49.81
2.56727	49.80
2.58393	49.82
2.60060	49.84
2.61727	49.86
2.63393	49.86
2.65060	49.84
2.66727	49.86
2.68393	49.86
2.70060	49.86
2.71727	49.86
2.73393	49.84
2.75060	49.87
2.76727	49.90
2.78393	49.91
2.80060	49.92
2.81727	49.92
2.83393	49.92
2.85060	49.93
2.86727	49.94
2.88393	49.96
2.90060	49.97
2.91727	49.97
2.93393	49.99
2.95060	49.99
2.96727	50.00
2.98393	50.00
3.00060	50.00
3.01727	50.00
3.03393	50.01
3.05060	50.02
3.06727	50.04
3.08393	50.05
3.10060	50.05
3.11727	50.07
3.13393	50.08
3.15060	50.08
3.16727	50.09
3.18393	50.09
3.20060	50.10
3.21727	50.10
3.23393	50.10
3.25060	50.09
3.26727	50.08
3.28393	50.07
3.30060	50.07
3.31727	50.07
3.33393	50.07
3.35060	50.08
3.36727	50.09
3.38393	50.09
3.40060	50.09
3.41727	50.08
3.43393	50.08
3.45060	50.08
3.46727	50.08
3.48393	50.08
3.50060	50.09
3.51727	50.10
3.53393	50.11
3.55060	50.10
3.56727	50.08
3.58393	50.07
3.60060	50.06
3.61727	50.05
3.63393	50.05
3.65060	50.04
3.66727	50.04
3.68393	50.03
3.70060	50.02
3.71727	50.01
3.73393	50.01
3.75060	50.00
3.76727	50.01
3.78393	50.01
3.80060	50.01
3.81727	50.02
3.83393	50.03
3.85060	50.03
3.86727	50.03
3.88393	50.04
3.90060	50.05
3.91727	50.05
3.93393	50.06
3.95060	50.07
3.96727	50.07
3.98393	50.08

[Status Trace (Injection Unit Temperature)]
Interval(msec)	1000
# of Points	240
Start Time(min)	0.001
End Time(min)	3.984
Intensity Units	
Intensity Multiplier	1
R.Time (min)	Intensity
0.00060	99.98
0.01727	99.98
0.03393	99.98
0.05060	99.98
0.06727	99.98
0.08393	99.98
0.10060	99.98
0.11727	99.98
0.13393	99.98
0.15060	99.99
0.16727	99.98
0.18393	99.98
0.20060	99.98
0.21727	99.98
0.23393	99.98
0.25060	99.98
0.26727	99.98
0.28393	99.98
0.30060	99.98
0.31727	99.98
0.33393	99.98
0.35060	99.98
0.36727	99.98
0.38393	99.98
0.40060	99.98
0.41727	99.98
0.43393	99.98
0.45060	99.98
0.46727	99.98
0.48393	99.98
0.50060	99.98
0.51727	99.98
0.53393	99.98
0.55060	99.98
0.56727	99.98
0.58393	99.98
0.60060	99.98
0.61727	99.98
0.63393	99.98
0.65060	99.98
0.66727	99.98
0.68393	99.98
0.70060	99.98
0.71727	99.98
0.73393	99.98
0.75060	99.98
0.76727	99.98
0.78393	99.98
0.80060	99.98
0.81727	99.98
0.83393	99.98
0.85060	99.98
0.86727	99.97
0.88393	99.98
0.90060	99.99
0.91727	99.98
0.93393	99.99
0.95060	99.99
0.96727	99.99
0.98393	99.99
1.00060	99.99
1.01727	99.99
1.03393	99.99
1.05060	99.99
1.06727	99.99
1.08393	99.99
1.10060	99.98
1.11727	99.99
1.13393	99.98
1.15060	99.99
1.16727	99.99
1.18393	99.99
1.20060	99.99
1.21727	99.98
1.23393	99.99
1.25060	99.99
1.26727	99.99
1.28393	99.98
1.30060	99.99
1.31727	99.99
1.33393	99.99
1.35060	99.99
1.36727	99.99
1.38393	99.98
1.40060	99.99
1.41727	99.99
1.43393	99.98
1.45060	99.99
1.46727	99.99
1.48393	99.99
1.50060	99.99
1.51727	99.99
1.53393	99.99
1.55060	99.99
1.56727	99.98
1.58393	99.99
1.60060	99.98
1.61727	99.99
1.63393	99.98
1.65060	99.99
1.66727	99.99
1.68393	99.99
1.70060	99.99
1.71727	99.98
1.73393	99.98
1.75060	99.99
1.76727	99.99
1.78393	99.99
1.80060	99.99
1.81727	99.98
1.83393	99.98
1.85060	99.98
1.86727	99.98
1.88393	99.98
1.90060	99.98
1.91727	99.98
1.93393	99.98
1.95060	99.98
1.96727	99.98
1.98393	99.98
2.00060	99.97
2.01727	99.97
2.03393	99.97
2.05060	99.97
2.06727	99.97
2.08393	99.97
2.10060	99.97
2.11727	99.97
2.13393	99.97
2.15060	99.97
2.16727	99.97
2.18393	99.96
2.20060	99.96
2.21727	99.96
2.23393	99.95
2.25060	99.96
2.26727	99.96
2.28393	99.97
2.30060	99.95
2.31727	99.96
2.33393	99.96
2.35060	99.96
2.36727	99.96
2.38393	99.96
2.40060	99.97
2.41727	99.96
2.43393	99.97
2.45060	99.97
2.46727	99.96
2.48393	99.97
2.50060	99.97
2.51727	99.97
2.53393	99.97
2.55060	99.97
2.56727	99.97
2.58393	99.98
2.60060	99.98
2.61727	99.97
2.63393	99.98
2.65060	99.98
2.66727	99.98
2.68393	99.98
2.70060	99.98
2.71727	99.99
2.73393	99.99
2.75060	99.99
2.76727	99.99
2.78393	100.00
2.80060	99.99
2.81727	100.00
2.83393	100.00
2.85060	100.00
2.86727	100.00
2.88393	100.01
2.90060	100.01
2.91727	100.01
2.93393	100.01
2.95060	100.01
2.96727	100.01
2.98393	100.01
3.00060	100.01
3.01727	100.01
3.03393	100.01
3.05060	100.01
3.06727	100.02
3.08393	100.02
3.10060	100.02
3.11727	100.02
3.13393	100.02
3.15060	100.02
3.16727	100.02
3.18393	100.03
3.20060	100.03
3.21727	100.03
3.23393	100.03
3.25060	100.03
3.26727	100.03
3.28393	100.03
3.30060	100.03
3.31727	100.04
3.33393	100.04
3.35060	100.04
3.36727	100.04
3.38393	100.03
3.40060	100.04
3.41727	100.04
3.43393	100.04
3.45060	100.04
3.46727	100.04
3.48393	100.05
3.50060	100.04
3.51727	100.05
3.53393	100.04
3.55060	100.04
3.56727	100.05
3.58393	100.05
3.60060	100.05
3.61727	100.04
3.63393	100.05
3.65060	100.05
3.66727	100.05
3.68393	100.05
3.70060	100.05
3.71727	100.04
3.73393	100.05
3.75060	100.04
3.76727	100.05
3.78393	100.05
3.80060	100.05
3.81727	100.05
3.83393	100.05
3.85060	100.05
3.86727	100.05
3.88393	100.05
3.90060	100.05
3.91727	100.05
3.93393	100.05
3.95060	100.05
3.96727	100.05
3.98393	100.05

[Status Trace (Carrier Gas Pressure)]
Interval(msec)	1000
# of Points	240
Start Time(min)	0.001
End Time(min)	3.984
Intensity Units	
Intensity Multiplier	1
R.Time (min)	Intensity
0.00060	58.00
0.01727	56.63
0.03393	56.07
0.05060	58.26
0.06727	59.91
0.08393	58.45
0.10060	57.97
0.11727	58.00
0.13393	58.01
0.15060	58.01
0.16727	58.00
0.18393	58.00
0.20060	58.00
0.21727	58.00
0.23393	58.00
0.25060	58.00
0.26727	58.00
0.28393	58.00
0.30060	58.00
0.31727	58.00
0.33393	58.00
0.35060	58.00
0.36727	58.00
0.38393	58.00
0.40060	58.00
0.41727	58.00
0.43393	58.00
0.45060	58.00
0.46727	58.00
0.48393	58.00
0.50060	58.00
0.51727	58.00
0.53393	58.00
0.55060	58.00
0.56727	58.00
0.58393	58.00
0.60060	58.00
0.61727	58.00
0.63393	58.00
0.65060	58.00
0.66727	58.00
0.68393	58.00
0.70060	58.00
0.71727	58.00
0.73393	58.00
0.75060	58.00
0.76727	58.00
0.78393	58.00
0.80060	58.00
0.81727	58.00
0.83393	58.00
0.85060	58.00
0.86727	58.00
0.88393	58.00
0.90060	58.00
0.91727	58.00
0.93393	58.00
0.95060	58.00
0.96727	58.00
0.98393	58.00
1.00060	58.00
1.01727	58.00
1.03393	58.00
1.05060	58.00
1.06727	58.00
1.08393	58.00
1.10060	58.00
1.11727	58.00
1.13393	58.00
1.15060	58.00
1.16727	58.00
1.18393	58.00
1.20060	58.00
1.21727	58.00
1.23393	58.00
1.25060	58.00
1.26727	58.00
1.28393	58.00
1.30060	58.00
1.31727	58.00
1.33393	58.00
1.35060	58.00
1.36727	58.00
1.38393	58.00
1.40060	58.00
1.41727	58.00
1.43393	58.00
1.45060	58.00
1.46727	58.00
1.48393	58.00
1.50060	58.00
1.51727	58.00
1.53393	58.00
1.55060	58.00
1.56727	58.00
1.58393	58.00
1.60060	58.00
1.61727	58.00
1.63393	58.00
1.65060	58.00
1.66727	58.01
1.68393	58.01
1.70060	58.00
1.71727	58.00
1.73393	58.00
1.75060	58.00
1.76727	58.00
1.78393	58.00
1.80060	58.00
1.81727	58.00
1.83393	58.00
1.85060	58.00
1.86727	58.00
1.88393	58.00
1.90060	58.00
1.91727	58.00
1.93393	58.00
1.95060	58.00
1.96727	58.00
1.98393	58.00
2.00060	58.00
2.01727	58.00
2.03393	58.00
2.05060	58.00
2.06727	58.00
2.08393	58.00
2.10060	58.00
2.11727	58.00
2.13393	58.00
2.15060	58.00
2.16727	58.00
2.18393	58.00
2.20060	58.00
2.21727	58.00
2.23393	58.00
2.25060	58.00
2.26727	58.00
2.28393	58.00
2.30060	58.00
2.31727	58.00
2.33393	58.00
2.35060	58.00
2.36727	58.00
2.38393	57.99
2.40060	57.99
2.41727	58.00
2.43393	58.00
2.45060	58.00
2.46727	58.00
2.48393	58.00
2.50060	58.00
2.51727	57.99
2.53393	57.99
2.55060	58.00
2.56727	58.00
2.58393	58.00
2.60060	58.00
2.61727	58.00
2.63393	58.00
2.65060	58.00
2.66727	58.00
2.68393	58.00
2.70060	58.00
2.71727	58.00
2.73393	58.00
2.75060	58.00
2.76727	58.00
2.78393	58.00
2.80060	58.00
2.81727	58.00
2.83393	58.00
2.85060	58.00
2.86727	58.00
2.88393	58.00
2.90060	58.00
2.91727	58.00
2.93393	58.00
2.95060	58.00
2.96727	58.00
2.98393	58.00
3.00060	58.00
3.01727	58.00
3.03393	58.00
3.05060	58.00
3.06727	58.00
3.08393	58.00
3.10060	58.00
3.11727	58.00
3.13393	58.00
3.15060	58.00
3.16727	58.00
3.18393	58.00
3.20060	58.00
3.21727	58.00
3.23393	58.00
3.25060	58.00
3.26727	58.00
3.28393	58.00
3.30060	58.00
3.31727	58.00
3.33393	58.00
3.35060	58.00
3.36727	58.00
3.38393	58.00
3.40060	58.00
3.41727	58.00
3.43393	58.00
3.45060	58.00
3.46727	58.00
3.48393	58.00
3.50060	58.00
3.51727	58.00
3.53393	58.00
3.55060	58.00
3.56727	58.00
3.58393	58.00
3.60060	58.00
3.61727	58.00
3.63393	58.00
3.65060	58.00
3.66727	58.00
3.68393	58.00
3.70060	58.00
3.71727	58.00
3.73393	58.00
3.75060	58.00
3.76727	58.00
3.78393	58.00
3.80060	58.00
3.81727	58.00
3.83393	58.00
3.85060	58.00
3.86727	58.00
3.88393	58.00
3.90060	58.00
3.91727	58.00
3.93393	58.00
3.95060	58.00
3.96727	58.00
3.98393	58.00

[Status Trace (Carrier Gas Flow)]
Interval(msec)	1000
# of Points	240
Start Time(min)	0.001
End Time(min)	3.984
Intensity Units	
Intensity Multiplier	1
R.Time (min)	Intensity
0.00060	34.52
0.01727	33.86
0.03393	34.54
0.05060	34.55
0.06727	34.49
0.08393	34.51
0.10060	34.52
0.11727	34.52
0.13393	34.52
0.15060	34.52
0.16727	34.52
0.18393	34.52
0.20060	34.52
0.21727	34.52
0.23393	34.52
0.25060	34.52
0.26727	34.52
0.28393	34.52
0.30060	34.52
0.31727	34.52
0.33393	34.52
0.35060	34.52
0.36727	34.52
0.38393	34.52
0.40060	34.52
0.41727	34.52
0.43393	34.52
0.45060	34.52
0.46727	34.52
0.48393	34.52
0.50060	34.52
0.51727	34.52
0.53393	34.52
0.55060	34.52
0.56727	34.52
0.58393	34.52
0.60060	34.52
0.61727	34.52
0.63393	34.52
0.65060	34.52
0.66727	34.52
0.68393	34.51
0.70060	34.52
0.71727	34.52
0.73393	34.52
0.75060	34.52
0.76727	34.52
0.78393	34.52
0.80060	34.52
0.81727	34.52
0.83393	34.52
0.85060	34.52
0.86727	34.52
0.88393	34.52
0.90060	34.52
0.91727	34.51
0.93393	34.52
0.95060	34.52
0.96727	34.51
0.98393	34.52
1.00060	34.52
1.01727	34.52
1.03393	34.52
1.05060	34.52
1.06727	34.52
1.08393	34.52
1.10060	34.52
1.11727	34.52
1.13393	34.52
1.15060	34.52
1.16727	34.52
1.18393	34.52
1.20060	34.52
1.21727	34.52
1.23393	34.52
1.25060	34.52
1.26727	34.52
1.28393	34.52
1.30060	34.52
1.31727	34.52
1.33393	34.52
1.35060	34.52
1.36727	34.52
1.38393	34.52
1.40060	34.52
1.41727	34.52
1.43393	34.52
1.45060	34.52
1.46727	34.52
1.48393	34.52
1.50060	34.52
1.51727	34.52
1.53393	34.52
1.55060	34.52
1.56727	34.52
1.58393	34.52
1.60060	34.52
1.61727	34.52
1.63393	34.52
1.65060	34.52
1.66727	34.52
1.68393	34.52
1.70060	34.52
1.71727	34.52
1.73393	34.52
1.75060	34.52
1.76727	34.52
1.78393	34.52
1.80060	34.52
1.81727	34.52
1.83393	34.52
1.85060	34.52
1.86727	34.52
1.88393	34.52
1.90060	34.52
1.91727	34.52
1.93393	34.52
1.95060	34.52
1.96727	34.52
1.98393	34.52
2.00060	34.52
2.01727	34.52
2.03393	34.52
2.05060	34.52
2.06727	34.52
2.08393	34.52
2.10060	34.52
2.11727	34.52
2.13393	34.52
2.15060	34.52
2.16727	34.52
2.18393	34.52
2.20060	34.52
2.21727	34.52
2.23393	34.52
2.25060	34.52
2.26727	34.52
2.28393	34.52
2.30060	34.52
2.31727	34.52
2.33393	34.52
2.35060	34.52
2.36727	34.52
2.38393	34.53
2.40060	34.52
2.41727	34.52
2.43393	34.52
2.45060	34.52
2.46727	34.52
2.48393	34.52
2.50060	34.52
2.51727	34.52
2.53393	34.52
2.55060	34.52
2.56727	34.52
2.58393	34.52
2.60060	34.52
2.61727	34.52
2.63393	34.52
2.65060	34.52
2.66727	34.52
2.68393	34.52
2.70060	34.52
2.71727	34.52
2.73393	34.52
2.75060	34.52
2.76727	34.52
2.78393	34.52
2.80060	34.52
2.81727	34.52
2.83393	34.52
2.85060	34.52
2.86727	34.52
2.88393	34.52
2.90060	34.52
2.91727	34.52
2.93393	34.52
2.95060	34.52
2.96727	34.52
2.98393	34.52
3.00060	34.52
3.01727	34.52
3.03393	34.52
3.05060	34.52
3.06727	34.52
3.08393	34.52
3.10060	34.52
3.11727	34.52
3.13393	34.52
3.15060	34.52
3.16727	34.52
3.18393	34.52
3.20060	34.52
3.21727	34.52
3.23393	34.52
3.25060	34.52
3.26727	34.52
3.28393	34.52
3.30060	34.52
3.31727	34.52
3.33393	34.52
3.35060	34.52
3.36727	34.52
3.38393	34.52
3.40060	34.52
3.41727	34.52
3.43393	34.52
3.45060	34.52
3.46727	34.52
3.48393	34.52
3.50060	34.52
3.51727	34.52
3.53393	34.52
3.55060	34.52
3.56727	34.52
3.58393	34.52
3.60060	34.52
3.61727	34.52
3.63393	34.52
3.65060	34.52
3.66727	34.52
3.68393	34.52
3.70060	34.52
3.71727	34.52
3.73393	34.52
3.75060	34.52
3.76727	34.52
3.78393	34.52
3.80060	34.52
3.81727	34.52
3.83393	34.52
3.85060	34.52
3.86727	34.52
3.88393	34.52
3.90060	34.52
3.91727	34.52
3.93393	34.52
3.95060	34.52
3.96727	34.52
3.98393	34.52

[Status Trace (Column Flow)]
Interval(msec)	1000
# of Points	240
Start Time(min)	0.001
End Time(min)	3.984
Intensity Units	
Intensity Multiplier	1
R.Time (min)	Intensity
0.00060	5.52
0.01727	5.36
0.03393	5.30
0.05060	5.55
0.06727	5.75
0.08393	5.57
0.10060	5.52
0.11727	5.52
0.13393	5.52
0.15060	5.52
0.16727	5.52
0.18393	5.52
0.20060	5.52
0.21727	5.52
0.23393	5.52
0.25060	5.52
0.26727	5.52
0.28393	5.52
0.30060	5.52
0.31727	5.52
0.33393	5.52
0.35060	5.52
0.36727	5.52
0.38393	5.52
0.40060	5.52
0.41727	5.52
0.43393	5.52
0.45060	5.52
0.46727	5.52
0.48393	5.52
0.50060	5.52
0.51727	5.52
0.53393	5.52
0.55060	5.52
0.56727	5.52
0.58393	5.52
0.60060	5.52
0.61727	5.52
0.63393	5.52
0.65060	5.52
0.66727	5.52
0.68393	5.52
0.70060	5.52
0.71727	5.52
0.73393	5.52
0.75060	5.52
0.76727	5.52
0.78393	5.52
0.80060	5.52
0.81727	5.52
0.83393	5.52
0.85060	5.52
0.86727	5.52
0.88393	5.52
0.90060	5.52
0.91727	5.52
0.93393	5.52
0.95060	5.52
0.96727	5.52
0.98393	5.52
1.00060	5.52
1.01727	5.52
1.03393	5.52
1.05060	5.52
1.06727	5.52
1.08393	5.52
1.10060	5.52
1.11727	5.52
1.13393	5.52
1.15060	5.52
1.16727	5.52
1.18393	5.52
1.20060	5.52
1.21727	5.52
1.23393	5.52
1.25060	5.52
1.26727	5.52
1.28393	5.52
1.30060	5.52
1.31727	5.52
1.33393	5.52
1.35060	5.52
1.36727	5.52
1.38393	5.52
1.40060	5.52
1.41727	5.52
1.43393	5.52
1.45060	5.52
1.46727	5.52
1.48393	5.52
1.50060	5.52
1.51727	5.52
1.53393	5.52
1.55060	5.52
1.56727	5.52
1.58393	5.52
1.60060	5.52
1.61727	5.52
1.63393	5.51
1.65060	5.51
1.66727	5.50
1.68393	5.49
1.70060	5.47
1.71727	5.46
1.73393	5.45
1.75060	5.44
1.76727	5.43
1.78393	5.42
1.80060	5.41
1.81727	5.40
1.83393	5.39
1.85060	5.38
1.86727	5.37
1.88393	5.36
1.90060	5.35
1.91727	5.34
1.93393	5.33
1.95060	5.32
1.96727	5.31
1.98393	5.30
2.00060	5.29
2.01727	5.28
2.03393	5.27
2.05060	5.27
2.06727	5.25
2.08393	5.25
2.10060	5.24
2.11727	5.23
2.13393	5.22
2.15060	5.21
2.16727	5.20
2.18393	5.19
2.20060	5.18
2.21727	5.17
2.23393	5.16
2.25060	5.15
2.26727	5.14
2.28393	5.13
2.30060	5.13
2.31727	5.12
2.33393	5.11
2.35060	5.10
2.36727	5.09
2.38393	5.09
2.40060	5.09
2.41727	5.09
2.43393	5.09
2.45060	5.09
2.46727	5.09
2.48393	5.09
2.50060	5.09
2.51727	5.08
2.53393	5.08
2.55060	5.08
2.56727	5.08
2.58393	5.08
2.60060	5.08
2.61727	5.08
2.63393	5.08
2.65060	5.08
2.66727	5.08
2.68393	5.08
2.70060	5.08
2.71727	5.08
2.73393	5.08
2.75060	5.08
2.76727	5.08
2.78393	5.08
2.80060	5.08
2.81727	5.08
2.83393	5.08
2.85060	5.08
2.86727	5.08
2.88393	5.08
2.90060	5.08
2.91727	5.08
2.93393	5.08
2.95060	5.08
2.96727	5.08
2.98393	5.08
3.00060	5.08
3.01727	5.08
3.03393	5.08
3.05060	5.08
3.06727	5.08
3.08393	5.08
3.10060	5.08
3.11727	5.08
3.13393	5.08
3.15060	5.08
3.16727	5.08
3.18393	5.08
3.20060	5.08
3.21727	5.08
3.23393	5.08
3.25060	5.08
3.26727	5.08
3.28393	5.08
3.30060	5.08
3.31727	5.08
3.33393	5.08
3.35060	5.08
3.36727	5.08
3.38393	5.08
3.40060	5.08
3.41727	5.08
3.43393	5.08
3.45060	5.08
3.46727	5.08
3.48393	5.08
3.50060	5.08
3.51727	5.08
3.53393	5.08
3.55060	5.08
3.56727	5.08
3.58393	5.08
3.60060	5.08
3.61727	5.08
3.63393	5.08
3.65060	5.08
3.66727	5.08
3.68393	5.08
3.70060	5.08
3.71727	5.08
3.73393	5.08
3.75060	5.08
3.76727	5.08
3.78393	5.08
3.80060	5.08
3.81727	5.08
3.83393	5.08
3.85060	5.08
3.86727	5.08
3.88393	5.08
3.90060	5.08
3.91727	5.08
3.93393	5.08
3.95060	5.08
3.96727	5.08
3.98393	5.08

[Status Trace (Linear Velocity)]
Interval(msec)	1000
# of Points	240
Start Time(min)	0.001
End Time(min)	3.984
Intensity Units	
Intensity Multiplier	1
R.Time (min)	Intensity
0.00060	39.01
0.01727	38.12
0.03393	37.75
0.05060	39.18
0.06727	40.27
0.08393	39.31
0.10060	39.00
0.11727	39.02
0.13393	39.02
0.15060	39.02
0.16727	39.02
0.18393	39.02
0.20060	39.02
0.21727	39.02
0.23393	39.02
0.25060	39.02
0.26727	39.02
0.28393	39.02
0.30060	39.02
0.31727	39.02
0.33393	39.02
0.35060	39.02
0.36727	39.02
0.38393	39.02
0.40060	39.02
0.41727	39.02
0.43393	39.02
0.45060	39.02
0.46727	39.02
0.48393	39.02
0.50060	39.02
0.51727	39.02
0.53393	39.02
0.55060	39.02
0.56727	39.02
0.58393	39.02
0.60060	39.02
0.61727	39.02
0.63393	39.02
0.65060	39.02
0.66727	39.02
0.68393	39.02
0.70060	39.02
0.71727	39.02
0.73393	39.01
0.75060	39.01
0.76727	39.01
0.78393	39.01
0.80060	39.02
0.81727	39.02
0.83393	39.02
0.85060	39.02
0.86727	39.02
0.88393	39.02
0.90060	39.02
0.91727	39.02
0.93393	39.02
0.95060	39.02
0.96727	39.02
0.98393	39.02
1.00060	39.02
1.01727	39.02
1.03393	39.02
1.05060	39.02
1.06727	39.02
1.08393	39.02
1.10060	39.02
1.11727	39.02
1.13393	39.02
1.15060	39.02
1.16727	39.02
1.18393	39.02
1.20060	39.02
1.21727	39.02
1.23393	39.02
1.25060	39.02
1.26727	39.02
1.28393	39.02
1.30060	39.02
1.31727	39.02
1.33393	39.01
1.35060	39.01
1.36727	39.01
1.38393	39.01
1.40060	39.01
1.41727	39.01
1.43393	39.01
1.45060	39.02
1.46727	39.02
1.48393	39.02
1.50060	39.02
1.51727	39.02
1.53393	39.02
1.55060	39.02
1.56727	39.02
1.58393	39.02
1.60060	39.02
1.61727	39.01
1.63393	38.99
1.65060	38.97
1.66727	38.94
1.68393	38.91
1.70060	38.87
1.71727	38.84
1.73393	38.81
1.75060	38.78
1.76727	38.74
1.78393	38.71
1.80060	38.68
1.81727	38.65
1.83393	38.62
1.85060	38.59
1.86727	38.56
1.88393	38.53
1.90060	38.50
1.91727	38.46
1.93393	38.43
1.95060	38.40
1.96727	38.37
1.98393	38.34
2.00060	38.31
2.01727	38.28
2.03393	38.25
2.05060	38.22
2.06727	38.19
2.08393	38.16
2.10060	38.14
2.11727	38.10
2.13393	38.07
2.15060	38.05
2.16727	38.01
2.18393	37.99
2.20060	37.96
2.21727	37.93
2.23393	37.90
2.25060	37.87
2.26727	37.84
2.28393	37.81
2.30060	37.78
2.31727	37.75
2.33393	37.72
2.35060	37.69
2.36727	37.67
2.38393	37.66
2.40060	37.65
2.41727	37.66
2.43393	37.66
2.45060	37.66
2.46727	37.66
2.48393	37.65
2.50060	37.65
2.51727	37.64
2.53393	37.65
2.55060	37.65
2.56727	37.65
2.58393	37.65
2.60060	37.65
2.61727	37.65
2.63393	37.64
2.65060	37.65
2.66727	37.65
2.68393	37.64
2.70060	37.64
2.71727	37.65
2.73393	37.65
2.75060	37.64
2.76727	37.64
2.78393	37.64
2.80060	37.64
2.81727	37.64
2.83393	37.64
2.85060	37.64
2.86727	37.64
2.88393	37.64
2.90060	37.64
2.91727	37.63
2.93393	37.63
2.95060	37.63
2.96727	37.63
2.98393	37.63
3.00060	37.63
3.01727	37.63
3.03393	37.63
3.05060	37.63
3.06727	37.63
3.08393	37.63
3.10060	37.63
3.11727	37.63
3.13393	37.63
3.15060	37.63
3.16727	37.62
3.18393	37.62
3.20060	37.62
3.21727	37.62
3.23393	37.62
3.25060	37.62
3.26727	37.63
3.28393	37.63
3.30060	37.63
3.31727	37.63
3.33393	37.63
3.35060	37.63
3.36727	37.62
3.38393	37.62
3.40060	37.62
3.41727	37.63
3.43393	37.63
3.45060	37.63
3.46727	37.63
3.48393	37.63
3.50060	37.63
3.51727	37.62
3.53393	37.62
3.55060	37.62
3.56727	37.62
3.58393	37.63
3.60060	37.63
3.61727	37.63
3.63393	37.63
3.65060	37.63
3.66727	37.63
3.68393	37.63
3.70060	37.63
3.71727	37.63
3.73393	37.63
3.75060	37.63
3.76727	37.63
3.78393	37.63
3.80060	37.63
3.81727	37.63
3.83393	37.63
3.85060	37.63
3.86727	37.63
3.88393	37.63
3.90060	37.63
3.91727	37.63
3.93393	37.63
3.95060	37.63
3.96727	37.63
3.98393	37.63

