[Header]
Application Name	LabSolutions
Version	5.110
Data File Name	C:\Users\User\Desktop\GC Analyses\Jack\UIC Prairie Sampling\9.16.22\220916_061.gcd
Output Date	11/29/2022
Output Time	11:10:19 AM

[File Information]
Type	Data File
Generated	11/15/2022 2:04:24 PM
Generated by	System Administrator
Modified	11/15/2022 2:08:42 PM
Modified by	System Administrator

[Sample Information]
Operator Name	System Administrator
Acquired	11/15/2022 2:04:41 PM
Sample Type	1:Standard
Level	1
Sample Name	220916_UICPrairie
Sample ID	220916_UICPrairie
ISTD Amount1	1
ISTD Amount2	1
ISTD Amount3	1
ISTD Amount4	1
ISTD Amount5	1
ISTD Amount6	1
ISTD Amount7	1
ISTD Amount8	1
ISTD Amount9	1
ISTD Amount10	1
ISTD Amount11	1
ISTD Amount12	1
ISTD Amount13	1
ISTD Amount14	1
ISTD Amount15	1
ISTD Amount16	1
ISTD Amount17	1
ISTD Amount18	1
ISTD Amount19	1
ISTD Amount20	1
ISTD Amount21	1
ISTD Amount22	1
ISTD Amount23	1
ISTD Amount24	1
ISTD Amount25	1
ISTD Amount26	1
ISTD Amount27	1
ISTD Amount28	1
ISTD Amount29	1
ISTD Amount30	1
ISTD Amount31	1
ISTD Amount32	1
Sample Amount	1
Dilution Factor	1
Vial#	1
Injection Volume	1
Injection Count	1
Bar Code	

[Original Files]
Data File	C:\Users\User\Desktop\GC Analyses\Jack\UIC Prairie Sampling\9.16.22\220916_061.gcd
Method File	C:\LabSolutions\Data\GHG_4min_2022\ghg3_togas_w_acet_4 min_new_int.gcm
Batch File	
Report Format File	c:\LabSolutions\System\DEFAULT.lsr

[File Description]


[Configuration]
Instrument Name	C0B7VH3-Instrument1
Instrument #	1
Line #	1
# of Detectors	3
Detector ID	DET#1	DET#2	DET#3
Detector Name	FID	PTCD	ECD
# of Channels	1	1	1

[Peak Table(Ch1)]
# of Peaks	3
Peak#	R.Time	I.Time	F.Time	Area	Height	A/H	Conc.	Mark	ID#	Name	k'	Plate #	Plate Ht.	Tailing	Resolution	Sep.Factor	Area Ratio	Height Ratio	Conc. %	Norm Conc.
1	1.487	1.443	1.549	2573	1334	1.929	100.000	   	1	CO	0.000	11190	13.405	1.311	0.000	0.000	0	0	16.667	16.667
2	1.578	1.560	1.604	810	636	1.274	100.000	   	2	CH4	0.062	26476	5.665	1.210	1.929	0.000	0	0	16.667	16.667
3	2.007	1.960	2.202	338181	200678	1.685	400.000	   	3	CO2	0.350	25892	5.793	1.413	9.673	5.680	0	0	66.667	66.667

[Peak Table(Ch2)]
# of Peaks	0

[Peak Table(Ch3)]
# of Peaks	4
Peak#	R.Time	I.Time	F.Time	Area	Height	A/H	Conc.	Mark	ID#	Name	k'	Plate #	Plate Ht.	Tailing	Resolution	Sep.Factor	Area Ratio	Height Ratio	Conc. %	Norm Conc.
1	2.458	2.326	2.506	768	172	4.460	0.000	   			0.000	7615	19.697	0.000	0.000	0.000	0	0	0.000	0.000
2	2.532	2.506	2.568	318	101	3.138	0.000	 V 			0.030	3019	49.692	0.000	0.494	0.000	0	0	0.000	0.000
3	2.623	2.568	2.656	397	103	3.861	0.000	 V 			0.067	2900	51.721	0.000	0.484	2.250	0	0	0.000	0.000
4	2.891	2.686	3.874	29881	1966	15.198	1.000	   	1	N2O	0.176	7679	19.535	4.344	1.638	2.622	0	0	100.000	100.000

[Compound Results(Ch1)]
# of IDs	6
ID#	Name	R.Time	Area	Height	Conc.	Curve	3rd	2nd	1st	Constant	Area Ratio	Height Ratio	Conc. %	Norm Conc.
1	CO	1.487	2573	1334	100.000	Linear	0.000000e+00	0.000000e+00	2.572808e+001	0.000000e+00	0	0	16.667	16.667
2	CH4	1.578	810	636	100.000	Linear	0.000000e+00	0.000000e+00	8.099370e+000	0.000000e+00	0	0	16.667	16.667
3	CO2	2.007	338181	200678	400.000	Linear	0.000000e+00	0.000000e+00	8.454526e+002	0.000000e+00	0	0	66.667	66.667
4	Ethylene	0.000	0	0	0.000	Linear	0.000000e+00	0.000000e+00	0.000000e+00	0.000000e+00	0	0	0.000	0.000
5	Acetylene	0.000	0	0	0.000	Linear	0.000000e+00	0.000000e+00	0.000000e+00	0.000000e+00	0	0	0.000	0.000
6	Ethane	0.000	0	0	0.000	Linear	0.000000e+00	0.000000e+00	0.000000e+00	0.000000e+00	0	0	0.000	0.000

[Compound Results(Ch2)]
# of IDs	5
ID#	Name	R.Time	Area	Height	Conc.	Curve	3rd	2nd	1st	Constant	Area Ratio	Height Ratio	Conc. %	Norm Conc.
1	Hydrogen	0.000	0	0	0.000	Linear	0.000000e+00	0.000000e+00	0.000000e+00	0.000000e+00	0	0	0.000	0.000
2	Oxygen	0.000	0	0	0.000	Linear	0.000000e+00	0.000000e+00	0.000000e+00	0.000000e+00	0	0	0.000	0.000
3	Nitrogen	0.000	0	0	0.000	Linear	0.000000e+00	0.000000e+00	0.000000e+00	0.000000e+00	0	0	0.000	0.000
4	Methane	0.000	0	0	0.000	Linear	0.000000e+00	0.000000e+00	0.000000e+00	0.000000e+00	0	0	0.000	0.000
5	Carbon Monoxide	0.000	0	0	0.000	Linear	0.000000e+00	0.000000e+00	0.000000e+00	0.000000e+00	0	0	0.000	0.000

[Compound Results(Ch3)]
# of IDs	2
ID#	Name	R.Time	Area	Height	Conc.	Curve	3rd	2nd	1st	Constant	Area Ratio	Height Ratio	Conc. %	Norm Conc.
1	N2O	2.891	29881	1966	1.000	Linear	0.000000e+00	0.000000e+00	2.988066e+004	0.000000e+00	0	0	100.000	100.000
2	SF6	0.000	0	0	0.000	Linear	0.000000e+00	0.000000e+00	0.000000e+00	0.000000e+00	0	0	0.000	0.000

[Group Results(Ch1)]
# of Groups	0

[Group Results(Ch2)]
# of Groups	0

[Group Results(Ch3)]
# of Groups	0

[Chromatogram (Ch1)]
Interval(msec)	220
# of Points	1091
Start Time(min)	0.002
End Time(min)	3.998
R.Time (min)	Intensity
0.00167	16
0.00533	16
0.00900	13
0.01267	9
0.01633	5
0.02000	1
0.02367	-3
0.02733	-4
0.03100	-1
0.03467	4
0.03833	12
0.04200	17
0.04567	16
0.04933	9
0.05300	3
0.05667	-1
0.06033	2
0.06400	9
0.06767	15
0.07133	14
0.07500	10
0.07867	4
0.08233	0
0.08600	-1
0.08967	-2
0.09333	-6
0.09700	-13
0.10067	-20
0.10433	-24
0.10800	-22
0.11167	-17
0.11533	-14
0.11900	-10
0.12267	-4
0.12633	3
0.13000	8
0.13367	10
0.13733	12
0.14100	13
0.14467	16
0.14833	20
0.15200	22
0.15567	21
0.15933	16
0.16300	12
0.16667	12
0.17033	14
0.17400	16
0.17767	15
0.18133	9
0.18500	-3
0.18867	-14
0.19233	-21
0.19600	-25
0.19967	-29
0.20333	-30
0.20700	-26
0.21067	-16
0.21433	-6
0.21800	1
0.22167	7
0.22533	13
0.22900	18
0.23267	22
0.23633	22
0.24000	21
0.24367	17
0.24733	9
0.25100	0
0.25467	-5
0.25833	-7
0.26200	-6
0.26567	-7
0.26933	-6
0.27300	-2
0.27667	3
0.28033	4
0.28400	2
0.28767	-1
0.29133	-4
0.29500	-2
0.29867	0
0.30233	0
0.30600	-1
0.30967	-2
0.31333	-4
0.31700	-6
0.32067	-6
0.32433	-5
0.32800	-5
0.33167	-4
0.33533	-2
0.33900	-2
0.34267	-4
0.34633	-4
0.35000	-2
0.35367	-3
0.35733	-9
0.36100	-14
0.36467	-14
0.36833	-13
0.37200	-12
0.37567	-11
0.37933	-7
0.38300	-2
0.38667	4
0.39033	6
0.39400	8
0.39767	7
0.40133	6
0.40500	8
0.40867	8
0.41233	7
0.41600	4
0.41967	-0
0.42333	-5
0.42700	-7
0.43067	-7
0.43433	-4
0.43800	2
0.44167	7
0.44533	6
0.44900	3
0.45267	2
0.45633	1
0.46000	-1
0.46367	-4
0.46733	-8
0.47100	-12
0.47467	-14
0.47833	-14
0.48200	-13
0.48567	-8
0.48933	-3
0.49300	3
0.49667	5
0.50033	2
0.50400	-4
0.50767	-12
0.51133	-17
0.51500	-17
0.51867	-14
0.52233	-12
0.52600	-12
0.52967	-9
0.53333	-4
0.53700	-3
0.54067	-11
0.54433	-21
0.54800	-27
0.55167	-27
0.55533	-25
0.55900	-23
0.56267	-21
0.56633	-15
0.57000	-10
0.57367	-8
0.57733	-7
0.58100	-7
0.58467	-7
0.58833	-9
0.59200	-14
0.59567	-15
0.59933	-17
0.60300	-21
0.60667	-23
0.61033	-23
0.61400	-22
0.61767	-20
0.62133	-15
0.62500	-10
0.62867	-7
0.63233	-7
0.63600	-7
0.63967	-9
0.64333	-12
0.64700	-15
0.65067	-18
0.65433	-15
0.65800	-6
0.66167	5
0.66533	13
0.66900	13
0.67267	3
0.67633	-8
0.68000	-13
0.68367	-16
0.68733	-16
0.69100	-16
0.69467	-16
0.69833	-15
0.70200	-15
0.70567	-16
0.70933	-13
0.71300	-9
0.71667	-5
0.72033	1
0.72400	7
0.72767	8
0.73133	6
0.73500	0
0.73867	-8
0.74233	-16
0.74600	-21
0.74967	-21
0.75333	-20
0.75700	-20
0.76067	-21
0.76433	-22
0.76800	-21
0.77167	-19
0.77533	-16
0.77900	-11
0.78267	-7
0.78633	-3
0.79000	-1
0.79367	-2
0.79733	-4
0.80100	-7
0.80467	-9
0.80833	-13
0.81200	-18
0.81567	-24
0.81933	-27
0.82300	-23
0.82667	-16
0.83033	-12
0.83400	-11
0.83767	-14
0.84133	-17
0.84500	-19
0.84867	-17
0.85233	-16
0.85600	-14
0.85967	-11
0.86333	-7
0.86700	-7
0.87067	-12
0.87433	-19
0.87800	-24
0.88167	-27
0.88533	-26
0.88900	-25
0.89267	-26
0.89633	-25
0.90000	-24
0.90367	-23
0.90733	-21
0.91100	-20
0.91467	-19
0.91833	-17
0.92200	-13
0.92567	-10
0.92933	-8
0.93300	-10
0.93667	-12
0.94033	-14
0.94400	-17
0.94767	-20
0.95133	-18
0.95500	-13
0.95867	-6
0.96233	-2
0.96600	-2
0.96967	-3
0.97333	-6
0.97700	-9
0.98067	-10
0.98433	-9
0.98800	-9
0.99167	-11
0.99533	-14
0.99900	-20
1.00267	-26
1.00633	-28
1.01000	-30
1.01367	-30
1.01733	-29
1.02100	-27
1.02467	-26
1.02833	-27
1.03200	-30
1.03567	-33
1.03933	-34
1.04300	-32
1.04667	-26
1.05033	-22
1.05400	-23
1.05767	-27
1.06133	-32
1.06500	-35
1.06867	-37
1.07233	-40
1.07600	-40
1.07967	-38
1.08333	-35
1.08700	-32
1.09067	-29
1.09433	-28
1.09800	-28
1.10167	-27
1.10533	-24
1.10900	-20
1.11267	-18
1.11633	-15
1.12000	-11
1.12367	-9
1.12733	-8
1.13100	-11
1.13467	-21
1.13833	-29
1.14200	-34
1.14567	-35
1.14933	-36
1.15300	-37
1.15667	-36
1.16033	-33
1.16400	-28
1.16767	-25
1.17133	-26
1.17500	-28
1.17867	-29
1.18233	-28
1.18600	-26
1.18967	-24
1.19333	-22
1.19700	-21
1.20067	-21
1.20433	-25
1.20800	-30
1.21167	-34
1.21533	-35
1.21900	-34
1.22267	-30
1.22633	-26
1.23000	-22
1.23367	-21
1.23733	-21
1.24100	-19
1.24467	-19
1.24833	-23
1.25200	-28
1.25567	-33
1.25933	-35
1.26300	-33
1.26667	-29
1.27033	-24
1.27400	-18
1.27767	-14
1.28133	-13
1.28500	-17
1.28867	-22
1.29233	-29
1.29600	-34
1.29967	-37
1.30333	-38
1.30700	-37
1.31067	-36
1.31433	-34
1.31800	-33
1.32167	-32
1.32533	-29
1.32900	-29
1.33267	-31
1.33633	-33
1.34000	-32
1.34367	-28
1.34733	-23
1.35100	-18
1.35467	-14
1.35833	-13
1.36200	-20
1.36567	-29
1.36933	-34
1.37300	-33
1.37667	-30
1.38033	-28
1.38400	-25
1.38767	-21
1.39133	-17
1.39500	-14
1.39867	-12
1.40233	-13
1.40600	-16
1.40967	-19
1.41333	-23
1.41700	-29
1.42067	-34
1.42433	-38
1.42800	-38
1.43167	-37
1.43533	-38
1.43900	-38
1.44267	-34
1.44633	-24
1.45000	-12
1.45367	-4
1.45733	0
1.46100	33
1.46467	158
1.46833	380
1.47200	642
1.47567	905
1.47933	1139
1.48300	1285
1.48667	1301
1.49033	1192
1.49400	1008
1.49767	799
1.50133	602
1.50500	439
1.50867	317
1.51233	228
1.51600	162
1.51967	111
1.52333	72
1.52700	43
1.53067	21
1.53433	6
1.53800	-3
1.54167	-11
1.54533	-21
1.54900	-32
1.55267	-41
1.55633	-41
1.56000	-19
1.56367	52
1.56733	201
1.57100	403
1.57467	577
1.57833	649
1.58200	608
1.58567	500
1.58933	373
1.59300	260
1.59667	170
1.60033	105
1.60400	58
1.60767	26
1.61133	5
1.61500	-9
1.61867	-18
1.62233	-24
1.62600	-27
1.62967	-26
1.63333	-21
1.63700	-16
1.64067	-12
1.64433	-10
1.64800	-9
1.65167	-11
1.65533	-15
1.65900	-16
1.66267	-16
1.66633	-14
1.67000	-15
1.67367	-18
1.67733	-18
1.68100	-16
1.68467	-13
1.68833	-13
1.69200	-17
1.69567	-24
1.69933	-31
1.70300	-35
1.70667	-36
1.71033	-35
1.71400	-36
1.71767	-37
1.72133	-40
1.72500	-44
1.72867	-45
1.73233	-44
1.73600	-41
1.73967	-38
1.74333	-36
1.74700	-35
1.75067	-33
1.75433	-31
1.75800	-28
1.76167	-23
1.76533	-20
1.76900	-18
1.77267	-16
1.77633	-14
1.78000	-11
1.78367	-10
1.78733	-10
1.79100	-11
1.79467	-15
1.79833	-16
1.80200	-14
1.80567	-13
1.80933	-12
1.81300	-12
1.81667	-13
1.82033	-15
1.82400	-16
1.82767	-18
1.83133	-18
1.83500	-19
1.83867	-22
1.84233	-25
1.84600	-30
1.84967	-37
1.85333	-44
1.85700	-46
1.86067	-45
1.86433	-42
1.86800	-39
1.87167	-38
1.87533	-37
1.87900	-33
1.88267	-30
1.88633	-27
1.89000	-25
1.89367	-20
1.89733	-14
1.90100	-7
1.90467	-2
1.90833	-1
1.91200	-5
1.91567	-13
1.91933	-20
1.92300	-22
1.92667	-17
1.93033	-9
1.93400	-4
1.93767	-7
1.94133	-14
1.94500	-19
1.94867	-23
1.95233	-23
1.95600	-20
1.95967	-13
1.96333	0
1.96700	19
1.97067	49
1.97433	131
1.97800	432
1.98167	1644
1.98533	5927
1.98900	17811
1.99267	43129
1.99633	84205
2.00000	134160
2.00367	177846
2.00733	200706
2.01100	197630
2.01467	174049
2.01833	140331
2.02200	105818
2.02567	76027
2.02933	52868
2.03300	36045
2.03667	24354
2.04033	16461
2.04400	11225
2.04767	7785
2.05133	5530
2.05500	4047
2.05867	3059
2.06233	2385
2.06600	1916
2.06967	1583
2.07333	1342
2.07700	1161
2.08067	1023
2.08433	914
2.08800	822
2.09167	742
2.09533	674
2.09900	619
2.10267	572
2.10633	533
2.11000	502
2.11367	475
2.11733	453
2.12100	432
2.12467	410
2.12833	386
2.13200	363
2.13567	344
2.13933	330
2.14300	316
2.14667	302
2.15033	286
2.15400	272
2.15767	262
2.16133	254
2.16500	248
2.16867	240
2.17233	230
2.17600	223
2.17967	219
2.18333	215
2.18700	211
2.19067	207
2.19433	202
2.19800	197
2.20167	196
2.20533	199
2.20900	199
2.21267	198
2.21633	194
2.22000	191
2.22367	187
2.22733	179
2.23100	172
2.23467	167
2.23833	164
2.24200	163
2.24567	161
2.24933	161
2.25300	161
2.25667	156
2.26033	146
2.26400	139
2.26767	135
2.27133	130
2.27500	122
2.27867	115
2.28233	112
2.28600	113
2.28967	119
2.29333	126
2.29700	130
2.30067	135
2.30433	140
2.30800	143
2.31167	142
2.31533	136
2.31900	127
2.32267	118
2.32633	112
2.33000	112
2.33367	113
2.33733	110
2.34100	104
2.34467	101
2.34833	101
2.35200	102
2.35567	102
2.35933	105
2.36300	110
2.36667	112
2.37033	115
2.37400	120
2.37767	123
2.38133	124
2.38500	124
2.38867	125
2.39233	128
2.39600	130
2.39967	131
2.40333	130
2.40700	130
2.41067	129
2.41433	126
2.41800	122
2.42167	118
2.42533	113
2.42900	105
2.43267	96
2.43633	88
2.44000	84
2.44367	88
2.44733	99
2.45100	109
2.45467	116
2.45833	121
2.46200	123
2.46567	120
2.46933	112
2.47300	102
2.47667	95
2.48033	91
2.48400	89
2.48767	87
2.49133	87
2.49500	89
2.49867	93
2.50233	98
2.50600	101
2.50967	103
2.51333	103
2.51700	100
2.52067	99
2.52433	100
2.52800	102
2.53167	103
2.53533	104
2.53900	106
2.54267	111
2.54633	114
2.55000	115
2.55367	113
2.55733	109
2.56100	106
2.56467	105
2.56833	107
2.57200	110
2.57567	110
2.57933	109
2.58300	108
2.58667	107
2.59033	108
2.59400	107
2.59767	102
2.60133	98
2.60500	96
2.60867	95
2.61233	95
2.61600	95
2.61967	93
2.62333	90
2.62700	89
2.63067	91
2.63433	94
2.63800	97
2.64167	97
2.64533	97
2.64900	100
2.65267	104
2.65633	107
2.66000	108
2.66367	107
2.66733	107
2.67100	110
2.67467	112
2.67833	111
2.68200	109
2.68567	105
2.68933	103
2.69300	106
2.69667	111
2.70033	115
2.70400	115
2.70767	113
2.71133	112
2.71500	111
2.71867	108
2.72233	104
2.72600	101
2.72967	101
2.73333	103
2.73700	110
2.74067	120
2.74433	125
2.74800	124
2.75167	119
2.75533	115
2.75900	111
2.76267	107
2.76633	104
2.77000	104
2.77367	105
2.77733	106
2.78100	104
2.78467	101
2.78833	99
2.79200	97
2.79567	97
2.79933	98
2.80300	103
2.80667	107
2.81033	110
2.81400	113
2.81767	115
2.82133	116
2.82500	114
2.82867	110
2.83233	109
2.83600	108
2.83967	107
2.84333	106
2.84700	105
2.85067	108
2.85433	116
2.85800	127
2.86167	139
2.86533	150
2.86900	157
2.87267	159
2.87633	154
2.88000	144
2.88367	132
2.88733	120
2.89100	109
2.89467	101
2.89833	95
2.90200	90
2.90567	87
2.90933	89
2.91300	96
2.91667	104
2.92033	110
2.92400	112
2.92767	118
2.93133	124
2.93500	127
2.93867	126
2.94233	121
2.94600	116
2.94967	110
2.95333	105
2.95700	101
2.96067	99
2.96433	101
2.96800	107
2.97167	115
2.97533	118
2.97900	116
2.98267	116
2.98633	118
2.99000	121
2.99367	124
2.99733	126
3.00100	126
3.00467	121
3.00833	116
3.01200	118
3.01567	126
3.01933	131
3.02300	132
3.02667	130
3.03033	127
3.03400	125
3.03767	123
3.04133	121
3.04500	121
3.04867	120
3.05233	117
3.05600	120
3.05967	128
3.06333	138
3.06700	143
3.07067	143
3.07433	141
3.07800	140
3.08167	137
3.08533	132
3.08900	127
3.09267	125
3.09633	128
3.10000	134
3.10367	140
3.10733	143
3.11100	146
3.11467	146
3.11833	141
3.12200	133
3.12567	124
3.12933	121
3.13300	126
3.13667	131
3.14033	132
3.14400	133
3.14767	134
3.15133	132
3.15500	129
3.15867	126
3.16233	124
3.16600	121
3.16967	118
3.17333	117
3.17700	122
3.18067	128
3.18433	131
3.18800	132
3.19167	133
3.19533	133
3.19900	133
3.20267	132
3.20633	133
3.21000	138
3.21367	140
3.21733	140
3.22100	139
3.22467	137
3.22833	134
3.23200	132
3.23567	132
3.23933	132
3.24300	132
3.24667	132
3.25033	135
3.25400	143
3.25767	150
3.26133	152
3.26500	152
3.26867	148
3.27233	140
3.27600	132
3.27967	128
3.28333	130
3.28700	134
3.29067	136
3.29433	135
3.29800	135
3.30167	135
3.30533	133
3.30900	128
3.31267	121
3.31633	116
3.32000	116
3.32367	118
3.32733	121
3.33100	123
3.33467	125
3.33833	129
3.34200	137
3.34567	143
3.34933	144
3.35300	141
3.35667	136
3.36033	129
3.36400	122
3.36767	118
3.37133	118
3.37500	123
3.37867	130
3.38233	135
3.38600	135
3.38967	131
3.39333	125
3.39700	119
3.40067	112
3.40433	107
3.40800	104
3.41167	105
3.41533	110
3.41900	116
3.42267	124
3.42633	132
3.43000	138
3.43367	141
3.43733	140
3.44100	136
3.44467	129
3.44833	125
3.45200	127
3.45567	133
3.45933	138
3.46300	137
3.46667	132
3.47033	126
3.47400	120
3.47767	118
3.48133	119
3.48500	122
3.48867	126
3.49233	132
3.49600	138
3.49967	143
3.50333	144
3.50700	145
3.51067	141
3.51433	135
3.51800	130
3.52167	123
3.52533	119
3.52900	117
3.53267	116
3.53633	118
3.54000	122
3.54367	130
3.54733	136
3.55100	139
3.55467	139
3.55833	136
3.56200	130
3.56567	126
3.56933	124
3.57300	126
3.57667	129
3.58033	133
3.58400	136
3.58767	133
3.59133	126
3.59500	119
3.59867	116
3.60233	113
3.60600	107
3.60967	99
3.61333	93
3.61700	93
3.62067	98
3.62433	107
3.62800	119
3.63167	128
3.63533	130
3.63900	128
3.64267	120
3.64633	114
3.65000	110
3.65367	111
3.65733	114
3.66100	119
3.66467	122
3.66833	119
3.67200	113
3.67567	104
3.67933	98
3.68300	95
3.68667	99
3.69033	105
3.69400	111
3.69767	115
3.70133	118
3.70500	120
3.70867	120
3.71233	120
3.71600	121
3.71967	122
3.72333	121
3.72700	118
3.73067	114
3.73433	112
3.73800	111
3.74167	109
3.74533	109
3.74900	113
3.75267	120
3.75633	129
3.76000	135
3.76367	140
3.76733	143
3.77100	144
3.77467	138
3.77833	131
3.78200	125
3.78567	124
3.78933	126
3.79300	124
3.79667	118
3.80033	112
3.80400	109
3.80767	108
3.81133	111
3.81500	115
3.81867	116
3.82233	117
3.82600	115
3.82967	113
3.83333	110
3.83700	110
3.84067	111
3.84433	111
3.84800	108
3.85167	104
3.85533	100
3.85900	97
3.86267	98
3.86633	104
3.87000	111
3.87367	117
3.87733	119
3.88100	116
3.88467	112
3.88833	109
3.89200	109
3.89567	116
3.89933	125
3.90300	132
3.90667	136
3.91033	137
3.91400	133
3.91767	126
3.92133	115
3.92500	105
3.92867	99
3.93233	95
3.93600	89
3.93967	82
3.94333	79
3.94700	86
3.95067	100
3.95433	106
3.95800	106
3.96167	107
3.96533	108
3.96900	112
3.97267	115
3.97633	117
3.98000	118
3.98367	118
3.98733	116
3.99100	117
3.99467	121
3.99833	124

[Chromatogram (Ch2)]
Interval(msec)	220
# of Points	1091
Start Time(min)	0.002
End Time(min)	3.998
R.Time (min)	Intensity
0.00167	0
0.00533	0
0.00900	0
0.01267	0
0.01633	-0
0.02000	-0
0.02367	-1
0.02733	-1
0.03100	-1
0.03467	-2
0.03833	-2
0.04200	-2
0.04567	-2
0.04933	-2
0.05300	-2
0.05667	-2
0.06033	-2
0.06400	-2
0.06767	-1
0.07133	-1
0.07500	-1
0.07867	-1
0.08233	-0
0.08600	-0
0.08967	-0
0.09333	0
0.09700	0
0.10067	0
0.10433	0
0.10800	0
0.11167	1
0.11533	1
0.11900	1
0.12267	0
0.12633	0
0.13000	-0
0.13367	-0
0.13733	-0
0.14100	-0
0.14467	-0
0.14833	-1
0.15200	-1
0.15567	-1
0.15933	-1
0.16300	-1
0.16667	-1
0.17033	-1
0.17400	-1
0.17767	-1
0.18133	-1
0.18500	-2
0.18867	-2
0.19233	-2
0.19600	-2
0.19967	-2
0.20333	-1
0.20700	-1
0.21067	-1
0.21433	-2
0.21800	-2
0.22167	-2
0.22533	-2
0.22900	-2
0.23267	-3
0.23633	-3
0.24000	-3
0.24367	-3
0.24733	-3
0.25100	-2
0.25467	-2
0.25833	-2
0.26200	-2
0.26567	-2
0.26933	-2
0.27300	-2
0.27667	-3
0.28033	-3
0.28400	-3
0.28767	-3
0.29133	-3
0.29500	-3
0.29867	-3
0.30233	-3
0.30600	-3
0.30967	-3
0.31333	-4
0.31700	-4
0.32067	-3
0.32433	-3
0.32800	-3
0.33167	-3
0.33533	-3
0.33900	-3
0.34267	-3
0.34633	-3
0.35000	-3
0.35367	-3
0.35733	-3
0.36100	-4
0.36467	-4
0.36833	-4
0.37200	-4
0.37567	-4
0.37933	-4
0.38300	-4
0.38667	-3
0.39033	-3
0.39400	-3
0.39767	-3
0.40133	-3
0.40500	-2
0.40867	-2
0.41233	-2
0.41600	-2
0.41967	-2
0.42333	-1
0.42700	-1
0.43067	-1
0.43433	-0
0.43800	-0
0.44167	-0
0.44533	-0
0.44900	-0
0.45267	-1
0.45633	-1
0.46000	-1
0.46367	-2
0.46733	-2
0.47100	-2
0.47467	-2
0.47833	-2
0.48200	-2
0.48567	-2
0.48933	-2
0.49300	-2
0.49667	-2
0.50033	-2
0.50400	-2
0.50767	-2
0.51133	-2
0.51500	-2
0.51867	-2
0.52233	-2
0.52600	-2
0.52967	-2
0.53333	-2
0.53700	-2
0.54067	-2
0.54433	-2
0.54800	-2
0.55167	-2
0.55533	-2
0.55900	-2
0.56267	-2
0.56633	-2
0.57000	-2
0.57367	-2
0.57733	-2
0.58100	-2
0.58467	-2
0.58833	-2
0.59200	-3
0.59567	-3
0.59933	-3
0.60300	-3
0.60667	-3
0.61033	-3
0.61400	-3
0.61767	-3
0.62133	-3
0.62500	-3
0.62867	-3
0.63233	-3
0.63600	-3
0.63967	-3
0.64333	-3
0.64700	-3
0.65067	-3
0.65433	-3
0.65800	-3
0.66167	-3
0.66533	-3
0.66900	-3
0.67267	-3
0.67633	-3
0.68000	-3
0.68367	-3
0.68733	-3
0.69100	-3
0.69467	-3
0.69833	-3
0.70200	-3
0.70567	-3
0.70933	-3
0.71300	-3
0.71667	-4
0.72033	-4
0.72400	-4
0.72767	-5
0.73133	-5
0.73500	-5
0.73867	-6
0.74233	-6
0.74600	-6
0.74967	-6
0.75333	-6
0.75700	-7
0.76067	-7
0.76433	-7
0.76800	-7
0.77167	-7
0.77533	-7
0.77900	-7
0.78267	-6
0.78633	-5
0.79000	-5
0.79367	-4
0.79733	-3
0.80100	-3
0.80467	-3
0.80833	-2
0.81200	-2
0.81567	-2
0.81933	-2
0.82300	-2
0.82667	-2
0.83033	-2
0.83400	-3
0.83767	-3
0.84133	-3
0.84500	-3
0.84867	-3
0.85233	-3
0.85600	-4
0.85967	-4
0.86333	-4
0.86700	-5
0.87067	-5
0.87433	-5
0.87800	-5
0.88167	-5
0.88533	-4
0.88900	-4
0.89267	-4
0.89633	-4
0.90000	-4
0.90367	-4
0.90733	-4
0.91100	-3
0.91467	-3
0.91833	-3
0.92200	-2
0.92567	-2
0.92933	-2
0.93300	-2
0.93667	-2
0.94033	-2
0.94400	-2
0.94767	-2
0.95133	-2
0.95500	-2
0.95867	-2
0.96233	-2
0.96600	-2
0.96967	-2
0.97333	-2
0.97700	-1
0.98067	-1
0.98433	-1
0.98800	-1
0.99167	-1
0.99533	-1
0.99900	-1
1.00267	-1
1.00633	-1
1.01000	-1
1.01367	-1
1.01733	-1
1.02100	-1
1.02467	-1
1.02833	-1
1.03200	-1
1.03567	-1
1.03933	-1
1.04300	-1
1.04667	-2
1.05033	-2
1.05400	-2
1.05767	-2
1.06133	-2
1.06500	-2
1.06867	-2
1.07233	-2
1.07600	-3
1.07967	-3
1.08333	-3
1.08700	-3
1.09067	-3
1.09433	-3
1.09800	-3
1.10167	-2
1.10533	-3
1.10900	-3
1.11267	-3
1.11633	-4
1.12000	-4
1.12367	-4
1.12733	-4
1.13100	-4
1.13467	-4
1.13833	-4
1.14200	-4
1.14567	-4
1.14933	-4
1.15300	-4
1.15667	-4
1.16033	-4
1.16400	-4
1.16767	-4
1.17133	-4
1.17500	-4
1.17867	-4
1.18233	-3
1.18600	-3
1.18967	-3
1.19333	-3
1.19700	-3
1.20067	-3
1.20433	-3
1.20800	-3
1.21167	-3
1.21533	-3
1.21900	-3
1.22267	-3
1.22633	-3
1.23000	-3
1.23367	-3
1.23733	-4
1.24100	-4
1.24467	-4
1.24833	-4
1.25200	-4
1.25567	-4
1.25933	-4
1.26300	-4
1.26667	-4
1.27033	-4
1.27400	-3
1.27767	-3
1.28133	-3
1.28500	-3
1.28867	-2
1.29233	-2
1.29600	-2
1.29967	-2
1.30333	-2
1.30700	-2
1.31067	-2
1.31433	-2
1.31800	-2
1.32167	-2
1.32533	-2
1.32900	-2
1.33267	-2
1.33633	-3
1.34000	-3
1.34367	-3
1.34733	-3
1.35100	-3
1.35467	-3
1.35833	-3
1.36200	-3
1.36567	-3
1.36933	-2
1.37300	-2
1.37667	-2
1.38033	-2
1.38400	-2
1.38767	-2
1.39133	-3
1.39500	-3
1.39867	-3
1.40233	-3
1.40600	-4
1.40967	-4
1.41333	-4
1.41700	-5
1.42067	-5
1.42433	-6
1.42800	-6
1.43167	-6
1.43533	-7
1.43900	-7
1.44267	-7
1.44633	-7
1.45000	-7
1.45367	-8
1.45733	-7
1.46100	-7
1.46467	-7
1.46833	-7
1.47200	-7
1.47567	-7
1.47933	-6
1.48300	-6
1.48667	-6
1.49033	-6
1.49400	-6
1.49767	-6
1.50133	-6
1.50500	-6
1.50867	-6
1.51233	-6
1.51600	-5
1.51967	-5
1.52333	-4
1.52700	-4
1.53067	-4
1.53433	-4
1.53800	-3
1.54167	-3
1.54533	-3
1.54900	-3
1.55267	-3
1.55633	-3
1.56000	-2
1.56367	-2
1.56733	-2
1.57100	-2
1.57467	-2
1.57833	-2
1.58200	-2
1.58567	-2
1.58933	-2
1.59300	-2
1.59667	-3
1.60033	-4
1.60400	-5
1.60767	-6
1.61133	-8
1.61500	-10
1.61867	-12
1.62233	-15
1.62600	-18
1.62967	-21
1.63333	-24
1.63700	-28
1.64067	-32
1.64433	-36
1.64800	-40
1.65167	-44
1.65533	-48
1.65900	-52
1.66267	-56
1.66633	-60
1.67000	-65
1.67367	-70
1.67733	-75
1.68100	-81
1.68467	-86
1.68833	-90
1.69200	-95
1.69567	-98
1.69933	-101
1.70300	-103
1.70667	-105
1.71033	-107
1.71400	-109
1.71767	-110
1.72133	-111
1.72500	-112
1.72867	-113
1.73233	-114
1.73600	-115
1.73967	-115
1.74333	-116
1.74700	-117
1.75067	-117
1.75433	-118
1.75800	-118
1.76167	-118
1.76533	-119
1.76900	-119
1.77267	-120
1.77633	-120
1.78000	-121
1.78367	-122
1.78733	-122
1.79100	-123
1.79467	-123
1.79833	-122
1.80200	-122
1.80567	-122
1.80933	-122
1.81300	-122
1.81667	-123
1.82033	-123
1.82400	-123
1.82767	-123
1.83133	-124
1.83500	-124
1.83867	-124
1.84233	-124
1.84600	-124
1.84967	-124
1.85333	-124
1.85700	-124
1.86067	-124
1.86433	-125
1.86800	-125
1.87167	-125
1.87533	-126
1.87900	-127
1.88267	-127
1.88633	-127
1.89000	-126
1.89367	-126
1.89733	-126
1.90100	-125
1.90467	-125
1.90833	-125
1.91200	-124
1.91567	-124
1.91933	-123
1.92300	-123
1.92667	-122
1.93033	-121
1.93400	-121
1.93767	-120
1.94133	-120
1.94500	-120
1.94867	-120
1.95233	-121
1.95600	-121
1.95967	-122
1.96333	-122
1.96700	-121
1.97067	-121
1.97433	-120
1.97800	-120
1.98167	-119
1.98533	-119
1.98900	-118
1.99267	-118
1.99633	-117
2.00000	-116
2.00367	-116
2.00733	-115
2.01100	-115
2.01467	-115
2.01833	-114
2.02200	-114
2.02567	-114
2.02933	-114
2.03300	-114
2.03667	-114
2.04033	-114
2.04400	-114
2.04767	-114
2.05133	-114
2.05500	-114
2.05867	-114
2.06233	-114
2.06600	-114
2.06967	-113
2.07333	-113
2.07700	-112
2.08067	-111
2.08433	-111
2.08800	-110
2.09167	-110
2.09533	-110
2.09900	-109
2.10267	-108
2.10633	-108
2.11000	-107
2.11367	-106
2.11733	-106
2.12100	-106
2.12467	-106
2.12833	-107
2.13200	-107
2.13567	-108
2.13933	-108
2.14300	-108
2.14667	-107
2.15033	-107
2.15400	-106
2.15767	-105
2.16133	-104
2.16500	-103
2.16867	-102
2.17233	-101
2.17600	-101
2.17967	-100
2.18333	-100
2.18700	-100
2.19067	-100
2.19433	-100
2.19800	-100
2.20167	-100
2.20533	-100
2.20900	-99
2.21267	-99
2.21633	-99
2.22000	-98
2.22367	-98
2.22733	-97
2.23100	-97
2.23467	-96
2.23833	-95
2.24200	-95
2.24567	-95
2.24933	-95
2.25300	-95
2.25667	-95
2.26033	-96
2.26400	-96
2.26767	-97
2.27133	-96
2.27500	-96
2.27867	-95
2.28233	-95
2.28600	-94
2.28967	-93
2.29333	-93
2.29700	-92
2.30067	-91
2.30433	-91
2.30800	-91
2.31167	-90
2.31533	-90
2.31900	-90
2.32267	-89
2.32633	-89
2.33000	-88
2.33367	-87
2.33733	-87
2.34100	-86
2.34467	-86
2.34833	-85
2.35200	-85
2.35567	-84
2.35933	-84
2.36300	-83
2.36667	-81
2.37033	-80
2.37400	-77
2.37767	-75
2.38133	-71
2.38500	-68
2.38867	-64
2.39233	-60
2.39600	-56
2.39967	-51
2.40333	-46
2.40700	-41
2.41067	-36
2.41433	-32
2.41800	-27
2.42167	-24
2.42533	-21
2.42900	-18
2.43267	-16
2.43633	-15
2.44000	-14
2.44367	-12
2.44733	-10
2.45100	-9
2.45467	-7
2.45833	-6
2.46200	-4
2.46567	-3
2.46933	-2
2.47300	-1
2.47667	-1
2.48033	-0
2.48400	0
2.48767	1
2.49133	2
2.49500	2
2.49867	3
2.50233	4
2.50600	4
2.50967	5
2.51333	6
2.51700	7
2.52067	8
2.52433	8
2.52800	9
2.53167	10
2.53533	10
2.53900	11
2.54267	11
2.54633	12
2.55000	12
2.55367	13
2.55733	13
2.56100	14
2.56467	14
2.56833	14
2.57200	14
2.57567	14
2.57933	14
2.58300	14
2.58667	14
2.59033	14
2.59400	14
2.59767	15
2.60133	15
2.60500	15
2.60867	16
2.61233	16
2.61600	16
2.61967	16
2.62333	16
2.62700	16
2.63067	17
2.63433	17
2.63800	17
2.64167	18
2.64533	18
2.64900	18
2.65267	18
2.65633	18
2.66000	18
2.66367	19
2.66733	19
2.67100	20
2.67467	20
2.67833	21
2.68200	21
2.68567	21
2.68933	21
2.69300	22
2.69667	22
2.70033	21
2.70400	21
2.70767	21
2.71133	21
2.71500	21
2.71867	21
2.72233	21
2.72600	21
2.72967	21
2.73333	21
2.73700	21
2.74067	21
2.74433	21
2.74800	21
2.75167	21
2.75533	21
2.75900	22
2.76267	22
2.76633	22
2.77000	22
2.77367	22
2.77733	22
2.78100	22
2.78467	22
2.78833	22
2.79200	22
2.79567	22
2.79933	22
2.80300	22
2.80667	21
2.81033	21
2.81400	21
2.81767	21
2.82133	21
2.82500	21
2.82867	21
2.83233	21
2.83600	21
2.83967	21
2.84333	22
2.84700	22
2.85067	22
2.85433	22
2.85800	22
2.86167	22
2.86533	22
2.86900	22
2.87267	22
2.87633	21
2.88000	19
2.88367	16
2.88733	11
2.89100	4
2.89467	-6
2.89833	-18
2.90200	-34
2.90567	-52
2.90933	-74
2.91300	-98
2.91667	-125
2.92033	-153
2.92400	-183
2.92767	-211
2.93133	-236
2.93500	-254
2.93867	-264
2.94233	-267
2.94600	-262
2.94967	-251
2.95333	-236
2.95700	-218
2.96067	-198
2.96433	-177
2.96800	-157
2.97167	-138
2.97533	-120
2.97900	-103
2.98267	-87
2.98633	-74
2.99000	-62
2.99367	-51
2.99733	-42
3.00100	-33
3.00467	-26
3.00833	-20
3.01200	-14
3.01567	-10
3.01933	-6
3.02300	-2
3.02667	1
3.03033	4
3.03400	6
3.03767	8
3.04133	10
3.04500	11
3.04867	12
3.05233	13
3.05600	14
3.05967	15
3.06333	16
3.06700	16
3.07067	17
3.07433	18
3.07800	18
3.08167	18
3.08533	19
3.08900	19
3.09267	20
3.09633	20
3.10000	20
3.10367	21
3.10733	21
3.11100	21
3.11467	21
3.11833	21
3.12200	22
3.12567	22
3.12933	22
3.13300	22
3.13667	22
3.14033	22
3.14400	22
3.14767	22
3.15133	22
3.15500	22
3.15867	23
3.16233	23
3.16600	23
3.16967	23
3.17333	23
3.17700	23
3.18067	22
3.18433	22
3.18800	22
3.19167	22
3.19533	22
3.19900	22
3.20267	22
3.20633	22
3.21000	22
3.21367	22
3.21733	22
3.22100	22
3.22467	23
3.22833	23
3.23200	23
3.23567	23
3.23933	24
3.24300	24
3.24667	24
3.25033	24
3.25400	25
3.25767	25
3.26133	25
3.26500	26
3.26867	26
3.27233	26
3.27600	27
3.27967	27
3.28333	27
3.28700	28
3.29067	28
3.29433	28
3.29800	28
3.30167	27
3.30533	27
3.30900	27
3.31267	26
3.31633	26
3.32000	26
3.32367	26
3.32733	26
3.33100	26
3.33467	26
3.33833	26
3.34200	25
3.34567	25
3.34933	25
3.35300	25
3.35667	25
3.36033	25
3.36400	25
3.36767	25
3.37133	25
3.37500	25
3.37867	25
3.38233	25
3.38600	26
3.38967	25
3.39333	25
3.39700	25
3.40067	25
3.40433	25
3.40800	24
3.41167	24
3.41533	24
3.41900	24
3.42267	24
3.42633	24
3.43000	24
3.43367	24
3.43733	23
3.44100	23
3.44467	23
3.44833	23
3.45200	23
3.45567	24
3.45933	24
3.46300	24
3.46667	24
3.47033	24
3.47400	24
3.47767	24
3.48133	24
3.48500	24
3.48867	25
3.49233	25
3.49600	25
3.49967	25
3.50333	25
3.50700	25
3.51067	25
3.51433	25
3.51800	25
3.52167	25
3.52533	25
3.52900	25
3.53267	25
3.53633	25
3.54000	25
3.54367	25
3.54733	25
3.55100	24
3.55467	24
3.55833	24
3.56200	24
3.56567	24
3.56933	24
3.57300	24
3.57667	24
3.58033	24
3.58400	24
3.58767	24
3.59133	24
3.59500	24
3.59867	24
3.60233	24
3.60600	25
3.60967	25
3.61333	25
3.61700	25
3.62067	25
3.62433	25
3.62800	25
3.63167	25
3.63533	25
3.63900	25
3.64267	25
3.64633	25
3.65000	24
3.65367	24
3.65733	24
3.66100	24
3.66467	24
3.66833	24
3.67200	24
3.67567	25
3.67933	25
3.68300	25
3.68667	25
3.69033	25
3.69400	25
3.69767	25
3.70133	25
3.70500	25
3.70867	25
3.71233	25
3.71600	25
3.71967	25
3.72333	25
3.72700	25
3.73067	25
3.73433	25
3.73800	24
3.74167	24
3.74533	24
3.74900	24
3.75267	24
3.75633	24
3.76000	24
3.76367	23
3.76733	23
3.77100	23
3.77467	24
3.77833	23
3.78200	23
3.78567	23
3.78933	23
3.79300	23
3.79667	23
3.80033	24
3.80400	24
3.80767	24
3.81133	25
3.81500	25
3.81867	25
3.82233	25
3.82600	25
3.82967	25
3.83333	25
3.83700	25
3.84067	25
3.84433	25
3.84800	25
3.85167	25
3.85533	25
3.85900	25
3.86267	24
3.86633	24
3.87000	24
3.87367	24
3.87733	24
3.88100	24
3.88467	24
3.88833	24
3.89200	24
3.89567	23
3.89933	23
3.90300	24
3.90667	24
3.91033	24
3.91400	24
3.91767	24
3.92133	24
3.92500	24
3.92867	24
3.93233	23
3.93600	23
3.93967	23
3.94333	24
3.94700	24
3.95067	24
3.95433	24
3.95800	24
3.96167	24
3.96533	24
3.96900	25
3.97267	24
3.97633	24
3.98000	24
3.98367	24
3.98733	24
3.99100	24
3.99467	25
3.99833	25

[Chromatogram (Ch3)]
Interval(msec)	220
# of Points	1091
Start Time(min)	0.002
End Time(min)	3.998
R.Time (min)	Intensity
0.00167	1
0.00533	3
0.00900	5
0.01267	6
0.01633	7
0.02000	9
0.02367	8
0.02733	6
0.03100	4
0.03467	6
0.03833	5
0.04200	5
0.04567	5
0.04933	4
0.05300	1
0.05667	3
0.06033	5
0.06400	8
0.06767	8
0.07133	8
0.07500	6
0.07867	6
0.08233	6
0.08600	7
0.08967	9
0.09333	10
0.09700	10
0.10067	9
0.10433	9
0.10800	9
0.11167	10
0.11533	9
0.11900	8
0.12267	9
0.12633	10
0.13000	12
0.13367	15
0.13733	15
0.14100	14
0.14467	12
0.14833	11
0.15200	10
0.15567	9
0.15933	10
0.16300	9
0.16667	7
0.17033	6
0.17400	6
0.17767	7
0.18133	7
0.18500	6
0.18867	6
0.19233	6
0.19600	6
0.19967	5
0.20333	4
0.20700	3
0.21067	5
0.21433	7
0.21800	9
0.22167	10
0.22533	8
0.22900	7
0.23267	7
0.23633	7
0.24000	9
0.24367	9
0.24733	8
0.25100	8
0.25467	8
0.25833	8
0.26200	10
0.26567	10
0.26933	8
0.27300	7
0.27667	9
0.28033	10
0.28400	12
0.28767	14
0.29133	14
0.29500	14
0.29867	13
0.30233	12
0.30600	14
0.30967	16
0.31333	16
0.31700	14
0.32067	11
0.32433	8
0.32800	9
0.33167	11
0.33533	11
0.33900	10
0.34267	9
0.34633	10
0.35000	11
0.35367	11
0.35733	12
0.36100	11
0.36467	11
0.36833	12
0.37200	14
0.37567	16
0.37933	18
0.38300	17
0.38667	15
0.39033	16
0.39400	16
0.39767	18
0.40133	19
0.40500	18
0.40867	19
0.41233	19
0.41600	19
0.41967	19
0.42333	18
0.42700	17
0.43067	16
0.43433	15
0.43800	14
0.44167	15
0.44533	17
0.44900	19
0.45267	20
0.45633	21
0.46000	18
0.46367	18
0.46733	19
0.47100	19
0.47467	19
0.47833	18
0.48200	17
0.48567	18
0.48933	20
0.49300	19
0.49667	19
0.50033	19
0.50400	22
0.50767	22
0.51133	20
0.51500	19
0.51867	19
0.52233	19
0.52600	18
0.52967	18
0.53333	20
0.53700	21
0.54067	21
0.54433	20
0.54800	19
0.55167	19
0.55533	19
0.55900	18
0.56267	18
0.56633	19
0.57000	19
0.57367	21
0.57733	20
0.58100	18
0.58467	17
0.58833	16
0.59200	16
0.59567	16
0.59933	16
0.60300	16
0.60667	16
0.61033	15
0.61400	17
0.61767	18
0.62133	19
0.62500	20
0.62867	20
0.63233	20
0.63600	21
0.63967	23
0.64333	24
0.64700	24
0.65067	25
0.65433	25
0.65800	24
0.66167	22
0.66533	21
0.66900	20
0.67267	22
0.67633	24
0.68000	26
0.68367	28
0.68733	28
0.69100	27
0.69467	26
0.69833	26
0.70200	26
0.70567	26
0.70933	26
0.71300	26
0.71667	24
0.72033	22
0.72400	21
0.72767	21
0.73133	21
0.73500	22
0.73867	22
0.74233	22
0.74600	22
0.74967	22
0.75333	21
0.75700	22
0.76067	23
0.76433	23
0.76800	22
0.77167	21
0.77533	21
0.77900	21
0.78267	21
0.78633	22
0.79000	26
0.79367	28
0.79733	26
0.80100	25
0.80467	25
0.80833	22
0.81200	21
0.81567	22
0.81933	25
0.82300	29
0.82667	31
0.83033	32
0.83400	31
0.83767	30
0.84133	29
0.84500	28
0.84867	30
0.85233	32
0.85600	33
0.85967	33
0.86333	34
0.86700	34
0.87067	34
0.87433	33
0.87800	32
0.88167	31
0.88533	30
0.88900	29
0.89267	29
0.89633	29
0.90000	30
0.90367	31
0.90733	30
0.91100	29
0.91467	30
0.91833	29
0.92200	31
0.92567	34
0.92933	37
0.93300	37
0.93667	39
0.94033	40
0.94400	39
0.94767	37
0.95133	34
0.95500	33
0.95867	35
0.96233	34
0.96600	36
0.96967	38
0.97333	36
0.97700	36
0.98067	38
0.98433	39
0.98800	39
0.99167	37
0.99533	38
0.99900	37
1.00267	35
1.00633	35
1.01000	33
1.01367	33
1.01733	32
1.02100	30
1.02467	29
1.02833	27
1.03200	26
1.03567	26
1.03933	27
1.04300	28
1.04667	28
1.05033	30
1.05400	32
1.05767	35
1.06133	36
1.06500	36
1.06867	35
1.07233	34
1.07600	31
1.07967	31
1.08333	32
1.08700	34
1.09067	34
1.09433	35
1.09800	35
1.10167	35
1.10533	35
1.10900	35
1.11267	36
1.11633	37
1.12000	39
1.12367	41
1.12733	40
1.13100	39
1.13467	38
1.13833	37
1.14200	36
1.14567	37
1.14933	39
1.15300	40
1.15667	41
1.16033	42
1.16400	43
1.16767	46
1.17133	44
1.17500	44
1.17867	45
1.18233	45
1.18600	46
1.18967	45
1.19333	43
1.19700	45
1.20067	46
1.20433	47
1.20800	47
1.21167	45
1.21533	43
1.21900	41
1.22267	40
1.22633	41
1.23000	43
1.23367	40
1.23733	39
1.24100	39
1.24467	38
1.24833	38
1.25200	39
1.25567	39
1.25933	40
1.26300	42
1.26667	43
1.27033	42
1.27400	41
1.27767	42
1.28133	43
1.28500	42
1.28867	42
1.29233	42
1.29600	43
1.29967	45
1.30333	45
1.30700	44
1.31067	43
1.31433	43
1.31800	43
1.32167	42
1.32533	43
1.32900	44
1.33267	43
1.33633	41
1.34000	42
1.34367	42
1.34733	44
1.35100	46
1.35467	47
1.35833	46
1.36200	43
1.36567	43
1.36933	42
1.37300	41
1.37667	41
1.38033	40
1.38400	41
1.38767	43
1.39133	46
1.39500	48
1.39867	48
1.40233	48
1.40600	46
1.40967	44
1.41333	42
1.41700	43
1.42067	44
1.42433	43
1.42800	43
1.43167	43
1.43533	43
1.43900	43
1.44267	44
1.44633	44
1.45000	46
1.45367	49
1.45733	47
1.46100	45
1.46467	46
1.46833	48
1.47200	48
1.47567	48
1.47933	46
1.48300	46
1.48667	48
1.49033	48
1.49400	48
1.49767	47
1.50133	46
1.50500	45
1.50867	46
1.51233	48
1.51600	50
1.51967	51
1.52333	50
1.52700	48
1.53067	47
1.53433	48
1.53800	51
1.54167	52
1.54533	53
1.54900	52
1.55267	49
1.55633	46
1.56000	45
1.56367	46
1.56733	47
1.57100	48
1.57467	50
1.57833	49
1.58200	47
1.58567	46
1.58933	49
1.59300	49
1.59667	50
1.60033	51
1.60400	51
1.60767	51
1.61133	51
1.61500	51
1.61867	51
1.62233	50
1.62600	51
1.62967	52
1.63333	54
1.63700	54
1.64067	54
1.64433	55
1.64800	55
1.65167	55
1.65533	54
1.65900	55
1.66267	55
1.66633	56
1.67000	56
1.67367	56
1.67733	56
1.68100	57
1.68467	57
1.68833	58
1.69200	58
1.69567	57
1.69933	57
1.70300	58
1.70667	58
1.71033	57
1.71400	58
1.71767	58
1.72133	59
1.72500	58
1.72867	58
1.73233	59
1.73600	59
1.73967	61
1.74333	60
1.74700	60
1.75067	61
1.75433	61
1.75800	62
1.76167	63
1.76533	63
1.76900	63
1.77267	64
1.77633	64
1.78000	63
1.78367	63
1.78733	66
1.79100	67
1.79467	67
1.79833	66
1.80200	68
1.80567	71
1.80933	72
1.81300	72
1.81667	73
1.82033	74
1.82400	74
1.82767	74
1.83133	74
1.83500	76
1.83867	77
1.84233	78
1.84600	78
1.84967	79
1.85333	80
1.85700	81
1.86067	81
1.86433	80
1.86800	80
1.87167	81
1.87533	81
1.87900	80
1.88267	81
1.88633	79
1.89000	75
1.89367	75
1.89733	78
1.90100	79
1.90467	79
1.90833	75
1.91200	74
1.91567	73
1.91933	73
1.92300	74
1.92667	72
1.93033	72
1.93400	74
1.93767	75
1.94133	78
1.94500	81
1.94867	81
1.95233	81
1.95600	80
1.95967	80
1.96333	82
1.96700	84
1.97067	86
1.97433	89
1.97800	92
1.98167	95
1.98533	93
1.98900	90
1.99267	90
1.99633	91
2.00000	91
2.00367	92
2.00733	94
2.01100	96
2.01467	97
2.01833	96
2.02200	97
2.02567	98
2.02933	99
2.03300	101
2.03667	103
2.04033	102
2.04400	102
2.04767	103
2.05133	104
2.05500	105
2.05867	105
2.06233	105
2.06600	105
2.06967	105
2.07333	108
2.07700	111
2.08067	112
2.08433	112
2.08800	112
2.09167	112
2.09533	113
2.09900	113
2.10267	114
2.10633	116
2.11000	116
2.11367	117
2.11733	116
2.12100	117
2.12467	117
2.12833	115
2.13200	117
2.13567	116
2.13933	116
2.14300	118
2.14667	121
2.15033	119
2.15400	116
2.15767	116
2.16133	119
2.16500	124
2.16867	126
2.17233	130
2.17600	132
2.17967	131
2.18333	130
2.18700	131
2.19067	132
2.19433	132
2.19800	133
2.20167	136
2.20533	137
2.20900	137
2.21267	136
2.21633	136
2.22000	137
2.22367	137
2.22733	136
2.23100	135
2.23467	135
2.23833	134
2.24200	133
2.24567	132
2.24933	130
2.25300	129
2.25667	131
2.26033	132
2.26400	134
2.26767	137
2.27133	139
2.27500	141
2.27867	143
2.28233	142
2.28600	142
2.28967	141
2.29333	142
2.29700	144
2.30067	147
2.30433	149
2.30800	147
2.31167	145
2.31533	144
2.31900	144
2.32267	144
2.32633	145
2.33000	146
2.33367	146
2.33733	147
2.34100	148
2.34467	147
2.34833	149
2.35200	152
2.35567	152
2.35933	151
2.36300	150
2.36667	150
2.37033	150
2.37400	150
2.37767	150
2.38133	150
2.38500	149
2.38867	148
2.39233	149
2.39600	151
2.39967	153
2.40333	155
2.40700	158
2.41067	160
2.41433	162
2.41800	163
2.42167	164
2.42533	164
2.42900	164
2.43267	163
2.43633	163
2.44000	164
2.44367	173
2.44733	197
2.45100	222
2.45467	239
2.45833	243
2.46200	237
2.46567	225
2.46933	214
2.47300	204
2.47667	195
2.48033	186
2.48400	175
2.48767	161
2.49133	150
2.49500	141
2.49867	132
2.50233	125
2.50600	122
2.50967	122
2.51333	121
2.51700	122
2.52067	125
2.52433	128
2.52800	130
2.53167	131
2.53533	128
2.53900	122
2.54267	115
2.54633	108
2.55000	99
2.55367	92
2.55733	88
2.56100	85
2.56467	81
2.56833	79
2.57200	78
2.57567	79
2.57933	79
2.58300	80
2.58667	78
2.59033	77
2.59400	77
2.59767	76
2.60133	77
2.60500	79
2.60867	82
2.61233	85
2.61600	84
2.61967	82
2.62333	81
2.62700	76
2.63067	69
2.63433	54
2.63800	36
2.64167	19
2.64533	1
2.64900	-16
2.65267	-29
2.65633	-41
2.66000	-47
2.66367	-51
2.66733	-51
2.67100	-52
2.67467	-54
2.67833	-55
2.68200	-52
2.68567	-50
2.68933	-44
2.69300	-41
2.69667	-38
2.70033	-35
2.70400	-32
2.70767	-30
2.71133	-27
2.71500	-24
2.71867	-22
2.72233	-20
2.72600	-18
2.72967	-18
2.73333	-15
2.73700	-13
2.74067	-14
2.74433	-14
2.74800	-11
2.75167	-8
2.75533	-7
2.75900	-3
2.76267	-1
2.76633	-3
2.77000	-5
2.77367	4
2.77733	25
2.78100	57
2.78467	94
2.78833	136
2.79200	179
2.79567	223
2.79933	265
2.80300	306
2.80667	349
2.81033	390
2.81400	427
2.81767	460
2.82133	491
2.82500	519
2.82867	547
2.83233	572
2.83600	594
2.83967	613
2.84333	629
2.84700	646
2.85067	671
2.85433	711
2.85800	773
2.86167	868
2.86533	1003
2.86900	1174
2.87267	1367
2.87633	1559
2.88000	1729
2.88367	1863
2.88733	1947
2.89100	1978
2.89467	1962
2.89833	1912
2.90200	1835
2.90567	1742
2.90933	1640
2.91300	1541
2.91667	1445
2.92033	1354
2.92400	1271
2.92767	1195
2.93133	1127
2.93500	1069
2.93867	1018
2.94233	974
2.94600	935
2.94967	903
2.95333	873
2.95700	850
2.96067	830
2.96433	811
2.96800	793
2.97167	779
2.97533	766
2.97900	757
2.98267	750
2.98633	744
2.99000	739
2.99367	735
2.99733	730
3.00100	727
3.00467	724
3.00833	721
3.01200	716
3.01567	713
3.01933	709
3.02300	703
3.02667	698
3.03033	694
3.03400	691
3.03767	692
3.04133	692
3.04500	692
3.04867	690
3.05233	686
3.05600	681
3.05967	679
3.06333	677
3.06700	675
3.07067	673
3.07433	671
3.07800	667
3.08167	665
3.08533	663
3.08900	661
3.09267	658
3.09633	658
3.10000	658
3.10367	657
3.10733	654
3.11100	652
3.11467	650
3.11833	647
3.12200	644
3.12567	644
3.12933	646
3.13300	648
3.13667	648
3.14033	649
3.14400	650
3.14767	650
3.15133	649
3.15500	649
3.15867	648
3.16233	648
3.16600	650
3.16967	651
3.17333	651
3.17700	650
3.18067	650
3.18433	648
3.18800	648
3.19167	648
3.19533	647
3.19900	643
3.20267	641
3.20633	639
3.21000	637
3.21367	637
3.21733	638
3.22100	639
3.22467	638
3.22833	636
3.23200	633
3.23567	630
3.23933	628
3.24300	627
3.24667	625
3.25033	622
3.25400	617
3.25767	613
3.26133	611
3.26500	613
3.26867	615
3.27233	613
3.27600	610
3.27967	607
3.28333	605
3.28700	604
3.29067	603
3.29433	602
3.29800	599
3.30167	595
3.30533	594
3.30900	594
3.31267	593
3.31633	593
3.32000	591
3.32367	587
3.32733	584
3.33100	582
3.33467	579
3.33833	576
3.34200	575
3.34567	573
3.34933	569
3.35300	566
3.35667	565
3.36033	565
3.36400	564
3.36767	562
3.37133	561
3.37500	559
3.37867	558
3.38233	559
3.38600	559
3.38967	557
3.39333	553
3.39700	549
3.40067	546
3.40433	545
3.40800	542
3.41167	537
3.41533	534
3.41900	533
3.42267	532
3.42633	531
3.43000	529
3.43367	524
3.43733	520
3.44100	516
3.44467	513
3.44833	511
3.45200	510
3.45567	507
3.45933	503
3.46300	500
3.46667	498
3.47033	497
3.47400	494
3.47767	492
3.48133	491
3.48500	489
3.48867	487
3.49233	486
3.49600	486
3.49967	487
3.50333	485
3.50700	482
3.51067	479
3.51433	476
3.51800	473
3.52167	471
3.52533	469
3.52900	466
3.53267	463
3.53633	461
3.54000	459
3.54367	456
3.54733	454
3.55100	454
3.55467	455
3.55833	451
3.56200	450
3.56567	448
3.56933	444
3.57300	441
3.57667	440
3.58033	438
3.58400	435
3.58767	433
3.59133	431
3.59500	429
3.59867	428
3.60233	427
3.60600	424
3.60967	418
3.61333	413
3.61700	413
3.62067	412
3.62433	411
3.62800	410
3.63167	408
3.63533	406
3.63900	406
3.64267	405
3.64633	402
3.65000	398
3.65367	396
3.65733	393
3.66100	392
3.66467	392
3.66833	388
3.67200	384
3.67567	382
3.67933	377
3.68300	374
3.68667	374
3.69033	373
3.69400	372
3.69767	372
3.70133	370
3.70500	369
3.70867	369
3.71233	368
3.71600	363
3.71967	358
3.72333	355
3.72700	354
3.73067	355
3.73433	354
3.73800	353
3.74167	352
3.74533	350
3.74900	349
3.75267	347
3.75633	346
3.76000	346
3.76367	344
3.76733	342
3.77100	343
3.77467	342
3.77833	341
3.78200	339
3.78567	337
3.78933	334
3.79300	332
3.79667	330
3.80033	329
3.80400	329
3.80767	328
3.81133	327
3.81500	325
3.81867	324
3.82233	323
3.82600	322
3.82967	321
3.83333	320
3.83700	318
3.84067	317
3.84433	316
3.84800	313
3.85167	310
3.85533	309
3.85900	311
3.86267	310
3.86633	309
3.87000	307
3.87367	304
3.87733	302
3.88100	300
3.88467	299
3.88833	299
3.89200	300
3.89567	299
3.89933	296
3.90300	296
3.90667	296
3.91033	298
3.91400	297
3.91767	296
3.92133	293
3.92500	290
3.92867	286
3.93233	284
3.93600	283
3.93967	283
3.94333	285
3.94700	287
3.95067	285
3.95433	283
3.95800	282
3.96167	282
3.96533	280
3.96900	276
3.97267	273
3.97633	273
3.98000	274
3.98367	274
3.98733	271
3.99100	267
3.99467	263
3.99833	258

[Status Trace (Column Oven Temperature)]
Interval(msec)	1000
# of Points	239
Start Time(min)	0.016
End Time(min)	3.983
Intensity Units	
Intensity Multiplier	1
R.Time (min)	Intensity
0.01607	35.00
0.03273	34.99
0.04940	34.99
0.06607	34.99
0.08273	34.99
0.09940	34.99
0.11607	34.99
0.13273	34.99
0.14940	34.98
0.16607	34.98
0.18273	34.97
0.19940	34.97
0.21607	34.97
0.23273	34.99
0.24940	34.99
0.26607	35.00
0.28273	35.00
0.29940	34.99
0.31607	35.00
0.33273	35.00
0.34940	35.00
0.36607	35.00
0.38273	34.99
0.39940	34.99
0.41607	34.98
0.43273	34.98
0.44940	34.98
0.46607	34.97
0.48273	34.98
0.49940	34.98
0.51607	34.98
0.53273	34.98
0.54940	34.97
0.56607	34.97
0.58273	34.98
0.59940	34.98
0.61607	34.98
0.63273	34.98
0.64940	34.98
0.66607	34.98
0.68273	34.98
0.69940	34.98
0.71607	34.99
0.73273	35.00
0.74940	35.00
0.76607	35.00
0.78273	35.00
0.79940	35.00
0.81607	35.00
0.83273	35.00
0.84940	35.01
0.86607	35.02
0.88273	35.02
0.89940	35.02
0.91607	35.02
0.93273	35.02
0.94940	35.00
0.96607	35.00
0.98273	35.00
0.99940	34.99
1.01607	34.99
1.03273	34.98
1.04940	34.99
1.06607	35.00
1.08273	35.00
1.09940	34.99
1.11607	35.00
1.13273	35.00
1.14940	35.00
1.16607	35.00
1.18273	35.00
1.19940	35.00
1.21607	35.00
1.23273	35.00
1.24940	35.00
1.26607	35.00
1.28273	34.98
1.29940	34.97
1.31607	34.98
1.33273	34.98
1.34940	34.98
1.36607	34.98
1.38273	34.98
1.39940	34.98
1.41607	35.00
1.43273	35.02
1.44940	35.03
1.46607	35.03
1.48273	35.02
1.49940	35.02
1.51607	35.03
1.53273	35.02
1.54940	35.01
1.56607	34.99
1.58273	34.99
1.59940	35.01
1.61607	35.09
1.63273	35.26
1.64940	35.47
1.66607	35.77
1.68273	36.13
1.69940	36.49
1.71607	36.84
1.73273	37.19
1.74940	37.51
1.76607	37.84
1.78273	38.19
1.79940	38.50
1.81607	38.83
1.83273	39.17
1.84940	39.51
1.86607	39.84
1.88273	40.18
1.89940	40.52
1.91607	40.84
1.93273	41.14
1.94940	41.49
1.96607	41.81
1.98273	42.15
1.99940	42.47
2.01607	42.79
2.03273	43.11
2.04940	43.45
2.06607	43.78
2.08273	44.11
2.09940	44.43
2.11607	44.75
2.13273	45.10
2.14940	45.42
2.16607	45.73
2.18273	46.06
2.19940	46.39
2.21607	46.72
2.23273	47.03
2.24940	47.36
2.26607	47.70
2.28273	48.02
2.29940	48.35
2.31607	48.68
2.33273	49.01
2.34940	49.30
2.36607	49.55
2.38273	49.68
2.39940	49.71
2.41607	49.69
2.43273	49.71
2.44940	49.72
2.46607	49.73
2.48273	49.73
2.49940	49.77
2.51607	49.78
2.53273	49.79
2.54940	49.80
2.56607	49.80
2.58273	49.82
2.59940	49.82
2.61607	49.85
2.63273	49.85
2.64940	49.86
2.66607	49.85
2.68273	49.85
2.69940	49.86
2.71607	49.88
2.73273	49.89
2.74940	49.88
2.76607	49.89
2.78273	49.89
2.79940	49.90
2.81607	49.92
2.83273	49.92
2.84940	49.93
2.86607	49.94
2.88273	49.94
2.89940	49.95
2.91607	49.97
2.93273	49.99
2.94940	49.99
2.96607	50.00
2.98273	50.01
2.99940	50.03
3.01607	50.04
3.03273	50.06
3.04940	50.07
3.06607	50.07
3.08273	50.08
3.09940	50.08
3.11607	50.07
3.13273	50.08
3.14940	50.08
3.16607	50.08
3.18273	50.09
3.19940	50.10
3.21607	50.11
3.23273	50.11
3.24940	50.09
3.26607	50.07
3.28273	50.05
3.29940	50.04
3.31607	50.04
3.33273	50.05
3.34940	50.04
3.36607	50.04
3.38273	50.04
3.39940	50.05
3.41607	50.04
3.43273	50.04
3.44940	50.04
3.46607	50.03
3.48273	50.03
3.49940	50.03
3.51607	50.03
3.53273	50.04
3.54940	50.05
3.56607	50.05
3.58273	50.06
3.59940	50.06
3.61607	50.06
3.63273	50.05
3.64940	50.05
3.66607	50.06
3.68273	50.04
3.69940	50.04
3.71607	50.04
3.73273	50.05
3.74940	50.05
3.76607	50.06
3.78273	50.06
3.79940	50.05
3.81607	50.05
3.83273	50.06
3.84940	50.06
3.86607	50.06
3.88273	50.06
3.89940	50.06
3.91607	50.07
3.93273	50.07
3.94940	50.07
3.96607	50.08
3.98273	50.08

[Status Trace (Injection Unit Temperature)]
Interval(msec)	1000
# of Points	239
Start Time(min)	0.016
End Time(min)	3.983
Intensity Units	
Intensity Multiplier	1
R.Time (min)	Intensity
0.01607	99.98
0.03273	99.98
0.04940	99.98
0.06607	99.99
0.08273	99.99
0.09940	99.99
0.11607	99.98
0.13273	99.98
0.14940	99.98
0.16607	99.99
0.18273	99.98
0.19940	99.97
0.21607	99.98
0.23273	99.98
0.24940	99.98
0.26607	99.98
0.28273	99.99
0.29940	99.98
0.31607	99.98
0.33273	99.98
0.34940	99.98
0.36607	99.98
0.38273	99.98
0.39940	99.98
0.41607	99.98
0.43273	99.98
0.44940	99.98
0.46607	99.98
0.48273	99.98
0.49940	99.98
0.51607	99.98
0.53273	99.98
0.54940	99.98
0.56607	99.98
0.58273	99.98
0.59940	99.98
0.61607	99.98
0.63273	99.98
0.64940	99.98
0.66607	99.98
0.68273	99.98
0.69940	99.98
0.71607	99.99
0.73273	99.98
0.74940	99.98
0.76607	99.99
0.78273	99.98
0.79940	99.99
0.81607	99.98
0.83273	99.98
0.84940	99.99
0.86607	99.98
0.88273	99.99
0.89940	99.98
0.91607	99.98
0.93273	99.98
0.94940	99.98
0.96607	99.99
0.98273	99.99
0.99940	99.99
1.01607	99.99
1.03273	99.98
1.04940	99.99
1.06607	99.99
1.08273	99.99
1.09940	99.99
1.11607	99.99
1.13273	99.99
1.14940	99.99
1.16607	99.99
1.18273	99.99
1.19940	99.99
1.21607	99.99
1.23273	99.99
1.24940	99.99
1.26607	99.99
1.28273	99.99
1.29940	99.99
1.31607	99.99
1.33273	99.99
1.34940	99.99
1.36607	99.99
1.38273	99.99
1.39940	99.99
1.41607	99.99
1.43273	99.99
1.44940	99.99
1.46607	99.99
1.48273	99.99
1.49940	99.99
1.51607	99.99
1.53273	99.99
1.54940	99.99
1.56607	99.99
1.58273	99.99
1.59940	99.99
1.61607	99.99
1.63273	99.99
1.64940	99.99
1.66607	99.99
1.68273	99.99
1.69940	99.99
1.71607	99.99
1.73273	99.99
1.74940	99.98
1.76607	99.99
1.78273	99.99
1.79940	99.98
1.81607	99.98
1.83273	99.98
1.84940	99.99
1.86607	99.98
1.88273	99.98
1.89940	99.98
1.91607	99.98
1.93273	99.98
1.94940	99.98
1.96607	99.98
1.98273	99.98
1.99940	99.98
2.01607	99.98
2.03273	99.97
2.04940	99.98
2.06607	99.97
2.08273	99.97
2.09940	99.98
2.11607	99.97
2.13273	99.98
2.14940	99.97
2.16607	99.97
2.18273	99.98
2.19940	99.97
2.21607	99.97
2.23273	99.97
2.24940	99.97
2.26607	99.97
2.28273	99.98
2.29940	99.97
2.31607	99.97
2.33273	99.97
2.34940	99.97
2.36607	99.97
2.38273	99.97
2.39940	99.98
2.41607	99.98
2.43273	99.98
2.44940	99.98
2.46607	99.98
2.48273	99.98
2.49940	99.98
2.51607	99.98
2.53273	99.98
2.54940	99.98
2.56607	99.98
2.58273	99.98
2.59940	99.98
2.61607	99.98
2.63273	99.99
2.64940	99.98
2.66607	99.99
2.68273	99.99
2.69940	100.00
2.71607	99.99
2.73273	99.99
2.74940	99.99
2.76607	100.00
2.78273	100.00
2.79940	100.00
2.81607	100.00
2.83273	100.00
2.84940	100.00
2.86607	100.00
2.88273	100.01
2.89940	100.01
2.91607	100.01
2.93273	100.01
2.94940	100.01
2.96607	100.01
2.98273	100.01
2.99940	100.02
3.01607	100.01
3.03273	100.01
3.04940	100.02
3.06607	100.03
3.08273	100.02
3.09940	100.02
3.11607	100.02
3.13273	100.02
3.14940	100.02
3.16607	100.03
3.18273	100.03
3.19940	100.02
3.21607	100.03
3.23273	100.03
3.24940	100.03
3.26607	100.03
3.28273	100.03
3.29940	100.04
3.31607	100.04
3.33273	100.04
3.34940	100.04
3.36607	100.04
3.38273	100.04
3.39940	100.04
3.41607	100.04
3.43273	100.04
3.44940	100.04
3.46607	100.05
3.48273	100.04
3.49940	100.04
3.51607	100.04
3.53273	100.05
3.54940	100.04
3.56607	100.05
3.58273	100.05
3.59940	100.04
3.61607	100.05
3.63273	100.05
3.64940	100.04
3.66607	100.05
3.68273	100.05
3.69940	100.05
3.71607	100.05
3.73273	100.05
3.74940	100.05
3.76607	100.05
3.78273	100.05
3.79940	100.05
3.81607	100.05
3.83273	100.05
3.84940	100.04
3.86607	100.05
3.88273	100.04
3.89940	100.04
3.91607	100.05
3.93273	100.05
3.94940	100.05
3.96607	100.04
3.98273	100.05

[Status Trace (Carrier Gas Pressure)]
Interval(msec)	1000
# of Points	239
Start Time(min)	0.016
End Time(min)	3.983
Intensity Units	
Intensity Multiplier	1
R.Time (min)	Intensity
0.01607	57.01
0.03273	55.82
0.04940	58.19
0.06607	59.88
0.08273	58.58
0.09940	57.97
0.11607	58.00
0.13273	58.01
0.14940	58.01
0.16607	58.00
0.18273	58.00
0.19940	58.00
0.21607	58.00
0.23273	58.00
0.24940	58.00
0.26607	58.00
0.28273	58.00
0.29940	58.00
0.31607	58.00
0.33273	58.00
0.34940	58.00
0.36607	58.00
0.38273	58.00
0.39940	58.00
0.41607	58.00
0.43273	58.00
0.44940	58.00
0.46607	58.00
0.48273	58.00
0.49940	58.00
0.51607	58.00
0.53273	58.00
0.54940	58.00
0.56607	58.00
0.58273	58.00
0.59940	58.00
0.61607	58.00
0.63273	58.00
0.64940	58.00
0.66607	58.00
0.68273	58.00
0.69940	58.00
0.71607	58.00
0.73273	58.00
0.74940	58.00
0.76607	58.00
0.78273	58.00
0.79940	58.00
0.81607	58.00
0.83273	58.00
0.84940	58.00
0.86607	58.00
0.88273	58.00
0.89940	58.00
0.91607	58.00
0.93273	58.00
0.94940	58.00
0.96607	58.00
0.98273	58.00
0.99940	58.00
1.01607	58.00
1.03273	58.00
1.04940	58.00
1.06607	58.00
1.08273	58.00
1.09940	58.00
1.11607	58.00
1.13273	58.00
1.14940	58.00
1.16607	58.00
1.18273	58.00
1.19940	58.00
1.21607	58.00
1.23273	58.00
1.24940	58.00
1.26607	58.00
1.28273	58.00
1.29940	58.00
1.31607	58.00
1.33273	58.00
1.34940	58.00
1.36607	58.00
1.38273	58.00
1.39940	58.00
1.41607	58.00
1.43273	58.00
1.44940	58.00
1.46607	58.00
1.48273	58.00
1.49940	58.00
1.51607	58.00
1.53273	58.00
1.54940	58.00
1.56607	58.00
1.58273	58.00
1.59940	58.00
1.61607	58.00
1.63273	58.00
1.64940	58.00
1.66607	58.01
1.68273	58.01
1.69940	58.00
1.71607	58.00
1.73273	58.00
1.74940	58.00
1.76607	58.00
1.78273	58.00
1.79940	58.00
1.81607	58.00
1.83273	58.00
1.84940	58.00
1.86607	58.00
1.88273	58.00
1.89940	58.00
1.91607	58.00
1.93273	58.00
1.94940	58.00
1.96607	58.00
1.98273	58.00
1.99940	58.00
2.01607	58.00
2.03273	58.00
2.04940	58.00
2.06607	58.00
2.08273	58.00
2.09940	58.00
2.11607	58.00
2.13273	58.00
2.14940	58.00
2.16607	58.00
2.18273	58.00
2.19940	58.00
2.21607	58.00
2.23273	58.00
2.24940	58.00
2.26607	58.00
2.28273	58.00
2.29940	58.00
2.31607	58.00
2.33273	58.00
2.34940	58.00
2.36607	58.00
2.38273	57.99
2.39940	57.99
2.41607	57.99
2.43273	58.00
2.44940	58.00
2.46607	58.00
2.48273	58.00
2.49940	58.00
2.51607	57.99
2.53273	57.99
2.54940	58.00
2.56607	58.00
2.58273	58.00
2.59940	58.00
2.61607	58.00
2.63273	58.00
2.64940	58.00
2.66607	58.00
2.68273	58.00
2.69940	58.00
2.71607	58.00
2.73273	58.00
2.74940	58.00
2.76607	58.00
2.78273	58.00
2.79940	58.00
2.81607	58.00
2.83273	58.00
2.84940	58.00
2.86607	58.00
2.88273	58.00
2.89940	58.00
2.91607	58.00
2.93273	58.00
2.94940	58.00
2.96607	58.00
2.98273	58.00
2.99940	58.00
3.01607	58.00
3.03273	58.00
3.04940	58.00
3.06607	58.00
3.08273	58.00
3.09940	58.00
3.11607	58.00
3.13273	58.00
3.14940	58.00
3.16607	58.00
3.18273	58.00
3.19940	58.00
3.21607	58.00
3.23273	58.00
3.24940	58.00
3.26607	58.00
3.28273	58.00
3.29940	58.00
3.31607	58.00
3.33273	58.00
3.34940	58.00
3.36607	58.00
3.38273	58.00
3.39940	58.00
3.41607	58.00
3.43273	58.00
3.44940	58.00
3.46607	58.00
3.48273	58.00
3.49940	58.00
3.51607	58.00
3.53273	58.00
3.54940	58.00
3.56607	58.00
3.58273	58.00
3.59940	58.00
3.61607	58.00
3.63273	58.00
3.64940	58.00
3.66607	58.00
3.68273	58.00
3.69940	58.00
3.71607	58.00
3.73273	58.00
3.74940	58.00
3.76607	58.00
3.78273	58.00
3.79940	58.00
3.81607	58.00
3.83273	58.00
3.84940	58.00
3.86607	58.00
3.88273	58.00
3.89940	58.00
3.91607	58.00
3.93273	58.00
3.94940	58.00
3.96607	58.00
3.98273	58.00

[Status Trace (Carrier Gas Flow)]
Interval(msec)	1000
# of Points	239
Start Time(min)	0.016
End Time(min)	3.983
Intensity Units	
Intensity Multiplier	1
R.Time (min)	Intensity
0.01607	33.92
0.03273	34.54
0.04940	34.55
0.06607	34.52
0.08273	34.51
0.09940	34.52
0.11607	34.52
0.13273	34.52
0.14940	34.52
0.16607	34.52
0.18273	34.52
0.19940	34.52
0.21607	34.52
0.23273	34.52
0.24940	34.52
0.26607	34.52
0.28273	34.52
0.29940	34.52
0.31607	34.52
0.33273	34.52
0.34940	34.52
0.36607	34.52
0.38273	34.52
0.39940	34.52
0.41607	34.52
0.43273	34.52
0.44940	34.52
0.46607	34.52
0.48273	34.52
0.49940	34.52
0.51607	34.52
0.53273	34.52
0.54940	34.52
0.56607	34.52
0.58273	34.52
0.59940	34.52
0.61607	34.52
0.63273	34.52
0.64940	34.52
0.66607	34.52
0.68273	34.52
0.69940	34.52
0.71607	34.52
0.73273	34.52
0.74940	34.52
0.76607	34.52
0.78273	34.52
0.79940	34.52
0.81607	34.52
0.83273	34.52
0.84940	34.52
0.86607	34.52
0.88273	34.52
0.89940	34.52
0.91607	34.52
0.93273	34.52
0.94940	34.52
0.96607	34.52
0.98273	34.52
0.99940	34.52
1.01607	34.52
1.03273	34.52
1.04940	34.52
1.06607	34.52
1.08273	34.52
1.09940	34.52
1.11607	34.52
1.13273	34.52
1.14940	34.52
1.16607	34.52
1.18273	34.52
1.19940	34.52
1.21607	34.52
1.23273	34.52
1.24940	34.52
1.26607	34.52
1.28273	34.52
1.29940	34.52
1.31607	34.52
1.33273	34.52
1.34940	34.52
1.36607	34.52
1.38273	34.52
1.39940	34.52
1.41607	34.52
1.43273	34.52
1.44940	34.52
1.46607	34.52
1.48273	34.52
1.49940	34.52
1.51607	34.52
1.53273	34.52
1.54940	34.52
1.56607	34.52
1.58273	34.52
1.59940	34.52
1.61607	34.52
1.63273	34.52
1.64940	34.52
1.66607	34.52
1.68273	34.52
1.69940	34.52
1.71607	34.52
1.73273	34.52
1.74940	34.52
1.76607	34.52
1.78273	34.52
1.79940	34.52
1.81607	34.52
1.83273	34.52
1.84940	34.52
1.86607	34.52
1.88273	34.52
1.89940	34.52
1.91607	34.52
1.93273	34.52
1.94940	34.52
1.96607	34.52
1.98273	34.52
1.99940	34.52
2.01607	34.52
2.03273	34.52
2.04940	34.52
2.06607	34.52
2.08273	34.52
2.09940	34.52
2.11607	34.52
2.13273	34.52
2.14940	34.52
2.16607	34.52
2.18273	34.52
2.19940	34.52
2.21607	34.52
2.23273	34.52
2.24940	34.52
2.26607	34.52
2.28273	34.52
2.29940	34.52
2.31607	34.52
2.33273	34.52
2.34940	34.52
2.36607	34.52
2.38273	34.52
2.39940	34.52
2.41607	34.52
2.43273	34.52
2.44940	34.52
2.46607	34.52
2.48273	34.52
2.49940	34.52
2.51607	34.52
2.53273	34.52
2.54940	34.52
2.56607	34.52
2.58273	34.52
2.59940	34.52
2.61607	34.52
2.63273	34.52
2.64940	34.52
2.66607	34.52
2.68273	34.52
2.69940	34.52
2.71607	34.52
2.73273	34.52
2.74940	34.52
2.76607	34.52
2.78273	34.52
2.79940	34.52
2.81607	34.52
2.83273	34.52
2.84940	34.52
2.86607	34.52
2.88273	34.52
2.89940	34.52
2.91607	34.52
2.93273	34.52
2.94940	34.52
2.96607	34.52
2.98273	34.52
2.99940	34.52
3.01607	34.52
3.03273	34.52
3.04940	34.52
3.06607	34.52
3.08273	34.52
3.09940	34.52
3.11607	34.52
3.13273	34.52
3.14940	34.52
3.16607	34.52
3.18273	34.52
3.19940	34.52
3.21607	34.52
3.23273	34.52
3.24940	34.52
3.26607	34.52
3.28273	34.52
3.29940	34.52
3.31607	34.52
3.33273	34.52
3.34940	34.52
3.36607	34.52
3.38273	34.52
3.39940	34.52
3.41607	34.52
3.43273	34.52
3.44940	34.52
3.46607	34.52
3.48273	34.52
3.49940	34.52
3.51607	34.52
3.53273	34.52
3.54940	34.52
3.56607	34.52
3.58273	34.52
3.59940	34.52
3.61607	34.52
3.63273	34.52
3.64940	34.52
3.66607	34.52
3.68273	34.52
3.69940	34.52
3.71607	34.52
3.73273	34.52
3.74940	34.52
3.76607	34.52
3.78273	34.52
3.79940	34.52
3.81607	34.52
3.83273	34.52
3.84940	34.52
3.86607	34.52
3.88273	34.52
3.89940	34.52
3.91607	34.52
3.93273	34.52
3.94940	34.52
3.96607	34.52
3.98273	34.52

[Status Trace (Column Flow)]
Interval(msec)	1000
# of Points	239
Start Time(min)	0.016
End Time(min)	3.983
Intensity Units	
Intensity Multiplier	1
R.Time (min)	Intensity
0.01607	5.41
0.03273	5.27
0.04940	5.54
0.06607	5.74
0.08273	5.59
0.09940	5.52
0.11607	5.52
0.13273	5.52
0.14940	5.52
0.16607	5.52
0.18273	5.52
0.19940	5.52
0.21607	5.52
0.23273	5.52
0.24940	5.52
0.26607	5.52
0.28273	5.52
0.29940	5.52
0.31607	5.52
0.33273	5.52
0.34940	5.52
0.36607	5.52
0.38273	5.52
0.39940	5.52
0.41607	5.52
0.43273	5.52
0.44940	5.52
0.46607	5.52
0.48273	5.52
0.49940	5.52
0.51607	5.52
0.53273	5.52
0.54940	5.52
0.56607	5.52
0.58273	5.52
0.59940	5.52
0.61607	5.52
0.63273	5.52
0.64940	5.52
0.66607	5.52
0.68273	5.52
0.69940	5.52
0.71607	5.52
0.73273	5.52
0.74940	5.52
0.76607	5.52
0.78273	5.52
0.79940	5.52
0.81607	5.52
0.83273	5.52
0.84940	5.52
0.86607	5.52
0.88273	5.52
0.89940	5.52
0.91607	5.52
0.93273	5.52
0.94940	5.52
0.96607	5.52
0.98273	5.52
0.99940	5.52
1.01607	5.52
1.03273	5.52
1.04940	5.52
1.06607	5.52
1.08273	5.52
1.09940	5.52
1.11607	5.52
1.13273	5.52
1.14940	5.52
1.16607	5.52
1.18273	5.52
1.19940	5.52
1.21607	5.52
1.23273	5.52
1.24940	5.52
1.26607	5.52
1.28273	5.52
1.29940	5.52
1.31607	5.52
1.33273	5.52
1.34940	5.52
1.36607	5.52
1.38273	5.52
1.39940	5.52
1.41607	5.52
1.43273	5.52
1.44940	5.52
1.46607	5.52
1.48273	5.52
1.49940	5.52
1.51607	5.52
1.53273	5.52
1.54940	5.52
1.56607	5.52
1.58273	5.52
1.59940	5.52
1.61607	5.52
1.63273	5.51
1.64940	5.51
1.66607	5.50
1.68273	5.49
1.69940	5.48
1.71607	5.47
1.73273	5.45
1.74940	5.44
1.76607	5.43
1.78273	5.42
1.79940	5.41
1.81607	5.40
1.83273	5.39
1.84940	5.38
1.86607	5.37
1.88273	5.36
1.89940	5.35
1.91607	5.34
1.93273	5.33
1.94940	5.32
1.96607	5.31
1.98273	5.30
1.99940	5.29
2.01607	5.29
2.03273	5.27
2.04940	5.27
2.06607	5.26
2.08273	5.25
2.09940	5.24
2.11607	5.23
2.13273	5.22
2.14940	5.21
2.16607	5.20
2.18273	5.19
2.19940	5.18
2.21607	5.17
2.23273	5.16
2.24940	5.15
2.26607	5.14
2.28273	5.13
2.29940	5.12
2.31607	5.12
2.33273	5.11
2.34940	5.10
2.36607	5.09
2.38273	5.09
2.39940	5.09
2.41607	5.09
2.43273	5.09
2.44940	5.09
2.46607	5.09
2.48273	5.09
2.49940	5.08
2.51607	5.08
2.53273	5.08
2.54940	5.08
2.56607	5.08
2.58273	5.08
2.59940	5.08
2.61607	5.08
2.63273	5.08
2.64940	5.08
2.66607	5.08
2.68273	5.08
2.69940	5.08
2.71607	5.08
2.73273	5.08
2.74940	5.08
2.76607	5.08
2.78273	5.08
2.79940	5.08
2.81607	5.08
2.83273	5.08
2.84940	5.08
2.86607	5.08
2.88273	5.08
2.89940	5.08
2.91607	5.08
2.93273	5.08
2.94940	5.08
2.96607	5.08
2.98273	5.08
2.99940	5.08
3.01607	5.08
3.03273	5.08
3.04940	5.08
3.06607	5.08
3.08273	5.08
3.09940	5.08
3.11607	5.08
3.13273	5.08
3.14940	5.08
3.16607	5.08
3.18273	5.08
3.19940	5.08
3.21607	5.08
3.23273	5.08
3.24940	5.08
3.26607	5.08
3.28273	5.08
3.29940	5.08
3.31607	5.08
3.33273	5.08
3.34940	5.08
3.36607	5.08
3.38273	5.08
3.39940	5.08
3.41607	5.08
3.43273	5.08
3.44940	5.08
3.46607	5.08
3.48273	5.08
3.49940	5.08
3.51607	5.08
3.53273	5.08
3.54940	5.08
3.56607	5.08
3.58273	5.08
3.59940	5.08
3.61607	5.08
3.63273	5.08
3.64940	5.08
3.66607	5.08
3.68273	5.08
3.69940	5.08
3.71607	5.08
3.73273	5.08
3.74940	5.08
3.76607	5.08
3.78273	5.08
3.79940	5.08
3.81607	5.08
3.83273	5.08
3.84940	5.08
3.86607	5.08
3.88273	5.08
3.89940	5.08
3.91607	5.08
3.93273	5.08
3.94940	5.08
3.96607	5.08
3.98273	5.08

[Status Trace (Linear Velocity)]
Interval(msec)	1000
# of Points	239
Start Time(min)	0.016
End Time(min)	3.983
Intensity Units	
Intensity Multiplier	1
R.Time (min)	Intensity
0.01607	38.37
0.03273	37.59
0.04940	39.14
0.06607	40.25
0.08273	39.40
0.09940	39.00
0.11607	39.02
0.13273	39.03
0.14940	39.02
0.16607	39.02
0.18273	39.02
0.19940	39.02
0.21607	39.02
0.23273	39.02
0.24940	39.02
0.26607	39.02
0.28273	39.02
0.29940	39.02
0.31607	39.02
0.33273	39.02
0.34940	39.02
0.36607	39.02
0.38273	39.02
0.39940	39.02
0.41607	39.02
0.43273	39.02
0.44940	39.02
0.46607	39.02
0.48273	39.02
0.49940	39.02
0.51607	39.02
0.53273	39.02
0.54940	39.02
0.56607	39.02
0.58273	39.02
0.59940	39.02
0.61607	39.02
0.63273	39.02
0.64940	39.02
0.66607	39.02
0.68273	39.02
0.69940	39.02
0.71607	39.02
0.73273	39.02
0.74940	39.02
0.76607	39.02
0.78273	39.02
0.79940	39.02
0.81607	39.02
0.83273	39.02
0.84940	39.02
0.86607	39.02
0.88273	39.01
0.89940	39.01
0.91607	39.01
0.93273	39.01
0.94940	39.02
0.96607	39.02
0.98273	39.02
0.99940	39.02
1.01607	39.02
1.03273	39.02
1.04940	39.02
1.06607	39.02
1.08273	39.02
1.09940	39.02
1.11607	39.02
1.13273	39.02
1.14940	39.02
1.16607	39.02
1.18273	39.02
1.19940	39.02
1.21607	39.02
1.23273	39.02
1.24940	39.02
1.26607	39.02
1.28273	39.02
1.29940	39.02
1.31607	39.02
1.33273	39.02
1.34940	39.02
1.36607	39.02
1.38273	39.02
1.39940	39.02
1.41607	39.02
1.43273	39.02
1.44940	39.01
1.46607	39.01
1.48273	39.01
1.49940	39.01
1.51607	39.01
1.53273	39.01
1.54940	39.02
1.56607	39.02
1.58273	39.02
1.59940	39.02
1.61607	39.01
1.63273	39.00
1.64940	38.97
1.66607	38.95
1.68273	38.91
1.69940	38.87
1.71607	38.84
1.73273	38.81
1.74940	38.78
1.76607	38.75
1.78273	38.71
1.79940	38.68
1.81607	38.66
1.83273	38.62
1.84940	38.59
1.86607	38.56
1.88273	38.52
1.89940	38.49
1.91607	38.47
1.93273	38.44
1.94940	38.40
1.96607	38.38
1.98273	38.34
1.99940	38.31
2.01607	38.29
2.03273	38.25
2.04940	38.22
2.06607	38.20
2.08273	38.16
2.09940	38.13
2.11607	38.11
2.13273	38.07
2.14940	38.04
2.16607	38.02
2.18273	37.98
2.19940	37.96
2.21607	37.93
2.23273	37.90
2.24940	37.87
2.26607	37.84
2.28273	37.81
2.29940	37.78
2.31607	37.75
2.33273	37.72
2.34940	37.69
2.36607	37.67
2.38273	37.66
2.39940	37.65
2.41607	37.66
2.43273	37.66
2.44940	37.66
2.46607	37.66
2.48273	37.66
2.49940	37.65
2.51607	37.64
2.53273	37.65
2.54940	37.65
2.56607	37.65
2.58273	37.65
2.59940	37.65
2.61607	37.65
2.63273	37.65
2.64940	37.65
2.66607	37.65
2.68273	37.65
2.69940	37.65
2.71607	37.64
2.73273	37.64
2.74940	37.64
2.76607	37.64
2.78273	37.64
2.79940	37.64
2.81607	37.64
2.83273	37.64
2.84940	37.64
2.86607	37.64
2.88273	37.64
2.89940	37.64
2.91607	37.64
2.93273	37.63
2.94940	37.63
2.96607	37.63
2.98273	37.63
2.99940	37.63
3.01607	37.63
3.03273	37.63
3.04940	37.63
3.06607	37.63
3.08273	37.63
3.09940	37.63
3.11607	37.63
3.13273	37.63
3.14940	37.63
3.16607	37.63
3.18273	37.62
3.19940	37.62
3.21607	37.62
3.23273	37.62
3.24940	37.62
3.26607	37.63
3.28273	37.63
3.29940	37.63
3.31607	37.63
3.33273	37.63
3.34940	37.63
3.36607	37.63
3.38273	37.63
3.39940	37.63
3.41607	37.63
3.43273	37.63
3.44940	37.63
3.46607	37.63
3.48273	37.63
3.49940	37.63
3.51607	37.63
3.53273	37.63
3.54940	37.63
3.56607	37.63
3.58273	37.63
3.59940	37.63
3.61607	37.63
3.63273	37.63
3.64940	37.63
3.66607	37.63
3.68273	37.63
3.69940	37.63
3.71607	37.63
3.73273	37.63
3.74940	37.63
3.76607	37.63
3.78273	37.63
3.79940	37.63
3.81607	37.63
3.83273	37.63
3.84940	37.63
3.86607	37.63
3.88273	37.63
3.89940	37.63
3.91607	37.63
3.93273	37.63
3.94940	37.63
3.96607	37.63
3.98273	37.63

