[Header]
Application Name	LabSolutions
Version	5.110
Data File Name	C:\Users\User\Desktop\GC Analyses\Jack\UIC Prairie Sampling\9.16.22\220916_027.gcd
Output Date	11/29/2022
Output Time	11:10:16 AM

[File Information]
Type	Data File
Generated	11/14/2022 12:40:40 PM
Generated by	System Administrator
Modified	11/14/2022 12:45:08 PM
Modified by	System Administrator

[Sample Information]
Operator Name	System Administrator
Acquired	11/14/2022 12:41:07 PM
Sample Type	1:Standard
Level	1
Sample Name	220916_UICPrairie
Sample ID	220916_UICPrairie
ISTD Amount1	1
ISTD Amount2	1
ISTD Amount3	1
ISTD Amount4	1
ISTD Amount5	1
ISTD Amount6	1
ISTD Amount7	1
ISTD Amount8	1
ISTD Amount9	1
ISTD Amount10	1
ISTD Amount11	1
ISTD Amount12	1
ISTD Amount13	1
ISTD Amount14	1
ISTD Amount15	1
ISTD Amount16	1
ISTD Amount17	1
ISTD Amount18	1
ISTD Amount19	1
ISTD Amount20	1
ISTD Amount21	1
ISTD Amount22	1
ISTD Amount23	1
ISTD Amount24	1
ISTD Amount25	1
ISTD Amount26	1
ISTD Amount27	1
ISTD Amount28	1
ISTD Amount29	1
ISTD Amount30	1
ISTD Amount31	1
ISTD Amount32	1
Sample Amount	1
Dilution Factor	1
Vial#	1
Injection Volume	1
Injection Count	1
Bar Code	

[Original Files]
Data File	C:\Users\User\Desktop\GC Analyses\Jack\UIC Prairie Sampling\9.16.22\220916_027.gcd
Method File	C:\LabSolutions\Data\GHG_4min_2022\ghg3_togas_w_acet_4 min_new_int.gcm
Batch File	
Report Format File	c:\LabSolutions\System\DEFAULT.lsr

[File Description]


[Configuration]
Instrument Name	C0B7VH3-Instrument1
Instrument #	1
Line #	1
# of Detectors	3
Detector ID	DET#1	DET#2	DET#3
Detector Name	FID	PTCD	ECD
# of Channels	1	1	1

[Peak Table(Ch1)]
# of Peaks	3
Peak#	R.Time	I.Time	F.Time	Area	Height	A/H	Conc.	Mark	ID#	Name	k'	Plate #	Plate Ht.	Tailing	Resolution	Sep.Factor	Area Ratio	Height Ratio	Conc. %	Norm Conc.
1	1.468	1.439	1.534	3809	1290	2.952	100.000	   	1	CO	0.000	5622	26.682	0.000	0.000	0.000	0	0	16.667	16.667
2	1.571	1.534	1.644	21365	10612	2.013	100.000	 V 	2	CH4	0.070	11080	13.538	1.249	1.488	0.000	0	0	16.667	16.667
3	2.000	1.952	2.367	2182517	1040168	2.098	400.000	   	3	CO2	0.362	17078	8.783	1.268	7.096	5.179	0	0	66.667	66.667

[Peak Table(Ch2)]
# of Peaks	0

[Peak Table(Ch3)]
# of Peaks	5
Peak#	R.Time	I.Time	F.Time	Area	Height	A/H	Conc.	Mark	ID#	Name	k'	Plate #	Plate Ht.	Tailing	Resolution	Sep.Factor	Area Ratio	Height Ratio	Conc. %	Norm Conc.
1	2.605	2.499	2.645	873	205	4.261	0.000	   			0.000	7465	20.093	0.683	0.000	0.000	0	0	0.000	0.000
2	2.755	2.664	2.810	1055	167	6.336	0.017	   	1	N2O	0.058	799	187.696	0.000	0.589	0.000	0	0	0.843	0.843
3	2.884	2.810	3.995	61529	15481	3.974	0.983	SV 	1	N2O	0.107	12755	11.760	1.622	0.522	1.854	0	0	49.157	49.157
4	3.126	3.093	3.192	75	24	3.167	0.000	T  			0.200	17747	8.452	1.483	2.470	1.868	0	0	0.000	0.000
5	3.338	3.217	3.995	13389	528	25.342	1.000	T  	2	SF6	0.282	393	381.260	3.237	0.554	1.408	0	0	50.000	50.000

[Compound Results(Ch1)]
# of IDs	6
ID#	Name	R.Time	Area	Height	Conc.	Curve	3rd	2nd	1st	Constant	Area Ratio	Height Ratio	Conc. %	Norm Conc.
1	CO	1.468	3809	1290	100.000	Linear	0.000000e+00	0.000000e+00	3.809087e+001	0.000000e+00	0	0	16.667	16.667
2	CH4	1.571	21365	10612	100.000	Linear	0.000000e+00	0.000000e+00	2.136461e+002	0.000000e+00	0	0	16.667	16.667
3	CO2	2.000	2182517	1040168	400.000	Linear	0.000000e+00	0.000000e+00	5.456292e+003	0.000000e+00	0	0	66.667	66.667
4	Ethylene	0.000	0	0	0.000	Linear	0.000000e+00	0.000000e+00	0.000000e+00	0.000000e+00	0	0	0.000	0.000
5	Acetylene	0.000	0	0	0.000	Linear	0.000000e+00	0.000000e+00	0.000000e+00	0.000000e+00	0	0	0.000	0.000
6	Ethane	0.000	0	0	0.000	Linear	0.000000e+00	0.000000e+00	0.000000e+00	0.000000e+00	0	0	0.000	0.000

[Compound Results(Ch2)]
# of IDs	5
ID#	Name	R.Time	Area	Height	Conc.	Curve	3rd	2nd	1st	Constant	Area Ratio	Height Ratio	Conc. %	Norm Conc.
1	Hydrogen	0.000	0	0	0.000	Linear	0.000000e+00	0.000000e+00	0.000000e+00	0.000000e+00	0	0	0.000	0.000
2	Oxygen	0.000	0	0	0.000	Linear	0.000000e+00	0.000000e+00	0.000000e+00	0.000000e+00	0	0	0.000	0.000
3	Nitrogen	0.000	0	0	0.000	Linear	0.000000e+00	0.000000e+00	0.000000e+00	0.000000e+00	0	0	0.000	0.000
4	Methane	0.000	0	0	0.000	Linear	0.000000e+00	0.000000e+00	0.000000e+00	0.000000e+00	0	0	0.000	0.000
5	Carbon Monoxide	0.000	0	0	0.000	Linear	0.000000e+00	0.000000e+00	0.000000e+00	0.000000e+00	0	0	0.000	0.000

[Compound Results(Ch3)]
# of IDs	2
ID#	Name	R.Time	Area	Height	Conc.	Curve	3rd	2nd	1st	Constant	Area Ratio	Height Ratio	Conc. %	Norm Conc.
1	N2O	2.884	62585	15648	1.000	Linear	0.000000e+00	0.000000e+00	6.258451e+004	0.000000e+00	0	0	50.000	50.000
2	SF6	3.338	13389	528	1.000	Linear	0.000000e+00	0.000000e+00	1.338941e+004	0.000000e+00	0	0	50.000	50.000

[Group Results(Ch1)]
# of Groups	0

[Group Results(Ch2)]
# of Groups	0

[Group Results(Ch3)]
# of Groups	0

[Chromatogram (Ch1)]
Interval(msec)	220
# of Points	1091
Start Time(min)	0.002
End Time(min)	3.998
R.Time (min)	Intensity
0.00167	1
0.00533	-12
0.00900	-24
0.01267	-34
0.01633	-36
0.02000	-31
0.02367	-28
0.02733	-29
0.03100	-31
0.03467	-31
0.03833	-27
0.04200	-15
0.04567	-5
0.04933	0
0.05300	-3
0.05667	-12
0.06033	-23
0.06400	-30
0.06767	-33
0.07133	-32
0.07500	-33
0.07867	-34
0.08233	-35
0.08600	-36
0.08967	-38
0.09333	-40
0.09700	-42
0.10067	-46
0.10433	-50
0.10800	-52
0.11167	-54
0.11533	-53
0.11900	-53
0.12267	-53
0.12633	-51
0.13000	-46
0.13367	-42
0.13733	-39
0.14100	-37
0.14467	-33
0.14833	-30
0.15200	-30
0.15567	-34
0.15933	-37
0.16300	-37
0.16667	-32
0.17033	-27
0.17400	-28
0.17767	-35
0.18133	-44
0.18500	-50
0.18867	-54
0.19233	-57
0.19600	-61
0.19967	-62
0.20333	-59
0.20700	-53
0.21067	-46
0.21433	-38
0.21800	-28
0.22167	-23
0.22533	-23
0.22900	-25
0.23267	-28
0.23633	-29
0.24000	-30
0.24367	-33
0.24733	-39
0.25100	-45
0.25467	-48
0.25833	-46
0.26200	-42
0.26567	-39
0.26933	-36
0.27300	-35
0.27667	-35
0.28033	-33
0.28400	-31
0.28767	-32
0.29133	-35
0.29500	-38
0.29867	-39
0.30233	-41
0.30600	-43
0.30967	-46
0.31333	-48
0.31700	-48
0.32067	-44
0.32433	-40
0.32800	-37
0.33167	-36
0.33533	-39
0.33900	-44
0.34267	-47
0.34633	-48
0.35000	-48
0.35367	-47
0.35733	-45
0.36100	-43
0.36467	-39
0.36833	-33
0.37200	-31
0.37567	-33
0.37933	-34
0.38300	-31
0.38667	-28
0.39033	-30
0.39400	-39
0.39767	-52
0.40133	-59
0.40500	-58
0.40867	-51
0.41233	-43
0.41600	-41
0.41967	-42
0.42333	-44
0.42700	-45
0.43067	-45
0.43433	-46
0.43800	-48
0.44167	-50
0.44533	-50
0.44900	-48
0.45267	-45
0.45633	-44
0.46000	-45
0.46367	-48
0.46733	-54
0.47100	-61
0.47467	-65
0.47833	-65
0.48200	-61
0.48567	-54
0.48933	-44
0.49300	-34
0.49667	-27
0.50033	-23
0.50400	-24
0.50767	-28
0.51133	-30
0.51500	-31
0.51867	-32
0.52233	-32
0.52600	-34
0.52967	-36
0.53333	-42
0.53700	-49
0.54067	-52
0.54433	-51
0.54800	-48
0.55167	-44
0.55533	-40
0.55900	-35
0.56267	-29
0.56633	-29
0.57000	-32
0.57367	-33
0.57733	-28
0.58100	-25
0.58467	-28
0.58833	-36
0.59200	-50
0.59567	-61
0.59933	-67
0.60300	-70
0.60667	-71
0.61033	-70
0.61400	-65
0.61767	-57
0.62133	-47
0.62500	-41
0.62867	-37
0.63233	-33
0.63600	-31
0.63967	-32
0.64333	-34
0.64700	-36
0.65067	-39
0.65433	-42
0.65800	-42
0.66167	-42
0.66533	-44
0.66900	-45
0.67267	-43
0.67633	-41
0.68000	-42
0.68367	-43
0.68733	-45
0.69100	-46
0.69467	-47
0.69833	-46
0.70200	-47
0.70567	-50
0.70933	-52
0.71300	-51
0.71667	-49
0.72033	-47
0.72400	-43
0.72767	-43
0.73133	-48
0.73500	-53
0.73867	-52
0.74233	-49
0.74600	-46
0.74967	-41
0.75333	-39
0.75700	-38
0.76067	-36
0.76433	-36
0.76800	-37
0.77167	-38
0.77533	-38
0.77900	-37
0.78267	-35
0.78633	-37
0.79000	-42
0.79367	-45
0.79733	-47
0.80100	-50
0.80467	-53
0.80833	-53
0.81200	-50
0.81567	-50
0.81933	-49
0.82300	-45
0.82667	-41
0.83033	-36
0.83400	-34
0.83767	-35
0.84133	-36
0.84500	-40
0.84867	-44
0.85233	-48
0.85600	-48
0.85967	-44
0.86333	-40
0.86700	-39
0.87067	-35
0.87433	-34
0.87800	-36
0.88167	-42
0.88533	-48
0.88900	-50
0.89267	-50
0.89633	-45
0.90000	-42
0.90367	-41
0.90733	-39
0.91100	-37
0.91467	-36
0.91833	-38
0.92200	-40
0.92567	-42
0.92933	-45
0.93300	-47
0.93667	-44
0.94033	-40
0.94400	-35
0.94767	-31
0.95133	-28
0.95500	-27
0.95867	-29
0.96233	-34
0.96600	-42
0.96967	-47
0.97333	-48
0.97700	-50
0.98067	-54
0.98433	-54
0.98800	-51
0.99167	-49
0.99533	-50
0.99900	-54
1.00267	-58
1.00633	-60
1.01000	-58
1.01367	-54
1.01733	-51
1.02100	-50
1.02467	-48
1.02833	-46
1.03200	-45
1.03567	-42
1.03933	-41
1.04300	-42
1.04667	-43
1.05033	-42
1.05400	-43
1.05767	-45
1.06133	-46
1.06500	-42
1.06867	-38
1.07233	-34
1.07600	-36
1.07967	-39
1.08333	-40
1.08700	-39
1.09067	-37
1.09433	-36
1.09800	-38
1.10167	-42
1.10533	-46
1.10900	-50
1.11267	-55
1.11633	-63
1.12000	-72
1.12367	-75
1.12733	-75
1.13100	-70
1.13467	-61
1.13833	-52
1.14200	-44
1.14567	-38
1.14933	-35
1.15300	-36
1.15667	-41
1.16033	-46
1.16400	-46
1.16767	-41
1.17133	-38
1.17500	-41
1.17867	-46
1.18233	-47
1.18600	-49
1.18967	-49
1.19333	-50
1.19700	-50
1.20067	-50
1.20433	-51
1.20800	-48
1.21167	-43
1.21533	-38
1.21900	-33
1.22267	-29
1.22633	-26
1.23000	-30
1.23367	-37
1.23733	-41
1.24100	-42
1.24467	-43
1.24833	-48
1.25200	-56
1.25567	-64
1.25933	-68
1.26300	-69
1.26667	-67
1.27033	-63
1.27400	-58
1.27767	-52
1.28133	-51
1.28500	-51
1.28867	-50
1.29233	-51
1.29600	-52
1.29967	-52
1.30333	-52
1.30700	-51
1.31067	-50
1.31433	-48
1.31800	-49
1.32167	-48
1.32533	-45
1.32900	-42
1.33267	-41
1.33633	-43
1.34000	-44
1.34367	-42
1.34733	-39
1.35100	-41
1.35467	-46
1.35833	-51
1.36200	-52
1.36567	-53
1.36933	-55
1.37300	-55
1.37667	-53
1.38033	-51
1.38400	-54
1.38767	-57
1.39133	-55
1.39500	-54
1.39867	-55
1.40233	-56
1.40600	-57
1.40967	-55
1.41333	-51
1.41700	-50
1.42067	-49
1.42433	-50
1.42800	-52
1.43167	-52
1.43533	-49
1.43900	-42
1.44267	-1
1.44633	145
1.45000	414
1.45367	716
1.45733	966
1.46100	1132
1.46467	1220
1.46833	1248
1.47200	1238
1.47567	1209
1.47933	1172
1.48300	1125
1.48667	1054
1.49033	948
1.49400	817
1.49767	680
1.50133	548
1.50500	430
1.50867	332
1.51233	254
1.51600	192
1.51967	142
1.52333	102
1.52700	72
1.53067	51
1.53433	33
1.53800	32
1.54167	129
1.54533	538
1.54900	1550
1.55267	3227
1.55633	5262
1.56000	7230
1.56367	8850
1.56733	9997
1.57100	10568
1.57467	10423
1.57833	9514
1.58200	8016
1.58567	6284
1.58933	4649
1.59300	3293
1.59667	2257
1.60033	1510
1.60400	994
1.60767	645
1.61133	411
1.61500	253
1.61867	146
1.62233	73
1.62600	23
1.62967	-9
1.63333	-26
1.63700	-36
1.64067	-41
1.64433	-46
1.64800	-51
1.65167	-53
1.65533	-52
1.65900	-50
1.66267	-48
1.66633	-46
1.67000	-41
1.67367	-38
1.67733	-40
1.68100	-48
1.68467	-56
1.68833	-63
1.69200	-67
1.69567	-70
1.69933	-70
1.70300	-69
1.70667	-65
1.71033	-59
1.71400	-53
1.71767	-46
1.72133	-44
1.72500	-48
1.72867	-51
1.73233	-49
1.73600	-47
1.73967	-47
1.74333	-49
1.74700	-50
1.75067	-49
1.75433	-50
1.75800	-51
1.76167	-47
1.76533	-43
1.76900	-41
1.77267	-40
1.77633	-44
1.78000	-50
1.78367	-55
1.78733	-58
1.79100	-56
1.79467	-55
1.79833	-58
1.80200	-63
1.80567	-66
1.80933	-63
1.81300	-60
1.81667	-56
1.82033	-54
1.82400	-53
1.82767	-52
1.83133	-52
1.83500	-51
1.83867	-48
1.84233	-42
1.84600	-35
1.84967	-31
1.85333	-30
1.85700	-32
1.86067	-36
1.86433	-40
1.86800	-39
1.87167	-36
1.87533	-34
1.87900	-35
1.88267	-38
1.88633	-40
1.89000	-39
1.89367	-36
1.89733	-34
1.90100	-31
1.90467	-26
1.90833	-22
1.91200	-23
1.91567	-30
1.91933	-39
1.92300	-44
1.92667	-44
1.93033	-39
1.93400	-33
1.93767	-32
1.94133	-32
1.94500	-29
1.94867	-27
1.95233	-22
1.95600	10
1.95967	229
1.96333	1472
1.96700	6982
1.97067	25541
1.97433	73479
1.97800	169398
1.98167	319854
1.98533	509099
1.98900	704741
1.99267	873199
1.99633	989902
2.00000	1040190
2.00367	1019070
2.00733	933232
2.01100	801037
2.01467	647584
2.01833	496861
2.02200	365399
2.02567	260403
2.02933	181779
2.03300	125545
2.03667	86562
2.04033	60067
2.04400	42247
2.04767	30300
2.05133	22263
2.05500	16806
2.05867	13054
2.06233	10427
2.06600	8545
2.06967	7166
2.07333	6127
2.07700	5323
2.08067	4690
2.08433	4184
2.08800	3771
2.09167	3424
2.09533	3128
2.09900	2872
2.10267	2652
2.10633	2466
2.11000	2304
2.11367	2162
2.11733	2032
2.12100	1913
2.12467	1806
2.12833	1710
2.13200	1619
2.13567	1539
2.13933	1468
2.14300	1404
2.14667	1347
2.15033	1297
2.15400	1250
2.15767	1204
2.16133	1158
2.16500	1115
2.16867	1077
2.17233	1039
2.17600	1002
2.17967	966
2.18333	934
2.18700	905
2.19067	877
2.19433	851
2.19800	825
2.20167	801
2.20533	783
2.20900	768
2.21267	751
2.21633	730
2.22000	707
2.22367	692
2.22733	679
2.23100	665
2.23467	650
2.23833	635
2.24200	620
2.24567	603
2.24933	589
2.25300	579
2.25667	574
2.26033	567
2.26400	558
2.26767	545
2.27133	535
2.27500	527
2.27867	518
2.28233	508
2.28600	498
2.28967	488
2.29333	480
2.29700	476
2.30067	473
2.30433	467
2.30800	459
2.31167	453
2.31533	449
2.31900	449
2.32267	450
2.32633	449
2.33000	450
2.33367	453
2.33733	452
2.34100	447
2.34467	437
2.34833	426
2.35200	415
2.35567	402
2.35933	386
2.36300	371
2.36667	357
2.37033	348
2.37400	345
2.37767	348
2.38133	353
2.38500	363
2.38867	374
2.39233	381
2.39600	381
2.39967	377
2.40333	376
2.40700	376
2.41067	374
2.41433	372
2.41800	369
2.42167	368
2.42533	368
2.42900	367
2.43267	363
2.43633	357
2.44000	350
2.44367	345
2.44733	344
2.45100	342
2.45467	342
2.45833	347
2.46200	355
2.46567	361
2.46933	362
2.47300	355
2.47667	346
2.48033	336
2.48400	329
2.48767	324
2.49133	322
2.49500	322
2.49867	323
2.50233	326
2.50600	328
2.50967	330
2.51333	330
2.51700	328
2.52067	323
2.52433	319
2.52800	319
2.53167	323
2.53533	326
2.53900	323
2.54267	317
2.54633	311
2.55000	308
2.55367	307
2.55733	304
2.56100	299
2.56467	292
2.56833	287
2.57200	284
2.57567	287
2.57933	293
2.58300	296
2.58667	295
2.59033	293
2.59400	292
2.59767	294
2.60133	299
2.60500	304
2.60867	306
2.61233	303
2.61600	298
2.61967	294
2.62333	294
2.62700	294
2.63067	291
2.63433	286
2.63800	283
2.64167	285
2.64533	290
2.64900	294
2.65267	297
2.65633	298
2.66000	295
2.66367	291
2.66733	290
2.67100	291
2.67467	291
2.67833	290
2.68200	284
2.68567	277
2.68933	273
2.69300	270
2.69667	267
2.70033	264
2.70400	264
2.70767	271
2.71133	280
2.71500	289
2.71867	293
2.72233	290
2.72600	285
2.72967	282
2.73333	281
2.73700	283
2.74067	285
2.74433	288
2.74800	290
2.75167	288
2.75533	285
2.75900	281
2.76267	275
2.76633	268
2.77000	266
2.77367	267
2.77733	269
2.78100	272
2.78467	275
2.78833	276
2.79200	276
2.79567	274
2.79933	272
2.80300	272
2.80667	275
2.81033	277
2.81400	279
2.81767	281
2.82133	282
2.82500	281
2.82867	277
2.83233	273
2.83600	272
2.83967	276
2.84333	279
2.84700	283
2.85067	288
2.85433	292
2.85800	289
2.86167	281
2.86533	271
2.86900	264
2.87267	261
2.87633	262
2.88000	268
2.88367	273
2.88733	273
2.89100	271
2.89467	270
2.89833	274
2.90200	285
2.90567	295
2.90933	301
2.91300	302
2.91667	299
2.92033	293
2.92400	287
2.92767	286
2.93133	288
2.93500	286
2.93867	279
2.94233	274
2.94600	273
2.94967	275
2.95333	278
2.95700	281
2.96067	280
2.96433	278
2.96800	276
2.97167	276
2.97533	280
2.97900	281
2.98267	282
2.98633	282
2.99000	283
2.99367	281
2.99733	280
3.00100	279
3.00467	279
3.00833	281
3.01200	284
3.01567	285
3.01933	287
3.02300	294
3.02667	302
3.03033	305
3.03400	305
3.03767	302
3.04133	296
3.04500	289
3.04867	282
3.05233	276
3.05600	276
3.05967	280
3.06333	289
3.06700	299
3.07067	302
3.07433	298
3.07800	292
3.08167	286
3.08533	283
3.08900	280
3.09267	276
3.09633	275
3.10000	273
3.10367	268
3.10733	263
3.11100	258
3.11467	256
3.11833	260
3.12200	265
3.12567	267
3.12933	267
3.13300	268
3.13667	272
3.14033	275
3.14400	277
3.14767	277
3.15133	274
3.15500	270
3.15867	269
3.16233	270
3.16600	275
3.16967	279
3.17333	279
3.17700	278
3.18067	277
3.18433	275
3.18800	274
3.19167	276
3.19533	278
3.19900	277
3.20267	274
3.20633	272
3.21000	272
3.21367	272
3.21733	276
3.22100	282
3.22467	287
3.22833	289
3.23200	289
3.23567	289
3.23933	289
3.24300	289
3.24667	290
3.25033	290
3.25400	287
3.25767	280
3.26133	271
3.26500	264
3.26867	263
3.27233	265
3.27600	267
3.27967	268
3.28333	265
3.28700	261
3.29067	259
3.29433	259
3.29800	258
3.30167	258
3.30533	257
3.30900	256
3.31267	255
3.31633	257
3.32000	261
3.32367	265
3.32733	266
3.33100	267
3.33467	269
3.33833	272
3.34200	271
3.34567	269
3.34933	269
3.35300	270
3.35667	273
3.36033	273
3.36400	271
3.36767	268
3.37133	269
3.37500	274
3.37867	278
3.38233	279
3.38600	280
3.38967	282
3.39333	283
3.39700	282
3.40067	277
3.40433	269
3.40800	260
3.41167	253
3.41533	248
3.41900	249
3.42267	252
3.42633	259
3.43000	266
3.43367	270
3.43733	272
3.44100	273
3.44467	273
3.44833	273
3.45200	270
3.45567	266
3.45933	263
3.46300	261
3.46667	258
3.47033	254
3.47400	249
3.47767	244
3.48133	244
3.48500	245
3.48867	245
3.49233	241
3.49600	239
3.49967	241
3.50333	247
3.50700	254
3.51067	258
3.51433	258
3.51800	259
3.52167	260
3.52533	263
3.52900	264
3.53267	264
3.53633	259
3.54000	248
3.54367	237
3.54733	230
3.55100	225
3.55467	224
3.55833	224
3.56200	227
3.56567	228
3.56933	227
3.57300	223
3.57667	221
3.58033	221
3.58400	221
3.58767	222
3.59133	227
3.59500	232
3.59867	237
3.60233	240
3.60600	239
3.60967	236
3.61333	234
3.61700	239
3.62067	248
3.62433	258
3.62800	261
3.63167	256
3.63533	244
3.63900	233
3.64267	232
3.64633	238
3.65000	246
3.65367	250
3.65733	244
3.66100	233
3.66467	222
3.66833	212
3.67200	206
3.67567	203
3.67933	205
3.68300	209
3.68667	211
3.69033	211
3.69400	211
3.69767	215
3.70133	219
3.70500	222
3.70867	224
3.71233	225
3.71600	226
3.71967	225
3.72333	225
3.72700	228
3.73067	232
3.73433	230
3.73800	223
3.74167	216
3.74533	209
3.74900	202
3.75267	197
3.75633	198
3.76000	205
3.76367	214
3.76733	221
3.77100	225
3.77467	227
3.77833	225
3.78200	218
3.78567	210
3.78933	201
3.79300	195
3.79667	194
3.80033	194
3.80400	190
3.80767	189
3.81133	190
3.81500	192
3.81867	195
3.82233	196
3.82600	195
3.82967	198
3.83333	205
3.83700	212
3.84067	215
3.84433	211
3.84800	203
3.85167	198
3.85533	197
3.85900	199
3.86267	202
3.86633	205
3.87000	207
3.87367	210
3.87733	214
3.88100	213
3.88467	210
3.88833	208
3.89200	205
3.89567	200
3.89933	195
3.90300	190
3.90667	192
3.91033	199
3.91400	205
3.91767	207
3.92133	206
3.92500	204
3.92867	201
3.93233	196
3.93600	195
3.93967	195
3.94333	193
3.94700	190
3.95067	189
3.95433	192
3.95800	196
3.96167	199
3.96533	199
3.96900	198
3.97267	199
3.97633	198
3.98000	198
3.98367	195
3.98733	192
3.99100	195
3.99467	198
3.99833	201

[Chromatogram (Ch2)]
Interval(msec)	220
# of Points	1091
Start Time(min)	0.002
End Time(min)	3.998
R.Time (min)	Intensity
0.00167	-1
0.00533	-1
0.00900	-2
0.01267	-2
0.01633	-3
0.02000	-3
0.02367	-4
0.02733	-4
0.03100	-5
0.03467	-5
0.03833	-5
0.04200	-5
0.04567	-5
0.04933	-5
0.05300	-5
0.05667	-5
0.06033	-4
0.06400	-4
0.06767	-3
0.07133	-3
0.07500	-3
0.07867	-2
0.08233	-2
0.08600	-1
0.08967	-1
0.09333	-0
0.09700	0
0.10067	1
0.10433	1
0.10800	2
0.11167	2
0.11533	2
0.11900	2
0.12267	2
0.12633	3
0.13000	3
0.13367	3
0.13733	3
0.14100	3
0.14467	3
0.14833	3
0.15200	3
0.15567	3
0.15933	3
0.16300	3
0.16667	3
0.17033	3
0.17400	3
0.17767	3
0.18133	3
0.18500	3
0.18867	3
0.19233	3
0.19600	2
0.19967	2
0.20333	2
0.20700	2
0.21067	2
0.21433	2
0.21800	2
0.22167	2
0.22533	2
0.22900	2
0.23267	3
0.23633	3
0.24000	3
0.24367	3
0.24733	3
0.25100	3
0.25467	2
0.25833	2
0.26200	1
0.26567	1
0.26933	1
0.27300	1
0.27667	1
0.28033	2
0.28400	2
0.28767	2
0.29133	1
0.29500	1
0.29867	0
0.30233	-0
0.30600	-0
0.30967	-1
0.31333	-1
0.31700	-1
0.32067	-1
0.32433	-1
0.32800	-1
0.33167	-1
0.33533	-2
0.33900	-2
0.34267	-2
0.34633	-1
0.35000	-1
0.35367	-1
0.35733	-1
0.36100	-1
0.36467	-0
0.36833	-0
0.37200	-0
0.37567	-0
0.37933	-1
0.38300	-1
0.38667	-1
0.39033	-1
0.39400	-1
0.39767	-1
0.40133	-1
0.40500	-0
0.40867	-0
0.41233	-0
0.41600	-0
0.41967	0
0.42333	0
0.42700	0
0.43067	1
0.43433	1
0.43800	0
0.44167	0
0.44533	0
0.44900	-0
0.45267	0
0.45633	0
0.46000	0
0.46367	0
0.46733	0
0.47100	-0
0.47467	-0
0.47833	-0
0.48200	-0
0.48567	-1
0.48933	-1
0.49300	-1
0.49667	-1
0.50033	-1
0.50400	-1
0.50767	-1
0.51133	-2
0.51500	-2
0.51867	-2
0.52233	-2
0.52600	-2
0.52967	-2
0.53333	-2
0.53700	-2
0.54067	-2
0.54433	-1
0.54800	-1
0.55167	-1
0.55533	-1
0.55900	-1
0.56267	-2
0.56633	-2
0.57000	-2
0.57367	-2
0.57733	-2
0.58100	-3
0.58467	-3
0.58833	-3
0.59200	-3
0.59567	-3
0.59933	-3
0.60300	-3
0.60667	-3
0.61033	-3
0.61400	-3
0.61767	-3
0.62133	-3
0.62500	-3
0.62867	-3
0.63233	-2
0.63600	-2
0.63967	-2
0.64333	-2
0.64700	-2
0.65067	-2
0.65433	-2
0.65800	-2
0.66167	-1
0.66533	-1
0.66900	-0
0.67267	-0
0.67633	0
0.68000	1
0.68367	1
0.68733	1
0.69100	1
0.69467	1
0.69833	1
0.70200	1
0.70567	1
0.70933	1
0.71300	1
0.71667	1
0.72033	0
0.72400	0
0.72767	-0
0.73133	-1
0.73500	-1
0.73867	-1
0.74233	-1
0.74600	-1
0.74967	-1
0.75333	-1
0.75700	-1
0.76067	-1
0.76433	-1
0.76800	-1
0.77167	-1
0.77533	-1
0.77900	-1
0.78267	-1
0.78633	-1
0.79000	-1
0.79367	-1
0.79733	-1
0.80100	-1
0.80467	-1
0.80833	-1
0.81200	-1
0.81567	-1
0.81933	-1
0.82300	-1
0.82667	-1
0.83033	-1
0.83400	-1
0.83767	-1
0.84133	-1
0.84500	-1
0.84867	-1
0.85233	-1
0.85600	-1
0.85967	-1
0.86333	-1
0.86700	-1
0.87067	-1
0.87433	-1
0.87800	-1
0.88167	-1
0.88533	-1
0.88900	-1
0.89267	-1
0.89633	-1
0.90000	-1
0.90367	-1
0.90733	-0
0.91100	-0
0.91467	-0
0.91833	-0
0.92200	-0
0.92567	-0
0.92933	-0
0.93300	-0
0.93667	-0
0.94033	0
0.94400	0
0.94767	0
0.95133	0
0.95500	0
0.95867	0
0.96233	0
0.96600	0
0.96967	0
0.97333	0
0.97700	0
0.98067	0
0.98433	-0
0.98800	-0
0.99167	0
0.99533	-0
0.99900	-0
1.00267	-1
1.00633	-1
1.01000	-1
1.01367	-1
1.01733	-1
1.02100	-1
1.02467	-1
1.02833	-1
1.03200	-1
1.03567	-1
1.03933	-1
1.04300	-1
1.04667	-1
1.05033	-1
1.05400	-1
1.05767	-1
1.06133	-2
1.06500	-2
1.06867	-2
1.07233	-3
1.07600	-3
1.07967	-3
1.08333	-3
1.08700	-3
1.09067	-3
1.09433	-3
1.09800	-3
1.10167	-3
1.10533	-3
1.10900	-3
1.11267	-3
1.11633	-4
1.12000	-4
1.12367	-4
1.12733	-4
1.13100	-4
1.13467	-5
1.13833	-5
1.14200	-6
1.14567	-6
1.14933	-7
1.15300	-7
1.15667	-7
1.16033	-7
1.16400	-7
1.16767	-6
1.17133	-6
1.17500	-6
1.17867	-6
1.18233	-6
1.18600	-6
1.18967	-6
1.19333	-6
1.19700	-5
1.20067	-5
1.20433	-5
1.20800	-5
1.21167	-4
1.21533	-4
1.21900	-3
1.22267	-3
1.22633	-3
1.23000	-2
1.23367	-2
1.23733	-1
1.24100	-1
1.24467	-1
1.24833	-1
1.25200	-1
1.25567	-1
1.25933	-1
1.26300	-1
1.26667	-1
1.27033	-1
1.27400	-0
1.27767	-0
1.28133	0
1.28500	0
1.28867	0
1.29233	0
1.29600	-0
1.29967	-0
1.30333	-0
1.30700	-0
1.31067	-1
1.31433	-1
1.31800	-1
1.32167	-1
1.32533	-1
1.32900	-1
1.33267	-1
1.33633	-1
1.34000	-1
1.34367	-1
1.34733	-1
1.35100	-1
1.35467	-1
1.35833	-1
1.36200	-1
1.36567	-1
1.36933	-1
1.37300	-1
1.37667	-0
1.38033	-0
1.38400	0
1.38767	-0
1.39133	-0
1.39500	-0
1.39867	-1
1.40233	-1
1.40600	-1
1.40967	-1
1.41333	-1
1.41700	-1
1.42067	-1
1.42433	-1
1.42800	-1
1.43167	-1
1.43533	-1
1.43900	-1
1.44267	-1
1.44633	-1
1.45000	-1
1.45367	-1
1.45733	-1
1.46100	-1
1.46467	-1
1.46833	-1
1.47200	-1
1.47567	-1
1.47933	-1
1.48300	-1
1.48667	-1
1.49033	-1
1.49400	-1
1.49767	-1
1.50133	-2
1.50500	-2
1.50867	-2
1.51233	-2
1.51600	-2
1.51967	-2
1.52333	-3
1.52700	-3
1.53067	-3
1.53433	-4
1.53800	-4
1.54167	-4
1.54533	-4
1.54900	-4
1.55267	-5
1.55633	-5
1.56000	-6
1.56367	-6
1.56733	-6
1.57100	-6
1.57467	-6
1.57833	-6
1.58200	-6
1.58567	-5
1.58933	-5
1.59300	-5
1.59667	-5
1.60033	-5
1.60400	-6
1.60767	-7
1.61133	-9
1.61500	-10
1.61867	-12
1.62233	-15
1.62600	-18
1.62967	-21
1.63333	-24
1.63700	-27
1.64067	-31
1.64433	-34
1.64800	-38
1.65167	-42
1.65533	-45
1.65900	-49
1.66267	-53
1.66633	-58
1.67000	-63
1.67367	-68
1.67733	-74
1.68100	-79
1.68467	-84
1.68833	-89
1.69200	-94
1.69567	-98
1.69933	-101
1.70300	-104
1.70667	-106
1.71033	-108
1.71400	-110
1.71767	-111
1.72133	-112
1.72500	-113
1.72867	-114
1.73233	-114
1.73600	-114
1.73967	-114
1.74333	-114
1.74700	-114
1.75067	-115
1.75433	-115
1.75800	-117
1.76167	-118
1.76533	-120
1.76900	-121
1.77267	-122
1.77633	-123
1.78000	-124
1.78367	-124
1.78733	-124
1.79100	-124
1.79467	-123
1.79833	-123
1.80200	-122
1.80567	-121
1.80933	-121
1.81300	-121
1.81667	-121
1.82033	-121
1.82400	-121
1.82767	-122
1.83133	-122
1.83500	-122
1.83867	-123
1.84233	-123
1.84600	-123
1.84967	-122
1.85333	-122
1.85700	-122
1.86067	-122
1.86433	-122
1.86800	-122
1.87167	-122
1.87533	-123
1.87900	-123
1.88267	-122
1.88633	-122
1.89000	-122
1.89367	-122
1.89733	-121
1.90100	-121
1.90467	-121
1.90833	-120
1.91200	-120
1.91567	-120
1.91933	-120
1.92300	-120
1.92667	-120
1.93033	-120
1.93400	-120
1.93767	-120
1.94133	-120
1.94500	-120
1.94867	-120
1.95233	-120
1.95600	-119
1.95967	-119
1.96333	-119
1.96700	-119
1.97067	-118
1.97433	-118
1.97800	-117
1.98167	-117
1.98533	-116
1.98900	-115
1.99267	-115
1.99633	-115
2.00000	-115
2.00367	-115
2.00733	-115
2.01100	-115
2.01467	-115
2.01833	-115
2.02200	-114
2.02567	-114
2.02933	-113
2.03300	-112
2.03667	-112
2.04033	-111
2.04400	-111
2.04767	-111
2.05133	-110
2.05500	-109
2.05867	-109
2.06233	-109
2.06600	-108
2.06967	-108
2.07333	-108
2.07700	-108
2.08067	-109
2.08433	-109
2.08800	-108
2.09167	-108
2.09533	-108
2.09900	-108
2.10267	-108
2.10633	-107
2.11000	-106
2.11367	-106
2.11733	-106
2.12100	-106
2.12467	-105
2.12833	-105
2.13200	-105
2.13567	-105
2.13933	-105
2.14300	-104
2.14667	-104
2.15033	-103
2.15400	-102
2.15767	-101
2.16133	-101
2.16500	-101
2.16867	-101
2.17233	-101
2.17600	-101
2.17967	-101
2.18333	-100
2.18700	-100
2.19067	-100
2.19433	-100
2.19800	-100
2.20167	-100
2.20533	-100
2.20900	-99
2.21267	-99
2.21633	-99
2.22000	-99
2.22367	-99
2.22733	-98
2.23100	-98
2.23467	-98
2.23833	-97
2.24200	-97
2.24567	-97
2.24933	-96
2.25300	-95
2.25667	-95
2.26033	-94
2.26400	-94
2.26767	-94
2.27133	-93
2.27500	-93
2.27867	-93
2.28233	-93
2.28600	-93
2.28967	-92
2.29333	-92
2.29700	-92
2.30067	-91
2.30433	-91
2.30800	-90
2.31167	-90
2.31533	-89
2.31900	-89
2.32267	-89
2.32633	-88
2.33000	-88
2.33367	-88
2.33733	-88
2.34100	-88
2.34467	-87
2.34833	-87
2.35200	-86
2.35567	-85
2.35933	-85
2.36300	-85
2.36667	-85
2.37033	-84
2.37400	-83
2.37767	-81
2.38133	-78
2.38500	-75
2.38867	-72
2.39233	-68
2.39600	-63
2.39967	-58
2.40333	-53
2.40700	-48
2.41067	-43
2.41433	-38
2.41800	-34
2.42167	-30
2.42533	-26
2.42900	-23
2.43267	-21
2.43633	-19
2.44000	-17
2.44367	-15
2.44733	-14
2.45100	-13
2.45467	-11
2.45833	-10
2.46200	-8
2.46567	-6
2.46933	-4
2.47300	-3
2.47667	-1
2.48033	0
2.48400	1
2.48767	2
2.49133	3
2.49500	4
2.49867	5
2.50233	6
2.50600	7
2.50967	8
2.51333	8
2.51700	9
2.52067	9
2.52433	9
2.52800	10
2.53167	10
2.53533	11
2.53900	12
2.54267	12
2.54633	13
2.55000	14
2.55367	15
2.55733	16
2.56100	16
2.56467	16
2.56833	15
2.57200	15
2.57567	15
2.57933	15
2.58300	15
2.58667	15
2.59033	15
2.59400	16
2.59767	16
2.60133	17
2.60500	18
2.60867	18
2.61233	19
2.61600	19
2.61967	19
2.62333	19
2.62700	19
2.63067	19
2.63433	19
2.63800	20
2.64167	20
2.64533	20
2.64900	20
2.65267	20
2.65633	20
2.66000	20
2.66367	20
2.66733	20
2.67100	20
2.67467	20
2.67833	20
2.68200	20
2.68567	20
2.68933	21
2.69300	21
2.69667	21
2.70033	21
2.70400	21
2.70767	21
2.71133	21
2.71500	22
2.71867	22
2.72233	22
2.72600	22
2.72967	22
2.73333	21
2.73700	21
2.74067	21
2.74433	21
2.74800	22
2.75167	22
2.75533	22
2.75900	22
2.76267	22
2.76633	22
2.77000	22
2.77367	22
2.77733	23
2.78100	23
2.78467	23
2.78833	23
2.79200	23
2.79567	24
2.79933	24
2.80300	24
2.80667	24
2.81033	24
2.81400	24
2.81767	24
2.82133	23
2.82500	23
2.82867	23
2.83233	23
2.83600	23
2.83967	23
2.84333	23
2.84700	23
2.85067	22
2.85433	19
2.85800	15
2.86167	7
2.86533	-3
2.86900	-18
2.87267	-37
2.87633	-60
2.88000	-89
2.88367	-123
2.88733	-161
2.89100	-205
2.89467	-254
2.89833	-307
2.90200	-364
2.90567	-426
2.90933	-490
2.91300	-559
2.91667	-630
2.92033	-704
2.92400	-780
2.92767	-859
2.93133	-940
2.93500	-1022
2.93867	-1107
2.94233	-1193
2.94600	-1280
2.94967	-1369
2.95333	-1451
2.95700	-1515
2.96067	-1550
2.96433	-1549
2.96800	-1513
2.97167	-1447
2.97533	-1360
2.97900	-1257
2.98267	-1147
2.98633	-1035
2.99000	-925
2.99367	-820
2.99733	-722
3.00100	-632
3.00467	-551
3.00833	-478
3.01200	-413
3.01567	-356
3.01933	-306
3.02300	-263
3.02667	-225
3.03033	-192
3.03400	-164
3.03767	-140
3.04133	-119
3.04500	-101
3.04867	-86
3.05233	-73
3.05600	-62
3.05967	-52
3.06333	-44
3.06700	-37
3.07067	-31
3.07433	-25
3.07800	-20
3.08167	-16
3.08533	-13
3.08900	-10
3.09267	-7
3.09633	-4
3.10000	-2
3.10367	-1
3.10733	1
3.11100	3
3.11467	4
3.11833	5
3.12200	7
3.12567	8
3.12933	9
3.13300	10
3.13667	11
3.14033	12
3.14400	13
3.14767	13
3.15133	14
3.15500	14
3.15867	14
3.16233	15
3.16600	15
3.16967	15
3.17333	15
3.17700	16
3.18067	16
3.18433	16
3.18800	17
3.19167	17
3.19533	17
3.19900	17
3.20267	17
3.20633	18
3.21000	18
3.21367	18
3.21733	19
3.22100	19
3.22467	19
3.22833	19
3.23200	19
3.23567	19
3.23933	19
3.24300	19
3.24667	19
3.25033	20
3.25400	20
3.25767	20
3.26133	20
3.26500	20
3.26867	20
3.27233	20
3.27600	19
3.27967	19
3.28333	19
3.28700	19
3.29067	19
3.29433	20
3.29800	20
3.30167	20
3.30533	20
3.30900	20
3.31267	20
3.31633	20
3.32000	21
3.32367	21
3.32733	21
3.33100	21
3.33467	21
3.33833	21
3.34200	20
3.34567	20
3.34933	20
3.35300	20
3.35667	20
3.36033	20
3.36400	20
3.36767	21
3.37133	21
3.37500	21
3.37867	22
3.38233	22
3.38600	22
3.38967	23
3.39333	23
3.39700	23
3.40067	24
3.40433	24
3.40800	24
3.41167	24
3.41533	24
3.41900	24
3.42267	24
3.42633	24
3.43000	25
3.43367	25
3.43733	25
3.44100	25
3.44467	26
3.44833	26
3.45200	26
3.45567	26
3.45933	26
3.46300	26
3.46667	26
3.47033	26
3.47400	25
3.47767	25
3.48133	25
3.48500	25
3.48867	25
3.49233	25
3.49600	25
3.49967	26
3.50333	26
3.50700	26
3.51067	26
3.51433	26
3.51800	26
3.52167	26
3.52533	25
3.52900	25
3.53267	25
3.53633	25
3.54000	25
3.54367	25
3.54733	25
3.55100	25
3.55467	25
3.55833	26
3.56200	26
3.56567	26
3.56933	26
3.57300	26
3.57667	26
3.58033	26
3.58400	25
3.58767	25
3.59133	25
3.59500	25
3.59867	25
3.60233	25
3.60600	25
3.60967	25
3.61333	24
3.61700	24
3.62067	24
3.62433	24
3.62800	24
3.63167	24
3.63533	24
3.63900	24
3.64267	24
3.64633	25
3.65000	25
3.65367	25
3.65733	25
3.66100	24
3.66467	24
3.66833	24
3.67200	24
3.67567	24
3.67933	24
3.68300	24
3.68667	24
3.69033	24
3.69400	24
3.69767	24
3.70133	24
3.70500	24
3.70867	24
3.71233	24
3.71600	24
3.71967	24
3.72333	24
3.72700	24
3.73067	24
3.73433	24
3.73800	24
3.74167	24
3.74533	24
3.74900	24
3.75267	24
3.75633	24
3.76000	23
3.76367	23
3.76733	23
3.77100	23
3.77467	24
3.77833	24
3.78200	24
3.78567	24
3.78933	24
3.79300	23
3.79667	23
3.80033	23
3.80400	23
3.80767	23
3.81133	23
3.81500	23
3.81867	23
3.82233	23
3.82600	23
3.82967	23
3.83333	23
3.83700	23
3.84067	23
3.84433	23
3.84800	22
3.85167	22
3.85533	22
3.85900	22
3.86267	22
3.86633	21
3.87000	21
3.87367	21
3.87733	21
3.88100	21
3.88467	21
3.88833	21
3.89200	21
3.89567	21
3.89933	21
3.90300	21
3.90667	21
3.91033	21
3.91400	21
3.91767	22
3.92133	22
3.92500	23
3.92867	23
3.93233	24
3.93600	24
3.93967	24
3.94333	25
3.94700	25
3.95067	25
3.95433	25
3.95800	25
3.96167	26
3.96533	26
3.96900	26
3.97267	27
3.97633	27
3.98000	27
3.98367	27
3.98733	27
3.99100	27
3.99467	27
3.99833	27

[Chromatogram (Ch3)]
Interval(msec)	220
# of Points	1091
Start Time(min)	0.002
End Time(min)	3.998
R.Time (min)	Intensity
0.00167	1
0.00533	1
0.00900	3
0.01267	4
0.01633	6
0.02000	8
0.02367	9
0.02733	9
0.03100	7
0.03467	6
0.03833	5
0.04200	5
0.04567	6
0.04933	7
0.05300	8
0.05667	9
0.06033	8
0.06400	9
0.06767	10
0.07133	11
0.07500	11
0.07867	11
0.08233	11
0.08600	11
0.08967	12
0.09333	12
0.09700	9
0.10067	8
0.10433	8
0.10800	9
0.11167	10
0.11533	12
0.11900	10
0.12267	10
0.12633	9
0.13000	8
0.13367	7
0.13733	6
0.14100	4
0.14467	3
0.14833	5
0.15200	6
0.15567	4
0.15933	3
0.16300	4
0.16667	3
0.17033	4
0.17400	6
0.17767	9
0.18133	9
0.18500	7
0.18867	6
0.19233	5
0.19600	2
0.19967	1
0.20333	4
0.20700	7
0.21067	8
0.21433	9
0.21800	10
0.22167	10
0.22533	8
0.22900	6
0.23267	5
0.23633	7
0.24000	7
0.24367	7
0.24733	8
0.25100	8
0.25467	7
0.25833	7
0.26200	10
0.26567	12
0.26933	13
0.27300	13
0.27667	13
0.28033	13
0.28400	11
0.28767	10
0.29133	9
0.29500	7
0.29867	7
0.30233	7
0.30600	7
0.30967	7
0.31333	6
0.31700	8
0.32067	9
0.32433	9
0.32800	9
0.33167	11
0.33533	13
0.33900	12
0.34267	10
0.34633	10
0.35000	9
0.35367	8
0.35733	9
0.36100	10
0.36467	13
0.36833	16
0.37200	18
0.37567	19
0.37933	16
0.38300	16
0.38667	18
0.39033	19
0.39400	19
0.39767	17
0.40133	14
0.40500	12
0.40867	13
0.41233	14
0.41600	13
0.41967	12
0.42333	11
0.42700	10
0.43067	9
0.43433	9
0.43800	10
0.44167	12
0.44533	13
0.44900	14
0.45267	13
0.45633	9
0.46000	9
0.46367	12
0.46733	13
0.47100	14
0.47467	12
0.47833	11
0.48200	9
0.48567	9
0.48933	12
0.49300	15
0.49667	17
0.50033	17
0.50400	18
0.50767	17
0.51133	17
0.51500	19
0.51867	20
0.52233	19
0.52600	19
0.52967	20
0.53333	22
0.53700	22
0.54067	22
0.54433	23
0.54800	22
0.55167	22
0.55533	20
0.55900	20
0.56267	22
0.56633	23
0.57000	22
0.57367	22
0.57733	22
0.58100	20
0.58467	16
0.58833	14
0.59200	15
0.59567	17
0.59933	19
0.60300	20
0.60667	20
0.61033	17
0.61400	16
0.61767	18
0.62133	16
0.62500	15
0.62867	15
0.63233	14
0.63600	15
0.63967	16
0.64333	18
0.64700	19
0.65067	20
0.65433	20
0.65800	20
0.66167	20
0.66533	19
0.66900	17
0.67267	14
0.67633	13
0.68000	14
0.68367	16
0.68733	17
0.69100	18
0.69467	18
0.69833	17
0.70200	15
0.70567	16
0.70933	18
0.71300	20
0.71667	23
0.72033	25
0.72400	25
0.72767	23
0.73133	20
0.73500	20
0.73867	18
0.74233	17
0.74600	16
0.74967	18
0.75333	21
0.75700	24
0.76067	26
0.76433	25
0.76800	23
0.77167	21
0.77533	20
0.77900	20
0.78267	22
0.78633	23
0.79000	22
0.79367	21
0.79733	21
0.80100	20
0.80467	20
0.80833	23
0.81200	23
0.81567	24
0.81933	24
0.82300	24
0.82667	25
0.83033	25
0.83400	26
0.83767	26
0.84133	24
0.84500	22
0.84867	21
0.85233	21
0.85600	21
0.85967	21
0.86333	24
0.86700	25
0.87067	24
0.87433	23
0.87800	23
0.88167	23
0.88533	23
0.88900	22
0.89267	24
0.89633	26
0.90000	26
0.90367	25
0.90733	26
0.91100	24
0.91467	22
0.91833	23
0.92200	25
0.92567	26
0.92933	26
0.93300	25
0.93667	25
0.94033	27
0.94400	30
0.94767	33
0.95133	33
0.95500	30
0.95867	26
0.96233	25
0.96600	25
0.96967	25
0.97333	25
0.97700	25
0.98067	24
0.98433	23
0.98800	23
0.99167	24
0.99533	24
0.99900	24
1.00267	24
1.00633	24
1.01000	26
1.01367	26
1.01733	27
1.02100	30
1.02467	30
1.02833	28
1.03200	27
1.03567	26
1.03933	26
1.04300	27
1.04667	26
1.05033	25
1.05400	26
1.05767	26
1.06133	25
1.06500	26
1.06867	28
1.07233	30
1.07600	32
1.07967	33
1.08333	32
1.08700	33
1.09067	32
1.09433	33
1.09800	34
1.10167	32
1.10533	32
1.10900	31
1.11267	30
1.11633	32
1.12000	31
1.12367	30
1.12733	29
1.13100	28
1.13467	30
1.13833	31
1.14200	31
1.14567	33
1.14933	32
1.15300	32
1.15667	32
1.16033	32
1.16400	31
1.16767	30
1.17133	31
1.17500	33
1.17867	35
1.18233	34
1.18600	33
1.18967	33
1.19333	34
1.19700	33
1.20067	29
1.20433	28
1.20800	30
1.21167	33
1.21533	35
1.21900	35
1.22267	34
1.22633	33
1.23000	35
1.23367	37
1.23733	37
1.24100	35
1.24467	33
1.24833	32
1.25200	29
1.25567	29
1.25933	30
1.26300	33
1.26667	36
1.27033	38
1.27400	37
1.27767	35
1.28133	33
1.28500	33
1.28867	32
1.29233	31
1.29600	32
1.29967	35
1.30333	36
1.30700	37
1.31067	36
1.31433	39
1.31800	39
1.32167	36
1.32533	34
1.32900	34
1.33267	36
1.33633	35
1.34000	32
1.34367	34
1.34733	34
1.35100	33
1.35467	35
1.35833	34
1.36200	35
1.36567	37
1.36933	36
1.37300	35
1.37667	35
1.38033	34
1.38400	32
1.38767	34
1.39133	38
1.39500	39
1.39867	38
1.40233	39
1.40600	39
1.40967	39
1.41333	41
1.41700	43
1.42067	42
1.42433	40
1.42800	38
1.43167	36
1.43533	36
1.43900	35
1.44267	34
1.44633	34
1.45000	34
1.45367	36
1.45733	37
1.46100	37
1.46467	37
1.46833	38
1.47200	38
1.47567	40
1.47933	41
1.48300	42
1.48667	40
1.49033	38
1.49400	40
1.49767	40
1.50133	39
1.50500	38
1.50867	41
1.51233	44
1.51600	46
1.51967	45
1.52333	42
1.52700	39
1.53067	38
1.53433	39
1.53800	40
1.54167	40
1.54533	39
1.54900	40
1.55267	41
1.55633	40
1.56000	39
1.56367	38
1.56733	38
1.57100	38
1.57467	35
1.57833	35
1.58200	36
1.58567	37
1.58933	39
1.59300	39
1.59667	38
1.60033	38
1.60400	40
1.60767	42
1.61133	44
1.61500	45
1.61867	43
1.62233	43
1.62600	46
1.62967	47
1.63333	47
1.63700	48
1.64067	47
1.64433	46
1.64800	45
1.65167	43
1.65533	44
1.65900	44
1.66267	44
1.66633	44
1.67000	45
1.67367	46
1.67733	45
1.68100	45
1.68467	47
1.68833	48
1.69200	52
1.69567	54
1.69933	53
1.70300	53
1.70667	55
1.71033	56
1.71400	54
1.71767	53
1.72133	51
1.72500	49
1.72867	50
1.73233	53
1.73600	54
1.73967	57
1.74333	58
1.74700	60
1.75067	59
1.75433	60
1.75800	61
1.76167	62
1.76533	61
1.76900	62
1.77267	63
1.77633	66
1.78000	68
1.78367	68
1.78733	67
1.79100	69
1.79467	71
1.79833	76
1.80200	77
1.80567	75
1.80933	73
1.81300	74
1.81667	74
1.82033	74
1.82400	75
1.82767	75
1.83133	76
1.83500	77
1.83867	79
1.84233	79
1.84600	80
1.84967	80
1.85333	80
1.85700	79
1.86067	80
1.86433	82
1.86800	84
1.87167	84
1.87533	83
1.87900	84
1.88267	85
1.88633	85
1.89000	87
1.89367	87
1.89733	86
1.90100	84
1.90467	84
1.90833	87
1.91200	88
1.91567	90
1.91933	93
1.92300	95
1.92667	97
1.93033	99
1.93400	99
1.93767	101
1.94133	103
1.94500	104
1.94867	104
1.95233	106
1.95600	105
1.95967	104
1.96333	104
1.96700	104
1.97067	106
1.97433	108
1.97800	110
1.98167	109
1.98533	109
1.98900	109
1.99267	110
1.99633	113
2.00000	115
2.00367	113
2.00733	112
2.01100	113
2.01467	115
2.01833	116
2.02200	120
2.02567	121
2.02933	122
2.03300	127
2.03667	129
2.04033	128
2.04400	128
2.04767	129
2.05133	132
2.05500	133
2.05867	133
2.06233	133
2.06600	135
2.06967	137
2.07333	140
2.07700	139
2.08067	137
2.08433	137
2.08800	138
2.09167	140
2.09533	143
2.09900	144
2.10267	145
2.10633	148
2.11000	150
2.11367	149
2.11733	149
2.12100	149
2.12467	148
2.12833	147
2.13200	150
2.13567	151
2.13933	152
2.14300	154
2.14667	156
2.15033	157
2.15400	160
2.15767	161
2.16133	163
2.16500	165
2.16867	166
2.17233	168
2.17600	168
2.17967	167
2.18333	169
2.18700	171
2.19067	175
2.19433	176
2.19800	177
2.20167	177
2.20533	178
2.20900	181
2.21267	183
2.21633	184
2.22000	186
2.22367	190
2.22733	193
2.23100	193
2.23467	194
2.23833	194
2.24200	191
2.24567	189
2.24933	189
2.25300	188
2.25667	188
2.26033	191
2.26400	193
2.26767	195
2.27133	200
2.27500	203
2.27867	207
2.28233	210
2.28600	211
2.28967	210
2.29333	210
2.29700	211
2.30067	212
2.30433	213
2.30800	214
2.31167	215
2.31533	218
2.31900	221
2.32267	223
2.32633	225
2.33000	226
2.33367	227
2.33733	227
2.34100	227
2.34467	228
2.34833	229
2.35200	231
2.35567	232
2.35933	233
2.36300	235
2.36667	236
2.37033	236
2.37400	236
2.37767	237
2.38133	239
2.38500	239
2.38867	239
2.39233	240
2.39600	241
2.39967	243
2.40333	241
2.40700	240
2.41067	241
2.41433	242
2.41800	243
2.42167	243
2.42533	244
2.42900	245
2.43267	249
2.43633	250
2.44000	249
2.44367	254
2.44733	265
2.45100	277
2.45467	282
2.45833	279
2.46200	266
2.46567	252
2.46933	242
2.47300	235
2.47667	228
2.48033	219
2.48400	207
2.48767	193
2.49133	183
2.49500	175
2.49867	169
2.50233	164
2.50600	159
2.50967	154
2.51333	151
2.51700	150
2.52067	149
2.52433	146
2.52800	143
2.53167	141
2.53533	138
2.53900	133
2.54267	129
2.54633	124
2.55000	117
2.55367	112
2.55733	109
2.56100	108
2.56467	107
2.56833	105
2.57200	105
2.57567	105
2.57933	105
2.58300	105
2.58667	104
2.59033	103
2.59400	102
2.59767	100
2.60133	97
2.60500	89
2.60867	75
2.61233	54
2.61600	24
2.61967	-11
2.62333	-49
2.62700	-88
2.63067	-122
2.63433	-153
2.63800	-181
2.64167	-205
2.64533	-223
2.64900	-235
2.65267	-243
2.65633	-246
2.66000	-243
2.66367	-239
2.66733	-233
2.67100	-224
2.67467	-215
2.67833	-203
2.68200	-191
2.68567	-181
2.68933	-171
2.69300	-161
2.69667	-148
2.70033	-137
2.70400	-127
2.70767	-119
2.71133	-111
2.71500	-102
2.71867	-92
2.72233	-83
2.72600	-74
2.72967	-66
2.73333	-59
2.73700	-54
2.74067	-50
2.74433	-47
2.74800	-43
2.75167	-39
2.75533	-34
2.75900	-33
2.76267	-32
2.76633	-31
2.77000	-29
2.77367	-30
2.77733	-31
2.78100	-32
2.78467	-31
2.78833	-32
2.79200	-31
2.79567	-30
2.79933	-31
2.80300	-33
2.80667	-33
2.81033	-32
2.81400	-30
2.81767	-26
2.82133	-21
2.82500	-10
2.82867	19
2.83233	89
2.83600	235
2.83967	517
2.84333	1002
2.84700	1754
2.85067	2810
2.85433	4176
2.85800	5809
2.86167	7623
2.86533	9495
2.86900	11289
2.87267	12867
2.87633	14111
2.88000	14944
2.88367	15335
2.88733	15299
2.89100	14897
2.89467	14202
2.89833	13301
2.90200	12276
2.90567	11193
2.90933	10104
2.91300	9044
2.91667	8042
2.92033	7112
2.92400	6258
2.92767	5487
2.93133	4796
2.93500	4181
2.93867	3638
2.94233	3159
2.94600	2738
2.94967	2368
2.95333	2046
2.95700	1765
2.96067	1518
2.96433	1307
2.96800	1125
2.97167	967
2.97533	834
2.97900	719
2.98267	618
2.98633	531
2.99000	456
2.99367	389
2.99733	331
3.00100	283
3.00467	243
3.00833	210
3.01200	179
3.01567	152
3.01933	132
3.02300	115
3.02667	98
3.03033	84
3.03400	73
3.03767	66
3.04133	62
3.04500	55
3.04867	48
3.05233	46
3.05600	43
3.05967	41
3.06333	40
3.06700	39
3.07067	39
3.07433	41
3.07800	43
3.08167	41
3.08533	42
3.08900	43
3.09267	45
3.09633	47
3.10000	49
3.10367	50
3.10733	52
3.11100	55
3.11467	58
3.11833	60
3.12200	60
3.12567	62
3.12933	61
3.13300	58
3.13667	58
3.14033	56
3.14400	52
3.14767	49
3.15133	45
3.15500	45
3.15867	45
3.16233	44
3.16600	43
3.16967	40
3.17333	37
3.17700	34
3.18067	32
3.18433	30
3.18800	27
3.19167	25
3.19533	25
3.19900	24
3.20267	23
3.20633	20
3.21000	18
3.21367	20
3.21733	26
3.22100	39
3.22467	58
3.22833	85
3.23200	116
3.23567	147
3.23933	179
3.24300	209
3.24667	237
3.25033	262
3.25400	290
3.25767	315
3.26133	338
3.26500	362
3.26867	386
3.27233	409
3.27600	430
3.27967	450
3.28333	470
3.28700	488
3.29067	504
3.29433	521
3.29800	537
3.30167	549
3.30533	560
3.30900	567
3.31267	576
3.31633	582
3.32000	588
3.32367	591
3.32733	594
3.33100	596
3.33467	599
3.33833	601
3.34200	601
3.34567	603
3.34933	605
3.35300	605
3.35667	607
3.36033	608
3.36400	608
3.36767	606
3.37133	605
3.37500	605
3.37867	604
3.38233	602
3.38600	600
3.38967	600
3.39333	599
3.39700	597
3.40067	594
3.40433	593
3.40800	593
3.41167	596
3.41533	598
3.41900	601
3.42267	599
3.42633	596
3.43000	590
3.43367	586
3.43733	585
3.44100	583
3.44467	580
3.44833	579
3.45200	578
3.45567	576
3.45933	574
3.46300	572
3.46667	569
3.47033	567
3.47400	567
3.47767	568
3.48133	570
3.48500	569
3.48867	565
3.49233	562
3.49600	559
3.49967	557
3.50333	558
3.50700	559
3.51067	558
3.51433	557
3.51800	556
3.52167	553
3.52533	550
3.52900	548
3.53267	545
3.53633	542
3.54000	541
3.54367	542
3.54733	541
3.55100	540
3.55467	538
3.55833	536
3.56200	534
3.56567	530
3.56933	528
3.57300	526
3.57667	526
3.58033	521
3.58400	517
3.58767	515
3.59133	515
3.59500	512
3.59867	509
3.60233	507
3.60600	505
3.60967	501
3.61333	495
3.61700	493
3.62067	493
3.62433	491
3.62800	492
3.63167	491
3.63533	487
3.63900	486
3.64267	485
3.64633	485
3.65000	484
3.65367	482
3.65733	477
3.66100	474
3.66467	468
3.66833	465
3.67200	464
3.67567	464
3.67933	466
3.68300	466
3.68667	464
3.69033	464
3.69400	463
3.69767	459
3.70133	456
3.70500	452
3.70867	451
3.71233	451
3.71600	451
3.71967	450
3.72333	447
3.72700	443
3.73067	440
3.73433	437
3.73800	437
3.74167	439
3.74533	437
3.74900	431
3.75267	425
3.75633	422
3.76000	422
3.76367	422
3.76733	421
3.77100	418
3.77467	415
3.77833	413
3.78200	411
3.78567	410
3.78933	408
3.79300	407
3.79667	405
3.80033	405
3.80400	405
3.80767	403
3.81133	400
3.81500	398
3.81867	396
3.82233	393
3.82600	392
3.82967	390
3.83333	388
3.83700	386
3.84067	384
3.84433	384
3.84800	383
3.85167	383
3.85533	379
3.85900	377
3.86267	376
3.86633	375
3.87000	374
3.87367	372
3.87733	372
3.88100	372
3.88467	372
3.88833	370
3.89200	368
3.89567	365
3.89933	363
3.90300	361
3.90667	357
3.91033	355
3.91400	355
3.91767	354
3.92133	352
3.92500	350
3.92867	349
3.93233	350
3.93600	351
3.93967	351
3.94333	349
3.94700	343
3.95067	339
3.95433	336
3.95800	335
3.96167	335
3.96533	336
3.96900	336
3.97267	337
3.97633	336
3.98000	334
3.98367	331
3.98733	328
3.99100	325
3.99467	321
3.99833	320

[Status Trace (Column Oven Temperature)]
Interval(msec)	1000
# of Points	240
Start Time(min)	0.015
End Time(min)	3.999
Intensity Units	
Intensity Multiplier	1
R.Time (min)	Intensity
0.01523	35.03
0.03190	35.05
0.04857	35.07
0.06523	35.07
0.08190	35.06
0.09857	35.04
0.11523	35.03
0.13190	35.02
0.14857	35.00
0.16523	35.00
0.18190	34.99
0.19857	34.98
0.21523	34.97
0.23190	34.97
0.24857	34.96
0.26523	34.95
0.28190	34.95
0.29857	34.96
0.31523	34.97
0.33190	34.98
0.34857	34.98
0.36523	34.98
0.38190	34.99
0.39857	34.99
0.41523	34.99
0.43190	34.98
0.44857	34.98
0.46523	34.98
0.48190	34.98
0.49857	34.98
0.51523	34.99
0.53190	34.99
0.54857	34.99
0.56523	35.00
0.58190	35.00
0.59857	35.01
0.61523	35.01
0.63190	35.00
0.64857	35.00
0.66523	35.00
0.68190	34.99
0.69857	34.98
0.71523	34.98
0.73190	34.97
0.74857	34.98
0.76523	34.98
0.78190	34.99
0.79857	34.99
0.81523	35.00
0.83190	34.99
0.84857	34.99
0.86523	35.00
0.88190	34.99
0.89857	34.99
0.91523	34.99
0.93190	34.98
0.94857	34.99
0.96523	34.98
0.98190	34.97
0.99857	34.97
1.01523	34.97
1.03190	34.97
1.04857	34.97
1.06523	34.97
1.08190	34.98
1.09857	34.99
1.11523	34.99
1.13190	35.01
1.14857	35.03
1.16523	35.05
1.18190	35.04
1.19857	35.05
1.21523	35.04
1.23190	35.04
1.24857	35.03
1.26523	35.02
1.28190	35.01
1.29857	35.00
1.31523	35.00
1.33190	35.00
1.34857	35.00
1.36523	35.00
1.38190	34.99
1.39857	34.99
1.41523	34.97
1.43190	34.97
1.44857	34.97
1.46523	34.97
1.48190	34.97
1.49857	34.97
1.51523	34.98
1.53190	34.99
1.54857	35.00
1.56523	35.01
1.58190	35.00
1.59857	35.03
1.61523	35.11
1.63190	35.27
1.64857	35.46
1.66523	35.75
1.68190	36.12
1.69857	36.49
1.71523	36.83
1.73190	37.16
1.74857	37.48
1.76523	37.83
1.78190	38.16
1.79857	38.47
1.81523	38.81
1.83190	39.14
1.84857	39.47
1.86523	39.80
1.88190	40.14
1.89857	40.46
1.91523	40.79
1.93190	41.11
1.94857	41.45
1.96523	41.78
1.98190	42.09
1.99857	42.41
2.01523	42.75
2.03190	43.07
2.04857	43.39
2.06523	43.72
2.08190	44.05
2.09857	44.37
2.11523	44.69
2.13190	45.04
2.14857	45.35
2.16523	45.69
2.18190	46.00
2.19857	46.33
2.21523	46.66
2.23190	46.99
2.24857	47.31
2.26523	47.64
2.28190	47.98
2.29857	48.30
2.31523	48.64
2.33190	48.97
2.34857	49.27
2.36523	49.56
2.38190	49.71
2.39857	49.74
2.41523	49.74
2.43190	49.73
2.44857	49.75
2.46523	49.75
2.48190	49.77
2.49857	49.78
2.51523	49.81
2.53190	49.81
2.54857	49.79
2.56523	49.82
2.58190	49.83
2.59857	49.82
2.61523	49.83
2.63190	49.83
2.64857	49.84
2.66523	49.85
2.68190	49.86
2.69857	49.86
2.71523	49.85
2.73190	49.87
2.74857	49.88
2.76523	49.88
2.78190	49.89
2.79857	49.88
2.81523	49.89
2.83190	49.90
2.84857	49.89
2.86523	49.90
2.88190	49.92
2.89857	49.94
2.91523	49.96
2.93190	49.99
2.94857	50.00
2.96523	50.01
2.98190	50.02
2.99857	50.03
3.01523	50.04
3.03190	50.06
3.04857	50.08
3.06523	50.10
3.08190	50.10
3.09857	50.10
3.11523	50.09
3.13190	50.08
3.14857	50.08
3.16523	50.09
3.18190	50.08
3.19857	50.07
3.21523	50.07
3.23190	50.07
3.24857	50.06
3.26523	50.07
3.28190	50.08
3.29857	50.08
3.31523	50.08
3.33190	50.09
3.34857	50.10
3.36523	50.11
3.38190	50.10
3.39857	50.09
3.41523	50.08
3.43190	50.07
3.44857	50.06
3.46523	50.06
3.48190	50.04
3.49857	50.02
3.51523	50.03
3.53190	50.03
3.54857	50.02
3.56523	50.02
3.58190	50.01
3.59857	50.02
3.61523	50.03
3.63190	50.03
3.64857	50.02
3.66523	50.03
3.68190	50.03
3.69857	50.03
3.71523	50.02
3.73190	50.03
3.74857	50.04
3.76523	50.03
3.78190	50.04
3.79857	50.04
3.81523	50.05
3.83190	50.05
3.84857	50.06
3.86523	50.07
3.88190	50.09
3.89857	50.10
3.91523	50.11
3.93190	50.09
3.94857	50.08
3.96523	50.07
3.98190	50.06
3.99857	50.04

[Status Trace (Injection Unit Temperature)]
Interval(msec)	1000
# of Points	240
Start Time(min)	0.015
End Time(min)	3.999
Intensity Units	
Intensity Multiplier	1
R.Time (min)	Intensity
0.01523	99.98
0.03190	99.98
0.04857	99.98
0.06523	99.99
0.08190	99.98
0.09857	99.98
0.11523	99.98
0.13190	99.98
0.14857	99.98
0.16523	99.99
0.18190	99.98
0.19857	99.98
0.21523	99.98
0.23190	99.98
0.24857	99.98
0.26523	99.98
0.28190	99.98
0.29857	99.98
0.31523	99.98
0.33190	99.98
0.34857	99.98
0.36523	99.98
0.38190	99.98
0.39857	99.98
0.41523	99.98
0.43190	99.98
0.44857	99.98
0.46523	99.98
0.48190	99.97
0.49857	99.98
0.51523	99.98
0.53190	99.98
0.54857	99.98
0.56523	99.98
0.58190	99.98
0.59857	99.98
0.61523	99.98
0.63190	99.98
0.64857	99.98
0.66523	99.98
0.68190	99.98
0.69857	99.98
0.71523	99.98
0.73190	99.98
0.74857	99.98
0.76523	99.98
0.78190	99.98
0.79857	99.97
0.81523	99.98
0.83190	99.98
0.84857	99.98
0.86523	99.98
0.88190	99.98
0.89857	99.98
0.91523	99.98
0.93190	99.98
0.94857	99.98
0.96523	99.99
0.98190	99.98
0.99857	99.99
1.01523	99.98
1.03190	99.98
1.04857	99.98
1.06523	99.98
1.08190	99.99
1.09857	99.99
1.11523	99.99
1.13190	99.99
1.14857	99.99
1.16523	99.99
1.18190	99.98
1.19857	99.98
1.21523	99.98
1.23190	99.99
1.24857	99.98
1.26523	99.99
1.28190	99.99
1.29857	99.99
1.31523	99.98
1.33190	99.98
1.34857	99.99
1.36523	99.99
1.38190	99.99
1.39857	99.99
1.41523	99.99
1.43190	99.99
1.44857	99.99
1.46523	99.99
1.48190	99.98
1.49857	99.99
1.51523	99.99
1.53190	99.98
1.54857	99.99
1.56523	99.99
1.58190	99.99
1.59857	99.99
1.61523	99.98
1.63190	99.99
1.64857	99.99
1.66523	99.99
1.68190	99.99
1.69857	99.99
1.71523	99.99
1.73190	99.99
1.74857	99.98
1.76523	99.99
1.78190	99.99
1.79857	99.99
1.81523	99.99
1.83190	99.99
1.84857	99.98
1.86523	99.98
1.88190	99.98
1.89857	99.98
1.91523	99.98
1.93190	99.97
1.94857	99.97
1.96523	99.97
1.98190	99.97
1.99857	99.97
2.01523	99.97
2.03190	99.97
2.04857	99.98
2.06523	99.97
2.08190	99.97
2.09857	99.97
2.11523	99.97
2.13190	99.97
2.14857	99.97
2.16523	99.97
2.18190	99.97
2.19857	99.96
2.21523	99.97
2.23190	99.96
2.24857	99.96
2.26523	99.96
2.28190	99.96
2.29857	99.97
2.31523	99.96
2.33190	99.96
2.34857	99.96
2.36523	99.96
2.38190	99.97
2.39857	99.97
2.41523	99.97
2.43190	99.96
2.44857	99.97
2.46523	99.97
2.48190	99.97
2.49857	99.97
2.51523	99.97
2.53190	99.97
2.54857	99.97
2.56523	99.97
2.58190	99.97
2.59857	99.97
2.61523	99.97
2.63190	99.98
2.64857	99.98
2.66523	99.98
2.68190	99.98
2.69857	99.98
2.71523	99.99
2.73190	99.99
2.74857	99.99
2.76523	99.99
2.78190	99.99
2.79857	100.00
2.81523	100.00
2.83190	100.00
2.84857	100.00
2.86523	100.00
2.88190	100.00
2.89857	100.00
2.91523	100.01
2.93190	100.01
2.94857	100.01
2.96523	100.01
2.98190	100.01
2.99857	100.01
3.01523	100.01
3.03190	100.01
3.04857	100.01
3.06523	100.02
3.08190	100.02
3.09857	100.02
3.11523	100.03
3.13190	100.02
3.14857	100.03
3.16523	100.03
3.18190	100.02
3.19857	100.02
3.21523	100.03
3.23190	100.03
3.24857	100.03
3.26523	100.03
3.28190	100.03
3.29857	100.03
3.31523	100.03
3.33190	100.03
3.34857	100.03
3.36523	100.04
3.38190	100.04
3.39857	100.04
3.41523	100.04
3.43190	100.04
3.44857	100.04
3.46523	100.04
3.48190	100.04
3.49857	100.05
3.51523	100.05
3.53190	100.05
3.54857	100.05
3.56523	100.05
3.58190	100.06
3.59857	100.05
3.61523	100.05
3.63190	100.05
3.64857	100.05
3.66523	100.06
3.68190	100.05
3.69857	100.06
3.71523	100.05
3.73190	100.06
3.74857	100.05
3.76523	100.05
3.78190	100.06
3.79857	100.06
3.81523	100.06
3.83190	100.06
3.84857	100.06
3.86523	100.06
3.88190	100.06
3.89857	100.05
3.91523	100.06
3.93190	100.05
3.94857	100.06
3.96523	100.05
3.98190	100.06
3.99857	100.06

[Status Trace (Carrier Gas Pressure)]
Interval(msec)	1000
# of Points	240
Start Time(min)	0.015
End Time(min)	3.999
Intensity Units	
Intensity Multiplier	1
R.Time (min)	Intensity
0.01523	57.14
0.03190	55.75
0.04857	58.01
0.06523	59.87
0.08190	58.59
0.09857	57.98
0.11523	58.00
0.13190	58.01
0.14857	58.01
0.16523	58.00
0.18190	58.00
0.19857	58.00
0.21523	58.00
0.23190	58.00
0.24857	58.00
0.26523	58.00
0.28190	58.00
0.29857	58.00
0.31523	58.00
0.33190	58.00
0.34857	58.00
0.36523	58.00
0.38190	58.00
0.39857	58.00
0.41523	58.00
0.43190	58.00
0.44857	58.00
0.46523	58.00
0.48190	58.00
0.49857	58.00
0.51523	58.00
0.53190	58.00
0.54857	58.00
0.56523	58.00
0.58190	58.00
0.59857	58.00
0.61523	58.00
0.63190	58.00
0.64857	58.00
0.66523	58.00
0.68190	58.00
0.69857	58.00
0.71523	58.00
0.73190	58.00
0.74857	58.00
0.76523	58.00
0.78190	58.00
0.79857	58.00
0.81523	58.00
0.83190	58.00
0.84857	58.00
0.86523	58.00
0.88190	58.00
0.89857	58.00
0.91523	58.00
0.93190	58.00
0.94857	58.00
0.96523	58.00
0.98190	58.00
0.99857	58.00
1.01523	58.00
1.03190	58.00
1.04857	58.00
1.06523	58.00
1.08190	58.00
1.09857	58.00
1.11523	58.00
1.13190	58.00
1.14857	58.00
1.16523	58.00
1.18190	58.00
1.19857	58.00
1.21523	58.00
1.23190	58.00
1.24857	58.00
1.26523	58.00
1.28190	58.00
1.29857	58.00
1.31523	58.00
1.33190	58.00
1.34857	58.00
1.36523	58.00
1.38190	58.00
1.39857	58.00
1.41523	58.00
1.43190	58.00
1.44857	58.00
1.46523	58.00
1.48190	58.00
1.49857	58.00
1.51523	58.00
1.53190	58.00
1.54857	58.00
1.56523	58.00
1.58190	58.00
1.59857	58.00
1.61523	58.00
1.63190	58.00
1.64857	58.00
1.66523	58.01
1.68190	58.01
1.69857	58.00
1.71523	58.00
1.73190	58.00
1.74857	58.00
1.76523	58.00
1.78190	58.00
1.79857	58.00
1.81523	58.00
1.83190	58.00
1.84857	58.00
1.86523	58.00
1.88190	58.00
1.89857	58.00
1.91523	58.00
1.93190	58.00
1.94857	58.00
1.96523	58.00
1.98190	58.00
1.99857	58.00
2.01523	58.00
2.03190	58.00
2.04857	58.00
2.06523	58.00
2.08190	58.00
2.09857	58.00
2.11523	58.00
2.13190	58.00
2.14857	58.00
2.16523	58.00
2.18190	58.00
2.19857	58.00
2.21523	58.00
2.23190	58.00
2.24857	58.00
2.26523	58.00
2.28190	58.00
2.29857	58.00
2.31523	58.00
2.33190	58.00
2.34857	58.00
2.36523	58.00
2.38190	57.99
2.39857	57.99
2.41523	58.00
2.43190	58.00
2.44857	58.00
2.46523	58.00
2.48190	58.00
2.49857	58.00
2.51523	57.98
2.53190	57.99
2.54857	58.00
2.56523	58.00
2.58190	58.00
2.59857	58.00
2.61523	58.00
2.63190	58.00
2.64857	58.00
2.66523	58.00
2.68190	58.00
2.69857	58.00
2.71523	58.00
2.73190	58.00
2.74857	58.00
2.76523	58.00
2.78190	58.00
2.79857	58.00
2.81523	58.00
2.83190	58.00
2.84857	58.00
2.86523	58.00
2.88190	58.00
2.89857	58.00
2.91523	58.00
2.93190	58.00
2.94857	58.00
2.96523	58.00
2.98190	58.00
2.99857	58.00
3.01523	58.00
3.03190	58.00
3.04857	58.00
3.06523	58.00
3.08190	58.00
3.09857	58.00
3.11523	58.00
3.13190	58.00
3.14857	58.00
3.16523	58.00
3.18190	58.00
3.19857	58.00
3.21523	58.00
3.23190	58.00
3.24857	58.00
3.26523	58.00
3.28190	58.00
3.29857	58.00
3.31523	58.00
3.33190	58.00
3.34857	58.00
3.36523	58.00
3.38190	58.00
3.39857	58.00
3.41523	58.00
3.43190	58.00
3.44857	58.00
3.46523	58.00
3.48190	58.00
3.49857	58.00
3.51523	58.00
3.53190	58.00
3.54857	58.00
3.56523	58.00
3.58190	58.00
3.59857	58.00
3.61523	58.00
3.63190	58.00
3.64857	58.00
3.66523	58.00
3.68190	58.00
3.69857	58.00
3.71523	58.00
3.73190	58.00
3.74857	58.00
3.76523	58.00
3.78190	58.00
3.79857	58.00
3.81523	58.00
3.83190	58.00
3.84857	58.00
3.86523	58.00
3.88190	58.00
3.89857	58.00
3.91523	58.00
3.93190	58.00
3.94857	58.00
3.96523	58.00
3.98190	58.00
3.99857	58.00

[Status Trace (Carrier Gas Flow)]
Interval(msec)	1000
# of Points	240
Start Time(min)	0.015
End Time(min)	3.999
Intensity Units	
Intensity Multiplier	1
R.Time (min)	Intensity
0.01523	33.95
0.03190	34.54
0.04857	34.55
0.06523	34.51
0.08190	34.49
0.09857	34.52
0.11523	34.54
0.13190	34.52
0.14857	34.52
0.16523	34.52
0.18190	34.52
0.19857	34.52
0.21523	34.54
0.23190	34.52
0.24857	34.52
0.26523	34.50
0.28190	34.52
0.29857	34.52
0.31523	34.52
0.33190	34.52
0.34857	34.52
0.36523	34.52
0.38190	34.52
0.39857	34.52
0.41523	34.52
0.43190	34.52
0.44857	34.50
0.46523	34.52
0.48190	34.52
0.49857	34.52
0.51523	34.52
0.53190	34.52
0.54857	34.52
0.56523	34.52
0.58190	34.52
0.59857	34.52
0.61523	34.52
0.63190	34.51
0.64857	34.52
0.66523	34.50
0.68190	34.52
0.69857	34.52
0.71523	34.52
0.73190	34.52
0.74857	34.53
0.76523	34.54
0.78190	34.52
0.79857	34.52
0.81523	34.52
0.83190	34.52
0.84857	34.52
0.86523	34.51
0.88190	34.52
0.89857	34.52
0.91523	34.52
0.93190	34.50
0.94857	34.52
0.96523	34.52
0.98190	34.52
0.99857	34.53
1.01523	34.52
1.03190	34.53
1.04857	34.52
1.06523	34.52
1.08190	34.52
1.09857	34.52
1.11523	34.53
1.13190	34.54
1.14857	34.51
1.16523	34.52
1.18190	34.52
1.19857	34.52
1.21523	34.52
1.23190	34.52
1.24857	34.52
1.26523	34.52
1.28190	34.52
1.29857	34.51
1.31523	34.53
1.33190	34.52
1.34857	34.51
1.36523	34.53
1.38190	34.52
1.39857	34.53
1.41523	34.52
1.43190	34.51
1.44857	34.53
1.46523	34.52
1.48190	34.50
1.49857	34.52
1.51523	34.52
1.53190	34.51
1.54857	34.53
1.56523	34.53
1.58190	34.52
1.59857	34.52
1.61523	34.51
1.63190	34.52
1.64857	34.51
1.66523	34.53
1.68190	34.51
1.69857	34.55
1.71523	34.52
1.73190	34.52
1.74857	34.52
1.76523	34.52
1.78190	34.52
1.79857	34.52
1.81523	34.52
1.83190	34.52
1.84857	34.52
1.86523	34.52
1.88190	34.52
1.89857	34.52
1.91523	34.52
1.93190	34.52
1.94857	34.52
1.96523	34.52
1.98190	34.52
1.99857	34.52
2.01523	34.52
2.03190	34.52
2.04857	34.52
2.06523	34.52
2.08190	34.52
2.09857	34.51
2.11523	34.52
2.13190	34.50
2.14857	34.52
2.16523	34.52
2.18190	34.52
2.19857	34.52
2.21523	34.52
2.23190	34.52
2.24857	34.51
2.26523	34.50
2.28190	34.52
2.29857	34.52
2.31523	34.51
2.33190	34.52
2.34857	34.52
2.36523	34.52
2.38190	34.52
2.39857	34.52
2.41523	34.52
2.43190	34.52
2.44857	34.53
2.46523	34.52
2.48190	34.53
2.49857	34.51
2.51523	34.52
2.53190	34.52
2.54857	34.52
2.56523	34.52
2.58190	34.52
2.59857	34.52
2.61523	34.51
2.63190	34.52
2.64857	34.53
2.66523	34.52
2.68190	34.49
2.69857	34.54
2.71523	34.53
2.73190	34.51
2.74857	34.51
2.76523	34.52
2.78190	34.50
2.79857	34.51
2.81523	34.52
2.83190	34.54
2.84857	34.54
2.86523	34.50
2.88190	34.53
2.89857	34.52
2.91523	34.51
2.93190	34.53
2.94857	34.52
2.96523	34.52
2.98190	34.53
2.99857	34.50
3.01523	34.51
3.03190	34.54
3.04857	34.52
3.06523	34.52
3.08190	34.52
3.09857	34.52
3.11523	34.52
3.13190	34.49
3.14857	34.52
3.16523	34.52
3.18190	34.52
3.19857	34.52
3.21523	34.52
3.23190	34.52
3.24857	34.52
3.26523	34.54
3.28190	34.51
3.29857	34.52
3.31523	34.52
3.33190	34.50
3.34857	34.52
3.36523	34.51
3.38190	34.52
3.39857	34.52
3.41523	34.52
3.43190	34.52
3.44857	34.52
3.46523	34.52
3.48190	34.52
3.49857	34.52
3.51523	34.52
3.53190	34.54
3.54857	34.52
3.56523	34.52
3.58190	34.51
3.59857	34.52
3.61523	34.52
3.63190	34.52
3.64857	34.52
3.66523	34.52
3.68190	34.51
3.69857	34.52
3.71523	34.52
3.73190	34.52
3.74857	34.52
3.76523	34.52
3.78190	34.52
3.79857	34.52
3.81523	34.52
3.83190	34.53
3.84857	34.50
3.86523	34.51
3.88190	34.51
3.89857	34.52
3.91523	34.51
3.93190	34.52
3.94857	34.52
3.96523	34.55
3.98190	34.50
3.99857	34.54

[Status Trace (Column Flow)]
Interval(msec)	1000
# of Points	240
Start Time(min)	0.015
End Time(min)	3.999
Intensity Units	
Intensity Multiplier	1
R.Time (min)	Intensity
0.01523	5.45
0.03190	5.29
0.04857	5.55
0.06523	5.77
0.08190	5.62
0.09857	5.55
0.11523	5.55
0.13190	5.55
0.14857	5.55
0.16523	5.55
0.18190	5.55
0.19857	5.55
0.21523	5.55
0.23190	5.55
0.24857	5.55
0.26523	5.55
0.28190	5.55
0.29857	5.55
0.31523	5.55
0.33190	5.55
0.34857	5.55
0.36523	5.55
0.38190	5.55
0.39857	5.55
0.41523	5.55
0.43190	5.55
0.44857	5.55
0.46523	5.55
0.48190	5.55
0.49857	5.55
0.51523	5.55
0.53190	5.55
0.54857	5.55
0.56523	5.55
0.58190	5.55
0.59857	5.55
0.61523	5.55
0.63190	5.55
0.64857	5.55
0.66523	5.55
0.68190	5.55
0.69857	5.55
0.71523	5.55
0.73190	5.55
0.74857	5.55
0.76523	5.55
0.78190	5.55
0.79857	5.55
0.81523	5.55
0.83190	5.55
0.84857	5.55
0.86523	5.55
0.88190	5.55
0.89857	5.55
0.91523	5.55
0.93190	5.55
0.94857	5.55
0.96523	5.55
0.98190	5.55
0.99857	5.55
1.01523	5.55
1.03190	5.55
1.04857	5.55
1.06523	5.55
1.08190	5.55
1.09857	5.55
1.11523	5.55
1.13190	5.55
1.14857	5.55
1.16523	5.55
1.18190	5.55
1.19857	5.55
1.21523	5.55
1.23190	5.55
1.24857	5.55
1.26523	5.55
1.28190	5.55
1.29857	5.55
1.31523	5.55
1.33190	5.55
1.34857	5.55
1.36523	5.55
1.38190	5.55
1.39857	5.55
1.41523	5.55
1.43190	5.55
1.44857	5.55
1.46523	5.55
1.48190	5.55
1.49857	5.55
1.51523	5.55
1.53190	5.55
1.54857	5.55
1.56523	5.55
1.58190	5.55
1.59857	5.55
1.61523	5.55
1.63190	5.54
1.64857	5.54
1.66523	5.53
1.68190	5.51
1.69857	5.50
1.71523	5.49
1.73190	5.48
1.74857	5.47
1.76523	5.46
1.78190	5.45
1.79857	5.44
1.81523	5.43
1.83190	5.42
1.84857	5.41
1.86523	5.40
1.88190	5.39
1.89857	5.38
1.91523	5.37
1.93190	5.36
1.94857	5.35
1.96523	5.34
1.98190	5.33
1.99857	5.32
2.01523	5.31
2.03190	5.30
2.04857	5.29
2.06523	5.28
2.08190	5.27
2.09857	5.26
2.11523	5.26
2.13190	5.25
2.14857	5.24
2.16523	5.23
2.18190	5.22
2.19857	5.21
2.21523	5.20
2.23190	5.19
2.24857	5.18
2.26523	5.17
2.28190	5.16
2.29857	5.15
2.31523	5.14
2.33190	5.13
2.34857	5.12
2.36523	5.12
2.38190	5.11
2.39857	5.11
2.41523	5.11
2.43190	5.11
2.44857	5.11
2.46523	5.11
2.48190	5.11
2.49857	5.11
2.51523	5.11
2.53190	5.11
2.54857	5.11
2.56523	5.11
2.58190	5.11
2.59857	5.11
2.61523	5.11
2.63190	5.11
2.64857	5.11
2.66523	5.11
2.68190	5.11
2.69857	5.11
2.71523	5.11
2.73190	5.11
2.74857	5.11
2.76523	5.11
2.78190	5.11
2.79857	5.11
2.81523	5.11
2.83190	5.11
2.84857	5.11
2.86523	5.11
2.88190	5.11
2.89857	5.11
2.91523	5.11
2.93190	5.10
2.94857	5.10
2.96523	5.10
2.98190	5.10
2.99857	5.10
3.01523	5.10
3.03190	5.10
3.04857	5.10
3.06523	5.10
3.08190	5.10
3.09857	5.10
3.11523	5.10
3.13190	5.10
3.14857	5.10
3.16523	5.10
3.18190	5.10
3.19857	5.10
3.21523	5.10
3.23190	5.10
3.24857	5.10
3.26523	5.10
3.28190	5.10
3.29857	5.10
3.31523	5.10
3.33190	5.10
3.34857	5.10
3.36523	5.10
3.38190	5.10
3.39857	5.10
3.41523	5.10
3.43190	5.10
3.44857	5.10
3.46523	5.10
3.48190	5.10
3.49857	5.10
3.51523	5.10
3.53190	5.10
3.54857	5.10
3.56523	5.10
3.58190	5.10
3.59857	5.10
3.61523	5.10
3.63190	5.10
3.64857	5.10
3.66523	5.10
3.68190	5.10
3.69857	5.10
3.71523	5.10
3.73190	5.10
3.74857	5.10
3.76523	5.10
3.78190	5.10
3.79857	5.10
3.81523	5.10
3.83190	5.10
3.84857	5.10
3.86523	5.10
3.88190	5.10
3.89857	5.10
3.91523	5.10
3.93190	5.10
3.94857	5.10
3.96523	5.10
3.98190	5.10
3.99857	5.10

[Status Trace (Linear Velocity)]
Interval(msec)	1000
# of Points	240
Start Time(min)	0.015
End Time(min)	3.999
Intensity Units	
Intensity Multiplier	1
R.Time (min)	Intensity
0.01523	38.45
0.03190	37.54
0.04857	39.02
0.06523	40.24
0.08190	39.41
0.09857	39.01
0.11523	39.02
0.13190	39.03
0.14857	39.03
0.16523	39.03
0.18190	39.03
0.19857	39.03
0.21523	39.03
0.23190	39.03
0.24857	39.03
0.26523	39.03
0.28190	39.03
0.29857	39.03
0.31523	39.03
0.33190	39.03
0.34857	39.03
0.36523	39.02
0.38190	39.02
0.39857	39.02
0.41523	39.02
0.43190	39.03
0.44857	39.03
0.46523	39.03
0.48190	39.03
0.49857	39.03
0.51523	39.02
0.53190	39.02
0.54857	39.02
0.56523	39.02
0.58190	39.02
0.59857	39.02
0.61523	39.02
0.63190	39.02
0.64857	39.02
0.66523	39.02
0.68190	39.03
0.69857	39.02
0.71523	39.03
0.73190	39.03
0.74857	39.03
0.76523	39.02
0.78190	39.02
0.79857	39.02
0.81523	39.02
0.83190	39.02
0.84857	39.02
0.86523	39.02
0.88190	39.02
0.89857	39.02
0.91523	39.02
0.93190	39.03
0.94857	39.02
0.96523	39.03
0.98190	39.03
0.99857	39.03
1.01523	39.03
1.03190	39.03
1.04857	39.03
1.06523	39.03
1.08190	39.03
1.09857	39.02
1.11523	39.02
1.13190	39.02
1.14857	39.02
1.16523	39.02
1.18190	39.02
1.19857	39.02
1.21523	39.02
1.23190	39.02
1.24857	39.02
1.26523	39.02
1.28190	39.02
1.29857	39.02
1.31523	39.02
1.33190	39.02
1.34857	39.02
1.36523	39.02
1.38190	39.02
1.39857	39.02
1.41523	39.03
1.43190	39.03
1.44857	39.03
1.46523	39.03
1.48190	39.03
1.49857	39.03
1.51523	39.03
1.53190	39.02
1.54857	39.02
1.56523	39.02
1.58190	39.02
1.59857	39.02
1.61523	39.01
1.63190	39.00
1.64857	38.98
1.66523	38.95
1.68190	38.92
1.69857	38.88
1.71523	38.85
1.73190	38.82
1.74857	38.79
1.76523	38.75
1.78190	38.72
1.79857	38.69
1.81523	38.66
1.83190	38.63
1.84857	38.60
1.86523	38.57
1.88190	38.54
1.89857	38.50
1.91523	38.47
1.93190	38.44
1.94857	38.41
1.96523	38.38
1.98190	38.35
1.99857	38.32
2.01523	38.29
2.03190	38.26
2.04857	38.23
2.06523	38.20
2.08190	38.17
2.09857	38.14
2.11523	38.11
2.13190	38.08
2.14857	38.05
2.16523	38.02
2.18190	38.00
2.19857	37.97
2.21523	37.94
2.23190	37.91
2.24857	37.88
2.26523	37.85
2.28190	37.82
2.29857	37.79
2.31523	37.76
2.33190	37.73
2.34857	37.70
2.36523	37.68
2.38190	37.66
2.39857	37.66
2.41523	37.66
2.43190	37.66
2.44857	37.66
2.46523	37.66
2.48190	37.66
2.49857	37.66
2.51523	37.65
2.53190	37.65
2.54857	37.66
2.56523	37.66
2.58190	37.65
2.59857	37.65
2.61523	37.65
2.63190	37.65
2.64857	37.65
2.66523	37.65
2.68190	37.65
2.69857	37.65
2.71523	37.65
2.73190	37.65
2.74857	37.65
2.76523	37.65
2.78190	37.65
2.79857	37.65
2.81523	37.65
2.83190	37.65
2.84857	37.65
2.86523	37.65
2.88190	37.65
2.89857	37.64
2.91523	37.64
2.93190	37.64
2.94857	37.64
2.96523	37.64
2.98190	37.64
2.99857	37.64
3.01523	37.63
3.03190	37.63
3.04857	37.63
3.06523	37.63
3.08190	37.63
3.09857	37.63
3.11523	37.63
3.13190	37.63
3.14857	37.63
3.16523	37.63
3.18190	37.63
3.19857	37.63
3.21523	37.63
3.23190	37.63
3.24857	37.63
3.26523	37.63
3.28190	37.63
3.29857	37.63
3.31523	37.63
3.33190	37.63
3.34857	37.63
3.36523	37.63
3.38190	37.63
3.39857	37.63
3.41523	37.63
3.43190	37.63
3.44857	37.63
3.46523	37.63
3.48190	37.63
3.49857	37.64
3.51523	37.64
3.53190	37.64
3.54857	37.64
3.56523	37.64
3.58190	37.64
3.59857	37.64
3.61523	37.64
3.63190	37.64
3.64857	37.64
3.66523	37.64
3.68190	37.64
3.69857	37.64
3.71523	37.64
3.73190	37.64
3.74857	37.64
3.76523	37.64
3.78190	37.64
3.79857	37.64
3.81523	37.64
3.83190	37.63
3.84857	37.63
3.86523	37.63
3.88190	37.63
3.89857	37.63
3.91523	37.63
3.93190	37.63
3.94857	37.63
3.96523	37.63
3.98190	37.63
3.99857	37.64

