[Header]
Application Name	LabSolutions
Version	5.110
Data File Name	C:\Users\User\Desktop\GC Analyses\Jack\UIC Prairie Sampling\9.16.22\220916_114.gcd
Output Date	11/29/2022
Output Time	11:10:23 AM

[File Information]
Type	Data File
Generated	11/28/2022 3:09:13 PM
Generated by	System Administrator
Modified	11/28/2022 3:13:34 PM
Modified by	System Administrator

[Sample Information]
Operator Name	System Administrator
Acquired	11/28/2022 3:09:34 PM
Sample Type	1:Standard
Level	1
Sample Name	220916_UICPrairie
Sample ID	220916_UICPrairie
ISTD Amount1	1
ISTD Amount2	1
ISTD Amount3	1
ISTD Amount4	1
ISTD Amount5	1
ISTD Amount6	1
ISTD Amount7	1
ISTD Amount8	1
ISTD Amount9	1
ISTD Amount10	1
ISTD Amount11	1
ISTD Amount12	1
ISTD Amount13	1
ISTD Amount14	1
ISTD Amount15	1
ISTD Amount16	1
ISTD Amount17	1
ISTD Amount18	1
ISTD Amount19	1
ISTD Amount20	1
ISTD Amount21	1
ISTD Amount22	1
ISTD Amount23	1
ISTD Amount24	1
ISTD Amount25	1
ISTD Amount26	1
ISTD Amount27	1
ISTD Amount28	1
ISTD Amount29	1
ISTD Amount30	1
ISTD Amount31	1
ISTD Amount32	1
Sample Amount	1
Dilution Factor	1
Vial#	1
Injection Volume	1
Injection Count	1
Bar Code	

[Original Files]
Data File	C:\Users\User\Desktop\GC Analyses\Jack\UIC Prairie Sampling\9.16.22\220916_114.gcd
Method File	C:\LabSolutions\Data\GHG_4min_2022\ghg3_togas_w_acet_4 min_new_int.gcm
Batch File	
Report Format File	c:\LabSolutions\System\DEFAULT.lsr

[File Description]


[Configuration]
Instrument Name	C0B7VH3-Instrument1
Instrument #	1
Line #	1
# of Detectors	3
Detector ID	DET#1	DET#2	DET#3
Detector Name	FID	PTCD	ECD
# of Channels	1	1	1

[Peak Table(Ch1)]
# of Peaks	3
Peak#	R.Time	I.Time	F.Time	Area	Height	A/H	Conc.	Mark	ID#	Name	k'	Plate #	Plate Ht.	Tailing	Resolution	Sep.Factor	Area Ratio	Height Ratio	Conc. %	Norm Conc.
1	1.479	1.439	1.538	17865	8270	2.160	100.000	   	1	CO	0.000	8845	16.958	1.226	0.000	0.000	0	0	16.667	16.667
2	1.571	1.538	1.630	4645	2294	2.025	100.000	 V 	2	CH4	0.062	10872	13.797	0.000	1.488	0.000	0	0	16.667	16.667
3	2.000	1.952	2.466	2102109	1009588	2.082	400.000	   	3	CO2	0.352	17389	8.626	1.276	7.095	5.680	0	0	66.667	66.667

[Peak Table(Ch2)]
# of Peaks	0

[Peak Table(Ch3)]
# of Peaks	4
Peak#	R.Time	I.Time	F.Time	Area	Height	A/H	Conc.	Mark	ID#	Name	k'	Plate #	Plate Ht.	Tailing	Resolution	Sep.Factor	Area Ratio	Height Ratio	Conc. %	Norm Conc.
1	2.458	2.370	2.491	481	186	2.580	0.000	   			0.000	27841	5.388	0.716	0.000	0.000	0	0	0.000	0.000
2	2.583	2.495	2.664	4271	604	7.076	0.000	   			0.051	2953	50.788	0.000	1.001	0.000	0	0	0.000	0.000
3	2.730	2.664	2.829	3329	366	9.085	0.130	 V 	1	N2O	0.110	169	886.629	0.000	0.285	2.176	0	0	13.002	13.002
4	2.887	2.829	3.258	22277	5171	4.308	0.870	 V 	1	N2O	0.175	12524	11.977	0.000	0.335	1.581	0	0	86.998	86.998

[Compound Results(Ch1)]
# of IDs	6
ID#	Name	R.Time	Area	Height	Conc.	Curve	3rd	2nd	1st	Constant	Area Ratio	Height Ratio	Conc. %	Norm Conc.
1	CO	1.479	17865	8270	100.000	Linear	0.000000e+00	0.000000e+00	1.786487e+002	0.000000e+00	0	0	16.667	16.667
2	CH4	1.571	4645	2294	100.000	Linear	0.000000e+00	0.000000e+00	4.645451e+001	0.000000e+00	0	0	16.667	16.667
3	CO2	2.000	2102109	1009588	400.000	Linear	0.000000e+00	0.000000e+00	5.255272e+003	0.000000e+00	0	0	66.667	66.667
4	Ethylene	0.000	0	0	0.000	Linear	0.000000e+00	0.000000e+00	0.000000e+00	0.000000e+00	0	0	0.000	0.000
5	Acetylene	0.000	0	0	0.000	Linear	0.000000e+00	0.000000e+00	0.000000e+00	0.000000e+00	0	0	0.000	0.000
6	Ethane	0.000	0	0	0.000	Linear	0.000000e+00	0.000000e+00	0.000000e+00	0.000000e+00	0	0	0.000	0.000

[Compound Results(Ch2)]
# of IDs	5
ID#	Name	R.Time	Area	Height	Conc.	Curve	3rd	2nd	1st	Constant	Area Ratio	Height Ratio	Conc. %	Norm Conc.
1	Hydrogen	0.000	0	0	0.000	Linear	0.000000e+00	0.000000e+00	0.000000e+00	0.000000e+00	0	0	0.000	0.000
2	Oxygen	0.000	0	0	0.000	Linear	0.000000e+00	0.000000e+00	0.000000e+00	0.000000e+00	0	0	0.000	0.000
3	Nitrogen	0.000	0	0	0.000	Linear	0.000000e+00	0.000000e+00	0.000000e+00	0.000000e+00	0	0	0.000	0.000
4	Methane	0.000	0	0	0.000	Linear	0.000000e+00	0.000000e+00	0.000000e+00	0.000000e+00	0	0	0.000	0.000
5	Carbon Monoxide	0.000	0	0	0.000	Linear	0.000000e+00	0.000000e+00	0.000000e+00	0.000000e+00	0	0	0.000	0.000

[Compound Results(Ch3)]
# of IDs	2
ID#	Name	R.Time	Area	Height	Conc.	Curve	3rd	2nd	1st	Constant	Area Ratio	Height Ratio	Conc. %	Norm Conc.
1	N2O	2.887	25606	5537	1.000	Linear	0.000000e+00	0.000000e+00	2.560597e+004	0.000000e+00	0	0	100.000	100.000
2	SF6	0.000	0	0	0.000	Linear	0.000000e+00	0.000000e+00	0.000000e+00	0.000000e+00	0	0	0.000	0.000

[Group Results(Ch1)]
# of Groups	0

[Group Results(Ch2)]
# of Groups	0

[Group Results(Ch3)]
# of Groups	0

[Chromatogram (Ch1)]
Interval(msec)	220
# of Points	1091
Start Time(min)	0.002
End Time(min)	3.998
R.Time (min)	Intensity
0.00167	11
0.00533	7
0.00900	3
0.01267	-2
0.01633	-6
0.02000	-9
0.02367	-7
0.02733	-3
0.03100	4
0.03467	10
0.03833	14
0.04200	17
0.04567	16
0.04933	14
0.05300	13
0.05667	11
0.06033	6
0.06400	-0
0.06767	-7
0.07133	-14
0.07500	-18
0.07867	-20
0.08233	-22
0.08600	-23
0.08967	-20
0.09333	-14
0.09700	-8
0.10067	-4
0.10433	-2
0.10800	-2
0.11167	-2
0.11533	-1
0.11900	-2
0.12267	-6
0.12633	-9
0.13000	-10
0.13367	-11
0.13733	-11
0.14100	-10
0.14467	-7
0.14833	-5
0.15200	-4
0.15567	-6
0.15933	-9
0.16300	-12
0.16667	-13
0.17033	-13
0.17400	-15
0.17767	-16
0.18133	-16
0.18500	-16
0.18867	-12
0.19233	-5
0.19600	1
0.19967	1
0.20333	-0
0.20700	-0
0.21067	-4
0.21433	-9
0.21800	-16
0.22167	-24
0.22533	-28
0.22900	-31
0.23267	-32
0.23633	-29
0.24000	-23
0.24367	-15
0.24733	-9
0.25100	-9
0.25467	-16
0.25833	-21
0.26200	-22
0.26567	-20
0.26933	-18
0.27300	-18
0.27667	-18
0.28033	-18
0.28400	-18
0.28767	-16
0.29133	-11
0.29500	-7
0.29867	-5
0.30233	-6
0.30600	-10
0.30967	-16
0.31333	-22
0.31700	-20
0.32067	-11
0.32433	-1
0.32800	1
0.33167	-6
0.33533	-16
0.33900	-25
0.34267	-29
0.34633	-30
0.35000	-29
0.35367	-29
0.35733	-31
0.36100	-29
0.36467	-24
0.36833	-18
0.37200	-14
0.37567	-12
0.37933	-10
0.38300	-11
0.38667	-11
0.39033	-10
0.39400	-10
0.39767	-9
0.40133	-7
0.40500	-7
0.40867	-4
0.41233	-1
0.41600	-2
0.41967	-5
0.42333	-10
0.42700	-15
0.43067	-21
0.43433	-27
0.43800	-30
0.44167	-30
0.44533	-28
0.44900	-24
0.45267	-19
0.45633	-15
0.46000	-11
0.46367	-11
0.46733	-12
0.47100	-12
0.47467	-14
0.47833	-18
0.48200	-23
0.48567	-27
0.48933	-30
0.49300	-30
0.49667	-30
0.50033	-30
0.50400	-34
0.50767	-41
0.51133	-48
0.51500	-53
0.51867	-54
0.52233	-52
0.52600	-52
0.52967	-52
0.53333	-50
0.53700	-43
0.54067	-41
0.54433	-45
0.54800	-49
0.55167	-51
0.55533	-51
0.55900	-51
0.56267	-48
0.56633	-44
0.57000	-41
0.57367	-38
0.57733	-36
0.58100	-34
0.58467	-33
0.58833	-32
0.59200	-28
0.59567	-27
0.59933	-27
0.60300	-26
0.60667	-24
0.61033	-22
0.61400	-23
0.61767	-26
0.62133	-31
0.62500	-35
0.62867	-42
0.63233	-50
0.63600	-56
0.63967	-59
0.64333	-60
0.64700	-60
0.65067	-59
0.65433	-59
0.65800	-59
0.66167	-58
0.66533	-57
0.66900	-57
0.67267	-55
0.67633	-53
0.68000	-51
0.68367	-50
0.68733	-51
0.69100	-49
0.69467	-42
0.69833	-33
0.70200	-29
0.70567	-29
0.70933	-29
0.71300	-29
0.71667	-29
0.72033	-28
0.72400	-25
0.72767	-24
0.73133	-23
0.73500	-21
0.73867	-23
0.74233	-26
0.74600	-28
0.74967	-30
0.75333	-35
0.75700	-42
0.76067	-51
0.76433	-58
0.76800	-63
0.77167	-67
0.77533	-71
0.77900	-72
0.78267	-71
0.78633	-71
0.79000	-66
0.79367	-58
0.79733	-52
0.80100	-48
0.80467	-49
0.80833	-53
0.81200	-57
0.81567	-61
0.81933	-67
0.82300	-75
0.82667	-83
0.83033	-90
0.83400	-93
0.83767	-94
0.84133	-91
0.84500	-86
0.84867	-83
0.85233	-82
0.85600	-80
0.85967	-79
0.86333	-75
0.86700	-68
0.87067	-62
0.87433	-60
0.87800	-62
0.88167	-66
0.88533	-69
0.88900	-70
0.89267	-68
0.89633	-64
0.90000	-63
0.90367	-64
0.90733	-69
0.91100	-75
0.91467	-78
0.91833	-78
0.92200	-76
0.92567	-72
0.92933	-69
0.93300	-63
0.93667	-54
0.94033	-51
0.94400	-52
0.94767	-54
0.95133	-55
0.95500	-56
0.95867	-60
0.96233	-65
0.96600	-71
0.96967	-79
0.97333	-87
0.97700	-95
0.98067	-101
0.98433	-102
0.98800	-99
0.99167	-92
0.99533	-82
0.99900	-72
1.00267	-64
1.00633	-57
1.01000	-53
1.01367	-55
1.01733	-61
1.02100	-71
1.02467	-82
1.02833	-92
1.03200	-97
1.03567	-98
1.03933	-97
1.04300	-94
1.04667	-89
1.05033	-85
1.05400	-83
1.05767	-83
1.06133	-80
1.06500	-77
1.06867	-75
1.07233	-76
1.07600	-79
1.07967	-83
1.08333	-88
1.08700	-91
1.09067	-94
1.09433	-98
1.09800	-101
1.10167	-104
1.10533	-103
1.10900	-96
1.11267	-89
1.11633	-89
1.12000	-94
1.12367	-100
1.12733	-105
1.13100	-104
1.13467	-100
1.13833	-93
1.14200	-87
1.14567	-85
1.14933	-84
1.15300	-81
1.15667	-78
1.16033	-79
1.16400	-85
1.16767	-92
1.17133	-100
1.17500	-108
1.17867	-118
1.18233	-125
1.18600	-125
1.18967	-120
1.19333	-115
1.19700	-113
1.20067	-114
1.20433	-115
1.20800	-114
1.21167	-110
1.21533	-106
1.21900	-106
1.22267	-108
1.22633	-109
1.23000	-113
1.23367	-117
1.23733	-114
1.24100	-103
1.24467	-85
1.24833	-71
1.25200	-71
1.25567	-79
1.25933	-89
1.26300	-99
1.26667	-106
1.27033	-112
1.27400	-114
1.27767	-114
1.28133	-118
1.28500	-125
1.28867	-129
1.29233	-128
1.29600	-121
1.29967	-113
1.30333	-111
1.30700	-115
1.31067	-120
1.31433	-124
1.31800	-126
1.32167	-126
1.32533	-125
1.32900	-123
1.33267	-121
1.33633	-121
1.34000	-123
1.34367	-129
1.34733	-135
1.35100	-138
1.35467	-137
1.35833	-132
1.36200	-125
1.36567	-119
1.36933	-116
1.37300	-117
1.37667	-119
1.38033	-120
1.38400	-123
1.38767	-124
1.39133	-124
1.39500	-120
1.39867	-112
1.40233	-107
1.40600	-105
1.40967	-105
1.41333	-103
1.41700	-101
1.42067	-100
1.42433	-100
1.42800	-102
1.43167	-102
1.43533	-100
1.43900	-93
1.44267	-56
1.44633	79
1.45000	373
1.45367	923
1.45733	1910
1.46100	3318
1.46467	4861
1.46833	6245
1.47200	7310
1.47567	7975
1.47933	8173
1.48300	7854
1.48667	7053
1.49033	5925
1.49400	4690
1.49767	3541
1.50133	2585
1.50500	1844
1.50867	1299
1.51233	907
1.51600	631
1.51967	435
1.52333	297
1.52700	200
1.53067	134
1.53433	91
1.53800	64
1.54167	65
1.54533	129
1.54900	316
1.55267	650
1.55633	1072
1.56000	1489
1.56367	1834
1.56733	2077
1.57100	2191
1.57467	2142
1.57833	1927
1.58200	1594
1.58567	1218
1.58933	870
1.59300	583
1.59667	367
1.60033	212
1.60400	105
1.60767	31
1.61133	-19
1.61500	-53
1.61867	-76
1.62233	-91
1.62600	-100
1.62967	-108
1.63333	-113
1.63700	-113
1.64067	-109
1.64433	-105
1.64800	-105
1.65167	-109
1.65533	-118
1.65900	-126
1.66267	-132
1.66633	-137
1.67000	-141
1.67367	-145
1.67733	-150
1.68100	-153
1.68467	-152
1.68833	-149
1.69200	-148
1.69567	-148
1.69933	-148
1.70300	-149
1.70667	-147
1.71033	-144
1.71400	-143
1.71767	-145
1.72133	-148
1.72500	-149
1.72867	-151
1.73233	-156
1.73600	-158
1.73967	-155
1.74333	-146
1.74700	-135
1.75067	-127
1.75433	-122
1.75800	-121
1.76167	-126
1.76533	-133
1.76900	-136
1.77267	-138
1.77633	-142
1.78000	-147
1.78367	-151
1.78733	-152
1.79100	-150
1.79467	-148
1.79833	-146
1.80200	-146
1.80567	-147
1.80933	-148
1.81300	-148
1.81667	-146
1.82033	-142
1.82400	-138
1.82767	-137
1.83133	-140
1.83500	-145
1.83867	-150
1.84233	-156
1.84600	-159
1.84967	-156
1.85333	-148
1.85700	-140
1.86067	-134
1.86433	-130
1.86800	-130
1.87167	-133
1.87533	-136
1.87900	-136
1.88267	-137
1.88633	-140
1.89000	-143
1.89367	-143
1.89733	-143
1.90100	-142
1.90467	-142
1.90833	-144
1.91200	-147
1.91567	-150
1.91933	-153
1.92300	-155
1.92667	-157
1.93033	-155
1.93400	-152
1.93767	-146
1.94133	-139
1.94500	-136
1.94867	-134
1.95233	-128
1.95600	-100
1.95967	86
1.96333	1166
1.96700	6067
1.97067	22912
1.97433	67407
1.97800	158343
1.98167	303710
1.98533	489148
1.98900	682610
1.99267	849556
1.99633	963689
2.00000	1009495
2.00367	983321
2.00733	894160
2.01100	761927
2.01467	612047
2.01833	467451
2.02200	343027
2.02567	244576
2.02933	171262
2.03300	118947
2.03667	82675
2.04033	57970
2.04400	41293
2.04767	30052
2.05133	22438
2.05500	17225
2.05867	13605
2.06233	11043
2.06600	9191
2.06967	7817
2.07333	6771
2.07700	5961
2.08067	5316
2.08433	4789
2.08800	4350
2.09167	3981
2.09533	3666
2.09900	3392
2.10267	3154
2.10633	2943
2.11000	2756
2.11367	2589
2.11733	2443
2.12100	2316
2.12467	2204
2.12833	2106
2.13200	2013
2.13567	1920
2.13933	1828
2.14300	1741
2.14667	1662
2.15033	1590
2.15400	1521
2.15767	1455
2.16133	1394
2.16500	1342
2.16867	1296
2.17233	1250
2.17600	1205
2.17967	1161
2.18333	1121
2.18700	1084
2.19067	1047
2.19433	1012
2.19800	982
2.20167	955
2.20533	929
2.20900	904
2.21267	882
2.21633	864
2.22000	845
2.22367	824
2.22733	800
2.23100	778
2.23467	758
2.23833	740
2.24200	721
2.24567	703
2.24933	684
2.25300	664
2.25667	643
2.26033	621
2.26400	601
2.26767	586
2.27133	574
2.27500	565
2.27867	559
2.28233	555
2.28600	552
2.28967	545
2.29333	534
2.29700	519
2.30067	502
2.30433	484
2.30800	469
2.31167	455
2.31533	443
2.31900	434
2.32267	429
2.32633	425
2.33000	418
2.33367	410
2.33733	402
2.34100	394
2.34467	388
2.34833	384
2.35200	381
2.35567	376
2.35933	370
2.36300	363
2.36667	356
2.37033	350
2.37400	345
2.37767	339
2.38133	333
2.38500	324
2.38867	315
2.39233	308
2.39600	300
2.39967	294
2.40333	289
2.40700	287
2.41067	285
2.41433	283
2.41800	282
2.42167	281
2.42533	281
2.42900	281
2.43267	278
2.43633	272
2.44000	269
2.44367	263
2.44733	255
2.45100	250
2.45467	247
2.45833	249
2.46200	253
2.46567	254
2.46933	251
2.47300	242
2.47667	233
2.48033	225
2.48400	221
2.48767	221
2.49133	220
2.49500	223
2.49867	226
2.50233	228
2.50600	225
2.50967	214
2.51333	197
2.51700	181
2.52067	171
2.52433	167
2.52800	171
2.53167	179
2.53533	185
2.53900	187
2.54267	188
2.54633	188
2.55000	188
2.55367	188
2.55733	182
2.56100	177
2.56467	175
2.56833	176
2.57200	174
2.57567	165
2.57933	153
2.58300	143
2.58667	138
2.59033	138
2.59400	140
2.59767	142
2.60133	138
2.60500	131
2.60867	129
2.61233	130
2.61600	130
2.61967	131
2.62333	134
2.62700	138
2.63067	141
2.63433	141
2.63800	144
2.64167	149
2.64533	151
2.64900	147
2.65267	139
2.65633	128
2.66000	119
2.66367	113
2.66733	107
2.67100	105
2.67467	102
2.67833	99
2.68200	99
2.68567	101
2.68933	103
2.69300	103
2.69667	103
2.70033	102
2.70400	103
2.70767	105
2.71133	108
2.71500	108
2.71867	105
2.72233	102
2.72600	103
2.72967	105
2.73333	106
2.73700	103
2.74067	100
2.74433	99
2.74800	100
2.75167	98
2.75533	94
2.75900	86
2.76267	78
2.76633	71
2.77000	71
2.77367	74
2.77733	80
2.78100	87
2.78467	94
2.78833	95
2.79200	88
2.79567	78
2.79933	70
2.80300	67
2.80667	67
2.81033	70
2.81400	73
2.81767	75
2.82133	79
2.82500	85
2.82867	88
2.83233	86
2.83600	83
2.83967	79
2.84333	75
2.84700	74
2.85067	80
2.85433	86
2.85800	90
2.86167	93
2.86533	97
2.86900	99
2.87267	99
2.87633	98
2.88000	94
2.88367	88
2.88733	79
2.89100	74
2.89467	74
2.89833	79
2.90200	84
2.90567	84
2.90933	81
2.91300	80
2.91667	80
2.92033	77
2.92400	75
2.92767	74
2.93133	74
2.93500	77
2.93867	80
2.94233	84
2.94600	84
2.94967	77
2.95333	67
2.95700	61
2.96067	58
2.96433	57
2.96800	55
2.97167	57
2.97533	61
2.97900	66
2.98267	71
2.98633	74
2.99000	75
2.99367	76
2.99733	78
3.00100	84
3.00467	95
3.00833	103
3.01200	106
3.01567	107
3.01933	108
3.02300	108
3.02667	104
3.03033	97
3.03400	89
3.03767	80
3.04133	72
3.04500	63
3.04867	56
3.05233	54
3.05600	56
3.05967	59
3.06333	63
3.06700	67
3.07067	71
3.07433	73
3.07800	79
3.08167	84
3.08533	87
3.08900	88
3.09267	84
3.09633	75
3.10000	65
3.10367	59
3.10733	59
3.11100	59
3.11467	58
3.11833	58
3.12200	64
3.12567	69
3.12933	71
3.13300	70
3.13667	66
3.14033	60
3.14400	56
3.14767	53
3.15133	52
3.15500	56
3.15867	63
3.16233	73
3.16600	81
3.16967	85
3.17333	84
3.17700	79
3.18067	72
3.18433	66
3.18800	62
3.19167	61
3.19533	63
3.19900	67
3.20267	71
3.20633	75
3.21000	79
3.21367	80
3.21733	78
3.22100	73
3.22467	65
3.22833	59
3.23200	56
3.23567	58
3.23933	66
3.24300	75
3.24667	81
3.25033	85
3.25400	87
3.25767	86
3.26133	83
3.26500	78
3.26867	75
3.27233	76
3.27600	78
3.27967	78
3.28333	77
3.28700	74
3.29067	70
3.29433	68
3.29800	72
3.30167	76
3.30533	76
3.30900	71
3.31267	67
3.31633	66
3.32000	64
3.32367	62
3.32733	62
3.33100	66
3.33467	73
3.33833	80
3.34200	85
3.34567	88
3.34933	89
3.35300	90
3.35667	86
3.36033	79
3.36400	73
3.36767	71
3.37133	71
3.37500	71
3.37867	69
3.38233	67
3.38600	67
3.38967	69
3.39333	72
3.39700	74
3.40067	75
3.40433	78
3.40800	80
3.41167	82
3.41533	82
3.41900	79
3.42267	74
3.42633	72
3.43000	71
3.43367	72
3.43733	74
3.44100	78
3.44467	81
3.44833	83
3.45200	84
3.45567	83
3.45933	80
3.46300	77
3.46667	78
3.47033	79
3.47400	79
3.47767	79
3.48133	80
3.48500	82
3.48867	88
3.49233	91
3.49600	94
3.49967	98
3.50333	101
3.50700	99
3.51067	91
3.51433	82
3.51800	77
3.52167	76
3.52533	80
3.52900	85
3.53267	87
3.53633	89
3.54000	87
3.54367	86
3.54733	85
3.55100	81
3.55467	70
3.55833	58
3.56200	50
3.56567	45
3.56933	44
3.57300	45
3.57667	50
3.58033	55
3.58400	62
3.58767	68
3.59133	73
3.59500	77
3.59867	79
3.60233	74
3.60600	66
3.60967	60
3.61333	54
3.61700	52
3.62067	51
3.62433	49
3.62800	44
3.63167	39
3.63533	37
3.63900	38
3.64267	42
3.64633	48
3.65000	51
3.65367	53
3.65733	55
3.66100	57
3.66467	59
3.66833	60
3.67200	63
3.67567	69
3.67933	74
3.68300	81
3.68667	86
3.69033	86
3.69400	82
3.69767	73
3.70133	62
3.70500	54
3.70867	51
3.71233	50
3.71600	46
3.71967	38
3.72333	30
3.72700	25
3.73067	25
3.73433	26
3.73800	28
3.74167	32
3.74533	39
3.74900	44
3.75267	46
3.75633	46
3.76000	46
3.76367	48
3.76733	52
3.77100	54
3.77467	52
3.77833	46
3.78200	35
3.78567	22
3.78933	10
3.79300	0
3.79667	-3
3.80033	-0
3.80400	7
3.80767	16
3.81133	23
3.81500	28
3.81867	34
3.82233	37
3.82600	39
3.82967	38
3.83333	36
3.83700	31
3.84067	25
3.84433	18
3.84800	14
3.85167	12
3.85533	8
3.85900	6
3.86267	10
3.86633	18
3.87000	24
3.87367	29
3.87733	33
3.88100	33
3.88467	30
3.88833	28
3.89200	29
3.89567	31
3.89933	32
3.90300	32
3.90667	29
3.91033	23
3.91400	21
3.91767	21
3.92133	22
3.92500	24
3.92867	26
3.93233	25
3.93600	21
3.93967	18
3.94333	16
3.94700	16
3.95067	20
3.95433	25
3.95800	30
3.96167	32
3.96533	33
3.96900	31
3.97267	30
3.97633	30
3.98000	31
3.98367	30
3.98733	30
3.99100	30
3.99467	26
3.99833	17

[Chromatogram (Ch2)]
Interval(msec)	220
# of Points	1091
Start Time(min)	0.002
End Time(min)	3.998
R.Time (min)	Intensity
0.00167	0
0.00533	0
0.00900	0
0.01267	-0
0.01633	-0
0.02000	-0
0.02367	-0
0.02733	-0
0.03100	0
0.03467	1
0.03833	1
0.04200	1
0.04567	1
0.04933	1
0.05300	1
0.05667	1
0.06033	1
0.06400	1
0.06767	1
0.07133	1
0.07500	2
0.07867	2
0.08233	2
0.08600	2
0.08967	2
0.09333	2
0.09700	2
0.10067	3
0.10433	3
0.10800	3
0.11167	3
0.11533	4
0.11900	4
0.12267	4
0.12633	4
0.13000	4
0.13367	4
0.13733	4
0.14100	4
0.14467	4
0.14833	4
0.15200	4
0.15567	4
0.15933	4
0.16300	4
0.16667	4
0.17033	4
0.17400	4
0.17767	4
0.18133	4
0.18500	4
0.18867	3
0.19233	3
0.19600	3
0.19967	2
0.20333	2
0.20700	2
0.21067	2
0.21433	2
0.21800	2
0.22167	2
0.22533	1
0.22900	1
0.23267	1
0.23633	1
0.24000	1
0.24367	2
0.24733	2
0.25100	2
0.25467	2
0.25833	2
0.26200	2
0.26567	2
0.26933	2
0.27300	2
0.27667	2
0.28033	2
0.28400	2
0.28767	2
0.29133	2
0.29500	2
0.29867	2
0.30233	2
0.30600	2
0.30967	2
0.31333	2
0.31700	2
0.32067	1
0.32433	1
0.32800	1
0.33167	0
0.33533	-0
0.33900	-1
0.34267	-1
0.34633	-1
0.35000	-1
0.35367	-2
0.35733	-2
0.36100	-1
0.36467	-1
0.36833	-1
0.37200	-0
0.37567	-0
0.37933	0
0.38300	0
0.38667	1
0.39033	1
0.39400	1
0.39767	1
0.40133	1
0.40500	1
0.40867	1
0.41233	1
0.41600	1
0.41967	1
0.42333	1
0.42700	1
0.43067	1
0.43433	1
0.43800	1
0.44167	1
0.44533	1
0.44900	1
0.45267	1
0.45633	1
0.46000	1
0.46367	1
0.46733	1
0.47100	1
0.47467	1
0.47833	1
0.48200	1
0.48567	1
0.48933	1
0.49300	1
0.49667	1
0.50033	1
0.50400	1
0.50767	1
0.51133	1
0.51500	2
0.51867	2
0.52233	2
0.52600	2
0.52967	2
0.53333	2
0.53700	1
0.54067	1
0.54433	1
0.54800	1
0.55167	1
0.55533	1
0.55900	1
0.56267	1
0.56633	1
0.57000	1
0.57367	1
0.57733	1
0.58100	1
0.58467	1
0.58833	1
0.59200	0
0.59567	0
0.59933	1
0.60300	1
0.60667	1
0.61033	1
0.61400	1
0.61767	1
0.62133	1
0.62500	1
0.62867	1
0.63233	1
0.63600	2
0.63967	2
0.64333	2
0.64700	2
0.65067	2
0.65433	2
0.65800	2
0.66167	2
0.66533	2
0.66900	2
0.67267	2
0.67633	2
0.68000	2
0.68367	2
0.68733	2
0.69100	2
0.69467	2
0.69833	2
0.70200	2
0.70567	2
0.70933	2
0.71300	2
0.71667	1
0.72033	1
0.72400	1
0.72767	1
0.73133	1
0.73500	1
0.73867	2
0.74233	2
0.74600	2
0.74967	2
0.75333	2
0.75700	2
0.76067	2
0.76433	2
0.76800	1
0.77167	1
0.77533	1
0.77900	1
0.78267	1
0.78633	2
0.79000	2
0.79367	1
0.79733	1
0.80100	1
0.80467	1
0.80833	1
0.81200	1
0.81567	1
0.81933	1
0.82300	0
0.82667	0
0.83033	-0
0.83400	-1
0.83767	-1
0.84133	-1
0.84500	-1
0.84867	-1
0.85233	-1
0.85600	-1
0.85967	-1
0.86333	-1
0.86700	-1
0.87067	-1
0.87433	-1
0.87800	-1
0.88167	-1
0.88533	-1
0.88900	-1
0.89267	-0
0.89633	0
0.90000	0
0.90367	1
0.90733	1
0.91100	1
0.91467	1
0.91833	1
0.92200	1
0.92567	1
0.92933	1
0.93300	1
0.93667	1
0.94033	1
0.94400	1
0.94767	0
0.95133	0
0.95500	0
0.95867	0
0.96233	1
0.96600	1
0.96967	1
0.97333	0
0.97700	0
0.98067	0
0.98433	-0
0.98800	-0
0.99167	-1
0.99533	-1
0.99900	-1
1.00267	-1
1.00633	-1
1.01000	-1
1.01367	-1
1.01733	-0
1.02100	-0
1.02467	-0
1.02833	-0
1.03200	-0
1.03567	-0
1.03933	-0
1.04300	-0
1.04667	0
1.05033	0
1.05400	0
1.05767	1
1.06133	1
1.06500	1
1.06867	1
1.07233	1
1.07600	1
1.07967	1
1.08333	1
1.08700	1
1.09067	1
1.09433	1
1.09800	1
1.10167	1
1.10533	1
1.10900	1
1.11267	1
1.11633	1
1.12000	1
1.12367	1
1.12733	1
1.13100	1
1.13467	1
1.13833	1
1.14200	0
1.14567	0
1.14933	-0
1.15300	-0
1.15667	-1
1.16033	-1
1.16400	-1
1.16767	-1
1.17133	-1
1.17500	-2
1.17867	-2
1.18233	-2
1.18600	-2
1.18967	-2
1.19333	-2
1.19700	-1
1.20067	-1
1.20433	-1
1.20800	-1
1.21167	-1
1.21533	-1
1.21900	-1
1.22267	-1
1.22633	-1
1.23000	-1
1.23367	-1
1.23733	-0
1.24100	-0
1.24467	-0
1.24833	-0
1.25200	-1
1.25567	-1
1.25933	-1
1.26300	-0
1.26667	-0
1.27033	-0
1.27400	-0
1.27767	-0
1.28133	-0
1.28500	-0
1.28867	-0
1.29233	-0
1.29600	-0
1.29967	-0
1.30333	-0
1.30700	0
1.31067	0
1.31433	0
1.31800	0
1.32167	0
1.32533	0
1.32900	-0
1.33267	-0
1.33633	-0
1.34000	-0
1.34367	0
1.34733	0
1.35100	0
1.35467	0
1.35833	0
1.36200	0
1.36567	-0
1.36933	-0
1.37300	-0
1.37667	-0
1.38033	-0
1.38400	-0
1.38767	-0
1.39133	-1
1.39500	-1
1.39867	-1
1.40233	-2
1.40600	-2
1.40967	-2
1.41333	-3
1.41700	-3
1.42067	-3
1.42433	-2
1.42800	-2
1.43167	-2
1.43533	-2
1.43900	-2
1.44267	-2
1.44633	-2
1.45000	-2
1.45367	-2
1.45733	-2
1.46100	-2
1.46467	-1
1.46833	-1
1.47200	-1
1.47567	-1
1.47933	-0
1.48300	-0
1.48667	-0
1.49033	-0
1.49400	-0
1.49767	-0
1.50133	0
1.50500	0
1.50867	0
1.51233	0
1.51600	0
1.51967	0
1.52333	0
1.52700	0
1.53067	0
1.53433	1
1.53800	1
1.54167	1
1.54533	1
1.54900	1
1.55267	1
1.55633	1
1.56000	1
1.56367	1
1.56733	1
1.57100	1
1.57467	1
1.57833	1
1.58200	1
1.58567	1
1.58933	1
1.59300	1
1.59667	1
1.60033	-0
1.60400	-1
1.60767	-2
1.61133	-4
1.61500	-6
1.61867	-9
1.62233	-11
1.62600	-14
1.62967	-18
1.63333	-21
1.63700	-25
1.64067	-29
1.64433	-32
1.64800	-36
1.65167	-40
1.65533	-43
1.65900	-47
1.66267	-51
1.66633	-55
1.67000	-60
1.67367	-64
1.67733	-69
1.68100	-74
1.68467	-79
1.68833	-84
1.69200	-88
1.69567	-92
1.69933	-96
1.70300	-99
1.70667	-102
1.71033	-104
1.71400	-106
1.71767	-107
1.72133	-108
1.72500	-109
1.72867	-110
1.73233	-110
1.73600	-111
1.73967	-112
1.74333	-113
1.74700	-114
1.75067	-114
1.75433	-114
1.75800	-114
1.76167	-114
1.76533	-113
1.76900	-113
1.77267	-112
1.77633	-112
1.78000	-112
1.78367	-112
1.78733	-112
1.79100	-113
1.79467	-113
1.79833	-114
1.80200	-115
1.80567	-115
1.80933	-116
1.81300	-117
1.81667	-118
1.82033	-118
1.82400	-118
1.82767	-117
1.83133	-117
1.83500	-117
1.83867	-116
1.84233	-116
1.84600	-116
1.84967	-116
1.85333	-116
1.85700	-116
1.86067	-116
1.86433	-116
1.86800	-116
1.87167	-116
1.87533	-117
1.87900	-117
1.88267	-117
1.88633	-117
1.89000	-117
1.89367	-116
1.89733	-116
1.90100	-116
1.90467	-116
1.90833	-116
1.91200	-116
1.91567	-116
1.91933	-116
1.92300	-115
1.92667	-115
1.93033	-115
1.93400	-115
1.93767	-114
1.94133	-114
1.94500	-114
1.94867	-114
1.95233	-114
1.95600	-114
1.95967	-115
1.96333	-114
1.96700	-114
1.97067	-113
1.97433	-113
1.97800	-113
1.98167	-113
1.98533	-113
1.98900	-112
1.99267	-112
1.99633	-112
2.00000	-112
2.00367	-111
2.00733	-111
2.01100	-110
2.01467	-110
2.01833	-109
2.02200	-109
2.02567	-108
2.02933	-108
2.03300	-107
2.03667	-107
2.04033	-107
2.04400	-107
2.04767	-107
2.05133	-106
2.05500	-106
2.05867	-105
2.06233	-105
2.06600	-105
2.06967	-105
2.07333	-105
2.07700	-105
2.08067	-106
2.08433	-106
2.08800	-106
2.09167	-106
2.09533	-106
2.09900	-105
2.10267	-105
2.10633	-104
2.11000	-103
2.11367	-103
2.11733	-102
2.12100	-102
2.12467	-102
2.12833	-102
2.13200	-102
2.13567	-101
2.13933	-101
2.14300	-101
2.14667	-101
2.15033	-101
2.15400	-100
2.15767	-100
2.16133	-99
2.16500	-99
2.16867	-99
2.17233	-99
2.17600	-99
2.17967	-99
2.18333	-99
2.18700	-99
2.19067	-98
2.19433	-98
2.19800	-97
2.20167	-97
2.20533	-96
2.20900	-96
2.21267	-95
2.21633	-95
2.22000	-95
2.22367	-94
2.22733	-94
2.23100	-94
2.23467	-94
2.23833	-94
2.24200	-94
2.24567	-94
2.24933	-93
2.25300	-92
2.25667	-91
2.26033	-90
2.26400	-90
2.26767	-90
2.27133	-91
2.27500	-91
2.27867	-91
2.28233	-91
2.28600	-91
2.28967	-90
2.29333	-89
2.29700	-89
2.30067	-88
2.30433	-88
2.30800	-87
2.31167	-87
2.31533	-86
2.31900	-86
2.32267	-86
2.32633	-85
2.33000	-85
2.33367	-85
2.33733	-85
2.34100	-84
2.34467	-83
2.34833	-82
2.35200	-81
2.35567	-80
2.35933	-79
2.36300	-77
2.36667	-76
2.37033	-75
2.37400	-73
2.37767	-71
2.38133	-69
2.38500	-66
2.38867	-62
2.39233	-58
2.39600	-54
2.39967	-50
2.40333	-46
2.40700	-42
2.41067	-38
2.41433	-34
2.41800	-30
2.42167	-27
2.42533	-24
2.42900	-21
2.43267	-18
2.43633	-16
2.44000	-14
2.44367	-11
2.44733	-9
2.45100	-8
2.45467	-6
2.45833	-5
2.46200	-3
2.46567	-2
2.46933	-1
2.47300	-0
2.47667	1
2.48033	2
2.48400	3
2.48767	3
2.49133	4
2.49500	5
2.49867	6
2.50233	7
2.50600	8
2.50967	9
2.51333	9
2.51700	10
2.52067	10
2.52433	11
2.52800	12
2.53167	12
2.53533	13
2.53900	14
2.54267	14
2.54633	14
2.55000	14
2.55367	14
2.55733	14
2.56100	15
2.56467	15
2.56833	15
2.57200	15
2.57567	15
2.57933	16
2.58300	16
2.58667	16
2.59033	16
2.59400	16
2.59767	16
2.60133	16
2.60500	16
2.60867	17
2.61233	17
2.61600	17
2.61967	17
2.62333	17
2.62700	17
2.63067	17
2.63433	17
2.63800	17
2.64167	17
2.64533	18
2.64900	18
2.65267	18
2.65633	18
2.66000	18
2.66367	18
2.66733	18
2.67100	18
2.67467	18
2.67833	19
2.68200	19
2.68567	19
2.68933	20
2.69300	20
2.69667	21
2.70033	21
2.70400	21
2.70767	22
2.71133	22
2.71500	23
2.71867	23
2.72233	23
2.72600	23
2.72967	23
2.73333	23
2.73700	22
2.74067	22
2.74433	22
2.74800	22
2.75167	22
2.75533	22
2.75900	22
2.76267	23
2.76633	23
2.77000	23
2.77367	24
2.77733	24
2.78100	25
2.78467	25
2.78833	26
2.79200	27
2.79567	27
2.79933	27
2.80300	28
2.80667	28
2.81033	28
2.81400	28
2.81767	28
2.82133	28
2.82500	28
2.82867	28
2.83233	28
2.83600	28
2.83967	28
2.84333	28
2.84700	28
2.85067	27
2.85433	25
2.85800	23
2.86167	19
2.86533	13
2.86900	5
2.87267	-6
2.87633	-20
2.88000	-38
2.88367	-60
2.88733	-86
2.89100	-116
2.89467	-149
2.89833	-186
2.90200	-225
2.90567	-268
2.90933	-313
2.91300	-359
2.91667	-408
2.92033	-457
2.92400	-507
2.92767	-557
2.93133	-607
2.93500	-658
2.93867	-708
2.94233	-757
2.94600	-806
2.94967	-857
2.95333	-914
2.95700	-975
2.96067	-1033
2.96433	-1077
2.96800	-1099
2.97167	-1094
2.97533	-1063
2.97900	-1012
2.98267	-946
2.98633	-871
2.99000	-792
2.99367	-711
2.99733	-633
3.00100	-559
3.00467	-490
3.00833	-427
3.01200	-370
3.01567	-319
3.01933	-275
3.02300	-235
3.02667	-200
3.03033	-170
3.03400	-144
3.03767	-121
3.04133	-102
3.04500	-85
3.04867	-71
3.05233	-58
3.05600	-48
3.05967	-39
3.06333	-31
3.06700	-24
3.07067	-19
3.07433	-14
3.07800	-10
3.08167	-6
3.08533	-3
3.08900	-0
3.09267	2
3.09633	4
3.10000	6
3.10367	7
3.10733	8
3.11100	9
3.11467	10
3.11833	11
3.12200	12
3.12567	13
3.12933	13
3.13300	14
3.13667	14
3.14033	15
3.14400	15
3.14767	16
3.15133	16
3.15500	16
3.15867	16
3.16233	17
3.16600	17
3.16967	17
3.17333	18
3.17700	18
3.18067	18
3.18433	18
3.18800	18
3.19167	19
3.19533	19
3.19900	19
3.20267	19
3.20633	19
3.21000	19
3.21367	20
3.21733	20
3.22100	20
3.22467	20
3.22833	21
3.23200	21
3.23567	21
3.23933	21
3.24300	21
3.24667	21
3.25033	21
3.25400	21
3.25767	21
3.26133	21
3.26500	21
3.26867	21
3.27233	22
3.27600	22
3.27967	22
3.28333	23
3.28700	23
3.29067	23
3.29433	23
3.29800	24
3.30167	24
3.30533	24
3.30900	24
3.31267	24
3.31633	24
3.32000	24
3.32367	24
3.32733	24
3.33100	24
3.33467	25
3.33833	25
3.34200	25
3.34567	25
3.34933	25
3.35300	25
3.35667	25
3.36033	25
3.36400	25
3.36767	25
3.37133	26
3.37500	26
3.37867	26
3.38233	26
3.38600	26
3.38967	26
3.39333	26
3.39700	26
3.40067	26
3.40433	26
3.40800	26
3.41167	26
3.41533	26
3.41900	25
3.42267	26
3.42633	26
3.43000	26
3.43367	26
3.43733	26
3.44100	26
3.44467	26
3.44833	26
3.45200	26
3.45567	26
3.45933	26
3.46300	26
3.46667	26
3.47033	26
3.47400	26
3.47767	26
3.48133	26
3.48500	26
3.48867	26
3.49233	26
3.49600	25
3.49967	25
3.50333	25
3.50700	25
3.51067	25
3.51433	25
3.51800	25
3.52167	25
3.52533	25
3.52900	25
3.53267	25
3.53633	25
3.54000	25
3.54367	25
3.54733	25
3.55100	25
3.55467	26
3.55833	26
3.56200	26
3.56567	26
3.56933	26
3.57300	26
3.57667	25
3.58033	25
3.58400	25
3.58767	25
3.59133	25
3.59500	25
3.59867	25
3.60233	25
3.60600	25
3.60967	25
3.61333	26
3.61700	26
3.62067	26
3.62433	26
3.62800	26
3.63167	26
3.63533	27
3.63900	27
3.64267	27
3.64633	27
3.65000	27
3.65367	27
3.65733	27
3.66100	27
3.66467	27
3.66833	27
3.67200	27
3.67567	27
3.67933	28
3.68300	28
3.68667	28
3.69033	28
3.69400	28
3.69767	27
3.70133	27
3.70500	27
3.70867	27
3.71233	27
3.71600	27
3.71967	27
3.72333	27
3.72700	27
3.73067	27
3.73433	27
3.73800	27
3.74167	26
3.74533	26
3.74900	26
3.75267	26
3.75633	26
3.76000	26
3.76367	26
3.76733	25
3.77100	25
3.77467	25
3.77833	25
3.78200	25
3.78567	25
3.78933	25
3.79300	25
3.79667	25
3.80033	26
3.80400	26
3.80767	26
3.81133	26
3.81500	26
3.81867	26
3.82233	26
3.82600	26
3.82967	26
3.83333	26
3.83700	26
3.84067	26
3.84433	27
3.84800	27
3.85167	27
3.85533	27
3.85900	27
3.86267	27
3.86633	27
3.87000	27
3.87367	27
3.87733	27
3.88100	27
3.88467	27
3.88833	27
3.89200	27
3.89567	27
3.89933	27
3.90300	27
3.90667	27
3.91033	27
3.91400	27
3.91767	27
3.92133	27
3.92500	27
3.92867	26
3.93233	27
3.93600	27
3.93967	27
3.94333	27
3.94700	27
3.95067	27
3.95433	26
3.95800	26
3.96167	26
3.96533	27
3.96900	27
3.97267	27
3.97633	26
3.98000	26
3.98367	26
3.98733	26
3.99100	26
3.99467	26
3.99833	26

[Chromatogram (Ch3)]
Interval(msec)	220
# of Points	1091
Start Time(min)	0.002
End Time(min)	3.998
R.Time (min)	Intensity
0.00167	1
0.00533	2
0.00900	2
0.01267	2
0.01633	0
0.02000	-0
0.02367	-2
0.02733	-3
0.03100	-4
0.03467	-2
0.03833	2
0.04200	6
0.04567	6
0.04933	6
0.05300	5
0.05667	3
0.06033	2
0.06400	1
0.06767	1
0.07133	6
0.07500	6
0.07867	5
0.08233	4
0.08600	2
0.08967	1
0.09333	2
0.09700	2
0.10067	2
0.10433	3
0.10800	0
0.11167	-2
0.11533	-2
0.11900	-0
0.12267	3
0.12633	5
0.13000	5
0.13367	3
0.13733	2
0.14100	2
0.14467	2
0.14833	4
0.15200	7
0.15567	7
0.15933	7
0.16300	8
0.16667	10
0.17033	12
0.17400	12
0.17767	10
0.18133	10
0.18500	11
0.18867	7
0.19233	5
0.19600	5
0.19967	6
0.20333	6
0.20700	7
0.21067	8
0.21433	8
0.21800	5
0.22167	0
0.22533	-2
0.22900	1
0.23267	4
0.23633	6
0.24000	6
0.24367	3
0.24733	4
0.25100	7
0.25467	10
0.25833	12
0.26200	12
0.26567	10
0.26933	9
0.27300	7
0.27667	6
0.28033	6
0.28400	7
0.28767	10
0.29133	11
0.29500	11
0.29867	10
0.30233	10
0.30600	11
0.30967	13
0.31333	14
0.31700	15
0.32067	15
0.32433	15
0.32800	17
0.33167	17
0.33533	15
0.33900	12
0.34267	11
0.34633	10
0.35000	11
0.35367	12
0.35733	11
0.36100	10
0.36467	13
0.36833	16
0.37200	17
0.37567	18
0.37933	18
0.38300	19
0.38667	17
0.39033	17
0.39400	18
0.39767	18
0.40133	16
0.40500	14
0.40867	11
0.41233	10
0.41600	11
0.41967	12
0.42333	14
0.42700	16
0.43067	16
0.43433	15
0.43800	14
0.44167	13
0.44533	12
0.44900	11
0.45267	12
0.45633	15
0.46000	16
0.46367	15
0.46733	13
0.47100	10
0.47467	13
0.47833	14
0.48200	16
0.48567	18
0.48933	18
0.49300	17
0.49667	17
0.50033	17
0.50400	19
0.50767	20
0.51133	21
0.51500	21
0.51867	18
0.52233	16
0.52600	15
0.52967	14
0.53333	12
0.53700	12
0.54067	15
0.54433	16
0.54800	17
0.55167	16
0.55533	16
0.55900	16
0.56267	18
0.56633	20
0.57000	19
0.57367	19
0.57733	17
0.58100	15
0.58467	15
0.58833	17
0.59200	18
0.59567	20
0.59933	21
0.60300	20
0.60667	19
0.61033	18
0.61400	20
0.61767	20
0.62133	20
0.62500	19
0.62867	19
0.63233	18
0.63600	16
0.63967	16
0.64333	18
0.64700	17
0.65067	15
0.65433	16
0.65800	17
0.66167	17
0.66533	17
0.66900	17
0.67267	17
0.67633	17
0.68000	18
0.68367	18
0.68733	18
0.69100	17
0.69467	16
0.69833	14
0.70200	14
0.70567	14
0.70933	16
0.71300	18
0.71667	18
0.72033	18
0.72400	19
0.72767	18
0.73133	15
0.73500	14
0.73867	15
0.74233	15
0.74600	16
0.74967	15
0.75333	15
0.75700	17
0.76067	17
0.76433	15
0.76800	16
0.77167	15
0.77533	14
0.77900	18
0.78267	22
0.78633	23
0.79000	22
0.79367	20
0.79733	20
0.80100	20
0.80467	21
0.80833	22
0.81200	22
0.81567	25
0.81933	27
0.82300	26
0.82667	24
0.83033	24
0.83400	21
0.83767	19
0.84133	19
0.84500	21
0.84867	24
0.85233	26
0.85600	25
0.85967	25
0.86333	26
0.86700	28
0.87067	27
0.87433	25
0.87800	24
0.88167	23
0.88533	24
0.88900	22
0.89267	22
0.89633	22
0.90000	22
0.90367	23
0.90733	24
0.91100	25
0.91467	25
0.91833	27
0.92200	28
0.92567	27
0.92933	26
0.93300	25
0.93667	23
0.94033	23
0.94400	22
0.94767	22
0.95133	20
0.95500	20
0.95867	22
0.96233	24
0.96600	26
0.96967	28
0.97333	28
0.97700	26
0.98067	25
0.98433	24
0.98800	22
0.99167	22
0.99533	24
0.99900	24
1.00267	24
1.00633	23
1.01000	24
1.01367	28
1.01733	27
1.02100	24
1.02467	22
1.02833	20
1.03200	18
1.03567	18
1.03933	16
1.04300	16
1.04667	18
1.05033	19
1.05400	17
1.05767	17
1.06133	16
1.06500	17
1.06867	18
1.07233	19
1.07600	19
1.07967	19
1.08333	18
1.08700	17
1.09067	16
1.09433	19
1.09800	22
1.10167	21
1.10533	22
1.10900	25
1.11267	23
1.11633	21
1.12000	23
1.12367	25
1.12733	26
1.13100	25
1.13467	25
1.13833	25
1.14200	24
1.14567	22
1.14933	20
1.15300	19
1.15667	17
1.16033	17
1.16400	20
1.16767	22
1.17133	21
1.17500	18
1.17867	16
1.18233	16
1.18600	17
1.18967	19
1.19333	18
1.19700	17
1.20067	17
1.20433	18
1.20800	19
1.21167	19
1.21533	18
1.21900	16
1.22267	15
1.22633	16
1.23000	16
1.23367	17
1.23733	19
1.24100	19
1.24467	19
1.24833	20
1.25200	21
1.25567	21
1.25933	23
1.26300	23
1.26667	23
1.27033	21
1.27400	19
1.27767	14
1.28133	14
1.28500	14
1.28867	15
1.29233	15
1.29600	17
1.29967	17
1.30333	17
1.30700	18
1.31067	18
1.31433	15
1.31800	16
1.32167	16
1.32533	17
1.32900	17
1.33267	17
1.33633	17
1.34000	19
1.34367	19
1.34733	16
1.35100	16
1.35467	14
1.35833	15
1.36200	16
1.36567	15
1.36933	16
1.37300	15
1.37667	12
1.38033	11
1.38400	11
1.38767	13
1.39133	16
1.39500	18
1.39867	22
1.40233	24
1.40600	24
1.40967	22
1.41333	20
1.41700	19
1.42067	19
1.42433	18
1.42800	18
1.43167	19
1.43533	19
1.43900	20
1.44267	20
1.44633	20
1.45000	16
1.45367	14
1.45733	15
1.46100	17
1.46467	18
1.46833	18
1.47200	18
1.47567	17
1.47933	18
1.48300	19
1.48667	17
1.49033	18
1.49400	19
1.49767	21
1.50133	22
1.50500	21
1.50867	20
1.51233	20
1.51600	21
1.51967	21
1.52333	20
1.52700	19
1.53067	18
1.53433	16
1.53800	16
1.54167	18
1.54533	17
1.54900	15
1.55267	15
1.55633	17
1.56000	16
1.56367	14
1.56733	14
1.57100	15
1.57467	14
1.57833	16
1.58200	16
1.58567	14
1.58933	12
1.59300	13
1.59667	14
1.60033	13
1.60400	13
1.60767	13
1.61133	12
1.61500	11
1.61867	11
1.62233	12
1.62600	14
1.62967	16
1.63333	19
1.63700	22
1.64067	22
1.64433	21
1.64800	20
1.65167	19
1.65533	20
1.65900	22
1.66267	25
1.66633	27
1.67000	28
1.67367	27
1.67733	28
1.68100	29
1.68467	29
1.68833	27
1.69200	27
1.69567	26
1.69933	23
1.70300	22
1.70667	24
1.71033	26
1.71400	29
1.71767	30
1.72133	29
1.72500	30
1.72867	32
1.73233	32
1.73600	32
1.73967	31
1.74333	34
1.74700	37
1.75067	38
1.75433	38
1.75800	37
1.76167	34
1.76533	33
1.76900	36
1.77267	38
1.77633	38
1.78000	39
1.78367	42
1.78733	46
1.79100	48
1.79467	48
1.79833	47
1.80200	46
1.80567	45
1.80933	43
1.81300	43
1.81667	46
1.82033	48
1.82400	49
1.82767	47
1.83133	46
1.83500	46
1.83867	47
1.84233	47
1.84600	47
1.84967	47
1.85333	46
1.85700	45
1.86067	47
1.86433	47
1.86800	47
1.87167	49
1.87533	51
1.87900	52
1.88267	51
1.88633	51
1.89000	52
1.89367	53
1.89733	55
1.90100	54
1.90467	55
1.90833	55
1.91200	55
1.91567	53
1.91933	55
1.92300	57
1.92667	56
1.93033	55
1.93400	55
1.93767	58
1.94133	57
1.94500	55
1.94867	57
1.95233	60
1.95600	61
1.95967	63
1.96333	64
1.96700	64
1.97067	63
1.97433	62
1.97800	65
1.98167	66
1.98533	67
1.98900	68
1.99267	68
1.99633	70
2.00000	72
2.00367	73
2.00733	72
2.01100	71
2.01467	70
2.01833	69
2.02200	69
2.02567	71
2.02933	74
2.03300	77
2.03667	79
2.04033	80
2.04400	80
2.04767	81
2.05133	80
2.05500	81
2.05867	84
2.06233	84
2.06600	86
2.06967	88
2.07333	90
2.07700	92
2.08067	92
2.08433	92
2.08800	91
2.09167	93
2.09533	93
2.09900	93
2.10267	93
2.10633	93
2.11000	93
2.11367	94
2.11733	95
2.12100	96
2.12467	98
2.12833	101
2.13200	105
2.13567	108
2.13933	111
2.14300	115
2.14667	116
2.15033	117
2.15400	115
2.15767	113
2.16133	112
2.16500	114
2.16867	116
2.17233	118
2.17600	119
2.17967	120
2.18333	119
2.18700	120
2.19067	120
2.19433	120
2.19800	121
2.20167	121
2.20533	122
2.20900	122
2.21267	123
2.21633	123
2.22000	125
2.22367	128
2.22733	130
2.23100	134
2.23467	137
2.23833	140
2.24200	141
2.24567	141
2.24933	141
2.25300	140
2.25667	140
2.26033	141
2.26400	141
2.26767	141
2.27133	141
2.27500	139
2.27867	138
2.28233	140
2.28600	146
2.28967	150
2.29333	153
2.29700	153
2.30067	152
2.30433	154
2.30800	159
2.31167	162
2.31533	163
2.31900	165
2.32267	168
2.32633	169
2.33000	169
2.33367	168
2.33733	168
2.34100	171
2.34467	175
2.34833	175
2.35200	175
2.35567	173
2.35933	173
2.36300	174
2.36667	177
2.37033	178
2.37400	177
2.37767	177
2.38133	177
2.38500	179
2.38867	180
2.39233	178
2.39600	178
2.39967	179
2.40333	181
2.40700	183
2.41067	183
2.41433	183
2.41800	182
2.42167	184
2.42533	186
2.42900	190
2.43267	191
2.43633	190
2.44000	189
2.44367	205
2.44733	244
2.45100	285
2.45467	310
2.45833	310
2.46200	294
2.46567	277
2.46933	263
2.47300	250
2.47667	236
2.48033	218
2.48400	183
2.48767	135
2.49133	103
2.49500	97
2.49867	120
2.50233	166
2.50600	225
2.50967	284
2.51333	335
2.51700	377
2.52067	413
2.52433	443
2.52800	471
2.53167	499
2.53533	525
2.53900	550
2.54267	573
2.54633	595
2.55000	614
2.55367	633
2.55733	649
2.56100	664
2.56467	679
2.56833	692
2.57200	702
2.57567	712
2.57933	718
2.58300	723
2.58667	722
2.59033	721
2.59400	714
2.59767	710
2.60133	705
2.60500	695
2.60867	683
2.61233	667
2.61600	647
2.61967	622
2.62333	595
2.62700	567
2.63067	539
2.63433	511
2.63800	487
2.64167	468
2.64533	453
2.64900	440
2.65267	432
2.65633	430
2.66000	429
2.66367	428
2.66733	430
2.67100	436
2.67467	445
2.67833	453
2.68200	457
2.68567	463
2.68933	470
2.69300	479
2.69667	486
2.70033	493
2.70400	497
2.70767	500
2.71133	503
2.71500	507
2.71867	512
2.72233	518
2.72600	521
2.72967	523
2.73333	523
2.73700	520
2.74067	517
2.74433	518
2.74800	517
2.75167	515
2.75533	514
2.75900	513
2.76267	515
2.76633	517
2.77000	517
2.77367	515
2.77733	511
2.78100	508
2.78467	506
2.78833	505
2.79200	501
2.79567	497
2.79933	498
2.80300	500
2.80667	501
2.81033	498
2.81400	494
2.81767	494
2.82133	495
2.82500	492
2.82867	492
2.83233	498
2.83600	519
2.83967	562
2.84333	650
2.84700	805
2.85067	1050
2.85433	1398
2.85800	1854
2.86167	2397
2.86533	2997
2.86900	3614
2.87267	4198
2.87633	4695
2.88000	5064
2.88367	5289
2.88733	5367
2.89100	5306
2.89467	5132
2.89833	4872
2.90200	4554
2.90567	4205
2.90933	3842
2.91300	3482
2.91667	3140
2.92033	2823
2.92400	2534
2.92767	2273
2.93133	2037
2.93500	1827
2.93867	1643
2.94233	1483
2.94600	1340
2.94967	1216
2.95333	1110
2.95700	1017
2.96067	936
2.96433	865
2.96800	805
2.97167	755
2.97533	711
2.97900	671
2.98267	635
2.98633	605
2.99000	582
2.99367	561
2.99733	542
3.00100	526
3.00467	513
3.00833	500
3.01200	488
3.01567	478
3.01933	470
3.02300	463
3.02667	457
3.03033	450
3.03400	443
3.03767	436
3.04133	434
3.04500	431
3.04867	427
3.05233	422
3.05600	418
3.05967	416
3.06333	413
3.06700	410
3.07067	407
3.07433	403
3.07800	401
3.08167	397
3.08533	390
3.08900	384
3.09267	381
3.09633	379
3.10000	378
3.10367	380
3.10733	379
3.11100	377
3.11467	375
3.11833	374
3.12200	370
3.12567	366
3.12933	364
3.13300	359
3.13667	355
3.14033	351
3.14400	346
3.14767	342
3.15133	336
3.15500	329
3.15867	327
3.16233	327
3.16600	328
3.16967	326
3.17333	324
3.17700	323
3.18067	321
3.18433	317
3.18800	316
3.19167	317
3.19533	317
3.19900	317
3.20267	316
3.20633	315
3.21000	312
3.21367	308
3.21733	305
3.22100	306
3.22467	305
3.22833	302
3.23200	298
3.23567	298
3.23933	301
3.24300	302
3.24667	301
3.25033	298
3.25400	293
3.25767	289
3.26133	287
3.26500	284
3.26867	282
3.27233	282
3.27600	280
3.27967	279
3.28333	277
3.28700	274
3.29067	271
3.29433	269
3.29800	264
3.30167	263
3.30533	261
3.30900	258
3.31267	254
3.31633	252
3.32000	249
3.32367	245
3.32733	242
3.33100	241
3.33467	235
3.33833	231
3.34200	226
3.34567	223
3.34933	222
3.35300	222
3.35667	222
3.36033	220
3.36400	219
3.36767	218
3.37133	215
3.37500	212
3.37867	209
3.38233	205
3.38600	201
3.38967	198
3.39333	196
3.39700	193
3.40067	190
3.40433	186
3.40800	183
3.41167	182
3.41533	181
3.41900	182
3.42267	181
3.42633	179
3.43000	177
3.43367	176
3.43733	173
3.44100	169
3.44467	165
3.44833	163
3.45200	162
3.45567	160
3.45933	157
3.46300	156
3.46667	155
3.47033	152
3.47400	151
3.47767	150
3.48133	148
3.48500	144
3.48867	141
3.49233	143
3.49600	142
3.49967	138
3.50333	134
3.50700	131
3.51067	128
3.51433	127
3.51800	126
3.52167	127
3.52533	127
3.52900	129
3.53267	129
3.53633	127
3.54000	122
3.54367	120
3.54733	121
3.55100	120
3.55467	119
3.55833	116
3.56200	114
3.56567	110
3.56933	105
3.57300	102
3.57667	100
3.58033	99
3.58400	99
3.58767	97
3.59133	96
3.59500	98
3.59867	98
3.60233	99
3.60600	98
3.60967	96
3.61333	94
3.61700	91
3.62067	87
3.62433	84
3.62800	86
3.63167	88
3.63533	89
3.63900	89
3.64267	88
3.64633	86
3.65000	84
3.65367	82
3.65733	80
3.66100	74
3.66467	72
3.66833	73
3.67200	72
3.67567	72
3.67933	69
3.68300	66
3.68667	66
3.69033	68
3.69400	69
3.69767	70
3.70133	69
3.70500	66
3.70867	65
3.71233	64
3.71600	63
3.71967	59
3.72333	56
3.72700	54
3.73067	53
3.73433	53
3.73800	51
3.74167	48
3.74533	45
3.74900	44
3.75267	44
3.75633	42
3.76000	42
3.76367	45
3.76733	45
3.77100	46
3.77467	47
3.77833	48
3.78200	46
3.78567	44
3.78933	42
3.79300	37
3.79667	36
3.80033	37
3.80400	38
3.80767	38
3.81133	38
3.81500	37
3.81867	34
3.82233	31
3.82600	31
3.82967	31
3.83333	32
3.83700	34
3.84067	36
3.84433	36
3.84800	34
3.85167	33
3.85533	30
3.85900	27
3.86267	23
3.86633	21
3.87000	18
3.87367	19
3.87733	22
3.88100	23
3.88467	24
3.88833	23
3.89200	21
3.89567	19
3.89933	17
3.90300	16
3.90667	13
3.91033	12
3.91400	12
3.91767	10
3.92133	10
3.92500	8
3.92867	7
3.93233	7
3.93600	7
3.93967	6
3.94333	6
3.94700	9
3.95067	8
3.95433	7
3.95800	6
3.96167	7
3.96533	8
3.96900	7
3.97267	6
3.97633	5
3.98000	4
3.98367	2
3.98733	0
3.99100	-2
3.99467	-5
3.99833	-6

[Status Trace (Column Oven Temperature)]
Interval(msec)	1000
# of Points	239
Start Time(min)	0.014
End Time(min)	3.981
Intensity Units	
Intensity Multiplier	1
R.Time (min)	Intensity
0.01402	35.04
0.03068	35.04
0.04735	35.04
0.06402	35.03
0.08068	35.02
0.09735	35.02
0.11402	35.02
0.13068	35.02
0.14735	35.03
0.16402	35.02
0.18068	35.02
0.19735	35.02
0.21402	35.02
0.23068	35.01
0.24735	35.01
0.26402	35.00
0.28068	35.01
0.29735	35.01
0.31402	35.01
0.33068	35.02
0.34735	35.03
0.36402	35.02
0.38068	35.01
0.39735	35.01
0.41402	35.01
0.43068	35.01
0.44735	35.00
0.46402	35.00
0.48068	35.01
0.49735	35.00
0.51402	35.01
0.53068	35.01
0.54735	35.01
0.56402	35.01
0.58068	35.01
0.59735	35.00
0.61402	35.00
0.63068	35.00
0.64735	35.00
0.66402	34.99
0.68068	34.98
0.69735	34.98
0.71402	34.98
0.73068	34.99
0.74735	34.98
0.76402	34.97
0.78068	34.98
0.79735	34.98
0.81402	34.99
0.83068	34.99
0.84735	35.00
0.86402	35.00
0.88068	34.99
0.89735	34.99
0.91402	34.99
0.93068	34.98
0.94735	34.98
0.96402	34.99
0.98068	34.99
0.99735	35.00
1.01402	35.00
1.03068	35.00
1.04735	34.99
1.06402	35.00
1.08068	35.00
1.09735	34.99
1.11402	35.00
1.13068	35.01
1.14735	35.01
1.16402	35.01
1.18068	35.01
1.19735	35.00
1.21402	34.99
1.23068	34.99
1.24735	34.99
1.26402	34.99
1.28068	34.98
1.29735	34.98
1.31402	34.98
1.33068	34.99
1.34735	34.99
1.36402	34.99
1.38068	34.99
1.39735	35.01
1.41402	35.01
1.43068	35.01
1.44735	35.01
1.46402	35.01
1.48068	35.01
1.49735	35.02
1.51402	35.01
1.53068	35.01
1.54735	34.99
1.56402	34.98
1.58068	34.97
1.59735	35.00
1.61402	35.09
1.63068	35.23
1.64735	35.44
1.66402	35.71
1.68068	36.06
1.69735	36.43
1.71402	36.78
1.73068	37.12
1.74735	37.46
1.76402	37.77
1.78068	38.09
1.79735	38.42
1.81402	38.77
1.83068	39.07
1.84735	39.40
1.86402	39.74
1.88068	40.07
1.89735	40.39
1.91402	40.71
1.93068	41.02
1.94735	41.35
1.96402	41.67
1.98068	42.00
1.99735	42.32
2.01402	42.66
2.03068	42.97
2.04735	43.29
2.06402	43.61
2.08068	43.95
2.09735	44.27
2.11402	44.61
2.13068	44.92
2.14735	45.26
2.16402	45.58
2.18068	45.94
2.19735	46.25
2.21402	46.59
2.23068	46.94
2.24735	47.26
2.26402	47.60
2.28068	47.94
2.29735	48.28
2.31402	48.59
2.33068	48.93
2.34735	49.23
2.36402	49.50
2.38068	49.63
2.39735	49.64
2.41402	49.64
2.43068	49.64
2.44735	49.65
2.46402	49.67
2.48068	49.68
2.49735	49.68
2.51402	49.71
2.53068	49.71
2.54735	49.73
2.56402	49.74
2.58068	49.77
2.59735	49.77
2.61402	49.79
2.63068	49.80
2.64735	49.81
2.66402	49.85
2.68068	49.85
2.69735	49.86
2.71402	49.84
2.73068	49.87
2.74735	49.88
2.76402	49.89
2.78068	49.88
2.79735	49.87
2.81402	49.86
2.83068	49.85
2.84735	49.86
2.86402	49.88
2.88068	49.89
2.89735	49.91
2.91402	49.93
2.93068	49.94
2.94735	49.95
2.96402	49.95
2.98068	49.95
2.99735	49.96
3.01402	49.96
3.03068	49.96
3.04735	49.98
3.06402	49.98
3.08068	49.99
3.09735	50.00
3.11402	50.01
3.13068	50.02
3.14735	50.03
3.16402	50.04
3.18068	50.05
3.19735	50.06
3.21402	50.06
3.23068	50.07
3.24735	50.08
3.26402	50.09
3.28068	50.09
3.29735	50.10
3.31402	50.10
3.33068	50.10
3.34735	50.10
3.36402	50.10
3.38068	50.10
3.39735	50.10
3.41402	50.09
3.43068	50.09
3.44735	50.09
3.46402	50.08
3.48068	50.08
3.49735	50.08
3.51402	50.09
3.53068	50.09
3.54735	50.08
3.56402	50.08
3.58068	50.09
3.59735	50.09
3.61402	50.08
3.63068	50.08
3.64735	50.09
3.66402	50.09
3.68068	50.08
3.69735	50.09
3.71402	50.09
3.73068	50.08
3.74735	50.09
3.76402	50.09
3.78068	50.09
3.79735	50.09
3.81402	50.08
3.83068	50.08
3.84735	50.07
3.86402	50.07
3.88068	50.06
3.89735	50.06
3.91402	50.06
3.93068	50.06
3.94735	50.06
3.96402	50.06
3.98068	50.06

[Status Trace (Injection Unit Temperature)]
Interval(msec)	1000
# of Points	239
Start Time(min)	0.014
End Time(min)	3.981
Intensity Units	
Intensity Multiplier	1
R.Time (min)	Intensity
0.01402	99.99
0.03068	99.99
0.04735	99.98
0.06402	99.98
0.08068	99.99
0.09735	99.99
0.11402	99.98
0.13068	99.98
0.14735	99.98
0.16402	99.98
0.18068	99.98
0.19735	99.99
0.21402	99.99
0.23068	99.98
0.24735	99.98
0.26402	99.98
0.28068	99.99
0.29735	99.98
0.31402	99.99
0.33068	99.98
0.34735	99.98
0.36402	99.98
0.38068	99.99
0.39735	99.98
0.41402	99.98
0.43068	99.98
0.44735	99.98
0.46402	99.98
0.48068	99.98
0.49735	99.98
0.51402	99.98
0.53068	99.98
0.54735	99.99
0.56402	99.99
0.58068	99.98
0.59735	99.98
0.61402	99.98
0.63068	99.99
0.64735	99.99
0.66402	99.99
0.68068	99.98
0.69735	99.99
0.71402	99.99
0.73068	99.99
0.74735	99.99
0.76402	99.99
0.78068	99.98
0.79735	99.98
0.81402	99.99
0.83068	99.99
0.84735	99.99
0.86402	99.99
0.88068	99.99
0.89735	99.99
0.91402	99.98
0.93068	99.99
0.94735	99.99
0.96402	99.98
0.98068	99.98
0.99735	99.98
1.01402	99.99
1.03068	99.98
1.04735	99.99
1.06402	99.99
1.08068	99.98
1.09735	99.99
1.11402	99.99
1.13068	99.98
1.14735	99.99
1.16402	99.98
1.18068	99.99
1.19735	99.98
1.21402	99.99
1.23068	99.98
1.24735	99.98
1.26402	99.98
1.28068	99.99
1.29735	99.98
1.31402	99.99
1.33068	99.98
1.34735	99.99
1.36402	99.99
1.38068	99.99
1.39735	99.99
1.41402	99.99
1.43068	99.98
1.44735	99.99
1.46402	99.99
1.48068	99.99
1.49735	99.99
1.51402	99.99
1.53068	99.99
1.54735	99.99
1.56402	99.99
1.58068	99.99
1.59735	99.99
1.61402	99.99
1.63068	99.99
1.64735	99.99
1.66402	99.99
1.68068	99.99
1.69735	99.99
1.71402	99.99
1.73068	99.99
1.74735	99.99
1.76402	99.99
1.78068	99.99
1.79735	99.99
1.81402	99.99
1.83068	99.99
1.84735	99.99
1.86402	99.99
1.88068	99.98
1.89735	99.98
1.91402	99.98
1.93068	99.98
1.94735	99.98
1.96402	99.97
1.98068	99.98
1.99735	99.98
2.01402	99.98
2.03068	99.98
2.04735	99.98
2.06402	99.98
2.08068	99.97
2.09735	99.98
2.11402	99.97
2.13068	99.97
2.14735	99.97
2.16402	99.97
2.18068	99.97
2.19735	99.97
2.21402	99.97
2.23068	99.97
2.24735	99.97
2.26402	99.97
2.28068	99.97
2.29735	99.97
2.31402	99.97
2.33068	99.97
2.34735	99.97
2.36402	99.97
2.38068	99.97
2.39735	99.97
2.41402	99.97
2.43068	99.97
2.44735	99.97
2.46402	99.97
2.48068	99.98
2.49735	99.97
2.51402	99.98
2.53068	99.97
2.54735	99.98
2.56402	99.98
2.58068	99.98
2.59735	99.98
2.61402	99.98
2.63068	99.98
2.64735	99.98
2.66402	99.98
2.68068	99.98
2.69735	99.98
2.71402	99.99
2.73068	99.98
2.74735	99.99
2.76402	99.99
2.78068	99.99
2.79735	99.99
2.81402	99.99
2.83068	99.99
2.84735	100.00
2.86402	100.00
2.88068	100.00
2.89735	100.00
2.91402	100.00
2.93068	100.00
2.94735	100.00
2.96402	100.00
2.98068	100.00
2.99735	100.01
3.01402	100.01
3.03068	100.01
3.04735	100.01
3.06402	100.01
3.08068	100.01
3.09735	100.01
3.11402	100.01
3.13068	100.02
3.14735	100.02
3.16402	100.02
3.18068	100.02
3.19735	100.02
3.21402	100.02
3.23068	100.02
3.24735	100.03
3.26402	100.02
3.28068	100.03
3.29735	100.03
3.31402	100.03
3.33068	100.03
3.34735	100.03
3.36402	100.03
3.38068	100.03
3.39735	100.03
3.41402	100.03
3.43068	100.03
3.44735	100.03
3.46402	100.03
3.48068	100.03
3.49735	100.03
3.51402	100.03
3.53068	100.03
3.54735	100.03
3.56402	100.03
3.58068	100.04
3.59735	100.04
3.61402	100.04
3.63068	100.04
3.64735	100.04
3.66402	100.04
3.68068	100.04
3.69735	100.04
3.71402	100.04
3.73068	100.04
3.74735	100.04
3.76402	100.04
3.78068	100.04
3.79735	100.05
3.81402	100.04
3.83068	100.04
3.84735	100.04
3.86402	100.05
3.88068	100.05
3.89735	100.04
3.91402	100.05
3.93068	100.05
3.94735	100.05
3.96402	100.05
3.98068	100.05

[Status Trace (Carrier Gas Pressure)]
Interval(msec)	1000
# of Points	239
Start Time(min)	0.014
End Time(min)	3.981
Intensity Units	
Intensity Multiplier	1
R.Time (min)	Intensity
0.01402	57.42
0.03068	55.32
0.04735	57.87
0.06402	59.81
0.08068	58.84
0.09735	57.98
0.11402	57.99
0.13068	58.01
0.14735	58.01
0.16402	58.00
0.18068	58.00
0.19735	58.00
0.21402	58.00
0.23068	58.00
0.24735	58.00
0.26402	58.00
0.28068	58.00
0.29735	58.00
0.31402	58.00
0.33068	58.00
0.34735	58.00
0.36402	58.00
0.38068	58.00
0.39735	58.00
0.41402	58.00
0.43068	58.00
0.44735	58.00
0.46402	58.00
0.48068	58.00
0.49735	58.00
0.51402	58.00
0.53068	58.00
0.54735	58.00
0.56402	58.00
0.58068	58.00
0.59735	58.00
0.61402	58.00
0.63068	58.00
0.64735	58.00
0.66402	58.00
0.68068	58.00
0.69735	58.00
0.71402	58.00
0.73068	58.00
0.74735	58.00
0.76402	58.00
0.78068	58.00
0.79735	58.00
0.81402	58.00
0.83068	58.00
0.84735	58.00
0.86402	58.00
0.88068	58.00
0.89735	58.00
0.91402	58.00
0.93068	58.00
0.94735	58.00
0.96402	58.00
0.98068	58.00
0.99735	58.00
1.01402	58.00
1.03068	58.00
1.04735	58.00
1.06402	58.00
1.08068	58.00
1.09735	58.00
1.11402	58.00
1.13068	58.00
1.14735	58.00
1.16402	58.00
1.18068	58.00
1.19735	58.00
1.21402	58.00
1.23068	58.00
1.24735	58.00
1.26402	58.00
1.28068	58.00
1.29735	58.00
1.31402	58.00
1.33068	58.00
1.34735	58.00
1.36402	58.00
1.38068	58.00
1.39735	58.00
1.41402	58.00
1.43068	58.00
1.44735	58.00
1.46402	58.00
1.48068	58.00
1.49735	58.00
1.51402	58.00
1.53068	58.00
1.54735	58.00
1.56402	58.00
1.58068	58.00
1.59735	58.00
1.61402	58.00
1.63068	58.01
1.64735	58.00
1.66402	58.01
1.68068	58.01
1.69735	58.00
1.71402	58.00
1.73068	58.00
1.74735	58.00
1.76402	58.00
1.78068	58.00
1.79735	58.00
1.81402	58.00
1.83068	58.00
1.84735	58.00
1.86402	58.00
1.88068	58.00
1.89735	58.00
1.91402	58.00
1.93068	58.00
1.94735	58.00
1.96402	58.00
1.98068	58.00
1.99735	58.00
2.01402	58.00
2.03068	58.00
2.04735	58.00
2.06402	58.00
2.08068	58.00
2.09735	58.00
2.11402	58.00
2.13068	58.00
2.14735	58.00
2.16402	58.00
2.18068	58.00
2.19735	58.00
2.21402	58.00
2.23068	58.00
2.24735	58.00
2.26402	58.00
2.28068	58.00
2.29735	58.00
2.31402	58.00
2.33068	58.00
2.34735	58.00
2.36402	58.00
2.38068	58.00
2.39735	57.99
2.41402	58.00
2.43068	58.00
2.44735	58.00
2.46402	58.00
2.48068	58.00
2.49735	58.00
2.51402	57.99
2.53068	57.99
2.54735	58.00
2.56402	58.00
2.58068	58.00
2.59735	58.00
2.61402	58.00
2.63068	58.00
2.64735	58.00
2.66402	58.00
2.68068	58.00
2.69735	58.00
2.71402	58.00
2.73068	58.00
2.74735	58.00
2.76402	58.00
2.78068	58.00
2.79735	58.00
2.81402	58.00
2.83068	58.00
2.84735	58.00
2.86402	58.00
2.88068	58.00
2.89735	58.00
2.91402	58.00
2.93068	58.00
2.94735	58.00
2.96402	58.00
2.98068	58.00
2.99735	58.00
3.01402	58.00
3.03068	58.00
3.04735	58.00
3.06402	58.00
3.08068	58.00
3.09735	58.00
3.11402	58.00
3.13068	58.00
3.14735	58.00
3.16402	58.00
3.18068	58.00
3.19735	58.00
3.21402	58.00
3.23068	58.00
3.24735	58.00
3.26402	58.00
3.28068	58.00
3.29735	58.00
3.31402	58.00
3.33068	58.00
3.34735	58.00
3.36402	58.00
3.38068	58.00
3.39735	58.00
3.41402	58.00
3.43068	58.00
3.44735	58.00
3.46402	58.00
3.48068	58.00
3.49735	58.00
3.51402	58.00
3.53068	58.00
3.54735	58.00
3.56402	58.00
3.58068	58.00
3.59735	58.00
3.61402	58.00
3.63068	58.00
3.64735	58.00
3.66402	58.00
3.68068	58.00
3.69735	58.00
3.71402	58.00
3.73068	58.00
3.74735	58.00
3.76402	58.00
3.78068	58.00
3.79735	58.00
3.81402	58.00
3.83068	58.00
3.84735	58.00
3.86402	58.00
3.88068	58.00
3.89735	58.00
3.91402	58.00
3.93068	58.00
3.94735	58.00
3.96402	58.00
3.98068	58.00

[Status Trace (Carrier Gas Flow)]
Interval(msec)	1000
# of Points	239
Start Time(min)	0.014
End Time(min)	3.981
Intensity Units	
Intensity Multiplier	1
R.Time (min)	Intensity
0.01402	34.15
0.03068	34.54
0.04735	34.55
0.06402	34.52
0.08068	34.50
0.09735	34.52
0.11402	34.52
0.13068	34.52
0.14735	34.52
0.16402	34.52
0.18068	34.52
0.19735	34.52
0.21402	34.52
0.23068	34.52
0.24735	34.52
0.26402	34.52
0.28068	34.52
0.29735	34.52
0.31402	34.52
0.33068	34.52
0.34735	34.52
0.36402	34.52
0.38068	34.52
0.39735	34.52
0.41402	34.52
0.43068	34.52
0.44735	34.52
0.46402	34.52
0.48068	34.52
0.49735	34.52
0.51402	34.52
0.53068	34.52
0.54735	34.52
0.56402	34.52
0.58068	34.52
0.59735	34.52
0.61402	34.52
0.63068	34.52
0.64735	34.52
0.66402	34.52
0.68068	34.52
0.69735	34.52
0.71402	34.52
0.73068	34.52
0.74735	34.52
0.76402	34.52
0.78068	34.52
0.79735	34.52
0.81402	34.52
0.83068	34.52
0.84735	34.52
0.86402	34.52
0.88068	34.52
0.89735	34.52
0.91402	34.52
0.93068	34.52
0.94735	34.52
0.96402	34.52
0.98068	34.52
0.99735	34.52
1.01402	34.52
1.03068	34.52
1.04735	34.52
1.06402	34.52
1.08068	34.53
1.09735	34.51
1.11402	34.52
1.13068	34.53
1.14735	34.51
1.16402	34.52
1.18068	34.52
1.19735	34.52
1.21402	34.53
1.23068	34.51
1.24735	34.52
1.26402	34.52
1.28068	34.53
1.29735	34.52
1.31402	34.52
1.33068	34.52
1.34735	34.52
1.36402	34.52
1.38068	34.53
1.39735	34.51
1.41402	34.52
1.43068	34.53
1.44735	34.52
1.46402	34.52
1.48068	34.52
1.49735	34.50
1.51402	34.52
1.53068	34.54
1.54735	34.52
1.56402	34.52
1.58068	34.52
1.59735	34.51
1.61402	34.52
1.63068	34.52
1.64735	34.52
1.66402	34.52
1.68068	34.51
1.69735	34.52
1.71402	34.54
1.73068	34.52
1.74735	34.52
1.76402	34.53
1.78068	34.52
1.79735	34.52
1.81402	34.52
1.83068	34.50
1.84735	34.52
1.86402	34.52
1.88068	34.51
1.89735	34.52
1.91402	34.52
1.93068	34.52
1.94735	34.51
1.96402	34.52
1.98068	34.52
1.99735	34.52
2.01402	34.51
2.03068	34.52
2.04735	34.52
2.06402	34.52
2.08068	34.51
2.09735	34.52
2.11402	34.52
2.13068	34.52
2.14735	34.52
2.16402	34.52
2.18068	34.51
2.19735	34.52
2.21402	34.51
2.23068	34.52
2.24735	34.52
2.26402	34.52
2.28068	34.52
2.29735	34.52
2.31402	34.52
2.33068	34.52
2.34735	34.52
2.36402	34.52
2.38068	34.52
2.39735	34.52
2.41402	34.52
2.43068	34.52
2.44735	34.52
2.46402	34.52
2.48068	34.52
2.49735	34.52
2.51402	34.52
2.53068	34.52
2.54735	34.52
2.56402	34.52
2.58068	34.52
2.59735	34.52
2.61402	34.52
2.63068	34.52
2.64735	34.52
2.66402	34.52
2.68068	34.52
2.69735	34.52
2.71402	34.52
2.73068	34.52
2.74735	34.52
2.76402	34.52
2.78068	34.52
2.79735	34.52
2.81402	34.52
2.83068	34.52
2.84735	34.52
2.86402	34.52
2.88068	34.52
2.89735	34.52
2.91402	34.52
2.93068	34.52
2.94735	34.52
2.96402	34.52
2.98068	34.52
2.99735	34.52
3.01402	34.52
3.03068	34.52
3.04735	34.52
3.06402	34.52
3.08068	34.52
3.09735	34.52
3.11402	34.52
3.13068	34.52
3.14735	34.52
3.16402	34.52
3.18068	34.52
3.19735	34.52
3.21402	34.52
3.23068	34.52
3.24735	34.52
3.26402	34.52
3.28068	34.52
3.29735	34.52
3.31402	34.52
3.33068	34.52
3.34735	34.52
3.36402	34.52
3.38068	34.52
3.39735	34.52
3.41402	34.52
3.43068	34.52
3.44735	34.52
3.46402	34.52
3.48068	34.52
3.49735	34.52
3.51402	34.52
3.53068	34.52
3.54735	34.52
3.56402	34.52
3.58068	34.52
3.59735	34.52
3.61402	34.52
3.63068	34.52
3.64735	34.52
3.66402	34.52
3.68068	34.52
3.69735	34.52
3.71402	34.52
3.73068	34.52
3.74735	34.52
3.76402	34.52
3.78068	34.52
3.79735	34.52
3.81402	34.52
3.83068	34.52
3.84735	34.52
3.86402	34.52
3.88068	34.52
3.89735	34.52
3.91402	34.52
3.93068	34.52
3.94735	34.52
3.96402	34.52
3.98068	34.52

[Status Trace (Column Flow)]
Interval(msec)	1000
# of Points	239
Start Time(min)	0.014
End Time(min)	3.981
Intensity Units	
Intensity Multiplier	1
R.Time (min)	Intensity
0.01402	5.43
0.03068	5.19
0.04735	5.48
0.06402	5.71
0.08068	5.59
0.09735	5.49
0.11402	5.50
0.13068	5.50
0.14735	5.50
0.16402	5.50
0.18068	5.50
0.19735	5.50
0.21402	5.50
0.23068	5.50
0.24735	5.50
0.26402	5.50
0.28068	5.50
0.29735	5.50
0.31402	5.50
0.33068	5.50
0.34735	5.50
0.36402	5.50
0.38068	5.50
0.39735	5.50
0.41402	5.50
0.43068	5.50
0.44735	5.50
0.46402	5.50
0.48068	5.50
0.49735	5.50
0.51402	5.50
0.53068	5.50
0.54735	5.50
0.56402	5.50
0.58068	5.50
0.59735	5.50
0.61402	5.50
0.63068	5.50
0.64735	5.50
0.66402	5.50
0.68068	5.50
0.69735	5.50
0.71402	5.50
0.73068	5.50
0.74735	5.50
0.76402	5.50
0.78068	5.50
0.79735	5.50
0.81402	5.50
0.83068	5.50
0.84735	5.50
0.86402	5.50
0.88068	5.50
0.89735	5.50
0.91402	5.50
0.93068	5.50
0.94735	5.50
0.96402	5.50
0.98068	5.50
0.99735	5.50
1.01402	5.50
1.03068	5.50
1.04735	5.50
1.06402	5.50
1.08068	5.50
1.09735	5.50
1.11402	5.50
1.13068	5.50
1.14735	5.50
1.16402	5.50
1.18068	5.50
1.19735	5.50
1.21402	5.50
1.23068	5.50
1.24735	5.50
1.26402	5.50
1.28068	5.50
1.29735	5.50
1.31402	5.50
1.33068	5.50
1.34735	5.50
1.36402	5.50
1.38068	5.50
1.39735	5.50
1.41402	5.50
1.43068	5.50
1.44735	5.50
1.46402	5.50
1.48068	5.50
1.49735	5.50
1.51402	5.50
1.53068	5.50
1.54735	5.50
1.56402	5.50
1.58068	5.50
1.59735	5.50
1.61402	5.49
1.63068	5.49
1.64735	5.48
1.66402	5.48
1.68068	5.46
1.69735	5.45
1.71402	5.44
1.73068	5.43
1.74735	5.42
1.76402	5.41
1.78068	5.40
1.79735	5.39
1.81402	5.38
1.83068	5.37
1.84735	5.36
1.86402	5.35
1.88068	5.34
1.89735	5.33
1.91402	5.32
1.93068	5.31
1.94735	5.30
1.96402	5.29
1.98068	5.28
1.99735	5.27
2.01402	5.26
2.03068	5.26
2.04735	5.25
2.06402	5.24
2.08068	5.23
2.09735	5.22
2.11402	5.21
2.13068	5.20
2.14735	5.19
2.16402	5.18
2.18068	5.17
2.19735	5.16
2.21402	5.15
2.23068	5.14
2.24735	5.13
2.26402	5.12
2.28068	5.11
2.29735	5.10
2.31402	5.09
2.33068	5.09
2.34735	5.08
2.36402	5.07
2.38068	5.07
2.39735	5.07
2.41402	5.07
2.43068	5.07
2.44735	5.07
2.46402	5.06
2.48068	5.06
2.49735	5.06
2.51402	5.06
2.53068	5.06
2.54735	5.06
2.56402	5.06
2.58068	5.06
2.59735	5.06
2.61402	5.06
2.63068	5.06
2.64735	5.06
2.66402	5.06
2.68068	5.06
2.69735	5.06
2.71402	5.06
2.73068	5.06
2.74735	5.06
2.76402	5.06
2.78068	5.06
2.79735	5.06
2.81402	5.06
2.83068	5.06
2.84735	5.06
2.86402	5.06
2.88068	5.06
2.89735	5.06
2.91402	5.06
2.93068	5.06
2.94735	5.06
2.96402	5.06
2.98068	5.06
2.99735	5.06
3.01402	5.06
3.03068	5.06
3.04735	5.06
3.06402	5.06
3.08068	5.06
3.09735	5.06
3.11402	5.06
3.13068	5.06
3.14735	5.06
3.16402	5.05
3.18068	5.05
3.19735	5.05
3.21402	5.05
3.23068	5.05
3.24735	5.05
3.26402	5.05
3.28068	5.05
3.29735	5.05
3.31402	5.05
3.33068	5.05
3.34735	5.05
3.36402	5.05
3.38068	5.05
3.39735	5.05
3.41402	5.05
3.43068	5.05
3.44735	5.05
3.46402	5.05
3.48068	5.05
3.49735	5.05
3.51402	5.05
3.53068	5.05
3.54735	5.05
3.56402	5.05
3.58068	5.05
3.59735	5.05
3.61402	5.05
3.63068	5.05
3.64735	5.05
3.66402	5.05
3.68068	5.05
3.69735	5.05
3.71402	5.05
3.73068	5.05
3.74735	5.05
3.76402	5.05
3.78068	5.05
3.79735	5.05
3.81402	5.05
3.83068	5.05
3.84735	5.05
3.86402	5.05
3.88068	5.05
3.89735	5.05
3.91402	5.05
3.93068	5.05
3.94735	5.05
3.96402	5.05
3.98068	5.05

[Status Trace (Linear Velocity)]
Interval(msec)	1000
# of Points	239
Start Time(min)	0.014
End Time(min)	3.981
Intensity Units	
Intensity Multiplier	1
R.Time (min)	Intensity
0.01402	38.63
0.03068	37.25
0.04735	38.92
0.06402	40.19
0.08068	39.56
0.09735	39.00
0.11402	39.00
0.13068	39.02
0.14735	39.01
0.16402	39.01
0.18068	39.01
0.19735	39.01
0.21402	39.01
0.23068	39.01
0.24735	39.01
0.26402	39.01
0.28068	39.01
0.29735	39.01
0.31402	39.01
0.33068	39.01
0.34735	39.01
0.36402	39.01
0.38068	39.01
0.39735	39.01
0.41402	39.01
0.43068	39.01
0.44735	39.01
0.46402	39.01
0.48068	39.01
0.49735	39.01
0.51402	39.01
0.53068	39.01
0.54735	39.01
0.56402	39.01
0.58068	39.01
0.59735	39.01
0.61402	39.01
0.63068	39.01
0.64735	39.01
0.66402	39.01
0.68068	39.01
0.69735	39.01
0.71402	39.01
0.73068	39.01
0.74735	39.01
0.76402	39.01
0.78068	39.01
0.79735	39.01
0.81402	39.01
0.83068	39.01
0.84735	39.01
0.86402	39.01
0.88068	39.01
0.89735	39.01
0.91402	39.01
0.93068	39.01
0.94735	39.01
0.96402	39.01
0.98068	39.01
0.99735	39.01
1.01402	39.01
1.03068	39.01
1.04735	39.01
1.06402	39.01
1.08068	39.01
1.09735	39.01
1.11402	39.01
1.13068	39.01
1.14735	39.01
1.16402	39.01
1.18068	39.01
1.19735	39.01
1.21402	39.01
1.23068	39.01
1.24735	39.01
1.26402	39.01
1.28068	39.01
1.29735	39.01
1.31402	39.01
1.33068	39.01
1.34735	39.01
1.36402	39.01
1.38068	39.01
1.39735	39.01
1.41402	39.01
1.43068	39.01
1.44735	39.01
1.46402	39.01
1.48068	39.01
1.49735	39.01
1.51402	39.01
1.53068	39.01
1.54735	39.01
1.56402	39.01
1.58068	39.01
1.59735	39.01
1.61402	39.01
1.63068	38.99
1.64735	38.97
1.66402	38.95
1.68068	38.91
1.69735	38.88
1.71402	38.84
1.73068	38.81
1.74735	38.78
1.76402	38.75
1.78068	38.72
1.79735	38.69
1.81402	38.65
1.83068	38.62
1.84735	38.59
1.86402	38.56
1.88068	38.53
1.89735	38.50
1.91402	38.47
1.93068	38.44
1.94735	38.41
1.96402	38.38
1.98068	38.35
1.99735	38.32
2.01402	38.29
2.03068	38.26
2.04735	38.23
2.06402	38.20
2.08068	38.17
2.09735	38.14
2.11402	38.11
2.13068	38.09
2.14735	38.05
2.16402	38.02
2.18068	37.99
2.19735	37.96
2.21402	37.93
2.23068	37.90
2.24735	37.87
2.26402	37.84
2.28068	37.81
2.29735	37.78
2.31402	37.75
2.33068	37.72
2.34735	37.69
2.36402	37.67
2.38068	37.66
2.39735	37.65
2.41402	37.66
2.43068	37.66
2.44735	37.66
2.46402	37.66
2.48068	37.65
2.49735	37.65
2.51402	37.65
2.53068	37.64
2.54735	37.65
2.56402	37.65
2.58068	37.65
2.59735	37.65
2.61402	37.65
2.63068	37.64
2.64735	37.64
2.66402	37.64
2.68068	37.64
2.69735	37.64
2.71402	37.64
2.73068	37.64
2.74735	37.64
2.76402	37.64
2.78068	37.64
2.79735	37.64
2.81402	37.64
2.83068	37.64
2.84735	37.64
2.86402	37.64
2.88068	37.64
2.89735	37.63
2.91402	37.63
2.93068	37.63
2.94735	37.63
2.96402	37.63
2.98068	37.63
2.99735	37.63
3.01402	37.63
3.03068	37.63
3.04735	37.63
3.06402	37.63
3.08068	37.63
3.09735	37.63
3.11402	37.63
3.13068	37.63
3.14735	37.62
3.16402	37.62
3.18068	37.62
3.19735	37.62
3.21402	37.62
3.23068	37.62
3.24735	37.62
3.26402	37.62
3.28068	37.62
3.29735	37.62
3.31402	37.62
3.33068	37.62
3.34735	37.62
3.36402	37.62
3.38068	37.62
3.39735	37.62
3.41402	37.62
3.43068	37.62
3.44735	37.62
3.46402	37.62
3.48068	37.62
3.49735	37.62
3.51402	37.62
3.53068	37.62
3.54735	37.62
3.56402	37.62
3.58068	37.62
3.59735	37.62
3.61402	37.62
3.63068	37.62
3.64735	37.62
3.66402	37.62
3.68068	37.62
3.69735	37.62
3.71402	37.62
3.73068	37.62
3.74735	37.62
3.76402	37.62
3.78068	37.62
3.79735	37.62
3.81402	37.62
3.83068	37.62
3.84735	37.62
3.86402	37.62
3.88068	37.62
3.89735	37.62
3.91402	37.62
3.93068	37.62
3.94735	37.62
3.96402	37.62
3.98068	37.62

