[Header]
Application Name	LabSolutions
Version	5.110
Data File Name	C:\Users\User\Desktop\GC Analyses\Jack\UIC Prairie Sampling\9.16.22\220916_057.gcd
Output Date	11/29/2022
Output Time	11:10:19 AM

[File Information]
Type	Data File
Generated	11/15/2022 11:40:35 AM
Generated by	System Administrator
Modified	11/15/2022 11:46:01 AM
Modified by	System Administrator

[Sample Information]
Operator Name	System Administrator
Acquired	11/15/2022 11:42:00 AM
Sample Type	1:Standard
Level	1
Sample Name	220916_UICPrairie
Sample ID	220916_UICPrairie
ISTD Amount1	1
ISTD Amount2	1
ISTD Amount3	1
ISTD Amount4	1
ISTD Amount5	1
ISTD Amount6	1
ISTD Amount7	1
ISTD Amount8	1
ISTD Amount9	1
ISTD Amount10	1
ISTD Amount11	1
ISTD Amount12	1
ISTD Amount13	1
ISTD Amount14	1
ISTD Amount15	1
ISTD Amount16	1
ISTD Amount17	1
ISTD Amount18	1
ISTD Amount19	1
ISTD Amount20	1
ISTD Amount21	1
ISTD Amount22	1
ISTD Amount23	1
ISTD Amount24	1
ISTD Amount25	1
ISTD Amount26	1
ISTD Amount27	1
ISTD Amount28	1
ISTD Amount29	1
ISTD Amount30	1
ISTD Amount31	1
ISTD Amount32	1
Sample Amount	1
Dilution Factor	1
Vial#	1
Injection Volume	1
Injection Count	1
Bar Code	

[Original Files]
Data File	C:\Users\User\Desktop\GC Analyses\Jack\UIC Prairie Sampling\9.16.22\220916_057.gcd
Method File	C:\LabSolutions\Data\GHG_4min_2022\ghg3_togas_w_acet_4 min_new_int.gcm
Batch File	
Report Format File	c:\LabSolutions\System\DEFAULT.lsr

[File Description]


[Configuration]
Instrument Name	C0B7VH3-Instrument1
Instrument #	1
Line #	1
# of Detectors	3
Detector ID	DET#1	DET#2	DET#3
Detector Name	FID	PTCD	ECD
# of Channels	1	1	1

[Peak Table(Ch1)]
# of Peaks	3
Peak#	R.Time	I.Time	F.Time	Area	Height	A/H	Conc.	Mark	ID#	Name	k'	Plate #	Plate Ht.	Tailing	Resolution	Sep.Factor	Area Ratio	Height Ratio	Conc. %	Norm Conc.
1	1.479	1.439	1.538	13488	5989	2.252	100.000	   	1	CO	0.000	8283	18.109	1.204	0.000	0.000	0	0	16.667	16.667
2	1.571	1.538	1.644	5331	2610	2.042	100.000	 V 	2	CH4	0.062	10969	13.675	1.104	1.466	0.000	0	0	16.667	16.667
3	2.000	1.952	2.319	1121578	540859	2.074	400.000	   	3	CO2	0.352	17313	8.664	1.240	7.103	5.680	0	0	66.667	66.667

[Peak Table(Ch2)]
# of Peaks	0

[Peak Table(Ch3)]
# of Peaks	4
Peak#	R.Time	I.Time	F.Time	Area	Height	A/H	Conc.	Mark	ID#	Name	k'	Plate #	Plate Ht.	Tailing	Resolution	Sep.Factor	Area Ratio	Height Ratio	Conc. %	Norm Conc.
1	2.458	2.330	2.506	1216	241	5.051	0.000	   			0.000	3872	38.742	0.000	0.000	0.000	0	0	0.000	0.000
2	2.601	2.506	2.649	1254	193	6.489	0.000	 V 			0.058	2155	69.608	0.000	0.748	0.000	0	0	0.000	0.000
3	2.884	2.667	3.995	38450	5360	7.173	1.000	S  	1	N2O	0.173	12388	12.108	7.485	1.723	2.974	0	0	100.000	100.000
4	3.313	3.155	3.727	1241	81	15.250	0.000	T  			0.348	1568	95.675	1.837	1.958	2.009	0	0	0.000	0.000

[Compound Results(Ch1)]
# of IDs	6
ID#	Name	R.Time	Area	Height	Conc.	Curve	3rd	2nd	1st	Constant	Area Ratio	Height Ratio	Conc. %	Norm Conc.
1	CO	1.479	13488	5989	100.000	Linear	0.000000e+00	0.000000e+00	1.348764e+002	0.000000e+00	0	0	16.667	16.667
2	CH4	1.571	5331	2610	100.000	Linear	0.000000e+00	0.000000e+00	5.330973e+001	0.000000e+00	0	0	16.667	16.667
3	CO2	2.000	1121578	540859	400.000	Linear	0.000000e+00	0.000000e+00	2.803946e+003	0.000000e+00	0	0	66.667	66.667
4	Ethylene	0.000	0	0	0.000	Linear	0.000000e+00	0.000000e+00	0.000000e+00	0.000000e+00	0	0	0.000	0.000
5	Acetylene	0.000	0	0	0.000	Linear	0.000000e+00	0.000000e+00	0.000000e+00	0.000000e+00	0	0	0.000	0.000
6	Ethane	0.000	0	0	0.000	Linear	0.000000e+00	0.000000e+00	0.000000e+00	0.000000e+00	0	0	0.000	0.000

[Compound Results(Ch2)]
# of IDs	5
ID#	Name	R.Time	Area	Height	Conc.	Curve	3rd	2nd	1st	Constant	Area Ratio	Height Ratio	Conc. %	Norm Conc.
1	Hydrogen	0.000	0	0	0.000	Linear	0.000000e+00	0.000000e+00	0.000000e+00	0.000000e+00	0	0	0.000	0.000
2	Oxygen	0.000	0	0	0.000	Linear	0.000000e+00	0.000000e+00	0.000000e+00	0.000000e+00	0	0	0.000	0.000
3	Nitrogen	0.000	0	0	0.000	Linear	0.000000e+00	0.000000e+00	0.000000e+00	0.000000e+00	0	0	0.000	0.000
4	Methane	0.000	0	0	0.000	Linear	0.000000e+00	0.000000e+00	0.000000e+00	0.000000e+00	0	0	0.000	0.000
5	Carbon Monoxide	0.000	0	0	0.000	Linear	0.000000e+00	0.000000e+00	0.000000e+00	0.000000e+00	0	0	0.000	0.000

[Compound Results(Ch3)]
# of IDs	2
ID#	Name	R.Time	Area	Height	Conc.	Curve	3rd	2nd	1st	Constant	Area Ratio	Height Ratio	Conc. %	Norm Conc.
1	N2O	2.884	38450	5360	1.000	Linear	0.000000e+00	0.000000e+00	3.845044e+004	0.000000e+00	0	0	100.000	100.000
2	SF6	0.000	0	0	0.000	Linear	0.000000e+00	0.000000e+00	0.000000e+00	0.000000e+00	0	0	0.000	0.000

[Group Results(Ch1)]
# of Groups	0

[Group Results(Ch2)]
# of Groups	0

[Group Results(Ch3)]
# of Groups	0

[Chromatogram (Ch1)]
Interval(msec)	220
# of Points	1091
Start Time(min)	0.002
End Time(min)	3.998
R.Time (min)	Intensity
0.00167	-8
0.00533	-8
0.00900	-8
0.01267	-4
0.01633	2
0.02000	7
0.02367	8
0.02733	5
0.03100	1
0.03467	-0
0.03833	-0
0.04200	-2
0.04567	-8
0.04933	-13
0.05300	-16
0.05667	-19
0.06033	-21
0.06400	-22
0.06767	-26
0.07133	-31
0.07500	-34
0.07867	-32
0.08233	-26
0.08600	-17
0.08967	-6
0.09333	3
0.09700	7
0.10067	6
0.10433	6
0.10800	7
0.11167	5
0.11533	-1
0.11900	-12
0.12267	-22
0.12633	-26
0.13000	-24
0.13367	-22
0.13733	-22
0.14100	-22
0.14467	-20
0.14833	-20
0.15200	-21
0.15567	-25
0.15933	-28
0.16300	-28
0.16667	-28
0.17033	-26
0.17400	-26
0.17767	-27
0.18133	-29
0.18500	-28
0.18867	-24
0.19233	-19
0.19600	-15
0.19967	-14
0.20333	-12
0.20700	-13
0.21067	-15
0.21433	-15
0.21800	-14
0.22167	-15
0.22533	-16
0.22900	-13
0.23267	-8
0.23633	-4
0.24000	-8
0.24367	-19
0.24733	-27
0.25100	-30
0.25467	-28
0.25833	-27
0.26200	-26
0.26567	-27
0.26933	-26
0.27300	-22
0.27667	-17
0.28033	-15
0.28400	-21
0.28767	-28
0.29133	-33
0.29500	-34
0.29867	-33
0.30233	-32
0.30600	-30
0.30967	-26
0.31333	-23
0.31700	-20
0.32067	-17
0.32433	-18
0.32800	-22
0.33167	-27
0.33533	-29
0.33900	-29
0.34267	-33
0.34633	-37
0.35000	-44
0.35367	-53
0.35733	-59
0.36100	-60
0.36467	-55
0.36833	-49
0.37200	-39
0.37567	-32
0.37933	-27
0.38300	-25
0.38667	-27
0.39033	-31
0.39400	-36
0.39767	-37
0.40133	-37
0.40500	-31
0.40867	-25
0.41233	-24
0.41600	-28
0.41967	-36
0.42333	-43
0.42700	-47
0.43067	-45
0.43433	-43
0.43800	-40
0.44167	-37
0.44533	-32
0.44900	-32
0.45267	-33
0.45633	-36
0.46000	-41
0.46367	-48
0.46733	-52
0.47100	-54
0.47467	-54
0.47833	-52
0.48200	-47
0.48567	-42
0.48933	-42
0.49300	-46
0.49667	-52
0.50033	-53
0.50400	-52
0.50767	-52
0.51133	-54
0.51500	-56
0.51867	-55
0.52233	-52
0.52600	-45
0.52967	-40
0.53333	-37
0.53700	-36
0.54067	-38
0.54433	-37
0.54800	-36
0.55167	-37
0.55533	-37
0.55900	-38
0.56267	-44
0.56633	-50
0.57000	-55
0.57367	-57
0.57733	-57
0.58100	-58
0.58467	-56
0.58833	-52
0.59200	-51
0.59567	-50
0.59933	-49
0.60300	-45
0.60667	-39
0.61033	-34
0.61400	-33
0.61767	-38
0.62133	-48
0.62500	-58
0.62867	-65
0.63233	-68
0.63600	-71
0.63967	-73
0.64333	-70
0.64700	-66
0.65067	-63
0.65433	-57
0.65800	-52
0.66167	-51
0.66533	-52
0.66900	-49
0.67267	-45
0.67633	-40
0.68000	-35
0.68367	-33
0.68733	-35
0.69100	-41
0.69467	-49
0.69833	-58
0.70200	-66
0.70567	-73
0.70933	-77
0.71300	-80
0.71667	-81
0.72033	-79
0.72400	-73
0.72767	-63
0.73133	-55
0.73500	-51
0.73867	-50
0.74233	-50
0.74600	-54
0.74967	-57
0.75333	-59
0.75700	-60
0.76067	-60
0.76433	-56
0.76800	-54
0.77167	-55
0.77533	-55
0.77900	-51
0.78267	-46
0.78633	-44
0.79000	-46
0.79367	-47
0.79733	-49
0.80100	-54
0.80467	-58
0.80833	-62
0.81200	-65
0.81567	-68
0.81933	-73
0.82300	-78
0.82667	-81
0.83033	-84
0.83400	-83
0.83767	-83
0.84133	-83
0.84500	-80
0.84867	-77
0.85233	-73
0.85600	-69
0.85967	-64
0.86333	-62
0.86700	-63
0.87067	-68
0.87433	-74
0.87800	-78
0.88167	-81
0.88533	-86
0.88900	-91
0.89267	-91
0.89633	-86
0.90000	-79
0.90367	-69
0.90733	-63
0.91100	-64
0.91467	-70
0.91833	-75
0.92200	-80
0.92567	-82
0.92933	-82
0.93300	-81
0.93667	-81
0.94033	-80
0.94400	-81
0.94767	-84
0.95133	-89
0.95500	-92
0.95867	-95
0.96233	-96
0.96600	-95
0.96967	-92
0.97333	-87
0.97700	-85
0.98067	-86
0.98433	-91
0.98800	-94
0.99167	-96
0.99533	-92
0.99900	-90
1.00267	-87
1.00633	-84
1.01000	-83
1.01367	-84
1.01733	-85
1.02100	-84
1.02467	-82
1.02833	-79
1.03200	-75
1.03567	-71
1.03933	-68
1.04300	-69
1.04667	-74
1.05033	-79
1.05400	-82
1.05767	-83
1.06133	-80
1.06500	-73
1.06867	-68
1.07233	-69
1.07600	-75
1.07967	-82
1.08333	-86
1.08700	-89
1.09067	-93
1.09433	-96
1.09800	-100
1.10167	-105
1.10533	-108
1.10900	-108
1.11267	-107
1.11633	-104
1.12000	-99
1.12367	-93
1.12733	-89
1.13100	-88
1.13467	-87
1.13833	-86
1.14200	-83
1.14567	-81
1.14933	-83
1.15300	-90
1.15667	-98
1.16033	-106
1.16400	-108
1.16767	-105
1.17133	-98
1.17500	-88
1.17867	-77
1.18233	-70
1.18600	-66
1.18967	-67
1.19333	-76
1.19700	-89
1.20067	-101
1.20433	-111
1.20800	-115
1.21167	-115
1.21533	-111
1.21900	-105
1.22267	-98
1.22633	-91
1.23000	-84
1.23367	-81
1.23733	-82
1.24100	-83
1.24467	-84
1.24833	-87
1.25200	-92
1.25567	-97
1.25933	-101
1.26300	-103
1.26667	-101
1.27033	-102
1.27400	-107
1.27767	-108
1.28133	-105
1.28500	-101
1.28867	-97
1.29233	-95
1.29600	-91
1.29967	-88
1.30333	-87
1.30700	-89
1.31067	-92
1.31433	-96
1.31800	-97
1.32167	-96
1.32533	-95
1.32900	-97
1.33267	-99
1.33633	-96
1.34000	-92
1.34367	-90
1.34733	-90
1.35100	-94
1.35467	-97
1.35833	-100
1.36200	-104
1.36567	-108
1.36933	-111
1.37300	-111
1.37667	-109
1.38033	-109
1.38400	-108
1.38767	-106
1.39133	-100
1.39500	-92
1.39867	-87
1.40233	-83
1.40600	-81
1.40967	-84
1.41333	-89
1.41700	-93
1.42067	-99
1.42433	-109
1.42800	-118
1.43167	-126
1.43533	-131
1.43900	-127
1.44267	-74
1.44633	98
1.45000	421
1.45367	960
1.45733	1788
1.46100	2826
1.46467	3875
1.46833	4769
1.47200	5425
1.47567	5804
1.47933	5864
1.48300	5576
1.48667	4963
1.49033	4141
1.49400	3267
1.49767	2466
1.50133	1804
1.50500	1292
1.50867	912
1.51233	638
1.51600	442
1.51967	302
1.52333	201
1.52700	127
1.53067	71
1.53433	31
1.53800	6
1.54167	20
1.54533	128
1.54900	394
1.55267	817
1.55633	1314
1.56000	1778
1.56367	2145
1.56733	2390
1.57100	2488
1.57467	2401
1.57833	2134
1.58200	1742
1.58567	1316
1.58933	930
1.59300	618
1.59667	387
1.60033	226
1.60400	117
1.60767	45
1.61133	-1
1.61500	-31
1.61867	-53
1.62233	-66
1.62600	-77
1.62967	-89
1.63333	-101
1.63700	-109
1.64067	-115
1.64433	-121
1.64800	-125
1.65167	-124
1.65533	-120
1.65900	-116
1.66267	-114
1.66633	-115
1.67000	-120
1.67367	-128
1.67733	-136
1.68100	-140
1.68467	-141
1.68833	-143
1.69200	-148
1.69567	-152
1.69933	-152
1.70300	-149
1.70667	-145
1.71033	-140
1.71400	-135
1.71767	-132
1.72133	-133
1.72500	-136
1.72867	-138
1.73233	-137
1.73600	-136
1.73967	-134
1.74333	-129
1.74700	-124
1.75067	-121
1.75433	-122
1.75800	-125
1.76167	-131
1.76533	-140
1.76900	-148
1.77267	-154
1.77633	-157
1.78000	-154
1.78367	-150
1.78733	-144
1.79100	-137
1.79467	-128
1.79833	-121
1.80200	-117
1.80567	-120
1.80933	-125
1.81300	-130
1.81667	-133
1.82033	-134
1.82400	-133
1.82767	-130
1.83133	-130
1.83500	-132
1.83867	-135
1.84233	-137
1.84600	-138
1.84967	-139
1.85333	-140
1.85700	-141
1.86067	-138
1.86433	-134
1.86800	-129
1.87167	-123
1.87533	-115
1.87900	-111
1.88267	-113
1.88633	-121
1.89000	-131
1.89367	-141
1.89733	-149
1.90100	-154
1.90467	-156
1.90833	-154
1.91200	-152
1.91567	-150
1.91933	-148
1.92300	-143
1.92667	-137
1.93033	-128
1.93400	-120
1.93767	-113
1.94133	-112
1.94500	-118
1.94867	-122
1.95233	-121
1.95600	-97
1.95967	59
1.96333	894
1.96700	4384
1.97067	15517
1.97433	42831
1.97800	95134
1.98167	174690
1.98533	273079
1.98900	373890
1.99267	460047
1.99633	518406
2.00000	540771
2.00367	524627
2.00733	474424
2.01100	401329
2.01467	319640
2.01833	241970
2.02200	176079
2.02567	124596
2.02933	86672
2.03300	59854
2.03667	41394
2.04033	28893
2.04400	20491
2.04767	14851
2.05133	11043
2.05500	8444
2.05867	6639
2.06233	5360
2.06600	4433
2.06967	3743
2.07333	3210
2.07700	2786
2.08067	2450
2.08433	2182
2.08800	1964
2.09167	1781
2.09533	1627
2.09900	1493
2.10267	1379
2.10633	1283
2.11000	1197
2.11367	1117
2.11733	1042
2.12100	974
2.12467	917
2.12833	870
2.13200	827
2.13567	785
2.13933	744
2.14300	707
2.14667	671
2.15033	637
2.15400	603
2.15767	574
2.16133	551
2.16500	531
2.16867	514
2.17233	496
2.17600	476
2.17967	454
2.18333	435
2.18700	422
2.19067	412
2.19433	400
2.19800	382
2.20167	364
2.20533	348
2.20900	334
2.21267	324
2.21633	320
2.22000	316
2.22367	310
2.22733	302
2.23100	292
2.23467	282
2.23833	274
2.24200	264
2.24567	253
2.24933	241
2.25300	229
2.25667	220
2.26033	215
2.26400	213
2.26767	210
2.27133	209
2.27500	208
2.27867	205
2.28233	200
2.28600	194
2.28967	188
2.29333	179
2.29700	165
2.30067	148
2.30433	137
2.30800	133
2.31167	133
2.31533	133
2.31900	130
2.32267	126
2.32633	125
2.33000	127
2.33367	130
2.33733	131
2.34100	133
2.34467	134
2.34833	132
2.35200	130
2.35567	128
2.35933	124
2.36300	121
2.36667	121
2.37033	125
2.37400	130
2.37767	131
2.38133	126
2.38500	119
2.38867	113
2.39233	109
2.39600	105
2.39967	101
2.40333	100
2.40700	102
2.41067	107
2.41433	110
2.41800	110
2.42167	108
2.42533	107
2.42900	105
2.43267	106
2.43633	106
2.44000	105
2.44367	103
2.44733	99
2.45100	97
2.45467	96
2.45833	94
2.46200	94
2.46567	92
2.46933	88
2.47300	84
2.47667	79
2.48033	73
2.48400	67
2.48767	66
2.49133	66
2.49500	69
2.49867	71
2.50233	71
2.50600	70
2.50967	72
2.51333	73
2.51700	74
2.52067	75
2.52433	72
2.52800	64
2.53167	64
2.53533	64
2.53900	65
2.54267	64
2.54633	60
2.55000	56
2.55367	50
2.55733	44
2.56100	43
2.56467	46
2.56833	49
2.57200	50
2.57567	49
2.57933	49
2.58300	49
2.58667	46
2.59033	44
2.59400	47
2.59767	50
2.60133	52
2.60500	53
2.60867	50
2.61233	48
2.61600	50
2.61967	53
2.62333	55
2.62700	57
2.63067	59
2.63433	62
2.63800	61
2.64167	57
2.64533	55
2.64900	55
2.65267	55
2.65633	56
2.66000	57
2.66367	57
2.66733	55
2.67100	53
2.67467	50
2.67833	48
2.68200	46
2.68567	47
2.68933	51
2.69300	57
2.69667	61
2.70033	57
2.70400	48
2.70767	39
2.71133	32
2.71500	31
2.71867	32
2.72233	34
2.72600	34
2.72967	33
2.73333	34
2.73700	35
2.74067	39
2.74433	43
2.74800	41
2.75167	37
2.75533	35
2.75900	33
2.76267	33
2.76633	33
2.77000	38
2.77367	44
2.77733	51
2.78100	57
2.78467	57
2.78833	54
2.79200	49
2.79567	43
2.79933	40
2.80300	43
2.80667	44
2.81033	42
2.81400	41
2.81767	47
2.82133	51
2.82500	49
2.82867	41
2.83233	33
2.83600	29
2.83967	27
2.84333	29
2.84700	35
2.85067	40
2.85433	44
2.85800	48
2.86167	51
2.86533	51
2.86900	49
2.87267	42
2.87633	36
2.88000	31
2.88367	29
2.88733	30
2.89100	32
2.89467	32
2.89833	30
2.90200	30
2.90567	35
2.90933	45
2.91300	55
2.91667	58
2.92033	54
2.92400	50
2.92767	48
2.93133	49
2.93500	52
2.93867	53
2.94233	54
2.94600	53
2.94967	50
2.95333	48
2.95700	44
2.96067	39
2.96433	36
2.96800	37
2.97167	41
2.97533	48
2.97900	53
2.98267	55
2.98633	56
2.99000	55
2.99367	55
2.99733	56
3.00100	62
3.00467	70
3.00833	76
3.01200	76
3.01567	73
3.01933	68
3.02300	63
3.02667	59
3.03033	55
3.03400	51
3.03767	48
3.04133	46
3.04500	46
3.04867	49
3.05233	51
3.05600	53
3.05967	56
3.06333	63
3.06700	67
3.07067	66
3.07433	62
3.07800	56
3.08167	51
3.08533	47
3.08900	47
3.09267	52
3.09633	58
3.10000	63
3.10367	65
3.10733	56
3.11100	45
3.11467	37
3.11833	32
3.12200	30
3.12567	33
3.12933	39
3.13300	44
3.13667	48
3.14033	56
3.14400	61
3.14767	63
3.15133	61
3.15500	58
3.15867	56
3.16233	56
3.16600	56
3.16967	55
3.17333	56
3.17700	55
3.18067	54
3.18433	56
3.18800	57
3.19167	54
3.19533	49
3.19900	45
3.20267	42
3.20633	41
3.21000	40
3.21367	38
3.21733	38
3.22100	41
3.22467	46
3.22833	50
3.23200	53
3.23567	55
3.23933	53
3.24300	46
3.24667	39
3.25033	35
3.25400	35
3.25767	38
3.26133	37
3.26500	32
3.26867	27
3.27233	26
3.27600	25
3.27967	25
3.28333	30
3.28700	34
3.29067	35
3.29433	35
3.29800	35
3.30167	38
3.30533	43
3.30900	43
3.31267	39
3.31633	38
3.32000	39
3.32367	38
3.32733	37
3.33100	37
3.33467	39
3.33833	42
3.34200	42
3.34567	41
3.34933	39
3.35300	38
3.35667	38
3.36033	40
3.36400	39
3.36767	37
3.37133	35
3.37500	34
3.37867	34
3.38233	36
3.38600	39
3.38967	43
3.39333	44
3.39700	46
3.40067	45
3.40433	43
3.40800	38
3.41167	34
3.41533	32
3.41900	31
3.42267	30
3.42633	30
3.43000	30
3.43367	31
3.43733	34
3.44100	37
3.44467	40
3.44833	43
3.45200	48
3.45567	51
3.45933	51
3.46300	49
3.46667	43
3.47033	38
3.47400	38
3.47767	42
3.48133	44
3.48500	43
3.48867	35
3.49233	27
3.49600	22
3.49967	23
3.50333	26
3.50700	32
3.51067	37
3.51433	42
3.51800	43
3.52167	40
3.52533	35
3.52900	29
3.53267	24
3.53633	20
3.54000	23
3.54367	28
3.54733	34
3.55100	40
3.55467	47
3.55833	51
3.56200	47
3.56567	40
3.56933	33
3.57300	26
3.57667	20
3.58033	16
3.58400	11
3.58767	9
3.59133	11
3.59500	14
3.59867	18
3.60233	24
3.60600	30
3.60967	32
3.61333	34
3.61700	36
3.62067	38
3.62433	44
3.62800	49
3.63167	50
3.63533	47
3.63900	41
3.64267	35
3.64633	32
3.65000	32
3.65367	34
3.65733	34
3.66100	35
3.66467	34
3.66833	33
3.67200	31
3.67567	29
3.67933	27
3.68300	24
3.68667	24
3.69033	26
3.69400	29
3.69767	34
3.70133	39
3.70500	43
3.70867	43
3.71233	42
3.71600	39
3.71967	35
3.72333	32
3.72700	32
3.73067	33
3.73433	35
3.73800	37
3.74167	37
3.74533	36
3.74900	37
3.75267	41
3.75633	43
3.76000	43
3.76367	43
3.76733	43
3.77100	40
3.77467	35
3.77833	31
3.78200	26
3.78567	19
3.78933	12
3.79300	10
3.79667	14
3.80033	18
3.80400	19
3.80767	17
3.81133	14
3.81500	14
3.81867	18
3.82233	24
3.82600	29
3.82967	30
3.83333	27
3.83700	25
3.84067	26
3.84433	30
3.84800	35
3.85167	37
3.85533	35
3.85900	31
3.86267	27
3.86633	25
3.87000	25
3.87367	25
3.87733	28
3.88100	35
3.88467	41
3.88833	46
3.89200	48
3.89567	46
3.89933	39
3.90300	32
3.90667	29
3.91033	27
3.91400	25
3.91767	25
3.92133	27
3.92500	30
3.92867	34
3.93233	38
3.93600	37
3.93967	32
3.94333	27
3.94700	24
3.95067	24
3.95433	25
3.95800	31
3.96167	39
3.96533	46
3.96900	47
3.97267	39
3.97633	27
3.98000	18
3.98367	14
3.98733	10
3.99100	9
3.99467	10
3.99833	15

[Chromatogram (Ch2)]
Interval(msec)	220
# of Points	1091
Start Time(min)	0.002
End Time(min)	3.998
R.Time (min)	Intensity
0.00167	-1
0.00533	-1
0.00900	-1
0.01267	-1
0.01633	-1
0.02000	-1
0.02367	-0
0.02733	-0
0.03100	0
0.03467	1
0.03833	1
0.04200	1
0.04567	1
0.04933	1
0.05300	1
0.05667	1
0.06033	1
0.06400	1
0.06767	1
0.07133	1
0.07500	1
0.07867	1
0.08233	1
0.08600	1
0.08967	1
0.09333	2
0.09700	2
0.10067	2
0.10433	2
0.10800	2
0.11167	3
0.11533	3
0.11900	3
0.12267	3
0.12633	4
0.13000	4
0.13367	4
0.13733	4
0.14100	5
0.14467	5
0.14833	5
0.15200	5
0.15567	5
0.15933	6
0.16300	6
0.16667	6
0.17033	6
0.17400	6
0.17767	6
0.18133	6
0.18500	6
0.18867	6
0.19233	6
0.19600	6
0.19967	6
0.20333	6
0.20700	6
0.21067	6
0.21433	6
0.21800	6
0.22167	6
0.22533	5
0.22900	5
0.23267	4
0.23633	4
0.24000	3
0.24367	3
0.24733	3
0.25100	3
0.25467	3
0.25833	3
0.26200	3
0.26567	3
0.26933	3
0.27300	3
0.27667	3
0.28033	3
0.28400	3
0.28767	3
0.29133	3
0.29500	3
0.29867	3
0.30233	3
0.30600	3
0.30967	3
0.31333	3
0.31700	4
0.32067	4
0.32433	4
0.32800	4
0.33167	4
0.33533	4
0.33900	4
0.34267	4
0.34633	4
0.35000	3
0.35367	3
0.35733	3
0.36100	3
0.36467	3
0.36833	3
0.37200	3
0.37567	3
0.37933	3
0.38300	3
0.38667	3
0.39033	3
0.39400	3
0.39767	2
0.40133	2
0.40500	3
0.40867	3
0.41233	3
0.41600	3
0.41967	3
0.42333	2
0.42700	2
0.43067	2
0.43433	2
0.43800	1
0.44167	1
0.44533	2
0.44900	2
0.45267	2
0.45633	2
0.46000	3
0.46367	3
0.46733	3
0.47100	3
0.47467	3
0.47833	3
0.48200	3
0.48567	2
0.48933	2
0.49300	2
0.49667	2
0.50033	2
0.50400	2
0.50767	2
0.51133	2
0.51500	3
0.51867	3
0.52233	3
0.52600	3
0.52967	2
0.53333	2
0.53700	2
0.54067	1
0.54433	1
0.54800	1
0.55167	1
0.55533	1
0.55900	1
0.56267	1
0.56633	1
0.57000	1
0.57367	1
0.57733	1
0.58100	1
0.58467	1
0.58833	1
0.59200	1
0.59567	2
0.59933	2
0.60300	2
0.60667	2
0.61033	2
0.61400	2
0.61767	2
0.62133	2
0.62500	3
0.62867	3
0.63233	3
0.63600	3
0.63967	3
0.64333	3
0.64700	3
0.65067	3
0.65433	3
0.65800	3
0.66167	3
0.66533	3
0.66900	3
0.67267	3
0.67633	3
0.68000	3
0.68367	3
0.68733	3
0.69100	3
0.69467	3
0.69833	3
0.70200	3
0.70567	3
0.70933	3
0.71300	3
0.71667	3
0.72033	3
0.72400	2
0.72767	2
0.73133	2
0.73500	2
0.73867	2
0.74233	2
0.74600	2
0.74967	2
0.75333	2
0.75700	2
0.76067	1
0.76433	1
0.76800	1
0.77167	1
0.77533	1
0.77900	1
0.78267	1
0.78633	1
0.79000	0
0.79367	0
0.79733	1
0.80100	1
0.80467	1
0.80833	1
0.81200	1
0.81567	1
0.81933	1
0.82300	1
0.82667	1
0.83033	1
0.83400	2
0.83767	2
0.84133	2
0.84500	2
0.84867	2
0.85233	1
0.85600	1
0.85967	1
0.86333	1
0.86700	1
0.87067	1
0.87433	1
0.87800	0
0.88167	0
0.88533	-0
0.88900	-0
0.89267	-1
0.89633	-1
0.90000	-1
0.90367	-1
0.90733	-1
0.91100	-1
0.91467	-1
0.91833	-2
0.92200	-2
0.92567	-2
0.92933	-2
0.93300	-2
0.93667	-2
0.94033	-2
0.94400	-2
0.94767	-2
0.95133	-2
0.95500	-2
0.95867	-3
0.96233	-3
0.96600	-3
0.96967	-3
0.97333	-3
0.97700	-3
0.98067	-3
0.98433	-3
0.98800	-2
0.99167	-2
0.99533	-1
0.99900	-1
1.00267	-0
1.00633	0
1.01000	1
1.01367	1
1.01733	1
1.02100	1
1.02467	2
1.02833	2
1.03200	2
1.03567	2
1.03933	2
1.04300	2
1.04667	2
1.05033	2
1.05400	3
1.05767	3
1.06133	3
1.06500	3
1.06867	3
1.07233	3
1.07600	3
1.07967	3
1.08333	3
1.08700	3
1.09067	3
1.09433	3
1.09800	3
1.10167	3
1.10533	3
1.10900	3
1.11267	3
1.11633	3
1.12000	3
1.12367	2
1.12733	2
1.13100	2
1.13467	2
1.13833	1
1.14200	1
1.14567	2
1.14933	2
1.15300	2
1.15667	2
1.16033	2
1.16400	2
1.16767	2
1.17133	2
1.17500	2
1.17867	2
1.18233	2
1.18600	1
1.18967	1
1.19333	1
1.19700	1
1.20067	1
1.20433	1
1.20800	1
1.21167	1
1.21533	1
1.21900	2
1.22267	2
1.22633	2
1.23000	1
1.23367	1
1.23733	1
1.24100	1
1.24467	1
1.24833	1
1.25200	1
1.25567	1
1.25933	1
1.26300	1
1.26667	1
1.27033	1
1.27400	1
1.27767	1
1.28133	2
1.28500	1
1.28867	1
1.29233	1
1.29600	0
1.29967	0
1.30333	0
1.30700	0
1.31067	0
1.31433	0
1.31800	0
1.32167	0
1.32533	0
1.32900	0
1.33267	1
1.33633	1
1.34000	1
1.34367	1
1.34733	1
1.35100	1
1.35467	1
1.35833	1
1.36200	1
1.36567	1
1.36933	0
1.37300	0
1.37667	-0
1.38033	-0
1.38400	-0
1.38767	0
1.39133	0
1.39500	0
1.39867	0
1.40233	-0
1.40600	-0
1.40967	-0
1.41333	-0
1.41700	0
1.42067	0
1.42433	1
1.42800	1
1.43167	1
1.43533	2
1.43900	2
1.44267	2
1.44633	2
1.45000	3
1.45367	3
1.45733	3
1.46100	3
1.46467	3
1.46833	3
1.47200	2
1.47567	2
1.47933	2
1.48300	2
1.48667	2
1.49033	2
1.49400	2
1.49767	2
1.50133	2
1.50500	2
1.50867	1
1.51233	1
1.51600	1
1.51967	1
1.52333	1
1.52700	0
1.53067	-0
1.53433	-0
1.53800	-0
1.54167	-1
1.54533	-1
1.54900	-1
1.55267	-1
1.55633	-1
1.56000	-1
1.56367	-1
1.56733	-1
1.57100	-1
1.57467	-1
1.57833	-0
1.58200	-0
1.58567	-0
1.58933	-1
1.59300	-1
1.59667	-2
1.60033	-3
1.60400	-4
1.60767	-5
1.61133	-7
1.61500	-9
1.61867	-11
1.62233	-13
1.62600	-16
1.62967	-19
1.63333	-22
1.63700	-25
1.64067	-29
1.64433	-32
1.64800	-35
1.65167	-39
1.65533	-43
1.65900	-46
1.66267	-51
1.66633	-55
1.67000	-60
1.67367	-65
1.67733	-70
1.68100	-76
1.68467	-81
1.68833	-86
1.69200	-91
1.69567	-95
1.69933	-99
1.70300	-102
1.70667	-104
1.71033	-106
1.71400	-107
1.71767	-108
1.72133	-109
1.72500	-109
1.72867	-110
1.73233	-110
1.73600	-110
1.73967	-110
1.74333	-110
1.74700	-111
1.75067	-111
1.75433	-112
1.75800	-113
1.76167	-114
1.76533	-114
1.76900	-114
1.77267	-115
1.77633	-115
1.78000	-115
1.78367	-115
1.78733	-116
1.79100	-117
1.79467	-118
1.79833	-119
1.80200	-119
1.80567	-119
1.80933	-119
1.81300	-119
1.81667	-119
1.82033	-120
1.82400	-120
1.82767	-120
1.83133	-120
1.83500	-120
1.83867	-120
1.84233	-121
1.84600	-121
1.84967	-121
1.85333	-121
1.85700	-121
1.86067	-121
1.86433	-121
1.86800	-120
1.87167	-120
1.87533	-120
1.87900	-120
1.88267	-119
1.88633	-119
1.89000	-119
1.89367	-119
1.89733	-120
1.90100	-120
1.90467	-120
1.90833	-119
1.91200	-119
1.91567	-119
1.91933	-119
1.92300	-118
1.92667	-118
1.93033	-118
1.93400	-119
1.93767	-119
1.94133	-118
1.94500	-118
1.94867	-117
1.95233	-117
1.95600	-116
1.95967	-116
1.96333	-115
1.96700	-114
1.97067	-114
1.97433	-113
1.97800	-113
1.98167	-113
1.98533	-113
1.98900	-113
1.99267	-113
1.99633	-113
2.00000	-113
2.00367	-113
2.00733	-112
2.01100	-112
2.01467	-112
2.01833	-112
2.02200	-112
2.02567	-112
2.02933	-111
2.03300	-111
2.03667	-111
2.04033	-111
2.04400	-111
2.04767	-111
2.05133	-111
2.05500	-111
2.05867	-110
2.06233	-109
2.06600	-109
2.06967	-108
2.07333	-107
2.07700	-106
2.08067	-106
2.08433	-105
2.08800	-104
2.09167	-104
2.09533	-104
2.09900	-103
2.10267	-103
2.10633	-103
2.11000	-104
2.11367	-103
2.11733	-103
2.12100	-103
2.12467	-103
2.12833	-103
2.13200	-102
2.13567	-102
2.13933	-102
2.14300	-101
2.14667	-101
2.15033	-101
2.15400	-100
2.15767	-99
2.16133	-98
2.16500	-98
2.16867	-97
2.17233	-97
2.17600	-97
2.17967	-97
2.18333	-98
2.18700	-97
2.19067	-97
2.19433	-96
2.19800	-95
2.20167	-95
2.20533	-95
2.20900	-94
2.21267	-94
2.21633	-94
2.22000	-94
2.22367	-93
2.22733	-93
2.23100	-92
2.23467	-91
2.23833	-91
2.24200	-90
2.24567	-90
2.24933	-89
2.25300	-89
2.25667	-89
2.26033	-89
2.26400	-89
2.26767	-88
2.27133	-88
2.27500	-88
2.27867	-88
2.28233	-88
2.28600	-88
2.28967	-87
2.29333	-87
2.29700	-86
2.30067	-86
2.30433	-86
2.30800	-86
2.31167	-86
2.31533	-86
2.31900	-86
2.32267	-86
2.32633	-85
2.33000	-84
2.33367	-84
2.33733	-83
2.34100	-83
2.34467	-82
2.34833	-82
2.35200	-82
2.35567	-83
2.35933	-83
2.36300	-83
2.36667	-82
2.37033	-82
2.37400	-80
2.37767	-78
2.38133	-75
2.38500	-72
2.38867	-68
2.39233	-64
2.39600	-59
2.39967	-55
2.40333	-50
2.40700	-45
2.41067	-40
2.41433	-36
2.41800	-31
2.42167	-28
2.42533	-24
2.42900	-20
2.43267	-17
2.43633	-14
2.44000	-12
2.44367	-9
2.44733	-7
2.45100	-5
2.45467	-4
2.45833	-2
2.46200	-1
2.46567	-0
2.46933	1
2.47300	2
2.47667	3
2.48033	4
2.48400	5
2.48767	6
2.49133	7
2.49500	8
2.49867	9
2.50233	10
2.50600	10
2.50967	11
2.51333	11
2.51700	12
2.52067	12
2.52433	13
2.52800	13
2.53167	13
2.53533	13
2.53900	14
2.54267	14
2.54633	14
2.55000	15
2.55367	15
2.55733	15
2.56100	16
2.56467	16
2.56833	17
2.57200	17
2.57567	18
2.57933	18
2.58300	18
2.58667	17
2.59033	17
2.59400	17
2.59767	17
2.60133	18
2.60500	18
2.60867	18
2.61233	18
2.61600	19
2.61967	19
2.62333	19
2.62700	20
2.63067	20
2.63433	20
2.63800	20
2.64167	21
2.64533	21
2.64900	21
2.65267	21
2.65633	22
2.66000	22
2.66367	22
2.66733	23
2.67100	23
2.67467	24
2.67833	24
2.68200	24
2.68567	25
2.68933	25
2.69300	25
2.69667	25
2.70033	25
2.70400	25
2.70767	25
2.71133	25
2.71500	25
2.71867	26
2.72233	26
2.72600	26
2.72967	26
2.73333	26
2.73700	26
2.74067	26
2.74433	26
2.74800	27
2.75167	27
2.75533	27
2.75900	27
2.76267	27
2.76633	27
2.77000	27
2.77367	27
2.77733	28
2.78100	28
2.78467	28
2.78833	28
2.79200	28
2.79567	28
2.79933	28
2.80300	27
2.80667	27
2.81033	27
2.81400	27
2.81767	26
2.82133	26
2.82500	26
2.82867	26
2.83233	26
2.83600	26
2.83967	26
2.84333	26
2.84700	26
2.85067	24
2.85433	22
2.85800	18
2.86167	11
2.86533	2
2.86900	-11
2.87267	-27
2.87633	-47
2.88000	-71
2.88367	-99
2.88733	-131
2.89100	-167
2.89467	-206
2.89833	-248
2.90200	-292
2.90567	-339
2.90933	-387
2.91300	-437
2.91667	-488
2.92033	-538
2.92400	-589
2.92767	-640
2.93133	-690
2.93500	-740
2.93867	-789
2.94233	-840
2.94600	-894
2.94967	-953
2.95333	-1015
2.95700	-1067
2.96067	-1100
2.96433	-1107
2.96800	-1088
2.97167	-1045
2.97533	-985
2.97900	-913
2.98267	-834
2.98633	-752
2.99000	-672
2.99367	-595
2.99733	-522
3.00100	-456
3.00467	-395
3.00833	-341
3.01200	-293
3.01567	-251
3.01933	-214
3.02300	-182
3.02667	-154
3.03033	-129
3.03400	-108
3.03767	-91
3.04133	-76
3.04500	-63
3.04867	-51
3.05233	-42
3.05600	-33
3.05967	-26
3.06333	-20
3.06700	-15
3.07067	-10
3.07433	-7
3.07800	-4
3.08167	-1
3.08533	2
3.08900	4
3.09267	6
3.09633	7
3.10000	8
3.10367	9
3.10733	10
3.11100	12
3.11467	13
3.11833	14
3.12200	15
3.12567	16
3.12933	17
3.13300	18
3.13667	19
3.14033	20
3.14400	21
3.14767	21
3.15133	21
3.15500	22
3.15867	22
3.16233	22
3.16600	22
3.16967	23
3.17333	23
3.17700	23
3.18067	24
3.18433	24
3.18800	24
3.19167	24
3.19533	25
3.19900	25
3.20267	25
3.20633	25
3.21000	26
3.21367	26
3.21733	26
3.22100	26
3.22467	26
3.22833	27
3.23200	27
3.23567	27
3.23933	27
3.24300	27
3.24667	27
3.25033	27
3.25400	27
3.25767	27
3.26133	27
3.26500	27
3.26867	27
3.27233	27
3.27600	27
3.27967	27
3.28333	28
3.28700	28
3.29067	28
3.29433	28
3.29800	28
3.30167	28
3.30533	28
3.30900	28
3.31267	28
3.31633	28
3.32000	28
3.32367	28
3.32733	28
3.33100	28
3.33467	28
3.33833	28
3.34200	28
3.34567	28
3.34933	28
3.35300	27
3.35667	27
3.36033	27
3.36400	27
3.36767	27
3.37133	27
3.37500	27
3.37867	27
3.38233	27
3.38600	27
3.38967	27
3.39333	27
3.39700	28
3.40067	28
3.40433	28
3.40800	28
3.41167	28
3.41533	27
3.41900	27
3.42267	27
3.42633	27
3.43000	27
3.43367	27
3.43733	27
3.44100	27
3.44467	27
3.44833	27
3.45200	27
3.45567	27
3.45933	27
3.46300	26
3.46667	26
3.47033	26
3.47400	27
3.47767	27
3.48133	27
3.48500	27
3.48867	27
3.49233	28
3.49600	28
3.49967	28
3.50333	29
3.50700	29
3.51067	29
3.51433	30
3.51800	30
3.52167	30
3.52533	30
3.52900	31
3.53267	31
3.53633	31
3.54000	31
3.54367	31
3.54733	31
3.55100	31
3.55467	31
3.55833	30
3.56200	30
3.56567	30
3.56933	30
3.57300	30
3.57667	30
3.58033	30
3.58400	31
3.58767	30
3.59133	30
3.59500	30
3.59867	30
3.60233	30
3.60600	29
3.60967	29
3.61333	29
3.61700	29
3.62067	29
3.62433	29
3.62800	29
3.63167	29
3.63533	29
3.63900	28
3.64267	28
3.64633	28
3.65000	28
3.65367	28
3.65733	28
3.66100	28
3.66467	28
3.66833	28
3.67200	28
3.67567	28
3.67933	28
3.68300	28
3.68667	28
3.69033	28
3.69400	28
3.69767	28
3.70133	28
3.70500	28
3.70867	28
3.71233	28
3.71600	28
3.71967	29
3.72333	29
3.72700	29
3.73067	29
3.73433	29
3.73800	29
3.74167	29
3.74533	29
3.74900	29
3.75267	29
3.75633	29
3.76000	29
3.76367	29
3.76733	29
3.77100	30
3.77467	30
3.77833	30
3.78200	30
3.78567	30
3.78933	30
3.79300	30
3.79667	30
3.80033	30
3.80400	30
3.80767	30
3.81133	30
3.81500	30
3.81867	30
3.82233	30
3.82600	31
3.82967	31
3.83333	31
3.83700	31
3.84067	31
3.84433	31
3.84800	31
3.85167	30
3.85533	30
3.85900	30
3.86267	30
3.86633	30
3.87000	29
3.87367	29
3.87733	29
3.88100	28
3.88467	28
3.88833	28
3.89200	28
3.89567	28
3.89933	28
3.90300	29
3.90667	29
3.91033	29
3.91400	29
3.91767	29
3.92133	30
3.92500	30
3.92867	30
3.93233	30
3.93600	30
3.93967	30
3.94333	30
3.94700	30
3.95067	30
3.95433	30
3.95800	29
3.96167	29
3.96533	29
3.96900	30
3.97267	30
3.97633	30
3.98000	30
3.98367	30
3.98733	30
3.99100	30
3.99467	30
3.99833	30

[Chromatogram (Ch3)]
Interval(msec)	220
# of Points	1091
Start Time(min)	0.002
End Time(min)	3.998
R.Time (min)	Intensity
0.00167	-0
0.00533	-1
0.00900	-1
0.01267	-3
0.01633	-2
0.02000	-1
0.02367	-3
0.02733	-4
0.03100	-4
0.03467	-4
0.03833	-4
0.04200	-2
0.04567	0
0.04933	3
0.05300	4
0.05667	2
0.06033	-2
0.06400	-4
0.06767	-5
0.07133	-7
0.07500	-9
0.07867	-6
0.08233	-3
0.08600	-2
0.08967	1
0.09333	1
0.09700	0
0.10067	1
0.10433	1
0.10800	-0
0.11167	3
0.11533	4
0.11900	3
0.12267	3
0.12633	3
0.13000	3
0.13367	5
0.13733	5
0.14100	4
0.14467	5
0.14833	6
0.15200	7
0.15567	7
0.15933	6
0.16300	5
0.16667	4
0.17033	5
0.17400	5
0.17767	4
0.18133	5
0.18500	7
0.18867	6
0.19233	3
0.19600	1
0.19967	-0
0.20333	1
0.20700	2
0.21067	2
0.21433	2
0.21800	3
0.22167	2
0.22533	2
0.22900	0
0.23267	0
0.23633	1
0.24000	3
0.24367	5
0.24733	6
0.25100	5
0.25467	6
0.25833	6
0.26200	6
0.26567	4
0.26933	4
0.27300	4
0.27667	4
0.28033	4
0.28400	4
0.28767	4
0.29133	3
0.29500	2
0.29867	3
0.30233	6
0.30600	7
0.30967	7
0.31333	7
0.31700	6
0.32067	5
0.32433	3
0.32800	2
0.33167	0
0.33533	0
0.33900	2
0.34267	3
0.34633	4
0.35000	3
0.35367	3
0.35733	3
0.36100	4
0.36467	2
0.36833	1
0.37200	2
0.37567	5
0.37933	6
0.38300	6
0.38667	5
0.39033	4
0.39400	4
0.39767	4
0.40133	4
0.40500	3
0.40867	2
0.41233	2
0.41600	2
0.41967	2
0.42333	3
0.42700	4
0.43067	3
0.43433	2
0.43800	3
0.44167	4
0.44533	5
0.44900	4
0.45267	3
0.45633	2
0.46000	4
0.46367	5
0.46733	7
0.47100	8
0.47467	8
0.47833	6
0.48200	5
0.48567	6
0.48933	5
0.49300	4
0.49667	6
0.50033	7
0.50400	6
0.50767	4
0.51133	6
0.51500	7
0.51867	8
0.52233	8
0.52600	9
0.52967	11
0.53333	11
0.53700	10
0.54067	11
0.54433	12
0.54800	11
0.55167	8
0.55533	8
0.55900	9
0.56267	10
0.56633	11
0.57000	12
0.57367	11
0.57733	10
0.58100	11
0.58467	12
0.58833	11
0.59200	11
0.59567	12
0.59933	12
0.60300	11
0.60667	11
0.61033	13
0.61400	14
0.61767	12
0.62133	10
0.62500	8
0.62867	7
0.63233	9
0.63600	9
0.63967	10
0.64333	10
0.64700	11
0.65067	12
0.65433	12
0.65800	12
0.66167	14
0.66533	15
0.66900	15
0.67267	13
0.67633	12
0.68000	10
0.68367	12
0.68733	14
0.69100	16
0.69467	16
0.69833	16
0.70200	15
0.70567	14
0.70933	14
0.71300	14
0.71667	13
0.72033	12
0.72400	12
0.72767	12
0.73133	10
0.73500	8
0.73867	9
0.74233	10
0.74600	14
0.74967	15
0.75333	13
0.75700	10
0.76067	9
0.76433	8
0.76800	9
0.77167	10
0.77533	11
0.77900	13
0.78267	15
0.78633	15
0.79000	15
0.79367	15
0.79733	14
0.80100	13
0.80467	13
0.80833	13
0.81200	13
0.81567	14
0.81933	16
0.82300	14
0.82667	10
0.83033	11
0.83400	13
0.83767	15
0.84133	15
0.84500	15
0.84867	15
0.85233	17
0.85600	17
0.85967	17
0.86333	15
0.86700	12
0.87067	10
0.87433	11
0.87800	12
0.88167	12
0.88533	12
0.88900	12
0.89267	11
0.89633	8
0.90000	7
0.90367	8
0.90733	8
0.91100	8
0.91467	9
0.91833	10
0.92200	12
0.92567	14
0.92933	13
0.93300	13
0.93667	15
0.94033	17
0.94400	18
0.94767	18
0.95133	18
0.95500	17
0.95867	15
0.96233	13
0.96600	12
0.96967	12
0.97333	12
0.97700	11
0.98067	12
0.98433	13
0.98800	12
0.99167	12
0.99533	11
0.99900	11
1.00267	11
1.00633	12
1.01000	15
1.01367	18
1.01733	18
1.02100	17
1.02467	16
1.02833	15
1.03200	14
1.03567	13
1.03933	13
1.04300	11
1.04667	11
1.05033	12
1.05400	11
1.05767	11
1.06133	10
1.06500	9
1.06867	8
1.07233	10
1.07600	11
1.07967	11
1.08333	11
1.08700	11
1.09067	10
1.09433	9
1.09800	9
1.10167	7
1.10533	5
1.10900	5
1.11267	6
1.11633	7
1.12000	7
1.12367	8
1.12733	8
1.13100	7
1.13467	7
1.13833	7
1.14200	7
1.14567	6
1.14933	7
1.15300	8
1.15667	10
1.16033	12
1.16400	12
1.16767	12
1.17133	10
1.17500	9
1.17867	8
1.18233	6
1.18600	4
1.18967	4
1.19333	4
1.19700	2
1.20067	1
1.20433	2
1.20800	6
1.21167	7
1.21533	7
1.21900	6
1.22267	5
1.22633	4
1.23000	2
1.23367	4
1.23733	4
1.24100	3
1.24467	4
1.24833	5
1.25200	5
1.25567	5
1.25933	6
1.26300	6
1.26667	5
1.27033	5
1.27400	4
1.27767	2
1.28133	1
1.28500	1
1.28867	1
1.29233	2
1.29600	2
1.29967	1
1.30333	3
1.30700	2
1.31067	-0
1.31433	0
1.31800	1
1.32167	1
1.32533	1
1.32900	-1
1.33267	-1
1.33633	-2
1.34000	-3
1.34367	-2
1.34733	-1
1.35100	2
1.35467	4
1.35833	6
1.36200	7
1.36567	7
1.36933	6
1.37300	5
1.37667	5
1.38033	4
1.38400	3
1.38767	1
1.39133	0
1.39500	1
1.39867	2
1.40233	4
1.40600	5
1.40967	4
1.41333	3
1.41700	1
1.42067	-0
1.42433	-1
1.42800	-0
1.43167	-1
1.43533	-1
1.43900	0
1.44267	1
1.44633	-1
1.45000	-3
1.45367	-3
1.45733	-5
1.46100	-6
1.46467	-7
1.46833	-5
1.47200	-2
1.47567	-1
1.47933	-0
1.48300	1
1.48667	2
1.49033	2
1.49400	2
1.49767	0
1.50133	-0
1.50500	-1
1.50867	-3
1.51233	-4
1.51600	-6
1.51967	-7
1.52333	-6
1.52700	-4
1.53067	-2
1.53433	-1
1.53800	-2
1.54167	-2
1.54533	-3
1.54900	-4
1.55267	-2
1.55633	-1
1.56000	0
1.56367	-0
1.56733	-2
1.57100	-2
1.57467	-2
1.57833	-1
1.58200	-2
1.58567	-2
1.58933	-2
1.59300	-2
1.59667	-3
1.60033	-3
1.60400	-5
1.60767	-5
1.61133	-6
1.61500	-8
1.61867	-8
1.62233	-9
1.62600	-9
1.62967	-6
1.63333	-4
1.63700	-3
1.64067	-1
1.64433	-1
1.64800	0
1.65167	1
1.65533	0
1.65900	1
1.66267	-1
1.66633	-1
1.67000	2
1.67367	4
1.67733	4
1.68100	3
1.68467	4
1.68833	5
1.69200	6
1.69567	6
1.69933	7
1.70300	7
1.70667	9
1.71033	12
1.71400	14
1.71767	14
1.72133	12
1.72500	11
1.72867	11
1.73233	13
1.73600	13
1.73967	14
1.74333	13
1.74700	12
1.75067	13
1.75433	14
1.75800	14
1.76167	14
1.76533	13
1.76900	12
1.77267	13
1.77633	15
1.78000	16
1.78367	13
1.78733	14
1.79100	16
1.79467	16
1.79833	16
1.80200	17
1.80567	18
1.80933	19
1.81300	20
1.81667	20
1.82033	19
1.82400	18
1.82767	19
1.83133	22
1.83500	25
1.83867	27
1.84233	24
1.84600	23
1.84967	24
1.85333	24
1.85700	24
1.86067	22
1.86433	20
1.86800	21
1.87167	21
1.87533	23
1.87900	23
1.88267	23
1.88633	22
1.89000	20
1.89367	20
1.89733	20
1.90100	21
1.90467	21
1.90833	21
1.91200	20
1.91567	20
1.91933	23
1.92300	25
1.92667	27
1.93033	28
1.93400	27
1.93767	27
1.94133	27
1.94500	27
1.94867	27
1.95233	27
1.95600	29
1.95967	33
1.96333	35
1.96700	34
1.97067	31
1.97433	30
1.97800	31
1.98167	31
1.98533	30
1.98900	31
1.99267	32
1.99633	32
2.00000	32
2.00367	32
2.00733	33
2.01100	33
2.01467	31
2.01833	31
2.02200	33
2.02567	37
2.02933	40
2.03300	41
2.03667	41
2.04033	40
2.04400	41
2.04767	43
2.05133	43
2.05500	43
2.05867	44
2.06233	44
2.06600	43
2.06967	44
2.07333	47
2.07700	47
2.08067	47
2.08433	48
2.08800	47
2.09167	49
2.09533	52
2.09900	54
2.10267	57
2.10633	58
2.11000	57
2.11367	60
2.11733	63
2.12100	64
2.12467	64
2.12833	65
2.13200	64
2.13567	63
2.13933	62
2.14300	65
2.14667	67
2.15033	67
2.15400	66
2.15767	65
2.16133	65
2.16500	67
2.16867	69
2.17233	69
2.17600	68
2.17967	68
2.18333	67
2.18700	67
2.19067	66
2.19433	67
2.19800	67
2.20167	66
2.20533	67
2.20900	68
2.21267	70
2.21633	71
2.22000	73
2.22367	74
2.22733	76
2.23100	78
2.23467	80
2.23833	79
2.24200	80
2.24567	80
2.24933	82
2.25300	83
2.25667	82
2.26033	84
2.26400	86
2.26767	87
2.27133	87
2.27500	85
2.27867	84
2.28233	86
2.28600	88
2.28967	89
2.29333	90
2.29700	92
2.30067	93
2.30433	94
2.30800	95
2.31167	95
2.31533	97
2.31900	99
2.32267	97
2.32633	94
2.33000	94
2.33367	97
2.33733	100
2.34100	102
2.34467	102
2.34833	103
2.35200	103
2.35567	102
2.35933	102
2.36300	102
2.36667	102
2.37033	105
2.37400	108
2.37767	112
2.38133	113
2.38500	110
2.38867	105
2.39233	103
2.39600	103
2.39967	107
2.40333	110
2.40700	113
2.41067	118
2.41433	124
2.41800	126
2.42167	125
2.42533	125
2.42900	125
2.43267	122
2.43633	119
2.44000	121
2.44367	137
2.44733	166
2.45100	191
2.45467	206
2.45833	203
2.46200	185
2.46567	168
2.46933	156
2.47300	147
2.47667	136
2.48033	122
2.48400	109
2.48767	96
2.49133	85
2.49500	76
2.49867	68
2.50233	62
2.50600	59
2.50967	57
2.51333	59
2.51700	63
2.52067	67
2.52433	66
2.52800	62
2.53167	56
2.53533	47
2.53900	39
2.54267	35
2.54633	32
2.55000	27
2.55367	24
2.55733	21
2.56100	17
2.56467	15
2.56833	12
2.57200	8
2.57567	5
2.57933	4
2.58300	4
2.58667	4
2.59033	5
2.59400	6
2.59767	7
2.60133	8
2.60500	3
2.60867	-5
2.61233	-18
2.61600	-37
2.61967	-59
2.62333	-84
2.62700	-111
2.63067	-140
2.63433	-166
2.63800	-189
2.64167	-209
2.64533	-225
2.64900	-235
2.65267	-242
2.65633	-247
2.66000	-248
2.66367	-244
2.66733	-241
2.67100	-235
2.67467	-229
2.67833	-221
2.68200	-214
2.68567	-209
2.68933	-202
2.69300	-195
2.69667	-188
2.70033	-182
2.70400	-175
2.70767	-169
2.71133	-164
2.71500	-159
2.71867	-153
2.72233	-148
2.72600	-144
2.72967	-141
2.73333	-136
2.73700	-130
2.74067	-125
2.74433	-118
2.74800	-115
2.75167	-113
2.75533	-110
2.75900	-109
2.76267	-106
2.76633	-103
2.77000	-99
2.77367	-95
2.77733	-90
2.78100	-87
2.78467	-82
2.78833	-79
2.79200	-78
2.79567	-74
2.79933	-71
2.80300	-70
2.80667	-70
2.81033	-68
2.81400	-65
2.81767	-63
2.82133	-61
2.82500	-56
2.82867	-45
2.83233	-17
2.83600	39
2.83967	142
2.84333	320
2.84700	593
2.85067	979
2.85433	1476
2.85800	2068
2.86167	2719
2.86533	3383
2.86900	4006
2.87267	4526
2.87633	4888
2.88000	5100
2.88367	5176
2.88733	5125
2.89100	4958
2.89467	4700
2.89833	4381
2.90200	4024
2.90567	3656
2.90933	3294
2.91300	2944
2.91667	2613
2.92033	2306
2.92400	2025
2.92767	1774
2.93133	1552
2.93500	1360
2.93867	1196
2.94233	1057
2.94600	938
2.94967	838
2.95333	753
2.95700	682
2.96067	623
2.96433	575
2.96800	536
2.97167	504
2.97533	475
2.97900	451
2.98267	430
2.98633	413
2.99000	397
2.99367	386
2.99733	376
3.00100	369
3.00467	363
3.00833	359
3.01200	353
3.01567	346
3.01933	341
3.02300	337
3.02667	335
3.03033	334
3.03400	331
3.03767	330
3.04133	331
3.04500	333
3.04867	332
3.05233	333
3.05600	335
3.05967	333
3.06333	331
3.06700	329
3.07067	333
3.07433	337
3.07800	338
3.08167	337
3.08533	336
3.08900	336
3.09267	336
3.09633	338
3.10000	338
3.10367	340
3.10733	341
3.11100	341
3.11467	342
3.11833	341
3.12200	342
3.12567	343
3.12933	343
3.13300	344
3.13667	343
3.14033	341
3.14400	341
3.14767	343
3.15133	344
3.15500	345
3.15867	347
3.16233	348
3.16600	351
3.16967	353
3.17333	354
3.17700	355
3.18067	356
3.18433	358
3.18800	361
3.19167	362
3.19533	364
3.19900	366
3.20267	367
3.20633	367
3.21000	367
3.21367	369
3.21733	369
3.22100	371
3.22467	372
3.22833	374
3.23200	377
3.23567	378
3.23933	378
3.24300	379
3.24667	380
3.25033	381
3.25400	382
3.25767	384
3.26133	385
3.26500	385
3.26867	384
3.27233	385
3.27600	385
3.27967	381
3.28333	380
3.28700	379
3.29067	379
3.29433	379
3.29800	379
3.30167	380
3.30533	377
3.30900	379
3.31267	380
3.31633	378
3.32000	374
3.32367	369
3.32733	364
3.33100	362
3.33467	362
3.33833	359
3.34200	358
3.34567	357
3.34933	355
3.35300	354
3.35667	353
3.36033	353
3.36400	352
3.36767	350
3.37133	347
3.37500	345
3.37867	343
3.38233	339
3.38600	335
3.38967	333
3.39333	332
3.39700	331
3.40067	329
3.40433	328
3.40800	327
3.41167	325
3.41533	321
3.41900	318
3.42267	315
3.42633	309
3.43000	305
3.43367	302
3.43733	301
3.44100	299
3.44467	298
3.44833	296
3.45200	296
3.45567	296
3.45933	294
3.46300	292
3.46667	292
3.47033	289
3.47400	288
3.47767	286
3.48133	284
3.48500	280
3.48867	278
3.49233	277
3.49600	275
3.49967	271
3.50333	268
3.50700	266
3.51067	263
3.51433	262
3.51800	261
3.52167	258
3.52533	258
3.52900	256
3.53267	255
3.53633	253
3.54000	252
3.54367	251
3.54733	249
3.55100	249
3.55467	249
3.55833	246
3.56200	242
3.56567	241
3.56933	240
3.57300	236
3.57667	234
3.58033	233
3.58400	232
3.58767	230
3.59133	229
3.59500	227
3.59867	226
3.60233	226
3.60600	226
3.60967	225
3.61333	224
3.61700	221
3.62067	219
3.62433	218
3.62800	218
3.63167	219
3.63533	219
3.63900	216
3.64267	211
3.64633	209
3.65000	207
3.65367	204
3.65733	201
3.66100	200
3.66467	202
3.66833	202
3.67200	199
3.67567	197
3.67933	196
3.68300	197
3.68667	197
3.69033	196
3.69400	195
3.69767	193
3.70133	192
3.70500	189
3.70867	188
3.71233	186
3.71600	185
3.71967	183
3.72333	179
3.72700	176
3.73067	175
3.73433	175
3.73800	177
3.74167	177
3.74533	176
3.74900	175
3.75267	173
3.75633	171
3.76000	170
3.76367	167
3.76733	166
3.77100	167
3.77467	167
3.77833	166
3.78200	166
3.78567	166
3.78933	166
3.79300	166
3.79667	163
3.80033	162
3.80400	159
3.80767	156
3.81133	153
3.81500	152
3.81867	150
3.82233	145
3.82600	142
3.82967	139
3.83333	139
3.83700	140
3.84067	142
3.84433	144
3.84800	144
3.85167	142
3.85533	140
3.85900	139
3.86267	140
3.86633	139
3.87000	138
3.87367	138
3.87733	136
3.88100	136
3.88467	135
3.88833	136
3.89200	136
3.89567	132
3.89933	131
3.90300	129
3.90667	128
3.91033	129
3.91400	131
3.91767	132
3.92133	133
3.92500	133
3.92867	132
3.93233	130
3.93600	130
3.93967	130
3.94333	130
3.94700	129
3.95067	125
3.95433	122
3.95800	121
3.96167	119
3.96533	118
3.96900	115
3.97267	114
3.97633	113
3.98000	113
3.98367	112
3.98733	111
3.99100	109
3.99467	107
3.99833	107

[Status Trace (Column Oven Temperature)]
Interval(msec)	1000
# of Points	240
Start Time(min)	0.008
End Time(min)	3.991
Intensity Units	
Intensity Multiplier	1
R.Time (min)	Intensity
0.00750	35.03
0.02417	35.03
0.04083	35.03
0.05750	35.03
0.07417	35.03
0.09083	35.03
0.10750	35.02
0.12417	35.02
0.14083	35.01
0.15750	35.01
0.17417	35.00
0.19083	34.99
0.20750	34.98
0.22417	34.98
0.24083	34.98
0.25750	34.99
0.27417	34.98
0.29083	34.98
0.30750	34.97
0.32417	34.97
0.34083	34.97
0.35750	34.97
0.37417	34.98
0.39083	34.98
0.40750	34.98
0.42417	34.98
0.44083	34.97
0.45750	34.97
0.47417	34.97
0.49083	34.97
0.50750	34.97
0.52417	34.97
0.54083	34.98
0.55750	34.98
0.57417	34.98
0.59083	34.99
0.60750	34.99
0.62417	34.98
0.64083	34.98
0.65750	34.97
0.67417	34.98
0.69083	34.98
0.70750	34.98
0.72417	34.97
0.74083	34.97
0.75750	34.97
0.77417	34.97
0.79083	34.97
0.80750	34.98
0.82417	34.97
0.84083	34.98
0.85750	34.98
0.87417	34.98
0.89083	34.99
0.90750	35.01
0.92417	35.02
0.94083	35.03
0.95750	35.05
0.97417	35.06
0.99083	35.05
1.00750	35.05
1.02417	35.04
1.04083	35.02
1.05750	35.00
1.07417	34.99
1.09083	34.99
1.10750	34.99
1.12417	34.99
1.14083	34.99
1.15750	34.99
1.17417	34.99
1.19083	34.99
1.20750	34.99
1.22417	34.99
1.24083	34.99
1.25750	34.98
1.27417	34.99
1.29083	34.99
1.30750	35.00
1.32417	35.00
1.34083	35.00
1.35750	35.00
1.37417	35.00
1.39083	35.00
1.40750	35.01
1.42417	35.01
1.44083	34.99
1.45750	35.00
1.47417	34.99
1.49083	34.99
1.50750	34.99
1.52417	34.98
1.54083	34.98
1.55750	34.99
1.57417	34.99
1.59083	35.00
1.60750	35.06
1.62417	35.18
1.64083	35.36
1.65750	35.60
1.67417	35.94
1.69083	36.33
1.70750	36.69
1.72417	37.01
1.74083	37.33
1.75750	37.68
1.77417	38.00
1.79083	38.35
1.80750	38.67
1.82417	39.00
1.84083	39.33
1.85750	39.67
1.87417	39.99
1.89083	40.34
1.90750	40.66
1.92417	40.99
1.94083	41.32
1.95750	41.64
1.97417	41.95
1.99083	42.29
2.00750	42.60
2.02417	42.95
2.04083	43.28
2.05750	43.60
2.07417	43.92
2.09083	44.25
2.10750	44.58
2.12417	44.90
2.14083	45.25
2.15750	45.55
2.17417	45.88
2.19083	46.21
2.20750	46.53
2.22417	46.85
2.24083	47.16
2.25750	47.48
2.27417	47.82
2.29083	48.14
2.30750	48.51
2.32417	48.82
2.34083	49.13
2.35750	49.46
2.37417	49.65
2.39083	49.72
2.40750	49.72
2.42417	49.73
2.44083	49.72
2.45750	49.73
2.47417	49.73
2.49083	49.75
2.50750	49.77
2.52417	49.78
2.54083	49.80
2.55750	49.82
2.57417	49.81
2.59083	49.82
2.60750	49.83
2.62417	49.83
2.64083	49.84
2.65750	49.85
2.67417	49.85
2.69083	49.85
2.70750	49.86
2.72417	49.87
2.74083	49.86
2.75750	49.86
2.77417	49.86
2.79083	49.87
2.80750	49.88
2.82417	49.89
2.84083	49.90
2.85750	49.91
2.87417	49.94
2.89083	49.96
2.90750	49.98
2.92417	50.00
2.94083	50.02
2.95750	50.02
2.97417	50.04
2.99083	50.05
3.00750	50.06
3.02417	50.06
3.04083	50.07
3.05750	50.08
3.07417	50.09
3.09083	50.11
3.10750	50.12
3.12417	50.11
3.14083	50.09
3.15750	50.08
3.17417	50.06
3.19083	50.06
3.20750	50.05
3.22417	50.05
3.24083	50.04
3.25750	50.04
3.27417	50.03
3.29083	50.03
3.30750	50.03
3.32417	50.03
3.34083	50.03
3.35750	50.04
3.37417	50.06
3.39083	50.06
3.40750	50.06
3.42417	50.07
3.44083	50.08
3.45750	50.10
3.47417	50.10
3.49083	50.09
3.50750	50.08
3.52417	50.07
3.54083	50.06
3.55750	50.05
3.57417	50.05
3.59083	50.05
3.60750	50.06
3.62417	50.06
3.64083	50.06
3.65750	50.07
3.67417	50.08
3.69083	50.09
3.70750	50.09
3.72417	50.09
3.74083	50.09
3.75750	50.08
3.77417	50.08
3.79083	50.07
3.80750	50.07
3.82417	50.06
3.84083	50.05
3.85750	50.06
3.87417	50.08
3.89083	50.08
3.90750	50.08
3.92417	50.06
3.94083	50.06
3.95750	50.07
3.97417	50.07
3.99083	50.07

[Status Trace (Injection Unit Temperature)]
Interval(msec)	1000
# of Points	240
Start Time(min)	0.008
End Time(min)	3.991
Intensity Units	
Intensity Multiplier	1
R.Time (min)	Intensity
0.00750	99.98
0.02417	99.98
0.04083	99.98
0.05750	99.99
0.07417	99.98
0.09083	99.98
0.10750	99.98
0.12417	99.99
0.14083	99.98
0.15750	99.98
0.17417	99.99
0.19083	99.99
0.20750	99.98
0.22417	99.98
0.24083	99.99
0.25750	99.98
0.27417	99.99
0.29083	99.99
0.30750	99.99
0.32417	99.99
0.34083	99.99
0.35750	99.99
0.37417	99.99
0.39083	99.99
0.40750	99.99
0.42417	99.98
0.44083	99.99
0.45750	99.98
0.47417	99.99
0.49083	99.99
0.50750	99.99
0.52417	99.99
0.54083	99.99
0.55750	99.99
0.57417	99.99
0.59083	99.99
0.60750	99.99
0.62417	99.99
0.64083	99.99
0.65750	99.99
0.67417	99.98
0.69083	99.99
0.70750	99.99
0.72417	99.99
0.74083	99.98
0.75750	99.99
0.77417	99.99
0.79083	99.99
0.80750	99.99
0.82417	99.99
0.84083	99.99
0.85750	99.99
0.87417	99.99
0.89083	99.99
0.90750	99.99
0.92417	99.99
0.94083	99.99
0.95750	99.99
0.97417	99.99
0.99083	99.99
1.00750	99.99
1.02417	99.99
1.04083	99.98
1.05750	99.99
1.07417	100.00
1.09083	99.99
1.10750	99.99
1.12417	99.99
1.14083	100.00
1.15750	99.99
1.17417	99.99
1.19083	99.99
1.20750	99.99
1.22417	99.99
1.24083	99.99
1.25750	99.99
1.27417	99.99
1.29083	99.99
1.30750	99.99
1.32417	99.99
1.34083	99.99
1.35750	100.00
1.37417	99.99
1.39083	100.00
1.40750	99.99
1.42417	99.99
1.44083	99.99
1.45750	99.99
1.47417	99.99
1.49083	99.99
1.50750	99.99
1.52417	99.99
1.54083	99.99
1.55750	99.99
1.57417	99.99
1.59083	99.99
1.60750	99.99
1.62417	99.99
1.64083	99.99
1.65750	99.99
1.67417	99.99
1.69083	99.99
1.70750	100.00
1.72417	99.99
1.74083	99.99
1.75750	99.99
1.77417	99.99
1.79083	99.99
1.80750	99.99
1.82417	99.99
1.84083	99.99
1.85750	99.99
1.87417	99.99
1.89083	99.99
1.90750	99.99
1.92417	99.99
1.94083	99.99
1.95750	99.98
1.97417	99.99
1.99083	99.99
2.00750	99.98
2.02417	99.99
2.04083	99.99
2.05750	99.98
2.07417	99.98
2.09083	99.98
2.10750	99.98
2.12417	99.98
2.14083	99.98
2.15750	99.98
2.17417	99.97
2.19083	99.98
2.20750	99.98
2.22417	99.97
2.24083	99.97
2.25750	99.97
2.27417	99.98
2.29083	99.97
2.30750	99.97
2.32417	99.97
2.34083	99.97
2.35750	99.97
2.37417	99.98
2.39083	99.97
2.40750	99.98
2.42417	99.97
2.44083	99.98
2.45750	99.98
2.47417	99.97
2.49083	99.98
2.50750	99.97
2.52417	99.97
2.54083	99.98
2.55750	99.98
2.57417	99.98
2.59083	99.98
2.60750	99.98
2.62417	99.98
2.64083	99.98
2.65750	99.98
2.67417	99.98
2.69083	99.98
2.70750	99.99
2.72417	99.99
2.74083	99.99
2.75750	99.99
2.77417	99.99
2.79083	99.99
2.80750	100.00
2.82417	100.00
2.84083	100.00
2.85750	100.00
2.87417	100.00
2.89083	100.00
2.90750	100.00
2.92417	100.01
2.94083	100.01
2.95750	100.01
2.97417	100.01
2.99083	100.01
3.00750	100.02
3.02417	100.02
3.04083	100.01
3.05750	100.02
3.07417	100.02
3.09083	100.02
3.10750	100.02
3.12417	100.02
3.14083	100.02
3.15750	100.03
3.17417	100.02
3.19083	100.03
3.20750	100.03
3.22417	100.03
3.24083	100.03
3.25750	100.03
3.27417	100.03
3.29083	100.03
3.30750	100.04
3.32417	100.04
3.34083	100.03
3.35750	100.03
3.37417	100.04
3.39083	100.04
3.40750	100.04
3.42417	100.04
3.44083	100.04
3.45750	100.04
3.47417	100.04
3.49083	100.04
3.50750	100.04
3.52417	100.04
3.54083	100.04
3.55750	100.05
3.57417	100.05
3.59083	100.05
3.60750	100.05
3.62417	100.05
3.64083	100.05
3.65750	100.04
3.67417	100.05
3.69083	100.05
3.70750	100.05
3.72417	100.05
3.74083	100.05
3.75750	100.05
3.77417	100.05
3.79083	100.05
3.80750	100.05
3.82417	100.05
3.84083	100.05
3.85750	100.05
3.87417	100.06
3.89083	100.05
3.90750	100.05
3.92417	100.06
3.94083	100.06
3.95750	100.06
3.97417	100.05
3.99083	100.05

[Status Trace (Carrier Gas Pressure)]
Interval(msec)	1000
# of Points	240
Start Time(min)	0.008
End Time(min)	3.991
Intensity Units	
Intensity Multiplier	1
R.Time (min)	Intensity
0.00750	58.00
0.02417	55.44
0.04083	57.07
0.05750	59.10
0.07417	59.55
0.09083	58.09
0.10750	57.98
0.12417	58.01
0.14083	58.01
0.15750	58.01
0.17417	58.00
0.19083	58.00
0.20750	58.00
0.22417	58.00
0.24083	58.00
0.25750	58.00
0.27417	58.00
0.29083	58.00
0.30750	58.00
0.32417	58.00
0.34083	58.00
0.35750	58.00
0.37417	58.00
0.39083	58.00
0.40750	58.00
0.42417	58.00
0.44083	58.00
0.45750	58.00
0.47417	58.00
0.49083	58.00
0.50750	58.00
0.52417	58.00
0.54083	58.00
0.55750	58.00
0.57417	58.00
0.59083	58.00
0.60750	58.00
0.62417	58.00
0.64083	58.00
0.65750	58.00
0.67417	58.00
0.69083	58.00
0.70750	58.00
0.72417	58.00
0.74083	58.00
0.75750	58.00
0.77417	58.00
0.79083	58.00
0.80750	58.00
0.82417	58.00
0.84083	58.00
0.85750	58.00
0.87417	58.00
0.89083	58.00
0.90750	58.00
0.92417	58.00
0.94083	58.00
0.95750	58.00
0.97417	58.00
0.99083	58.00
1.00750	58.00
1.02417	58.00
1.04083	58.00
1.05750	58.00
1.07417	58.00
1.09083	58.00
1.10750	58.00
1.12417	58.00
1.14083	58.00
1.15750	58.00
1.17417	58.00
1.19083	58.00
1.20750	58.00
1.22417	58.00
1.24083	58.00
1.25750	58.00
1.27417	58.00
1.29083	58.00
1.30750	58.00
1.32417	58.00
1.34083	58.00
1.35750	58.00
1.37417	58.00
1.39083	58.00
1.40750	58.00
1.42417	58.00
1.44083	58.00
1.45750	58.00
1.47417	58.00
1.49083	58.00
1.50750	58.00
1.52417	58.00
1.54083	58.00
1.55750	58.00
1.57417	58.00
1.59083	58.00
1.60750	58.00
1.62417	58.00
1.64083	58.00
1.65750	58.00
1.67417	58.01
1.69083	58.00
1.70750	58.00
1.72417	58.00
1.74083	58.00
1.75750	58.00
1.77417	58.00
1.79083	58.00
1.80750	58.00
1.82417	58.00
1.84083	58.00
1.85750	58.00
1.87417	58.00
1.89083	58.00
1.90750	58.00
1.92417	58.00
1.94083	58.00
1.95750	58.00
1.97417	58.00
1.99083	58.00
2.00750	58.00
2.02417	58.00
2.04083	58.00
2.05750	58.00
2.07417	58.00
2.09083	58.00
2.10750	58.00
2.12417	58.00
2.14083	58.00
2.15750	58.00
2.17417	58.00
2.19083	58.00
2.20750	58.00
2.22417	58.00
2.24083	58.00
2.25750	58.00
2.27417	58.00
2.29083	58.00
2.30750	58.00
2.32417	58.00
2.34083	58.00
2.35750	58.00
2.37417	58.00
2.39083	57.99
2.40750	57.99
2.42417	58.00
2.44083	58.00
2.45750	58.00
2.47417	58.00
2.49083	58.00
2.50750	58.00
2.52417	57.98
2.54083	58.00
2.55750	58.00
2.57417	58.00
2.59083	58.00
2.60750	58.00
2.62417	58.00
2.64083	58.00
2.65750	58.00
2.67417	58.00
2.69083	58.00
2.70750	58.00
2.72417	58.00
2.74083	58.00
2.75750	58.00
2.77417	58.00
2.79083	58.00
2.80750	58.00
2.82417	58.00
2.84083	58.00
2.85750	58.00
2.87417	58.00
2.89083	58.00
2.90750	58.00
2.92417	58.00
2.94083	58.00
2.95750	58.00
2.97417	58.00
2.99083	58.00
3.00750	58.00
3.02417	58.00
3.04083	58.00
3.05750	58.00
3.07417	58.00
3.09083	58.00
3.10750	58.00
3.12417	58.00
3.14083	58.00
3.15750	58.00
3.17417	58.00
3.19083	58.00
3.20750	58.00
3.22417	58.00
3.24083	58.00
3.25750	58.00
3.27417	58.00
3.29083	58.00
3.30750	58.00
3.32417	58.00
3.34083	58.00
3.35750	58.00
3.37417	58.00
3.39083	58.00
3.40750	58.00
3.42417	58.00
3.44083	58.00
3.45750	58.00
3.47417	58.00
3.49083	58.00
3.50750	58.00
3.52417	58.00
3.54083	58.00
3.55750	58.00
3.57417	58.00
3.59083	58.00
3.60750	58.00
3.62417	58.00
3.64083	58.00
3.65750	58.00
3.67417	58.00
3.69083	58.00
3.70750	58.00
3.72417	58.00
3.74083	58.00
3.75750	58.00
3.77417	58.00
3.79083	58.00
3.80750	58.00
3.82417	58.00
3.84083	58.00
3.85750	58.00
3.87417	58.00
3.89083	58.00
3.90750	58.00
3.92417	58.00
3.94083	58.00
3.95750	58.00
3.97417	58.00
3.99083	58.00

[Status Trace (Carrier Gas Flow)]
Interval(msec)	1000
# of Points	240
Start Time(min)	0.008
End Time(min)	3.991
Intensity Units	
Intensity Multiplier	1
R.Time (min)	Intensity
0.00750	34.52
0.02417	34.54
0.04083	34.55
0.05750	34.54
0.07417	34.49
0.09083	34.51
0.10750	34.52
0.12417	34.52
0.14083	34.52
0.15750	34.52
0.17417	34.52
0.19083	34.52
0.20750	34.52
0.22417	34.52
0.24083	34.52
0.25750	34.52
0.27417	34.52
0.29083	34.52
0.30750	34.52
0.32417	34.53
0.34083	34.52
0.35750	34.51
0.37417	34.52
0.39083	34.52
0.40750	34.52
0.42417	34.52
0.44083	34.52
0.45750	34.52
0.47417	34.52
0.49083	34.52
0.50750	34.52
0.52417	34.52
0.54083	34.52
0.55750	34.51
0.57417	34.52
0.59083	34.52
0.60750	34.52
0.62417	34.52
0.64083	34.52
0.65750	34.52
0.67417	34.52
0.69083	34.52
0.70750	34.52
0.72417	34.52
0.74083	34.52
0.75750	34.52
0.77417	34.52
0.79083	34.52
0.80750	34.52
0.82417	34.52
0.84083	34.52
0.85750	34.52
0.87417	34.52
0.89083	34.52
0.90750	34.52
0.92417	34.52
0.94083	34.52
0.95750	34.52
0.97417	34.52
0.99083	34.52
1.00750	34.52
1.02417	34.52
1.04083	34.52
1.05750	34.52
1.07417	34.52
1.09083	34.52
1.10750	34.52
1.12417	34.52
1.14083	34.52
1.15750	34.52
1.17417	34.52
1.19083	34.52
1.20750	34.52
1.22417	34.52
1.24083	34.52
1.25750	34.52
1.27417	34.52
1.29083	34.52
1.30750	34.52
1.32417	34.52
1.34083	34.52
1.35750	34.52
1.37417	34.52
1.39083	34.52
1.40750	34.52
1.42417	34.52
1.44083	34.52
1.45750	34.52
1.47417	34.52
1.49083	34.52
1.50750	34.52
1.52417	34.52
1.54083	34.52
1.55750	34.52
1.57417	34.52
1.59083	34.52
1.60750	34.52
1.62417	34.52
1.64083	34.52
1.65750	34.52
1.67417	34.52
1.69083	34.52
1.70750	34.52
1.72417	34.52
1.74083	34.52
1.75750	34.52
1.77417	34.52
1.79083	34.52
1.80750	34.52
1.82417	34.52
1.84083	34.52
1.85750	34.52
1.87417	34.52
1.89083	34.52
1.90750	34.52
1.92417	34.52
1.94083	34.52
1.95750	34.52
1.97417	34.52
1.99083	34.52
2.00750	34.52
2.02417	34.52
2.04083	34.52
2.05750	34.52
2.07417	34.52
2.09083	34.52
2.10750	34.52
2.12417	34.52
2.14083	34.52
2.15750	34.52
2.17417	34.52
2.19083	34.52
2.20750	34.52
2.22417	34.52
2.24083	34.52
2.25750	34.52
2.27417	34.52
2.29083	34.52
2.30750	34.52
2.32417	34.52
2.34083	34.52
2.35750	34.52
2.37417	34.52
2.39083	34.50
2.40750	34.52
2.42417	34.52
2.44083	34.52
2.45750	34.52
2.47417	34.52
2.49083	34.52
2.50750	34.34
2.52417	34.52
2.54083	34.52
2.55750	34.52
2.57417	34.52
2.59083	34.52
2.60750	34.52
2.62417	34.52
2.64083	34.52
2.65750	34.52
2.67417	34.52
2.69083	34.52
2.70750	34.52
2.72417	34.52
2.74083	34.52
2.75750	34.52
2.77417	34.52
2.79083	34.52
2.80750	34.52
2.82417	34.52
2.84083	34.52
2.85750	34.51
2.87417	34.52
2.89083	34.52
2.90750	34.52
2.92417	34.52
2.94083	34.52
2.95750	34.52
2.97417	34.52
2.99083	34.52
3.00750	34.52
3.02417	34.52
3.04083	34.52
3.05750	34.52
3.07417	34.52
3.09083	34.52
3.10750	34.52
3.12417	34.52
3.14083	34.52
3.15750	34.52
3.17417	34.52
3.19083	34.52
3.20750	34.52
3.22417	34.52
3.24083	34.52
3.25750	34.52
3.27417	34.52
3.29083	34.52
3.30750	34.52
3.32417	34.52
3.34083	34.52
3.35750	34.52
3.37417	34.52
3.39083	34.52
3.40750	34.52
3.42417	34.52
3.44083	34.52
3.45750	34.52
3.47417	34.52
3.49083	34.52
3.50750	34.52
3.52417	34.52
3.54083	34.52
3.55750	34.52
3.57417	34.52
3.59083	34.52
3.60750	34.52
3.62417	34.52
3.64083	34.52
3.65750	34.52
3.67417	34.52
3.69083	34.52
3.70750	34.52
3.72417	34.52
3.74083	34.52
3.75750	34.52
3.77417	34.52
3.79083	34.52
3.80750	34.52
3.82417	34.52
3.84083	34.52
3.85750	34.52
3.87417	34.52
3.89083	34.52
3.90750	34.52
3.92417	34.52
3.94083	34.52
3.95750	34.52
3.97417	34.52
3.99083	34.52

[Status Trace (Column Flow)]
Interval(msec)	1000
# of Points	240
Start Time(min)	0.008
End Time(min)	3.991
Intensity Units	
Intensity Multiplier	1
R.Time (min)	Intensity
0.00750	5.53
0.02417	5.23
0.04083	5.42
0.05750	5.66
0.07417	5.71
0.09083	5.54
0.10750	5.53
0.12417	5.53
0.14083	5.53
0.15750	5.53
0.17417	5.53
0.19083	5.53
0.20750	5.53
0.22417	5.53
0.24083	5.53
0.25750	5.53
0.27417	5.53
0.29083	5.53
0.30750	5.53
0.32417	5.53
0.34083	5.53
0.35750	5.53
0.37417	5.53
0.39083	5.53
0.40750	5.53
0.42417	5.53
0.44083	5.53
0.45750	5.53
0.47417	5.53
0.49083	5.53
0.50750	5.53
0.52417	5.53
0.54083	5.53
0.55750	5.53
0.57417	5.53
0.59083	5.53
0.60750	5.53
0.62417	5.53
0.64083	5.53
0.65750	5.53
0.67417	5.53
0.69083	5.53
0.70750	5.53
0.72417	5.53
0.74083	5.53
0.75750	5.53
0.77417	5.53
0.79083	5.53
0.80750	5.53
0.82417	5.53
0.84083	5.53
0.85750	5.53
0.87417	5.53
0.89083	5.53
0.90750	5.53
0.92417	5.53
0.94083	5.53
0.95750	5.53
0.97417	5.53
0.99083	5.53
1.00750	5.53
1.02417	5.53
1.04083	5.53
1.05750	5.53
1.07417	5.53
1.09083	5.53
1.10750	5.53
1.12417	5.53
1.14083	5.53
1.15750	5.53
1.17417	5.53
1.19083	5.53
1.20750	5.53
1.22417	5.53
1.24083	5.53
1.25750	5.53
1.27417	5.53
1.29083	5.53
1.30750	5.53
1.32417	5.53
1.34083	5.53
1.35750	5.53
1.37417	5.53
1.39083	5.53
1.40750	5.53
1.42417	5.53
1.44083	5.53
1.45750	5.53
1.47417	5.53
1.49083	5.53
1.50750	5.53
1.52417	5.53
1.54083	5.53
1.55750	5.53
1.57417	5.53
1.59083	5.53
1.60750	5.53
1.62417	5.52
1.64083	5.52
1.65750	5.51
1.67417	5.50
1.69083	5.49
1.70750	5.48
1.72417	5.47
1.74083	5.46
1.75750	5.45
1.77417	5.44
1.79083	5.42
1.80750	5.42
1.82417	5.40
1.84083	5.39
1.85750	5.39
1.87417	5.37
1.89083	5.36
1.90750	5.36
1.92417	5.34
1.94083	5.33
1.95750	5.33
1.97417	5.32
1.99083	5.31
2.00750	5.30
2.02417	5.29
2.04083	5.28
2.05750	5.27
2.07417	5.26
2.09083	5.25
2.10750	5.24
2.12417	5.23
2.14083	5.22
2.15750	5.21
2.17417	5.20
2.19083	5.19
2.20750	5.18
2.22417	5.17
2.24083	5.16
2.25750	5.16
2.27417	5.15
2.29083	5.14
2.30750	5.13
2.32417	5.12
2.34083	5.11
2.35750	5.10
2.37417	5.09
2.39083	5.09
2.40750	5.09
2.42417	5.09
2.44083	5.09
2.45750	5.09
2.47417	5.09
2.49083	5.09
2.50750	5.09
2.52417	5.09
2.54083	5.09
2.55750	5.09
2.57417	5.09
2.59083	5.09
2.60750	5.09
2.62417	5.09
2.64083	5.09
2.65750	5.09
2.67417	5.09
2.69083	5.09
2.70750	5.09
2.72417	5.09
2.74083	5.09
2.75750	5.09
2.77417	5.09
2.79083	5.09
2.80750	5.09
2.82417	5.09
2.84083	5.09
2.85750	5.09
2.87417	5.09
2.89083	5.09
2.90750	5.09
2.92417	5.09
2.94083	5.08
2.95750	5.08
2.97417	5.08
2.99083	5.08
3.00750	5.08
3.02417	5.08
3.04083	5.08
3.05750	5.08
3.07417	5.08
3.09083	5.08
3.10750	5.08
3.12417	5.08
3.14083	5.08
3.15750	5.08
3.17417	5.08
3.19083	5.08
3.20750	5.08
3.22417	5.08
3.24083	5.08
3.25750	5.08
3.27417	5.08
3.29083	5.08
3.30750	5.08
3.32417	5.08
3.34083	5.08
3.35750	5.08
3.37417	5.08
3.39083	5.08
3.40750	5.08
3.42417	5.08
3.44083	5.08
3.45750	5.08
3.47417	5.08
3.49083	5.08
3.50750	5.08
3.52417	5.08
3.54083	5.08
3.55750	5.08
3.57417	5.08
3.59083	5.08
3.60750	5.08
3.62417	5.08
3.64083	5.08
3.65750	5.08
3.67417	5.08
3.69083	5.08
3.70750	5.08
3.72417	5.08
3.74083	5.08
3.75750	5.08
3.77417	5.08
3.79083	5.08
3.80750	5.08
3.82417	5.08
3.84083	5.08
3.85750	5.08
3.87417	5.08
3.89083	5.08
3.90750	5.08
3.92417	5.08
3.94083	5.08
3.95750	5.08
3.97417	5.08
3.99083	5.08

[Status Trace (Linear Velocity)]
Interval(msec)	1000
# of Points	240
Start Time(min)	0.008
End Time(min)	3.991
Intensity Units	
Intensity Multiplier	1
R.Time (min)	Intensity
0.00750	39.02
0.02417	37.33
0.04083	38.41
0.05750	39.74
0.07417	40.03
0.09083	39.07
0.10750	39.00
0.12417	39.02
0.14083	39.02
0.15750	39.02
0.17417	39.02
0.19083	39.02
0.20750	39.02
0.22417	39.02
0.24083	39.02
0.25750	39.02
0.27417	39.02
0.29083	39.02
0.30750	39.02
0.32417	39.02
0.34083	39.02
0.35750	39.02
0.37417	39.02
0.39083	39.02
0.40750	39.02
0.42417	39.02
0.44083	39.02
0.45750	39.02
0.47417	39.02
0.49083	39.02
0.50750	39.02
0.52417	39.02
0.54083	39.02
0.55750	39.02
0.57417	39.02
0.59083	39.02
0.60750	39.02
0.62417	39.02
0.64083	39.02
0.65750	39.02
0.67417	39.02
0.69083	39.02
0.70750	39.02
0.72417	39.02
0.74083	39.02
0.75750	39.02
0.77417	39.02
0.79083	39.02
0.80750	39.02
0.82417	39.02
0.84083	39.02
0.85750	39.02
0.87417	39.02
0.89083	39.02
0.90750	39.02
0.92417	39.02
0.94083	39.02
0.95750	39.01
0.97417	39.01
0.99083	39.01
1.00750	39.01
1.02417	39.01
1.04083	39.02
1.05750	39.02
1.07417	39.02
1.09083	39.02
1.10750	39.02
1.12417	39.02
1.14083	39.02
1.15750	39.02
1.17417	39.02
1.19083	39.02
1.20750	39.02
1.22417	39.02
1.24083	39.02
1.25750	39.02
1.27417	39.02
1.29083	39.02
1.30750	39.02
1.32417	39.02
1.34083	39.02
1.35750	39.02
1.37417	39.02
1.39083	39.02
1.40750	39.02
1.42417	39.02
1.44083	39.02
1.45750	39.02
1.47417	39.02
1.49083	39.02
1.50750	39.02
1.52417	39.02
1.54083	39.02
1.55750	39.02
1.57417	39.02
1.59083	39.02
1.60750	39.01
1.62417	39.00
1.64083	38.99
1.65750	38.97
1.67417	38.93
1.69083	38.89
1.70750	38.86
1.72417	38.83
1.74083	38.80
1.75750	38.77
1.77417	38.73
1.79083	38.70
1.80750	38.67
1.82417	38.64
1.84083	38.61
1.85750	38.58
1.87417	38.54
1.89083	38.51
1.90750	38.48
1.92417	38.45
1.94083	38.42
1.95750	38.39
1.97417	38.36
1.99083	38.33
2.00750	38.30
2.02417	38.27
2.04083	38.24
2.05750	38.21
2.07417	38.18
2.09083	38.15
2.10750	38.12
2.12417	38.09
2.14083	38.06
2.15750	38.03
2.17417	38.00
2.19083	37.97
2.20750	37.95
2.22417	37.92
2.24083	37.89
2.25750	37.86
2.27417	37.83
2.29083	37.80
2.30750	37.77
2.32417	37.74
2.34083	37.71
2.35750	37.69
2.37417	37.66
2.39083	37.65
2.40750	37.66
2.42417	37.66
2.44083	37.66
2.45750	37.66
2.47417	37.66
2.49083	37.66
2.50750	37.65
2.52417	37.64
2.54083	37.65
2.55750	37.65
2.57417	37.65
2.59083	37.65
2.60750	37.65
2.62417	37.65
2.64083	37.65
2.65750	37.65
2.67417	37.65
2.69083	37.65
2.70750	37.65
2.72417	37.65
2.74083	37.65
2.75750	37.65
2.77417	37.65
2.79083	37.65
2.80750	37.65
2.82417	37.64
2.84083	37.64
2.85750	37.64
2.87417	37.64
2.89083	37.64
2.90750	37.64
2.92417	37.63
2.94083	37.63
2.95750	37.63
2.97417	37.63
2.99083	37.63
3.00750	37.63
3.02417	37.63
3.04083	37.63
3.05750	37.63
3.07417	37.63
3.09083	37.62
3.10750	37.62
3.12417	37.62
3.14083	37.63
3.15750	37.63
3.17417	37.63
3.19083	37.63
3.20750	37.63
3.22417	37.63
3.24083	37.63
3.25750	37.63
3.27417	37.63
3.29083	37.63
3.30750	37.63
3.32417	37.63
3.34083	37.63
3.35750	37.63
3.37417	37.63
3.39083	37.63
3.40750	37.63
3.42417	37.63
3.44083	37.63
3.45750	37.63
3.47417	37.63
3.49083	37.63
3.50750	37.63
3.52417	37.63
3.54083	37.63
3.55750	37.63
3.57417	37.63
3.59083	37.63
3.60750	37.63
3.62417	37.63
3.64083	37.63
3.65750	37.63
3.67417	37.63
3.69083	37.63
3.70750	37.63
3.72417	37.63
3.74083	37.63
3.75750	37.63
3.77417	37.63
3.79083	37.63
3.80750	37.63
3.82417	37.63
3.84083	37.63
3.85750	37.63
3.87417	37.63
3.89083	37.63
3.90750	37.63
3.92417	37.63
3.94083	37.63
3.95750	37.63
3.97417	37.63
3.99083	37.63

