[Header]
Application Name	LabSolutions
Version	5.110
Data File Name	C:\Users\User\Desktop\GC Analyses\Jack\UIC Prairie Sampling\9.16.22\220916_047.gcd
Output Date	11/29/2022
Output Time	11:10:18 AM

[File Information]
Type	Data File
Generated	11/15/2022 10:16:39 AM
Generated by	System Administrator
Modified	11/15/2022 10:20:57 AM
Modified by	System Administrator

[Sample Information]
Operator Name	System Administrator
Acquired	11/15/2022 10:16:56 AM
Sample Type	1:Standard
Level	1
Sample Name	220916_UICPrairie
Sample ID	220916_UICPrairie
ISTD Amount1	1
ISTD Amount2	1
ISTD Amount3	1
ISTD Amount4	1
ISTD Amount5	1
ISTD Amount6	1
ISTD Amount7	1
ISTD Amount8	1
ISTD Amount9	1
ISTD Amount10	1
ISTD Amount11	1
ISTD Amount12	1
ISTD Amount13	1
ISTD Amount14	1
ISTD Amount15	1
ISTD Amount16	1
ISTD Amount17	1
ISTD Amount18	1
ISTD Amount19	1
ISTD Amount20	1
ISTD Amount21	1
ISTD Amount22	1
ISTD Amount23	1
ISTD Amount24	1
ISTD Amount25	1
ISTD Amount26	1
ISTD Amount27	1
ISTD Amount28	1
ISTD Amount29	1
ISTD Amount30	1
ISTD Amount31	1
ISTD Amount32	1
Sample Amount	1
Dilution Factor	1
Vial#	1
Injection Volume	1
Injection Count	1
Bar Code	

[Original Files]
Data File	C:\Users\User\Desktop\GC Analyses\Jack\UIC Prairie Sampling\9.16.22\220916_047.gcd
Method File	C:\LabSolutions\Data\GHG_4min_2022\ghg3_togas_w_acet_4 min_new_int.gcm
Batch File	
Report Format File	c:\LabSolutions\System\DEFAULT.lsr

[File Description]


[Configuration]
Instrument Name	C0B7VH3-Instrument1
Instrument #	1
Line #	1
# of Detectors	3
Detector ID	DET#1	DET#2	DET#3
Detector Name	FID	PTCD	ECD
# of Channels	1	1	1

[Peak Table(Ch1)]
# of Peaks	3
Peak#	R.Time	I.Time	F.Time	Area	Height	A/H	Conc.	Mark	ID#	Name	k'	Plate #	Plate Ht.	Tailing	Resolution	Sep.Factor	Area Ratio	Height Ratio	Conc. %	Norm Conc.
1	1.479	1.439	1.538	15908	7181	2.215	100.000	   	1	CO	0.000	8500	17.648	1.191	0.000	0.000	0	0	16.667	16.667
2	1.571	1.538	1.648	5249	2556	2.053	100.000	 V 	2	CH4	0.062	10884	13.781	0.000	1.474	0.000	0	0	16.667	16.667
3	2.000	1.949	2.356	1454578	700303	2.077	400.000	   	3	CO2	0.352	17650	8.499	1.229	7.123	5.680	0	0	66.667	66.667

[Peak Table(Ch2)]
# of Peaks	0

[Peak Table(Ch3)]
# of Peaks	4
Peak#	R.Time	I.Time	F.Time	Area	Height	A/H	Conc.	Mark	ID#	Name	k'	Plate #	Plate Ht.	Tailing	Resolution	Sep.Factor	Area Ratio	Height Ratio	Conc. %	Norm Conc.
1	2.458	2.253	2.513	601	136	4.430	0.000	   			0.000	11358	13.206	0.000	0.000	0.000	0	0	0.000	0.000
2	2.609	2.513	2.653	2683	549	4.885	0.000	 V 			0.061	3814	39.331	0.000	1.151	0.000	0	0	0.000	0.000
3	2.744	2.653	2.818	4676	512	9.130	0.112	 V 	1	N2O	0.116	27	5511.697	0.000	0.119	1.902	0	0	11.208	11.208
4	2.884	2.818	3.877	37046	5844	6.339	0.888	 V 	1	N2O	0.173	11567	12.968	0.000	0.126	1.487	0	0	88.792	88.792

[Compound Results(Ch1)]
# of IDs	6
ID#	Name	R.Time	Area	Height	Conc.	Curve	3rd	2nd	1st	Constant	Area Ratio	Height Ratio	Conc. %	Norm Conc.
1	CO	1.479	15908	7181	100.000	Linear	0.000000e+00	0.000000e+00	1.590779e+002	0.000000e+00	0	0	16.667	16.667
2	CH4	1.571	5249	2556	100.000	Linear	0.000000e+00	0.000000e+00	5.248622e+001	0.000000e+00	0	0	16.667	16.667
3	CO2	2.000	1454578	700303	400.000	Linear	0.000000e+00	0.000000e+00	3.636446e+003	0.000000e+00	0	0	66.667	66.667
4	Ethylene	0.000	0	0	0.000	Linear	0.000000e+00	0.000000e+00	0.000000e+00	0.000000e+00	0	0	0.000	0.000
5	Acetylene	0.000	0	0	0.000	Linear	0.000000e+00	0.000000e+00	0.000000e+00	0.000000e+00	0	0	0.000	0.000
6	Ethane	0.000	0	0	0.000	Linear	0.000000e+00	0.000000e+00	0.000000e+00	0.000000e+00	0	0	0.000	0.000

[Compound Results(Ch2)]
# of IDs	5
ID#	Name	R.Time	Area	Height	Conc.	Curve	3rd	2nd	1st	Constant	Area Ratio	Height Ratio	Conc. %	Norm Conc.
1	Hydrogen	0.000	0	0	0.000	Linear	0.000000e+00	0.000000e+00	0.000000e+00	0.000000e+00	0	0	0.000	0.000
2	Oxygen	0.000	0	0	0.000	Linear	0.000000e+00	0.000000e+00	0.000000e+00	0.000000e+00	0	0	0.000	0.000
3	Nitrogen	0.000	0	0	0.000	Linear	0.000000e+00	0.000000e+00	0.000000e+00	0.000000e+00	0	0	0.000	0.000
4	Methane	0.000	0	0	0.000	Linear	0.000000e+00	0.000000e+00	0.000000e+00	0.000000e+00	0	0	0.000	0.000
5	Carbon Monoxide	0.000	0	0	0.000	Linear	0.000000e+00	0.000000e+00	0.000000e+00	0.000000e+00	0	0	0.000	0.000

[Compound Results(Ch3)]
# of IDs	2
ID#	Name	R.Time	Area	Height	Conc.	Curve	3rd	2nd	1st	Constant	Area Ratio	Height Ratio	Conc. %	Norm Conc.
1	N2O	2.884	41723	6356	1.000	Linear	0.000000e+00	0.000000e+00	4.172271e+004	0.000000e+00	0	0	100.000	100.000
2	SF6	0.000	0	0	0.000	Linear	0.000000e+00	0.000000e+00	0.000000e+00	0.000000e+00	0	0	0.000	0.000

[Group Results(Ch1)]
# of Groups	0

[Group Results(Ch2)]
# of Groups	0

[Group Results(Ch3)]
# of Groups	0

[Chromatogram (Ch1)]
Interval(msec)	220
# of Points	1091
Start Time(min)	0.002
End Time(min)	3.998
R.Time (min)	Intensity
0.00167	-8
0.00533	-12
0.00900	-14
0.01267	-16
0.01633	-17
0.02000	-21
0.02367	-25
0.02733	-27
0.03100	-28
0.03467	-29
0.03833	-32
0.04200	-36
0.04567	-38
0.04933	-35
0.05300	-31
0.05667	-28
0.06033	-25
0.06400	-24
0.06767	-25
0.07133	-29
0.07500	-34
0.07867	-39
0.08233	-42
0.08600	-41
0.08967	-38
0.09333	-31
0.09700	-25
0.10067	-19
0.10433	-15
0.10800	-13
0.11167	-16
0.11533	-19
0.11900	-22
0.12267	-27
0.12633	-33
0.13000	-38
0.13367	-39
0.13733	-35
0.14100	-31
0.14467	-30
0.14833	-34
0.15200	-37
0.15567	-39
0.15933	-40
0.16300	-38
0.16667	-34
0.17033	-33
0.17400	-33
0.17767	-32
0.18133	-31
0.18500	-31
0.18867	-34
0.19233	-35
0.19600	-34
0.19967	-31
0.20333	-29
0.20700	-28
0.21067	-35
0.21433	-39
0.21800	-40
0.22167	-38
0.22533	-35
0.22900	-35
0.23267	-37
0.23633	-42
0.24000	-46
0.24367	-47
0.24733	-47
0.25100	-47
0.25467	-44
0.25833	-39
0.26200	-34
0.26567	-30
0.26933	-27
0.27300	-27
0.27667	-28
0.28033	-26
0.28400	-26
0.28767	-31
0.29133	-40
0.29500	-49
0.29867	-57
0.30233	-60
0.30600	-57
0.30967	-52
0.31333	-50
0.31700	-49
0.32067	-46
0.32433	-47
0.32800	-49
0.33167	-50
0.33533	-46
0.33900	-41
0.34267	-35
0.34633	-31
0.35000	-30
0.35367	-35
0.35733	-45
0.36100	-53
0.36467	-58
0.36833	-61
0.37200	-64
0.37567	-67
0.37933	-68
0.38300	-68
0.38667	-68
0.39033	-65
0.39400	-60
0.39767	-56
0.40133	-54
0.40500	-52
0.40867	-47
0.41233	-45
0.41600	-46
0.41967	-49
0.42333	-50
0.42700	-48
0.43067	-44
0.43433	-41
0.43800	-39
0.44167	-39
0.44533	-44
0.44900	-49
0.45267	-55
0.45633	-58
0.46000	-59
0.46367	-59
0.46733	-61
0.47100	-64
0.47467	-65
0.47833	-67
0.48200	-69
0.48567	-72
0.48933	-72
0.49300	-68
0.49667	-61
0.50033	-54
0.50400	-49
0.50767	-47
0.51133	-47
0.51500	-47
0.51867	-45
0.52233	-42
0.52600	-40
0.52967	-40
0.53333	-42
0.53700	-44
0.54067	-47
0.54433	-53
0.54800	-60
0.55167	-68
0.55533	-72
0.55900	-72
0.56267	-69
0.56633	-67
0.57000	-63
0.57367	-59
0.57733	-56
0.58100	-53
0.58467	-48
0.58833	-41
0.59200	-37
0.59567	-38
0.59933	-44
0.60300	-50
0.60667	-58
0.61033	-63
0.61400	-64
0.61767	-63
0.62133	-62
0.62500	-61
0.62867	-60
0.63233	-59
0.63600	-59
0.63967	-59
0.64333	-56
0.64700	-53
0.65067	-51
0.65433	-49
0.65800	-49
0.66167	-48
0.66533	-48
0.66900	-49
0.67267	-51
0.67633	-55
0.68000	-56
0.68367	-57
0.68733	-58
0.69100	-61
0.69467	-61
0.69833	-60
0.70200	-58
0.70567	-52
0.70933	-44
0.71300	-40
0.71667	-42
0.72033	-49
0.72400	-59
0.72767	-69
0.73133	-74
0.73500	-75
0.73867	-74
0.74233	-71
0.74600	-69
0.74967	-64
0.75333	-59
0.75700	-56
0.76067	-54
0.76433	-54
0.76800	-57
0.77167	-61
0.77533	-68
0.77900	-74
0.78267	-77
0.78633	-75
0.79000	-71
0.79367	-67
0.79733	-65
0.80100	-65
0.80467	-66
0.80833	-66
0.81200	-67
0.81567	-70
0.81933	-70
0.82300	-65
0.82667	-59
0.83033	-54
0.83400	-53
0.83767	-51
0.84133	-50
0.84500	-52
0.84867	-58
0.85233	-64
0.85600	-69
0.85967	-71
0.86333	-71
0.86700	-68
0.87067	-66
0.87433	-64
0.87800	-64
0.88167	-68
0.88533	-71
0.88900	-70
0.89267	-65
0.89633	-61
0.90000	-63
0.90367	-66
0.90733	-70
0.91100	-75
0.91467	-79
0.91833	-79
0.92200	-74
0.92567	-69
0.92933	-64
0.93300	-63
0.93667	-66
0.94033	-72
0.94400	-78
0.94767	-83
0.95133	-83
0.95500	-80
0.95867	-77
0.96233	-76
0.96600	-75
0.96967	-69
0.97333	-61
0.97700	-55
0.98067	-51
0.98433	-49
0.98800	-46
0.99167	-45
0.99533	-47
0.99900	-52
1.00267	-58
1.00633	-64
1.01000	-69
1.01367	-71
1.01733	-72
1.02100	-72
1.02467	-73
1.02833	-73
1.03200	-73
1.03567	-75
1.03933	-78
1.04300	-79
1.04667	-80
1.05033	-78
1.05400	-73
1.05767	-67
1.06133	-61
1.06500	-56
1.06867	-52
1.07233	-50
1.07600	-54
1.07967	-64
1.08333	-74
1.08700	-81
1.09067	-88
1.09433	-92
1.09800	-93
1.10167	-92
1.10533	-90
1.10900	-87
1.11267	-86
1.11633	-86
1.12000	-85
1.12367	-82
1.12733	-80
1.13100	-78
1.13467	-76
1.13833	-76
1.14200	-78
1.14567	-79
1.14933	-77
1.15300	-74
1.15667	-71
1.16033	-68
1.16400	-65
1.16767	-64
1.17133	-64
1.17500	-65
1.17867	-66
1.18233	-69
1.18600	-70
1.18967	-69
1.19333	-69
1.19700	-73
1.20067	-78
1.20433	-81
1.20800	-82
1.21167	-84
1.21533	-86
1.21900	-86
1.22267	-83
1.22633	-79
1.23000	-79
1.23367	-82
1.23733	-85
1.24100	-87
1.24467	-89
1.24833	-91
1.25200	-91
1.25567	-90
1.25933	-88
1.26300	-87
1.26667	-85
1.27033	-81
1.27400	-77
1.27767	-75
1.28133	-78
1.28500	-81
1.28867	-81
1.29233	-80
1.29600	-81
1.29967	-83
1.30333	-86
1.30700	-86
1.31067	-84
1.31433	-79
1.31800	-70
1.32167	-62
1.32533	-57
1.32900	-59
1.33267	-71
1.33633	-85
1.34000	-98
1.34367	-106
1.34733	-110
1.35100	-111
1.35467	-109
1.35833	-107
1.36200	-104
1.36567	-100
1.36933	-96
1.37300	-92
1.37667	-88
1.38033	-82
1.38400	-75
1.38767	-68
1.39133	-66
1.39500	-65
1.39867	-68
1.40233	-73
1.40600	-79
1.40967	-82
1.41333	-79
1.41700	-74
1.42067	-72
1.42433	-71
1.42800	-73
1.43167	-76
1.43533	-79
1.43900	-75
1.44267	-27
1.44633	143
1.45000	485
1.45367	1091
1.45733	2075
1.46100	3349
1.46467	4650
1.46833	5754
1.47200	6562
1.47567	7028
1.47933	7101
1.48300	6745
1.48667	6001
1.49033	5009
1.49400	3956
1.49767	2993
1.50133	2195
1.50500	1576
1.50867	1118
1.51233	789
1.51600	554
1.51967	383
1.52333	259
1.52700	172
1.53067	112
1.53433	71
1.53800	49
1.54167	65
1.54533	171
1.54900	433
1.55267	848
1.55633	1332
1.56000	1784
1.56367	2141
1.56733	2377
1.57100	2467
1.57467	2380
1.57833	2119
1.58200	1738
1.58567	1323
1.58933	943
1.59300	635
1.59667	407
1.60033	246
1.60400	138
1.60767	67
1.61133	20
1.61500	-9
1.61867	-28
1.62233	-40
1.62600	-51
1.62967	-61
1.63333	-70
1.63700	-79
1.64067	-87
1.64433	-94
1.64800	-98
1.65167	-101
1.65533	-100
1.65900	-96
1.66267	-90
1.66633	-85
1.67000	-81
1.67367	-81
1.67733	-84
1.68100	-89
1.68467	-92
1.68833	-94
1.69200	-97
1.69567	-97
1.69933	-95
1.70300	-93
1.70667	-91
1.71033	-90
1.71400	-92
1.71767	-93
1.72133	-91
1.72500	-88
1.72867	-88
1.73233	-89
1.73600	-88
1.73967	-88
1.74333	-89
1.74700	-90
1.75067	-91
1.75433	-95
1.75800	-98
1.76167	-99
1.76533	-97
1.76900	-96
1.77267	-97
1.77633	-97
1.78000	-94
1.78367	-89
1.78733	-87
1.79100	-85
1.79467	-85
1.79833	-84
1.80200	-84
1.80567	-83
1.80933	-84
1.81300	-89
1.81667	-100
1.82033	-111
1.82400	-117
1.82767	-117
1.83133	-112
1.83500	-108
1.83867	-107
1.84233	-110
1.84600	-115
1.84967	-116
1.85333	-113
1.85700	-110
1.86067	-111
1.86433	-116
1.86800	-120
1.87167	-123
1.87533	-121
1.87900	-114
1.88267	-102
1.88633	-90
1.89000	-83
1.89367	-83
1.89733	-89
1.90100	-96
1.90467	-100
1.90833	-106
1.91200	-108
1.91567	-108
1.91933	-108
1.92300	-109
1.92667	-109
1.93033	-107
1.93400	-103
1.93767	-102
1.94133	-103
1.94500	-101
1.94867	-95
1.95233	-83
1.95600	-41
1.95967	185
1.96333	1369
1.96700	6275
1.97067	21742
1.97433	59195
1.97800	129960
1.98167	235929
1.98533	364695
1.98900	494491
1.99267	603550
1.99633	675409
2.00000	700239
2.00367	675570
2.00733	608044
2.01100	512491
2.01467	407155
2.01833	307720
2.02200	223672
2.02567	158134
2.02933	109916
2.03300	75853
2.03667	52424
2.04033	36568
2.04400	25925
2.04767	18787
2.05133	13970
2.05500	10675
2.05867	8383
2.06233	6758
2.06600	5577
2.06967	4701
2.07333	4038
2.07700	3523
2.08067	3112
2.08433	2778
2.08800	2500
2.09167	2268
2.09533	2073
2.09900	1907
2.10267	1765
2.10633	1642
2.11000	1536
2.11367	1441
2.11733	1351
2.12100	1268
2.12467	1193
2.12833	1128
2.13200	1067
2.13567	1009
2.13933	956
2.14300	911
2.14667	872
2.15033	834
2.15400	796
2.15767	761
2.16133	730
2.16500	702
2.16867	676
2.17233	651
2.17600	627
2.17967	604
2.18333	583
2.18700	560
2.19067	540
2.19433	523
2.19800	507
2.20167	491
2.20533	476
2.20900	461
2.21267	446
2.21633	431
2.22000	415
2.22367	402
2.22733	391
2.23100	383
2.23467	376
2.23833	368
2.24200	359
2.24567	350
2.24933	339
2.25300	323
2.25667	302
2.26033	285
2.26400	273
2.26767	265
2.27133	263
2.27500	264
2.27867	268
2.28233	269
2.28600	265
2.28967	256
2.29333	242
2.29700	231
2.30067	223
2.30433	216
2.30800	209
2.31167	202
2.31533	196
2.31900	194
2.32267	193
2.32633	195
2.33000	201
2.33367	208
2.33733	209
2.34100	201
2.34467	188
2.34833	174
2.35200	161
2.35567	151
2.35933	145
2.36300	143
2.36667	146
2.37033	149
2.37400	154
2.37767	157
2.38133	159
2.38500	156
2.38867	152
2.39233	149
2.39600	147
2.39967	146
2.40333	143
2.40700	138
2.41067	133
2.41433	130
2.41800	131
2.42167	137
2.42533	142
2.42900	145
2.43267	145
2.43633	146
2.44000	145
2.44367	142
2.44733	135
2.45100	130
2.45467	124
2.45833	120
2.46200	117
2.46567	116
2.46933	114
2.47300	111
2.47667	110
2.48033	110
2.48400	107
2.48767	103
2.49133	99
2.49500	92
2.49867	86
2.50233	84
2.50600	84
2.50967	85
2.51333	89
2.51700	93
2.52067	97
2.52433	102
2.52800	105
2.53167	109
2.53533	112
2.53900	115
2.54267	113
2.54633	109
2.55000	107
2.55367	104
2.55733	101
2.56100	94
2.56467	85
2.56833	76
2.57200	67
2.57567	60
2.57933	58
2.58300	60
2.58667	63
2.59033	67
2.59400	69
2.59767	70
2.60133	70
2.60500	73
2.60867	78
2.61233	82
2.61600	83
2.61967	83
2.62333	81
2.62700	76
2.63067	70
2.63433	65
2.63800	66
2.64167	71
2.64533	78
2.64900	84
2.65267	86
2.65633	82
2.66000	77
2.66367	73
2.66733	69
2.67100	64
2.67467	59
2.67833	56
2.68200	54
2.68567	55
2.68933	59
2.69300	63
2.69667	66
2.70033	64
2.70400	56
2.70767	46
2.71133	43
2.71500	43
2.71867	46
2.72233	50
2.72600	55
2.72967	58
2.73333	55
2.73700	53
2.74067	54
2.74433	56
2.74800	58
2.75167	57
2.75533	53
2.75900	49
2.76267	47
2.76633	46
2.77000	48
2.77367	53
2.77733	61
2.78100	71
2.78467	79
2.78833	83
2.79200	84
2.79567	82
2.79933	78
2.80300	71
2.80667	62
2.81033	55
2.81400	52
2.81767	51
2.82133	50
2.82500	49
2.82867	48
2.83233	50
2.83600	53
2.83967	54
2.84333	54
2.84700	55
2.85067	55
2.85433	55
2.85800	54
2.86167	51
2.86533	52
2.86900	57
2.87267	65
2.87633	69
2.88000	67
2.88367	61
2.88733	59
2.89100	61
2.89467	64
2.89833	67
2.90200	66
2.90567	63
2.90933	61
2.91300	63
2.91667	65
2.92033	67
2.92400	67
2.92767	64
2.93133	63
2.93500	65
2.93867	67
2.94233	65
2.94600	64
2.94967	64
2.95333	63
2.95700	62
2.96067	60
2.96433	57
2.96800	56
2.97167	60
2.97533	64
2.97900	67
2.98267	69
2.98633	72
2.99000	74
2.99367	75
2.99733	76
3.00100	77
3.00467	79
3.00833	82
3.01200	90
3.01567	100
3.01933	109
3.02300	113
3.02667	113
3.03033	108
3.03400	99
3.03767	90
3.04133	82
3.04500	73
3.04867	65
3.05233	62
3.05600	63
3.05967	62
3.06333	57
3.06700	53
3.07067	53
3.07433	55
3.07800	60
3.08167	63
3.08533	65
3.08900	64
3.09267	63
3.09633	59
3.10000	57
3.10367	57
3.10733	58
3.11100	56
3.11467	53
3.11833	52
3.12200	55
3.12567	58
3.12933	61
3.13300	63
3.13667	64
3.14033	64
3.14400	66
3.14767	69
3.15133	73
3.15500	78
3.15867	80
3.16233	78
3.16600	72
3.16967	67
3.17333	65
3.17700	67
3.18067	71
3.18433	75
3.18800	78
3.19167	78
3.19533	79
3.19900	82
3.20267	83
3.20633	81
3.21000	79
3.21367	80
3.21733	81
3.22100	80
3.22467	81
3.22833	83
3.23200	86
3.23567	87
3.23933	84
3.24300	77
3.24667	72
3.25033	70
3.25400	69
3.25767	67
3.26133	65
3.26500	64
3.26867	68
3.27233	73
3.27600	73
3.27967	72
3.28333	69
3.28700	69
3.29067	72
3.29433	78
3.29800	83
3.30167	88
3.30533	93
3.30900	97
3.31267	96
3.31633	87
3.32000	76
3.32367	66
3.32733	59
3.33100	55
3.33467	54
3.33833	59
3.34200	67
3.34567	72
3.34933	74
3.35300	76
3.35667	81
3.36033	82
3.36400	81
3.36767	79
3.37133	76
3.37500	72
3.37867	69
3.38233	67
3.38600	68
3.38967	70
3.39333	73
3.39700	75
3.40067	75
3.40433	76
3.40800	75
3.41167	69
3.41533	60
3.41900	55
3.42267	54
3.42633	55
3.43000	57
3.43367	56
3.43733	53
3.44100	49
3.44467	47
3.44833	47
3.45200	51
3.45567	59
3.45933	68
3.46300	75
3.46667	77
3.47033	73
3.47400	64
3.47767	54
3.48133	47
3.48500	47
3.48867	53
3.49233	57
3.49600	58
3.49967	59
3.50333	57
3.50700	58
3.51067	60
3.51433	64
3.51800	66
3.52167	66
3.52533	62
3.52900	59
3.53267	57
3.53633	57
3.54000	61
3.54367	68
3.54733	74
3.55100	80
3.55467	85
3.55833	87
3.56200	85
3.56567	78
3.56933	69
3.57300	57
3.57667	46
3.58033	40
3.58400	42
3.58767	47
3.59133	51
3.59500	49
3.59867	44
3.60233	42
3.60600	43
3.60967	46
3.61333	50
3.61700	53
3.62067	56
3.62433	58
3.62800	57
3.63167	56
3.63533	57
3.63900	61
3.64267	63
3.64633	62
3.65000	62
3.65367	62
3.65733	59
3.66100	56
3.66467	56
3.66833	56
3.67200	52
3.67567	45
3.67933	42
3.68300	45
3.68667	47
3.69033	45
3.69400	43
3.69767	45
3.70133	48
3.70500	50
3.70867	52
3.71233	53
3.71600	52
3.71967	51
3.72333	50
3.72700	48
3.73067	45
3.73433	41
3.73800	37
3.74167	36
3.74533	38
3.74900	41
3.75267	43
3.75633	44
3.76000	43
3.76367	42
3.76733	42
3.77100	44
3.77467	50
3.77833	57
3.78200	63
3.78567	70
3.78933	73
3.79300	72
3.79667	68
3.80033	60
3.80400	54
3.80767	52
3.81133	55
3.81500	59
3.81867	62
3.82233	65
3.82600	65
3.82967	64
3.83333	60
3.83700	55
3.84067	52
3.84433	52
3.84800	52
3.85167	47
3.85533	36
3.85900	24
3.86267	17
3.86633	15
3.87000	16
3.87367	20
3.87733	23
3.88100	24
3.88467	24
3.88833	31
3.89200	43
3.89567	50
3.89933	49
3.90300	42
3.90667	35
3.91033	31
3.91400	28
3.91767	26
3.92133	28
3.92500	29
3.92867	32
3.93233	36
3.93600	38
3.93967	37
3.94333	39
3.94700	42
3.95067	39
3.95433	33
3.95800	30
3.96167	32
3.96533	35
3.96900	35
3.97267	29
3.97633	22
3.98000	16
3.98367	13
3.98733	16
3.99100	23
3.99467	32
3.99833	39

[Chromatogram (Ch2)]
Interval(msec)	220
# of Points	1091
Start Time(min)	0.002
End Time(min)	3.998
R.Time (min)	Intensity
0.00167	-1
0.00533	-1
0.00900	-1
0.01267	-1
0.01633	-1
0.02000	-1
0.02367	-1
0.02733	-1
0.03100	-1
0.03467	-1
0.03833	-1
0.04200	-1
0.04567	-1
0.04933	-1
0.05300	-1
0.05667	-1
0.06033	-1
0.06400	-1
0.06767	-1
0.07133	-1
0.07500	-0
0.07867	0
0.08233	1
0.08600	1
0.08967	1
0.09333	1
0.09700	1
0.10067	0
0.10433	0
0.10800	1
0.11167	1
0.11533	1
0.11900	1
0.12267	1
0.12633	1
0.13000	1
0.13367	2
0.13733	2
0.14100	2
0.14467	2
0.14833	2
0.15200	2
0.15567	2
0.15933	2
0.16300	2
0.16667	2
0.17033	2
0.17400	2
0.17767	2
0.18133	1
0.18500	1
0.18867	1
0.19233	0
0.19600	0
0.19967	-0
0.20333	-0
0.20700	-0
0.21067	-1
0.21433	-1
0.21800	-1
0.22167	-1
0.22533	-1
0.22900	-1
0.23267	-2
0.23633	-2
0.24000	-2
0.24367	-2
0.24733	-2
0.25100	-1
0.25467	-1
0.25833	-1
0.26200	-0
0.26567	0
0.26933	0
0.27300	0
0.27667	1
0.28033	1
0.28400	1
0.28767	1
0.29133	0
0.29500	1
0.29867	0
0.30233	0
0.30600	0
0.30967	0
0.31333	-0
0.31700	-0
0.32067	-0
0.32433	-0
0.32800	-0
0.33167	-0
0.33533	-0
0.33900	-0
0.34267	-0
0.34633	0
0.35000	0
0.35367	0
0.35733	0
0.36100	0
0.36467	0
0.36833	0
0.37200	1
0.37567	1
0.37933	1
0.38300	1
0.38667	2
0.39033	2
0.39400	2
0.39767	2
0.40133	2
0.40500	2
0.40867	2
0.41233	2
0.41600	2
0.41967	2
0.42333	2
0.42700	2
0.43067	1
0.43433	1
0.43800	1
0.44167	0
0.44533	-0
0.44900	-1
0.45267	-1
0.45633	-1
0.46000	-2
0.46367	-2
0.46733	-2
0.47100	-2
0.47467	-2
0.47833	-1
0.48200	-1
0.48567	-1
0.48933	-1
0.49300	-1
0.49667	-1
0.50033	-1
0.50400	-1
0.50767	-1
0.51133	-1
0.51500	-1
0.51867	-1
0.52233	-1
0.52600	-1
0.52967	-1
0.53333	-1
0.53700	-1
0.54067	-1
0.54433	-1
0.54800	-1
0.55167	-0
0.55533	-0
0.55900	-0
0.56267	-0
0.56633	-0
0.57000	-0
0.57367	-0
0.57733	-0
0.58100	-0
0.58467	-0
0.58833	-1
0.59200	-1
0.59567	-0
0.59933	-0
0.60300	-0
0.60667	0
0.61033	0
0.61400	0
0.61767	-0
0.62133	-0
0.62500	-1
0.62867	-1
0.63233	-1
0.63600	-1
0.63967	-2
0.64333	-2
0.64700	-2
0.65067	-2
0.65433	-2
0.65800	-2
0.66167	-2
0.66533	-2
0.66900	-1
0.67267	-1
0.67633	-1
0.68000	-1
0.68367	-1
0.68733	-0
0.69100	-0
0.69467	-0
0.69833	-0
0.70200	-0
0.70567	0
0.70933	0
0.71300	-0
0.71667	-0
0.72033	-1
0.72400	-1
0.72767	-1
0.73133	-1
0.73500	-1
0.73867	-1
0.74233	-0
0.74600	-0
0.74967	-0
0.75333	-0
0.75700	-0
0.76067	-0
0.76433	0
0.76800	0
0.77167	0
0.77533	-0
0.77900	-0
0.78267	-0
0.78633	-0
0.79000	0
0.79367	-0
0.79733	-0
0.80100	-0
0.80467	-1
0.80833	-1
0.81200	-1
0.81567	-2
0.81933	-2
0.82300	-3
0.82667	-3
0.83033	-4
0.83400	-4
0.83767	-4
0.84133	-4
0.84500	-4
0.84867	-4
0.85233	-4
0.85600	-4
0.85967	-4
0.86333	-4
0.86700	-4
0.87067	-5
0.87433	-5
0.87800	-5
0.88167	-4
0.88533	-4
0.88900	-4
0.89267	-4
0.89633	-4
0.90000	-4
0.90367	-4
0.90733	-4
0.91100	-3
0.91467	-3
0.91833	-3
0.92200	-2
0.92567	-2
0.92933	-2
0.93300	-2
0.93667	-2
0.94033	-2
0.94400	-2
0.94767	-2
0.95133	-2
0.95500	-2
0.95867	-2
0.96233	-2
0.96600	-2
0.96967	-2
0.97333	-2
0.97700	-2
0.98067	-2
0.98433	-2
0.98800	-2
0.99167	-2
0.99533	-3
0.99900	-3
1.00267	-3
1.00633	-3
1.01000	-3
1.01367	-3
1.01733	-4
1.02100	-4
1.02467	-3
1.02833	-3
1.03200	-3
1.03567	-3
1.03933	-2
1.04300	-2
1.04667	-2
1.05033	-2
1.05400	-1
1.05767	-1
1.06133	-1
1.06500	-1
1.06867	-1
1.07233	-1
1.07600	-1
1.07967	-1
1.08333	-1
1.08700	-1
1.09067	-1
1.09433	-1
1.09800	-1
1.10167	-1
1.10533	-1
1.10900	-1
1.11267	-1
1.11633	-1
1.12000	-1
1.12367	-1
1.12733	-1
1.13100	-1
1.13467	-1
1.13833	-1
1.14200	-1
1.14567	-1
1.14933	-2
1.15300	-2
1.15667	-2
1.16033	-2
1.16400	-2
1.16767	-2
1.17133	-2
1.17500	-2
1.17867	-2
1.18233	-2
1.18600	-2
1.18967	-3
1.19333	-3
1.19700	-3
1.20067	-3
1.20433	-4
1.20800	-4
1.21167	-4
1.21533	-4
1.21900	-4
1.22267	-4
1.22633	-4
1.23000	-4
1.23367	-4
1.23733	-4
1.24100	-3
1.24467	-3
1.24833	-3
1.25200	-2
1.25567	-2
1.25933	-2
1.26300	-2
1.26667	-2
1.27033	-3
1.27400	-3
1.27767	-3
1.28133	-3
1.28500	-4
1.28867	-4
1.29233	-5
1.29600	-5
1.29967	-6
1.30333	-6
1.30700	-6
1.31067	-6
1.31433	-6
1.31800	-7
1.32167	-7
1.32533	-7
1.32900	-6
1.33267	-6
1.33633	-6
1.34000	-6
1.34367	-6
1.34733	-5
1.35100	-5
1.35467	-4
1.35833	-4
1.36200	-4
1.36567	-3
1.36933	-3
1.37300	-2
1.37667	-2
1.38033	-2
1.38400	-1
1.38767	-1
1.39133	-0
1.39500	0
1.39867	1
1.40233	1
1.40600	1
1.40967	1
1.41333	1
1.41700	2
1.42067	2
1.42433	2
1.42800	2
1.43167	2
1.43533	1
1.43900	1
1.44267	1
1.44633	0
1.45000	0
1.45367	-0
1.45733	-0
1.46100	-1
1.46467	-1
1.46833	-1
1.47200	-1
1.47567	-1
1.47933	-1
1.48300	-1
1.48667	-1
1.49033	-1
1.49400	-1
1.49767	-2
1.50133	-2
1.50500	-2
1.50867	-1
1.51233	-1
1.51600	-1
1.51967	-1
1.52333	-1
1.52700	-1
1.53067	-1
1.53433	-1
1.53800	-1
1.54167	-1
1.54533	-1
1.54900	-1
1.55267	-1
1.55633	-1
1.56000	-1
1.56367	-1
1.56733	-2
1.57100	-2
1.57467	-2
1.57833	-2
1.58200	-2
1.58567	-2
1.58933	-2
1.59300	-3
1.59667	-3
1.60033	-4
1.60400	-5
1.60767	-6
1.61133	-7
1.61500	-9
1.61867	-11
1.62233	-14
1.62600	-17
1.62967	-20
1.63333	-24
1.63700	-27
1.64067	-31
1.64433	-35
1.64800	-38
1.65167	-42
1.65533	-46
1.65900	-50
1.66267	-54
1.66633	-59
1.67000	-64
1.67367	-70
1.67733	-75
1.68100	-80
1.68467	-84
1.68833	-88
1.69200	-92
1.69567	-95
1.69933	-98
1.70300	-101
1.70667	-103
1.71033	-105
1.71400	-106
1.71767	-108
1.72133	-109
1.72500	-111
1.72867	-112
1.73233	-113
1.73600	-114
1.73967	-115
1.74333	-116
1.74700	-117
1.75067	-118
1.75433	-119
1.75800	-119
1.76167	-120
1.76533	-120
1.76900	-120
1.77267	-120
1.77633	-120
1.78000	-120
1.78367	-120
1.78733	-120
1.79100	-120
1.79467	-120
1.79833	-121
1.80200	-121
1.80567	-121
1.80933	-122
1.81300	-122
1.81667	-122
1.82033	-122
1.82400	-122
1.82767	-123
1.83133	-123
1.83500	-123
1.83867	-123
1.84233	-123
1.84600	-123
1.84967	-123
1.85333	-123
1.85700	-123
1.86067	-123
1.86433	-123
1.86800	-123
1.87167	-124
1.87533	-124
1.87900	-124
1.88267	-124
1.88633	-124
1.89000	-123
1.89367	-123
1.89733	-122
1.90100	-122
1.90467	-121
1.90833	-121
1.91200	-121
1.91567	-121
1.91933	-120
1.92300	-120
1.92667	-119
1.93033	-119
1.93400	-119
1.93767	-119
1.94133	-119
1.94500	-119
1.94867	-119
1.95233	-118
1.95600	-118
1.95967	-117
1.96333	-117
1.96700	-116
1.97067	-116
1.97433	-116
1.97800	-116
1.98167	-116
1.98533	-116
1.98900	-116
1.99267	-116
1.99633	-115
2.00000	-116
2.00367	-116
2.00733	-116
2.01100	-116
2.01467	-116
2.01833	-116
2.02200	-116
2.02567	-115
2.02933	-115
2.03300	-114
2.03667	-113
2.04033	-112
2.04400	-111
2.04767	-111
2.05133	-110
2.05500	-110
2.05867	-109
2.06233	-109
2.06600	-109
2.06967	-109
2.07333	-110
2.07700	-110
2.08067	-110
2.08433	-110
2.08800	-110
2.09167	-109
2.09533	-109
2.09900	-108
2.10267	-107
2.10633	-106
2.11000	-106
2.11367	-105
2.11733	-105
2.12100	-105
2.12467	-105
2.12833	-105
2.13200	-105
2.13567	-105
2.13933	-105
2.14300	-105
2.14667	-105
2.15033	-104
2.15400	-103
2.15767	-102
2.16133	-101
2.16500	-101
2.16867	-100
2.17233	-100
2.17600	-99
2.17967	-99
2.18333	-99
2.18700	-99
2.19067	-98
2.19433	-98
2.19800	-97
2.20167	-97
2.20533	-97
2.20900	-98
2.21267	-98
2.21633	-98
2.22000	-98
2.22367	-98
2.22733	-98
2.23100	-97
2.23467	-97
2.23833	-96
2.24200	-95
2.24567	-94
2.24933	-94
2.25300	-94
2.25667	-95
2.26033	-96
2.26400	-97
2.26767	-97
2.27133	-97
2.27500	-97
2.27867	-97
2.28233	-96
2.28600	-95
2.28967	-94
2.29333	-93
2.29700	-92
2.30067	-90
2.30433	-89
2.30800	-89
2.31167	-88
2.31533	-88
2.31900	-88
2.32267	-88
2.32633	-88
2.33000	-88
2.33367	-87
2.33733	-87
2.34100	-86
2.34467	-86
2.34833	-86
2.35200	-86
2.35567	-86
2.35933	-85
2.36300	-84
2.36667	-83
2.37033	-81
2.37400	-79
2.37767	-76
2.38133	-73
2.38500	-70
2.38867	-66
2.39233	-62
2.39600	-58
2.39967	-54
2.40333	-49
2.40700	-44
2.41067	-40
2.41433	-36
2.41800	-32
2.42167	-28
2.42533	-25
2.42900	-23
2.43267	-20
2.43633	-18
2.44000	-16
2.44367	-14
2.44733	-12
2.45100	-10
2.45467	-9
2.45833	-8
2.46200	-7
2.46567	-5
2.46933	-4
2.47300	-3
2.47667	-1
2.48033	-0
2.48400	1
2.48767	2
2.49133	2
2.49500	3
2.49867	4
2.50233	4
2.50600	5
2.50967	6
2.51333	6
2.51700	7
2.52067	8
2.52433	9
2.52800	9
2.53167	10
2.53533	10
2.53900	11
2.54267	11
2.54633	12
2.55000	12
2.55367	13
2.55733	13
2.56100	14
2.56467	14
2.56833	14
2.57200	15
2.57567	14
2.57933	14
2.58300	14
2.58667	13
2.59033	13
2.59400	13
2.59767	13
2.60133	13
2.60500	13
2.60867	13
2.61233	13
2.61600	13
2.61967	13
2.62333	12
2.62700	13
2.63067	13
2.63433	14
2.63800	14
2.64167	15
2.64533	15
2.64900	16
2.65267	16
2.65633	16
2.66000	17
2.66367	17
2.66733	17
2.67100	17
2.67467	18
2.67833	18
2.68200	19
2.68567	19
2.68933	19
2.69300	20
2.69667	20
2.70033	20
2.70400	20
2.70767	20
2.71133	21
2.71500	21
2.71867	22
2.72233	22
2.72600	22
2.72967	23
2.73333	23
2.73700	23
2.74067	23
2.74433	23
2.74800	23
2.75167	23
2.75533	23
2.75900	24
2.76267	24
2.76633	24
2.77000	24
2.77367	24
2.77733	24
2.78100	24
2.78467	24
2.78833	23
2.79200	23
2.79567	22
2.79933	21
2.80300	21
2.80667	21
2.81033	20
2.81400	20
2.81767	20
2.82133	20
2.82500	20
2.82867	21
2.83233	21
2.83600	21
2.83967	21
2.84333	22
2.84700	21
2.85067	20
2.85433	17
2.85800	13
2.86167	6
2.86533	-4
2.86900	-17
2.87267	-33
2.87633	-54
2.88000	-78
2.88367	-106
2.88733	-138
2.89100	-174
2.89467	-212
2.89833	-253
2.90200	-297
2.90567	-343
2.90933	-390
2.91300	-438
2.91667	-487
2.92033	-537
2.92400	-586
2.92767	-636
2.93133	-685
2.93500	-734
2.93867	-782
2.94233	-831
2.94600	-883
2.94967	-941
2.95333	-1002
2.95700	-1056
2.96067	-1092
2.96433	-1102
2.96800	-1087
2.97167	-1047
2.97533	-989
2.97900	-919
2.98267	-841
2.98633	-761
2.99000	-681
2.99367	-604
2.99733	-532
3.00100	-465
3.00467	-404
3.00833	-350
3.01200	-301
3.01567	-258
3.01933	-221
3.02300	-188
3.02667	-160
3.03033	-135
3.03400	-114
3.03767	-96
3.04133	-80
3.04500	-67
3.04867	-55
3.05233	-46
3.05600	-37
3.05967	-30
3.06333	-24
3.06700	-19
3.07067	-15
3.07433	-11
3.07800	-8
3.08167	-5
3.08533	-3
3.08900	-0
3.09267	1
3.09633	3
3.10000	5
3.10367	6
3.10733	7
3.11100	8
3.11467	9
3.11833	9
3.12200	10
3.12567	11
3.12933	11
3.13300	12
3.13667	12
3.14033	13
3.14400	14
3.14767	14
3.15133	15
3.15500	15
3.15867	15
3.16233	15
3.16600	16
3.16967	16
3.17333	16
3.17700	16
3.18067	16
3.18433	17
3.18800	17
3.19167	17
3.19533	17
3.19900	17
3.20267	17
3.20633	17
3.21000	17
3.21367	17
3.21733	17
3.22100	18
3.22467	18
3.22833	18
3.23200	18
3.23567	19
3.23933	19
3.24300	19
3.24667	19
3.25033	19
3.25400	19
3.25767	19
3.26133	19
3.26500	19
3.26867	19
3.27233	19
3.27600	19
3.27967	20
3.28333	20
3.28700	20
3.29067	20
3.29433	21
3.29800	21
3.30167	21
3.30533	22
3.30900	22
3.31267	23
3.31633	23
3.32000	23
3.32367	23
3.32733	24
3.33100	24
3.33467	24
3.33833	24
3.34200	25
3.34567	25
3.34933	25
3.35300	25
3.35667	25
3.36033	25
3.36400	25
3.36767	25
3.37133	25
3.37500	25
3.37867	25
3.38233	25
3.38600	25
3.38967	25
3.39333	25
3.39700	25
3.40067	25
3.40433	25
3.40800	25
3.41167	25
3.41533	26
3.41900	26
3.42267	26
3.42633	26
3.43000	26
3.43367	26
3.43733	26
3.44100	26
3.44467	25
3.44833	25
3.45200	25
3.45567	25
3.45933	25
3.46300	25
3.46667	24
3.47033	24
3.47400	24
3.47767	24
3.48133	24
3.48500	24
3.48867	25
3.49233	25
3.49600	25
3.49967	25
3.50333	25
3.50700	25
3.51067	25
3.51433	25
3.51800	25
3.52167	25
3.52533	24
3.52900	24
3.53267	24
3.53633	24
3.54000	24
3.54367	24
3.54733	25
3.55100	25
3.55467	25
3.55833	25
3.56200	25
3.56567	25
3.56933	25
3.57300	25
3.57667	25
3.58033	25
3.58400	24
3.58767	24
3.59133	24
3.59500	24
3.59867	24
3.60233	24
3.60600	24
3.60967	24
3.61333	24
3.61700	24
3.62067	25
3.62433	25
3.62800	25
3.63167	25
3.63533	25
3.63900	25
3.64267	25
3.64633	25
3.65000	24
3.65367	24
3.65733	24
3.66100	24
3.66467	24
3.66833	24
3.67200	24
3.67567	24
3.67933	24
3.68300	24
3.68667	24
3.69033	24
3.69400	24
3.69767	24
3.70133	24
3.70500	24
3.70867	24
3.71233	24
3.71600	24
3.71967	24
3.72333	24
3.72700	24
3.73067	24
3.73433	24
3.73800	24
3.74167	25
3.74533	25
3.74900	25
3.75267	25
3.75633	25
3.76000	25
3.76367	25
3.76733	25
3.77100	24
3.77467	24
3.77833	24
3.78200	24
3.78567	24
3.78933	24
3.79300	24
3.79667	24
3.80033	24
3.80400	24
3.80767	24
3.81133	24
3.81500	24
3.81867	24
3.82233	24
3.82600	24
3.82967	24
3.83333	24
3.83700	24
3.84067	23
3.84433	23
3.84800	23
3.85167	23
3.85533	23
3.85900	23
3.86267	23
3.86633	23
3.87000	23
3.87367	23
3.87733	23
3.88100	23
3.88467	23
3.88833	23
3.89200	23
3.89567	23
3.89933	23
3.90300	23
3.90667	23
3.91033	23
3.91400	23
3.91767	23
3.92133	23
3.92500	23
3.92867	23
3.93233	23
3.93600	23
3.93967	23
3.94333	24
3.94700	24
3.95067	24
3.95433	24
3.95800	24
3.96167	24
3.96533	24
3.96900	24
3.97267	24
3.97633	23
3.98000	23
3.98367	23
3.98733	23
3.99100	23
3.99467	23
3.99833	23

[Chromatogram (Ch3)]
Interval(msec)	220
# of Points	1091
Start Time(min)	0.002
End Time(min)	3.998
R.Time (min)	Intensity
0.00167	1
0.00533	3
0.00900	5
0.01267	6
0.01633	7
0.02000	7
0.02367	5
0.02733	3
0.03100	2
0.03467	3
0.03833	3
0.04200	5
0.04567	7
0.04933	8
0.05300	7
0.05667	6
0.06033	5
0.06400	5
0.06767	5
0.07133	6
0.07500	5
0.07867	4
0.08233	3
0.08600	3
0.08967	4
0.09333	5
0.09700	6
0.10067	3
0.10433	1
0.10800	0
0.11167	2
0.11533	4
0.11900	5
0.12267	4
0.12633	6
0.13000	8
0.13367	8
0.13733	6
0.14100	4
0.14467	6
0.14833	8
0.15200	8
0.15567	8
0.15933	9
0.16300	9
0.16667	8
0.17033	8
0.17400	10
0.17767	11
0.18133	11
0.18500	12
0.18867	12
0.19233	13
0.19600	14
0.19967	15
0.20333	14
0.20700	15
0.21067	15
0.21433	16
0.21800	15
0.22167	11
0.22533	7
0.22900	6
0.23267	9
0.23633	11
0.24000	11
0.24367	12
0.24733	12
0.25100	11
0.25467	13
0.25833	16
0.26200	18
0.26567	17
0.26933	16
0.27300	18
0.27667	18
0.28033	17
0.28400	15
0.28767	14
0.29133	12
0.29500	12
0.29867	15
0.30233	15
0.30600	13
0.30967	12
0.31333	14
0.31700	15
0.32067	14
0.32433	11
0.32800	10
0.33167	9
0.33533	8
0.33900	9
0.34267	10
0.34633	11
0.35000	12
0.35367	12
0.35733	13
0.36100	14
0.36467	14
0.36833	14
0.37200	16
0.37567	15
0.37933	13
0.38300	12
0.38667	10
0.39033	8
0.39400	9
0.39767	11
0.40133	10
0.40500	10
0.40867	11
0.41233	13
0.41600	13
0.41967	14
0.42333	15
0.42700	15
0.43067	17
0.43433	16
0.43800	14
0.44167	12
0.44533	12
0.44900	13
0.45267	12
0.45633	11
0.46000	12
0.46367	13
0.46733	12
0.47100	13
0.47467	15
0.47833	17
0.48200	17
0.48567	17
0.48933	15
0.49300	13
0.49667	10
0.50033	9
0.50400	9
0.50767	10
0.51133	11
0.51500	11
0.51867	13
0.52233	15
0.52600	16
0.52967	16
0.53333	13
0.53700	12
0.54067	12
0.54433	12
0.54800	12
0.55167	13
0.55533	14
0.55900	15
0.56267	16
0.56633	15
0.57000	14
0.57367	13
0.57733	11
0.58100	12
0.58467	13
0.58833	12
0.59200	12
0.59567	12
0.59933	12
0.60300	12
0.60667	11
0.61033	11
0.61400	13
0.61767	16
0.62133	15
0.62500	16
0.62867	15
0.63233	14
0.63600	13
0.63967	15
0.64333	17
0.64700	17
0.65067	16
0.65433	16
0.65800	16
0.66167	18
0.66533	20
0.66900	22
0.67267	22
0.67633	19
0.68000	19
0.68367	19
0.68733	18
0.69100	18
0.69467	17
0.69833	16
0.70200	16
0.70567	17
0.70933	19
0.71300	18
0.71667	17
0.72033	16
0.72400	16
0.72767	17
0.73133	18
0.73500	18
0.73867	17
0.74233	15
0.74600	13
0.74967	11
0.75333	11
0.75700	11
0.76067	11
0.76433	11
0.76800	12
0.77167	15
0.77533	16
0.77900	15
0.78267	13
0.78633	13
0.79000	12
0.79367	13
0.79733	12
0.80100	11
0.80467	10
0.80833	10
0.81200	10
0.81567	11
0.81933	13
0.82300	15
0.82667	15
0.83033	17
0.83400	17
0.83767	17
0.84133	17
0.84500	16
0.84867	18
0.85233	17
0.85600	17
0.85967	16
0.86333	15
0.86700	14
0.87067	14
0.87433	15
0.87800	17
0.88167	18
0.88533	17
0.88900	17
0.89267	19
0.89633	21
0.90000	21
0.90367	20
0.90733	17
0.91100	14
0.91467	12
0.91833	14
0.92200	16
0.92567	16
0.92933	16
0.93300	14
0.93667	14
0.94033	14
0.94400	13
0.94767	14
0.95133	15
0.95500	15
0.95867	15
0.96233	12
0.96600	10
0.96967	9
0.97333	9
0.97700	9
0.98067	10
0.98433	11
0.98800	12
0.99167	14
0.99533	17
0.99900	17
1.00267	16
1.00633	16
1.01000	17
1.01367	18
1.01733	17
1.02100	14
1.02467	14
1.02833	14
1.03200	13
1.03567	15
1.03933	14
1.04300	14
1.04667	14
1.05033	15
1.05400	16
1.05767	16
1.06133	19
1.06500	20
1.06867	19
1.07233	18
1.07600	18
1.07967	19
1.08333	18
1.08700	16
1.09067	15
1.09433	14
1.09800	16
1.10167	18
1.10533	19
1.10900	18
1.11267	18
1.11633	16
1.12000	14
1.12367	15
1.12733	14
1.13100	14
1.13467	14
1.13833	16
1.14200	18
1.14567	17
1.14933	16
1.15300	17
1.15667	17
1.16033	18
1.16400	18
1.16767	16
1.17133	15
1.17500	15
1.17867	13
1.18233	14
1.18600	16
1.18967	16
1.19333	17
1.19700	19
1.20067	19
1.20433	19
1.20800	18
1.21167	17
1.21533	17
1.21900	19
1.22267	18
1.22633	16
1.23000	15
1.23367	14
1.23733	11
1.24100	11
1.24467	14
1.24833	16
1.25200	15
1.25567	15
1.25933	15
1.26300	11
1.26667	7
1.27033	5
1.27400	9
1.27767	13
1.28133	17
1.28500	18
1.28867	17
1.29233	16
1.29600	15
1.29967	14
1.30333	14
1.30700	12
1.31067	13
1.31433	16
1.31800	17
1.32167	19
1.32533	20
1.32900	20
1.33267	18
1.33633	17
1.34000	18
1.34367	19
1.34733	17
1.35100	14
1.35467	13
1.35833	12
1.36200	12
1.36567	12
1.36933	11
1.37300	10
1.37667	12
1.38033	14
1.38400	16
1.38767	15
1.39133	15
1.39500	14
1.39867	15
1.40233	16
1.40600	16
1.40967	14
1.41333	14
1.41700	14
1.42067	13
1.42433	13
1.42800	14
1.43167	15
1.43533	16
1.43900	18
1.44267	20
1.44633	19
1.45000	16
1.45367	15
1.45733	15
1.46100	12
1.46467	11
1.46833	11
1.47200	12
1.47567	13
1.47933	15
1.48300	15
1.48667	15
1.49033	16
1.49400	17
1.49767	14
1.50133	11
1.50500	10
1.50867	8
1.51233	9
1.51600	10
1.51967	10
1.52333	11
1.52700	13
1.53067	13
1.53433	14
1.53800	16
1.54167	16
1.54533	13
1.54900	12
1.55267	11
1.55633	12
1.56000	13
1.56367	13
1.56733	13
1.57100	12
1.57467	10
1.57833	11
1.58200	13
1.58567	14
1.58933	14
1.59300	16
1.59667	17
1.60033	18
1.60400	18
1.60767	17
1.61133	17
1.61500	14
1.61867	12
1.62233	12
1.62600	14
1.62967	14
1.63333	15
1.63700	14
1.64067	14
1.64433	14
1.64800	14
1.65167	15
1.65533	17
1.65900	18
1.66267	19
1.66633	19
1.67000	17
1.67367	18
1.67733	19
1.68100	17
1.68467	16
1.68833	18
1.69200	20
1.69567	22
1.69933	22
1.70300	25
1.70667	25
1.71033	24
1.71400	24
1.71767	23
1.72133	24
1.72500	25
1.72867	24
1.73233	23
1.73600	23
1.73967	24
1.74333	23
1.74700	21
1.75067	21
1.75433	21
1.75800	21
1.76167	22
1.76533	23
1.76900	23
1.77267	26
1.77633	28
1.78000	27
1.78367	28
1.78733	30
1.79100	33
1.79467	33
1.79833	32
1.80200	31
1.80567	31
1.80933	31
1.81300	29
1.81667	28
1.82033	29
1.82400	34
1.82767	35
1.83133	36
1.83500	38
1.83867	38
1.84233	36
1.84600	37
1.84967	36
1.85333	35
1.85700	33
1.86067	33
1.86433	33
1.86800	33
1.87167	34
1.87533	35
1.87900	33
1.88267	34
1.88633	35
1.89000	34
1.89367	34
1.89733	36
1.90100	39
1.90467	41
1.90833	40
1.91200	39
1.91567	38
1.91933	37
1.92300	37
1.92667	37
1.93033	36
1.93400	36
1.93767	36
1.94133	37
1.94500	39
1.94867	42
1.95233	43
1.95600	43
1.95967	43
1.96333	44
1.96700	44
1.97067	45
1.97433	47
1.97800	49
1.98167	49
1.98533	49
1.98900	52
1.99267	52
1.99633	52
2.00000	52
2.00367	52
2.00733	52
2.01100	51
2.01467	51
2.01833	52
2.02200	53
2.02567	55
2.02933	58
2.03300	60
2.03667	60
2.04033	59
2.04400	58
2.04767	58
2.05133	60
2.05500	61
2.05867	61
2.06233	61
2.06600	62
2.06967	64
2.07333	66
2.07700	65
2.08067	63
2.08433	60
2.08800	60
2.09167	62
2.09533	66
2.09900	68
2.10267	69
2.10633	72
2.11000	74
2.11367	74
2.11733	72
2.12100	72
2.12467	73
2.12833	73
2.13200	73
2.13567	74
2.13933	76
2.14300	75
2.14667	75
2.15033	75
2.15400	76
2.15767	78
2.16133	80
2.16500	80
2.16867	79
2.17233	80
2.17600	84
2.17967	91
2.18333	95
2.18700	92
2.19067	88
2.19433	86
2.19800	86
2.20167	87
2.20533	87
2.20900	91
2.21267	93
2.21633	94
2.22000	95
2.22367	97
2.22733	97
2.23100	98
2.23467	98
2.23833	96
2.24200	93
2.24567	94
2.24933	94
2.25300	95
2.25667	99
2.26033	101
2.26400	101
2.26767	101
2.27133	101
2.27500	104
2.27867	105
2.28233	104
2.28600	104
2.28967	107
2.29333	110
2.29700	111
2.30067	111
2.30433	111
2.30800	110
2.31167	109
2.31533	109
2.31900	109
2.32267	111
2.32633	113
2.33000	114
2.33367	115
2.33733	117
2.34100	119
2.34467	120
2.34833	121
2.35200	125
2.35567	125
2.35933	126
2.36300	128
2.36667	129
2.37033	129
2.37400	127
2.37767	125
2.38133	124
2.38500	126
2.38867	128
2.39233	130
2.39600	132
2.39967	137
2.40333	139
2.40700	141
2.41067	143
2.41433	146
2.41800	146
2.42167	145
2.42533	145
2.42900	145
2.43267	146
2.43633	145
2.44000	147
2.44367	156
2.44733	182
2.45100	212
2.45467	237
2.45833	247
2.46200	243
2.46567	237
2.46933	232
2.47300	227
2.47667	222
2.48033	213
2.48400	203
2.48767	193
2.49133	186
2.49500	180
2.49867	175
2.50233	171
2.50600	167
2.50967	165
2.51333	162
2.51700	163
2.52067	166
2.52433	166
2.52800	163
2.53167	165
2.53533	174
2.53900	194
2.54267	220
2.54633	251
2.55000	281
2.55367	308
2.55733	336
2.56100	363
2.56467	391
2.56833	421
2.57200	454
2.57567	488
2.57933	522
2.58300	554
2.58667	584
2.59033	610
2.59400	633
2.59767	652
2.60133	665
2.60500	672
2.60867	672
2.61233	666
2.61600	651
2.61967	632
2.62333	608
2.62700	581
2.63067	556
2.63433	531
2.63800	510
2.64167	494
2.64533	486
2.64900	484
2.65267	483
2.65633	487
2.66000	494
2.66367	502
2.66733	512
2.67100	522
2.67467	532
2.67833	541
2.68200	549
2.68567	558
2.68933	571
2.69300	584
2.69667	594
2.70033	602
2.70400	608
2.70767	614
2.71133	621
2.71500	625
2.71867	627
2.72233	628
2.72600	630
2.72967	633
2.73333	637
2.73700	642
2.74067	645
2.74433	646
2.74800	644
2.75167	643
2.75533	642
2.75900	641
2.76267	641
2.76633	642
2.77000	642
2.77367	640
2.77733	638
2.78100	635
2.78467	635
2.78833	634
2.79200	632
2.79567	629
2.79933	629
2.80300	631
2.80667	631
2.81033	629
2.81400	629
2.81767	628
2.82133	629
2.82500	632
2.82867	644
2.83233	668
2.83600	722
2.83967	826
2.84333	1006
2.84700	1284
2.85067	1671
2.85433	2171
2.85800	2765
2.86167	3416
2.86533	4080
2.86900	4706
2.87267	5243
2.87633	5650
2.88000	5900
2.88367	5989
2.88733	5930
2.89100	5745
2.89467	5466
2.89833	5121
2.90200	4740
2.90567	4348
2.90933	3962
2.91300	3592
2.91667	3246
2.92033	2926
2.92400	2636
2.92767	2376
2.93133	2146
2.93500	1943
2.93867	1765
2.94233	1608
2.94600	1472
2.94967	1353
2.95333	1250
2.95700	1161
2.96067	1086
2.96433	1020
2.96800	962
2.97167	913
2.97533	869
2.97900	830
2.98267	799
2.98633	774
2.99000	751
2.99367	733
2.99733	716
3.00100	703
3.00467	692
3.00833	680
3.01200	670
3.01567	662
3.01933	655
3.02300	648
3.02667	640
3.03033	634
3.03400	629
3.03767	627
3.04133	624
3.04500	621
3.04867	619
3.05233	617
3.05600	613
3.05967	609
3.06333	606
3.06700	605
3.07067	602
3.07433	598
3.07800	596
3.08167	596
3.08533	597
3.08900	599
3.09267	600
3.09633	598
3.10000	596
3.10367	593
3.10733	589
3.11100	586
3.11467	586
3.11833	587
3.12200	588
3.12567	588
3.12933	586
3.13300	584
3.13667	584
3.14033	582
3.14400	581
3.14767	577
3.15133	573
3.15500	570
3.15867	569
3.16233	567
3.16600	566
3.16967	566
3.17333	565
3.17700	564
3.18067	563
3.18433	561
3.18800	561
3.19167	560
3.19533	559
3.19900	559
3.20267	556
3.20633	555
3.21000	553
3.21367	551
3.21733	548
3.22100	544
3.22467	543
3.22833	544
3.23200	543
3.23567	541
3.23933	538
3.24300	536
3.24667	532
3.25033	529
3.25400	526
3.25767	523
3.26133	520
3.26500	518
3.26867	518
3.27233	517
3.27600	516
3.27967	516
3.28333	514
3.28700	511
3.29067	506
3.29433	505
3.29800	504
3.30167	502
3.30533	501
3.30900	499
3.31267	497
3.31633	493
3.32000	490
3.32367	486
3.32733	483
3.33100	481
3.33467	479
3.33833	475
3.34200	471
3.34567	468
3.34933	467
3.35300	466
3.35667	462
3.36033	458
3.36400	454
3.36767	451
3.37133	449
3.37500	446
3.37867	440
3.38233	434
3.38600	430
3.38967	429
3.39333	428
3.39700	426
3.40067	425
3.40433	425
3.40800	425
3.41167	425
3.41533	421
3.41900	417
3.42267	413
3.42633	411
3.43000	409
3.43367	406
3.43733	403
3.44100	401
3.44467	400
3.44833	399
3.45200	396
3.45567	392
3.45933	388
3.46300	388
3.46667	387
3.47033	385
3.47400	381
3.47767	378
3.48133	376
3.48500	376
3.48867	373
3.49233	373
3.49600	371
3.49967	368
3.50333	364
3.50700	360
3.51067	358
3.51433	356
3.51800	356
3.52167	356
3.52533	353
3.52900	350
3.53267	349
3.53633	349
3.54000	347
3.54367	344
3.54733	342
3.55100	339
3.55467	337
3.55833	335
3.56200	336
3.56567	334
3.56933	332
3.57300	329
3.57667	326
3.58033	325
3.58400	323
3.58767	325
3.59133	328
3.59500	329
3.59867	327
3.60233	324
3.60600	321
3.60967	319
3.61333	315
3.61700	312
3.62067	310
3.62433	307
3.62800	303
3.63167	301
3.63533	299
3.63900	297
3.64267	294
3.64633	295
3.65000	293
3.65367	291
3.65733	293
3.66100	295
3.66467	294
3.66833	293
3.67200	290
3.67567	288
3.67933	287
3.68300	286
3.68667	285
3.69033	283
3.69400	280
3.69767	276
3.70133	274
3.70500	274
3.70867	274
3.71233	270
3.71600	265
3.71967	265
3.72333	266
3.72700	268
3.73067	267
3.73433	265
3.73800	261
3.74167	258
3.74533	259
3.74900	259
3.75267	258
3.75633	257
3.76000	259
3.76367	260
3.76733	259
3.77100	258
3.77467	255
3.77833	251
3.78200	250
3.78567	250
3.78933	247
3.79300	247
3.79667	246
3.80033	243
3.80400	241
3.80767	241
3.81133	243
3.81500	244
3.81867	244
3.82233	243
3.82600	242
3.82967	240
3.83333	238
3.83700	236
3.84067	234
3.84433	231
3.84800	229
3.85167	229
3.85533	230
3.85900	231
3.86267	231
3.86633	231
3.87000	229
3.87367	227
3.87733	224
3.88100	221
3.88467	218
3.88833	216
3.89200	216
3.89567	217
3.89933	215
3.90300	215
3.90667	217
3.91033	218
3.91400	218
3.91767	218
3.92133	216
3.92500	215
3.92867	215
3.93233	215
3.93600	213
3.93967	209
3.94333	205
3.94700	202
3.95067	201
3.95433	201
3.95800	200
3.96167	200
3.96533	201
3.96900	201
3.97267	199
3.97633	197
3.98000	197
3.98367	196
3.98733	194
3.99100	193
3.99467	191
3.99833	189

[Status Trace (Column Oven Temperature)]
Interval(msec)	1000
# of Points	240
Start Time(min)	0.002
End Time(min)	3.985
Intensity Units	
Intensity Multiplier	1
R.Time (min)	Intensity
0.00183	35.00
0.01850	35.00
0.03517	35.02
0.05183	35.02
0.06850	35.01
0.08517	35.02
0.10183	35.02
0.11850	35.02
0.13517	35.01
0.15183	35.01
0.16850	35.00
0.18517	35.01
0.20183	35.02
0.21850	35.02
0.23517	35.02
0.25183	35.02
0.26850	35.01
0.28517	35.00
0.30183	35.00
0.31850	35.00
0.33517	35.00
0.35183	35.00
0.36850	34.99
0.38517	34.99
0.40183	34.99
0.41850	34.98
0.43517	34.98
0.45183	34.99
0.46850	34.99
0.48517	34.98
0.50183	34.98
0.51850	34.99
0.53517	34.99
0.55183	34.98
0.56850	34.98
0.58517	34.99
0.60183	34.98
0.61850	34.98
0.63517	35.00
0.65183	35.00
0.66850	35.00
0.68517	34.99
0.70183	34.98
0.71850	34.98
0.73517	34.98
0.75183	34.98
0.76850	34.98
0.78517	34.97
0.80183	34.97
0.81850	34.98
0.83517	34.99
0.85183	35.00
0.86850	35.01
0.88517	35.02
0.90183	35.02
0.91850	35.01
0.93517	35.01
0.95183	35.01
0.96850	35.00
0.98517	35.00
1.00183	35.00
1.01850	35.00
1.03517	35.00
1.05183	35.00
1.06850	35.01
1.08517	35.00
1.10183	34.99
1.11850	34.99
1.13517	34.98
1.15183	34.98
1.16850	34.98
1.18517	34.99
1.20183	34.99
1.21850	35.00
1.23517	35.01
1.25183	35.00
1.26850	35.01
1.28517	35.02
1.30183	35.04
1.31850	35.05
1.33517	35.05
1.35183	35.04
1.36850	35.04
1.38517	35.02
1.40183	35.00
1.41850	34.99
1.43517	34.98
1.45183	34.98
1.46850	34.98
1.48517	34.99
1.50183	34.99
1.51850	34.98
1.53517	34.97
1.55183	34.98
1.56850	34.98
1.58517	34.99
1.60183	35.03
1.61850	35.12
1.63517	35.28
1.65183	35.50
1.66850	35.82
1.68517	36.19
1.70183	36.55
1.71850	36.88
1.73517	37.22
1.75183	37.56
1.76850	37.89
1.78517	38.22
1.80183	38.55
1.81850	38.89
1.83517	39.22
1.85183	39.55
1.86850	39.88
1.88517	40.21
1.90183	40.54
1.91850	40.86
1.93517	41.20
1.95183	41.51
1.96850	41.82
1.98517	42.16
2.00183	42.49
2.01850	42.81
2.03517	43.13
2.05183	43.46
2.06850	43.79
2.08517	44.13
2.10183	44.44
2.11850	44.76
2.13517	45.10
2.15183	45.42
2.16850	45.74
2.18517	46.06
2.20183	46.38
2.21850	46.72
2.23517	47.04
2.25183	47.37
2.26850	47.74
2.28517	48.07
2.30183	48.38
2.31850	48.72
2.33517	49.03
2.35183	49.36
2.36850	49.57
2.38517	49.66
2.40183	49.68
2.41850	49.67
2.43517	49.68
2.45183	49.69
2.46850	49.70
2.48517	49.71
2.50183	49.74
2.51850	49.73
2.53517	49.74
2.55183	49.77
2.56850	49.77
2.58517	49.79
2.60183	49.80
2.61850	49.83
2.63517	49.83
2.65183	49.85
2.66850	49.86
2.68517	49.85
2.70183	49.87
2.71850	49.85
2.73517	49.86
2.75183	49.85
2.76850	49.85
2.78517	49.87
2.80183	49.91
2.81850	49.93
2.83517	49.94
2.85183	49.95
2.86850	49.95
2.88517	49.95
2.90183	49.94
2.91850	49.94
2.93517	49.94
2.95183	49.93
2.96850	49.94
2.98517	49.96
3.00183	49.98
3.01850	49.98
3.03517	49.99
3.05183	50.00
3.06850	50.02
3.08517	50.02
3.10183	50.03
3.11850	50.03
3.13517	50.04
3.15183	50.05
3.16850	50.05
3.18517	50.05
3.20183	50.07
3.21850	50.08
3.23517	50.08
3.25183	50.09
3.26850	50.10
3.28517	50.11
3.30183	50.11
3.31850	50.10
3.33517	50.10
3.35183	50.08
3.36850	50.08
3.38517	50.07
3.40183	50.06
3.41850	50.06
3.43517	50.05
3.45183	50.05
3.46850	50.05
3.48517	50.05
3.50183	50.05
3.51850	50.05
3.53517	50.06
3.55183	50.05
3.56850	50.06
3.58517	50.06
3.60183	50.06
3.61850	50.05
3.63517	50.05
3.65183	50.05
3.66850	50.05
3.68517	50.05
3.70183	50.05
3.71850	50.06
3.73517	50.06
3.75183	50.06
3.76850	50.06
3.78517	50.05
3.80183	50.05
3.81850	50.06
3.83517	50.07
3.85183	50.07
3.86850	50.08
3.88517	50.08
3.90183	50.09
3.91850	50.09
3.93517	50.10
3.95183	50.10
3.96850	50.10
3.98517	50.12

[Status Trace (Injection Unit Temperature)]
Interval(msec)	1000
# of Points	240
Start Time(min)	0.002
End Time(min)	3.985
Intensity Units	
Intensity Multiplier	1
R.Time (min)	Intensity
0.00183	99.99
0.01850	99.98
0.03517	99.99
0.05183	99.99
0.06850	99.98
0.08517	99.99
0.10183	99.99
0.11850	99.99
0.13517	99.99
0.15183	99.99
0.16850	99.98
0.18517	99.99
0.20183	99.99
0.21850	99.98
0.23517	99.99
0.25183	99.98
0.26850	99.99
0.28517	99.98
0.30183	99.99
0.31850	99.98
0.33517	99.99
0.35183	99.99
0.36850	99.99
0.38517	99.99
0.40183	99.98
0.41850	99.98
0.43517	99.98
0.45183	99.98
0.46850	99.99
0.48517	99.99
0.50183	99.98
0.51850	99.98
0.53517	99.98
0.55183	99.98
0.56850	99.98
0.58517	99.98
0.60183	99.98
0.61850	99.98
0.63517	99.98
0.65183	99.98
0.66850	99.98
0.68517	99.98
0.70183	99.98
0.71850	99.98
0.73517	99.98
0.75183	99.99
0.76850	99.99
0.78517	99.99
0.80183	99.98
0.81850	99.98
0.83517	99.98
0.85183	99.99
0.86850	99.99
0.88517	99.98
0.90183	99.99
0.91850	99.99
0.93517	99.99
0.95183	99.99
0.96850	99.99
0.98517	99.99
1.00183	99.99
1.01850	99.99
1.03517	99.99
1.05183	99.99
1.06850	99.99
1.08517	99.98
1.10183	99.99
1.11850	99.99
1.13517	99.99
1.15183	99.99
1.16850	99.99
1.18517	99.99
1.20183	99.99
1.21850	99.99
1.23517	99.99
1.25183	99.99
1.26850	99.99
1.28517	99.98
1.30183	99.99
1.31850	99.99
1.33517	99.99
1.35183	99.99
1.36850	99.99
1.38517	99.99
1.40183	99.99
1.41850	99.99
1.43517	99.99
1.45183	99.99
1.46850	99.99
1.48517	99.99
1.50183	99.99
1.51850	99.99
1.53517	99.99
1.55183	99.99
1.56850	99.99
1.58517	99.99
1.60183	99.99
1.61850	99.99
1.63517	99.99
1.65183	99.99
1.66850	99.99
1.68517	99.99
1.70183	99.99
1.71850	99.99
1.73517	99.99
1.75183	99.99
1.76850	99.99
1.78517	99.99
1.80183	99.99
1.81850	99.99
1.83517	99.99
1.85183	99.98
1.86850	99.99
1.88517	99.99
1.90183	99.98
1.91850	99.99
1.93517	99.99
1.95183	99.98
1.96850	99.98
1.98517	99.98
2.00183	99.98
2.01850	99.98
2.03517	99.98
2.05183	99.98
2.06850	99.98
2.08517	99.98
2.10183	99.97
2.11850	99.98
2.13517	99.98
2.15183	99.98
2.16850	99.97
2.18517	99.97
2.20183	99.97
2.21850	99.98
2.23517	99.97
2.25183	99.97
2.26850	99.97
2.28517	99.97
2.30183	99.97
2.31850	99.97
2.33517	99.97
2.35183	99.97
2.36850	99.97
2.38517	99.97
2.40183	99.97
2.41850	99.97
2.43517	99.96
2.45183	99.97
2.46850	99.97
2.48517	99.97
2.50183	99.96
2.51850	99.97
2.53517	99.97
2.55183	99.97
2.56850	99.97
2.58517	99.98
2.60183	99.97
2.61850	99.98
2.63517	99.98
2.65183	99.98
2.66850	99.98
2.68517	99.98
2.70183	99.98
2.71850	99.99
2.73517	99.98
2.75183	99.99
2.76850	99.99
2.78517	99.99
2.80183	99.99
2.81850	99.99
2.83517	100.00
2.85183	100.00
2.86850	99.99
2.88517	100.00
2.90183	100.01
2.91850	100.00
2.93517	100.01
2.95183	100.01
2.96850	100.01
2.98517	100.01
3.00183	100.02
3.01850	100.02
3.03517	100.02
3.05183	100.02
3.06850	100.02
3.08517	100.02
3.10183	100.02
3.11850	100.02
3.13517	100.02
3.15183	100.02
3.16850	100.02
3.18517	100.02
3.20183	100.02
3.21850	100.03
3.23517	100.03
3.25183	100.03
3.26850	100.03
3.28517	100.03
3.30183	100.03
3.31850	100.03
3.33517	100.03
3.35183	100.03
3.36850	100.04
3.38517	100.04
3.40183	100.04
3.41850	100.04
3.43517	100.04
3.45183	100.04
3.46850	100.04
3.48517	100.04
3.50183	100.04
3.51850	100.04
3.53517	100.04
3.55183	100.04
3.56850	100.04
3.58517	100.04
3.60183	100.04
3.61850	100.04
3.63517	100.04
3.65183	100.05
3.66850	100.04
3.68517	100.04
3.70183	100.05
3.71850	100.05
3.73517	100.04
3.75183	100.04
3.76850	100.04
3.78517	100.04
3.80183	100.03
3.81850	100.04
3.83517	100.04
3.85183	100.04
3.86850	100.03
3.88517	100.04
3.90183	100.04
3.91850	100.04
3.93517	100.03
3.95183	100.04
3.96850	100.03
3.98517	100.03

[Status Trace (Carrier Gas Pressure)]
Interval(msec)	1000
# of Points	240
Start Time(min)	0.002
End Time(min)	3.985
Intensity Units	
Intensity Multiplier	1
R.Time (min)	Intensity
0.00183	58.00
0.01850	56.32
0.03517	56.17
0.05183	58.46
0.06850	59.89
0.08517	58.39
0.10183	57.97
0.11850	58.00
0.13517	58.01
0.15183	58.01
0.16850	58.00
0.18517	58.00
0.20183	58.00
0.21850	58.00
0.23517	58.00
0.25183	58.00
0.26850	58.00
0.28517	58.00
0.30183	58.00
0.31850	58.00
0.33517	58.00
0.35183	58.00
0.36850	58.00
0.38517	58.00
0.40183	58.00
0.41850	58.00
0.43517	58.00
0.45183	58.00
0.46850	58.00
0.48517	58.00
0.50183	58.00
0.51850	58.00
0.53517	58.00
0.55183	58.00
0.56850	58.00
0.58517	58.00
0.60183	58.00
0.61850	58.00
0.63517	58.00
0.65183	58.00
0.66850	58.00
0.68517	58.00
0.70183	58.00
0.71850	58.00
0.73517	58.00
0.75183	58.00
0.76850	58.00
0.78517	58.00
0.80183	58.00
0.81850	58.00
0.83517	58.00
0.85183	58.00
0.86850	58.00
0.88517	58.00
0.90183	58.00
0.91850	58.00
0.93517	58.00
0.95183	58.00
0.96850	58.00
0.98517	58.00
1.00183	58.00
1.01850	58.00
1.03517	58.00
1.05183	58.00
1.06850	58.00
1.08517	58.00
1.10183	58.00
1.11850	58.00
1.13517	58.00
1.15183	58.00
1.16850	58.00
1.18517	58.00
1.20183	58.00
1.21850	58.00
1.23517	58.00
1.25183	58.00
1.26850	58.00
1.28517	58.00
1.30183	58.00
1.31850	58.00
1.33517	58.00
1.35183	58.00
1.36850	58.00
1.38517	58.00
1.40183	58.00
1.41850	58.00
1.43517	58.00
1.45183	58.00
1.46850	58.00
1.48517	58.00
1.50183	58.00
1.51850	58.00
1.53517	58.00
1.55183	58.00
1.56850	58.00
1.58517	58.00
1.60183	58.00
1.61850	58.00
1.63517	58.00
1.65183	58.00
1.66850	58.01
1.68517	58.01
1.70183	58.00
1.71850	58.00
1.73517	58.00
1.75183	58.00
1.76850	58.00
1.78517	58.00
1.80183	58.00
1.81850	58.00
1.83517	58.00
1.85183	58.00
1.86850	58.00
1.88517	58.00
1.90183	58.00
1.91850	58.00
1.93517	58.00
1.95183	58.00
1.96850	58.00
1.98517	58.00
2.00183	58.00
2.01850	58.00
2.03517	58.00
2.05183	58.00
2.06850	58.00
2.08517	58.00
2.10183	58.00
2.11850	58.00
2.13517	58.00
2.15183	58.00
2.16850	58.00
2.18517	58.00
2.20183	58.00
2.21850	58.00
2.23517	58.00
2.25183	58.00
2.26850	58.00
2.28517	58.00
2.30183	58.00
2.31850	58.00
2.33517	58.00
2.35183	58.00
2.36850	58.00
2.38517	57.99
2.40183	57.99
2.41850	58.00
2.43517	58.00
2.45183	58.00
2.46850	58.00
2.48517	58.00
2.50183	58.00
2.51850	58.02
2.53517	57.99
2.55183	58.00
2.56850	58.00
2.58517	58.00
2.60183	58.00
2.61850	58.00
2.63517	58.00
2.65183	58.00
2.66850	58.00
2.68517	58.00
2.70183	58.00
2.71850	58.00
2.73517	58.00
2.75183	58.00
2.76850	58.00
2.78517	58.00
2.80183	58.00
2.81850	58.00
2.83517	58.00
2.85183	58.00
2.86850	58.00
2.88517	58.00
2.90183	58.00
2.91850	58.00
2.93517	58.00
2.95183	58.00
2.96850	58.00
2.98517	58.00
3.00183	58.00
3.01850	58.00
3.03517	58.00
3.05183	58.00
3.06850	58.00
3.08517	58.00
3.10183	58.00
3.11850	58.00
3.13517	58.00
3.15183	58.00
3.16850	58.00
3.18517	58.00
3.20183	58.00
3.21850	58.00
3.23517	58.00
3.25183	58.00
3.26850	58.00
3.28517	58.00
3.30183	58.00
3.31850	58.00
3.33517	58.00
3.35183	58.00
3.36850	58.00
3.38517	58.00
3.40183	58.00
3.41850	58.00
3.43517	58.00
3.45183	58.00
3.46850	58.00
3.48517	58.00
3.50183	58.00
3.51850	58.00
3.53517	58.00
3.55183	58.00
3.56850	58.00
3.58517	58.00
3.60183	58.00
3.61850	58.00
3.63517	58.00
3.65183	58.00
3.66850	58.00
3.68517	58.00
3.70183	58.00
3.71850	58.00
3.73517	58.00
3.75183	58.00
3.76850	58.00
3.78517	58.00
3.80183	58.00
3.81850	58.00
3.83517	58.00
3.85183	58.00
3.86850	58.00
3.88517	58.00
3.90183	58.00
3.91850	58.00
3.93517	58.00
3.95183	58.00
3.96850	58.00
3.98517	58.00

[Status Trace (Carrier Gas Flow)]
Interval(msec)	1000
# of Points	240
Start Time(min)	0.002
End Time(min)	3.985
Intensity Units	
Intensity Multiplier	1
R.Time (min)	Intensity
0.00183	34.52
0.01850	34.56
0.03517	34.52
0.05183	34.55
0.06850	34.49
0.08517	34.52
0.10183	34.52
0.11850	34.52
0.13517	34.52
0.15183	34.52
0.16850	34.52
0.18517	34.52
0.20183	34.52
0.21850	34.52
0.23517	34.52
0.25183	34.52
0.26850	34.52
0.28517	34.52
0.30183	34.52
0.31850	34.52
0.33517	34.52
0.35183	34.51
0.36850	34.52
0.38517	34.52
0.40183	34.52
0.41850	34.52
0.43517	34.52
0.45183	34.52
0.46850	34.52
0.48517	34.52
0.50183	34.52
0.51850	34.52
0.53517	34.52
0.55183	34.52
0.56850	34.52
0.58517	34.52
0.60183	34.52
0.61850	34.52
0.63517	34.52
0.65183	34.52
0.66850	34.52
0.68517	34.52
0.70183	34.52
0.71850	34.52
0.73517	34.52
0.75183	34.52
0.76850	34.52
0.78517	34.52
0.80183	34.52
0.81850	34.52
0.83517	34.52
0.85183	34.52
0.86850	34.52
0.88517	34.52
0.90183	34.52
0.91850	34.52
0.93517	34.52
0.95183	34.52
0.96850	34.52
0.98517	34.52
1.00183	34.52
1.01850	34.52
1.03517	34.52
1.05183	34.52
1.06850	34.52
1.08517	34.52
1.10183	34.52
1.11850	34.52
1.13517	34.52
1.15183	34.52
1.16850	34.52
1.18517	34.52
1.20183	34.52
1.21850	34.52
1.23517	34.52
1.25183	34.52
1.26850	34.52
1.28517	34.52
1.30183	34.52
1.31850	34.52
1.33517	34.52
1.35183	34.52
1.36850	34.52
1.38517	34.53
1.40183	34.50
1.41850	34.52
1.43517	34.51
1.45183	34.52
1.46850	34.52
1.48517	34.52
1.50183	34.51
1.51850	34.54
1.53517	34.53
1.55183	34.51
1.56850	34.52
1.58517	34.51
1.60183	34.54
1.61850	34.53
1.63517	34.51
1.65183	34.52
1.66850	34.52
1.68517	34.51
1.70183	34.52
1.71850	34.52
1.73517	34.52
1.75183	34.50
1.76850	34.51
1.78517	34.50
1.80183	34.52
1.81850	34.52
1.83517	34.53
1.85183	34.50
1.86850	34.53
1.88517	34.51
1.90183	34.52
1.91850	34.52
1.93517	34.52
1.95183	34.52
1.96850	34.52
1.98517	34.53
2.00183	34.52
2.01850	34.52
2.03517	34.51
2.05183	34.52
2.06850	34.52
2.08517	34.51
2.10183	34.52
2.11850	34.52
2.13517	34.51
2.15183	34.50
2.16850	34.51
2.18517	34.52
2.20183	34.52
2.21850	34.52
2.23517	34.52
2.25183	34.52
2.26850	34.52
2.28517	34.52
2.30183	34.52
2.31850	34.52
2.33517	34.52
2.35183	34.52
2.36850	34.52
2.38517	34.56
2.40183	34.51
2.41850	34.52
2.43517	34.50
2.45183	34.53
2.46850	34.52
2.48517	34.52
2.50183	34.54
2.51850	34.52
2.53517	34.52
2.55183	34.52
2.56850	34.52
2.58517	34.52
2.60183	34.52
2.61850	34.52
2.63517	34.52
2.65183	34.52
2.66850	34.52
2.68517	34.52
2.70183	34.52
2.71850	34.52
2.73517	34.52
2.75183	34.52
2.76850	34.52
2.78517	34.52
2.80183	34.51
2.81850	34.52
2.83517	34.51
2.85183	34.52
2.86850	34.53
2.88517	34.52
2.90183	34.53
2.91850	34.53
2.93517	34.52
2.95183	34.52
2.96850	34.52
2.98517	34.52
3.00183	34.51
3.01850	34.50
3.03517	34.52
3.05183	34.54
3.06850	34.52
3.08517	34.49
3.10183	34.52
3.11850	34.52
3.13517	34.52
3.15183	34.54
3.16850	34.50
3.18517	34.53
3.20183	34.52
3.21850	34.52
3.23517	34.50
3.25183	34.52
3.26850	34.51
3.28517	34.51
3.30183	34.52
3.31850	34.51
3.33517	34.52
3.35183	34.53
3.36850	34.52
3.38517	34.52
3.40183	34.51
3.41850	34.52
3.43517	34.51
3.45183	34.52
3.46850	34.52
3.48517	34.52
3.50183	34.52
3.51850	34.52
3.53517	34.52
3.55183	34.52
3.56850	34.51
3.58517	34.52
3.60183	34.51
3.61850	34.52
3.63517	34.52
3.65183	34.52
3.66850	34.52
3.68517	34.52
3.70183	34.52
3.71850	34.52
3.73517	34.52
3.75183	34.52
3.76850	34.52
3.78517	34.52
3.80183	34.51
3.81850	34.52
3.83517	34.52
3.85183	34.52
3.86850	34.51
3.88517	34.52
3.90183	34.52
3.91850	34.52
3.93517	34.52
3.95183	34.52
3.96850	34.52
3.98517	34.52

[Status Trace (Column Flow)]
Interval(msec)	1000
# of Points	240
Start Time(min)	0.002
End Time(min)	3.985
Intensity Units	
Intensity Multiplier	1
R.Time (min)	Intensity
0.00183	5.53
0.01850	5.34
0.03517	5.32
0.05183	5.58
0.06850	5.75
0.08517	5.58
0.10183	5.53
0.11850	5.53
0.13517	5.53
0.15183	5.53
0.16850	5.53
0.18517	5.53
0.20183	5.53
0.21850	5.53
0.23517	5.53
0.25183	5.53
0.26850	5.53
0.28517	5.53
0.30183	5.53
0.31850	5.53
0.33517	5.53
0.35183	5.53
0.36850	5.53
0.38517	5.53
0.40183	5.53
0.41850	5.53
0.43517	5.53
0.45183	5.53
0.46850	5.53
0.48517	5.53
0.50183	5.53
0.51850	5.53
0.53517	5.53
0.55183	5.53
0.56850	5.53
0.58517	5.53
0.60183	5.53
0.61850	5.53
0.63517	5.53
0.65183	5.53
0.66850	5.53
0.68517	5.53
0.70183	5.53
0.71850	5.53
0.73517	5.53
0.75183	5.53
0.76850	5.53
0.78517	5.53
0.80183	5.53
0.81850	5.53
0.83517	5.53
0.85183	5.53
0.86850	5.53
0.88517	5.53
0.90183	5.53
0.91850	5.53
0.93517	5.53
0.95183	5.53
0.96850	5.53
0.98517	5.53
1.00183	5.53
1.01850	5.53
1.03517	5.53
1.05183	5.53
1.06850	5.53
1.08517	5.53
1.10183	5.53
1.11850	5.53
1.13517	5.53
1.15183	5.53
1.16850	5.53
1.18517	5.53
1.20183	5.53
1.21850	5.53
1.23517	5.53
1.25183	5.53
1.26850	5.53
1.28517	5.53
1.30183	5.53
1.31850	5.53
1.33517	5.53
1.35183	5.53
1.36850	5.53
1.38517	5.53
1.40183	5.53
1.41850	5.53
1.43517	5.53
1.45183	5.53
1.46850	5.53
1.48517	5.53
1.50183	5.53
1.51850	5.53
1.53517	5.53
1.55183	5.53
1.56850	5.53
1.58517	5.53
1.60183	5.53
1.61850	5.53
1.63517	5.52
1.65183	5.52
1.66850	5.51
1.68517	5.50
1.70183	5.48
1.71850	5.47
1.73517	5.46
1.75183	5.45
1.76850	5.44
1.78517	5.43
1.80183	5.42
1.81850	5.41
1.83517	5.40
1.85183	5.39
1.86850	5.38
1.88517	5.37
1.90183	5.36
1.91850	5.35
1.93517	5.34
1.95183	5.33
1.96850	5.32
1.98517	5.31
2.00183	5.30
2.01850	5.29
2.03517	5.28
2.05183	5.27
2.06850	5.26
2.08517	5.26
2.10183	5.25
2.11850	5.24
2.13517	5.23
2.15183	5.22
2.16850	5.21
2.18517	5.20
2.20183	5.19
2.21850	5.18
2.23517	5.17
2.25183	5.16
2.26850	5.15
2.28517	5.14
2.30183	5.13
2.31850	5.12
2.33517	5.12
2.35183	5.11
2.36850	5.10
2.38517	5.10
2.40183	5.10
2.41850	5.10
2.43517	5.10
2.45183	5.10
2.46850	5.10
2.48517	5.10
2.50183	5.09
2.51850	5.10
2.53517	5.09
2.55183	5.09
2.56850	5.09
2.58517	5.09
2.60183	5.09
2.61850	5.09
2.63517	5.09
2.65183	5.09
2.66850	5.09
2.68517	5.09
2.70183	5.09
2.71850	5.09
2.73517	5.09
2.75183	5.09
2.76850	5.09
2.78517	5.09
2.80183	5.09
2.81850	5.09
2.83517	5.09
2.85183	5.09
2.86850	5.09
2.88517	5.09
2.90183	5.09
2.91850	5.09
2.93517	5.09
2.95183	5.09
2.96850	5.09
2.98517	5.09
3.00183	5.09
3.01850	5.09
3.03517	5.09
3.05183	5.09
3.06850	5.09
3.08517	5.09
3.10183	5.09
3.11850	5.09
3.13517	5.09
3.15183	5.09
3.16850	5.09
3.18517	5.09
3.20183	5.09
3.21850	5.09
3.23517	5.09
3.25183	5.09
3.26850	5.08
3.28517	5.08
3.30183	5.08
3.31850	5.08
3.33517	5.09
3.35183	5.09
3.36850	5.09
3.38517	5.09
3.40183	5.09
3.41850	5.09
3.43517	5.09
3.45183	5.09
3.46850	5.09
3.48517	5.09
3.50183	5.09
3.51850	5.09
3.53517	5.09
3.55183	5.09
3.56850	5.09
3.58517	5.09
3.60183	5.09
3.61850	5.09
3.63517	5.09
3.65183	5.09
3.66850	5.09
3.68517	5.09
3.70183	5.09
3.71850	5.09
3.73517	5.09
3.75183	5.09
3.76850	5.09
3.78517	5.09
3.80183	5.09
3.81850	5.09
3.83517	5.09
3.85183	5.09
3.86850	5.09
3.88517	5.09
3.90183	5.09
3.91850	5.09
3.93517	5.08
3.95183	5.08
3.96850	5.08
3.98517	5.08

[Status Trace (Linear Velocity)]
Interval(msec)	1000
# of Points	240
Start Time(min)	0.002
End Time(min)	3.985
Intensity Units	
Intensity Multiplier	1
R.Time (min)	Intensity
0.00183	39.02
0.01850	37.91
0.03517	37.82
0.05183	39.32
0.06850	40.26
0.08517	39.27
0.10183	39.00
0.11850	39.02
0.13517	39.03
0.15183	39.02
0.16850	39.02
0.18517	39.02
0.20183	39.02
0.21850	39.02
0.23517	39.02
0.25183	39.02
0.26850	39.02
0.28517	39.02
0.30183	39.02
0.31850	39.02
0.33517	39.02
0.35183	39.02
0.36850	39.02
0.38517	39.02
0.40183	39.02
0.41850	39.02
0.43517	39.02
0.45183	39.02
0.46850	39.02
0.48517	39.02
0.50183	39.02
0.51850	39.02
0.53517	39.02
0.55183	39.02
0.56850	39.02
0.58517	39.02
0.60183	39.02
0.61850	39.02
0.63517	39.02
0.65183	39.02
0.66850	39.02
0.68517	39.02
0.70183	39.02
0.71850	39.02
0.73517	39.02
0.75183	39.02
0.76850	39.02
0.78517	39.02
0.80183	39.02
0.81850	39.02
0.83517	39.02
0.85183	39.02
0.86850	39.02
0.88517	39.02
0.90183	39.02
0.91850	39.02
0.93517	39.02
0.95183	39.02
0.96850	39.02
0.98517	39.02
1.00183	39.02
1.01850	39.02
1.03517	39.02
1.05183	39.02
1.06850	39.02
1.08517	39.02
1.10183	39.02
1.11850	39.02
1.13517	39.02
1.15183	39.02
1.16850	39.02
1.18517	39.02
1.20183	39.02
1.21850	39.02
1.23517	39.02
1.25183	39.02
1.26850	39.02
1.28517	39.02
1.30183	39.02
1.31850	39.01
1.33517	39.01
1.35183	39.01
1.36850	39.02
1.38517	39.02
1.40183	39.02
1.41850	39.02
1.43517	39.02
1.45183	39.02
1.46850	39.02
1.48517	39.02
1.50183	39.02
1.51850	39.02
1.53517	39.02
1.55183	39.02
1.56850	39.02
1.58517	39.02
1.60183	39.02
1.61850	39.01
1.63517	39.00
1.65183	38.97
1.66850	38.94
1.68517	38.91
1.70183	38.87
1.71850	38.84
1.73517	38.81
1.75183	38.77
1.76850	38.74
1.78517	38.72
1.80183	38.68
1.81850	38.65
1.83517	38.62
1.85183	38.59
1.86850	38.56
1.88517	38.53
1.90183	38.49
1.91850	38.46
1.93517	38.44
1.95183	38.40
1.96850	38.37
1.98517	38.35
2.00183	38.31
2.01850	38.28
2.03517	38.26
2.05183	38.22
2.06850	38.19
2.08517	38.17
2.10183	38.13
2.11850	38.10
2.13517	38.08
2.15183	38.04
2.16850	38.02
2.18517	37.99
2.20183	37.96
2.21850	37.93
2.23517	37.90
2.25183	37.87
2.26850	37.84
2.28517	37.81
2.30183	37.78
2.31850	37.75
2.33517	37.72
2.35183	37.69
2.36850	37.67
2.38517	37.66
2.40183	37.66
2.41850	37.66
2.43517	37.66
2.45183	37.66
2.46850	37.66
2.48517	37.66
2.50183	37.66
2.51850	37.67
2.53517	37.65
2.55183	37.66
2.56850	37.66
2.58517	37.65
2.60183	37.65
2.61850	37.65
2.63517	37.65
2.65183	37.65
2.66850	37.65
2.68517	37.65
2.70183	37.65
2.71850	37.65
2.73517	37.65
2.75183	37.65
2.76850	37.65
2.78517	37.65
2.80183	37.64
2.81850	37.64
2.83517	37.64
2.85183	37.64
2.86850	37.64
2.88517	37.64
2.90183	37.64
2.91850	37.64
2.93517	37.64
2.95183	37.64
2.96850	37.64
2.98517	37.64
3.00183	37.64
3.01850	37.64
3.03517	37.64
3.05183	37.63
3.06850	37.63
3.08517	37.63
3.10183	37.63
3.11850	37.63
3.13517	37.63
3.15183	37.63
3.16850	37.63
3.18517	37.63
3.20183	37.63
3.21850	37.63
3.23517	37.63
3.25183	37.63
3.26850	37.63
3.28517	37.63
3.30183	37.63
3.31850	37.63
3.33517	37.63
3.35183	37.63
3.36850	37.63
3.38517	37.63
3.40183	37.63
3.41850	37.63
3.43517	37.63
3.45183	37.63
3.46850	37.63
3.48517	37.63
3.50183	37.63
3.51850	37.63
3.53517	37.63
3.55183	37.63
3.56850	37.63
3.58517	37.63
3.60183	37.63
3.61850	37.63
3.63517	37.63
3.65183	37.63
3.66850	37.63
3.68517	37.63
3.70183	37.63
3.71850	37.63
3.73517	37.63
3.75183	37.63
3.76850	37.63
3.78517	37.63
3.80183	37.63
3.81850	37.63
3.83517	37.63
3.85183	37.63
3.86850	37.63
3.88517	37.63
3.90183	37.63
3.91850	37.63
3.93517	37.63
3.95183	37.63
3.96850	37.63
3.98517	37.62

