[Header]
Application Name	LabSolutions
Version	5.110
Data File Name	C:\Users\User\Desktop\GC Analyses\Jack\UIC Prairie Sampling\9.16.22\220916_125.gcd
Output Date	11/29/2022
Output Time	11:10:23 AM

[File Information]
Type	Data File
Generated	11/29/2022 10:13:46 AM
Generated by	System Administrator
Modified	11/29/2022 10:19:42 AM
Modified by	System Administrator

[Sample Information]
Operator Name	System Administrator
Acquired	11/29/2022 10:15:42 AM
Sample Type	1:Standard
Level	1
Sample Name	220916_UICPrairie
Sample ID	220916_UICPrairie
ISTD Amount1	1
ISTD Amount2	1
ISTD Amount3	1
ISTD Amount4	1
ISTD Amount5	1
ISTD Amount6	1
ISTD Amount7	1
ISTD Amount8	1
ISTD Amount9	1
ISTD Amount10	1
ISTD Amount11	1
ISTD Amount12	1
ISTD Amount13	1
ISTD Amount14	1
ISTD Amount15	1
ISTD Amount16	1
ISTD Amount17	1
ISTD Amount18	1
ISTD Amount19	1
ISTD Amount20	1
ISTD Amount21	1
ISTD Amount22	1
ISTD Amount23	1
ISTD Amount24	1
ISTD Amount25	1
ISTD Amount26	1
ISTD Amount27	1
ISTD Amount28	1
ISTD Amount29	1
ISTD Amount30	1
ISTD Amount31	1
ISTD Amount32	1
Sample Amount	1
Dilution Factor	1
Vial#	1
Injection Volume	1
Injection Count	1
Bar Code	

[Original Files]
Data File	C:\Users\User\Desktop\GC Analyses\Jack\UIC Prairie Sampling\9.16.22\220916_125.gcd
Method File	C:\LabSolutions\Data\GHG_4min_2022\ghg3_togas_w_acet_4 min_new_int.gcm
Batch File	
Report Format File	c:\LabSolutions\System\DEFAULT.lsr

[File Description]


[Configuration]
Instrument Name	C0B7VH3-Instrument1
Instrument #	1
Line #	1
# of Detectors	3
Detector ID	DET#1	DET#2	DET#3
Detector Name	FID	PTCD	ECD
# of Channels	1	1	1

[Peak Table(Ch1)]
# of Peaks	3
Peak#	R.Time	I.Time	F.Time	Area	Height	A/H	Conc.	Mark	ID#	Name	k'	Plate #	Plate Ht.	Tailing	Resolution	Sep.Factor	Area Ratio	Height Ratio	Conc. %	Norm Conc.
1	1.465	1.417	1.534	4592	1569	2.926	100.000	   	1	CO	0.000	5618	26.702	0.000	0.000	0.000	0	0	16.667	16.667
2	1.571	1.534	1.652	20129	10113	1.990	100.000	 V 	2	CH4	0.073	11493	13.052	1.140	1.555	0.000	0	0	16.667	16.667
3	2.000	1.952	2.510	2056011	974419	2.110	400.000	   	3	CO2	0.365	17456	8.593	1.190	7.200	5.034	0	0	66.667	66.667

[Peak Table(Ch2)]
# of Peaks	0

[Peak Table(Ch3)]
# of Peaks	3
Peak#	R.Time	I.Time	F.Time	Area	Height	A/H	Conc.	Mark	ID#	Name	k'	Plate #	Plate Ht.	Tailing	Resolution	Sep.Factor	Area Ratio	Height Ratio	Conc. %	Norm Conc.
1	2.455	1.450	2.561	12209	479	25.505	0.000	   			0.000	194	771.940	0.000	0.000	0.000	0	0	0.000	0.000
2	2.601	2.561	2.653	1235	319	3.874	0.000	 V 			0.060	1871	80.188	0.000	0.310	0.000	0	0	0.000	0.000
3	2.887	2.664	3.650	67100	15646	4.289	1.000	   	1	N2O	0.176	12524	11.977	1.565	1.664	2.950	0	0	100.000	100.000

[Compound Results(Ch1)]
# of IDs	6
ID#	Name	R.Time	Area	Height	Conc.	Curve	3rd	2nd	1st	Constant	Area Ratio	Height Ratio	Conc. %	Norm Conc.
1	CO	1.465	4592	1569	100.000	Linear	0.000000e+00	0.000000e+00	4.591814e+001	0.000000e+00	0	0	16.667	16.667
2	CH4	1.571	20129	10113	100.000	Linear	0.000000e+00	0.000000e+00	2.012932e+002	0.000000e+00	0	0	16.667	16.667
3	CO2	2.000	2056011	974419	400.000	Linear	0.000000e+00	0.000000e+00	5.140028e+003	0.000000e+00	0	0	66.667	66.667
4	Ethylene	0.000	0	0	0.000	Linear	0.000000e+00	0.000000e+00	0.000000e+00	0.000000e+00	0	0	0.000	0.000
5	Acetylene	0.000	0	0	0.000	Linear	0.000000e+00	0.000000e+00	0.000000e+00	0.000000e+00	0	0	0.000	0.000
6	Ethane	0.000	0	0	0.000	Linear	0.000000e+00	0.000000e+00	0.000000e+00	0.000000e+00	0	0	0.000	0.000

[Compound Results(Ch2)]
# of IDs	5
ID#	Name	R.Time	Area	Height	Conc.	Curve	3rd	2nd	1st	Constant	Area Ratio	Height Ratio	Conc. %	Norm Conc.
1	Hydrogen	0.000	0	0	0.000	Linear	0.000000e+00	0.000000e+00	0.000000e+00	0.000000e+00	0	0	0.000	0.000
2	Oxygen	0.000	0	0	0.000	Linear	0.000000e+00	0.000000e+00	0.000000e+00	0.000000e+00	0	0	0.000	0.000
3	Nitrogen	0.000	0	0	0.000	Linear	0.000000e+00	0.000000e+00	0.000000e+00	0.000000e+00	0	0	0.000	0.000
4	Methane	0.000	0	0	0.000	Linear	0.000000e+00	0.000000e+00	0.000000e+00	0.000000e+00	0	0	0.000	0.000
5	Carbon Monoxide	0.000	0	0	0.000	Linear	0.000000e+00	0.000000e+00	0.000000e+00	0.000000e+00	0	0	0.000	0.000

[Compound Results(Ch3)]
# of IDs	2
ID#	Name	R.Time	Area	Height	Conc.	Curve	3rd	2nd	1st	Constant	Area Ratio	Height Ratio	Conc. %	Norm Conc.
1	N2O	2.887	67100	15646	1.000	Linear	0.000000e+00	0.000000e+00	6.709962e+004	0.000000e+00	0	0	100.000	100.000
2	SF6	0.000	0	0	0.000	Linear	0.000000e+00	0.000000e+00	0.000000e+00	0.000000e+00	0	0	0.000	0.000

[Group Results(Ch1)]
# of Groups	0

[Group Results(Ch2)]
# of Groups	0

[Group Results(Ch3)]
# of Groups	0

[Chromatogram (Ch1)]
Interval(msec)	220
# of Points	1091
Start Time(min)	0.002
End Time(min)	3.998
R.Time (min)	Intensity
0.00167	8
0.00533	9
0.00900	10
0.01267	12
0.01633	14
0.02000	10
0.02367	4
0.02733	-1
0.03100	-1
0.03467	4
0.03833	8
0.04200	9
0.04567	6
0.04933	2
0.05300	-0
0.05667	-2
0.06033	-0
0.06400	4
0.06767	9
0.07133	11
0.07500	14
0.07867	18
0.08233	22
0.08600	26
0.08967	29
0.09333	30
0.09700	27
0.10067	21
0.10433	14
0.10800	4
0.11167	-6
0.11533	-13
0.11900	-17
0.12267	-18
0.12633	-16
0.13000	-13
0.13367	-11
0.13733	-8
0.14100	-3
0.14467	3
0.14833	10
0.15200	19
0.15567	30
0.15933	37
0.16300	37
0.16667	30
0.17033	17
0.17400	3
0.17767	-8
0.18133	-14
0.18500	-18
0.18867	-22
0.19233	-23
0.19600	-20
0.19967	-16
0.20333	-11
0.20700	-4
0.21067	3
0.21433	5
0.21800	2
0.22167	-6
0.22533	-12
0.22900	-13
0.23267	-12
0.23633	-9
0.24000	-3
0.24367	4
0.24733	7
0.25100	5
0.25467	-1
0.25833	-8
0.26200	-15
0.26567	-20
0.26933	-20
0.27300	-18
0.27667	-14
0.28033	-9
0.28400	-6
0.28767	-5
0.29133	-4
0.29500	-1
0.29867	-2
0.30233	-5
0.30600	-11
0.30967	-16
0.31333	-16
0.31700	-13
0.32067	-10
0.32433	-9
0.32800	-9
0.33167	-9
0.33533	-8
0.33900	-7
0.34267	-5
0.34633	-2
0.35000	-2
0.35367	-6
0.35733	-9
0.36100	-9
0.36467	-8
0.36833	-5
0.37200	-2
0.37567	0
0.37933	0
0.38300	2
0.38667	1
0.39033	-2
0.39400	-4
0.39767	-3
0.40133	-3
0.40500	-5
0.40867	-7
0.41233	-5
0.41600	-2
0.41967	2
0.42333	4
0.42700	5
0.43067	2
0.43433	-3
0.43800	-5
0.44167	-4
0.44533	-1
0.44900	3
0.45267	7
0.45633	6
0.46000	0
0.46367	-7
0.46733	-17
0.47100	-24
0.47467	-27
0.47833	-26
0.48200	-26
0.48567	-28
0.48933	-30
0.49300	-27
0.49667	-21
0.50033	-13
0.50400	-9
0.50767	-8
0.51133	-8
0.51500	-8
0.51867	-7
0.52233	-5
0.52600	-4
0.52967	-6
0.53333	-10
0.53700	-12
0.54067	-9
0.54433	-3
0.54800	-1
0.55167	-3
0.55533	-7
0.55900	-9
0.56267	-10
0.56633	-12
0.57000	-10
0.57367	-5
0.57733	-1
0.58100	2
0.58467	6
0.58833	10
0.59200	11
0.59567	6
0.59933	-1
0.60300	-8
0.60667	-12
0.61033	-10
0.61400	-6
0.61767	-1
0.62133	-1
0.62500	-4
0.62867	-7
0.63233	-9
0.63600	-10
0.63967	-10
0.64333	-10
0.64700	-8
0.65067	-4
0.65433	-1
0.65800	-4
0.66167	-13
0.66533	-25
0.66900	-33
0.67267	-35
0.67633	-32
0.68000	-29
0.68367	-26
0.68733	-24
0.69100	-25
0.69467	-27
0.69833	-26
0.70200	-23
0.70567	-16
0.70933	-10
0.71300	-3
0.71667	5
0.72033	12
0.72400	14
0.72767	10
0.73133	-0
0.73500	-9
0.73867	-15
0.74233	-20
0.74600	-23
0.74967	-20
0.75333	-16
0.75700	-11
0.76067	-5
0.76433	1
0.76800	4
0.77167	3
0.77533	-2
0.77900	-5
0.78267	-2
0.78633	1
0.79000	4
0.79367	5
0.79733	5
0.80100	3
0.80467	-1
0.80833	-3
0.81200	-2
0.81567	1
0.81933	4
0.82300	7
0.82667	7
0.83033	7
0.83400	7
0.83767	6
0.84133	3
0.84500	-3
0.84867	-9
0.85233	-13
0.85600	-17
0.85967	-20
0.86333	-22
0.86700	-23
0.87067	-22
0.87433	-20
0.87800	-20
0.88167	-23
0.88533	-22
0.88900	-17
0.89267	-14
0.89633	-12
0.90000	-12
0.90367	-13
0.90733	-13
0.91100	-14
0.91467	-15
0.91833	-15
0.92200	-15
0.92567	-16
0.92933	-21
0.93300	-23
0.93667	-23
0.94033	-23
0.94400	-20
0.94767	-17
0.95133	-13
0.95500	-6
0.95867	1
0.96233	3
0.96600	3
0.96967	1
0.97333	1
0.97700	3
0.98067	4
0.98433	4
0.98800	4
0.99167	5
0.99533	6
0.99900	4
1.00267	-3
1.00633	-9
1.01000	-14
1.01367	-19
1.01733	-24
1.02100	-24
1.02467	-24
1.02833	-21
1.03200	-18
1.03567	-15
1.03933	-14
1.04300	-12
1.04667	-9
1.05033	-6
1.05400	-6
1.05767	-11
1.06133	-18
1.06500	-24
1.06867	-22
1.07233	-16
1.07600	-11
1.07967	-6
1.08333	-3
1.08700	-4
1.09067	-8
1.09433	-12
1.09800	-16
1.10167	-18
1.10533	-18
1.10900	-16
1.11267	-17
1.11633	-22
1.12000	-23
1.12367	-21
1.12733	-20
1.13100	-20
1.13467	-20
1.13833	-19
1.14200	-18
1.14567	-16
1.14933	-17
1.15300	-18
1.15667	-17
1.16033	-12
1.16400	-4
1.16767	4
1.17133	8
1.17500	6
1.17867	4
1.18233	6
1.18600	5
1.18967	-1
1.19333	-10
1.19700	-21
1.20067	-25
1.20433	-24
1.20800	-22
1.21167	-20
1.21533	-18
1.21900	-18
1.22267	-21
1.22633	-22
1.23000	-23
1.23367	-23
1.23733	-23
1.24100	-21
1.24467	-17
1.24833	-10
1.25200	-1
1.25567	5
1.25933	4
1.26300	-0
1.26667	-2
1.27033	-0
1.27400	0
1.27767	1
1.28133	2
1.28500	2
1.28867	-1
1.29233	-4
1.29600	-5
1.29967	-5
1.30333	-7
1.30700	-10
1.31067	-14
1.31433	-17
1.31800	-19
1.32167	-15
1.32533	-7
1.32900	0
1.33267	4
1.33633	3
1.34000	-2
1.34367	-8
1.34733	-9
1.35100	-6
1.35467	-3
1.35833	-3
1.36200	-6
1.36567	-9
1.36933	-10
1.37300	-12
1.37667	-15
1.38033	-17
1.38400	-16
1.38767	-13
1.39133	-11
1.39500	-11
1.39867	-13
1.40233	-17
1.40600	-25
1.40967	-30
1.41333	-27
1.41700	-21
1.42067	-14
1.42433	-6
1.42800	-1
1.43167	-1
1.43533	-1
1.43900	18
1.44267	127
1.44633	415
1.45000	808
1.45367	1153
1.45733	1386
1.46100	1512
1.46467	1557
1.46833	1550
1.47200	1518
1.47567	1470
1.47933	1404
1.48300	1313
1.48667	1190
1.49033	1039
1.49400	874
1.49767	715
1.50133	574
1.50500	456
1.50867	364
1.51233	290
1.51600	230
1.51967	183
1.52333	147
1.52700	122
1.53067	106
1.53433	100
1.53800	136
1.54167	339
1.54533	979
1.54900	2277
1.55267	4110
1.55633	6084
1.56000	7838
1.56367	9171
1.56733	9975
1.57100	10120
1.57467	9511
1.57833	8242
1.58200	6620
1.58567	4987
1.58933	3575
1.59300	2475
1.59667	1673
1.60033	1114
1.60400	739
1.60767	494
1.61133	337
1.61500	238
1.61867	176
1.62233	136
1.62600	109
1.62967	87
1.63333	69
1.63700	54
1.64067	43
1.64433	33
1.64800	25
1.65167	21
1.65533	16
1.65900	12
1.66267	9
1.66633	8
1.67000	10
1.67367	15
1.67733	20
1.68100	23
1.68467	21
1.68833	17
1.69200	13
1.69567	9
1.69933	9
1.70300	10
1.70667	14
1.71033	14
1.71400	10
1.71767	0
1.72133	-9
1.72500	-15
1.72867	-14
1.73233	-8
1.73600	-1
1.73967	6
1.74333	6
1.74700	5
1.75067	6
1.75433	8
1.75800	11
1.76167	15
1.76533	18
1.76900	20
1.77267	18
1.77633	16
1.78000	17
1.78367	19
1.78733	23
1.79100	24
1.79467	21
1.79833	16
1.80200	11
1.80567	6
1.80933	3
1.81300	-0
1.81667	-6
1.82033	-10
1.82400	-12
1.82767	-11
1.83133	-5
1.83500	5
1.83867	14
1.84233	19
1.84600	23
1.84967	26
1.85333	25
1.85700	23
1.86067	22
1.86433	25
1.86800	33
1.87167	42
1.87533	48
1.87900	50
1.88267	48
1.88633	44
1.89000	40
1.89367	35
1.89733	33
1.90100	31
1.90467	29
1.90833	29
1.91200	33
1.91567	38
1.91933	43
1.92300	49
1.92667	56
1.93033	61
1.93400	64
1.93767	64
1.94133	64
1.94500	63
1.94867	65
1.95233	76
1.95600	159
1.95967	689
1.96333	3381
1.96700	13744
1.97067	44055
1.97433	112467
1.97800	232558
1.98167	399281
1.98533	586875
1.98900	761983
1.99267	895967
1.99633	969721
2.00000	974538
2.00367	913280
2.00733	800813
2.01100	660191
2.01467	515501
2.01833	385026
2.02200	278146
2.02567	196529
2.02933	137246
2.03300	95642
2.03667	67085
2.04033	47724
2.04400	34657
2.04767	25818
2.05133	19792
2.05500	15629
2.05867	12695
2.06233	10578
2.06600	9014
2.06967	7833
2.07333	6918
2.07700	6190
2.08067	5597
2.08433	5107
2.08800	4696
2.09167	4345
2.09533	4043
2.09900	3779
2.10267	3547
2.10633	3343
2.11000	3163
2.11367	3002
2.11733	2858
2.12100	2729
2.12467	2611
2.12833	2500
2.13200	2395
2.13567	2299
2.13933	2213
2.14300	2133
2.14667	2058
2.15033	1988
2.15400	1919
2.15767	1854
2.16133	1793
2.16500	1739
2.16867	1689
2.17233	1640
2.17600	1595
2.17967	1553
2.18333	1514
2.18700	1478
2.19067	1444
2.19433	1412
2.19800	1382
2.20167	1354
2.20533	1323
2.20900	1288
2.21267	1254
2.21633	1223
2.22000	1192
2.22367	1162
2.22733	1138
2.23100	1118
2.23467	1103
2.23833	1090
2.24200	1076
2.24567	1060
2.24933	1046
2.25300	1033
2.25667	1020
2.26033	1005
2.26400	989
2.26767	975
2.27133	961
2.27500	944
2.27867	924
2.28233	904
2.28600	886
2.28967	874
2.29333	868
2.29700	862
2.30067	856
2.30433	849
2.30800	840
2.31167	832
2.31533	823
2.31900	811
2.32267	800
2.32633	792
2.33000	785
2.33367	778
2.33733	768
2.34100	755
2.34467	741
2.34833	731
2.35200	724
2.35567	722
2.35933	720
2.36300	716
2.36667	708
2.37033	698
2.37400	689
2.37767	684
2.38133	685
2.38500	686
2.38867	684
2.39233	682
2.39600	680
2.39967	677
2.40333	674
2.40700	671
2.41067	667
2.41433	665
2.41800	663
2.42167	659
2.42533	652
2.42900	642
2.43267	633
2.43633	628
2.44000	623
2.44367	621
2.44733	625
2.45100	629
2.45467	630
2.45833	629
2.46200	628
2.46567	628
2.46933	627
2.47300	624
2.47667	619
2.48033	612
2.48400	605
2.48767	597
2.49133	587
2.49500	580
2.49867	576
2.50233	576
2.50600	577
2.50967	578
2.51333	581
2.51700	584
2.52067	590
2.52433	595
2.52800	595
2.53167	594
2.53533	590
2.53900	586
2.54267	583
2.54633	581
2.55000	575
2.55367	567
2.55733	559
2.56100	551
2.56467	544
2.56833	539
2.57200	535
2.57567	532
2.57933	531
2.58300	531
2.58667	532
2.59033	533
2.59400	529
2.59767	521
2.60133	511
2.60500	500
2.60867	493
2.61233	491
2.61600	492
2.61967	496
2.62333	504
2.62700	510
2.63067	514
2.63433	515
2.63800	516
2.64167	519
2.64533	521
2.64900	520
2.65267	515
2.65633	508
2.66000	502
2.66367	497
2.66733	493
2.67100	492
2.67467	491
2.67833	492
2.68200	493
2.68567	492
2.68933	489
2.69300	487
2.69667	488
2.70033	491
2.70400	490
2.70767	490
2.71133	492
2.71500	496
2.71867	500
2.72233	503
2.72600	504
2.72967	504
2.73333	506
2.73700	507
2.74067	505
2.74433	501
2.74800	496
2.75167	491
2.75533	489
2.75900	487
2.76267	483
2.76633	480
2.77000	478
2.77367	479
2.77733	481
2.78100	485
2.78467	487
2.78833	484
2.79200	478
2.79567	472
2.79933	467
2.80300	467
2.80667	472
2.81033	479
2.81400	481
2.81767	481
2.82133	482
2.82500	483
2.82867	482
2.83233	479
2.83600	477
2.83967	475
2.84333	475
2.84700	476
2.85067	477
2.85433	473
2.85800	467
2.86167	463
2.86533	463
2.86900	467
2.87267	471
2.87633	475
2.88000	480
2.88367	485
2.88733	491
2.89100	493
2.89467	491
2.89833	489
2.90200	487
2.90567	486
2.90933	483
2.91300	479
2.91667	476
2.92033	477
2.92400	478
2.92767	476
2.93133	470
2.93500	460
2.93867	450
2.94233	446
2.94600	449
2.94967	457
2.95333	464
2.95700	471
2.96067	475
2.96433	474
2.96800	471
2.97167	472
2.97533	476
2.97900	479
2.98267	480
2.98633	478
2.99000	478
2.99367	480
2.99733	483
3.00100	486
3.00467	490
3.00833	496
3.01200	503
3.01567	509
3.01933	511
3.02300	508
3.02667	501
3.03033	493
3.03400	485
3.03767	478
3.04133	472
3.04500	471
3.04867	473
3.05233	478
3.05600	481
3.05967	485
3.06333	486
3.06700	483
3.07067	477
3.07433	472
3.07800	468
3.08167	466
3.08533	465
3.08900	466
3.09267	470
3.09633	475
3.10000	479
3.10367	478
3.10733	473
3.11100	467
3.11467	461
3.11833	457
3.12200	455
3.12567	455
3.12933	457
3.13300	460
3.13667	464
3.14033	468
3.14400	471
3.14767	471
3.15133	472
3.15500	475
3.15867	476
3.16233	476
3.16600	472
3.16967	468
3.17333	463
3.17700	463
3.18067	464
3.18433	467
3.18800	473
3.19167	480
3.19533	484
3.19900	480
3.20267	472
3.20633	464
3.21000	455
3.21367	448
3.21733	446
3.22100	451
3.22467	459
3.22833	468
3.23200	478
3.23567	486
3.23933	488
3.24300	486
3.24667	479
3.25033	471
3.25400	464
3.25767	460
3.26133	459
3.26500	463
3.26867	467
3.27233	470
3.27600	472
3.27967	469
3.28333	463
3.28700	456
3.29067	454
3.29433	456
3.29800	459
3.30167	463
3.30533	466
3.30900	468
3.31267	469
3.31633	467
3.32000	462
3.32367	457
3.32733	450
3.33100	446
3.33467	446
3.33833	448
3.34200	451
3.34567	454
3.34933	458
3.35300	461
3.35667	461
3.36033	460
3.36400	455
3.36767	449
3.37133	445
3.37500	443
3.37867	447
3.38233	457
3.38600	467
3.38967	477
3.39333	483
3.39700	483
3.40067	477
3.40433	472
3.40800	468
3.41167	462
3.41533	455
3.41900	450
3.42267	451
3.42633	457
3.43000	463
3.43367	468
3.43733	471
3.44100	470
3.44467	469
3.44833	469
3.45200	465
3.45567	456
3.45933	445
3.46300	436
3.46667	433
3.47033	434
3.47400	437
3.47767	440
3.48133	441
3.48500	441
3.48867	442
3.49233	442
3.49600	441
3.49967	441
3.50333	442
3.50700	445
3.51067	446
3.51433	446
3.51800	448
3.52167	451
3.52533	455
3.52900	460
3.53267	464
3.53633	464
3.54000	463
3.54367	462
3.54733	460
3.55100	457
3.55467	454
3.55833	449
3.56200	446
3.56567	446
3.56933	449
3.57300	451
3.57667	452
3.58033	457
3.58400	462
3.58767	463
3.59133	459
3.59500	451
3.59867	442
3.60233	438
3.60600	440
3.60967	443
3.61333	441
3.61700	439
3.62067	437
3.62433	434
3.62800	432
3.63167	433
3.63533	437
3.63900	444
3.64267	449
3.64633	451
3.65000	453
3.65367	452
3.65733	447
3.66100	438
3.66467	431
3.66833	427
3.67200	429
3.67567	437
3.67933	443
3.68300	444
3.68667	441
3.69033	435
3.69400	429
3.69767	422
3.70133	415
3.70500	411
3.70867	410
3.71233	412
3.71600	418
3.71967	426
3.72333	434
3.72700	442
3.73067	448
3.73433	455
3.73800	456
3.74167	451
3.74533	443
3.74900	437
3.75267	435
3.75633	436
3.76000	437
3.76367	438
3.76733	435
3.77100	432
3.77467	428
3.77833	422
3.78200	416
3.78567	412
3.78933	410
3.79300	413
3.79667	421
3.80033	430
3.80400	441
3.80767	448
3.81133	449
3.81500	442
3.81867	434
3.82233	428
3.82600	423
3.82967	420
3.83333	419
3.83700	417
3.84067	417
3.84433	417
3.84800	415
3.85167	413
3.85533	416
3.85900	421
3.86267	427
3.86633	433
3.87000	435
3.87367	433
3.87733	429
3.88100	425
3.88467	423
3.88833	422
3.89200	420
3.89567	418
3.89933	416
3.90300	412
3.90667	412
3.91033	414
3.91400	413
3.91767	411
3.92133	409
3.92500	406
3.92867	403
3.93233	402
3.93600	400
3.93967	398
3.94333	397
3.94700	398
3.95067	399
3.95433	398
3.95800	397
3.96167	396
3.96533	396
3.96900	395
3.97267	394
3.97633	394
3.98000	395
3.98367	398
3.98733	399
3.99100	398
3.99467	398
3.99833	400

[Chromatogram (Ch2)]
Interval(msec)	220
# of Points	1091
Start Time(min)	0.002
End Time(min)	3.998
R.Time (min)	Intensity
0.00167	1
0.00533	1
0.00900	1
0.01267	1
0.01633	2
0.02000	2
0.02367	2
0.02733	2
0.03100	2
0.03467	2
0.03833	3
0.04200	3
0.04567	2
0.04933	2
0.05300	2
0.05667	2
0.06033	2
0.06400	2
0.06767	2
0.07133	2
0.07500	2
0.07867	2
0.08233	2
0.08600	3
0.08967	3
0.09333	3
0.09700	4
0.10067	4
0.10433	4
0.10800	4
0.11167	4
0.11533	4
0.11900	4
0.12267	5
0.12633	5
0.13000	5
0.13367	5
0.13733	4
0.14100	4
0.14467	4
0.14833	4
0.15200	3
0.15567	3
0.15933	3
0.16300	2
0.16667	2
0.17033	1
0.17400	1
0.17767	1
0.18133	1
0.18500	1
0.18867	1
0.19233	1
0.19600	1
0.19967	1
0.20333	1
0.20700	1
0.21067	1
0.21433	1
0.21800	1
0.22167	0
0.22533	0
0.22900	0
0.23267	-0
0.23633	-0
0.24000	-0
0.24367	-1
0.24733	-1
0.25100	-1
0.25467	-1
0.25833	-1
0.26200	-1
0.26567	-1
0.26933	-0
0.27300	-0
0.27667	-0
0.28033	0
0.28400	0
0.28767	0
0.29133	0
0.29500	0
0.29867	-0
0.30233	-0
0.30600	0
0.30967	0
0.31333	0
0.31700	0
0.32067	0
0.32433	0
0.32800	0
0.33167	0
0.33533	1
0.33900	1
0.34267	1
0.34633	1
0.35000	1
0.35367	1
0.35733	1
0.36100	1
0.36467	1
0.36833	1
0.37200	1
0.37567	1
0.37933	1
0.38300	1
0.38667	1
0.39033	1
0.39400	1
0.39767	1
0.40133	1
0.40500	1
0.40867	1
0.41233	1
0.41600	1
0.41967	1
0.42333	0
0.42700	0
0.43067	0
0.43433	0
0.43800	0
0.44167	0
0.44533	0
0.44900	-0
0.45267	-0
0.45633	-0
0.46000	-1
0.46367	-1
0.46733	-1
0.47100	-1
0.47467	-1
0.47833	-1
0.48200	-1
0.48567	-1
0.48933	-1
0.49300	-1
0.49667	-2
0.50033	-2
0.50400	-2
0.50767	-2
0.51133	-2
0.51500	-1
0.51867	-1
0.52233	-1
0.52600	-1
0.52967	-1
0.53333	-0
0.53700	-0
0.54067	-0
0.54433	0
0.54800	0
0.55167	0
0.55533	0
0.55900	1
0.56267	1
0.56633	1
0.57000	1
0.57367	1
0.57733	1
0.58100	1
0.58467	1
0.58833	1
0.59200	1
0.59567	1
0.59933	1
0.60300	1
0.60667	1
0.61033	1
0.61400	1
0.61767	1
0.62133	1
0.62500	0
0.62867	0
0.63233	0
0.63600	-0
0.63967	-0
0.64333	-0
0.64700	-1
0.65067	-1
0.65433	-1
0.65800	-1
0.66167	-1
0.66533	-1
0.66900	-1
0.67267	-1
0.67633	-1
0.68000	-1
0.68367	-1
0.68733	-1
0.69100	-1
0.69467	-1
0.69833	-1
0.70200	-1
0.70567	-1
0.70933	-1
0.71300	-1
0.71667	-1
0.72033	-1
0.72400	-0
0.72767	-0
0.73133	-0
0.73500	-0
0.73867	-0
0.74233	-0
0.74600	-1
0.74967	-1
0.75333	-1
0.75700	-1
0.76067	-1
0.76433	-1
0.76800	-1
0.77167	-1
0.77533	-1
0.77900	-1
0.78267	-1
0.78633	-1
0.79000	-1
0.79367	-1
0.79733	-1
0.80100	-0
0.80467	-0
0.80833	0
0.81200	0
0.81567	1
0.81933	1
0.82300	1
0.82667	0
0.83033	0
0.83400	0
0.83767	-0
0.84133	-0
0.84500	-0
0.84867	-0
0.85233	0
0.85600	0
0.85967	0
0.86333	-0
0.86700	-0
0.87067	-0
0.87433	-0
0.87800	-0
0.88167	-0
0.88533	-1
0.88900	-1
0.89267	-1
0.89633	-1
0.90000	-1
0.90367	-1
0.90733	-1
0.91100	-1
0.91467	-1
0.91833	-1
0.92200	-1
0.92567	-1
0.92933	-1
0.93300	-1
0.93667	-1
0.94033	-0
0.94400	-1
0.94767	-1
0.95133	-1
0.95500	-1
0.95867	-1
0.96233	-1
0.96600	-2
0.96967	-2
0.97333	-2
0.97700	-2
0.98067	-2
0.98433	-2
0.98800	-2
0.99167	-1
0.99533	-1
0.99900	-2
1.00267	-2
1.00633	-2
1.01000	-2
1.01367	-2
1.01733	-1
1.02100	-1
1.02467	-1
1.02833	-1
1.03200	-1
1.03567	-1
1.03933	-0
1.04300	-0
1.04667	-0
1.05033	-0
1.05400	-0
1.05767	-0
1.06133	-0
1.06500	-0
1.06867	-1
1.07233	-1
1.07600	-1
1.07967	-1
1.08333	-1
1.08700	-1
1.09067	-1
1.09433	-1
1.09800	-1
1.10167	-0
1.10533	-0
1.10900	-0
1.11267	-0
1.11633	-0
1.12000	-1
1.12367	-1
1.12733	-1
1.13100	-1
1.13467	-1
1.13833	-1
1.14200	-1
1.14567	-1
1.14933	-0
1.15300	-0
1.15667	-0
1.16033	0
1.16400	0
1.16767	0
1.17133	0
1.17500	0
1.17867	0
1.18233	0
1.18600	0
1.18967	0
1.19333	0
1.19700	0
1.20067	0
1.20433	1
1.20800	0
1.21167	0
1.21533	-0
1.21900	-0
1.22267	-0
1.22633	-0
1.23000	-1
1.23367	-1
1.23733	-1
1.24100	-2
1.24467	-2
1.24833	-2
1.25200	-2
1.25567	-2
1.25933	-2
1.26300	-2
1.26667	-2
1.27033	-2
1.27400	-2
1.27767	-2
1.28133	-2
1.28500	-2
1.28867	-2
1.29233	-2
1.29600	-2
1.29967	-2
1.30333	-2
1.30700	-2
1.31067	-2
1.31433	-2
1.31800	-2
1.32167	-2
1.32533	-2
1.32900	-2
1.33267	-3
1.33633	-3
1.34000	-3
1.34367	-3
1.34733	-3
1.35100	-3
1.35467	-3
1.35833	-3
1.36200	-3
1.36567	-3
1.36933	-2
1.37300	-2
1.37667	-2
1.38033	-2
1.38400	-1
1.38767	-1
1.39133	-1
1.39500	-1
1.39867	-1
1.40233	-1
1.40600	-1
1.40967	-0
1.41333	-0
1.41700	-0
1.42067	-0
1.42433	-1
1.42800	-1
1.43167	-1
1.43533	-1
1.43900	-1
1.44267	-1
1.44633	-1
1.45000	-1
1.45367	-1
1.45733	-1
1.46100	-2
1.46467	-2
1.46833	-2
1.47200	-2
1.47567	-2
1.47933	-2
1.48300	-2
1.48667	-2
1.49033	-2
1.49400	-2
1.49767	-2
1.50133	-2
1.50500	-2
1.50867	-2
1.51233	-2
1.51600	-1
1.51967	-1
1.52333	-1
1.52700	-1
1.53067	-1
1.53433	-1
1.53800	-1
1.54167	-1
1.54533	-1
1.54900	-1
1.55267	-1
1.55633	-1
1.56000	-1
1.56367	-1
1.56733	-1
1.57100	-2
1.57467	-2
1.57833	-2
1.58200	-2
1.58567	-1
1.58933	-1
1.59300	-1
1.59667	-2
1.60033	-2
1.60400	-3
1.60767	-5
1.61133	-6
1.61500	-8
1.61867	-10
1.62233	-13
1.62600	-15
1.62967	-18
1.63333	-21
1.63700	-25
1.64067	-28
1.64433	-32
1.64800	-35
1.65167	-39
1.65533	-42
1.65900	-46
1.66267	-50
1.66633	-54
1.67000	-58
1.67367	-62
1.67733	-67
1.68100	-71
1.68467	-76
1.68833	-81
1.69200	-86
1.69567	-91
1.69933	-95
1.70300	-99
1.70667	-102
1.71033	-104
1.71400	-106
1.71767	-107
1.72133	-109
1.72500	-109
1.72867	-110
1.73233	-110
1.73600	-110
1.73967	-110
1.74333	-109
1.74700	-109
1.75067	-109
1.75433	-110
1.75800	-111
1.76167	-112
1.76533	-113
1.76900	-114
1.77267	-114
1.77633	-115
1.78000	-116
1.78367	-116
1.78733	-116
1.79100	-116
1.79467	-116
1.79833	-116
1.80200	-116
1.80567	-115
1.80933	-115
1.81300	-115
1.81667	-115
1.82033	-115
1.82400	-115
1.82767	-116
1.83133	-117
1.83500	-117
1.83867	-118
1.84233	-118
1.84600	-117
1.84967	-117
1.85333	-116
1.85700	-116
1.86067	-116
1.86433	-116
1.86800	-115
1.87167	-115
1.87533	-115
1.87900	-115
1.88267	-115
1.88633	-115
1.89000	-116
1.89367	-116
1.89733	-116
1.90100	-116
1.90467	-116
1.90833	-115
1.91200	-115
1.91567	-115
1.91933	-115
1.92300	-114
1.92667	-114
1.93033	-114
1.93400	-113
1.93767	-113
1.94133	-112
1.94500	-113
1.94867	-113
1.95233	-114
1.95600	-114
1.95967	-114
1.96333	-114
1.96700	-113
1.97067	-113
1.97433	-112
1.97800	-111
1.98167	-111
1.98533	-110
1.98900	-110
1.99267	-110
1.99633	-109
2.00000	-109
2.00367	-108
2.00733	-108
2.01100	-108
2.01467	-108
2.01833	-108
2.02200	-108
2.02567	-108
2.02933	-109
2.03300	-109
2.03667	-109
2.04033	-109
2.04400	-109
2.04767	-109
2.05133	-108
2.05500	-108
2.05867	-107
2.06233	-107
2.06600	-106
2.06967	-105
2.07333	-105
2.07700	-104
2.08067	-104
2.08433	-103
2.08800	-103
2.09167	-103
2.09533	-103
2.09900	-103
2.10267	-102
2.10633	-102
2.11000	-101
2.11367	-101
2.11733	-100
2.12100	-100
2.12467	-100
2.12833	-100
2.13200	-100
2.13567	-99
2.13933	-99
2.14300	-98
2.14667	-98
2.15033	-98
2.15400	-97
2.15767	-97
2.16133	-96
2.16500	-95
2.16867	-95
2.17233	-95
2.17600	-95
2.17967	-94
2.18333	-94
2.18700	-94
2.19067	-94
2.19433	-93
2.19800	-93
2.20167	-93
2.20533	-93
2.20900	-93
2.21267	-92
2.21633	-92
2.22000	-92
2.22367	-92
2.22733	-92
2.23100	-91
2.23467	-91
2.23833	-90
2.24200	-90
2.24567	-90
2.24933	-89
2.25300	-89
2.25667	-88
2.26033	-88
2.26400	-88
2.26767	-88
2.27133	-88
2.27500	-88
2.27867	-89
2.28233	-89
2.28600	-90
2.28967	-90
2.29333	-89
2.29700	-88
2.30067	-87
2.30433	-86
2.30800	-85
2.31167	-85
2.31533	-84
2.31900	-84
2.32267	-84
2.32633	-84
2.33000	-84
2.33367	-83
2.33733	-83
2.34100	-82
2.34467	-82
2.34833	-81
2.35200	-80
2.35567	-80
2.35933	-79
2.36300	-78
2.36667	-77
2.37033	-75
2.37400	-72
2.37767	-69
2.38133	-66
2.38500	-62
2.38867	-58
2.39233	-54
2.39600	-50
2.39967	-47
2.40333	-43
2.40700	-39
2.41067	-35
2.41433	-31
2.41800	-27
2.42167	-24
2.42533	-21
2.42900	-18
2.43267	-15
2.43633	-13
2.44000	-10
2.44367	-8
2.44733	-6
2.45100	-5
2.45467	-3
2.45833	-2
2.46200	-1
2.46567	0
2.46933	1
2.47300	2
2.47667	3
2.48033	3
2.48400	4
2.48767	5
2.49133	6
2.49500	7
2.49867	8
2.50233	9
2.50600	10
2.50967	11
2.51333	11
2.51700	12
2.52067	12
2.52433	12
2.52800	13
2.53167	13
2.53533	14
2.53900	14
2.54267	15
2.54633	15
2.55000	15
2.55367	15
2.55733	16
2.56100	16
2.56467	17
2.56833	17
2.57200	17
2.57567	18
2.57933	17
2.58300	17
2.58667	17
2.59033	18
2.59400	18
2.59767	19
2.60133	19
2.60500	19
2.60867	19
2.61233	19
2.61600	18
2.61967	18
2.62333	18
2.62700	18
2.63067	18
2.63433	19
2.63800	19
2.64167	19
2.64533	19
2.64900	19
2.65267	19
2.65633	19
2.66000	20
2.66367	20
2.66733	20
2.67100	20
2.67467	21
2.67833	22
2.68200	23
2.68567	23
2.68933	24
2.69300	25
2.69667	25
2.70033	25
2.70400	25
2.70767	25
2.71133	25
2.71500	24
2.71867	24
2.72233	24
2.72600	23
2.72967	23
2.73333	23
2.73700	23
2.74067	24
2.74433	24
2.74800	25
2.75167	25
2.75533	25
2.75900	26
2.76267	26
2.76633	26
2.77000	26
2.77367	26
2.77733	26
2.78100	26
2.78467	27
2.78833	27
2.79200	27
2.79567	27
2.79933	27
2.80300	27
2.80667	27
2.81033	27
2.81400	27
2.81767	27
2.82133	27
2.82500	27
2.82867	27
2.83233	27
2.83600	27
2.83967	27
2.84333	27
2.84700	26
2.85067	24
2.85433	22
2.85800	18
2.86167	11
2.86533	1
2.86900	-13
2.87267	-30
2.87633	-52
2.88000	-79
2.88367	-111
2.88733	-149
2.89100	-191
2.89467	-238
2.89833	-290
2.90200	-345
2.90567	-405
2.90933	-468
2.91300	-534
2.91667	-604
2.92033	-675
2.92400	-749
2.92767	-825
2.93133	-903
2.93500	-984
2.93867	-1065
2.94233	-1148
2.94600	-1233
2.94967	-1319
2.95333	-1401
2.95700	-1468
2.96067	-1507
2.96433	-1513
2.96800	-1484
2.97167	-1425
2.97533	-1342
2.97900	-1244
2.98267	-1137
2.98633	-1028
2.99000	-919
2.99367	-815
2.99733	-718
3.00100	-629
3.00467	-547
3.00833	-475
3.01200	-410
3.01567	-353
3.01933	-303
3.02300	-259
3.02667	-221
3.03033	-189
3.03400	-160
3.03767	-136
3.04133	-115
3.04500	-97
3.04867	-82
3.05233	-69
3.05600	-57
3.05967	-48
3.06333	-39
3.06700	-32
3.07067	-26
3.07433	-21
3.07800	-17
3.08167	-13
3.08533	-10
3.08900	-7
3.09267	-4
3.09633	-2
3.10000	-0
3.10367	1
3.10733	3
3.11100	4
3.11467	5
3.11833	5
3.12200	6
3.12567	7
3.12933	8
3.13300	9
3.13667	10
3.14033	11
3.14400	12
3.14767	13
3.15133	13
3.15500	14
3.15867	15
3.16233	15
3.16600	15
3.16967	16
3.17333	16
3.17700	16
3.18067	17
3.18433	17
3.18800	17
3.19167	18
3.19533	18
3.19900	18
3.20267	18
3.20633	19
3.21000	19
3.21367	19
3.21733	20
3.22100	20
3.22467	20
3.22833	20
3.23200	21
3.23567	21
3.23933	21
3.24300	21
3.24667	21
3.25033	21
3.25400	22
3.25767	22
3.26133	22
3.26500	22
3.26867	22
3.27233	22
3.27600	22
3.27967	22
3.28333	23
3.28700	23
3.29067	23
3.29433	24
3.29800	24
3.30167	24
3.30533	25
3.30900	25
3.31267	25
3.31633	25
3.32000	25
3.32367	25
3.32733	25
3.33100	25
3.33467	25
3.33833	25
3.34200	25
3.34567	25
3.34933	26
3.35300	26
3.35667	26
3.36033	26
3.36400	25
3.36767	25
3.37133	25
3.37500	25
3.37867	25
3.38233	26
3.38600	26
3.38967	26
3.39333	27
3.39700	27
3.40067	27
3.40433	28
3.40800	28
3.41167	28
3.41533	28
3.41900	29
3.42267	29
3.42633	29
3.43000	29
3.43367	29
3.43733	29
3.44100	29
3.44467	29
3.44833	29
3.45200	29
3.45567	28
3.45933	28
3.46300	28
3.46667	28
3.47033	28
3.47400	28
3.47767	28
3.48133	28
3.48500	28
3.48867	28
3.49233	28
3.49600	28
3.49967	28
3.50333	28
3.50700	28
3.51067	28
3.51433	28
3.51800	28
3.52167	28
3.52533	28
3.52900	28
3.53267	28
3.53633	27
3.54000	27
3.54367	27
3.54733	27
3.55100	27
3.55467	27
3.55833	27
3.56200	27
3.56567	27
3.56933	27
3.57300	27
3.57667	26
3.58033	26
3.58400	26
3.58767	26
3.59133	26
3.59500	26
3.59867	26
3.60233	26
3.60600	26
3.60967	26
3.61333	26
3.61700	26
3.62067	26
3.62433	25
3.62800	25
3.63167	25
3.63533	25
3.63900	25
3.64267	25
3.64633	25
3.65000	25
3.65367	25
3.65733	25
3.66100	25
3.66467	26
3.66833	26
3.67200	26
3.67567	26
3.67933	27
3.68300	27
3.68667	27
3.69033	27
3.69400	27
3.69767	28
3.70133	28
3.70500	28
3.70867	28
3.71233	29
3.71600	29
3.71967	29
3.72333	29
3.72700	29
3.73067	29
3.73433	29
3.73800	29
3.74167	29
3.74533	29
3.74900	30
3.75267	30
3.75633	30
3.76000	30
3.76367	29
3.76733	29
3.77100	30
3.77467	30
3.77833	30
3.78200	30
3.78567	29
3.78933	29
3.79300	29
3.79667	29
3.80033	28
3.80400	28
3.80767	28
3.81133	28
3.81500	28
3.81867	28
3.82233	28
3.82600	28
3.82967	28
3.83333	29
3.83700	29
3.84067	29
3.84433	29
3.84800	29
3.85167	29
3.85533	29
3.85900	29
3.86267	29
3.86633	29
3.87000	29
3.87367	29
3.87733	29
3.88100	29
3.88467	29
3.88833	29
3.89200	29
3.89567	29
3.89933	29
3.90300	29
3.90667	29
3.91033	28
3.91400	28
3.91767	28
3.92133	28
3.92500	28
3.92867	28
3.93233	27
3.93600	27
3.93967	27
3.94333	27
3.94700	27
3.95067	27
3.95433	27
3.95800	28
3.96167	28
3.96533	28
3.96900	28
3.97267	28
3.97633	28
3.98000	28
3.98367	27
3.98733	27
3.99100	27
3.99467	27
3.99833	27

[Chromatogram (Ch3)]
Interval(msec)	220
# of Points	1091
Start Time(min)	0.002
End Time(min)	3.998
R.Time (min)	Intensity
0.00167	-0
0.00533	-3
0.00900	-7
0.01267	-9
0.01633	-9
0.02000	-6
0.02367	-4
0.02733	-4
0.03100	-4
0.03467	-2
0.03833	-2
0.04200	-3
0.04567	-3
0.04933	-7
0.05300	-8
0.05667	-7
0.06033	-5
0.06400	-6
0.06767	-7
0.07133	-6
0.07500	-5
0.07867	-4
0.08233	-6
0.08600	-5
0.08967	-3
0.09333	-3
0.09700	-4
0.10067	-3
0.10433	-4
0.10800	-4
0.11167	-5
0.11533	-6
0.11900	-5
0.12267	-3
0.12633	-3
0.13000	-4
0.13367	-3
0.13733	-5
0.14100	-5
0.14467	-7
0.14833	-8
0.15200	-9
0.15567	-12
0.15933	-10
0.16300	-7
0.16667	-7
0.17033	-8
0.17400	-11
0.17767	-11
0.18133	-10
0.18500	-9
0.18867	-8
0.19233	-8
0.19600	-11
0.19967	-13
0.20333	-12
0.20700	-11
0.21067	-10
0.21433	-9
0.21800	-9
0.22167	-7
0.22533	-7
0.22900	-8
0.23267	-10
0.23633	-9
0.24000	-9
0.24367	-9
0.24733	-9
0.25100	-10
0.25467	-9
0.25833	-6
0.26200	-5
0.26567	-7
0.26933	-8
0.27300	-7
0.27667	-9
0.28033	-13
0.28400	-15
0.28767	-14
0.29133	-11
0.29500	-10
0.29867	-10
0.30233	-11
0.30600	-11
0.30967	-12
0.31333	-12
0.31700	-12
0.32067	-11
0.32433	-10
0.32800	-9
0.33167	-6
0.33533	-5
0.33900	-5
0.34267	-6
0.34633	-8
0.35000	-10
0.35367	-12
0.35733	-11
0.36100	-11
0.36467	-11
0.36833	-11
0.37200	-12
0.37567	-13
0.37933	-12
0.38300	-10
0.38667	-8
0.39033	-6
0.39400	-6
0.39767	-9
0.40133	-12
0.40500	-11
0.40867	-11
0.41233	-12
0.41600	-15
0.41967	-16
0.42333	-16
0.42700	-15
0.43067	-16
0.43433	-19
0.43800	-21
0.44167	-20
0.44533	-19
0.44900	-17
0.45267	-14
0.45633	-14
0.46000	-14
0.46367	-13
0.46733	-11
0.47100	-12
0.47467	-14
0.47833	-15
0.48200	-13
0.48567	-13
0.48933	-11
0.49300	-10
0.49667	-9
0.50033	-10
0.50400	-9
0.50767	-8
0.51133	-9
0.51500	-11
0.51867	-12
0.52233	-12
0.52600	-10
0.52967	-12
0.53333	-17
0.53700	-18
0.54067	-17
0.54433	-15
0.54800	-13
0.55167	-13
0.55533	-15
0.55900	-19
0.56267	-19
0.56633	-16
0.57000	-14
0.57367	-13
0.57733	-12
0.58100	-13
0.58467	-14
0.58833	-17
0.59200	-18
0.59567	-17
0.59933	-15
0.60300	-15
0.60667	-16
0.61033	-18
0.61400	-18
0.61767	-17
0.62133	-16
0.62500	-14
0.62867	-11
0.63233	-11
0.63600	-11
0.63967	-12
0.64333	-13
0.64700	-13
0.65067	-14
0.65433	-14
0.65800	-13
0.66167	-14
0.66533	-16
0.66900	-17
0.67267	-15
0.67633	-14
0.68000	-15
0.68367	-15
0.68733	-14
0.69100	-14
0.69467	-11
0.69833	-8
0.70200	-10
0.70567	-12
0.70933	-14
0.71300	-13
0.71667	-13
0.72033	-12
0.72400	-11
0.72767	-13
0.73133	-14
0.73500	-12
0.73867	-12
0.74233	-10
0.74600	-10
0.74967	-12
0.75333	-12
0.75700	-11
0.76067	-11
0.76433	-11
0.76800	-11
0.77167	-12
0.77533	-13
0.77900	-10
0.78267	-8
0.78633	-5
0.79000	-5
0.79367	-6
0.79733	-7
0.80100	-7
0.80467	-5
0.80833	-3
0.81200	-4
0.81567	-4
0.81933	-3
0.82300	-4
0.82667	-7
0.83033	-10
0.83400	-12
0.83767	-11
0.84133	-11
0.84500	-9
0.84867	-7
0.85233	-7
0.85600	-7
0.85967	-7
0.86333	-7
0.86700	-8
0.87067	-9
0.87433	-10
0.87800	-10
0.88167	-9
0.88533	-8
0.88900	-6
0.89267	-6
0.89633	-9
0.90000	-10
0.90367	-12
0.90733	-13
0.91100	-12
0.91467	-10
0.91833	-11
0.92200	-11
0.92567	-10
0.92933	-9
0.93300	-8
0.93667	-7
0.94033	-7
0.94400	-9
0.94767	-9
0.95133	-9
0.95500	-8
0.95867	-6
0.96233	-6
0.96600	-6
0.96967	-8
0.97333	-10
0.97700	-12
0.98067	-12
0.98433	-11
0.98800	-11
0.99167	-11
0.99533	-10
0.99900	-9
1.00267	-9
1.00633	-10
1.01000	-11
1.01367	-11
1.01733	-11
1.02100	-10
1.02467	-10
1.02833	-9
1.03200	-6
1.03567	-6
1.03933	-7
1.04300	-9
1.04667	-10
1.05033	-11
1.05400	-9
1.05767	-9
1.06133	-7
1.06500	-4
1.06867	-3
1.07233	-4
1.07600	-4
1.07967	-5
1.08333	-5
1.08700	-7
1.09067	-9
1.09433	-10
1.09800	-10
1.10167	-9
1.10533	-9
1.10900	-10
1.11267	-10
1.11633	-10
1.12000	-11
1.12367	-12
1.12733	-13
1.13100	-12
1.13467	-11
1.13833	-10
1.14200	-9
1.14567	-11
1.14933	-11
1.15300	-9
1.15667	-10
1.16033	-12
1.16400	-12
1.16767	-10
1.17133	-10
1.17500	-14
1.17867	-16
1.18233	-16
1.18600	-13
1.18967	-8
1.19333	-5
1.19700	-3
1.20067	-2
1.20433	-1
1.20800	-2
1.21167	-4
1.21533	-5
1.21900	-5
1.22267	-8
1.22633	-10
1.23000	-10
1.23367	-11
1.23733	-11
1.24100	-11
1.24467	-12
1.24833	-12
1.25200	-11
1.25567	-11
1.25933	-11
1.26300	-12
1.26667	-13
1.27033	-14
1.27400	-15
1.27767	-15
1.28133	-17
1.28500	-18
1.28867	-17
1.29233	-17
1.29600	-15
1.29967	-14
1.30333	-13
1.30700	-12
1.31067	-13
1.31433	-15
1.31800	-16
1.32167	-14
1.32533	-14
1.32900	-15
1.33267	-14
1.33633	-12
1.34000	-13
1.34367	-14
1.34733	-14
1.35100	-13
1.35467	-12
1.35833	-12
1.36200	-12
1.36567	-14
1.36933	-14
1.37300	-13
1.37667	-14
1.38033	-14
1.38400	-12
1.38767	-9
1.39133	-9
1.39500	-9
1.39867	-9
1.40233	-8
1.40600	-7
1.40967	-6
1.41333	-7
1.41700	-10
1.42067	-12
1.42433	-10
1.42800	-11
1.43167	-12
1.43533	-13
1.43900	-15
1.44267	-15
1.44633	-17
1.45000	-16
1.45367	-15
1.45733	-15
1.46100	-15
1.46467	-15
1.46833	-15
1.47200	-15
1.47567	-14
1.47933	-12
1.48300	-13
1.48667	-15
1.49033	-14
1.49400	-14
1.49767	-14
1.50133	-15
1.50500	-18
1.50867	-20
1.51233	-20
1.51600	-18
1.51967	-15
1.52333	-14
1.52700	-13
1.53067	-12
1.53433	-12
1.53800	-13
1.54167	-13
1.54533	-14
1.54900	-14
1.55267	-15
1.55633	-18
1.56000	-19
1.56367	-17
1.56733	-14
1.57100	-14
1.57467	-16
1.57833	-16
1.58200	-15
1.58567	-13
1.58933	-14
1.59300	-14
1.59667	-12
1.60033	-11
1.60400	-10
1.60767	-10
1.61133	-10
1.61500	-9
1.61867	-12
1.62233	-14
1.62600	-15
1.62967	-14
1.63333	-12
1.63700	-11
1.64067	-10
1.64433	-7
1.64800	-3
1.65167	-3
1.65533	-3
1.65900	-4
1.66267	-4
1.66633	-2
1.67000	-0
1.67367	1
1.67733	4
1.68100	4
1.68467	4
1.68833	6
1.69200	6
1.69567	6
1.69933	5
1.70300	5
1.70667	4
1.71033	3
1.71400	4
1.71767	4
1.72133	5
1.72500	8
1.72867	10
1.73233	10
1.73600	10
1.73967	10
1.74333	11
1.74700	11
1.75067	10
1.75433	12
1.75800	14
1.76167	15
1.76533	15
1.76900	15
1.77267	16
1.77633	16
1.78000	15
1.78367	17
1.78733	19
1.79100	20
1.79467	20
1.79833	21
1.80200	23
1.80567	25
1.80933	26
1.81300	26
1.81667	26
1.82033	25
1.82400	25
1.82767	26
1.83133	29
1.83500	31
1.83867	31
1.84233	32
1.84600	33
1.84967	33
1.85333	35
1.85700	37
1.86067	38
1.86433	34
1.86800	32
1.87167	33
1.87533	36
1.87900	38
1.88267	38
1.88633	38
1.89000	37
1.89367	37
1.89733	35
1.90100	36
1.90467	36
1.90833	36
1.91200	37
1.91567	41
1.91933	42
1.92300	41
1.92667	40
1.93033	42
1.93400	43
1.93767	44
1.94133	48
1.94500	52
1.94867	54
1.95233	54
1.95600	52
1.95967	50
1.96333	51
1.96700	54
1.97067	57
1.97433	58
1.97800	59
1.98167	60
1.98533	59
1.98900	58
1.99267	58
1.99633	59
2.00000	62
2.00367	61
2.00733	62
2.01100	62
2.01467	63
2.01833	64
2.02200	65
2.02567	65
2.02933	66
2.03300	68
2.03667	70
2.04033	70
2.04400	70
2.04767	70
2.05133	71
2.05500	74
2.05867	77
2.06233	76
2.06600	77
2.06967	79
2.07333	83
2.07700	85
2.08067	89
2.08433	89
2.08800	88
2.09167	89
2.09533	91
2.09900	91
2.10267	93
2.10633	95
2.11000	96
2.11367	96
2.11733	97
2.12100	99
2.12467	102
2.12833	106
2.13200	108
2.13567	108
2.13933	110
2.14300	112
2.14667	111
2.15033	109
2.15400	110
2.15767	111
2.16133	110
2.16500	111
2.16867	110
2.17233	109
2.17600	109
2.17967	112
2.18333	113
2.18700	112
2.19067	113
2.19433	115
2.19800	119
2.20167	122
2.20533	127
2.20900	130
2.21267	131
2.21633	130
2.22000	129
2.22367	130
2.22733	131
2.23100	133
2.23467	136
2.23833	138
2.24200	141
2.24567	147
2.24933	150
2.25300	153
2.25667	154
2.26033	154
2.26400	154
2.26767	156
2.27133	157
2.27500	158
2.27867	159
2.28233	160
2.28600	162
2.28967	166
2.29333	170
2.29700	172
2.30067	174
2.30433	176
2.30800	179
2.31167	181
2.31533	180
2.31900	181
2.32267	184
2.32633	189
2.33000	193
2.33367	195
2.33733	195
2.34100	195
2.34467	194
2.34833	196
2.35200	199
2.35567	202
2.35933	205
2.36300	208
2.36667	209
2.37033	211
2.37400	213
2.37767	214
2.38133	214
2.38500	215
2.38867	211
2.39233	210
2.39600	212
2.39967	216
2.40333	218
2.40700	221
2.41067	226
2.41433	227
2.41800	228
2.42167	230
2.42533	230
2.42900	231
2.43267	232
2.43633	233
2.44000	233
2.44367	244
2.44733	270
2.45100	296
2.45467	309
2.45833	306
2.46200	293
2.46567	279
2.46933	265
2.47300	253
2.47667	237
2.48033	220
2.48400	201
2.48767	186
2.49133	173
2.49500	166
2.49867	163
2.50233	163
2.50600	165
2.50967	166
2.51333	168
2.51700	166
2.52067	161
2.52433	151
2.52800	142
2.53167	130
2.53533	120
2.53900	112
2.54267	106
2.54633	102
2.55000	98
2.55367	96
2.55733	95
2.56100	95
2.56467	96
2.56833	97
2.57200	96
2.57567	96
2.57933	97
2.58300	100
2.58667	104
2.59033	111
2.59400	119
2.59767	125
2.60133	126
2.60500	124
2.60867	117
2.61233	101
2.61600	77
2.61967	49
2.62333	15
2.62700	-21
2.63067	-59
2.63433	-95
2.63800	-126
2.64167	-152
2.64533	-173
2.64900	-189
2.65267	-200
2.65633	-205
2.66000	-205
2.66367	-202
2.66733	-197
2.67100	-191
2.67467	-184
2.67833	-175
2.68200	-169
2.68567	-161
2.68933	-149
2.69300	-137
2.69667	-125
2.70033	-114
2.70400	-106
2.70767	-99
2.71133	-91
2.71500	-83
2.71867	-78
2.72233	-69
2.72600	-60
2.72967	-53
2.73333	-48
2.73700	-45
2.74067	-42
2.74433	-38
2.74800	-32
2.75167	-27
2.75533	-24
2.75900	-19
2.76267	-12
2.76633	-6
2.77000	-2
2.77367	3
2.77733	6
2.78100	9
2.78467	12
2.78833	14
2.79200	19
2.79567	25
2.79933	30
2.80300	33
2.80667	37
2.81033	42
2.81400	43
2.81767	45
2.82133	48
2.82500	55
2.82867	75
2.83233	127
2.83600	243
2.83967	476
2.84333	891
2.84700	1555
2.85067	2522
2.85433	3812
2.85800	5388
2.86167	7174
2.86533	9054
2.86900	10894
2.87267	12553
2.87633	13906
2.88000	14861
2.88367	15374
2.88733	15451
2.89100	15140
2.89467	14519
2.89833	13671
2.90200	12675
2.90567	11607
2.90933	10526
2.91300	9465
2.91667	8449
2.92033	7500
2.92400	6628
2.92767	5837
2.93133	5125
2.93500	4485
2.93867	3916
2.94233	3412
2.94600	2969
2.94967	2581
2.95333	2241
2.95700	1944
2.96067	1683
2.96433	1456
2.96800	1258
2.97167	1086
2.97533	937
2.97900	807
2.98267	696
2.98633	600
2.99000	518
2.99367	449
2.99733	389
3.00100	338
3.00467	296
3.00833	255
3.01200	220
3.01567	192
3.01933	168
3.02300	147
3.02667	128
3.03033	113
3.03400	102
3.03767	90
3.04133	77
3.04500	67
3.04867	59
3.05233	53
3.05600	46
3.05967	41
3.06333	38
3.06700	34
3.07067	29
3.07433	23
3.07800	18
3.08167	17
3.08533	16
3.08900	13
3.09267	12
3.09633	10
3.10000	7
3.10367	5
3.10733	2
3.11100	-0
3.11467	-2
3.11833	-3
3.12200	-3
3.12567	-1
3.12933	-1
3.13300	-3
3.13667	-4
3.14033	-3
3.14400	-3
3.14767	-5
3.15133	-7
3.15500	-9
3.15867	-9
3.16233	-9
3.16600	-9
3.16967	-12
3.17333	-14
3.17700	-13
3.18067	-13
3.18433	-12
3.18800	-12
3.19167	-12
3.19533	-13
3.19900	-13
3.20267	-14
3.20633	-15
3.21000	-14
3.21367	-13
3.21733	-14
3.22100	-15
3.22467	-15
3.22833	-15
3.23200	-16
3.23567	-18
3.23933	-19
3.24300	-21
3.24667	-21
3.25033	-24
3.25400	-26
3.25767	-28
3.26133	-26
3.26500	-24
3.26867	-25
3.27233	-26
3.27600	-27
3.27967	-28
3.28333	-29
3.28700	-31
3.29067	-32
3.29433	-32
3.29800	-34
3.30167	-37
3.30533	-40
3.30900	-47
3.31267	-51
3.31633	-54
3.32000	-55
3.32367	-54
3.32733	-55
3.33100	-57
3.33467	-58
3.33833	-59
3.34200	-61
3.34567	-64
3.34933	-68
3.35300	-72
3.35667	-74
3.36033	-74
3.36400	-74
3.36767	-76
3.37133	-79
3.37500	-81
3.37867	-84
3.38233	-86
3.38600	-89
3.38967	-93
3.39333	-94
3.39700	-97
3.40067	-99
3.40433	-98
3.40800	-97
3.41167	-99
3.41533	-104
3.41900	-109
3.42267	-112
3.42633	-113
3.43000	-115
3.43367	-115
3.43733	-118
3.44100	-121
3.44467	-123
3.44833	-125
3.45200	-129
3.45567	-132
3.45933	-135
3.46300	-137
3.46667	-140
3.47033	-142
3.47400	-143
3.47767	-143
3.48133	-144
3.48500	-144
3.48867	-144
3.49233	-145
3.49600	-147
3.49967	-150
3.50333	-151
3.50700	-154
3.51067	-154
3.51433	-155
3.51800	-153
3.52167	-150
3.52533	-150
3.52900	-152
3.53267	-154
3.53633	-154
3.54000	-155
3.54367	-157
3.54733	-158
3.55100	-158
3.55467	-159
3.55833	-158
3.56200	-157
3.56567	-157
3.56933	-157
3.57300	-157
3.57667	-159
3.58033	-162
3.58400	-166
3.58767	-169
3.59133	-170
3.59500	-171
3.59867	-170
3.60233	-168
3.60600	-168
3.60967	-170
3.61333	-169
3.61700	-167
3.62067	-166
3.62433	-168
3.62800	-169
3.63167	-169
3.63533	-170
3.63900	-172
3.64267	-172
3.64633	-172
3.65000	-173
3.65367	-172
3.65733	-172
3.66100	-173
3.66467	-173
3.66833	-174
3.67200	-173
3.67567	-173
3.67933	-172
3.68300	-170
3.68667	-167
3.69033	-169
3.69400	-171
3.69767	-172
3.70133	-171
3.70500	-169
3.70867	-168
3.71233	-170
3.71600	-173
3.71967	-176
3.72333	-176
3.72700	-174
3.73067	-173
3.73433	-175
3.73800	-177
3.74167	-177
3.74533	-176
3.74900	-174
3.75267	-174
3.75633	-171
3.76000	-168
3.76367	-167
3.76733	-166
3.77100	-167
3.77467	-170
3.77833	-170
3.78200	-168
3.78567	-166
3.78933	-164
3.79300	-164
3.79667	-167
3.80033	-167
3.80400	-163
3.80767	-159
3.81133	-158
3.81500	-160
3.81867	-162
3.82233	-163
3.82600	-165
3.82967	-168
3.83333	-169
3.83700	-168
3.84067	-167
3.84433	-167
3.84800	-168
3.85167	-165
3.85533	-165
3.85900	-166
3.86267	-164
3.86633	-162
3.87000	-163
3.87367	-164
3.87733	-163
3.88100	-163
3.88467	-163
3.88833	-164
3.89200	-165
3.89567	-165
3.89933	-166
3.90300	-164
3.90667	-162
3.91033	-160
3.91400	-159
3.91767	-156
3.92133	-156
3.92500	-155
3.92867	-154
3.93233	-152
3.93600	-152
3.93967	-151
3.94333	-150
3.94700	-149
3.95067	-148
3.95433	-147
3.95800	-148
3.96167	-149
3.96533	-150
3.96900	-149
3.97267	-149
3.97633	-150
3.98000	-151
3.98367	-151
3.98733	-152
3.99100	-151
3.99467	-151
3.99833	-149

[Status Trace (Column Oven Temperature)]
Interval(msec)	1000
# of Points	240
Start Time(min)	0.005
End Time(min)	3.989
Intensity Units	
Intensity Multiplier	1
R.Time (min)	Intensity
0.00548	35.04
0.02215	35.03
0.03882	35.02
0.05548	35.02
0.07215	35.02
0.08882	35.00
0.10548	35.00
0.12215	34.99
0.13882	34.98
0.15548	34.99
0.17215	34.99
0.18882	34.99
0.20548	34.99
0.22215	34.99
0.23882	35.00
0.25548	35.00
0.27215	35.00
0.28882	35.00
0.30548	35.00
0.32215	35.00
0.33882	34.99
0.35548	34.98
0.37215	34.98
0.38882	34.98
0.40548	34.98
0.42215	34.98
0.43882	34.98
0.45548	34.98
0.47215	35.00
0.48882	35.01
0.50548	35.02
0.52215	35.01
0.53882	34.99
0.55548	35.00
0.57215	35.00
0.58882	34.99
0.60548	34.99
0.62215	34.99
0.63882	34.99
0.65548	34.99
0.67215	34.98
0.68882	34.99
0.70548	35.00
0.72215	35.00
0.73882	34.99
0.75548	35.00
0.77215	35.00
0.78882	34.99
0.80548	34.99
0.82215	34.99
0.83882	34.99
0.85548	35.00
0.87215	34.99
0.88882	35.00
0.90548	35.00
0.92215	34.99
0.93882	34.99
0.95548	34.99
0.97215	34.99
0.98882	35.00
1.00548	35.01
1.02215	35.01
1.03882	35.01
1.05548	35.01
1.07215	35.01
1.08882	35.01
1.10548	35.00
1.12215	35.00
1.13882	35.00
1.15548	34.99
1.17215	34.99
1.18882	34.99
1.20548	34.99
1.22215	34.99
1.23882	35.00
1.25548	35.00
1.27215	35.00
1.28882	35.00
1.30548	35.00
1.32215	35.02
1.33882	35.02
1.35548	35.02
1.37215	35.01
1.38882	35.01
1.40548	35.01
1.42215	35.01
1.43882	35.00
1.45548	35.00
1.47215	35.00
1.48882	35.00
1.50548	35.00
1.52215	35.00
1.53882	34.98
1.55548	34.99
1.57215	34.99
1.58882	35.00
1.60548	35.06
1.62215	35.18
1.63882	35.36
1.65548	35.58
1.67215	35.90
1.68882	36.28
1.70548	36.65
1.72215	36.99
1.73882	37.30
1.75548	37.64
1.77215	37.97
1.78882	38.31
1.80548	38.62
1.82215	38.96
1.83882	39.29
1.85548	39.61
1.87215	39.94
1.88882	40.26
1.90548	40.60
1.92215	40.91
1.93882	41.23
1.95548	41.57
1.97215	41.88
1.98882	42.21
2.00548	42.54
2.02215	42.88
2.03882	43.21
2.05548	43.54
2.07215	43.86
2.08882	44.20
2.10548	44.52
2.12215	44.84
2.13882	45.16
2.15548	45.49
2.17215	45.80
2.18882	46.12
2.20548	46.45
2.22215	46.80
2.23882	47.12
2.25548	47.44
2.27215	47.81
2.28882	48.15
2.30548	48.48
2.32215	48.82
2.33882	49.14
2.35548	49.42
2.37215	49.61
2.38882	49.66
2.40548	49.65
2.42215	49.66
2.43882	49.65
2.45548	49.65
2.47215	49.67
2.48882	49.69
2.50548	49.70
2.52215	49.70
2.53882	49.72
2.55548	49.74
2.57215	49.76
2.58882	49.78
2.60548	49.81
2.62215	49.83
2.63882	49.84
2.65548	49.86
2.67215	49.86
2.68882	49.83
2.70548	49.84
2.72215	49.86
2.73882	49.87
2.75548	49.87
2.77215	49.86
2.78882	49.87
2.80548	49.86
2.82215	49.86
2.83882	49.87
2.85548	49.88
2.87215	49.89
2.88882	49.91
2.90548	49.92
2.92215	49.92
2.93882	49.93
2.95548	49.95
2.97215	49.96
2.98882	49.97
3.00548	49.98
3.02215	49.99
3.03882	50.00
3.05548	50.01
3.07215	50.03
3.08882	50.04
3.10548	50.05
3.12215	50.06
3.13882	50.06
3.15548	50.06
3.17215	50.07
3.18882	50.08
3.20548	50.08
3.22215	50.08
3.23882	50.09
3.25548	50.10
3.27215	50.10
3.28882	50.10
3.30548	50.09
3.32215	50.09
3.33882	50.10
3.35548	50.10
3.37215	50.10
3.38882	50.09
3.40548	50.08
3.42215	50.07
3.43882	50.07
3.45548	50.06
3.47215	50.05
3.48882	50.06
3.50548	50.05
3.52215	50.05
3.53882	50.05
3.55548	50.06
3.57215	50.06
3.58882	50.07
3.60548	50.08
3.62215	50.09
3.63882	50.10
3.65548	50.10
3.67215	50.10
3.68882	50.10
3.70548	50.09
3.72215	50.08
3.73882	50.07
3.75548	50.06
3.77215	50.06
3.78882	50.05
3.80548	50.05
3.82215	50.04
3.83882	50.03
3.85548	50.02
3.87215	50.01
3.88882	50.02
3.90548	50.01
3.92215	50.02
3.93882	50.02
3.95548	50.01
3.97215	50.01
3.98882	50.01

[Status Trace (Injection Unit Temperature)]
Interval(msec)	1000
# of Points	240
Start Time(min)	0.005
End Time(min)	3.989
Intensity Units	
Intensity Multiplier	1
R.Time (min)	Intensity
0.00548	100.00
0.02215	100.00
0.03882	100.00
0.05548	100.00
0.07215	100.00
0.08882	100.00
0.10548	100.00
0.12215	100.00
0.13882	100.00
0.15548	100.00
0.17215	100.00
0.18882	100.00
0.20548	100.00
0.22215	100.00
0.23882	100.00
0.25548	100.00
0.27215	100.00
0.28882	100.00
0.30548	100.00
0.32215	100.00
0.33882	100.00
0.35548	100.00
0.37215	100.00
0.38882	100.00
0.40548	100.00
0.42215	100.00
0.43882	100.00
0.45548	100.00
0.47215	100.00
0.48882	100.00
0.50548	100.00
0.52215	100.00
0.53882	100.00
0.55548	100.00
0.57215	100.00
0.58882	100.00
0.60548	100.00
0.62215	100.00
0.63882	100.00
0.65548	100.00
0.67215	100.00
0.68882	100.00
0.70548	100.00
0.72215	100.00
0.73882	100.00
0.75548	100.00
0.77215	100.00
0.78882	100.00
0.80548	100.00
0.82215	100.00
0.83882	100.00
0.85548	100.00
0.87215	100.00
0.88882	100.00
0.90548	100.00
0.92215	100.00
0.93882	100.00
0.95548	100.00
0.97215	100.00
0.98882	100.00
1.00548	100.00
1.02215	100.00
1.03882	100.00
1.05548	100.00
1.07215	100.00
1.08882	100.00
1.10548	100.00
1.12215	100.00
1.13882	100.00
1.15548	100.00
1.17215	100.00
1.18882	100.00
1.20548	100.00
1.22215	100.00
1.23882	100.00
1.25548	100.00
1.27215	100.00
1.28882	100.00
1.30548	100.00
1.32215	100.00
1.33882	100.00
1.35548	100.00
1.37215	100.00
1.38882	100.00
1.40548	100.00
1.42215	100.00
1.43882	100.00
1.45548	100.00
1.47215	100.00
1.48882	100.00
1.50548	100.00
1.52215	100.00
1.53882	100.00
1.55548	100.00
1.57215	100.00
1.58882	100.00
1.60548	100.01
1.62215	100.00
1.63882	100.00
1.65548	100.00
1.67215	100.01
1.68882	100.00
1.70548	100.00
1.72215	100.00
1.73882	100.00
1.75548	100.00
1.77215	100.00
1.78882	100.00
1.80548	100.00
1.82215	100.00
1.83882	100.00
1.85548	100.00
1.87215	100.00
1.88882	100.00
1.90548	100.00
1.92215	100.00
1.93882	99.99
1.95548	99.99
1.97215	99.99
1.98882	99.99
2.00548	99.99
2.02215	99.99
2.03882	99.99
2.05548	99.99
2.07215	99.99
2.08882	99.99
2.10548	99.99
2.12215	99.98
2.13882	99.99
2.15548	99.99
2.17215	99.98
2.18882	99.98
2.20548	99.98
2.22215	99.98
2.23882	99.98
2.25548	99.98
2.27215	99.98
2.28882	99.98
2.30548	99.98
2.32215	99.98
2.33882	99.98
2.35548	99.98
2.37215	99.98
2.38882	99.99
2.40548	99.98
2.42215	99.98
2.43882	99.99
2.45548	99.99
2.47215	99.99
2.48882	99.98
2.50548	99.99
2.52215	99.99
2.53882	99.99
2.55548	99.99
2.57215	99.99
2.58882	99.99
2.60548	99.99
2.62215	99.99
2.63882	99.99
2.65548	100.00
2.67215	100.00
2.68882	100.00
2.70548	100.00
2.72215	100.00
2.73882	100.00
2.75548	100.00
2.77215	100.00
2.78882	100.00
2.80548	100.00
2.82215	100.00
2.83882	100.00
2.85548	100.01
2.87215	100.00
2.88882	100.01
2.90548	100.01
2.92215	100.01
2.93882	100.01
2.95548	100.01
2.97215	100.01
2.98882	100.01
3.00548	100.02
3.02215	100.01
3.03882	100.01
3.05548	100.02
3.07215	100.02
3.08882	100.02
3.10548	100.02
3.12215	100.02
3.13882	100.02
3.15548	100.02
3.17215	100.02
3.18882	100.02
3.20548	100.02
3.22215	100.02
3.23882	100.03
3.25548	100.03
3.27215	100.03
3.28882	100.03
3.30548	100.03
3.32215	100.03
3.33882	100.03
3.35548	100.03
3.37215	100.03
3.38882	100.03
3.40548	100.04
3.42215	100.04
3.43882	100.04
3.45548	100.04
3.47215	100.04
3.48882	100.04
3.50548	100.04
3.52215	100.04
3.53882	100.04
3.55548	100.05
3.57215	100.05
3.58882	100.05
3.60548	100.04
3.62215	100.04
3.63882	100.05
3.65548	100.05
3.67215	100.05
3.68882	100.05
3.70548	100.05
3.72215	100.06
3.73882	100.05
3.75548	100.06
3.77215	100.06
3.78882	100.05
3.80548	100.06
3.82215	100.06
3.83882	100.06
3.85548	100.06
3.87215	100.06
3.88882	100.06
3.90548	100.06
3.92215	100.06
3.93882	100.06
3.95548	100.06
3.97215	100.06
3.98882	100.06

[Status Trace (Carrier Gas Pressure)]
Interval(msec)	1000
# of Points	240
Start Time(min)	0.005
End Time(min)	3.989
Intensity Units	
Intensity Multiplier	1
R.Time (min)	Intensity
0.00548	58.00
0.02215	55.75
0.03882	56.78
0.05548	58.87
0.07215	59.65
0.08882	58.13
0.10548	57.98
0.12215	58.01
0.13882	58.01
0.15548	58.01
0.17215	58.00
0.18882	58.00
0.20548	58.00
0.22215	58.00
0.23882	58.00
0.25548	58.00
0.27215	58.00
0.28882	58.00
0.30548	58.00
0.32215	58.00
0.33882	58.00
0.35548	58.00
0.37215	58.00
0.38882	58.00
0.40548	58.00
0.42215	58.00
0.43882	58.00
0.45548	58.00
0.47215	58.00
0.48882	58.00
0.50548	58.00
0.52215	58.00
0.53882	58.00
0.55548	58.00
0.57215	58.00
0.58882	58.00
0.60548	58.00
0.62215	58.00
0.63882	58.00
0.65548	58.00
0.67215	58.00
0.68882	58.00
0.70548	58.00
0.72215	58.00
0.73882	58.00
0.75548	58.00
0.77215	58.00
0.78882	58.00
0.80548	58.00
0.82215	58.00
0.83882	58.00
0.85548	58.00
0.87215	58.00
0.88882	58.00
0.90548	58.00
0.92215	58.00
0.93882	58.00
0.95548	58.00
0.97215	58.00
0.98882	58.00
1.00548	58.00
1.02215	58.00
1.03882	58.00
1.05548	58.00
1.07215	58.00
1.08882	58.00
1.10548	58.00
1.12215	58.00
1.13882	58.00
1.15548	58.00
1.17215	58.00
1.18882	58.00
1.20548	58.00
1.22215	58.00
1.23882	58.00
1.25548	58.00
1.27215	58.00
1.28882	58.00
1.30548	58.00
1.32215	58.00
1.33882	58.00
1.35548	58.00
1.37215	58.00
1.38882	58.00
1.40548	58.00
1.42215	58.00
1.43882	58.00
1.45548	58.00
1.47215	58.00
1.48882	58.00
1.50548	58.00
1.52215	58.00
1.53882	58.00
1.55548	58.00
1.57215	58.00
1.58882	58.00
1.60548	58.00
1.62215	58.00
1.63882	58.01
1.65548	58.00
1.67215	58.00
1.68882	58.01
1.70548	58.00
1.72215	58.00
1.73882	58.00
1.75548	58.00
1.77215	58.00
1.78882	58.00
1.80548	58.00
1.82215	58.00
1.83882	58.00
1.85548	58.00
1.87215	58.00
1.88882	58.00
1.90548	58.00
1.92215	58.00
1.93882	58.00
1.95548	58.00
1.97215	58.00
1.98882	58.00
2.00548	58.00
2.02215	58.00
2.03882	58.00
2.05548	58.00
2.07215	58.00
2.08882	58.00
2.10548	58.00
2.12215	58.00
2.13882	58.00
2.15548	58.00
2.17215	58.00
2.18882	58.00
2.20548	58.00
2.22215	58.00
2.23882	58.00
2.25548	58.00
2.27215	58.00
2.28882	58.00
2.30548	58.00
2.32215	58.00
2.33882	58.00
2.35548	58.00
2.37215	58.00
2.38882	57.99
2.40548	57.99
2.42215	58.00
2.43882	58.00
2.45548	58.00
2.47215	58.00
2.48882	58.00
2.50548	57.99
2.52215	57.98
2.53882	58.00
2.55548	58.00
2.57215	58.00
2.58882	58.00
2.60548	58.00
2.62215	58.00
2.63882	58.00
2.65548	58.00
2.67215	58.00
2.68882	58.00
2.70548	58.00
2.72215	58.00
2.73882	58.00
2.75548	58.00
2.77215	58.00
2.78882	58.00
2.80548	58.00
2.82215	58.00
2.83882	58.00
2.85548	58.00
2.87215	58.00
2.88882	58.00
2.90548	58.00
2.92215	58.00
2.93882	58.00
2.95548	58.00
2.97215	58.00
2.98882	58.01
3.00548	58.01
3.02215	58.00
3.03882	58.00
3.05548	58.00
3.07215	58.00
3.08882	58.00
3.10548	58.00
3.12215	58.00
3.13882	58.00
3.15548	58.00
3.17215	58.00
3.18882	58.00
3.20548	58.00
3.22215	58.00
3.23882	58.00
3.25548	58.00
3.27215	58.00
3.28882	58.00
3.30548	58.00
3.32215	58.00
3.33882	58.00
3.35548	58.00
3.37215	58.00
3.38882	58.00
3.40548	58.00
3.42215	58.00
3.43882	58.00
3.45548	58.00
3.47215	58.00
3.48882	58.00
3.50548	58.00
3.52215	58.00
3.53882	58.00
3.55548	58.00
3.57215	58.00
3.58882	58.00
3.60548	58.00
3.62215	58.00
3.63882	58.00
3.65548	58.00
3.67215	58.00
3.68882	58.00
3.70548	58.00
3.72215	58.00
3.73882	58.00
3.75548	58.00
3.77215	58.00
3.78882	58.00
3.80548	58.00
3.82215	58.00
3.83882	58.00
3.85548	58.00
3.87215	58.00
3.88882	58.00
3.90548	58.00
3.92215	58.00
3.93882	58.00
3.95548	58.00
3.97215	58.00
3.98882	58.00

[Status Trace (Carrier Gas Flow)]
Interval(msec)	1000
# of Points	240
Start Time(min)	0.005
End Time(min)	3.989
Intensity Units	
Intensity Multiplier	1
R.Time (min)	Intensity
0.00548	34.52
0.02215	34.54
0.03882	34.54
0.05548	34.55
0.07215	34.49
0.08882	34.52
0.10548	34.51
0.12215	34.52
0.13882	34.52
0.15548	34.52
0.17215	34.52
0.18882	34.51
0.20548	34.52
0.22215	34.52
0.23882	34.52
0.25548	34.52
0.27215	34.52
0.28882	34.52
0.30548	34.52
0.32215	34.52
0.33882	34.52
0.35548	34.52
0.37215	34.52
0.38882	34.52
0.40548	34.52
0.42215	34.52
0.43882	34.52
0.45548	34.52
0.47215	34.52
0.48882	34.52
0.50548	34.52
0.52215	34.52
0.53882	34.52
0.55548	34.52
0.57215	34.52
0.58882	34.52
0.60548	34.52
0.62215	34.52
0.63882	34.52
0.65548	34.52
0.67215	34.52
0.68882	34.52
0.70548	34.52
0.72215	34.52
0.73882	34.52
0.75548	34.52
0.77215	34.52
0.78882	34.52
0.80548	34.52
0.82215	34.52
0.83882	34.52
0.85548	34.52
0.87215	34.52
0.88882	34.52
0.90548	34.52
0.92215	34.52
0.93882	34.52
0.95548	34.51
0.97215	34.52
0.98882	34.52
1.00548	34.52
1.02215	34.52
1.03882	34.52
1.05548	34.52
1.07215	34.52
1.08882	34.52
1.10548	34.52
1.12215	34.52
1.13882	34.52
1.15548	34.52
1.17215	34.52
1.18882	34.52
1.20548	34.52
1.22215	34.52
1.23882	34.52
1.25548	34.52
1.27215	34.52
1.28882	34.52
1.30548	34.52
1.32215	34.52
1.33882	34.52
1.35548	34.52
1.37215	34.52
1.38882	34.52
1.40548	34.52
1.42215	34.52
1.43882	34.52
1.45548	34.52
1.47215	34.52
1.48882	34.52
1.50548	34.52
1.52215	34.52
1.53882	34.52
1.55548	34.52
1.57215	34.52
1.58882	34.52
1.60548	34.52
1.62215	34.52
1.63882	34.51
1.65548	34.52
1.67215	34.52
1.68882	34.51
1.70548	34.52
1.72215	34.52
1.73882	34.52
1.75548	34.52
1.77215	34.52
1.78882	34.52
1.80548	34.52
1.82215	34.52
1.83882	34.52
1.85548	34.52
1.87215	34.52
1.88882	34.52
1.90548	34.52
1.92215	34.52
1.93882	34.52
1.95548	34.52
1.97215	34.52
1.98882	34.52
2.00548	34.52
2.02215	34.52
2.03882	34.52
2.05548	34.52
2.07215	34.52
2.08882	34.52
2.10548	34.52
2.12215	34.52
2.13882	34.52
2.15548	34.52
2.17215	34.52
2.18882	34.52
2.20548	34.52
2.22215	34.52
2.23882	34.52
2.25548	34.52
2.27215	34.52
2.28882	34.52
2.30548	34.52
2.32215	34.51
2.33882	34.52
2.35548	34.51
2.37215	34.52
2.38882	34.52
2.40548	34.52
2.42215	34.52
2.43882	34.52
2.45548	34.52
2.47215	34.52
2.48882	34.52
2.50548	34.54
2.52215	34.52
2.53882	34.52
2.55548	34.52
2.57215	34.52
2.58882	34.52
2.60548	34.52
2.62215	34.52
2.63882	34.52
2.65548	34.52
2.67215	34.52
2.68882	34.52
2.70548	34.52
2.72215	34.52
2.73882	34.52
2.75548	34.52
2.77215	34.52
2.78882	34.52
2.80548	34.52
2.82215	34.52
2.83882	34.52
2.85548	34.52
2.87215	34.52
2.88882	34.52
2.90548	34.52
2.92215	34.52
2.93882	34.52
2.95548	34.52
2.97215	34.52
2.98882	34.52
3.00548	34.52
3.02215	34.52
3.03882	34.52
3.05548	34.52
3.07215	34.52
3.08882	34.52
3.10548	34.52
3.12215	34.52
3.13882	34.52
3.15548	34.51
3.17215	34.52
3.18882	34.52
3.20548	34.52
3.22215	34.52
3.23882	34.52
3.25548	34.52
3.27215	34.52
3.28882	34.52
3.30548	34.52
3.32215	34.52
3.33882	34.52
3.35548	34.52
3.37215	34.52
3.38882	34.52
3.40548	34.52
3.42215	34.52
3.43882	34.52
3.45548	34.52
3.47215	34.52
3.48882	34.52
3.50548	34.52
3.52215	34.52
3.53882	34.52
3.55548	34.52
3.57215	34.52
3.58882	34.53
3.60548	34.52
3.62215	34.52
3.63882	34.52
3.65548	34.52
3.67215	34.52
3.68882	34.52
3.70548	34.52
3.72215	34.52
3.73882	34.52
3.75548	34.52
3.77215	34.52
3.78882	34.52
3.80548	34.52
3.82215	34.52
3.83882	34.52
3.85548	34.52
3.87215	34.52
3.88882	34.52
3.90548	34.52
3.92215	34.52
3.93882	34.52
3.95548	34.52
3.97215	34.52
3.98882	34.52

[Status Trace (Column Flow)]
Interval(msec)	1000
# of Points	240
Start Time(min)	0.005
End Time(min)	3.989
Intensity Units	
Intensity Multiplier	1
R.Time (min)	Intensity
0.00548	5.47
0.02215	5.21
0.03882	5.32
0.05548	5.57
0.07215	5.66
0.08882	5.48
0.10548	5.46
0.12215	5.47
0.13882	5.47
0.15548	5.47
0.17215	5.47
0.18882	5.47
0.20548	5.47
0.22215	5.47
0.23882	5.47
0.25548	5.47
0.27215	5.47
0.28882	5.47
0.30548	5.47
0.32215	5.47
0.33882	5.47
0.35548	5.47
0.37215	5.47
0.38882	5.47
0.40548	5.47
0.42215	5.47
0.43882	5.47
0.45548	5.47
0.47215	5.47
0.48882	5.47
0.50548	5.47
0.52215	5.47
0.53882	5.47
0.55548	5.47
0.57215	5.47
0.58882	5.47
0.60548	5.47
0.62215	5.47
0.63882	5.47
0.65548	5.47
0.67215	5.47
0.68882	5.47
0.70548	5.47
0.72215	5.47
0.73882	5.47
0.75548	5.47
0.77215	5.47
0.78882	5.47
0.80548	5.47
0.82215	5.47
0.83882	5.47
0.85548	5.47
0.87215	5.47
0.88882	5.47
0.90548	5.47
0.92215	5.47
0.93882	5.47
0.95548	5.47
0.97215	5.47
0.98882	5.47
1.00548	5.47
1.02215	5.47
1.03882	5.47
1.05548	5.47
1.07215	5.47
1.08882	5.47
1.10548	5.47
1.12215	5.47
1.13882	5.47
1.15548	5.47
1.17215	5.47
1.18882	5.47
1.20548	5.47
1.22215	5.47
1.23882	5.47
1.25548	5.47
1.27215	5.47
1.28882	5.47
1.30548	5.47
1.32215	5.47
1.33882	5.47
1.35548	5.47
1.37215	5.47
1.38882	5.47
1.40548	5.47
1.42215	5.47
1.43882	5.47
1.45548	5.47
1.47215	5.47
1.48882	5.47
1.50548	5.47
1.52215	5.47
1.53882	5.47
1.55548	5.47
1.57215	5.47
1.58882	5.47
1.60548	5.46
1.62215	5.46
1.63882	5.46
1.65548	5.45
1.67215	5.44
1.68882	5.43
1.70548	5.42
1.72215	5.41
1.73882	5.40
1.75548	5.39
1.77215	5.38
1.78882	5.36
1.80548	5.36
1.82215	5.35
1.83882	5.34
1.85548	5.33
1.87215	5.32
1.88882	5.31
1.90548	5.30
1.92215	5.29
1.93882	5.28
1.95548	5.27
1.97215	5.26
1.98882	5.25
2.00548	5.24
2.02215	5.23
2.03882	5.22
2.05548	5.21
2.07215	5.20
2.08882	5.19
2.10548	5.18
2.12215	5.17
2.13882	5.16
2.15548	5.15
2.17215	5.15
2.18882	5.14
2.20548	5.13
2.22215	5.12
2.23882	5.11
2.25548	5.10
2.27215	5.09
2.28882	5.08
2.30548	5.07
2.32215	5.06
2.33882	5.05
2.35548	5.04
2.37215	5.04
2.38882	5.04
2.40548	5.04
2.42215	5.04
2.43882	5.04
2.45548	5.04
2.47215	5.04
2.48882	5.04
2.50548	5.04
2.52215	5.03
2.53882	5.04
2.55548	5.04
2.57215	5.03
2.58882	5.03
2.60548	5.03
2.62215	5.03
2.63882	5.03
2.65548	5.03
2.67215	5.03
2.68882	5.03
2.70548	5.03
2.72215	5.03
2.73882	5.03
2.75548	5.03
2.77215	5.03
2.78882	5.03
2.80548	5.03
2.82215	5.03
2.83882	5.03
2.85548	5.03
2.87215	5.03
2.88882	5.03
2.90548	5.03
2.92215	5.03
2.93882	5.03
2.95548	5.03
2.97215	5.03
2.98882	5.03
3.00548	5.03
3.02215	5.03
3.03882	5.03
3.05548	5.03
3.07215	5.03
3.08882	5.03
3.10548	5.03
3.12215	5.03
3.13882	5.03
3.15548	5.03
3.17215	5.03
3.18882	5.03
3.20548	5.03
3.22215	5.03
3.23882	5.02
3.25548	5.02
3.27215	5.02
3.28882	5.02
3.30548	5.03
3.32215	5.03
3.33882	5.02
3.35548	5.02
3.37215	5.02
3.38882	5.02
3.40548	5.03
3.42215	5.03
3.43882	5.03
3.45548	5.03
3.47215	5.03
3.48882	5.03
3.50548	5.03
3.52215	5.03
3.53882	5.03
3.55548	5.03
3.57215	5.03
3.58882	5.03
3.60548	5.03
3.62215	5.03
3.63882	5.02
3.65548	5.02
3.67215	5.02
3.68882	5.02
3.70548	5.03
3.72215	5.03
3.73882	5.03
3.75548	5.03
3.77215	5.03
3.78882	5.03
3.80548	5.03
3.82215	5.03
3.83882	5.03
3.85548	5.03
3.87215	5.03
3.88882	5.03
3.90548	5.03
3.92215	5.03
3.93882	5.03
3.95548	5.03
3.97215	5.03
3.98882	5.03

[Status Trace (Linear Velocity)]
Interval(msec)	1000
# of Points	240
Start Time(min)	0.005
End Time(min)	3.989
Intensity Units	
Intensity Multiplier	1
R.Time (min)	Intensity
0.00548	39.00
0.02215	37.53
0.03882	38.20
0.05548	39.57
0.07215	40.08
0.08882	39.09
0.10548	38.99
0.12215	39.01
0.13882	39.01
0.15548	39.01
0.17215	39.01
0.18882	39.01
0.20548	39.01
0.22215	39.01
0.23882	39.01
0.25548	39.00
0.27215	39.00
0.28882	39.00
0.30548	39.00
0.32215	39.01
0.33882	39.01
0.35548	39.00
0.37215	39.00
0.38882	39.01
0.40548	39.01
0.42215	39.01
0.43882	39.01
0.45548	39.01
0.47215	39.00
0.48882	39.00
0.50548	39.00
0.52215	39.00
0.53882	39.00
0.55548	39.00
0.57215	39.00
0.58882	39.00
0.60548	39.00
0.62215	39.00
0.63882	39.00
0.65548	39.01
0.67215	39.01
0.68882	39.00
0.70548	39.00
0.72215	39.00
0.73882	39.00
0.75548	39.00
0.77215	39.00
0.78882	39.00
0.80548	39.00
0.82215	39.00
0.83882	39.00
0.85548	39.00
0.87215	39.00
0.88882	39.00
0.90548	39.00
0.92215	39.00
0.93882	39.00
0.95548	39.00
0.97215	39.00
0.98882	39.00
1.00548	39.00
1.02215	39.00
1.03882	39.00
1.05548	39.00
1.07215	39.00
1.08882	39.00
1.10548	39.00
1.12215	39.00
1.13882	39.00
1.15548	39.00
1.17215	39.00
1.18882	39.00
1.20548	39.00
1.22215	39.00
1.23882	39.00
1.25548	39.00
1.27215	39.00
1.28882	39.00
1.30548	39.00
1.32215	39.00
1.33882	39.00
1.35548	39.00
1.37215	39.00
1.38882	39.00
1.40548	39.00
1.42215	39.00
1.43882	39.00
1.45548	39.00
1.47215	39.00
1.48882	39.00
1.50548	39.00
1.52215	39.00
1.53882	39.01
1.55548	39.01
1.57215	39.00
1.58882	39.00
1.60548	39.00
1.62215	38.99
1.63882	38.97
1.65548	38.95
1.67215	38.92
1.68882	38.88
1.70548	38.85
1.72215	38.82
1.73882	38.78
1.75548	38.76
1.77215	38.72
1.78882	38.69
1.80548	38.66
1.82215	38.63
1.83882	38.60
1.85548	38.57
1.87215	38.54
1.88882	38.50
1.90548	38.48
1.92215	38.45
1.93882	38.41
1.95548	38.39
1.97215	38.36
1.98882	38.32
2.00548	38.30
2.02215	38.27
2.03882	38.23
2.05548	38.20
2.07215	38.17
2.08882	38.14
2.10548	38.11
2.12215	38.09
2.13882	38.05
2.15548	38.03
2.17215	38.00
2.18882	37.97
2.20548	37.94
2.22215	37.91
2.23882	37.88
2.25548	37.85
2.27215	37.82
2.28882	37.78
2.30548	37.76
2.32215	37.73
2.33882	37.70
2.35548	37.67
2.37215	37.65
2.38882	37.65
2.40548	37.65
2.42215	37.65
2.43882	37.65
2.45548	37.65
2.47215	37.65
2.48882	37.65
2.50548	37.64
2.52215	37.63
2.53882	37.64
2.55548	37.65
2.57215	37.64
2.58882	37.64
2.60548	37.64
2.62215	37.64
2.63882	37.63
2.65548	37.63
2.67215	37.63
2.68882	37.63
2.70548	37.63
2.72215	37.63
2.73882	37.63
2.75548	37.63
2.77215	37.63
2.78882	37.63
2.80548	37.63
2.82215	37.63
2.83882	37.63
2.85548	37.63
2.87215	37.63
2.88882	37.63
2.90548	37.63
2.92215	37.63
2.93882	37.63
2.95548	37.62
2.97215	37.62
2.98882	37.63
3.00548	37.63
3.02215	37.62
3.03882	37.62
3.05548	37.62
3.07215	37.62
3.08882	37.62
3.10548	37.62
3.12215	37.62
3.13882	37.61
3.15548	37.61
3.17215	37.61
3.18882	37.61
3.20548	37.61
3.22215	37.61
3.23882	37.61
3.25548	37.61
3.27215	37.61
3.28882	37.61
3.30548	37.61
3.32215	37.61
3.33882	37.61
3.35548	37.61
3.37215	37.61
3.38882	37.61
3.40548	37.61
3.42215	37.61
3.43882	37.61
3.45548	37.61
3.47215	37.62
3.48882	37.62
3.50548	37.62
3.52215	37.62
3.53882	37.62
3.55548	37.62
3.57215	37.61
3.58882	37.61
3.60548	37.61
3.62215	37.61
3.63882	37.61
3.65548	37.61
3.67215	37.61
3.68882	37.61
3.70548	37.61
3.72215	37.61
3.73882	37.61
3.75548	37.61
3.77215	37.62
3.78882	37.62
3.80548	37.62
3.82215	37.62
3.83882	37.62
3.85548	37.62
3.87215	37.62
3.88882	37.62
3.90548	37.62
3.92215	37.62
3.93882	37.62
3.95548	37.62
3.97215	37.62
3.98882	37.62

