[Header]
Application Name	LabSolutions
Version	5.110
Data File Name	C:\Users\User\Desktop\GC Analyses\Jack\UIC Prairie Sampling\9.16.22\220916_094.gcd
Output Date	11/29/2022
Output Time	11:10:21 AM

[File Information]
Type	Data File
Generated	11/28/2022 12:31:42 PM
Generated by	System Administrator
Modified	11/28/2022 12:36:05 PM
Modified by	System Administrator

[Sample Information]
Operator Name	System Administrator
Acquired	11/28/2022 12:32:05 PM
Sample Type	1:Standard
Level	1
Sample Name	220916_UICPrairie
Sample ID	220916_UICPrairie
ISTD Amount1	1
ISTD Amount2	1
ISTD Amount3	1
ISTD Amount4	1
ISTD Amount5	1
ISTD Amount6	1
ISTD Amount7	1
ISTD Amount8	1
ISTD Amount9	1
ISTD Amount10	1
ISTD Amount11	1
ISTD Amount12	1
ISTD Amount13	1
ISTD Amount14	1
ISTD Amount15	1
ISTD Amount16	1
ISTD Amount17	1
ISTD Amount18	1
ISTD Amount19	1
ISTD Amount20	1
ISTD Amount21	1
ISTD Amount22	1
ISTD Amount23	1
ISTD Amount24	1
ISTD Amount25	1
ISTD Amount26	1
ISTD Amount27	1
ISTD Amount28	1
ISTD Amount29	1
ISTD Amount30	1
ISTD Amount31	1
ISTD Amount32	1
Sample Amount	1
Dilution Factor	1
Vial#	1
Injection Volume	1
Injection Count	1
Bar Code	

[Original Files]
Data File	C:\Users\User\Desktop\GC Analyses\Jack\UIC Prairie Sampling\9.16.22\220916_094.gcd
Method File	C:\LabSolutions\Data\GHG_4min_2022\ghg3_togas_w_acet_4 min_new_int.gcm
Batch File	
Report Format File	c:\LabSolutions\System\DEFAULT.lsr

[File Description]


[Configuration]
Instrument Name	C0B7VH3-Instrument1
Instrument #	1
Line #	1
# of Detectors	3
Detector ID	DET#1	DET#2	DET#3
Detector Name	FID	PTCD	ECD
# of Channels	1	1	1

[Peak Table(Ch1)]
# of Peaks	3
Peak#	R.Time	I.Time	F.Time	Area	Height	A/H	Conc.	Mark	ID#	Name	k'	Plate #	Plate Ht.	Tailing	Resolution	Sep.Factor	Area Ratio	Height Ratio	Conc. %	Norm Conc.
1	1.479	1.439	1.538	15106	6796	2.223	100.000	   	1	CO	0.000	8566	17.510	1.233	0.000	0.000	0	0	16.667	16.667
2	1.571	1.538	1.655	5752	2771	2.076	100.000	 V 	2	CH4	0.062	10759	13.942	0.000	1.472	0.000	0	0	16.667	16.667
3	2.000	1.956	2.411	1042917	495590	2.104	400.000	   	3	CO2	0.352	17533	8.555	1.329	7.091	5.680	0	0	66.667	66.667

[Peak Table(Ch2)]
# of Peaks	0

[Peak Table(Ch3)]
# of Peaks	4
Peak#	R.Time	I.Time	F.Time	Area	Height	A/H	Conc.	Mark	ID#	Name	k'	Plate #	Plate Ht.	Tailing	Resolution	Sep.Factor	Area Ratio	Height Ratio	Conc. %	Norm Conc.
1	2.447	1.043	2.557	18137	582	31.173	0.000	   			0.000	203	740.437	0.000	0.000	0.000	0	0	0.000	0.000
2	2.609	2.557	2.656	727	179	4.058	0.000	 V 			0.066	3499	42.868	0.000	0.373	0.000	0	0	0.000	0.000
3	2.799	2.689	2.829	2722	436	6.238	0.088	   	1	N2O	0.144	326	460.029	0.000	0.479	2.182	0	0	8.814	8.814
4	2.887	2.829	3.613	28158	5385	5.229	0.912	 V 	1	N2O	0.180	12404	12.093	0.000	0.243	1.250	0	0	91.186	91.186

[Compound Results(Ch1)]
# of IDs	6
ID#	Name	R.Time	Area	Height	Conc.	Curve	3rd	2nd	1st	Constant	Area Ratio	Height Ratio	Conc. %	Norm Conc.
1	CO	1.479	15106	6796	100.000	Linear	0.000000e+00	0.000000e+00	1.510601e+002	0.000000e+00	0	0	16.667	16.667
2	CH4	1.571	5752	2771	100.000	Linear	0.000000e+00	0.000000e+00	5.751892e+001	0.000000e+00	0	0	16.667	16.667
3	CO2	2.000	1042917	495590	400.000	Linear	0.000000e+00	0.000000e+00	2.607293e+003	0.000000e+00	0	0	66.667	66.667
4	Ethylene	0.000	0	0	0.000	Linear	0.000000e+00	0.000000e+00	0.000000e+00	0.000000e+00	0	0	0.000	0.000
5	Acetylene	0.000	0	0	0.000	Linear	0.000000e+00	0.000000e+00	0.000000e+00	0.000000e+00	0	0	0.000	0.000
6	Ethane	0.000	0	0	0.000	Linear	0.000000e+00	0.000000e+00	0.000000e+00	0.000000e+00	0	0	0.000	0.000

[Compound Results(Ch2)]
# of IDs	5
ID#	Name	R.Time	Area	Height	Conc.	Curve	3rd	2nd	1st	Constant	Area Ratio	Height Ratio	Conc. %	Norm Conc.
1	Hydrogen	0.000	0	0	0.000	Linear	0.000000e+00	0.000000e+00	0.000000e+00	0.000000e+00	0	0	0.000	0.000
2	Oxygen	0.000	0	0	0.000	Linear	0.000000e+00	0.000000e+00	0.000000e+00	0.000000e+00	0	0	0.000	0.000
3	Nitrogen	0.000	0	0	0.000	Linear	0.000000e+00	0.000000e+00	0.000000e+00	0.000000e+00	0	0	0.000	0.000
4	Methane	0.000	0	0	0.000	Linear	0.000000e+00	0.000000e+00	0.000000e+00	0.000000e+00	0	0	0.000	0.000
5	Carbon Monoxide	0.000	0	0	0.000	Linear	0.000000e+00	0.000000e+00	0.000000e+00	0.000000e+00	0	0	0.000	0.000

[Compound Results(Ch3)]
# of IDs	2
ID#	Name	R.Time	Area	Height	Conc.	Curve	3rd	2nd	1st	Constant	Area Ratio	Height Ratio	Conc. %	Norm Conc.
1	N2O	2.887	30880	5821	1.000	Linear	0.000000e+00	0.000000e+00	3.088009e+004	0.000000e+00	0	0	100.000	100.000
2	SF6	0.000	0	0	0.000	Linear	0.000000e+00	0.000000e+00	0.000000e+00	0.000000e+00	0	0	0.000	0.000

[Group Results(Ch1)]
# of Groups	0

[Group Results(Ch2)]
# of Groups	0

[Group Results(Ch3)]
# of Groups	0

[Chromatogram (Ch1)]
Interval(msec)	220
# of Points	1091
Start Time(min)	0.002
End Time(min)	3.998
R.Time (min)	Intensity
0.00167	1
0.00533	-0
0.00900	2
0.01267	3
0.01633	8
0.02000	15
0.02367	16
0.02733	14
0.03100	15
0.03467	17
0.03833	17
0.04200	14
0.04567	11
0.04933	9
0.05300	10
0.05667	13
0.06033	16
0.06400	17
0.06767	19
0.07133	18
0.07500	15
0.07867	12
0.08233	7
0.08600	4
0.08967	6
0.09333	9
0.09700	10
0.10067	10
0.10433	10
0.10800	9
0.11167	5
0.11533	3
0.11900	3
0.12267	3
0.12633	1
0.13000	-0
0.13367	1
0.13733	5
0.14100	14
0.14467	26
0.14833	35
0.15200	38
0.15567	35
0.15933	27
0.16300	22
0.16667	21
0.17033	18
0.17400	17
0.17767	17
0.18133	17
0.18500	15
0.18867	13
0.19233	10
0.19600	7
0.19967	3
0.20333	-1
0.20700	-4
0.21067	-6
0.21433	-7
0.21800	-8
0.22167	-10
0.22533	-10
0.22900	-11
0.23267	-11
0.23633	-8
0.24000	-6
0.24367	-6
0.24733	-5
0.25100	-2
0.25467	3
0.25833	9
0.26200	14
0.26567	16
0.26933	15
0.27300	11
0.27667	7
0.28033	2
0.28400	-2
0.28767	-6
0.29133	-5
0.29500	-2
0.29867	-3
0.30233	-4
0.30600	-3
0.30967	-0
0.31333	2
0.31700	4
0.32067	4
0.32433	2
0.32800	-6
0.33167	-14
0.33533	-23
0.33900	-31
0.34267	-34
0.34633	-30
0.35000	-22
0.35367	-17
0.35733	-16
0.36100	-17
0.36467	-17
0.36833	-15
0.37200	-16
0.37567	-19
0.37933	-24
0.38300	-27
0.38667	-27
0.39033	-24
0.39400	-20
0.39767	-18
0.40133	-14
0.40500	-12
0.40867	-11
0.41233	-13
0.41600	-16
0.41967	-18
0.42333	-20
0.42700	-20
0.43067	-19
0.43433	-19
0.43800	-22
0.44167	-25
0.44533	-27
0.44900	-27
0.45267	-27
0.45633	-26
0.46000	-27
0.46367	-29
0.46733	-33
0.47100	-36
0.47467	-37
0.47833	-38
0.48200	-40
0.48567	-41
0.48933	-44
0.49300	-42
0.49667	-34
0.50033	-23
0.50400	-14
0.50767	-10
0.51133	-12
0.51500	-16
0.51867	-22
0.52233	-30
0.52600	-38
0.52967	-39
0.53333	-35
0.53700	-35
0.54067	-38
0.54433	-40
0.54800	-43
0.55167	-45
0.55533	-46
0.55900	-46
0.56267	-44
0.56633	-40
0.57000	-33
0.57367	-24
0.57733	-18
0.58100	-20
0.58467	-24
0.58833	-28
0.59200	-33
0.59567	-36
0.59933	-38
0.60300	-38
0.60667	-37
0.61033	-34
0.61400	-33
0.61767	-36
0.62133	-43
0.62500	-51
0.62867	-54
0.63233	-54
0.63600	-55
0.63967	-54
0.64333	-53
0.64700	-55
0.65067	-58
0.65433	-61
0.65800	-62
0.66167	-60
0.66533	-55
0.66900	-50
0.67267	-45
0.67633	-41
0.68000	-43
0.68367	-50
0.68733	-55
0.69100	-59
0.69467	-66
0.69833	-70
0.70200	-71
0.70567	-68
0.70933	-62
0.71300	-55
0.71667	-49
0.72033	-45
0.72400	-42
0.72767	-39
0.73133	-38
0.73500	-41
0.73867	-45
0.74233	-45
0.74600	-42
0.74967	-40
0.75333	-40
0.75700	-41
0.76067	-44
0.76433	-44
0.76800	-44
0.77167	-48
0.77533	-51
0.77900	-54
0.78267	-54
0.78633	-49
0.79000	-41
0.79367	-34
0.79733	-32
0.80100	-34
0.80467	-37
0.80833	-40
0.81200	-46
0.81567	-53
0.81933	-59
0.82300	-63
0.82667	-68
0.83033	-71
0.83400	-71
0.83767	-74
0.84133	-79
0.84500	-80
0.84867	-76
0.85233	-72
0.85600	-67
0.85967	-64
0.86333	-61
0.86700	-58
0.87067	-57
0.87433	-58
0.87800	-59
0.88167	-63
0.88533	-67
0.88900	-70
0.89267	-70
0.89633	-67
0.90000	-62
0.90367	-58
0.90733	-58
0.91100	-57
0.91467	-57
0.91833	-59
0.92200	-61
0.92567	-63
0.92933	-62
0.93300	-58
0.93667	-57
0.94033	-60
0.94400	-65
0.94767	-67
0.95133	-67
0.95500	-67
0.95867	-69
0.96233	-72
0.96600	-74
0.96967	-75
0.97333	-76
0.97700	-76
0.98067	-76
0.98433	-80
0.98800	-86
0.99167	-92
0.99533	-97
0.99900	-95
1.00267	-90
1.00633	-86
1.01000	-82
1.01367	-78
1.01733	-75
1.02100	-74
1.02467	-74
1.02833	-75
1.03200	-78
1.03567	-86
1.03933	-91
1.04300	-91
1.04667	-90
1.05033	-88
1.05400	-89
1.05767	-93
1.06133	-94
1.06500	-93
1.06867	-88
1.07233	-84
1.07600	-84
1.07967	-84
1.08333	-86
1.08700	-87
1.09067	-86
1.09433	-86
1.09800	-85
1.10167	-82
1.10533	-78
1.10900	-74
1.11267	-71
1.11633	-74
1.12000	-81
1.12367	-87
1.12733	-90
1.13100	-93
1.13467	-94
1.13833	-90
1.14200	-83
1.14567	-77
1.14933	-74
1.15300	-74
1.15667	-73
1.16033	-73
1.16400	-75
1.16767	-79
1.17133	-83
1.17500	-86
1.17867	-90
1.18233	-94
1.18600	-99
1.18967	-103
1.19333	-107
1.19700	-110
1.20067	-114
1.20433	-114
1.20800	-113
1.21167	-114
1.21533	-116
1.21900	-117
1.22267	-118
1.22633	-119
1.23000	-117
1.23367	-111
1.23733	-104
1.24100	-97
1.24467	-89
1.24833	-85
1.25200	-84
1.25567	-86
1.25933	-91
1.26300	-96
1.26667	-101
1.27033	-105
1.27400	-109
1.27767	-114
1.28133	-119
1.28500	-120
1.28867	-118
1.29233	-116
1.29600	-111
1.29967	-105
1.30333	-103
1.30700	-100
1.31067	-95
1.31433	-88
1.31800	-84
1.32167	-86
1.32533	-91
1.32900	-98
1.33267	-103
1.33633	-105
1.34000	-105
1.34367	-103
1.34733	-101
1.35100	-100
1.35467	-95
1.35833	-90
1.36200	-87
1.36567	-92
1.36933	-96
1.37300	-99
1.37667	-105
1.38033	-114
1.38400	-123
1.38767	-130
1.39133	-131
1.39500	-127
1.39867	-118
1.40233	-110
1.40600	-107
1.40967	-109
1.41333	-112
1.41700	-114
1.42067	-116
1.42433	-118
1.42800	-121
1.43167	-125
1.43533	-124
1.43900	-119
1.44267	-84
1.44633	60
1.45000	371
1.45367	886
1.45733	1707
1.46100	2824
1.46467	4039
1.46833	5131
1.47200	5972
1.47567	6503
1.47933	6679
1.48300	6456
1.48667	5844
1.49033	4951
1.49400	3952
1.49767	3007
1.50133	2210
1.50500	1586
1.50867	1119
1.51233	781
1.51600	544
1.51967	378
1.52333	260
1.52700	178
1.53067	119
1.53433	77
1.53800	54
1.54167	59
1.54533	137
1.54900	359
1.55267	756
1.55633	1264
1.56000	1772
1.56367	2199
1.56733	2504
1.57100	2659
1.57467	2627
1.57833	2395
1.58200	2013
1.58567	1570
1.58933	1143
1.59300	785
1.59667	513
1.60033	318
1.60400	182
1.60767	89
1.61133	26
1.61500	-16
1.61867	-39
1.62233	-48
1.62600	-54
1.62967	-59
1.63333	-66
1.63700	-73
1.64067	-83
1.64433	-93
1.64800	-100
1.65167	-103
1.65533	-107
1.65900	-112
1.66267	-118
1.66633	-122
1.67000	-125
1.67367	-129
1.67733	-133
1.68100	-137
1.68467	-138
1.68833	-135
1.69200	-131
1.69567	-124
1.69933	-120
1.70300	-120
1.70667	-123
1.71033	-129
1.71400	-134
1.71767	-135
1.72133	-135
1.72500	-131
1.72867	-130
1.73233	-132
1.73600	-133
1.73967	-134
1.74333	-133
1.74700	-130
1.75067	-124
1.75433	-122
1.75800	-124
1.76167	-125
1.76533	-123
1.76900	-122
1.77267	-122
1.77633	-125
1.78000	-129
1.78367	-132
1.78733	-132
1.79100	-128
1.79467	-124
1.79833	-120
1.80200	-117
1.80567	-113
1.80933	-111
1.81300	-109
1.81667	-111
1.82033	-114
1.82400	-120
1.82767	-124
1.83133	-125
1.83500	-123
1.83867	-122
1.84233	-122
1.84600	-123
1.84967	-125
1.85333	-125
1.85700	-123
1.86067	-124
1.86433	-126
1.86800	-129
1.87167	-133
1.87533	-135
1.87900	-134
1.88267	-129
1.88633	-119
1.89000	-113
1.89367	-111
1.89733	-111
1.90100	-113
1.90467	-117
1.90833	-122
1.91200	-126
1.91567	-128
1.91933	-125
1.92300	-118
1.92667	-111
1.93033	-104
1.93400	-100
1.93767	-101
1.94133	-102
1.94500	-104
1.94867	-108
1.95233	-109
1.95600	-99
1.95967	-27
1.96333	386
1.96700	2267
1.97067	8925
1.97433	26983
1.97800	65118
1.98167	128716
1.98533	213948
1.98900	308069
1.99267	395064
1.99633	460814
2.00000	495523
2.00367	494593
2.00733	459622
2.01100	398994
2.01467	325416
2.01833	251569
2.02200	186370
2.02567	133870
2.02933	94293
2.03300	65804
2.03667	45926
2.04033	32324
2.04400	23110
2.04767	16880
2.05133	12647
2.05500	9739
2.05867	7710
2.06233	6268
2.06600	5221
2.06967	4444
2.07333	3856
2.07700	3397
2.08067	3031
2.08433	2733
2.08800	2485
2.09167	2278
2.09533	2102
2.09900	1946
2.10267	1803
2.10633	1677
2.11000	1569
2.11367	1478
2.11733	1402
2.12100	1338
2.12467	1280
2.12833	1224
2.13200	1168
2.13567	1111
2.13933	1055
2.14300	1000
2.14667	949
2.15033	902
2.15400	860
2.15767	821
2.16133	785
2.16500	755
2.16867	731
2.17233	710
2.17600	688
2.17967	667
2.18333	646
2.18700	627
2.19067	611
2.19433	594
2.19800	575
2.20167	557
2.20533	543
2.20900	530
2.21267	518
2.21633	507
2.22000	494
2.22367	480
2.22733	463
2.23100	449
2.23467	438
2.23833	428
2.24200	420
2.24567	411
2.24933	404
2.25300	399
2.25667	400
2.26033	402
2.26400	401
2.26767	390
2.27133	373
2.27500	356
2.27867	346
2.28233	344
2.28600	341
2.28967	337
2.29333	331
2.29700	324
2.30067	319
2.30433	316
2.30800	312
2.31167	309
2.31533	303
2.31900	294
2.32267	281
2.32633	271
2.33000	264
2.33367	259
2.33733	257
2.34100	258
2.34467	258
2.34833	259
2.35200	260
2.35567	261
2.35933	259
2.36300	256
2.36667	249
2.37033	244
2.37400	243
2.37767	242
2.38133	242
2.38500	244
2.38867	242
2.39233	240
2.39600	236
2.39967	233
2.40333	231
2.40700	230
2.41067	232
2.41433	231
2.41800	229
2.42167	230
2.42533	232
2.42900	234
2.43267	234
2.43633	234
2.44000	234
2.44367	234
2.44733	234
2.45100	232
2.45467	228
2.45833	221
2.46200	213
2.46567	206
2.46933	201
2.47300	198
2.47667	196
2.48033	194
2.48400	190
2.48767	185
2.49133	179
2.49500	174
2.49867	168
2.50233	165
2.50600	165
2.50967	168
2.51333	176
2.51700	182
2.52067	185
2.52433	187
2.52800	191
2.53167	191
2.53533	188
2.53900	185
2.54267	183
2.54633	182
2.55000	180
2.55367	178
2.55733	176
2.56100	172
2.56467	166
2.56833	162
2.57200	157
2.57567	155
2.57933	153
2.58300	151
2.58667	151
2.59033	152
2.59400	152
2.59767	149
2.60133	147
2.60500	146
2.60867	148
2.61233	152
2.61600	155
2.61967	155
2.62333	150
2.62700	143
2.63067	136
2.63433	130
2.63800	129
2.64167	131
2.64533	133
2.64900	135
2.65267	134
2.65633	137
2.66000	143
2.66367	149
2.66733	152
2.67100	150
2.67467	148
2.67833	146
2.68200	141
2.68567	133
2.68933	127
2.69300	120
2.69667	112
2.70033	105
2.70400	99
2.70767	94
2.71133	93
2.71500	97
2.71867	103
2.72233	109
2.72600	115
2.72967	119
2.73333	120
2.73700	120
2.74067	117
2.74433	114
2.74800	117
2.75167	123
2.75533	126
2.75900	125
2.76267	123
2.76633	122
2.77000	124
2.77367	125
2.77733	126
2.78100	128
2.78467	131
2.78833	135
2.79200	136
2.79567	135
2.79933	134
2.80300	135
2.80667	136
2.81033	136
2.81400	135
2.81767	133
2.82133	130
2.82500	131
2.82867	134
2.83233	135
2.83600	134
2.83967	128
2.84333	123
2.84700	116
2.85067	109
2.85433	106
2.85800	106
2.86167	109
2.86533	111
2.86900	111
2.87267	107
2.87633	100
2.88000	92
2.88367	88
2.88733	90
2.89100	95
2.89467	101
2.89833	104
2.90200	105
2.90567	104
2.90933	105
2.91300	110
2.91667	113
2.92033	113
2.92400	114
2.92767	113
2.93133	113
2.93500	115
2.93867	120
2.94233	120
2.94600	116
2.94967	113
2.95333	109
2.95700	104
2.96067	98
2.96433	92
2.96800	88
2.97167	90
2.97533	98
2.97900	109
2.98267	118
2.98633	125
2.99000	128
2.99367	128
2.99733	124
3.00100	120
3.00467	119
3.00833	119
3.01200	118
3.01567	121
3.01933	127
3.02300	133
3.02667	137
3.03033	140
3.03400	144
3.03767	144
3.04133	138
3.04500	129
3.04867	122
3.05233	118
3.05600	114
3.05967	107
3.06333	101
3.06700	101
3.07067	102
3.07433	103
3.07800	104
3.08167	104
3.08533	105
3.08900	109
3.09267	112
3.09633	116
3.10000	120
3.10367	117
3.10733	110
3.11100	102
3.11467	101
3.11833	104
3.12200	107
3.12567	108
3.12933	109
3.13300	109
3.13667	106
3.14033	101
3.14400	103
3.14767	109
3.15133	111
3.15500	106
3.15867	100
3.16233	95
3.16600	97
3.16967	101
3.17333	104
3.17700	106
3.18067	108
3.18433	110
3.18800	116
3.19167	120
3.19533	122
3.19900	125
3.20267	124
3.20633	121
3.21000	113
3.21367	105
3.21733	99
3.22100	97
3.22467	100
3.22833	104
3.23200	108
3.23567	111
3.23933	113
3.24300	118
3.24667	119
3.25033	118
3.25400	116
3.25767	112
3.26133	108
3.26500	102
3.26867	96
3.27233	91
3.27600	87
3.27967	88
3.28333	90
3.28700	93
3.29067	97
3.29433	102
3.29800	104
3.30167	104
3.30533	104
3.30900	107
3.31267	110
3.31633	111
3.32000	110
3.32367	108
3.32733	106
3.33100	106
3.33467	106
3.33833	104
3.34200	97
3.34567	89
3.34933	86
3.35300	89
3.35667	97
3.36033	107
3.36400	113
3.36767	115
3.37133	112
3.37500	109
3.37867	107
3.38233	107
3.38600	109
3.38967	110
3.39333	106
3.39700	98
3.40067	94
3.40433	98
3.40800	107
3.41167	114
3.41533	119
3.41900	120
3.42267	114
3.42633	106
3.43000	101
3.43367	100
3.43733	100
3.44100	98
3.44467	96
3.44833	97
3.45200	97
3.45567	97
3.45933	102
3.46300	107
3.46667	111
3.47033	115
3.47400	115
3.47767	112
3.48133	107
3.48500	100
3.48867	94
3.49233	95
3.49600	99
3.49967	103
3.50333	107
3.50700	111
3.51067	115
3.51433	115
3.51800	113
3.52167	110
3.52533	108
3.52900	108
3.53267	111
3.53633	116
3.54000	125
3.54367	132
3.54733	133
3.55100	129
3.55467	122
3.55833	117
3.56200	115
3.56567	114
3.56933	113
3.57300	115
3.57667	116
3.58033	118
3.58400	122
3.58767	124
3.59133	126
3.59500	125
3.59867	125
3.60233	125
3.60600	126
3.60967	126
3.61333	126
3.61700	126
3.62067	125
3.62433	124
3.62800	122
3.63167	121
3.63533	120
3.63900	121
3.64267	121
3.64633	117
3.65000	112
3.65367	111
3.65733	114
3.66100	119
3.66467	119
3.66833	117
3.67200	114
3.67567	114
3.67933	113
3.68300	112
3.68667	111
3.69033	112
3.69400	113
3.69767	114
3.70133	115
3.70500	115
3.70867	117
3.71233	118
3.71600	118
3.71967	119
3.72333	123
3.72700	124
3.73067	123
3.73433	121
3.73800	116
3.74167	108
3.74533	101
3.74900	99
3.75267	103
3.75633	109
3.76000	114
3.76367	114
3.76733	109
3.77100	104
3.77467	99
3.77833	95
3.78200	92
3.78567	90
3.78933	89
3.79300	90
3.79667	93
3.80033	98
3.80400	103
3.80767	106
3.81133	110
3.81500	115
3.81867	118
3.82233	117
3.82600	111
3.82967	105
3.83333	102
3.83700	102
3.84067	105
3.84433	108
3.84800	110
3.85167	108
3.85533	104
3.85900	103
3.86267	102
3.86633	102
3.87000	105
3.87367	109
3.87733	110
3.88100	112
3.88467	117
3.88833	125
3.89200	133
3.89567	136
3.89933	135
3.90300	130
3.90667	121
3.91033	116
3.91400	114
3.91767	113
3.92133	111
3.92500	110
3.92867	108
3.93233	109
3.93600	110
3.93967	110
3.94333	107
3.94700	103
3.95067	100
3.95433	102
3.95800	110
3.96167	118
3.96533	122
3.96900	124
3.97267	121
3.97633	112
3.98000	102
3.98367	97
3.98733	97
3.99100	99
3.99467	99
3.99833	102

[Chromatogram (Ch2)]
Interval(msec)	220
# of Points	1091
Start Time(min)	0.002
End Time(min)	3.998
R.Time (min)	Intensity
0.00167	-0
0.00533	-0
0.00900	-1
0.01267	-1
0.01633	-1
0.02000	-1
0.02367	-1
0.02733	-1
0.03100	-1
0.03467	-2
0.03833	-2
0.04200	-2
0.04567	-2
0.04933	-2
0.05300	-2
0.05667	-2
0.06033	-2
0.06400	-1
0.06767	-1
0.07133	-1
0.07500	-1
0.07867	-1
0.08233	-0
0.08600	0
0.08967	1
0.09333	1
0.09700	1
0.10067	1
0.10433	2
0.10800	2
0.11167	2
0.11533	2
0.11900	2
0.12267	2
0.12633	1
0.13000	1
0.13367	1
0.13733	1
0.14100	1
0.14467	0
0.14833	0
0.15200	0
0.15567	0
0.15933	0
0.16300	-0
0.16667	-0
0.17033	-0
0.17400	-1
0.17767	-1
0.18133	-1
0.18500	-1
0.18867	-1
0.19233	-1
0.19600	-1
0.19967	-1
0.20333	-2
0.20700	-2
0.21067	-2
0.21433	-2
0.21800	-2
0.22167	-2
0.22533	-2
0.22900	-3
0.23267	-3
0.23633	-3
0.24000	-3
0.24367	-3
0.24733	-2
0.25100	-2
0.25467	-2
0.25833	-2
0.26200	-2
0.26567	-2
0.26933	-2
0.27300	-2
0.27667	-2
0.28033	-2
0.28400	-2
0.28767	-2
0.29133	-2
0.29500	-2
0.29867	-2
0.30233	-2
0.30600	-2
0.30967	-2
0.31333	-2
0.31700	-2
0.32067	-2
0.32433	-2
0.32800	-2
0.33167	-2
0.33533	-2
0.33900	-2
0.34267	-2
0.34633	-2
0.35000	-2
0.35367	-2
0.35733	-2
0.36100	-2
0.36467	-3
0.36833	-3
0.37200	-3
0.37567	-3
0.37933	-3
0.38300	-3
0.38667	-3
0.39033	-2
0.39400	-2
0.39767	-2
0.40133	-2
0.40500	-2
0.40867	-2
0.41233	-2
0.41600	-2
0.41967	-1
0.42333	-1
0.42700	-0
0.43067	-0
0.43433	0
0.43800	0
0.44167	0
0.44533	0
0.44900	-0
0.45267	-0
0.45633	-0
0.46000	-0
0.46367	-0
0.46733	-0
0.47100	-0
0.47467	-0
0.47833	-0
0.48200	-0
0.48567	-1
0.48933	-1
0.49300	-1
0.49667	-0
0.50033	-0
0.50400	-0
0.50767	-0
0.51133	-0
0.51500	-0
0.51867	-1
0.52233	-1
0.52600	-1
0.52967	-1
0.53333	-1
0.53700	-1
0.54067	-1
0.54433	-1
0.54800	-1
0.55167	-2
0.55533	-2
0.55900	-2
0.56267	-2
0.56633	-2
0.57000	-2
0.57367	-2
0.57733	-2
0.58100	-2
0.58467	-2
0.58833	-2
0.59200	-2
0.59567	-2
0.59933	-1
0.60300	-1
0.60667	-1
0.61033	-1
0.61400	-1
0.61767	-1
0.62133	-1
0.62500	-1
0.62867	-1
0.63233	-1
0.63600	-1
0.63967	-1
0.64333	-1
0.64700	-1
0.65067	-1
0.65433	-1
0.65800	-1
0.66167	-1
0.66533	-0
0.66900	-0
0.67267	-0
0.67633	-0
0.68000	-0
0.68367	-1
0.68733	-1
0.69100	-1
0.69467	-1
0.69833	-1
0.70200	-1
0.70567	-1
0.70933	-1
0.71300	-1
0.71667	-1
0.72033	-1
0.72400	-1
0.72767	-1
0.73133	-1
0.73500	-2
0.73867	-2
0.74233	-2
0.74600	-2
0.74967	-2
0.75333	-2
0.75700	-2
0.76067	-2
0.76433	-2
0.76800	-2
0.77167	-2
0.77533	-2
0.77900	-2
0.78267	-2
0.78633	-2
0.79000	-2
0.79367	-2
0.79733	-2
0.80100	-2
0.80467	-2
0.80833	-2
0.81200	-2
0.81567	-2
0.81933	-2
0.82300	-2
0.82667	-2
0.83033	-2
0.83400	-2
0.83767	-1
0.84133	-1
0.84500	-1
0.84867	-1
0.85233	-1
0.85600	-1
0.85967	-1
0.86333	-1
0.86700	-1
0.87067	-1
0.87433	-1
0.87800	-1
0.88167	-1
0.88533	-1
0.88900	-1
0.89267	-1
0.89633	-1
0.90000	-1
0.90367	-1
0.90733	-0
0.91100	0
0.91467	0
0.91833	1
0.92200	1
0.92567	1
0.92933	0
0.93300	0
0.93667	0
0.94033	0
0.94400	0
0.94767	0
0.95133	0
0.95500	0
0.95867	0
0.96233	0
0.96600	0
0.96967	0
0.97333	0
0.97700	0
0.98067	0
0.98433	0
0.98800	0
0.99167	0
0.99533	-0
0.99900	-0
1.00267	-0
1.00633	-0
1.01000	-0
1.01367	-0
1.01733	-1
1.02100	-1
1.02467	-1
1.02833	-1
1.03200	-1
1.03567	-1
1.03933	-1
1.04300	-1
1.04667	-0
1.05033	-0
1.05400	-0
1.05767	-0
1.06133	-1
1.06500	-1
1.06867	-1
1.07233	-1
1.07600	-1
1.07967	-1
1.08333	-1
1.08700	-1
1.09067	-1
1.09433	-1
1.09800	-1
1.10167	-1
1.10533	-1
1.10900	-2
1.11267	-2
1.11633	-2
1.12000	-2
1.12367	-2
1.12733	-1
1.13100	-1
1.13467	-1
1.13833	-1
1.14200	-1
1.14567	-1
1.14933	-1
1.15300	-1
1.15667	-1
1.16033	-1
1.16400	-1
1.16767	-1
1.17133	-2
1.17500	-2
1.17867	-1
1.18233	-1
1.18600	-1
1.18967	-1
1.19333	-1
1.19700	-1
1.20067	-1
1.20433	-1
1.20800	-1
1.21167	-1
1.21533	-1
1.21900	-1
1.22267	-1
1.22633	-1
1.23000	-1
1.23367	-1
1.23733	-1
1.24100	-0
1.24467	-0
1.24833	0
1.25200	0
1.25567	0
1.25933	1
1.26300	1
1.26667	1
1.27033	1
1.27400	1
1.27767	1
1.28133	1
1.28500	1
1.28867	0
1.29233	0
1.29600	0
1.29967	-0
1.30333	-0
1.30700	-0
1.31067	-0
1.31433	-0
1.31800	-0
1.32167	-1
1.32533	-1
1.32900	-1
1.33267	-1
1.33633	-1
1.34000	-0
1.34367	-0
1.34733	-0
1.35100	-0
1.35467	-0
1.35833	-1
1.36200	-1
1.36567	-2
1.36933	-2
1.37300	-2
1.37667	-2
1.38033	-2
1.38400	-2
1.38767	-2
1.39133	-2
1.39500	-2
1.39867	-2
1.40233	-2
1.40600	-2
1.40967	-2
1.41333	-1
1.41700	-1
1.42067	-1
1.42433	-1
1.42800	-1
1.43167	-1
1.43533	-1
1.43900	-1
1.44267	-1
1.44633	-2
1.45000	-2
1.45367	-2
1.45733	-2
1.46100	-1
1.46467	-1
1.46833	-1
1.47200	-1
1.47567	-1
1.47933	-1
1.48300	-1
1.48667	-1
1.49033	-1
1.49400	-1
1.49767	-1
1.50133	-1
1.50500	-1
1.50867	-2
1.51233	-2
1.51600	-1
1.51967	-1
1.52333	-1
1.52700	-1
1.53067	-0
1.53433	-0
1.53800	-0
1.54167	-0
1.54533	-0
1.54900	-0
1.55267	-0
1.55633	-1
1.56000	-1
1.56367	-1
1.56733	-1
1.57100	-1
1.57467	-2
1.57833	-2
1.58200	-2
1.58567	-2
1.58933	-2
1.59300	-2
1.59667	-2
1.60033	-3
1.60400	-4
1.60767	-5
1.61133	-7
1.61500	-9
1.61867	-11
1.62233	-14
1.62600	-17
1.62967	-20
1.63333	-23
1.63700	-26
1.64067	-29
1.64433	-32
1.64800	-36
1.65167	-39
1.65533	-43
1.65900	-46
1.66267	-50
1.66633	-54
1.67000	-58
1.67367	-63
1.67733	-68
1.68100	-73
1.68467	-78
1.68833	-83
1.69200	-88
1.69567	-93
1.69933	-96
1.70300	-99
1.70667	-102
1.71033	-104
1.71400	-106
1.71767	-108
1.72133	-109
1.72500	-110
1.72867	-110
1.73233	-111
1.73600	-111
1.73967	-112
1.74333	-112
1.74700	-112
1.75067	-113
1.75433	-114
1.75800	-115
1.76167	-116
1.76533	-116
1.76900	-117
1.77267	-117
1.77633	-117
1.78000	-117
1.78367	-117
1.78733	-117
1.79100	-116
1.79467	-116
1.79833	-116
1.80200	-116
1.80567	-117
1.80933	-117
1.81300	-118
1.81667	-118
1.82033	-119
1.82400	-119
1.82767	-119
1.83133	-120
1.83500	-120
1.83867	-120
1.84233	-121
1.84600	-121
1.84967	-121
1.85333	-122
1.85700	-122
1.86067	-122
1.86433	-121
1.86800	-121
1.87167	-120
1.87533	-120
1.87900	-120
1.88267	-120
1.88633	-120
1.89000	-120
1.89367	-120
1.89733	-120
1.90100	-119
1.90467	-119
1.90833	-119
1.91200	-119
1.91567	-119
1.91933	-119
1.92300	-119
1.92667	-119
1.93033	-119
1.93400	-119
1.93767	-118
1.94133	-118
1.94500	-118
1.94867	-118
1.95233	-118
1.95600	-117
1.95967	-117
1.96333	-116
1.96700	-115
1.97067	-115
1.97433	-114
1.97800	-114
1.98167	-114
1.98533	-114
1.98900	-114
1.99267	-113
1.99633	-113
2.00000	-113
2.00367	-112
2.00733	-112
2.01100	-112
2.01467	-112
2.01833	-111
2.02200	-111
2.02567	-110
2.02933	-109
2.03300	-108
2.03667	-108
2.04033	-107
2.04400	-106
2.04767	-106
2.05133	-106
2.05500	-106
2.05867	-106
2.06233	-106
2.06600	-106
2.06967	-106
2.07333	-106
2.07700	-106
2.08067	-106
2.08433	-106
2.08800	-105
2.09167	-105
2.09533	-105
2.09900	-105
2.10267	-105
2.10633	-105
2.11000	-105
2.11367	-105
2.11733	-104
2.12100	-103
2.12467	-103
2.12833	-102
2.13200	-102
2.13567	-101
2.13933	-101
2.14300	-100
2.14667	-100
2.15033	-99
2.15400	-99
2.15767	-99
2.16133	-98
2.16500	-98
2.16867	-98
2.17233	-98
2.17600	-98
2.17967	-97
2.18333	-97
2.18700	-97
2.19067	-96
2.19433	-96
2.19800	-96
2.20167	-96
2.20533	-96
2.20900	-96
2.21267	-96
2.21633	-96
2.22000	-95
2.22367	-95
2.22733	-95
2.23100	-94
2.23467	-94
2.23833	-93
2.24200	-93
2.24567	-92
2.24933	-92
2.25300	-92
2.25667	-92
2.26033	-93
2.26400	-94
2.26767	-95
2.27133	-95
2.27500	-95
2.27867	-94
2.28233	-93
2.28600	-92
2.28967	-90
2.29333	-89
2.29700	-88
2.30067	-87
2.30433	-87
2.30800	-86
2.31167	-85
2.31533	-85
2.31900	-85
2.32267	-85
2.32633	-85
2.33000	-84
2.33367	-84
2.33733	-83
2.34100	-83
2.34467	-83
2.34833	-83
2.35200	-83
2.35567	-83
2.35933	-83
2.36300	-83
2.36667	-82
2.37033	-81
2.37400	-79
2.37767	-77
2.38133	-74
2.38500	-71
2.38867	-68
2.39233	-64
2.39600	-60
2.39967	-55
2.40333	-51
2.40700	-46
2.41067	-41
2.41433	-37
2.41800	-32
2.42167	-28
2.42533	-25
2.42900	-21
2.43267	-19
2.43633	-16
2.44000	-14
2.44367	-12
2.44733	-11
2.45100	-10
2.45467	-8
2.45833	-6
2.46200	-5
2.46567	-3
2.46933	-1
2.47300	-0
2.47667	1
2.48033	2
2.48400	4
2.48767	5
2.49133	6
2.49500	7
2.49867	8
2.50233	9
2.50600	10
2.50967	10
2.51333	11
2.51700	11
2.52067	12
2.52433	12
2.52800	13
2.53167	13
2.53533	14
2.53900	15
2.54267	16
2.54633	17
2.55000	17
2.55367	18
2.55733	18
2.56100	19
2.56467	19
2.56833	19
2.57200	18
2.57567	18
2.57933	18
2.58300	18
2.58667	18
2.59033	18
2.59400	18
2.59767	18
2.60133	18
2.60500	18
2.60867	18
2.61233	19
2.61600	19
2.61967	19
2.62333	19
2.62700	19
2.63067	20
2.63433	20
2.63800	20
2.64167	20
2.64533	20
2.64900	20
2.65267	21
2.65633	21
2.66000	21
2.66367	21
2.66733	22
2.67100	22
2.67467	22
2.67833	22
2.68200	22
2.68567	22
2.68933	22
2.69300	22
2.69667	22
2.70033	22
2.70400	22
2.70767	22
2.71133	23
2.71500	23
2.71867	24
2.72233	24
2.72600	25
2.72967	25
2.73333	26
2.73700	26
2.74067	27
2.74433	27
2.74800	27
2.75167	26
2.75533	26
2.75900	26
2.76267	27
2.76633	27
2.77000	27
2.77367	27
2.77733	27
2.78100	27
2.78467	27
2.78833	27
2.79200	28
2.79567	28
2.79933	28
2.80300	28
2.80667	28
2.81033	28
2.81400	29
2.81767	29
2.82133	29
2.82500	29
2.82867	29
2.83233	29
2.83600	29
2.83967	29
2.84333	29
2.84700	29
2.85067	28
2.85433	26
2.85800	24
2.86167	20
2.86533	14
2.86900	6
2.87267	-5
2.87633	-19
2.88000	-37
2.88367	-59
2.88733	-85
2.89100	-115
2.89467	-149
2.89833	-187
2.90200	-227
2.90567	-270
2.90933	-316
2.91300	-364
2.91667	-413
2.92033	-463
2.92400	-514
2.92767	-565
2.93133	-616
2.93500	-668
2.93867	-718
2.94233	-769
2.94600	-819
2.94967	-872
2.95333	-930
2.95700	-992
2.96067	-1051
2.96433	-1096
2.96800	-1117
2.97167	-1112
2.97533	-1082
2.97900	-1030
2.98267	-963
2.98633	-887
2.99000	-806
2.99367	-724
2.99733	-644
3.00100	-568
3.00467	-498
3.00833	-433
3.01200	-376
3.01567	-324
3.01933	-278
3.02300	-238
3.02667	-203
3.03033	-172
3.03400	-146
3.03767	-123
3.04133	-103
3.04500	-86
3.04867	-71
3.05233	-59
3.05600	-48
3.05967	-39
3.06333	-31
3.06700	-25
3.07067	-19
3.07433	-14
3.07800	-10
3.08167	-7
3.08533	-4
3.08900	-1
3.09267	1
3.09633	3
3.10000	5
3.10367	7
3.10733	8
3.11100	9
3.11467	10
3.11833	11
3.12200	12
3.12567	13
3.12933	13
3.13300	14
3.13667	15
3.14033	15
3.14400	15
3.14767	16
3.15133	16
3.15500	17
3.15867	17
3.16233	17
3.16600	18
3.16967	19
3.17333	19
3.17700	19
3.18067	19
3.18433	19
3.18800	20
3.19167	20
3.19533	20
3.19900	20
3.20267	20
3.20633	20
3.21000	20
3.21367	20
3.21733	20
3.22100	21
3.22467	21
3.22833	21
3.23200	21
3.23567	21
3.23933	22
3.24300	22
3.24667	22
3.25033	22
3.25400	23
3.25767	23
3.26133	24
3.26500	24
3.26867	24
3.27233	24
3.27600	24
3.27967	24
3.28333	24
3.28700	24
3.29067	24
3.29433	24
3.29800	24
3.30167	24
3.30533	24
3.30900	24
3.31267	24
3.31633	24
3.32000	25
3.32367	25
3.32733	26
3.33100	26
3.33467	27
3.33833	27
3.34200	27
3.34567	27
3.34933	27
3.35300	28
3.35667	28
3.36033	28
3.36400	28
3.36767	29
3.37133	29
3.37500	29
3.37867	29
3.38233	29
3.38600	29
3.38967	29
3.39333	29
3.39700	29
3.40067	29
3.40433	29
3.40800	29
3.41167	29
3.41533	29
3.41900	29
3.42267	29
3.42633	29
3.43000	29
3.43367	29
3.43733	29
3.44100	29
3.44467	29
3.44833	29
3.45200	29
3.45567	29
3.45933	29
3.46300	29
3.46667	29
3.47033	29
3.47400	29
3.47767	28
3.48133	28
3.48500	28
3.48867	28
3.49233	29
3.49600	29
3.49967	29
3.50333	29
3.50700	29
3.51067	29
3.51433	28
3.51800	28
3.52167	28
3.52533	28
3.52900	28
3.53267	27
3.53633	27
3.54000	28
3.54367	28
3.54733	27
3.55100	27
3.55467	27
3.55833	27
3.56200	27
3.56567	27
3.56933	27
3.57300	27
3.57667	27
3.58033	27
3.58400	27
3.58767	27
3.59133	26
3.59500	26
3.59867	26
3.60233	27
3.60600	27
3.60967	27
3.61333	27
3.61700	27
3.62067	27
3.62433	27
3.62800	27
3.63167	27
3.63533	27
3.63900	27
3.64267	27
3.64633	27
3.65000	27
3.65367	27
3.65733	27
3.66100	27
3.66467	27
3.66833	27
3.67200	27
3.67567	27
3.67933	27
3.68300	27
3.68667	27
3.69033	27
3.69400	27
3.69767	27
3.70133	27
3.70500	27
3.70867	28
3.71233	28
3.71600	28
3.71967	28
3.72333	28
3.72700	28
3.73067	28
3.73433	28
3.73800	28
3.74167	28
3.74533	28
3.74900	28
3.75267	28
3.75633	29
3.76000	29
3.76367	29
3.76733	28
3.77100	28
3.77467	28
3.77833	28
3.78200	28
3.78567	28
3.78933	28
3.79300	28
3.79667	29
3.80033	29
3.80400	29
3.80767	30
3.81133	30
3.81500	30
3.81867	30
3.82233	30
3.82600	30
3.82967	30
3.83333	30
3.83700	30
3.84067	29
3.84433	29
3.84800	29
3.85167	29
3.85533	28
3.85900	28
3.86267	28
3.86633	27
3.87000	27
3.87367	27
3.87733	27
3.88100	26
3.88467	26
3.88833	26
3.89200	27
3.89567	27
3.89933	27
3.90300	27
3.90667	27
3.91033	27
3.91400	27
3.91767	27
3.92133	27
3.92500	27
3.92867	27
3.93233	27
3.93600	27
3.93967	27
3.94333	27
3.94700	27
3.95067	28
3.95433	28
3.95800	28
3.96167	28
3.96533	28
3.96900	28
3.97267	28
3.97633	28
3.98000	28
3.98367	28
3.98733	28
3.99100	28
3.99467	28
3.99833	28

[Chromatogram (Ch3)]
Interval(msec)	220
# of Points	1091
Start Time(min)	0.002
End Time(min)	3.998
R.Time (min)	Intensity
0.00167	-0
0.00533	1
0.00900	2
0.01267	2
0.01633	3
0.02000	3
0.02367	4
0.02733	3
0.03100	3
0.03467	3
0.03833	-1
0.04200	-3
0.04567	-6
0.04933	-7
0.05300	-6
0.05667	-7
0.06033	-7
0.06400	-3
0.06767	1
0.07133	3
0.07500	3
0.07867	1
0.08233	-1
0.08600	-2
0.08967	1
0.09333	3
0.09700	5
0.10067	5
0.10433	2
0.10800	4
0.11167	7
0.11533	5
0.11900	1
0.12267	1
0.12633	2
0.13000	4
0.13367	7
0.13733	7
0.14100	6
0.14467	4
0.14833	2
0.15200	3
0.15567	3
0.15933	2
0.16300	1
0.16667	1
0.17033	4
0.17400	5
0.17767	5
0.18133	3
0.18500	3
0.18867	3
0.19233	3
0.19600	2
0.19967	1
0.20333	1
0.20700	2
0.21067	-0
0.21433	-3
0.21800	-3
0.22167	-1
0.22533	-1
0.22900	1
0.23267	1
0.23633	2
0.24000	2
0.24367	2
0.24733	2
0.25100	5
0.25467	7
0.25833	4
0.26200	3
0.26567	4
0.26933	5
0.27300	7
0.27667	7
0.28033	7
0.28400	7
0.28767	6
0.29133	8
0.29500	8
0.29867	8
0.30233	11
0.30600	14
0.30967	13
0.31333	11
0.31700	10
0.32067	11
0.32433	14
0.32800	14
0.33167	12
0.33533	12
0.33900	11
0.34267	8
0.34633	8
0.35000	9
0.35367	9
0.35733	9
0.36100	8
0.36467	6
0.36833	7
0.37200	8
0.37567	8
0.37933	10
0.38300	13
0.38667	15
0.39033	14
0.39400	11
0.39767	9
0.40133	10
0.40500	10
0.40867	9
0.41233	8
0.41600	9
0.41967	9
0.42333	7
0.42700	7
0.43067	9
0.43433	12
0.43800	11
0.44167	13
0.44533	16
0.44900	15
0.45267	14
0.45633	11
0.46000	8
0.46367	5
0.46733	7
0.47100	9
0.47467	9
0.47833	10
0.48200	13
0.48567	16
0.48933	17
0.49300	17
0.49667	17
0.50033	17
0.50400	16
0.50767	15
0.51133	15
0.51500	13
0.51867	12
0.52233	11
0.52600	11
0.52967	14
0.53333	16
0.53700	16
0.54067	16
0.54433	15
0.54800	13
0.55167	12
0.55533	10
0.55900	9
0.56267	9
0.56633	10
0.57000	11
0.57367	11
0.57733	13
0.58100	15
0.58467	17
0.58833	17
0.59200	17
0.59567	15
0.59933	14
0.60300	15
0.60667	18
0.61033	20
0.61400	20
0.61767	17
0.62133	12
0.62500	12
0.62867	14
0.63233	16
0.63600	15
0.63967	14
0.64333	15
0.64700	16
0.65067	21
0.65433	24
0.65800	22
0.66167	18
0.66533	17
0.66900	18
0.67267	16
0.67633	14
0.68000	15
0.68367	18
0.68733	19
0.69100	19
0.69467	18
0.69833	16
0.70200	15
0.70567	13
0.70933	10
0.71300	9
0.71667	10
0.72033	12
0.72400	14
0.72767	15
0.73133	16
0.73500	16
0.73867	12
0.74233	11
0.74600	13
0.74967	14
0.75333	14
0.75700	14
0.76067	13
0.76433	13
0.76800	16
0.77167	18
0.77533	21
0.77900	24
0.78267	23
0.78633	20
0.79000	17
0.79367	16
0.79733	15
0.80100	16
0.80467	17
0.80833	18
0.81200	15
0.81567	15
0.81933	15
0.82300	15
0.82667	17
0.83033	19
0.83400	17
0.83767	14
0.84133	13
0.84500	12
0.84867	13
0.85233	13
0.85600	17
0.85967	16
0.86333	18
0.86700	19
0.87067	19
0.87433	21
0.87800	27
0.88167	28
0.88533	25
0.88900	23
0.89267	20
0.89633	18
0.90000	17
0.90367	16
0.90733	15
0.91100	13
0.91467	13
0.91833	13
0.92200	12
0.92567	12
0.92933	11
0.93300	12
0.93667	15
0.94033	16
0.94400	17
0.94767	19
0.95133	18
0.95500	17
0.95867	18
0.96233	18
0.96600	16
0.96967	16
0.97333	16
0.97700	17
0.98067	18
0.98433	17
0.98800	15
0.99167	13
0.99533	13
0.99900	14
1.00267	12
1.00633	10
1.01000	9
1.01367	10
1.01733	10
1.02100	9
1.02467	10
1.02833	11
1.03200	13
1.03567	13
1.03933	10
1.04300	7
1.04667	7
1.05033	10
1.05400	13
1.05767	12
1.06133	13
1.06500	13
1.06867	13
1.07233	11
1.07600	9
1.07967	9
1.08333	9
1.08700	9
1.09067	10
1.09433	11
1.09800	13
1.10167	13
1.10533	11
1.10900	7
1.11267	7
1.11633	11
1.12000	15
1.12367	15
1.12733	12
1.13100	11
1.13467	12
1.13833	12
1.14200	10
1.14567	8
1.14933	6
1.15300	9
1.15667	11
1.16033	10
1.16400	10
1.16767	8
1.17133	7
1.17500	4
1.17867	2
1.18233	3
1.18600	4
1.18967	5
1.19333	7
1.19700	10
1.20067	11
1.20433	10
1.20800	11
1.21167	11
1.21533	12
1.21900	12
1.22267	7
1.22633	4
1.23000	6
1.23367	8
1.23733	9
1.24100	8
1.24467	5
1.24833	3
1.25200	5
1.25567	6
1.25933	6
1.26300	7
1.26667	7
1.27033	5
1.27400	4
1.27767	3
1.28133	4
1.28500	4
1.28867	3
1.29233	3
1.29600	4
1.29967	4
1.30333	5
1.30700	7
1.31067	7
1.31433	6
1.31800	4
1.32167	4
1.32533	2
1.32900	-2
1.33267	-4
1.33633	-2
1.34000	4
1.34367	5
1.34733	2
1.35100	-0
1.35467	0
1.35833	0
1.36200	-2
1.36567	0
1.36933	2
1.37300	4
1.37667	7
1.38033	6
1.38400	5
1.38767	3
1.39133	1
1.39500	-2
1.39867	-3
1.40233	-1
1.40600	2
1.40967	2
1.41333	-1
1.41700	-5
1.42067	-6
1.42433	-5
1.42800	-3
1.43167	-1
1.43533	-2
1.43900	-2
1.44267	-1
1.44633	-0
1.45000	1
1.45367	1
1.45733	-1
1.46100	-4
1.46467	-4
1.46833	-6
1.47200	-6
1.47567	-4
1.47933	0
1.48300	1
1.48667	-1
1.49033	-3
1.49400	-5
1.49767	-5
1.50133	-6
1.50500	-7
1.50867	-7
1.51233	-2
1.51600	1
1.51967	3
1.52333	5
1.52700	2
1.53067	-1
1.53433	-4
1.53800	-7
1.54167	-9
1.54533	-7
1.54900	-6
1.55267	-6
1.55633	-7
1.56000	-6
1.56367	-7
1.56733	-10
1.57100	-9
1.57467	-6
1.57833	-4
1.58200	-3
1.58567	-5
1.58933	-5
1.59300	-7
1.59667	-7
1.60033	-7
1.60400	-8
1.60767	-6
1.61133	-3
1.61500	-1
1.61867	-0
1.62233	-1
1.62600	-0
1.62967	3
1.63333	5
1.63700	6
1.64067	7
1.64433	10
1.64800	9
1.65167	7
1.65533	6
1.65900	5
1.66267	2
1.66633	-0
1.67000	-2
1.67367	-3
1.67733	-0
1.68100	4
1.68467	9
1.68833	12
1.69200	12
1.69567	10
1.69933	9
1.70300	10
1.70667	9
1.71033	10
1.71400	12
1.71767	13
1.72133	14
1.72500	17
1.72867	20
1.73233	21
1.73600	23
1.73967	23
1.74333	21
1.74700	22
1.75067	24
1.75433	25
1.75800	25
1.76167	25
1.76533	25
1.76900	25
1.77267	27
1.77633	26
1.78000	27
1.78367	29
1.78733	28
1.79100	26
1.79467	26
1.79833	26
1.80200	26
1.80567	27
1.80933	30
1.81300	33
1.81667	35
1.82033	38
1.82400	39
1.82767	40
1.83133	40
1.83500	40
1.83867	40
1.84233	42
1.84600	40
1.84967	40
1.85333	44
1.85700	46
1.86067	50
1.86433	52
1.86800	54
1.87167	56
1.87533	56
1.87900	58
1.88267	60
1.88633	62
1.89000	64
1.89367	64
1.89733	62
1.90100	61
1.90467	61
1.90833	61
1.91200	61
1.91567	62
1.91933	66
1.92300	71
1.92667	77
1.93033	79
1.93400	78
1.93767	77
1.94133	79
1.94500	83
1.94867	85
1.95233	86
1.95600	86
1.95967	88
1.96333	90
1.96700	91
1.97067	91
1.97433	93
1.97800	93
1.98167	94
1.98533	97
1.98900	101
1.99267	104
1.99633	104
2.00000	104
2.00367	102
2.00733	103
2.01100	103
2.01467	105
2.01833	107
2.02200	108
2.02567	110
2.02933	114
2.03300	117
2.03667	120
2.04033	121
2.04400	120
2.04767	121
2.05133	123
2.05500	126
2.05867	128
2.06233	130
2.06600	132
2.06967	133
2.07333	133
2.07700	135
2.08067	137
2.08433	139
2.08800	141
2.09167	146
2.09533	148
2.09900	148
2.10267	146
2.10633	149
2.11000	152
2.11367	154
2.11733	156
2.12100	158
2.12467	158
2.12833	160
2.13200	163
2.13567	168
2.13933	174
2.14300	177
2.14667	180
2.15033	182
2.15400	185
2.15767	186
2.16133	184
2.16500	188
2.16867	195
2.17233	197
2.17600	197
2.17967	199
2.18333	200
2.18700	201
2.19067	203
2.19433	205
2.19800	206
2.20167	207
2.20533	209
2.20900	211
2.21267	214
2.21633	219
2.22000	223
2.22367	229
2.22733	231
2.23100	232
2.23467	234
2.23833	237
2.24200	238
2.24567	238
2.24933	238
2.25300	242
2.25667	246
2.26033	250
2.26400	255
2.26767	261
2.27133	264
2.27500	266
2.27867	266
2.28233	265
2.28600	266
2.28967	268
2.29333	270
2.29700	272
2.30067	274
2.30433	279
2.30800	281
2.31167	283
2.31533	285
2.31900	285
2.32267	289
2.32633	292
2.33000	294
2.33367	296
2.33733	296
2.34100	297
2.34467	302
2.34833	309
2.35200	313
2.35567	314
2.35933	314
2.36300	316
2.36667	317
2.37033	320
2.37400	320
2.37767	319
2.38133	318
2.38500	317
2.38867	320
2.39233	323
2.39600	322
2.39967	324
2.40333	326
2.40700	329
2.41067	331
2.41433	331
2.41800	332
2.42167	333
2.42533	335
2.42900	337
2.43267	337
2.43633	339
2.44000	342
2.44367	350
2.44733	355
2.45100	344
2.45467	317
2.45833	280
2.46200	241
2.46567	206
2.46933	176
2.47300	148
2.47667	120
2.48033	91
2.48400	65
2.48767	42
2.49133	21
2.49500	1
2.49867	-17
2.50233	-32
2.50600	-41
2.50967	-46
2.51333	-51
2.51700	-54
2.52067	-57
2.52433	-63
2.52800	-72
2.53167	-82
2.53533	-90
2.53900	-94
2.54267	-97
2.54633	-101
2.55000	-104
2.55367	-106
2.55733	-106
2.56100	-103
2.56467	-103
2.56833	-105
2.57200	-105
2.57567	-102
2.57933	-99
2.58300	-97
2.58667	-97
2.59033	-95
2.59400	-93
2.59767	-89
2.60133	-81
2.60500	-76
2.60867	-74
2.61233	-79
2.61600	-88
2.61967	-103
2.62333	-121
2.62700	-139
2.63067	-159
2.63433	-182
2.63800	-203
2.64167	-220
2.64533	-235
2.64900	-247
2.65267	-256
2.65633	-262
2.66000	-266
2.66367	-265
2.66733	-261
2.67100	-257
2.67467	-250
2.67833	-244
2.68200	-250
2.68567	-256
2.68933	-255
2.69300	-243
2.69667	-220
2.70033	-192
2.70400	-158
2.70767	-123
2.71133	-92
2.71500	-61
2.71867	-33
2.72233	-9
2.72600	15
2.72967	40
2.73333	61
2.73700	79
2.74067	95
2.74433	107
2.74800	117
2.75167	125
2.75533	132
2.75900	137
2.76267	144
2.76633	154
2.77000	165
2.77367	170
2.77733	174
2.78100	179
2.78467	183
2.78833	186
2.79200	188
2.79567	192
2.79933	196
2.80300	195
2.80667	194
2.81033	196
2.81400	196
2.81767	193
2.82133	190
2.82500	187
2.82867	185
2.83233	192
2.83600	208
2.83967	246
2.84333	324
2.84700	464
2.85067	688
2.85433	1017
2.85800	1458
2.86167	2000
2.86533	2612
2.86900	3249
2.87267	3856
2.87633	4385
2.88000	4791
2.88367	5052
2.88733	5155
2.89100	5112
2.89467	4945
2.89833	4682
2.90200	4355
2.90567	3990
2.90933	3615
2.91300	3244
2.91667	2889
2.92033	2557
2.92400	2252
2.92767	1978
2.93133	1733
2.93500	1512
2.93867	1321
2.94233	1157
2.94600	1014
2.94967	888
2.95333	776
2.95700	678
2.96067	595
2.96433	526
2.96800	464
2.97167	410
2.97533	364
2.97900	327
2.98267	294
2.98633	266
2.99000	241
2.99367	221
2.99733	202
3.00100	183
3.00467	167
3.00833	154
3.01200	145
3.01567	139
3.01933	131
3.02300	124
3.02667	116
3.03033	110
3.03400	106
3.03767	104
3.04133	102
3.04500	98
3.04867	97
3.05233	98
3.05600	98
3.05967	95
3.06333	92
3.06700	89
3.07067	84
3.07433	81
3.07800	82
3.08167	83
3.08533	84
3.08900	84
3.09267	85
3.09633	85
3.10000	82
3.10367	79
3.10733	78
3.11100	75
3.11467	73
3.11833	74
3.12200	76
3.12567	77
3.12933	75
3.13300	71
3.13667	68
3.14033	67
3.14400	67
3.14767	68
3.15133	73
3.15500	72
3.15867	69
3.16233	66
3.16600	64
3.16967	62
3.17333	64
3.17700	63
3.18067	62
3.18433	61
3.18800	59
3.19167	59
3.19533	61
3.19900	63
3.20267	63
3.20633	62
3.21000	62
3.21367	62
3.21733	59
3.22100	58
3.22467	57
3.22833	54
3.23200	52
3.23567	52
3.23933	52
3.24300	52
3.24667	49
3.25033	45
3.25400	43
3.25767	40
3.26133	37
3.26500	35
3.26867	31
3.27233	28
3.27600	28
3.27967	27
3.28333	26
3.28700	25
3.29067	22
3.29433	19
3.29800	16
3.30167	14
3.30533	13
3.30900	11
3.31267	9
3.31633	5
3.32000	0
3.32367	-3
3.32733	-7
3.33100	-11
3.33467	-14
3.33833	-16
3.34200	-18
3.34567	-18
3.34933	-18
3.35300	-19
3.35667	-22
3.36033	-25
3.36400	-26
3.36767	-30
3.37133	-33
3.37500	-36
3.37867	-37
3.38233	-38
3.38600	-41
3.38967	-45
3.39333	-46
3.39700	-48
3.40067	-51
3.40433	-55
3.40800	-56
3.41167	-59
3.41533	-62
3.41900	-63
3.42267	-64
3.42633	-67
3.43000	-69
3.43367	-69
3.43733	-72
3.44100	-73
3.44467	-73
3.44833	-75
3.45200	-77
3.45567	-80
3.45933	-84
3.46300	-84
3.46667	-84
3.47033	-84
3.47400	-83
3.47767	-85
3.48133	-88
3.48500	-89
3.48867	-90
3.49233	-91
3.49600	-96
3.49967	-99
3.50333	-101
3.50700	-103
3.51067	-104
3.51433	-106
3.51800	-109
3.52167	-113
3.52533	-114
3.52900	-114
3.53267	-114
3.53633	-113
3.54000	-112
3.54367	-113
3.54733	-115
3.55100	-118
3.55467	-121
3.55833	-123
3.56200	-126
3.56567	-127
3.56933	-127
3.57300	-127
3.57667	-128
3.58033	-128
3.58400	-129
3.58767	-128
3.59133	-129
3.59500	-131
3.59867	-133
3.60233	-137
3.60600	-135
3.60967	-135
3.61333	-136
3.61700	-137
3.62067	-138
3.62433	-141
3.62800	-144
3.63167	-143
3.63533	-143
3.63900	-143
3.64267	-143
3.64633	-142
3.65000	-142
3.65367	-143
3.65733	-143
3.66100	-144
3.66467	-147
3.66833	-150
3.67200	-154
3.67567	-155
3.67933	-153
3.68300	-154
3.68667	-156
3.69033	-158
3.69400	-159
3.69767	-160
3.70133	-163
3.70500	-167
3.70867	-171
3.71233	-172
3.71600	-171
3.71967	-168
3.72333	-167
3.72700	-168
3.73067	-169
3.73433	-170
3.73800	-171
3.74167	-175
3.74533	-180
3.74900	-182
3.75267	-183
3.75633	-184
3.76000	-185
3.76367	-187
3.76733	-187
3.77100	-185
3.77467	-183
3.77833	-182
3.78200	-183
3.78567	-187
3.78933	-191
3.79300	-194
3.79667	-196
3.80033	-196
3.80400	-198
3.80767	-198
3.81133	-195
3.81500	-192
3.81867	-189
3.82233	-190
3.82600	-192
3.82967	-195
3.83333	-198
3.83700	-200
3.84067	-202
3.84433	-202
3.84800	-202
3.85167	-204
3.85533	-205
3.85900	-204
3.86267	-205
3.86633	-204
3.87000	-204
3.87367	-204
3.87733	-206
3.88100	-210
3.88467	-210
3.88833	-211
3.89200	-214
3.89567	-215
3.89933	-215
3.90300	-215
3.90667	-215
3.91033	-215
3.91400	-214
3.91767	-213
3.92133	-212
3.92500	-212
3.92867	-211
3.93233	-207
3.93600	-208
3.93967	-211
3.94333	-214
3.94700	-216
3.95067	-217
3.95433	-219
3.95800	-220
3.96167	-219
3.96533	-215
3.96900	-215
3.97267	-219
3.97633	-222
3.98000	-220
3.98367	-222
3.98733	-225
3.99100	-229
3.99467	-231
3.99833	-231

[Status Trace (Column Oven Temperature)]
Interval(msec)	1000
# of Points	240
Start Time(min)	0.012
End Time(min)	3.995
Intensity Units	
Intensity Multiplier	1
R.Time (min)	Intensity
0.01158	34.99
0.02825	34.99
0.04492	34.99
0.06158	35.00
0.07825	35.01
0.09492	35.00
0.11158	35.00
0.12825	35.01
0.14492	34.99
0.16158	34.98
0.17825	34.98
0.19492	34.98
0.21158	34.99
0.22825	34.99
0.24492	35.00
0.26158	35.00
0.27825	35.00
0.29492	35.00
0.31158	34.99
0.32825	35.00
0.34492	35.01
0.36158	35.00
0.37825	35.00
0.39492	35.00
0.41158	35.00
0.42825	35.00
0.44492	35.00
0.46158	35.00
0.47825	34.99
0.49492	34.99
0.51158	35.00
0.52825	35.00
0.54492	34.99
0.56158	35.00
0.57825	35.00
0.59492	35.01
0.61158	35.01
0.62825	35.00
0.64492	34.99
0.66158	34.99
0.67825	34.99
0.69492	34.99
0.71158	34.99
0.72825	34.99
0.74492	35.00
0.76158	34.99
0.77825	34.99
0.79492	34.99
0.81158	34.99
0.82825	34.99
0.84492	34.99
0.86158	34.99
0.87825	35.00
0.89492	35.00
0.91158	35.00
0.92825	34.99
0.94492	34.99
0.96158	34.99
0.97825	34.99
0.99492	34.99
1.01158	34.99
1.02825	34.99
1.04492	34.98
1.06158	34.99
1.07825	34.99
1.09492	35.00
1.11158	35.00
1.12825	35.00
1.14492	35.00
1.16158	34.99
1.17825	35.00
1.19492	35.01
1.21158	35.01
1.22825	35.01
1.24492	35.01
1.26158	34.99
1.27825	35.00
1.29492	34.99
1.31158	34.99
1.32825	34.98
1.34492	34.98
1.36158	34.98
1.37825	34.99
1.39492	34.99
1.41158	34.98
1.42825	34.99
1.44492	34.99
1.46158	34.99
1.47825	35.00
1.49492	35.00
1.51158	35.00
1.52825	35.00
1.54492	35.00
1.56158	35.00
1.57825	34.99
1.59492	35.01
1.61158	35.09
1.62825	35.22
1.64492	35.41
1.66158	35.66
1.67825	36.01
1.69492	36.38
1.71158	36.74
1.72825	37.06
1.74492	37.40
1.76158	37.74
1.77825	38.06
1.79492	38.37
1.81158	38.72
1.82825	39.04
1.84492	39.37
1.86158	39.70
1.87825	40.02
1.89492	40.36
1.91158	40.69
1.92825	41.02
1.94492	41.36
1.96158	41.67
1.97825	41.99
1.99492	42.31
2.01158	42.65
2.02825	42.97
2.04492	43.28
2.06158	43.61
2.07825	43.93
2.09492	44.25
2.11158	44.59
2.12825	44.91
2.14492	45.23
2.16158	45.54
2.17825	45.88
2.19492	46.20
2.21158	46.53
2.22825	46.88
2.24492	47.19
2.26158	47.58
2.27825	47.90
2.29492	48.22
2.31158	48.54
2.32825	48.87
2.34492	49.20
2.36158	49.49
2.37825	49.64
2.39492	49.69
2.41158	49.68
2.42825	49.68
2.44492	49.71
2.46158	49.71
2.47825	49.73
2.49492	49.73
2.51158	49.77
2.52825	49.78
2.54492	49.77
2.56158	49.79
2.57825	49.80
2.59492	49.81
2.61158	49.81
2.62825	49.81
2.64492	49.83
2.66158	49.82
2.67825	49.84
2.69492	49.85
2.71158	49.85
2.72825	49.85
2.74492	49.86
2.76158	49.87
2.77825	49.87
2.79492	49.87
2.81158	49.86
2.82825	49.85
2.84492	49.86
2.86158	49.90
2.87825	49.91
2.89492	49.94
2.91158	49.95
2.92825	49.95
2.94492	49.96
2.96158	49.96
2.97825	49.96
2.99492	49.97
3.01158	49.98
3.02825	49.98
3.04492	49.99
3.06158	50.00
3.07825	50.00
3.09492	50.01
3.11158	50.03
3.12825	50.04
3.14492	50.04
3.16158	50.04
3.17825	50.05
3.19492	50.05
3.21158	50.07
3.22825	50.08
3.24492	50.09
3.26158	50.09
3.27825	50.10
3.29492	50.11
3.31158	50.10
3.32825	50.10
3.34492	50.08
3.36158	50.07
3.37825	50.07
3.39492	50.05
3.41158	50.05
3.42825	50.05
3.44492	50.04
3.46158	50.04
3.47825	50.04
3.49492	50.04
3.51158	50.05
3.52825	50.05
3.54492	50.06
3.56158	50.07
3.57825	50.08
3.59492	50.08
3.61158	50.08
3.62825	50.08
3.64492	50.08
3.66158	50.08
3.67825	50.08
3.69492	50.08
3.71158	50.06
3.72825	50.06
3.74492	50.06
3.76158	50.07
3.77825	50.08
3.79492	50.08
3.81158	50.07
3.82825	50.06
3.84492	50.05
3.86158	50.05
3.87825	50.06
3.89492	50.06
3.91158	50.06
3.92825	50.07
3.94492	50.08
3.96158	50.07
3.97825	50.08
3.99492	50.07

[Status Trace (Injection Unit Temperature)]
Interval(msec)	1000
# of Points	240
Start Time(min)	0.012
End Time(min)	3.995
Intensity Units	
Intensity Multiplier	1
R.Time (min)	Intensity
0.01158	99.99
0.02825	99.99
0.04492	99.99
0.06158	99.99
0.07825	99.99
0.09492	99.99
0.11158	99.99
0.12825	99.99
0.14492	99.99
0.16158	99.99
0.17825	99.99
0.19492	99.99
0.21158	99.99
0.22825	99.99
0.24492	99.99
0.26158	99.99
0.27825	99.99
0.29492	99.99
0.31158	99.99
0.32825	99.99
0.34492	99.99
0.36158	99.99
0.37825	99.99
0.39492	99.99
0.41158	99.99
0.42825	99.99
0.44492	99.99
0.46158	99.99
0.47825	99.99
0.49492	99.99
0.51158	99.99
0.52825	99.99
0.54492	99.99
0.56158	99.99
0.57825	99.99
0.59492	99.99
0.61158	99.98
0.62825	99.99
0.64492	99.99
0.66158	99.99
0.67825	99.99
0.69492	99.99
0.71158	99.99
0.72825	99.99
0.74492	99.99
0.76158	99.99
0.77825	99.99
0.79492	99.99
0.81158	99.99
0.82825	99.99
0.84492	99.99
0.86158	99.99
0.87825	99.99
0.89492	99.99
0.91158	99.99
0.92825	99.99
0.94492	99.99
0.96158	99.99
0.97825	99.99
0.99492	99.99
1.01158	99.99
1.02825	99.99
1.04492	99.99
1.06158	99.99
1.07825	99.99
1.09492	99.99
1.11158	99.98
1.12825	99.98
1.14492	99.99
1.16158	99.99
1.17825	99.99
1.19492	99.99
1.21158	99.99
1.22825	99.99
1.24492	99.99
1.26158	99.99
1.27825	99.99
1.29492	99.99
1.31158	99.99
1.32825	99.99
1.34492	99.98
1.36158	99.99
1.37825	99.99
1.39492	99.99
1.41158	99.99
1.42825	99.99
1.44492	99.99
1.46158	99.99
1.47825	99.99
1.49492	99.99
1.51158	99.98
1.52825	99.98
1.54492	99.99
1.56158	99.99
1.57825	99.99
1.59492	99.98
1.61158	99.98
1.62825	99.99
1.64492	99.99
1.66158	99.98
1.67825	99.99
1.69492	99.99
1.71158	99.99
1.72825	99.99
1.74492	99.99
1.76158	99.99
1.77825	99.99
1.79492	99.98
1.81158	99.99
1.82825	99.98
1.84492	99.99
1.86158	99.99
1.87825	99.98
1.89492	99.98
1.91158	99.98
1.92825	99.98
1.94492	99.98
1.96158	99.98
1.97825	99.98
1.99492	99.98
2.01158	99.98
2.02825	99.98
2.04492	99.98
2.06158	99.98
2.07825	99.98
2.09492	99.98
2.11158	99.98
2.12825	99.98
2.14492	99.97
2.16158	99.98
2.17825	99.98
2.19492	99.97
2.21158	99.97
2.22825	99.98
2.24492	99.97
2.26158	99.98
2.27825	99.98
2.29492	99.97
2.31158	99.97
2.32825	99.98
2.34492	99.98
2.36158	99.98
2.37825	99.98
2.39492	99.98
2.41158	99.98
2.42825	99.98
2.44492	99.98
2.46158	99.98
2.47825	99.98
2.49492	99.98
2.51158	99.98
2.52825	99.98
2.54492	99.98
2.56158	99.98
2.57825	99.98
2.59492	99.98
2.61158	99.98
2.62825	99.98
2.64492	99.99
2.66158	99.99
2.67825	99.99
2.69492	99.99
2.71158	99.99
2.72825	99.99
2.74492	100.00
2.76158	99.99
2.77825	100.00
2.79492	100.00
2.81158	100.00
2.82825	100.00
2.84492	100.00
2.86158	100.00
2.87825	100.00
2.89492	100.00
2.91158	100.01
2.92825	100.01
2.94492	100.01
2.96158	100.01
2.97825	100.01
2.99492	100.01
3.01158	100.01
3.02825	100.01
3.04492	100.01
3.06158	100.02
3.07825	100.02
3.09492	100.02
3.11158	100.02
3.12825	100.02
3.14492	100.02
3.16158	100.02
3.17825	100.02
3.19492	100.02
3.21158	100.03
3.22825	100.03
3.24492	100.03
3.26158	100.03
3.27825	100.03
3.29492	100.03
3.31158	100.04
3.32825	100.03
3.34492	100.04
3.36158	100.04
3.37825	100.04
3.39492	100.03
3.41158	100.04
3.42825	100.04
3.44492	100.04
3.46158	100.04
3.47825	100.04
3.49492	100.04
3.51158	100.04
3.52825	100.04
3.54492	100.05
3.56158	100.05
3.57825	100.05
3.59492	100.05
3.61158	100.05
3.62825	100.04
3.64492	100.05
3.66158	100.05
3.67825	100.05
3.69492	100.05
3.71158	100.05
3.72825	100.05
3.74492	100.05
3.76158	100.05
3.77825	100.05
3.79492	100.05
3.81158	100.05
3.82825	100.05
3.84492	100.05
3.86158	100.05
3.87825	100.05
3.89492	100.05
3.91158	100.05
3.92825	100.05
3.94492	100.05
3.96158	100.05
3.97825	100.05
3.99492	100.05

[Status Trace (Carrier Gas Pressure)]
Interval(msec)	1000
# of Points	240
Start Time(min)	0.012
End Time(min)	3.995
Intensity Units	
Intensity Multiplier	1
R.Time (min)	Intensity
0.01158	57.99
0.02825	55.00
0.04492	57.58
0.06158	59.64
0.07825	59.08
0.09492	58.00
0.11158	57.99
0.12825	58.01
0.14492	58.01
0.16158	58.00
0.17825	58.00
0.19492	58.00
0.21158	58.00
0.22825	58.00
0.24492	58.00
0.26158	58.00
0.27825	58.00
0.29492	58.00
0.31158	58.00
0.32825	58.00
0.34492	58.00
0.36158	58.00
0.37825	58.00
0.39492	58.00
0.41158	58.00
0.42825	58.00
0.44492	58.00
0.46158	58.00
0.47825	58.00
0.49492	58.00
0.51158	58.00
0.52825	58.00
0.54492	58.00
0.56158	58.00
0.57825	58.00
0.59492	58.00
0.61158	58.00
0.62825	58.00
0.64492	58.00
0.66158	58.00
0.67825	58.00
0.69492	58.00
0.71158	58.00
0.72825	58.00
0.74492	58.00
0.76158	58.00
0.77825	58.00
0.79492	58.00
0.81158	58.00
0.82825	58.00
0.84492	58.00
0.86158	58.00
0.87825	58.00
0.89492	58.00
0.91158	58.00
0.92825	58.00
0.94492	58.00
0.96158	58.00
0.97825	58.00
0.99492	58.00
1.01158	58.00
1.02825	58.00
1.04492	58.00
1.06158	58.00
1.07825	58.00
1.09492	58.00
1.11158	58.00
1.12825	58.00
1.14492	58.00
1.16158	58.00
1.17825	58.00
1.19492	58.00
1.21158	58.00
1.22825	58.00
1.24492	58.00
1.26158	58.00
1.27825	58.00
1.29492	58.00
1.31158	58.00
1.32825	58.00
1.34492	58.00
1.36158	58.00
1.37825	58.00
1.39492	58.00
1.41158	58.00
1.42825	58.00
1.44492	58.00
1.46158	58.00
1.47825	58.00
1.49492	58.00
1.51158	58.00
1.52825	58.00
1.54492	58.00
1.56158	58.00
1.57825	58.00
1.59492	58.00
1.61158	58.00
1.62825	58.00
1.64492	58.00
1.66158	58.00
1.67825	58.01
1.69492	58.00
1.71158	58.00
1.72825	58.00
1.74492	58.00
1.76158	58.00
1.77825	58.00
1.79492	58.00
1.81158	58.00
1.82825	58.00
1.84492	58.00
1.86158	58.00
1.87825	58.00
1.89492	58.00
1.91158	58.00
1.92825	58.00
1.94492	58.00
1.96158	58.00
1.97825	58.00
1.99492	58.00
2.01158	58.00
2.02825	58.00
2.04492	58.00
2.06158	58.00
2.07825	58.00
2.09492	58.00
2.11158	58.00
2.12825	58.00
2.14492	58.00
2.16158	58.00
2.17825	58.00
2.19492	58.00
2.21158	58.00
2.22825	58.00
2.24492	58.00
2.26158	58.00
2.27825	58.00
2.29492	58.00
2.31158	58.00
2.32825	58.00
2.34492	58.00
2.36158	58.00
2.37825	57.99
2.39492	57.99
2.41158	57.99
2.42825	58.00
2.44492	58.00
2.46158	58.00
2.47825	58.00
2.49492	58.00
2.51158	57.99
2.52825	57.98
2.54492	58.00
2.56158	58.00
2.57825	58.00
2.59492	58.00
2.61158	58.00
2.62825	58.00
2.64492	58.00
2.66158	58.00
2.67825	58.00
2.69492	58.00
2.71158	58.00
2.72825	58.00
2.74492	58.00
2.76158	58.00
2.77825	58.00
2.79492	58.00
2.81158	58.00
2.82825	58.00
2.84492	58.00
2.86158	58.00
2.87825	58.00
2.89492	58.00
2.91158	58.00
2.92825	58.00
2.94492	58.00
2.96158	58.00
2.97825	58.00
2.99492	58.00
3.01158	58.00
3.02825	58.00
3.04492	58.00
3.06158	58.00
3.07825	58.00
3.09492	58.00
3.11158	58.00
3.12825	58.00
3.14492	58.00
3.16158	58.00
3.17825	58.00
3.19492	58.00
3.21158	58.00
3.22825	58.00
3.24492	58.00
3.26158	58.00
3.27825	58.00
3.29492	58.00
3.31158	58.00
3.32825	58.00
3.34492	58.00
3.36158	58.00
3.37825	58.00
3.39492	58.00
3.41158	58.00
3.42825	58.00
3.44492	58.00
3.46158	58.00
3.47825	58.00
3.49492	58.00
3.51158	58.00
3.52825	58.00
3.54492	58.00
3.56158	58.00
3.57825	58.00
3.59492	58.00
3.61158	58.00
3.62825	58.00
3.64492	58.00
3.66158	58.00
3.67825	58.00
3.69492	58.00
3.71158	58.00
3.72825	58.00
3.74492	58.00
3.76158	58.00
3.77825	58.00
3.79492	58.00
3.81158	58.00
3.82825	58.00
3.84492	58.00
3.86158	58.00
3.87825	58.00
3.89492	58.00
3.91158	58.00
3.92825	58.00
3.94492	58.00
3.96158	58.00
3.97825	58.00
3.99492	58.00

[Status Trace (Carrier Gas Flow)]
Interval(msec)	1000
# of Points	240
Start Time(min)	0.012
End Time(min)	3.995
Intensity Units	
Intensity Multiplier	1
R.Time (min)	Intensity
0.01158	34.52
0.02825	34.54
0.04492	34.55
0.06158	34.53
0.07825	34.51
0.09492	34.52
0.11158	34.52
0.12825	34.52
0.14492	34.52
0.16158	34.52
0.17825	34.52
0.19492	34.52
0.21158	34.52
0.22825	34.52
0.24492	34.52
0.26158	34.52
0.27825	34.52
0.29492	34.52
0.31158	34.52
0.32825	34.52
0.34492	34.52
0.36158	34.52
0.37825	34.52
0.39492	34.52
0.41158	34.52
0.42825	34.52
0.44492	34.52
0.46158	34.52
0.47825	34.52
0.49492	34.52
0.51158	34.52
0.52825	34.52
0.54492	34.51
0.56158	34.52
0.57825	34.52
0.59492	34.53
0.61158	34.52
0.62825	34.52
0.64492	34.52
0.66158	34.52
0.67825	34.52
0.69492	34.52
0.71158	34.52
0.72825	34.52
0.74492	34.52
0.76158	34.52
0.77825	34.52
0.79492	34.52
0.81158	34.52
0.82825	34.52
0.84492	34.52
0.86158	34.52
0.87825	34.52
0.89492	34.52
0.91158	34.52
0.92825	34.52
0.94492	34.52
0.96158	34.52
0.97825	34.52
0.99492	34.52
1.01158	34.52
1.02825	34.52
1.04492	34.52
1.06158	34.52
1.07825	34.52
1.09492	34.52
1.11158	34.52
1.12825	34.52
1.14492	34.52
1.16158	34.52
1.17825	34.52
1.19492	34.52
1.21158	34.52
1.22825	34.52
1.24492	34.52
1.26158	34.52
1.27825	34.52
1.29492	34.52
1.31158	34.52
1.32825	34.52
1.34492	34.52
1.36158	34.52
1.37825	34.52
1.39492	34.52
1.41158	34.52
1.42825	34.52
1.44492	34.52
1.46158	34.52
1.47825	34.52
1.49492	34.52
1.51158	34.52
1.52825	34.52
1.54492	34.52
1.56158	34.52
1.57825	34.52
1.59492	34.52
1.61158	34.52
1.62825	34.52
1.64492	34.52
1.66158	34.52
1.67825	34.52
1.69492	34.52
1.71158	34.52
1.72825	34.52
1.74492	34.52
1.76158	34.52
1.77825	34.52
1.79492	34.52
1.81158	34.52
1.82825	34.52
1.84492	34.52
1.86158	34.53
1.87825	34.51
1.89492	34.52
1.91158	34.52
1.92825	34.52
1.94492	34.51
1.96158	34.52
1.97825	34.50
1.99492	34.52
2.01158	34.52
2.02825	34.52
2.04492	34.52
2.06158	34.52
2.07825	34.52
2.09492	34.52
2.11158	34.52
2.12825	34.52
2.14492	34.52
2.16158	34.52
2.17825	34.52
2.19492	34.52
2.21158	34.52
2.22825	34.52
2.24492	34.52
2.26158	34.52
2.27825	34.52
2.29492	34.52
2.31158	34.52
2.32825	34.52
2.34492	34.52
2.36158	34.52
2.37825	34.52
2.39492	34.52
2.41158	34.52
2.42825	34.52
2.44492	34.52
2.46158	34.52
2.47825	34.52
2.49492	34.52
2.51158	34.52
2.52825	34.52
2.54492	34.52
2.56158	34.52
2.57825	34.52
2.59492	34.52
2.61158	34.52
2.62825	34.52
2.64492	34.52
2.66158	34.52
2.67825	34.52
2.69492	34.52
2.71158	34.52
2.72825	34.52
2.74492	34.52
2.76158	34.52
2.77825	34.52
2.79492	34.52
2.81158	34.52
2.82825	34.52
2.84492	34.52
2.86158	34.52
2.87825	34.52
2.89492	34.52
2.91158	34.52
2.92825	34.52
2.94492	34.52
2.96158	34.52
2.97825	34.52
2.99492	34.52
3.01158	34.52
3.02825	34.52
3.04492	34.52
3.06158	34.52
3.07825	34.52
3.09492	34.52
3.11158	34.52
3.12825	34.52
3.14492	34.52
3.16158	34.52
3.17825	34.52
3.19492	34.52
3.21158	34.52
3.22825	34.52
3.24492	34.52
3.26158	34.51
3.27825	34.53
3.29492	34.52
3.31158	34.52
3.32825	34.53
3.34492	34.51
3.36158	34.52
3.37825	34.52
3.39492	34.52
3.41158	34.52
3.42825	34.52
3.44492	34.52
3.46158	34.52
3.47825	34.52
3.49492	34.52
3.51158	34.52
3.52825	34.52
3.54492	34.52
3.56158	34.52
3.57825	34.52
3.59492	34.52
3.61158	34.52
3.62825	34.52
3.64492	34.52
3.66158	34.52
3.67825	34.52
3.69492	34.52
3.71158	34.52
3.72825	34.52
3.74492	34.52
3.76158	34.52
3.77825	34.52
3.79492	34.52
3.81158	34.52
3.82825	34.52
3.84492	34.52
3.86158	34.52
3.87825	34.52
3.89492	34.52
3.91158	34.52
3.92825	34.52
3.94492	34.52
3.96158	34.52
3.97825	34.52
3.99492	34.52

[Status Trace (Column Flow)]
Interval(msec)	1000
# of Points	240
Start Time(min)	0.012
End Time(min)	3.995
Intensity Units	
Intensity Multiplier	1
R.Time (min)	Intensity
0.01158	5.49
0.02825	5.15
0.04492	5.45
0.06158	5.69
0.07825	5.62
0.09492	5.50
0.11158	5.49
0.12825	5.50
0.14492	5.50
0.16158	5.50
0.17825	5.50
0.19492	5.50
0.21158	5.50
0.22825	5.50
0.24492	5.50
0.26158	5.50
0.27825	5.49
0.29492	5.50
0.31158	5.50
0.32825	5.50
0.34492	5.49
0.36158	5.49
0.37825	5.49
0.39492	5.49
0.41158	5.49
0.42825	5.49
0.44492	5.49
0.46158	5.50
0.47825	5.50
0.49492	5.50
0.51158	5.49
0.52825	5.50
0.54492	5.50
0.56158	5.50
0.57825	5.49
0.59492	5.49
0.61158	5.49
0.62825	5.50
0.64492	5.50
0.66158	5.50
0.67825	5.50
0.69492	5.50
0.71158	5.50
0.72825	5.50
0.74492	5.50
0.76158	5.50
0.77825	5.50
0.79492	5.50
0.81158	5.50
0.82825	5.50
0.84492	5.50
0.86158	5.50
0.87825	5.49
0.89492	5.49
0.91158	5.49
0.92825	5.50
0.94492	5.50
0.96158	5.50
0.97825	5.50
0.99492	5.49
1.01158	5.49
1.02825	5.50
1.04492	5.50
1.06158	5.50
1.07825	5.50
1.09492	5.50
1.11158	5.49
1.12825	5.50
1.14492	5.50
1.16158	5.50
1.17825	5.50
1.19492	5.49
1.21158	5.49
1.22825	5.49
1.24492	5.49
1.26158	5.50
1.27825	5.50
1.29492	5.50
1.31158	5.50
1.32825	5.50
1.34492	5.50
1.36158	5.50
1.37825	5.50
1.39492	5.50
1.41158	5.50
1.42825	5.50
1.44492	5.50
1.46158	5.50
1.47825	5.50
1.49492	5.49
1.51158	5.49
1.52825	5.49
1.54492	5.49
1.56158	5.49
1.57825	5.49
1.59492	5.49
1.61158	5.49
1.62825	5.49
1.64492	5.48
1.66158	5.47
1.67825	5.46
1.69492	5.45
1.71158	5.44
1.72825	5.43
1.74492	5.42
1.76158	5.41
1.77825	5.40
1.79492	5.39
1.81158	5.38
1.82825	5.37
1.84492	5.36
1.86158	5.35
1.87825	5.34
1.89492	5.33
1.91158	5.32
1.92825	5.31
1.94492	5.30
1.96158	5.29
1.97825	5.28
1.99492	5.27
2.01158	5.26
2.02825	5.25
2.04492	5.24
2.06158	5.23
2.07825	5.23
2.09492	5.22
2.11158	5.21
2.12825	5.20
2.14492	5.19
2.16158	5.18
2.17825	5.17
2.19492	5.16
2.21158	5.15
2.22825	5.14
2.24492	5.13
2.26158	5.12
2.27825	5.11
2.29492	5.10
2.31158	5.09
2.32825	5.08
2.34492	5.08
2.36158	5.07
2.37825	5.06
2.39492	5.06
2.41158	5.06
2.42825	5.06
2.44492	5.06
2.46158	5.06
2.47825	5.06
2.49492	5.06
2.51158	5.06
2.52825	5.06
2.54492	5.06
2.56158	5.06
2.57825	5.06
2.59492	5.06
2.61158	5.06
2.62825	5.06
2.64492	5.06
2.66158	5.06
2.67825	5.06
2.69492	5.06
2.71158	5.06
2.72825	5.06
2.74492	5.06
2.76158	5.06
2.77825	5.06
2.79492	5.06
2.81158	5.06
2.82825	5.06
2.84492	5.06
2.86158	5.06
2.87825	5.06
2.89492	5.06
2.91158	5.06
2.92825	5.06
2.94492	5.06
2.96158	5.06
2.97825	5.06
2.99492	5.05
3.01158	5.05
3.02825	5.05
3.04492	5.05
3.06158	5.05
3.07825	5.05
3.09492	5.05
3.11158	5.05
3.12825	5.05
3.14492	5.05
3.16158	5.05
3.17825	5.05
3.19492	5.05
3.21158	5.05
3.22825	5.05
3.24492	5.05
3.26158	5.05
3.27825	5.05
3.29492	5.05
3.31158	5.05
3.32825	5.05
3.34492	5.05
3.36158	5.05
3.37825	5.05
3.39492	5.05
3.41158	5.05
3.42825	5.05
3.44492	5.05
3.46158	5.05
3.47825	5.05
3.49492	5.05
3.51158	5.05
3.52825	5.05
3.54492	5.05
3.56158	5.05
3.57825	5.05
3.59492	5.05
3.61158	5.05
3.62825	5.05
3.64492	5.05
3.66158	5.05
3.67825	5.05
3.69492	5.05
3.71158	5.05
3.72825	5.05
3.74492	5.05
3.76158	5.05
3.77825	5.05
3.79492	5.05
3.81158	5.05
3.82825	5.05
3.84492	5.05
3.86158	5.05
3.87825	5.05
3.89492	5.05
3.91158	5.05
3.92825	5.05
3.94492	5.05
3.96158	5.05
3.97825	5.05
3.99492	5.05

[Status Trace (Linear Velocity)]
Interval(msec)	1000
# of Points	240
Start Time(min)	0.012
End Time(min)	3.995
Intensity Units	
Intensity Multiplier	1
R.Time (min)	Intensity
0.01158	39.01
0.02825	37.04
0.04492	38.74
0.06158	40.08
0.07825	39.72
0.09492	39.01
0.11158	39.00
0.12825	39.02
0.14492	39.02
0.16158	39.02
0.17825	39.01
0.19492	39.01
0.21158	39.01
0.22825	39.01
0.24492	39.01
0.26158	39.01
0.27825	39.01
0.29492	39.01
0.31158	39.01
0.32825	39.01
0.34492	39.01
0.36158	39.01
0.37825	39.01
0.39492	39.01
0.41158	39.01
0.42825	39.01
0.44492	39.01
0.46158	39.01
0.47825	39.01
0.49492	39.01
0.51158	39.01
0.52825	39.01
0.54492	39.01
0.56158	39.01
0.57825	39.01
0.59492	39.01
0.61158	39.01
0.62825	39.01
0.64492	39.01
0.66158	39.01
0.67825	39.01
0.69492	39.01
0.71158	39.01
0.72825	39.01
0.74492	39.01
0.76158	39.01
0.77825	39.01
0.79492	39.01
0.81158	39.01
0.82825	39.01
0.84492	39.01
0.86158	39.01
0.87825	39.01
0.89492	39.01
0.91158	39.01
0.92825	39.01
0.94492	39.01
0.96158	39.01
0.97825	39.01
0.99492	39.01
1.01158	39.01
1.02825	39.01
1.04492	39.01
1.06158	39.01
1.07825	39.01
1.09492	39.01
1.11158	39.01
1.12825	39.01
1.14492	39.01
1.16158	39.01
1.17825	39.01
1.19492	39.01
1.21158	39.01
1.22825	39.01
1.24492	39.01
1.26158	39.01
1.27825	39.01
1.29492	39.01
1.31158	39.01
1.32825	39.01
1.34492	39.01
1.36158	39.01
1.37825	39.01
1.39492	39.01
1.41158	39.01
1.42825	39.01
1.44492	39.01
1.46158	39.01
1.47825	39.01
1.49492	39.01
1.51158	39.01
1.52825	39.01
1.54492	39.01
1.56158	39.01
1.57825	39.01
1.59492	39.01
1.61158	39.00
1.62825	38.99
1.64492	38.97
1.66158	38.95
1.67825	38.92
1.69492	38.88
1.71158	38.84
1.72825	38.81
1.74492	38.78
1.76158	38.75
1.77825	38.72
1.79492	38.69
1.81158	38.66
1.82825	38.63
1.84492	38.59
1.86158	38.56
1.87825	38.53
1.89492	38.50
1.91158	38.47
1.92825	38.44
1.94492	38.41
1.96158	38.38
1.97825	38.35
1.99492	38.32
2.01158	38.29
2.02825	38.26
2.04492	38.23
2.06158	38.20
2.07825	38.17
2.09492	38.14
2.11158	38.11
2.12825	38.08
2.14492	38.05
2.16158	38.02
2.17825	37.99
2.19492	37.97
2.21158	37.94
2.22825	37.91
2.24492	37.88
2.26158	37.84
2.27825	37.81
2.29492	37.78
2.31158	37.76
2.32825	37.73
2.34492	37.70
2.36158	37.67
2.37825	37.65
2.39492	37.65
2.41158	37.65
2.42825	37.65
2.44492	37.65
2.46158	37.65
2.47825	37.65
2.49492	37.65
2.51158	37.64
2.52825	37.63
2.54492	37.65
2.56158	37.65
2.57825	37.64
2.59492	37.64
2.61158	37.64
2.62825	37.64
2.64492	37.64
2.66158	37.64
2.67825	37.64
2.69492	37.64
2.71158	37.64
2.72825	37.64
2.74492	37.64
2.76158	37.64
2.77825	37.64
2.79492	37.64
2.81158	37.64
2.82825	37.64
2.84492	37.64
2.86158	37.64
2.87825	37.63
2.89492	37.63
2.91158	37.63
2.92825	37.63
2.94492	37.63
2.96158	37.63
2.97825	37.63
2.99492	37.63
3.01158	37.63
3.02825	37.63
3.04492	37.63
3.06158	37.63
3.07825	37.63
3.09492	37.63
3.11158	37.62
3.12825	37.62
3.14492	37.62
3.16158	37.62
3.17825	37.62
3.19492	37.62
3.21158	37.62
3.22825	37.62
3.24492	37.62
3.26158	37.62
3.27825	37.62
3.29492	37.62
3.31158	37.62
3.32825	37.62
3.34492	37.62
3.36158	37.62
3.37825	37.62
3.39492	37.62
3.41158	37.62
3.42825	37.62
3.44492	37.62
3.46158	37.62
3.47825	37.62
3.49492	37.62
3.51158	37.62
3.52825	37.62
3.54492	37.62
3.56158	37.62
3.57825	37.62
3.59492	37.62
3.61158	37.62
3.62825	37.62
3.64492	37.62
3.66158	37.62
3.67825	37.62
3.69492	37.62
3.71158	37.62
3.72825	37.62
3.74492	37.62
3.76158	37.62
3.77825	37.62
3.79492	37.62
3.81158	37.62
3.82825	37.62
3.84492	37.62
3.86158	37.62
3.87825	37.62
3.89492	37.62
3.91158	37.62
3.92825	37.62
3.94492	37.62
3.96158	37.62
3.97825	37.62
3.99492	37.62

