[Header]
Application Name	LabSolutions
Version	5.110
Data File Name	C:\Users\User\Desktop\GC Analyses\Jack\UIC Prairie Sampling\9.16.22\220916_024.gcd
Output Date	11/29/2022
Output Time	11:10:16 AM

[File Information]
Type	Data File
Generated	11/10/2022 4:16:28 PM
Generated by	System Administrator
Modified	11/10/2022 4:20:52 PM
Modified by	System Administrator

[Sample Information]
Operator Name	System Administrator
Acquired	11/10/2022 4:16:51 PM
Sample Type	1:Standard
Level	1
Sample Name	220916_UICPrairie
Sample ID	220916_UICPrairie
ISTD Amount1	1
ISTD Amount2	1
ISTD Amount3	1
ISTD Amount4	1
ISTD Amount5	1
ISTD Amount6	1
ISTD Amount7	1
ISTD Amount8	1
ISTD Amount9	1
ISTD Amount10	1
ISTD Amount11	1
ISTD Amount12	1
ISTD Amount13	1
ISTD Amount14	1
ISTD Amount15	1
ISTD Amount16	1
ISTD Amount17	1
ISTD Amount18	1
ISTD Amount19	1
ISTD Amount20	1
ISTD Amount21	1
ISTD Amount22	1
ISTD Amount23	1
ISTD Amount24	1
ISTD Amount25	1
ISTD Amount26	1
ISTD Amount27	1
ISTD Amount28	1
ISTD Amount29	1
ISTD Amount30	1
ISTD Amount31	1
ISTD Amount32	1
Sample Amount	1
Dilution Factor	1
Vial#	1
Injection Volume	1
Injection Count	1
Bar Code	

[Original Files]
Data File	C:\Users\User\Desktop\GC Analyses\Jack\UIC Prairie Sampling\9.16.22\220916_024.gcd
Method File	C:\LabSolutions\Data\GHG_4min_2022\ghg3_togas_w_acet_4 min_new_int.gcm
Batch File	
Report Format File	c:\LabSolutions\System\DEFAULT.lsr

[File Description]


[Configuration]
Instrument Name	C0B7VH3-Instrument1
Instrument #	1
Line #	1
# of Detectors	3
Detector ID	DET#1	DET#2	DET#3
Detector Name	FID	PTCD	ECD
# of Channels	1	1	1

[Peak Table(Ch1)]
# of Peaks	3
Peak#	R.Time	I.Time	F.Time	Area	Height	A/H	Conc.	Mark	ID#	Name	k'	Plate #	Plate Ht.	Tailing	Resolution	Sep.Factor	Area Ratio	Height Ratio	Conc. %	Norm Conc.
1	1.476	1.435	1.534	9744	4231	2.303	100.000	   	1	CO	0.000	7942	18.886	1.206	0.000	0.000	0	0	16.667	16.667
2	1.567	1.534	1.626	4865	2431	2.001	100.000	 V 	2	CH4	0.062	10997	13.640	1.179	1.455	0.000	0	0	16.667	16.667
3	1.996	1.949	2.429	2090641	1016150	2.057	400.000	   	3	CO2	0.353	17693	8.478	1.210	7.161	5.680	0	0	66.667	66.667

[Peak Table(Ch2)]
# of Peaks	0

[Peak Table(Ch3)]
# of Peaks	2
Peak#	R.Time	I.Time	F.Time	Area	Height	A/H	Conc.	Mark	ID#	Name	k'	Plate #	Plate Ht.	Tailing	Resolution	Sep.Factor	Area Ratio	Height Ratio	Conc. %	Norm Conc.
1	2.462	1.256	2.649	14738	449	32.801	0.000	   			0.000	99	1517.261	0.581	0.000	0.000	0	0	0.000	0.000
2	2.880	2.660	3.995	54275	5795	9.366	1.000	   	1	N2O	0.170	11218	13.371	8.467	0.761	0.000	0	0	100.000	100.000

[Compound Results(Ch1)]
# of IDs	6
ID#	Name	R.Time	Area	Height	Conc.	Curve	3rd	2nd	1st	Constant	Area Ratio	Height Ratio	Conc. %	Norm Conc.
1	CO	1.476	9744	4231	100.000	Linear	0.000000e+00	0.000000e+00	9.743863e+001	0.000000e+00	0	0	16.667	16.667
2	CH4	1.567	4865	2431	100.000	Linear	0.000000e+00	0.000000e+00	4.865424e+001	0.000000e+00	0	0	16.667	16.667
3	CO2	1.996	2090641	1016150	400.000	Linear	0.000000e+00	0.000000e+00	5.226603e+003	0.000000e+00	0	0	66.667	66.667
4	Ethylene	0.000	0	0	0.000	Linear	0.000000e+00	0.000000e+00	0.000000e+00	0.000000e+00	0	0	0.000	0.000
5	Acetylene	0.000	0	0	0.000	Linear	0.000000e+00	0.000000e+00	0.000000e+00	0.000000e+00	0	0	0.000	0.000
6	Ethane	0.000	0	0	0.000	Linear	0.000000e+00	0.000000e+00	0.000000e+00	0.000000e+00	0	0	0.000	0.000

[Compound Results(Ch2)]
# of IDs	5
ID#	Name	R.Time	Area	Height	Conc.	Curve	3rd	2nd	1st	Constant	Area Ratio	Height Ratio	Conc. %	Norm Conc.
1	Hydrogen	0.000	0	0	0.000	Linear	0.000000e+00	0.000000e+00	0.000000e+00	0.000000e+00	0	0	0.000	0.000
2	Oxygen	0.000	0	0	0.000	Linear	0.000000e+00	0.000000e+00	0.000000e+00	0.000000e+00	0	0	0.000	0.000
3	Nitrogen	0.000	0	0	0.000	Linear	0.000000e+00	0.000000e+00	0.000000e+00	0.000000e+00	0	0	0.000	0.000
4	Methane	0.000	0	0	0.000	Linear	0.000000e+00	0.000000e+00	0.000000e+00	0.000000e+00	0	0	0.000	0.000
5	Carbon Monoxide	0.000	0	0	0.000	Linear	0.000000e+00	0.000000e+00	0.000000e+00	0.000000e+00	0	0	0.000	0.000

[Compound Results(Ch3)]
# of IDs	2
ID#	Name	R.Time	Area	Height	Conc.	Curve	3rd	2nd	1st	Constant	Area Ratio	Height Ratio	Conc. %	Norm Conc.
1	N2O	2.880	54275	5795	1.000	Linear	0.000000e+00	0.000000e+00	5.427502e+004	0.000000e+00	0	0	100.000	100.000
2	SF6	0.000	0	0	0.000	Linear	0.000000e+00	0.000000e+00	0.000000e+00	0.000000e+00	0	0	0.000	0.000

[Group Results(Ch1)]
# of Groups	0

[Group Results(Ch2)]
# of Groups	0

[Group Results(Ch3)]
# of Groups	0

[Chromatogram (Ch1)]
Interval(msec)	220
# of Points	1091
Start Time(min)	0.002
End Time(min)	3.998
R.Time (min)	Intensity
0.00167	-8
0.00533	-15
0.00900	-24
0.01267	-31
0.01633	-35
0.02000	-35
0.02367	-32
0.02733	-29
0.03100	-26
0.03467	-26
0.03833	-27
0.04200	-27
0.04567	-28
0.04933	-28
0.05300	-28
0.05667	-27
0.06033	-23
0.06400	-22
0.06767	-24
0.07133	-25
0.07500	-27
0.07867	-31
0.08233	-39
0.08600	-49
0.08967	-58
0.09333	-66
0.09700	-69
0.10067	-69
0.10433	-67
0.10800	-67
0.11167	-68
0.11533	-67
0.11900	-66
0.12267	-67
0.12633	-68
0.13000	-68
0.13367	-66
0.13733	-61
0.14100	-56
0.14467	-52
0.14833	-51
0.15200	-53
0.15567	-54
0.15933	-54
0.16300	-52
0.16667	-51
0.17033	-50
0.17400	-52
0.17767	-56
0.18133	-58
0.18500	-58
0.18867	-61
0.19233	-66
0.19600	-67
0.19967	-60
0.20333	-49
0.20700	-41
0.21067	-43
0.21433	-50
0.21800	-59
0.22167	-67
0.22533	-75
0.22900	-80
0.23267	-80
0.23633	-78
0.24000	-77
0.24367	-77
0.24733	-80
0.25100	-84
0.25467	-86
0.25833	-84
0.26200	-80
0.26567	-77
0.26933	-78
0.27300	-81
0.27667	-84
0.28033	-88
0.28400	-89
0.28767	-89
0.29133	-86
0.29500	-82
0.29867	-77
0.30233	-73
0.30600	-68
0.30967	-66
0.31333	-66
0.31700	-66
0.32067	-66
0.32433	-66
0.32800	-68
0.33167	-67
0.33533	-69
0.33900	-72
0.34267	-72
0.34633	-74
0.35000	-77
0.35367	-82
0.35733	-87
0.36100	-88
0.36467	-88
0.36833	-88
0.37200	-89
0.37567	-89
0.37933	-89
0.38300	-89
0.38667	-89
0.39033	-89
0.39400	-87
0.39767	-82
0.40133	-75
0.40500	-68
0.40867	-66
0.41233	-69
0.41600	-72
0.41967	-73
0.42333	-73
0.42700	-73
0.43067	-75
0.43433	-76
0.43800	-75
0.44167	-76
0.44533	-75
0.44900	-71
0.45267	-68
0.45633	-69
0.46000	-71
0.46367	-72
0.46733	-74
0.47100	-81
0.47467	-88
0.47833	-89
0.48200	-87
0.48567	-83
0.48933	-78
0.49300	-69
0.49667	-61
0.50033	-59
0.50400	-61
0.50767	-65
0.51133	-72
0.51500	-76
0.51867	-77
0.52233	-72
0.52600	-66
0.52967	-62
0.53333	-65
0.53700	-71
0.54067	-77
0.54433	-82
0.54800	-85
0.55167	-90
0.55533	-92
0.55900	-88
0.56267	-85
0.56633	-83
0.57000	-83
0.57367	-85
0.57733	-91
0.58100	-98
0.58467	-103
0.58833	-110
0.59200	-116
0.59567	-119
0.59933	-121
0.60300	-119
0.60667	-117
0.61033	-116
0.61400	-119
0.61767	-121
0.62133	-120
0.62500	-115
0.62867	-107
0.63233	-102
0.63600	-99
0.63967	-97
0.64333	-99
0.64700	-102
0.65067	-103
0.65433	-100
0.65800	-97
0.66167	-95
0.66533	-94
0.66900	-95
0.67267	-96
0.67633	-94
0.68000	-91
0.68367	-90
0.68733	-92
0.69100	-95
0.69467	-99
0.69833	-102
0.70200	-102
0.70567	-98
0.70933	-91
0.71300	-84
0.71667	-80
0.72033	-79
0.72400	-82
0.72767	-87
0.73133	-95
0.73500	-99
0.73867	-102
0.74233	-107
0.74600	-110
0.74967	-110
0.75333	-109
0.75700	-108
0.76067	-107
0.76433	-104
0.76800	-104
0.77167	-105
0.77533	-108
0.77900	-106
0.78267	-104
0.78633	-99
0.79000	-94
0.79367	-89
0.79733	-87
0.80100	-89
0.80467	-92
0.80833	-95
0.81200	-99
0.81567	-105
0.81933	-110
0.82300	-112
0.82667	-109
0.83033	-100
0.83400	-92
0.83767	-88
0.84133	-88
0.84500	-90
0.84867	-94
0.85233	-100
0.85600	-103
0.85967	-102
0.86333	-99
0.86700	-98
0.87067	-101
0.87433	-108
0.87800	-112
0.88167	-114
0.88533	-112
0.88900	-112
0.89267	-111
0.89633	-106
0.90000	-102
0.90367	-98
0.90733	-97
0.91100	-99
0.91467	-103
0.91833	-110
0.92200	-118
0.92567	-128
0.92933	-134
0.93300	-135
0.93667	-134
0.94033	-132
0.94400	-127
0.94767	-123
0.95133	-118
0.95500	-112
0.95867	-108
0.96233	-104
0.96600	-102
0.96967	-102
0.97333	-100
0.97700	-97
0.98067	-95
0.98433	-95
0.98800	-97
0.99167	-100
0.99533	-105
0.99900	-108
1.00267	-108
1.00633	-106
1.01000	-106
1.01367	-109
1.01733	-111
1.02100	-111
1.02467	-110
1.02833	-106
1.03200	-104
1.03567	-105
1.03933	-110
1.04300	-117
1.04667	-122
1.05033	-123
1.05400	-120
1.05767	-116
1.06133	-115
1.06500	-113
1.06867	-104
1.07233	-94
1.07600	-87
1.07967	-86
1.08333	-88
1.08700	-94
1.09067	-101
1.09433	-106
1.09800	-107
1.10167	-107
1.10533	-109
1.10900	-111
1.11267	-115
1.11633	-118
1.12000	-120
1.12367	-119
1.12733	-120
1.13100	-125
1.13467	-135
1.13833	-144
1.14200	-151
1.14567	-155
1.14933	-156
1.15300	-151
1.15667	-141
1.16033	-132
1.16400	-124
1.16767	-119
1.17133	-119
1.17500	-121
1.17867	-125
1.18233	-127
1.18600	-128
1.18967	-127
1.19333	-126
1.19700	-126
1.20067	-127
1.20433	-129
1.20800	-129
1.21167	-127
1.21533	-124
1.21900	-124
1.22267	-126
1.22633	-129
1.23000	-134
1.23367	-137
1.23733	-137
1.24100	-131
1.24467	-125
1.24833	-123
1.25200	-125
1.25567	-128
1.25933	-130
1.26300	-130
1.26667	-133
1.27033	-137
1.27400	-137
1.27767	-133
1.28133	-126
1.28500	-123
1.28867	-127
1.29233	-133
1.29600	-141
1.29967	-147
1.30333	-149
1.30700	-147
1.31067	-148
1.31433	-152
1.31800	-157
1.32167	-157
1.32533	-154
1.32900	-148
1.33267	-141
1.33633	-136
1.34000	-137
1.34367	-140
1.34733	-141
1.35100	-141
1.35467	-141
1.35833	-143
1.36200	-145
1.36567	-141
1.36933	-136
1.37300	-133
1.37667	-132
1.38033	-131
1.38400	-128
1.38767	-126
1.39133	-127
1.39500	-129
1.39867	-128
1.40233	-128
1.40600	-131
1.40967	-137
1.41333	-140
1.41700	-141
1.42067	-143
1.42433	-146
1.42800	-148
1.43167	-146
1.43533	-137
1.43900	-101
1.44267	27
1.44633	287
1.45000	686
1.45367	1256
1.45733	1967
1.46100	2692
1.46467	3311
1.46833	3766
1.47200	4035
1.47567	4091
1.47933	3917
1.48300	3526
1.48667	2984
1.49033	2384
1.49400	1817
1.49767	1335
1.50133	951
1.50500	658
1.50867	442
1.51233	286
1.51600	174
1.51967	95
1.52333	38
1.52700	-3
1.53067	-33
1.53433	-51
1.53800	-44
1.54167	36
1.54533	253
1.54900	626
1.55267	1089
1.55633	1543
1.56000	1915
1.56367	2172
1.56733	2285
1.57100	2223
1.57467	1987
1.57833	1631
1.58200	1237
1.58567	878
1.58933	587
1.59300	365
1.59667	202
1.60033	85
1.60400	1
1.60767	-55
1.61133	-90
1.61500	-111
1.61867	-128
1.62233	-141
1.62600	-150
1.62967	-153
1.63333	-152
1.63700	-148
1.64067	-147
1.64433	-142
1.64800	-137
1.65167	-136
1.65533	-140
1.65900	-147
1.66267	-157
1.66633	-168
1.67000	-175
1.67367	-179
1.67733	-180
1.68100	-178
1.68467	-173
1.68833	-168
1.69200	-165
1.69567	-163
1.69933	-162
1.70300	-161
1.70667	-162
1.71033	-161
1.71400	-161
1.71767	-158
1.72133	-149
1.72500	-140
1.72867	-137
1.73233	-140
1.73600	-149
1.73967	-160
1.74333	-168
1.74700	-170
1.75067	-168
1.75433	-166
1.75800	-167
1.76167	-170
1.76533	-172
1.76900	-171
1.77267	-172
1.77633	-171
1.78000	-166
1.78367	-164
1.78733	-166
1.79100	-167
1.79467	-170
1.79833	-174
1.80200	-178
1.80567	-182
1.80933	-185
1.81300	-183
1.81667	-177
1.82033	-171
1.82400	-161
1.82767	-152
1.83133	-150
1.83500	-149
1.83867	-147
1.84233	-147
1.84600	-145
1.84967	-145
1.85333	-148
1.85700	-154
1.86067	-159
1.86433	-160
1.86800	-158
1.87167	-154
1.87533	-153
1.87900	-155
1.88267	-157
1.88633	-155
1.89000	-150
1.89367	-144
1.89733	-141
1.90100	-140
1.90467	-142
1.90833	-146
1.91200	-146
1.91567	-145
1.91933	-143
1.92300	-139
1.92667	-139
1.93033	-142
1.93400	-149
1.93767	-156
1.94133	-158
1.94500	-153
1.94867	-149
1.95233	-98
1.95600	221
1.95967	1951
1.96333	9209
1.96700	32348
1.97067	89112
1.97433	196829
1.97800	357670
1.98167	550788
1.98533	741559
1.98900	896723
1.99267	992410
1.99633	1016026
2.00000	967496
2.00367	860078
2.00733	716996
2.01100	564338
2.01467	423238
2.01833	305700
2.02200	214991
2.02567	148730
2.02933	102148
2.03300	70229
2.03667	48697
2.04033	34283
2.04400	24640
2.04767	18152
2.05133	13736
2.05500	10681
2.05867	8524
2.06233	6969
2.06600	5827
2.06967	4967
2.07333	4300
2.07700	3767
2.08067	3336
2.08433	2984
2.08800	2694
2.09167	2449
2.09533	2239
2.09900	2056
2.10267	1897
2.10633	1756
2.11000	1630
2.11367	1517
2.11733	1418
2.12100	1331
2.12467	1255
2.12833	1188
2.13200	1129
2.13567	1075
2.13933	1025
2.14300	977
2.14667	931
2.15033	887
2.15400	846
2.15767	811
2.16133	784
2.16500	761
2.16867	738
2.17233	711
2.17600	679
2.17967	646
2.18333	613
2.18700	580
2.19067	553
2.19433	531
2.19800	512
2.20167	495
2.20533	479
2.20900	464
2.21267	452
2.21633	441
2.22000	430
2.22367	415
2.22733	394
2.23100	371
2.23467	352
2.23833	337
2.24200	328
2.24567	324
2.24933	322
2.25300	317
2.25667	311
2.26033	305
2.26400	298
2.26767	290
2.27133	277
2.27500	261
2.27867	247
2.28233	236
2.28600	226
2.28967	219
2.29333	214
2.29700	213
2.30067	215
2.30433	218
2.30800	220
2.31167	220
2.31533	221
2.31900	219
2.32267	213
2.32633	206
2.33000	199
2.33367	192
2.33733	184
2.34100	173
2.34467	163
2.34833	156
2.35200	152
2.35567	150
2.35933	148
2.36300	147
2.36667	149
2.37033	150
2.37400	145
2.37767	137
2.38133	130
2.38500	127
2.38867	129
2.39233	133
2.39600	140
2.39967	139
2.40333	129
2.40700	116
2.41067	106
2.41433	102
2.41800	104
2.42167	108
2.42533	110
2.42900	109
2.43267	108
2.43633	104
2.44000	100
2.44367	99
2.44733	98
2.45100	98
2.45467	100
2.45833	102
2.46200	102
2.46567	99
2.46933	94
2.47300	92
2.47667	88
2.48033	86
2.48400	83
2.48767	81
2.49133	75
2.49500	65
2.49867	55
2.50233	46
2.50600	44
2.50967	48
2.51333	54
2.51700	62
2.52067	68
2.52433	73
2.52800	76
2.53167	76
2.53533	75
2.53900	74
2.54267	71
2.54633	66
2.55000	60
2.55367	53
2.55733	47
2.56100	45
2.56467	46
2.56833	49
2.57200	47
2.57567	42
2.57933	40
2.58300	42
2.58667	45
2.59033	48
2.59400	50
2.59767	47
2.60133	40
2.60500	34
2.60867	30
2.61233	30
2.61600	33
2.61967	40
2.62333	48
2.62700	52
2.63067	50
2.63433	46
2.63800	39
2.64167	34
2.64533	29
2.64900	22
2.65267	17
2.65633	15
2.66000	15
2.66367	16
2.66733	22
2.67100	25
2.67467	26
2.67833	27
2.68200	31
2.68567	35
2.68933	38
2.69300	41
2.69667	41
2.70033	39
2.70400	36
2.70767	35
2.71133	35
2.71500	35
2.71867	33
2.72233	31
2.72600	33
2.72967	36
2.73333	39
2.73700	41
2.74067	42
2.74433	40
2.74800	40
2.75167	45
2.75533	51
2.75900	54
2.76267	55
2.76633	55
2.77000	54
2.77367	51
2.77733	51
2.78100	52
2.78467	51
2.78833	46
2.79200	41
2.79567	39
2.79933	38
2.80300	38
2.80667	37
2.81033	36
2.81400	37
2.81767	39
2.82133	42
2.82500	44
2.82867	45
2.83233	44
2.83600	38
2.83967	32
2.84333	28
2.84700	24
2.85067	22
2.85433	22
2.85800	25
2.86167	28
2.86533	30
2.86900	34
2.87267	39
2.87633	40
2.88000	42
2.88367	48
2.88733	54
2.89100	59
2.89467	65
2.89833	70
2.90200	71
2.90567	67
2.90933	64
2.91300	65
2.91667	68
2.92033	71
2.92400	70
2.92767	68
2.93133	65
2.93500	62
2.93867	59
2.94233	57
2.94600	57
2.94967	55
2.95333	51
2.95700	51
2.96067	56
2.96433	59
2.96800	62
2.97167	65
2.97533	68
2.97900	66
2.98267	60
2.98633	54
2.99000	51
2.99367	50
2.99733	54
3.00100	62
3.00467	74
3.00833	87
3.01200	96
3.01567	100
3.01933	96
3.02300	85
3.02667	74
3.03033	65
3.03400	55
3.03767	49
3.04133	48
3.04500	50
3.04867	52
3.05233	53
3.05600	55
3.05967	55
3.06333	56
3.06700	57
3.07067	58
3.07433	59
3.07800	59
3.08167	59
3.08533	63
3.08900	65
3.09267	64
3.09633	58
3.10000	53
3.10367	53
3.10733	55
3.11100	55
3.11467	51
3.11833	46
3.12200	43
3.12567	46
3.12933	50
3.13300	56
3.13667	61
3.14033	66
3.14400	70
3.14767	70
3.15133	70
3.15500	68
3.15867	68
3.16233	66
3.16600	66
3.16967	66
3.17333	67
3.17700	69
3.18067	69
3.18433	67
3.18800	63
3.19167	61
3.19533	61
3.19900	62
3.20267	60
3.20633	58
3.21000	55
3.21367	49
3.21733	43
3.22100	39
3.22467	39
3.22833	43
3.23200	47
3.23567	51
3.23933	54
3.24300	58
3.24667	61
3.25033	63
3.25400	63
3.25767	62
3.26133	65
3.26500	69
3.26867	73
3.27233	71
3.27600	64
3.27967	56
3.28333	50
3.28700	47
3.29067	45
3.29433	46
3.29800	46
3.30167	48
3.30533	52
3.30900	56
3.31267	58
3.31633	58
3.32000	57
3.32367	60
3.32733	63
3.33100	69
3.33467	75
3.33833	80
3.34200	84
3.34567	86
3.34933	86
3.35300	83
3.35667	77
3.36033	72
3.36400	70
3.36767	66
3.37133	59
3.37500	50
3.37867	41
3.38233	38
3.38600	40
3.38967	43
3.39333	45
3.39700	46
3.40067	47
3.40433	47
3.40800	49
3.41167	51
3.41533	54
3.41900	60
3.42267	66
3.42633	67
3.43000	63
3.43367	60
3.43733	58
3.44100	54
3.44467	51
3.44833	47
3.45200	45
3.45567	46
3.45933	51
3.46300	53
3.46667	51
3.47033	46
3.47400	40
3.47767	34
3.48133	33
3.48500	35
3.48867	34
3.49233	23
3.49600	41
3.49967	53
3.50333	56
3.50700	52
3.51067	47
3.51433	42
3.51800	42
3.52167	45
3.52533	49
3.52900	53
3.53267	55
3.53633	52
3.54000	45
3.54367	40
3.54733	37
3.55100	38
3.55467	42
3.55833	46
3.56200	51
3.56567	53
3.56933	52
3.57300	49
3.57667	45
3.58033	43
3.58400	42
3.58767	42
3.59133	41
3.59500	38
3.59867	35
3.60233	32
3.60600	31
3.60967	32
3.61333	36
3.61700	38
3.62067	40
3.62433	41
3.62800	38
3.63167	33
3.63533	27
3.63900	25
3.64267	26
3.64633	29
3.65000	32
3.65367	36
3.65733	38
3.66100	34
3.66467	24
3.66833	14
3.67200	12
3.67567	14
3.67933	16
3.68300	20
3.68667	24
3.69033	25
3.69400	27
3.69767	27
3.70133	23
3.70500	16
3.70867	12
3.71233	10
3.71600	10
3.71967	12
3.72333	18
3.72700	25
3.73067	31
3.73433	38
3.73800	41
3.74167	43
3.74533	43
3.74900	42
3.75267	42
3.75633	44
3.76000	46
3.76367	44
3.76733	41
3.77100	35
3.77467	31
3.77833	28
3.78200	25
3.78567	23
3.78933	19
3.79300	13
3.79667	10
3.80033	12
3.80400	17
3.80767	26
3.81133	33
3.81500	36
3.81867	37
3.82233	35
3.82600	31
3.82967	25
3.83333	20
3.83700	17
3.84067	17
3.84433	18
3.84800	21
3.85167	23
3.85533	26
3.85900	31
3.86267	35
3.86633	38
3.87000	40
3.87367	42
3.87733	43
3.88100	39
3.88467	32
3.88833	24
3.89200	21
3.89567	21
3.89933	22
3.90300	20
3.90667	20
3.91033	22
3.91400	24
3.91767	25
3.92133	25
3.92500	26
3.92867	27
3.93233	31
3.93600	32
3.93967	35
3.94333	32
3.94700	30
3.95067	31
3.95433	35
3.95800	43
3.96167	49
3.96533	48
3.96900	40
3.97267	31
3.97633	26
3.98000	25
3.98367	27
3.98733	30
3.99100	33
3.99467	35
3.99833	37

[Chromatogram (Ch2)]
Interval(msec)	220
# of Points	1091
Start Time(min)	0.002
End Time(min)	3.998
R.Time (min)	Intensity
0.00167	-0
0.00533	-1
0.00900	-1
0.01267	-1
0.01633	-1
0.02000	-1
0.02367	-1
0.02733	-1
0.03100	-2
0.03467	-2
0.03833	-2
0.04200	-2
0.04567	-2
0.04933	-2
0.05300	-2
0.05667	-2
0.06033	-1
0.06400	-1
0.06767	-1
0.07133	-1
0.07500	-2
0.07867	-2
0.08233	-2
0.08600	-2
0.08967	-2
0.09333	-2
0.09700	-2
0.10067	-1
0.10433	-1
0.10800	-1
0.11167	-1
0.11533	-1
0.11900	-0
0.12267	-0
0.12633	-0
0.13000	-0
0.13367	-0
0.13733	-0
0.14100	-0
0.14467	-0
0.14833	-0
0.15200	-0
0.15567	-0
0.15933	-0
0.16300	-0
0.16667	0
0.17033	0
0.17400	0
0.17767	0
0.18133	0
0.18500	0
0.18867	0
0.19233	0
0.19600	0
0.19967	1
0.20333	1
0.20700	0
0.21067	0
0.21433	0
0.21800	-0
0.22167	-0
0.22533	-1
0.22900	-1
0.23267	-1
0.23633	-1
0.24000	-1
0.24367	-1
0.24733	-1
0.25100	-0
0.25467	-1
0.25833	-1
0.26200	-1
0.26567	-1
0.26933	-2
0.27300	-2
0.27667	-3
0.28033	-3
0.28400	-3
0.28767	-3
0.29133	-4
0.29500	-4
0.29867	-4
0.30233	-5
0.30600	-5
0.30967	-5
0.31333	-5
0.31700	-5
0.32067	-4
0.32433	-4
0.32800	-4
0.33167	-3
0.33533	-3
0.33900	-2
0.34267	-2
0.34633	-2
0.35000	-1
0.35367	-1
0.35733	-1
0.36100	-1
0.36467	-1
0.36833	-1
0.37200	-1
0.37567	-1
0.37933	-1
0.38300	-1
0.38667	-1
0.39033	-1
0.39400	-1
0.39767	-1
0.40133	-1
0.40500	-1
0.40867	-1
0.41233	-1
0.41600	-1
0.41967	-1
0.42333	-1
0.42700	-1
0.43067	-1
0.43433	-2
0.43800	-2
0.44167	-2
0.44533	-2
0.44900	-2
0.45267	-3
0.45633	-3
0.46000	-3
0.46367	-3
0.46733	-4
0.47100	-3
0.47467	-3
0.47833	-3
0.48200	-3
0.48567	-3
0.48933	-3
0.49300	-3
0.49667	-3
0.50033	-3
0.50400	-2
0.50767	-2
0.51133	-1
0.51500	-1
0.51867	-1
0.52233	-1
0.52600	-1
0.52967	-1
0.53333	-2
0.53700	-2
0.54067	-2
0.54433	-3
0.54800	-2
0.55167	-2
0.55533	-2
0.55900	-2
0.56267	-2
0.56633	-2
0.57000	-2
0.57367	-2
0.57733	-2
0.58100	-2
0.58467	-2
0.58833	-2
0.59200	-2
0.59567	-2
0.59933	-2
0.60300	-2
0.60667	-2
0.61033	-2
0.61400	-2
0.61767	-2
0.62133	-2
0.62500	-2
0.62867	-1
0.63233	-1
0.63600	-1
0.63967	-1
0.64333	-1
0.64700	-1
0.65067	-1
0.65433	-2
0.65800	-2
0.66167	-2
0.66533	-2
0.66900	-2
0.67267	-1
0.67633	-1
0.68000	-1
0.68367	-1
0.68733	-1
0.69100	-1
0.69467	-1
0.69833	-0
0.70200	-1
0.70567	-1
0.70933	-1
0.71300	-1
0.71667	-1
0.72033	-2
0.72400	-2
0.72767	-2
0.73133	-2
0.73500	-2
0.73867	-2
0.74233	-2
0.74600	-2
0.74967	-2
0.75333	-2
0.75700	-2
0.76067	-2
0.76433	-2
0.76800	-2
0.77167	-2
0.77533	-2
0.77900	-2
0.78267	-2
0.78633	-1
0.79000	-1
0.79367	-1
0.79733	-1
0.80100	-1
0.80467	-1
0.80833	-1
0.81200	-1
0.81567	-1
0.81933	-1
0.82300	-1
0.82667	-1
0.83033	-1
0.83400	-1
0.83767	-1
0.84133	-1
0.84500	-1
0.84867	-1
0.85233	-1
0.85600	-2
0.85967	-2
0.86333	-2
0.86700	-3
0.87067	-3
0.87433	-3
0.87800	-4
0.88167	-4
0.88533	-4
0.88900	-4
0.89267	-4
0.89633	-4
0.90000	-4
0.90367	-3
0.90733	-3
0.91100	-3
0.91467	-3
0.91833	-3
0.92200	-2
0.92567	-2
0.92933	-2
0.93300	-2
0.93667	-2
0.94033	-2
0.94400	-2
0.94767	-2
0.95133	-2
0.95500	-2
0.95867	-2
0.96233	-2
0.96600	-2
0.96967	-2
0.97333	-2
0.97700	-2
0.98067	-2
0.98433	-2
0.98800	-2
0.99167	-2
0.99533	-2
0.99900	-2
1.00267	-2
1.00633	-3
1.01000	-3
1.01367	-3
1.01733	-3
1.02100	-3
1.02467	-3
1.02833	-3
1.03200	-3
1.03567	-3
1.03933	-3
1.04300	-3
1.04667	-3
1.05033	-3
1.05400	-3
1.05767	-3
1.06133	-3
1.06500	-3
1.06867	-3
1.07233	-3
1.07600	-3
1.07967	-3
1.08333	-3
1.08700	-3
1.09067	-3
1.09433	-4
1.09800	-4
1.10167	-4
1.10533	-4
1.10900	-4
1.11267	-4
1.11633	-4
1.12000	-4
1.12367	-3
1.12733	-3
1.13100	-3
1.13467	-3
1.13833	-3
1.14200	-3
1.14567	-3
1.14933	-3
1.15300	-3
1.15667	-3
1.16033	-3
1.16400	-3
1.16767	-4
1.17133	-3
1.17500	-3
1.17867	-3
1.18233	-3
1.18600	-3
1.18967	-3
1.19333	-3
1.19700	-3
1.20067	-4
1.20433	-4
1.20800	-4
1.21167	-4
1.21533	-4
1.21900	-5
1.22267	-5
1.22633	-5
1.23000	-5
1.23367	-5
1.23733	-5
1.24100	-6
1.24467	-6
1.24833	-6
1.25200	-6
1.25567	-6
1.25933	-6
1.26300	-6
1.26667	-5
1.27033	-5
1.27400	-5
1.27767	-5
1.28133	-4
1.28500	-4
1.28867	-4
1.29233	-4
1.29600	-4
1.29967	-4
1.30333	-4
1.30700	-4
1.31067	-4
1.31433	-4
1.31800	-4
1.32167	-4
1.32533	-4
1.32900	-4
1.33267	-4
1.33633	-4
1.34000	-4
1.34367	-4
1.34733	-4
1.35100	-4
1.35467	-4
1.35833	-4
1.36200	-4
1.36567	-4
1.36933	-4
1.37300	-4
1.37667	-3
1.38033	-3
1.38400	-3
1.38767	-2
1.39133	-2
1.39500	-2
1.39867	-2
1.40233	-2
1.40600	-3
1.40967	-3
1.41333	-3
1.41700	-3
1.42067	-3
1.42433	-3
1.42800	-4
1.43167	-4
1.43533	-5
1.43900	-5
1.44267	-5
1.44633	-5
1.45000	-5
1.45367	-5
1.45733	-5
1.46100	-5
1.46467	-5
1.46833	-4
1.47200	-4
1.47567	-5
1.47933	-5
1.48300	-5
1.48667	-4
1.49033	-4
1.49400	-4
1.49767	-4
1.50133	-4
1.50500	-3
1.50867	-3
1.51233	-3
1.51600	-3
1.51967	-3
1.52333	-3
1.52700	-3
1.53067	-3
1.53433	-3
1.53800	-3
1.54167	-3
1.54533	-3
1.54900	-2
1.55267	-2
1.55633	-2
1.56000	-2
1.56367	-2
1.56733	-3
1.57100	-3
1.57467	-3
1.57833	-3
1.58200	-4
1.58567	-4
1.58933	-4
1.59300	-5
1.59667	-5
1.60033	-6
1.60400	-7
1.60767	-8
1.61133	-10
1.61500	-12
1.61867	-14
1.62233	-17
1.62600	-20
1.62967	-23
1.63333	-26
1.63700	-30
1.64067	-33
1.64433	-37
1.64800	-41
1.65167	-44
1.65533	-48
1.65900	-52
1.66267	-55
1.66633	-59
1.67000	-63
1.67367	-68
1.67733	-73
1.68100	-77
1.68467	-82
1.68833	-87
1.69200	-91
1.69567	-95
1.69933	-98
1.70300	-101
1.70667	-104
1.71033	-106
1.71400	-108
1.71767	-110
1.72133	-111
1.72500	-113
1.72867	-113
1.73233	-114
1.73600	-114
1.73967	-115
1.74333	-115
1.74700	-114
1.75067	-114
1.75433	-113
1.75800	-113
1.76167	-112
1.76533	-112
1.76900	-113
1.77267	-113
1.77633	-114
1.78000	-115
1.78367	-116
1.78733	-117
1.79100	-118
1.79467	-119
1.79833	-120
1.80200	-121
1.80567	-122
1.80933	-122
1.81300	-123
1.81667	-124
1.82033	-124
1.82400	-124
1.82767	-124
1.83133	-123
1.83500	-122
1.83867	-121
1.84233	-121
1.84600	-120
1.84967	-121
1.85333	-121
1.85700	-122
1.86067	-122
1.86433	-123
1.86800	-123
1.87167	-123
1.87533	-123
1.87900	-122
1.88267	-122
1.88633	-122
1.89000	-121
1.89367	-121
1.89733	-121
1.90100	-121
1.90467	-120
1.90833	-120
1.91200	-120
1.91567	-121
1.91933	-121
1.92300	-121
1.92667	-121
1.93033	-121
1.93400	-120
1.93767	-120
1.94133	-119
1.94500	-119
1.94867	-118
1.95233	-118
1.95600	-118
1.95967	-118
1.96333	-118
1.96700	-118
1.97067	-118
1.97433	-118
1.97800	-117
1.98167	-117
1.98533	-117
1.98900	-117
1.99267	-117
1.99633	-116
2.00000	-116
2.00367	-115
2.00733	-115
2.01100	-114
2.01467	-114
2.01833	-114
2.02200	-114
2.02567	-114
2.02933	-113
2.03300	-113
2.03667	-113
2.04033	-113
2.04400	-113
2.04767	-113
2.05133	-112
2.05500	-111
2.05867	-111
2.06233	-110
2.06600	-109
2.06967	-109
2.07333	-109
2.07700	-109
2.08067	-109
2.08433	-109
2.08800	-109
2.09167	-109
2.09533	-109
2.09900	-109
2.10267	-109
2.10633	-108
2.11000	-108
2.11367	-107
2.11733	-106
2.12100	-106
2.12467	-105
2.12833	-105
2.13200	-105
2.13567	-105
2.13933	-105
2.14300	-105
2.14667	-105
2.15033	-104
2.15400	-104
2.15767	-104
2.16133	-103
2.16500	-102
2.16867	-102
2.17233	-101
2.17600	-100
2.17967	-100
2.18333	-99
2.18700	-99
2.19067	-98
2.19433	-98
2.19800	-98
2.20167	-98
2.20533	-99
2.20900	-99
2.21267	-99
2.21633	-100
2.22000	-100
2.22367	-99
2.22733	-99
2.23100	-98
2.23467	-98
2.23833	-97
2.24200	-97
2.24567	-96
2.24933	-95
2.25300	-95
2.25667	-94
2.26033	-94
2.26400	-94
2.26767	-93
2.27133	-93
2.27500	-93
2.27867	-93
2.28233	-92
2.28600	-92
2.28967	-91
2.29333	-90
2.29700	-89
2.30067	-88
2.30433	-88
2.30800	-87
2.31167	-87
2.31533	-86
2.31900	-86
2.32267	-86
2.32633	-86
2.33000	-87
2.33367	-88
2.33733	-88
2.34100	-88
2.34467	-88
2.34833	-87
2.35200	-86
2.35567	-85
2.35933	-85
2.36300	-84
2.36667	-83
2.37033	-82
2.37400	-80
2.37767	-78
2.38133	-76
2.38500	-73
2.38867	-69
2.39233	-65
2.39600	-61
2.39967	-56
2.40333	-52
2.40700	-47
2.41067	-43
2.41433	-38
2.41800	-34
2.42167	-30
2.42533	-26
2.42900	-23
2.43267	-20
2.43633	-17
2.44000	-15
2.44367	-13
2.44733	-11
2.45100	-10
2.45467	-8
2.45833	-7
2.46200	-5
2.46567	-3
2.46933	-2
2.47300	-2
2.47667	-1
2.48033	-0
2.48400	0
2.48767	1
2.49133	2
2.49500	3
2.49867	5
2.50233	6
2.50600	6
2.50967	7
2.51333	8
2.51700	9
2.52067	9
2.52433	10
2.52800	10
2.53167	10
2.53533	10
2.53900	10
2.54267	11
2.54633	11
2.55000	11
2.55367	12
2.55733	12
2.56100	12
2.56467	12
2.56833	13
2.57200	13
2.57567	13
2.57933	13
2.58300	13
2.58667	13
2.59033	13
2.59400	12
2.59767	12
2.60133	12
2.60500	13
2.60867	13
2.61233	13
2.61600	14
2.61967	14
2.62333	15
2.62700	16
2.63067	16
2.63433	17
2.63800	17
2.64167	17
2.64533	17
2.64900	18
2.65267	18
2.65633	18
2.66000	19
2.66367	19
2.66733	19
2.67100	19
2.67467	19
2.67833	18
2.68200	19
2.68567	19
2.68933	19
2.69300	19
2.69667	20
2.70033	20
2.70400	21
2.70767	22
2.71133	22
2.71500	23
2.71867	23
2.72233	24
2.72600	24
2.72967	24
2.73333	24
2.73700	23
2.74067	23
2.74433	23
2.74800	22
2.75167	22
2.75533	22
2.75900	22
2.76267	22
2.76633	22
2.77000	22
2.77367	23
2.77733	23
2.78100	23
2.78467	23
2.78833	24
2.79200	24
2.79567	24
2.79933	24
2.80300	24
2.80667	24
2.81033	24
2.81400	24
2.81767	24
2.82133	24
2.82500	24
2.82867	24
2.83233	24
2.83600	24
2.83967	23
2.84333	22
2.84700	19
2.85067	15
2.85433	8
2.85800	-1
2.86167	-14
2.86533	-30
2.86900	-51
2.87267	-75
2.87633	-103
2.88000	-135
2.88367	-171
2.88733	-210
2.89100	-252
2.89467	-296
2.89833	-342
2.90200	-390
2.90567	-439
2.90933	-489
2.91300	-540
2.91667	-590
2.92033	-640
2.92400	-690
2.92767	-740
2.93133	-788
2.93500	-838
2.93867	-892
2.94233	-952
2.94600	-1013
2.94967	-1064
2.95333	-1096
2.95700	-1101
2.96067	-1081
2.96433	-1037
2.96800	-976
2.97167	-904
2.97533	-825
2.97900	-744
2.98267	-664
2.98633	-588
2.99000	-516
2.99367	-450
2.99733	-391
3.00100	-337
3.00467	-290
3.00833	-248
3.01200	-212
3.01567	-180
3.01933	-153
3.02300	-129
3.02667	-108
3.03033	-91
3.03400	-76
3.03767	-63
3.04133	-52
3.04500	-42
3.04867	-34
3.05233	-28
3.05600	-22
3.05967	-17
3.06333	-12
3.06700	-9
3.07067	-6
3.07433	-3
3.07800	-1
3.08167	1
3.08533	3
3.08900	5
3.09267	6
3.09633	7
3.10000	8
3.10367	9
3.10733	10
3.11100	10
3.11467	11
3.11833	12
3.12200	12
3.12567	13
3.12933	13
3.13300	14
3.13667	14
3.14033	15
3.14400	15
3.14767	16
3.15133	16
3.15500	16
3.15867	16
3.16233	17
3.16600	17
3.16967	17
3.17333	17
3.17700	17
3.18067	18
3.18433	18
3.18800	18
3.19167	19
3.19533	19
3.19900	20
3.20267	20
3.20633	20
3.21000	20
3.21367	21
3.21733	21
3.22100	21
3.22467	21
3.22833	20
3.23200	20
3.23567	20
3.23933	20
3.24300	20
3.24667	20
3.25033	21
3.25400	21
3.25767	21
3.26133	21
3.26500	22
3.26867	22
3.27233	22
3.27600	22
3.27967	22
3.28333	22
3.28700	23
3.29067	23
3.29433	23
3.29800	23
3.30167	23
3.30533	23
3.30900	23
3.31267	23
3.31633	23
3.32000	23
3.32367	23
3.32733	23
3.33100	23
3.33467	23
3.33833	23
3.34200	23
3.34567	23
3.34933	23
3.35300	23
3.35667	24
3.36033	24
3.36400	24
3.36767	24
3.37133	25
3.37500	25
3.37867	25
3.38233	25
3.38600	26
3.38967	26
3.39333	26
3.39700	26
3.40067	26
3.40433	26
3.40800	26
3.41167	27
3.41533	27
3.41900	26
3.42267	26
3.42633	26
3.43000	26
3.43367	26
3.43733	26
3.44100	26
3.44467	26
3.44833	26
3.45200	25
3.45567	25
3.45933	25
3.46300	25
3.46667	25
3.47033	25
3.47400	25
3.47767	25
3.48133	26
3.48500	26
3.48867	26
3.49233	27
3.49600	27
3.49967	27
3.50333	27
3.50700	27
3.51067	27
3.51433	27
3.51800	27
3.52167	27
3.52533	27
3.52900	27
3.53267	26
3.53633	26
3.54000	26
3.54367	26
3.54733	26
3.55100	26
3.55467	26
3.55833	26
3.56200	26
3.56567	26
3.56933	26
3.57300	26
3.57667	26
3.58033	26
3.58400	26
3.58767	25
3.59133	25
3.59500	25
3.59867	25
3.60233	25
3.60600	25
3.60967	25
3.61333	25
3.61700	25
3.62067	25
3.62433	25
3.62800	25
3.63167	25
3.63533	25
3.63900	26
3.64267	26
3.64633	25
3.65000	25
3.65367	25
3.65733	25
3.66100	25
3.66467	25
3.66833	26
3.67200	26
3.67567	26
3.67933	26
3.68300	26
3.68667	26
3.69033	26
3.69400	26
3.69767	26
3.70133	26
3.70500	26
3.70867	26
3.71233	26
3.71600	26
3.71967	26
3.72333	26
3.72700	26
3.73067	26
3.73433	26
3.73800	26
3.74167	26
3.74533	26
3.74900	26
3.75267	26
3.75633	26
3.76000	26
3.76367	26
3.76733	26
3.77100	26
3.77467	26
3.77833	26
3.78200	26
3.78567	26
3.78933	26
3.79300	26
3.79667	25
3.80033	25
3.80400	25
3.80767	25
3.81133	25
3.81500	25
3.81867	25
3.82233	25
3.82600	26
3.82967	26
3.83333	26
3.83700	26
3.84067	26
3.84433	26
3.84800	26
3.85167	26
3.85533	26
3.85900	26
3.86267	26
3.86633	25
3.87000	25
3.87367	25
3.87733	25
3.88100	25
3.88467	25
3.88833	24
3.89200	24
3.89567	24
3.89933	24
3.90300	24
3.90667	24
3.91033	24
3.91400	25
3.91767	25
3.92133	25
3.92500	25
3.92867	25
3.93233	25
3.93600	25
3.93967	25
3.94333	25
3.94700	25
3.95067	25
3.95433	25
3.95800	26
3.96167	26
3.96533	26
3.96900	25
3.97267	25
3.97633	25
3.98000	25
3.98367	25
3.98733	25
3.99100	25
3.99467	26
3.99833	26

[Chromatogram (Ch3)]
Interval(msec)	220
# of Points	1091
Start Time(min)	0.002
End Time(min)	3.998
R.Time (min)	Intensity
0.00167	2
0.00533	3
0.00900	3
0.01267	3
0.01633	3
0.02000	3
0.02367	4
0.02733	7
0.03100	9
0.03467	9
0.03833	7
0.04200	6
0.04567	3
0.04933	-0
0.05300	-0
0.05667	-0
0.06033	1
0.06400	2
0.06767	2
0.07133	2
0.07500	2
0.07867	3
0.08233	3
0.08600	3
0.08967	2
0.09333	3
0.09700	4
0.10067	5
0.10433	3
0.10800	3
0.11167	3
0.11533	4
0.11900	4
0.12267	4
0.12633	4
0.13000	4
0.13367	5
0.13733	7
0.14100	8
0.14467	8
0.14833	9
0.15200	11
0.15567	10
0.15933	8
0.16300	7
0.16667	6
0.17033	7
0.17400	8
0.17767	9
0.18133	10
0.18500	11
0.18867	11
0.19233	13
0.19600	13
0.19967	12
0.20333	12
0.20700	12
0.21067	11
0.21433	10
0.21800	12
0.22167	13
0.22533	14
0.22900	14
0.23267	14
0.23633	14
0.24000	14
0.24367	14
0.24733	15
0.25100	15
0.25467	15
0.25833	13
0.26200	10
0.26567	10
0.26933	13
0.27300	15
0.27667	16
0.28033	18
0.28400	19
0.28767	20
0.29133	19
0.29500	18
0.29867	18
0.30233	17
0.30600	18
0.30967	18
0.31333	17
0.31700	17
0.32067	16
0.32433	15
0.32800	15
0.33167	14
0.33533	14
0.33900	16
0.34267	18
0.34633	19
0.35000	18
0.35367	15
0.35733	14
0.36100	15
0.36467	18
0.36833	20
0.37200	23
0.37567	26
0.37933	25
0.38300	23
0.38667	21
0.39033	20
0.39400	19
0.39767	17
0.40133	16
0.40500	18
0.40867	20
0.41233	22
0.41600	23
0.41967	23
0.42333	20
0.42700	21
0.43067	22
0.43433	23
0.43800	22
0.44167	22
0.44533	23
0.44900	25
0.45267	27
0.45633	29
0.46000	29
0.46367	28
0.46733	27
0.47100	26
0.47467	26
0.47833	24
0.48200	25
0.48567	26
0.48933	27
0.49300	27
0.49667	26
0.50033	26
0.50400	25
0.50767	26
0.51133	29
0.51500	30
0.51867	30
0.52233	27
0.52600	26
0.52967	27
0.53333	28
0.53700	29
0.54067	31
0.54433	32
0.54800	30
0.55167	28
0.55533	27
0.55900	26
0.56267	24
0.56633	24
0.57000	25
0.57367	28
0.57733	31
0.58100	32
0.58467	33
0.58833	33
0.59200	33
0.59567	34
0.59933	36
0.60300	36
0.60667	37
0.61033	36
0.61400	34
0.61767	33
0.62133	35
0.62500	37
0.62867	38
0.63233	38
0.63600	37
0.63967	35
0.64333	36
0.64700	37
0.65067	38
0.65433	38
0.65800	37
0.66167	36
0.66533	36
0.66900	37
0.67267	38
0.67633	38
0.68000	38
0.68367	40
0.68733	42
0.69100	41
0.69467	40
0.69833	40
0.70200	39
0.70567	38
0.70933	36
0.71300	35
0.71667	34
0.72033	35
0.72400	36
0.72767	37
0.73133	37
0.73500	38
0.73867	37
0.74233	35
0.74600	35
0.74967	35
0.75333	35
0.75700	35
0.76067	37
0.76433	38
0.76800	39
0.77167	41
0.77533	41
0.77900	40
0.78267	41
0.78633	41
0.79000	41
0.79367	42
0.79733	42
0.80100	42
0.80467	44
0.80833	44
0.81200	44
0.81567	43
0.81933	41
0.82300	40
0.82667	38
0.83033	38
0.83400	38
0.83767	37
0.84133	37
0.84500	40
0.84867	44
0.85233	46
0.85600	44
0.85967	43
0.86333	43
0.86700	44
0.87067	44
0.87433	45
0.87800	45
0.88167	46
0.88533	50
0.88900	51
0.89267	53
0.89633	54
0.90000	54
0.90367	54
0.90733	53
0.91100	51
0.91467	50
0.91833	50
0.92200	48
0.92567	49
0.92933	50
0.93300	51
0.93667	54
0.94033	54
0.94400	54
0.94767	54
0.95133	55
0.95500	55
0.95867	55
0.96233	55
0.96600	55
0.96967	53
0.97333	52
0.97700	52
0.98067	53
0.98433	56
0.98800	60
0.99167	60
0.99533	58
0.99900	55
1.00267	52
1.00633	52
1.01000	53
1.01367	53
1.01733	54
1.02100	55
1.02467	55
1.02833	54
1.03200	54
1.03567	55
1.03933	57
1.04300	57
1.04667	57
1.05033	56
1.05400	55
1.05767	52
1.06133	51
1.06500	53
1.06867	55
1.07233	57
1.07600	58
1.07967	58
1.08333	58
1.08700	58
1.09067	56
1.09433	55
1.09800	56
1.10167	57
1.10533	59
1.10900	61
1.11267	61
1.11633	58
1.12000	55
1.12367	55
1.12733	55
1.13100	55
1.13467	56
1.13833	56
1.14200	55
1.14567	55
1.14933	56
1.15300	57
1.15667	59
1.16033	60
1.16400	62
1.16767	63
1.17133	62
1.17500	62
1.17867	62
1.18233	62
1.18600	60
1.18967	58
1.19333	59
1.19700	59
1.20067	62
1.20433	63
1.20800	63
1.21167	61
1.21533	59
1.21900	58
1.22267	58
1.22633	59
1.23000	59
1.23367	59
1.23733	60
1.24100	60
1.24467	61
1.24833	59
1.25200	58
1.25567	57
1.25933	59
1.26300	61
1.26667	60
1.27033	60
1.27400	59
1.27767	58
1.28133	59
1.28500	57
1.28867	55
1.29233	54
1.29600	54
1.29967	55
1.30333	57
1.30700	59
1.31067	60
1.31433	62
1.31800	63
1.32167	63
1.32533	62
1.32900	62
1.33267	61
1.33633	61
1.34000	61
1.34367	62
1.34733	62
1.35100	61
1.35467	61
1.35833	61
1.36200	61
1.36567	61
1.36933	61
1.37300	63
1.37667	65
1.38033	66
1.38400	66
1.38767	65
1.39133	66
1.39500	66
1.39867	67
1.40233	66
1.40600	64
1.40967	63
1.41333	64
1.41700	65
1.42067	63
1.42433	62
1.42800	63
1.43167	66
1.43533	67
1.43900	65
1.44267	64
1.44633	63
1.45000	64
1.45367	64
1.45733	63
1.46100	64
1.46467	65
1.46833	67
1.47200	68
1.47567	68
1.47933	67
1.48300	66
1.48667	63
1.49033	59
1.49400	58
1.49767	58
1.50133	61
1.50500	64
1.50867	65
1.51233	65
1.51600	63
1.51967	62
1.52333	64
1.52700	64
1.53067	63
1.53433	63
1.53800	64
1.54167	64
1.54533	65
1.54900	65
1.55267	65
1.55633	66
1.56000	67
1.56367	67
1.56733	67
1.57100	65
1.57467	63
1.57833	62
1.58200	65
1.58567	69
1.58933	70
1.59300	70
1.59667	69
1.60033	68
1.60400	67
1.60767	67
1.61133	68
1.61500	69
1.61867	70
1.62233	72
1.62600	73
1.62967	74
1.63333	74
1.63700	74
1.64067	73
1.64433	72
1.64800	74
1.65167	75
1.65533	75
1.65900	75
1.66267	75
1.66633	78
1.67000	81
1.67367	81
1.67733	80
1.68100	79
1.68467	80
1.68833	82
1.69200	83
1.69567	83
1.69933	82
1.70300	81
1.70667	82
1.71033	83
1.71400	85
1.71767	89
1.72133	91
1.72500	93
1.72867	93
1.73233	92
1.73600	90
1.73967	91
1.74333	93
1.74700	93
1.75067	94
1.75433	94
1.75800	93
1.76167	94
1.76533	94
1.76900	94
1.77267	95
1.77633	97
1.78000	100
1.78367	102
1.78733	103
1.79100	103
1.79467	104
1.79833	104
1.80200	105
1.80567	107
1.80933	108
1.81300	108
1.81667	107
1.82033	108
1.82400	108
1.82767	109
1.83133	111
1.83500	109
1.83867	109
1.84233	109
1.84600	108
1.84967	107
1.85333	105
1.85700	104
1.86067	105
1.86433	109
1.86800	110
1.87167	110
1.87533	109
1.87900	107
1.88267	106
1.88633	105
1.89000	103
1.89367	105
1.89733	107
1.90100	108
1.90467	109
1.90833	108
1.91200	109
1.91567	113
1.91933	117
1.92300	117
1.92667	114
1.93033	114
1.93400	115
1.93767	115
1.94133	116
1.94500	117
1.94867	119
1.95233	119
1.95600	117
1.95967	117
1.96333	118
1.96700	118
1.97067	120
1.97433	120
1.97800	120
1.98167	122
1.98533	124
1.98900	125
1.99267	124
1.99633	124
2.00000	124
2.00367	126
2.00733	129
2.01100	133
2.01467	135
2.01833	135
2.02200	134
2.02567	134
2.02933	134
2.03300	135
2.03667	135
2.04033	132
2.04400	132
2.04767	134
2.05133	138
2.05500	140
2.05867	142
2.06233	144
2.06600	145
2.06967	147
2.07333	150
2.07700	152
2.08067	152
2.08433	151
2.08800	152
2.09167	154
2.09533	152
2.09900	151
2.10267	153
2.10633	152
2.11000	154
2.11367	157
2.11733	160
2.12100	161
2.12467	162
2.12833	161
2.13200	163
2.13567	165
2.13933	168
2.14300	170
2.14667	169
2.15033	168
2.15400	169
2.15767	170
2.16133	171
2.16500	170
2.16867	171
2.17233	170
2.17600	172
2.17967	173
2.18333	174
2.18700	175
2.19067	176
2.19433	177
2.19800	177
2.20167	179
2.20533	181
2.20900	181
2.21267	181
2.21633	181
2.22000	182
2.22367	183
2.22733	182
2.23100	183
2.23467	183
2.23833	185
2.24200	187
2.24567	190
2.24933	190
2.25300	189
2.25667	189
2.26033	190
2.26400	190
2.26767	190
2.27133	190
2.27500	186
2.27867	185
2.28233	185
2.28600	187
2.28967	189
2.29333	191
2.29700	194
2.30067	196
2.30433	197
2.30800	198
2.31167	197
2.31533	195
2.31900	195
2.32267	196
2.32633	197
2.33000	195
2.33367	194
2.33733	195
2.34100	196
2.34467	198
2.34833	198
2.35200	200
2.35567	201
2.35933	202
2.36300	203
2.36667	202
2.37033	204
2.37400	205
2.37767	205
2.38133	205
2.38500	206
2.38867	206
2.39233	205
2.39600	205
2.39967	207
2.40333	208
2.40700	207
2.41067	207
2.41433	208
2.41800	208
2.42167	211
2.42533	215
2.42900	217
2.43267	217
2.43633	217
2.44000	218
2.44367	229
2.44733	257
2.45100	288
2.45467	313
2.45833	325
2.46200	325
2.46567	321
2.46933	319
2.47300	316
2.47667	313
2.48033	307
2.48400	299
2.48767	291
2.49133	282
2.49500	274
2.49867	269
2.50233	266
2.50600	266
2.50967	263
2.51333	262
2.51700	263
2.52067	265
2.52433	267
2.52800	269
2.53167	266
2.53533	259
2.53900	251
2.54267	243
2.54633	237
2.55000	230
2.55367	225
2.55733	220
2.56100	216
2.56467	215
2.56833	214
2.57200	213
2.57567	212
2.57933	211
2.58300	211
2.58667	211
2.59033	210
2.59400	205
2.59767	197
2.60133	184
2.60500	161
2.60867	130
2.61233	95
2.61600	57
2.61967	17
2.62333	-20
2.62700	-54
2.63067	-82
2.63433	-106
2.63800	-125
2.64167	-139
2.64533	-146
2.64900	-152
2.65267	-154
2.65633	-151
2.66000	-149
2.66367	-145
2.66733	-140
2.67100	-134
2.67467	-128
2.67833	-119
2.68200	-111
2.68567	-103
2.68933	-96
2.69300	-87
2.69667	-78
2.70033	-70
2.70400	-60
2.70767	-51
2.71133	-42
2.71500	-34
2.71867	-28
2.72233	-21
2.72600	-15
2.72967	-8
2.73333	-2
2.73700	2
2.74067	6
2.74433	10
2.74800	16
2.75167	22
2.75533	28
2.75900	34
2.76267	39
2.76633	41
2.77000	43
2.77367	42
2.77733	44
2.78100	47
2.78467	51
2.78833	54
2.79200	57
2.79567	61
2.79933	63
2.80300	66
2.80667	69
2.81033	72
2.81400	74
2.81767	78
2.82133	89
2.82500	112
2.82867	158
2.83233	246
2.83600	401
2.83967	647
2.84333	1006
2.84700	1482
2.85067	2067
2.85433	2732
2.85800	3430
2.86167	4105
2.86533	4699
2.86900	5173
2.87267	5505
2.87633	5682
2.88000	5702
2.88367	5581
2.88733	5351
2.89100	5045
2.89467	4696
2.89833	4330
2.90200	3966
2.90567	3614
2.90933	3283
2.91300	2976
2.91667	2697
2.92033	2445
2.92400	2221
2.92767	2024
2.93133	1851
2.93500	1697
2.93867	1562
2.94233	1444
2.94600	1343
2.94967	1256
2.95333	1179
2.95700	1110
2.96067	1053
2.96433	1006
2.96800	965
2.97167	928
2.97533	896
2.97900	868
2.98267	844
2.98633	824
2.99000	809
2.99367	796
2.99733	787
3.00100	781
3.00467	772
3.00833	765
3.01200	760
3.01567	752
3.01933	746
3.02300	741
3.02667	735
3.03033	733
3.03400	731
3.03767	727
3.04133	725
3.04500	724
3.04867	723
3.05233	721
3.05600	717
3.05967	716
3.06333	719
3.06700	723
3.07067	725
3.07433	725
3.07800	726
3.08167	726
3.08533	726
3.08900	726
3.09267	726
3.09633	726
3.10000	725
3.10367	723
3.10733	723
3.11100	722
3.11467	722
3.11833	721
3.12200	718
3.12567	719
3.12933	720
3.13300	720
3.13667	718
3.14033	719
3.14400	722
3.14767	723
3.15133	724
3.15500	725
3.15867	724
3.16233	726
3.16600	730
3.16967	730
3.17333	729
3.17700	729
3.18067	729
3.18433	729
3.18800	729
3.19167	729
3.19533	729
3.19900	729
3.20267	731
3.20633	734
3.21000	733
3.21367	732
3.21733	731
3.22100	729
3.22467	729
3.22833	730
3.23200	732
3.23567	734
3.23933	736
3.24300	737
3.24667	737
3.25033	735
3.25400	733
3.25767	731
3.26133	728
3.26500	727
3.26867	727
3.27233	726
3.27600	726
3.27967	724
3.28333	722
3.28700	718
3.29067	714
3.29433	711
3.29800	710
3.30167	711
3.30533	711
3.30900	709
3.31267	706
3.31633	699
3.32000	692
3.32367	689
3.32733	688
3.33100	686
3.33467	683
3.33833	680
3.34200	678
3.34567	676
3.34933	672
3.35300	667
3.35667	664
3.36033	661
3.36400	657
3.36767	653
3.37133	651
3.37500	651
3.37867	647
3.38233	644
3.38600	642
3.38967	640
3.39333	639
3.39700	637
3.40067	631
3.40433	626
3.40800	625
3.41167	624
3.41533	621
3.41900	615
3.42267	611
3.42633	610
3.43000	610
3.43367	609
3.43733	608
3.44100	609
3.44467	606
3.44833	600
3.45200	598
3.45567	594
3.45933	593
3.46300	590
3.46667	587
3.47033	584
3.47400	580
3.47767	575
3.48133	571
3.48500	566
3.48867	562
3.49233	558
3.49600	555
3.49967	554
3.50333	553
3.50700	552
3.51067	550
3.51433	546
3.51800	542
3.52167	539
3.52533	534
3.52900	529
3.53267	527
3.53633	527
3.54000	527
3.54367	523
3.54733	518
3.55100	515
3.55467	510
3.55833	506
3.56200	503
3.56567	500
3.56933	498
3.57300	497
3.57667	495
3.58033	492
3.58400	490
3.58767	487
3.59133	484
3.59500	479
3.59867	474
3.60233	471
3.60600	469
3.60967	465
3.61333	462
3.61700	459
3.62067	455
3.62433	452
3.62800	449
3.63167	447
3.63533	444
3.63900	440
3.64267	435
3.64633	430
3.65000	426
3.65367	424
3.65733	422
3.66100	418
3.66467	414
3.66833	411
3.67200	408
3.67567	405
3.67933	401
3.68300	398
3.68667	394
3.69033	391
3.69400	387
3.69767	382
3.70133	378
3.70500	374
3.70867	372
3.71233	371
3.71600	369
3.71967	367
3.72333	364
3.72700	360
3.73067	358
3.73433	353
3.73800	350
3.74167	349
3.74533	346
3.74900	343
3.75267	339
3.75633	333
3.76000	328
3.76367	324
3.76733	324
3.77100	323
3.77467	320
3.77833	316
3.78200	312
3.78567	308
3.78933	306
3.79300	305
3.79667	302
3.80033	296
3.80400	290
3.80767	288
3.81133	285
3.81500	284
3.81867	283
3.82233	281
3.82600	279
3.82967	279
3.83333	279
3.83700	279
3.84067	275
3.84433	270
3.84800	266
3.85167	264
3.85533	261
3.85900	257
3.86267	254
3.86633	252
3.87000	249
3.87367	246
3.87733	244
3.88100	243
3.88467	239
3.88833	237
3.89200	235
3.89567	234
3.89933	234
3.90300	232
3.90667	228
3.91033	224
3.91400	222
3.91767	223
3.92133	224
3.92500	221
3.92867	219
3.93233	219
3.93600	219
3.93967	218
3.94333	216
3.94700	212
3.95067	210
3.95433	210
3.95800	209
3.96167	207
3.96533	204
3.96900	201
3.97267	199
3.97633	198
3.98000	196
3.98367	193
3.98733	190
3.99100	189
3.99467	190
3.99833	189

[Status Trace (Column Oven Temperature)]
Interval(msec)	1000
# of Points	240
Start Time(min)	0.003
End Time(min)	3.986
Intensity Units	
Intensity Multiplier	1
R.Time (min)	Intensity
0.00268	35.00
0.01935	35.00
0.03602	35.00
0.05268	34.99
0.06935	35.00
0.08602	34.99
0.10268	34.99
0.11935	35.00
0.13602	35.00
0.15268	34.99
0.16935	35.00
0.18602	34.99
0.20268	34.98
0.21935	34.98
0.23602	34.98
0.25268	34.98
0.26935	34.99
0.28602	35.00
0.30268	35.00
0.31935	35.01
0.33602	35.01
0.35268	35.00
0.36935	34.99
0.38602	34.98
0.40268	34.98
0.41935	34.99
0.43602	34.99
0.45268	35.00
0.46935	35.01
0.48602	35.01
0.50268	35.00
0.51935	34.99
0.53602	34.99
0.55268	34.99
0.56935	34.99
0.58602	35.00
0.60268	35.00
0.61935	35.00
0.63602	34.99
0.65268	35.00
0.66935	34.99
0.68602	34.99
0.70268	34.99
0.71935	34.98
0.73602	34.98
0.75268	34.98
0.76935	34.99
0.78602	34.99
0.80268	34.98
0.81935	34.98
0.83602	34.98
0.85268	34.98
0.86935	34.98
0.88602	34.99
0.90268	34.99
0.91935	34.99
0.93602	34.98
0.95268	34.97
0.96935	34.97
0.98602	34.97
1.00268	34.98
1.01935	34.98
1.03602	34.98
1.05268	34.99
1.06935	34.99
1.08602	34.99
1.10268	34.98
1.11935	34.98
1.13602	34.97
1.15268	34.98
1.16935	34.97
1.18602	34.98
1.20268	34.98
1.21935	34.99
1.23602	34.99
1.25268	35.00
1.26935	35.00
1.28602	35.00
1.30268	35.00
1.31935	35.00
1.33602	35.00
1.35268	35.00
1.36935	34.99
1.38602	34.99
1.40268	34.98
1.41935	34.99
1.43602	34.99
1.45268	34.99
1.46935	35.00
1.48602	34.99
1.50268	34.99
1.51935	34.98
1.53602	34.98
1.55268	34.98
1.56935	34.98
1.58602	34.99
1.60268	35.03
1.61935	35.14
1.63602	35.31
1.65268	35.55
1.66935	35.85
1.68602	36.21
1.70268	36.57
1.71935	36.92
1.73602	37.25
1.75268	37.54
1.76935	37.87
1.78602	38.22
1.80268	38.55
1.81935	38.89
1.83602	39.19
1.85268	39.54
1.86935	39.88
1.88602	40.19
1.90268	40.52
1.91935	40.87
1.93602	41.19
1.95268	41.53
1.96935	41.85
1.98602	42.17
2.00268	42.50
2.01935	42.83
2.03602	43.15
2.05268	43.47
2.06935	43.80
2.08602	44.13
2.10268	44.47
2.11935	44.78
2.13602	45.12
2.15268	45.44
2.16935	45.75
2.18602	46.08
2.20268	46.41
2.21935	46.74
2.23602	47.06
2.25268	47.39
2.26935	47.73
2.28602	48.07
2.30268	48.37
2.31935	48.70
2.33602	49.05
2.35268	49.33
2.36935	49.58
2.38602	49.68
2.40268	49.69
2.41935	49.68
2.43602	49.68
2.45268	49.68
2.46935	49.70
2.48602	49.72
2.50268	49.73
2.51935	49.73
2.53602	49.77
2.55268	49.77
2.56935	49.79
2.58602	49.80
2.60268	49.82
2.61935	49.81
2.63602	49.83
2.65268	49.84
2.66935	49.86
2.68602	49.86
2.70268	49.85
2.71935	49.85
2.73602	49.87
2.75268	49.88
2.76935	49.88
2.78602	49.88
2.80268	49.88
2.81935	49.88
2.83602	49.89
2.85268	49.90
2.86935	49.92
2.88602	49.95
2.90268	49.96
2.91935	49.98
2.93602	49.99
2.95268	49.99
2.96935	49.99
2.98602	50.00
3.00268	50.00
3.01935	50.01
3.03602	50.02
3.05268	50.02
3.06935	50.04
3.08602	50.05
3.10268	50.06
3.11935	50.07
3.13602	50.08
3.15268	50.08
3.16935	50.08
3.18602	50.08
3.20268	50.07
3.21935	50.07
3.23602	50.08
3.25268	50.09
3.26935	50.09
3.28602	50.09
3.30268	50.09
3.31935	50.10
3.33602	50.10
3.35268	50.09
3.36935	50.09
3.38602	50.09
3.40268	50.08
3.41935	50.08
3.43602	50.08
3.45268	50.08
3.46935	50.08
3.48602	50.08
3.50268	50.07
3.51935	50.07
3.53602	50.06
3.55268	50.07
3.56935	50.06
3.58602	50.06
3.60268	50.07
3.61935	50.07
3.63602	50.07
3.65268	50.07
3.66935	50.07
3.68602	50.07
3.70268	50.07
3.71935	50.07
3.73602	50.07
3.75268	50.06
3.76935	50.07
3.78602	50.07
3.80268	50.07
3.81935	50.07
3.83602	50.06
3.85268	50.06
3.86935	50.06
3.88602	50.07
3.90268	50.07
3.91935	50.07
3.93602	50.08
3.95268	50.07
3.96935	50.08
3.98602	50.07

[Status Trace (Injection Unit Temperature)]
Interval(msec)	1000
# of Points	240
Start Time(min)	0.003
End Time(min)	3.986
Intensity Units	
Intensity Multiplier	1
R.Time (min)	Intensity
0.00268	99.99
0.01935	99.98
0.03602	99.98
0.05268	99.98
0.06935	99.98
0.08602	99.98
0.10268	99.99
0.11935	99.99
0.13602	99.99
0.15268	99.99
0.16935	99.98
0.18602	99.98
0.20268	99.98
0.21935	99.99
0.23602	99.98
0.25268	99.98
0.26935	99.98
0.28602	99.99
0.30268	99.98
0.31935	99.99
0.33602	99.98
0.35268	99.98
0.36935	99.98
0.38602	99.98
0.40268	99.98
0.41935	99.98
0.43602	99.98
0.45268	99.98
0.46935	99.98
0.48602	99.98
0.50268	99.98
0.51935	99.98
0.53602	99.98
0.55268	99.98
0.56935	99.97
0.58602	99.98
0.60268	99.98
0.61935	99.98
0.63602	99.98
0.65268	99.98
0.66935	99.98
0.68602	99.98
0.70268	99.98
0.71935	99.98
0.73602	99.98
0.75268	99.98
0.76935	99.98
0.78602	99.98
0.80268	99.98
0.81935	99.98
0.83602	99.98
0.85268	99.98
0.86935	99.98
0.88602	99.99
0.90268	99.98
0.91935	99.98
0.93602	99.99
0.95268	99.98
0.96935	99.98
0.98602	99.98
1.00268	99.98
1.01935	99.98
1.03602	99.98
1.05268	99.98
1.06935	99.98
1.08602	99.98
1.10268	99.98
1.11935	99.98
1.13602	99.98
1.15268	99.98
1.16935	99.98
1.18602	99.98
1.20268	99.98
1.21935	99.99
1.23602	99.98
1.25268	99.98
1.26935	99.98
1.28602	99.98
1.30268	99.98
1.31935	99.99
1.33602	99.98
1.35268	99.99
1.36935	99.98
1.38602	99.99
1.40268	99.98
1.41935	99.98
1.43602	99.98
1.45268	99.98
1.46935	99.99
1.48602	99.98
1.50268	99.99
1.51935	99.98
1.53602	99.99
1.55268	99.98
1.56935	99.99
1.58602	99.98
1.60268	99.98
1.61935	99.98
1.63602	99.98
1.65268	99.99
1.66935	99.99
1.68602	99.99
1.70268	99.98
1.71935	99.98
1.73602	99.99
1.75268	99.98
1.76935	99.99
1.78602	99.99
1.80268	99.99
1.81935	99.98
1.83602	99.99
1.85268	99.98
1.86935	99.98
1.88602	99.98
1.90268	99.98
1.91935	99.98
1.93602	99.98
1.95268	99.98
1.96935	99.98
1.98602	99.98
2.00268	99.98
2.01935	99.98
2.03602	99.98
2.05268	99.98
2.06935	99.97
2.08602	99.98
2.10268	99.97
2.11935	99.97
2.13602	99.97
2.15268	99.97
2.16935	99.97
2.18602	99.97
2.20268	99.97
2.21935	99.97
2.23602	99.97
2.25268	99.97
2.26935	99.97
2.28602	99.97
2.30268	99.97
2.31935	99.97
2.33602	99.97
2.35268	99.97
2.36935	99.97
2.38602	99.97
2.40268	99.97
2.41935	99.97
2.43602	99.97
2.45268	99.97
2.46935	99.97
2.48602	99.97
2.50268	99.97
2.51935	99.97
2.53602	99.97
2.55268	99.97
2.56935	99.97
2.58602	99.98
2.60268	99.98
2.61935	99.98
2.63602	99.98
2.65268	99.98
2.66935	99.98
2.68602	99.98
2.70268	99.99
2.71935	99.99
2.73602	99.99
2.75268	99.99
2.76935	99.99
2.78602	99.99
2.80268	99.99
2.81935	99.99
2.83602	99.99
2.85268	100.00
2.86935	100.00
2.88602	100.00
2.90268	100.00
2.91935	100.01
2.93602	100.01
2.95268	100.01
2.96935	100.01
2.98602	100.01
3.00268	100.01
3.01935	100.01
3.03602	100.02
3.05268	100.01
3.06935	100.02
3.08602	100.02
3.10268	100.02
3.11935	100.02
3.13602	100.02
3.15268	100.02
3.16935	100.02
3.18602	100.02
3.20268	100.02
3.21935	100.03
3.23602	100.03
3.25268	100.03
3.26935	100.03
3.28602	100.02
3.30268	100.04
3.31935	100.03
3.33602	100.03
3.35268	100.03
3.36935	100.03
3.38602	100.03
3.40268	100.04
3.41935	100.03
3.43602	100.04
3.45268	100.03
3.46935	100.04
3.48602	100.04
3.50268	100.04
3.51935	100.04
3.53602	100.04
3.55268	100.04
3.56935	100.04
3.58602	100.04
3.60268	100.04
3.61935	100.05
3.63602	100.04
3.65268	100.04
3.66935	100.04
3.68602	100.05
3.70268	100.05
3.71935	100.05
3.73602	100.04
3.75268	100.05
3.76935	100.05
3.78602	100.05
3.80268	100.05
3.81935	100.05
3.83602	100.05
3.85268	100.05
3.86935	100.05
3.88602	100.05
3.90268	100.05
3.91935	100.05
3.93602	100.05
3.95268	100.05
3.96935	100.05
3.98602	100.05

[Status Trace (Carrier Gas Pressure)]
Interval(msec)	1000
# of Points	240
Start Time(min)	0.003
End Time(min)	3.986
Intensity Units	
Intensity Multiplier	1
R.Time (min)	Intensity
0.00268	58.00
0.01935	56.31
0.03602	56.29
0.05268	58.54
0.06935	59.92
0.08602	58.36
0.10268	57.96
0.11935	58.00
0.13602	58.01
0.15268	58.01
0.16935	58.00
0.18602	58.00
0.20268	58.00
0.21935	58.00
0.23602	58.00
0.25268	58.00
0.26935	58.00
0.28602	58.00
0.30268	58.00
0.31935	58.00
0.33602	58.00
0.35268	58.00
0.36935	58.00
0.38602	58.00
0.40268	58.00
0.41935	58.00
0.43602	58.00
0.45268	58.00
0.46935	58.00
0.48602	58.00
0.50268	58.00
0.51935	58.00
0.53602	58.00
0.55268	58.00
0.56935	58.00
0.58602	58.00
0.60268	58.00
0.61935	58.00
0.63602	58.00
0.65268	58.00
0.66935	58.00
0.68602	58.00
0.70268	58.00
0.71935	58.00
0.73602	58.00
0.75268	58.00
0.76935	58.00
0.78602	58.00
0.80268	58.00
0.81935	58.00
0.83602	58.00
0.85268	58.00
0.86935	58.00
0.88602	58.00
0.90268	58.00
0.91935	58.00
0.93602	58.00
0.95268	58.00
0.96935	58.00
0.98602	58.00
1.00268	58.00
1.01935	58.00
1.03602	58.00
1.05268	58.00
1.06935	58.00
1.08602	58.00
1.10268	58.00
1.11935	58.00
1.13602	58.00
1.15268	58.00
1.16935	58.00
1.18602	58.00
1.20268	58.00
1.21935	58.00
1.23602	58.00
1.25268	58.00
1.26935	58.00
1.28602	58.00
1.30268	58.00
1.31935	58.00
1.33602	58.00
1.35268	58.00
1.36935	58.00
1.38602	58.00
1.40268	58.00
1.41935	58.00
1.43602	58.00
1.45268	58.00
1.46935	58.00
1.48602	58.00
1.50268	58.00
1.51935	58.00
1.53602	58.00
1.55268	58.00
1.56935	58.00
1.58602	58.00
1.60268	58.00
1.61935	58.00
1.63602	58.01
1.65268	58.00
1.66935	58.00
1.68602	58.01
1.70268	58.00
1.71935	58.00
1.73602	58.00
1.75268	58.00
1.76935	58.00
1.78602	58.00
1.80268	58.00
1.81935	58.00
1.83602	58.00
1.85268	58.00
1.86935	58.00
1.88602	58.00
1.90268	58.00
1.91935	58.00
1.93602	58.00
1.95268	58.00
1.96935	58.00
1.98602	58.00
2.00268	58.00
2.01935	58.00
2.03602	58.00
2.05268	58.00
2.06935	58.00
2.08602	58.00
2.10268	58.00
2.11935	58.00
2.13602	58.00
2.15268	58.00
2.16935	58.00
2.18602	58.00
2.20268	58.00
2.21935	58.00
2.23602	58.00
2.25268	58.00
2.26935	58.00
2.28602	58.00
2.30268	58.00
2.31935	58.00
2.33602	58.00
2.35268	58.00
2.36935	58.00
2.38602	57.99
2.40268	57.99
2.41935	58.00
2.43602	58.00
2.45268	58.00
2.46935	58.00
2.48602	58.00
2.50268	57.96
2.51935	58.03
2.53602	57.99
2.55268	58.00
2.56935	58.00
2.58602	58.00
2.60268	58.00
2.61935	58.00
2.63602	58.00
2.65268	58.00
2.66935	58.00
2.68602	58.00
2.70268	58.00
2.71935	58.00
2.73602	58.00
2.75268	58.00
2.76935	58.00
2.78602	58.00
2.80268	58.00
2.81935	58.00
2.83602	58.00
2.85268	58.00
2.86935	58.00
2.88602	58.00
2.90268	58.00
2.91935	58.00
2.93602	58.00
2.95268	58.00
2.96935	58.00
2.98602	58.00
3.00268	58.00
3.01935	58.00
3.03602	58.00
3.05268	58.00
3.06935	58.00
3.08602	58.00
3.10268	58.00
3.11935	58.00
3.13602	58.00
3.15268	58.00
3.16935	58.00
3.18602	58.00
3.20268	58.00
3.21935	58.00
3.23602	58.00
3.25268	58.00
3.26935	58.00
3.28602	58.00
3.30268	58.00
3.31935	58.00
3.33602	58.00
3.35268	58.00
3.36935	58.00
3.38602	58.00
3.40268	58.00
3.41935	58.00
3.43602	58.00
3.45268	58.00
3.46935	58.00
3.48602	58.00
3.50268	58.00
3.51935	58.00
3.53602	58.00
3.55268	58.00
3.56935	58.00
3.58602	58.00
3.60268	58.00
3.61935	58.00
3.63602	58.00
3.65268	58.00
3.66935	58.00
3.68602	58.00
3.70268	58.00
3.71935	58.00
3.73602	58.00
3.75268	58.00
3.76935	58.00
3.78602	58.00
3.80268	58.00
3.81935	58.00
3.83602	58.00
3.85268	58.00
3.86935	58.00
3.88602	58.00
3.90268	58.00
3.91935	58.00
3.93602	58.00
3.95268	58.00
3.96935	58.00
3.98602	58.00

[Status Trace (Carrier Gas Flow)]
Interval(msec)	1000
# of Points	240
Start Time(min)	0.003
End Time(min)	3.986
Intensity Units	
Intensity Multiplier	1
R.Time (min)	Intensity
0.00268	34.52
0.01935	34.52
0.03602	34.54
0.05268	34.55
0.06935	34.51
0.08602	34.51
0.10268	34.52
0.11935	34.52
0.13602	34.52
0.15268	34.52
0.16935	34.52
0.18602	34.52
0.20268	34.52
0.21935	34.52
0.23602	34.52
0.25268	34.52
0.26935	34.52
0.28602	34.52
0.30268	34.52
0.31935	34.52
0.33602	34.52
0.35268	34.52
0.36935	34.52
0.38602	34.52
0.40268	34.52
0.41935	34.52
0.43602	34.52
0.45268	34.52
0.46935	34.52
0.48602	34.52
0.50268	34.52
0.51935	34.52
0.53602	34.52
0.55268	34.52
0.56935	34.52
0.58602	34.52
0.60268	34.52
0.61935	34.52
0.63602	34.52
0.65268	34.52
0.66935	34.52
0.68602	34.51
0.70268	34.52
0.71935	34.52
0.73602	34.52
0.75268	34.52
0.76935	34.52
0.78602	34.52
0.80268	34.52
0.81935	34.52
0.83602	34.52
0.85268	34.51
0.86935	34.51
0.88602	34.52
0.90268	34.52
0.91935	34.52
0.93602	34.52
0.95268	34.52
0.96935	34.52
0.98602	34.52
1.00268	34.52
1.01935	34.52
1.03602	34.52
1.05268	34.52
1.06935	34.52
1.08602	34.52
1.10268	34.52
1.11935	34.52
1.13602	34.52
1.15268	34.52
1.16935	34.51
1.18602	34.52
1.20268	34.52
1.21935	34.52
1.23602	34.52
1.25268	34.52
1.26935	34.52
1.28602	34.52
1.30268	34.52
1.31935	34.52
1.33602	34.52
1.35268	34.52
1.36935	34.52
1.38602	34.52
1.40268	34.52
1.41935	34.52
1.43602	34.52
1.45268	34.52
1.46935	34.52
1.48602	34.52
1.50268	34.52
1.51935	34.52
1.53602	34.52
1.55268	34.52
1.56935	34.52
1.58602	34.52
1.60268	34.52
1.61935	34.52
1.63602	34.52
1.65268	34.52
1.66935	34.52
1.68602	34.52
1.70268	34.52
1.71935	34.52
1.73602	34.52
1.75268	34.52
1.76935	34.52
1.78602	34.52
1.80268	34.52
1.81935	34.52
1.83602	34.52
1.85268	34.52
1.86935	34.52
1.88602	34.52
1.90268	34.52
1.91935	34.52
1.93602	34.52
1.95268	34.52
1.96935	34.52
1.98602	34.52
2.00268	34.52
2.01935	34.52
2.03602	34.52
2.05268	34.52
2.06935	34.52
2.08602	34.52
2.10268	34.52
2.11935	34.52
2.13602	34.52
2.15268	34.52
2.16935	34.52
2.18602	34.52
2.20268	34.52
2.21935	34.52
2.23602	34.52
2.25268	34.52
2.26935	34.52
2.28602	34.52
2.30268	34.52
2.31935	34.52
2.33602	34.52
2.35268	34.52
2.36935	34.52
2.38602	34.52
2.40268	34.52
2.41935	34.52
2.43602	34.52
2.45268	34.52
2.46935	34.52
2.48602	34.52
2.50268	34.63
2.51935	34.52
2.53602	34.51
2.55268	34.52
2.56935	34.52
2.58602	34.52
2.60268	34.52
2.61935	34.52
2.63602	34.52
2.65268	34.52
2.66935	34.52
2.68602	34.52
2.70268	34.52
2.71935	34.52
2.73602	34.52
2.75268	34.52
2.76935	34.52
2.78602	34.52
2.80268	34.52
2.81935	34.52
2.83602	34.52
2.85268	34.52
2.86935	34.52
2.88602	34.52
2.90268	34.52
2.91935	34.52
2.93602	34.52
2.95268	34.52
2.96935	34.52
2.98602	34.52
3.00268	34.52
3.01935	34.52
3.03602	34.52
3.05268	34.52
3.06935	34.52
3.08602	34.52
3.10268	34.52
3.11935	34.52
3.13602	34.52
3.15268	34.52
3.16935	34.52
3.18602	34.52
3.20268	34.52
3.21935	34.52
3.23602	34.52
3.25268	34.52
3.26935	34.52
3.28602	34.52
3.30268	34.52
3.31935	34.52
3.33602	34.52
3.35268	34.52
3.36935	34.52
3.38602	34.52
3.40268	34.52
3.41935	34.52
3.43602	34.52
3.45268	34.52
3.46935	34.52
3.48602	34.52
3.50268	34.52
3.51935	34.52
3.53602	34.52
3.55268	34.52
3.56935	34.52
3.58602	34.52
3.60268	34.52
3.61935	34.52
3.63602	34.52
3.65268	34.52
3.66935	34.52
3.68602	34.52
3.70268	34.52
3.71935	34.52
3.73602	34.52
3.75268	34.52
3.76935	34.52
3.78602	34.52
3.80268	34.52
3.81935	34.52
3.83602	34.52
3.85268	34.52
3.86935	34.52
3.88602	34.52
3.90268	34.52
3.91935	34.52
3.93602	34.52
3.95268	34.52
3.96935	34.52
3.98602	34.52

[Status Trace (Column Flow)]
Interval(msec)	1000
# of Points	240
Start Time(min)	0.003
End Time(min)	3.986
Intensity Units	
Intensity Multiplier	1
R.Time (min)	Intensity
0.00268	5.49
0.01935	5.30
0.03602	5.30
0.05268	5.56
0.06935	5.72
0.08602	5.53
0.10268	5.49
0.11935	5.49
0.13602	5.49
0.15268	5.49
0.16935	5.49
0.18602	5.49
0.20268	5.49
0.21935	5.49
0.23602	5.49
0.25268	5.49
0.26935	5.49
0.28602	5.49
0.30268	5.49
0.31935	5.49
0.33602	5.49
0.35268	5.49
0.36935	5.49
0.38602	5.49
0.40268	5.49
0.41935	5.49
0.43602	5.49
0.45268	5.49
0.46935	5.49
0.48602	5.49
0.50268	5.49
0.51935	5.49
0.53602	5.49
0.55268	5.49
0.56935	5.49
0.58602	5.49
0.60268	5.49
0.61935	5.49
0.63602	5.49
0.65268	5.49
0.66935	5.49
0.68602	5.49
0.70268	5.49
0.71935	5.49
0.73602	5.49
0.75268	5.49
0.76935	5.49
0.78602	5.49
0.80268	5.49
0.81935	5.49
0.83602	5.49
0.85268	5.49
0.86935	5.49
0.88602	5.49
0.90268	5.49
0.91935	5.49
0.93602	5.49
0.95268	5.49
0.96935	5.49
0.98602	5.49
1.00268	5.49
1.01935	5.49
1.03602	5.49
1.05268	5.49
1.06935	5.49
1.08602	5.49
1.10268	5.49
1.11935	5.49
1.13602	5.49
1.15268	5.49
1.16935	5.49
1.18602	5.49
1.20268	5.49
1.21935	5.49
1.23602	5.49
1.25268	5.49
1.26935	5.49
1.28602	5.49
1.30268	5.49
1.31935	5.49
1.33602	5.49
1.35268	5.49
1.36935	5.49
1.38602	5.49
1.40268	5.49
1.41935	5.49
1.43602	5.49
1.45268	5.49
1.46935	5.49
1.48602	5.49
1.50268	5.49
1.51935	5.49
1.53602	5.49
1.55268	5.49
1.56935	5.49
1.58602	5.49
1.60268	5.49
1.61935	5.49
1.63602	5.48
1.65268	5.48
1.66935	5.47
1.68602	5.46
1.70268	5.44
1.71935	5.43
1.73602	5.42
1.75268	5.41
1.76935	5.40
1.78602	5.39
1.80268	5.38
1.81935	5.37
1.83602	5.36
1.85268	5.35
1.86935	5.34
1.88602	5.33
1.90268	5.32
1.91935	5.31
1.93602	5.30
1.95268	5.29
1.96935	5.28
1.98602	5.27
2.00268	5.27
2.01935	5.26
2.03602	5.25
2.05268	5.24
2.06935	5.23
2.08602	5.22
2.10268	5.21
2.11935	5.20
2.13602	5.19
2.15268	5.18
2.16935	5.17
2.18602	5.16
2.20268	5.15
2.21935	5.14
2.23602	5.13
2.25268	5.12
2.26935	5.12
2.28602	5.11
2.30268	5.10
2.31935	5.09
2.33602	5.08
2.35268	5.07
2.36935	5.06
2.38602	5.06
2.40268	5.06
2.41935	5.06
2.43602	5.06
2.45268	5.06
2.46935	5.06
2.48602	5.06
2.50268	5.06
2.51935	5.06
2.53602	5.06
2.55268	5.06
2.56935	5.06
2.58602	5.06
2.60268	5.06
2.61935	5.06
2.63602	5.06
2.65268	5.06
2.66935	5.06
2.68602	5.06
2.70268	5.06
2.71935	5.06
2.73602	5.06
2.75268	5.06
2.76935	5.06
2.78602	5.06
2.80268	5.06
2.81935	5.06
2.83602	5.06
2.85268	5.05
2.86935	5.05
2.88602	5.05
2.90268	5.05
2.91935	5.05
2.93602	5.05
2.95268	5.05
2.96935	5.05
2.98602	5.05
3.00268	5.05
3.01935	5.05
3.03602	5.05
3.05268	5.05
3.06935	5.05
3.08602	5.05
3.10268	5.05
3.11935	5.05
3.13602	5.05
3.15268	5.05
3.16935	5.05
3.18602	5.05
3.20268	5.05
3.21935	5.05
3.23602	5.05
3.25268	5.05
3.26935	5.05
3.28602	5.05
3.30268	5.05
3.31935	5.05
3.33602	5.05
3.35268	5.05
3.36935	5.05
3.38602	5.05
3.40268	5.05
3.41935	5.05
3.43602	5.05
3.45268	5.05
3.46935	5.05
3.48602	5.05
3.50268	5.05
3.51935	5.05
3.53602	5.05
3.55268	5.05
3.56935	5.05
3.58602	5.05
3.60268	5.05
3.61935	5.05
3.63602	5.05
3.65268	5.05
3.66935	5.05
3.68602	5.05
3.70268	5.05
3.71935	5.05
3.73602	5.05
3.75268	5.05
3.76935	5.05
3.78602	5.05
3.80268	5.05
3.81935	5.05
3.83602	5.05
3.85268	5.05
3.86935	5.05
3.88602	5.05
3.90268	5.05
3.91935	5.05
3.93602	5.05
3.95268	5.05
3.96935	5.05
3.98602	5.05

[Status Trace (Linear Velocity)]
Interval(msec)	1000
# of Points	240
Start Time(min)	0.003
End Time(min)	3.986
Intensity Units	
Intensity Multiplier	1
R.Time (min)	Intensity
0.00268	39.01
0.01935	37.90
0.03602	37.89
0.05268	39.36
0.06935	40.26
0.08602	39.25
0.10268	38.99
0.11935	39.01
0.13602	39.02
0.15268	39.01
0.16935	39.01
0.18602	39.01
0.20268	39.01
0.21935	39.01
0.23602	39.01
0.25268	39.01
0.26935	39.01
0.28602	39.01
0.30268	39.01
0.31935	39.01
0.33602	39.01
0.35268	39.01
0.36935	39.01
0.38602	39.01
0.40268	39.01
0.41935	39.01
0.43602	39.01
0.45268	39.01
0.46935	39.01
0.48602	39.01
0.50268	39.01
0.51935	39.01
0.53602	39.01
0.55268	39.01
0.56935	39.01
0.58602	39.01
0.60268	39.01
0.61935	39.01
0.63602	39.01
0.65268	39.01
0.66935	39.01
0.68602	39.01
0.70268	39.01
0.71935	39.01
0.73602	39.01
0.75268	39.01
0.76935	39.01
0.78602	39.01
0.80268	39.01
0.81935	39.01
0.83602	39.01
0.85268	39.01
0.86935	39.01
0.88602	39.01
0.90268	39.01
0.91935	39.01
0.93602	39.01
0.95268	39.01
0.96935	39.01
0.98602	39.01
1.00268	39.01
1.01935	39.01
1.03602	39.01
1.05268	39.01
1.06935	39.01
1.08602	39.01
1.10268	39.01
1.11935	39.01
1.13602	39.01
1.15268	39.01
1.16935	39.01
1.18602	39.01
1.20268	39.01
1.21935	39.01
1.23602	39.01
1.25268	39.01
1.26935	39.01
1.28602	39.01
1.30268	39.01
1.31935	39.01
1.33602	39.01
1.35268	39.01
1.36935	39.01
1.38602	39.01
1.40268	39.01
1.41935	39.01
1.43602	39.01
1.45268	39.01
1.46935	39.01
1.48602	39.01
1.50268	39.01
1.51935	39.01
1.53602	39.01
1.55268	39.01
1.56935	39.01
1.58602	39.01
1.60268	39.01
1.61935	39.00
1.63602	38.98
1.65268	38.96
1.66935	38.93
1.68602	38.90
1.70268	38.86
1.71935	38.83
1.73602	38.79
1.75268	38.77
1.76935	38.74
1.78602	38.70
1.80268	38.67
1.81935	38.64
1.83602	38.61
1.85268	38.58
1.86935	38.55
1.88602	38.52
1.90268	38.49
1.91935	38.45
1.93602	38.42
1.95268	38.39
1.96935	38.36
1.98602	38.33
2.00268	38.30
2.01935	38.27
2.03602	38.24
2.05268	38.21
2.06935	38.18
2.08602	38.15
2.10268	38.12
2.11935	38.09
2.13602	38.06
2.15268	38.03
2.16935	38.01
2.18602	37.98
2.20268	37.95
2.21935	37.92
2.23602	37.89
2.25268	37.86
2.26935	37.83
2.28602	37.80
2.30268	37.77
2.31935	37.74
2.33602	37.71
2.35268	37.68
2.36935	37.66
2.38602	37.65
2.40268	37.65
2.41935	37.65
2.43602	37.65
2.45268	37.65
2.46935	37.65
2.48602	37.65
2.50268	37.63
2.51935	37.67
2.53602	37.64
2.55268	37.65
2.56935	37.65
2.58602	37.64
2.60268	37.64
2.61935	37.64
2.63602	37.64
2.65268	37.64
2.66935	37.64
2.68602	37.64
2.70268	37.64
2.71935	37.64
2.73602	37.64
2.75268	37.64
2.76935	37.64
2.78602	37.64
2.80268	37.64
2.81935	37.64
2.83602	37.64
2.85268	37.63
2.86935	37.63
2.88602	37.63
2.90268	37.63
2.91935	37.63
2.93602	37.63
2.95268	37.63
2.96935	37.63
2.98602	37.63
3.00268	37.63
3.01935	37.63
3.03602	37.62
3.05268	37.62
3.06935	37.62
3.08602	37.62
3.10268	37.62
3.11935	37.62
3.13602	37.62
3.15268	37.62
3.16935	37.62
3.18602	37.62
3.20268	37.62
3.21935	37.62
3.23602	37.62
3.25268	37.62
3.26935	37.62
3.28602	37.62
3.30268	37.62
3.31935	37.62
3.33602	37.62
3.35268	37.62
3.36935	37.62
3.38602	37.62
3.40268	37.62
3.41935	37.62
3.43602	37.62
3.45268	37.62
3.46935	37.62
3.48602	37.62
3.50268	37.62
3.51935	37.62
3.53602	37.62
3.55268	37.62
3.56935	37.62
3.58602	37.62
3.60268	37.62
3.61935	37.62
3.63602	37.62
3.65268	37.62
3.66935	37.62
3.68602	37.62
3.70268	37.62
3.71935	37.62
3.73602	37.62
3.75268	37.62
3.76935	37.62
3.78602	37.62
3.80268	37.62
3.81935	37.62
3.83602	37.62
3.85268	37.62
3.86935	37.62
3.88602	37.62
3.90268	37.62
3.91935	37.62
3.93602	37.62
3.95268	37.62
3.96935	37.62
3.98602	37.62

