[Header]
Application Name	LabSolutions
Version	5.110
Data File Name	C:\Users\User\Desktop\GC Analyses\Jack\UIC Prairie Sampling\9.16.22\220916_100.gcd
Output Date	11/29/2022
Output Time	11:10:22 AM

[File Information]
Type	Data File
Generated	11/28/2022 1:16:56 PM
Generated by	System Administrator
Modified	11/28/2022 1:21:16 PM
Modified by	System Administrator

[Sample Information]
Operator Name	System Administrator
Acquired	11/28/2022 1:17:15 PM
Sample Type	1:Standard
Level	1
Sample Name	220916_UICPrairie
Sample ID	220916_UICPrairie
ISTD Amount1	1
ISTD Amount2	1
ISTD Amount3	1
ISTD Amount4	1
ISTD Amount5	1
ISTD Amount6	1
ISTD Amount7	1
ISTD Amount8	1
ISTD Amount9	1
ISTD Amount10	1
ISTD Amount11	1
ISTD Amount12	1
ISTD Amount13	1
ISTD Amount14	1
ISTD Amount15	1
ISTD Amount16	1
ISTD Amount17	1
ISTD Amount18	1
ISTD Amount19	1
ISTD Amount20	1
ISTD Amount21	1
ISTD Amount22	1
ISTD Amount23	1
ISTD Amount24	1
ISTD Amount25	1
ISTD Amount26	1
ISTD Amount27	1
ISTD Amount28	1
ISTD Amount29	1
ISTD Amount30	1
ISTD Amount31	1
ISTD Amount32	1
Sample Amount	1
Dilution Factor	1
Vial#	1
Injection Volume	1
Injection Count	1
Bar Code	

[Original Files]
Data File	C:\Users\User\Desktop\GC Analyses\Jack\UIC Prairie Sampling\9.16.22\220916_100.gcd
Method File	C:\LabSolutions\Data\GHG_4min_2022\ghg3_togas_w_acet_4 min_new_int.gcm
Batch File	
Report Format File	c:\LabSolutions\System\DEFAULT.lsr

[File Description]


[Configuration]
Instrument Name	C0B7VH3-Instrument1
Instrument #	1
Line #	1
# of Detectors	3
Detector ID	DET#1	DET#2	DET#3
Detector Name	FID	PTCD	ECD
# of Channels	1	1	1

[Peak Table(Ch1)]
# of Peaks	3
Peak#	R.Time	I.Time	F.Time	Area	Height	A/H	Conc.	Mark	ID#	Name	k'	Plate #	Plate Ht.	Tailing	Resolution	Sep.Factor	Area Ratio	Height Ratio	Conc. %	Norm Conc.
1	1.479	1.439	1.542	14481	6527	2.219	100.000	   	1	CO	0.000	8584	17.474	1.213	0.000	0.000	0	0	16.667	16.667
2	1.571	1.542	1.626	4842	2430	1.993	100.000	 V 	2	CH4	0.062	11148	13.455	0.000	1.486	0.000	0	0	16.667	16.667
3	2.000	1.952	2.374	1340388	642484	2.086	400.000	   	3	CO2	0.352	17621	8.513	1.314	7.163	5.680	0	0	66.667	66.667

[Peak Table(Ch2)]
# of Peaks	0

[Peak Table(Ch3)]
# of Peaks	2
Peak#	R.Time	I.Time	F.Time	Area	Height	A/H	Conc.	Mark	ID#	Name	k'	Plate #	Plate Ht.	Tailing	Resolution	Sep.Factor	Area Ratio	Height Ratio	Conc. %	Norm Conc.
1	2.579	1.835	2.825	13042	734	17.766	0.000	   			0.000	514	291.729	0.000	0.000	0.000	0	0	0.000	0.000
2	2.887	2.825	3.265	21432	4915	4.361	1.000	 V 	1	N2O	0.119	12610	11.896	0.000	1.104	0.000	0	0	100.000	100.000

[Compound Results(Ch1)]
# of IDs	6
ID#	Name	R.Time	Area	Height	Conc.	Curve	3rd	2nd	1st	Constant	Area Ratio	Height Ratio	Conc. %	Norm Conc.
1	CO	1.479	14481	6527	100.000	Linear	0.000000e+00	0.000000e+00	1.448138e+002	0.000000e+00	0	0	16.667	16.667
2	CH4	1.571	4842	2430	100.000	Linear	0.000000e+00	0.000000e+00	4.842448e+001	0.000000e+00	0	0	16.667	16.667
3	CO2	2.000	1340388	642484	400.000	Linear	0.000000e+00	0.000000e+00	3.350969e+003	0.000000e+00	0	0	66.667	66.667
4	Ethylene	0.000	0	0	0.000	Linear	0.000000e+00	0.000000e+00	0.000000e+00	0.000000e+00	0	0	0.000	0.000
5	Acetylene	0.000	0	0	0.000	Linear	0.000000e+00	0.000000e+00	0.000000e+00	0.000000e+00	0	0	0.000	0.000
6	Ethane	0.000	0	0	0.000	Linear	0.000000e+00	0.000000e+00	0.000000e+00	0.000000e+00	0	0	0.000	0.000

[Compound Results(Ch2)]
# of IDs	5
ID#	Name	R.Time	Area	Height	Conc.	Curve	3rd	2nd	1st	Constant	Area Ratio	Height Ratio	Conc. %	Norm Conc.
1	Hydrogen	0.000	0	0	0.000	Linear	0.000000e+00	0.000000e+00	0.000000e+00	0.000000e+00	0	0	0.000	0.000
2	Oxygen	0.000	0	0	0.000	Linear	0.000000e+00	0.000000e+00	0.000000e+00	0.000000e+00	0	0	0.000	0.000
3	Nitrogen	0.000	0	0	0.000	Linear	0.000000e+00	0.000000e+00	0.000000e+00	0.000000e+00	0	0	0.000	0.000
4	Methane	0.000	0	0	0.000	Linear	0.000000e+00	0.000000e+00	0.000000e+00	0.000000e+00	0	0	0.000	0.000
5	Carbon Monoxide	0.000	0	0	0.000	Linear	0.000000e+00	0.000000e+00	0.000000e+00	0.000000e+00	0	0	0.000	0.000

[Compound Results(Ch3)]
# of IDs	2
ID#	Name	R.Time	Area	Height	Conc.	Curve	3rd	2nd	1st	Constant	Area Ratio	Height Ratio	Conc. %	Norm Conc.
1	N2O	2.887	21432	4915	1.000	Linear	0.000000e+00	0.000000e+00	2.143232e+004	0.000000e+00	0	0	100.000	100.000
2	SF6	0.000	0	0	0.000	Linear	0.000000e+00	0.000000e+00	0.000000e+00	0.000000e+00	0	0	0.000	0.000

[Group Results(Ch1)]
# of Groups	0

[Group Results(Ch2)]
# of Groups	0

[Group Results(Ch3)]
# of Groups	0

[Chromatogram (Ch1)]
Interval(msec)	220
# of Points	1091
Start Time(min)	0.002
End Time(min)	3.998
R.Time (min)	Intensity
0.00167	9
0.00533	19
0.00900	24
0.01267	22
0.01633	19
0.02000	17
0.02367	15
0.02733	9
0.03100	-3
0.03467	-13
0.03833	-22
0.04200	-25
0.04567	-26
0.04933	-24
0.05300	-17
0.05667	-8
0.06033	-1
0.06400	3
0.06767	5
0.07133	5
0.07500	5
0.07867	8
0.08233	9
0.08600	8
0.08967	6
0.09333	4
0.09700	4
0.10067	2
0.10433	0
0.10800	2
0.11167	2
0.11533	3
0.11900	1
0.12267	-1
0.12633	-6
0.13000	-11
0.13367	-13
0.13733	-13
0.14100	-11
0.14467	-8
0.14833	-8
0.15200	-13
0.15567	-18
0.15933	-18
0.16300	-13
0.16667	-6
0.17033	-4
0.17400	-5
0.17767	-7
0.18133	-8
0.18500	-7
0.18867	-4
0.19233	1
0.19600	5
0.19967	4
0.20333	1
0.20700	-6
0.21067	-13
0.21433	-18
0.21800	-21
0.22167	-21
0.22533	-21
0.22900	-17
0.23267	-10
0.23633	-4
0.24000	-2
0.24367	-4
0.24733	-5
0.25100	-4
0.25467	-9
0.25833	-17
0.26200	-25
0.26567	-32
0.26933	-35
0.27300	-33
0.27667	-28
0.28033	-24
0.28400	-23
0.28767	-24
0.29133	-25
0.29500	-29
0.29867	-32
0.30233	-32
0.30600	-33
0.30967	-37
0.31333	-40
0.31700	-40
0.32067	-38
0.32433	-36
0.32800	-37
0.33167	-40
0.33533	-43
0.33900	-46
0.34267	-47
0.34633	-47
0.35000	-46
0.35367	-43
0.35733	-37
0.36100	-28
0.36467	-18
0.36833	-9
0.37200	-8
0.37567	-14
0.37933	-21
0.38300	-27
0.38667	-32
0.39033	-33
0.39400	-28
0.39767	-23
0.40133	-22
0.40500	-27
0.40867	-37
0.41233	-46
0.41600	-50
0.41967	-45
0.42333	-40
0.42700	-35
0.43067	-34
0.43433	-34
0.43800	-35
0.44167	-37
0.44533	-37
0.44900	-35
0.45267	-35
0.45633	-35
0.46000	-33
0.46367	-29
0.46733	-26
0.47100	-27
0.47467	-31
0.47833	-35
0.48200	-36
0.48567	-33
0.48933	-32
0.49300	-35
0.49667	-42
0.50033	-51
0.50400	-58
0.50767	-62
0.51133	-66
0.51500	-67
0.51867	-67
0.52233	-63
0.52600	-57
0.52967	-52
0.53333	-50
0.53700	-49
0.54067	-50
0.54433	-56
0.54800	-62
0.55167	-64
0.55533	-62
0.55900	-59
0.56267	-57
0.56633	-61
0.57000	-66
0.57367	-66
0.57733	-63
0.58100	-61
0.58467	-59
0.58833	-58
0.59200	-58
0.59567	-61
0.59933	-68
0.60300	-73
0.60667	-76
0.61033	-75
0.61400	-71
0.61767	-68
0.62133	-68
0.62500	-68
0.62867	-68
0.63233	-68
0.63600	-72
0.63967	-75
0.64333	-76
0.64700	-74
0.65067	-71
0.65433	-69
0.65800	-66
0.66167	-65
0.66533	-65
0.66900	-66
0.67267	-68
0.67633	-69
0.68000	-72
0.68367	-77
0.68733	-80
0.69100	-84
0.69467	-84
0.69833	-78
0.70200	-72
0.70567	-68
0.70933	-69
0.71300	-72
0.71667	-74
0.72033	-74
0.72400	-71
0.72767	-66
0.73133	-61
0.73500	-57
0.73867	-52
0.74233	-51
0.74600	-53
0.74967	-56
0.75333	-60
0.75700	-64
0.76067	-68
0.76433	-73
0.76800	-77
0.77167	-80
0.77533	-83
0.77900	-85
0.78267	-85
0.78633	-85
0.79000	-81
0.79367	-75
0.79733	-70
0.80100	-71
0.80467	-76
0.80833	-83
0.81200	-87
0.81567	-87
0.81933	-84
0.82300	-80
0.82667	-78
0.83033	-76
0.83400	-76
0.83767	-80
0.84133	-86
0.84500	-92
0.84867	-99
0.85233	-105
0.85600	-107
0.85967	-105
0.86333	-100
0.86700	-94
0.87067	-89
0.87433	-84
0.87800	-83
0.88167	-83
0.88533	-84
0.88900	-84
0.89267	-82
0.89633	-79
0.90000	-79
0.90367	-78
0.90733	-78
0.91100	-78
0.91467	-82
0.91833	-88
0.92200	-98
0.92567	-107
0.92933	-111
0.93300	-109
0.93667	-104
0.94033	-98
0.94400	-94
0.94767	-91
0.95133	-91
0.95500	-91
0.95867	-88
0.96233	-86
0.96600	-87
0.96967	-86
0.97333	-86
0.97700	-86
0.98067	-89
0.98433	-94
0.98800	-98
0.99167	-100
0.99533	-98
0.99900	-95
1.00267	-95
1.00633	-99
1.01000	-106
1.01367	-111
1.01733	-114
1.02100	-113
1.02467	-110
1.02833	-111
1.03200	-112
1.03567	-112
1.03933	-113
1.04300	-113
1.04667	-112
1.05033	-111
1.05400	-107
1.05767	-102
1.06133	-97
1.06500	-96
1.06867	-95
1.07233	-97
1.07600	-101
1.07967	-104
1.08333	-106
1.08700	-106
1.09067	-105
1.09433	-107
1.09800	-109
1.10167	-110
1.10533	-111
1.10900	-111
1.11267	-107
1.11633	-101
1.12000	-97
1.12367	-98
1.12733	-101
1.13100	-107
1.13467	-113
1.13833	-116
1.14200	-118
1.14567	-121
1.14933	-124
1.15300	-125
1.15667	-125
1.16033	-123
1.16400	-123
1.16767	-123
1.17133	-122
1.17500	-119
1.17867	-117
1.18233	-116
1.18600	-114
1.18967	-110
1.19333	-108
1.19700	-108
1.20067	-113
1.20433	-122
1.20800	-130
1.21167	-134
1.21533	-135
1.21900	-132
1.22267	-126
1.22633	-121
1.23000	-117
1.23367	-115
1.23733	-114
1.24100	-111
1.24467	-112
1.24833	-117
1.25200	-120
1.25567	-121
1.25933	-122
1.26300	-120
1.26667	-116
1.27033	-111
1.27400	-108
1.27767	-109
1.28133	-110
1.28500	-111
1.28867	-111
1.29233	-112
1.29600	-113
1.29967	-116
1.30333	-118
1.30700	-117
1.31067	-114
1.31433	-114
1.31800	-114
1.32167	-115
1.32533	-117
1.32900	-119
1.33267	-118
1.33633	-119
1.34000	-120
1.34367	-120
1.34733	-122
1.35100	-125
1.35467	-128
1.35833	-130
1.36200	-132
1.36567	-136
1.36933	-138
1.37300	-139
1.37667	-143
1.38033	-149
1.38400	-153
1.38767	-152
1.39133	-146
1.39500	-140
1.39867	-134
1.40233	-131
1.40600	-130
1.40967	-133
1.41333	-139
1.41700	-144
1.42067	-142
1.42433	-136
1.42800	-132
1.43167	-129
1.43533	-129
1.43900	-128
1.44267	-96
1.44633	43
1.45000	343
1.45367	836
1.45733	1617
1.46100	2680
1.46467	3842
1.46833	4890
1.47200	5703
1.47567	6223
1.47933	6400
1.48300	6190
1.48667	5606
1.49033	4751
1.49400	3791
1.49767	2878
1.50133	2106
1.50500	1503
1.50867	1054
1.51233	727
1.51600	493
1.51967	326
1.52333	209
1.52700	130
1.53067	75
1.53433	35
1.53800	9
1.54167	8
1.54533	70
1.54900	258
1.55267	601
1.55633	1049
1.56000	1504
1.56367	1889
1.56733	2167
1.57100	2308
1.57467	2280
1.57833	2075
1.58200	1735
1.58567	1337
1.58933	958
1.59300	638
1.59667	392
1.60033	216
1.60400	96
1.60767	18
1.61133	-35
1.61500	-72
1.61867	-96
1.62233	-111
1.62600	-119
1.62967	-123
1.63333	-124
1.63700	-126
1.64067	-129
1.64433	-131
1.64800	-135
1.65167	-139
1.65533	-142
1.65900	-145
1.66267	-147
1.66633	-146
1.67000	-141
1.67367	-137
1.67733	-138
1.68100	-142
1.68467	-149
1.68833	-154
1.69200	-158
1.69567	-160
1.69933	-159
1.70300	-155
1.70667	-151
1.71033	-150
1.71400	-152
1.71767	-156
1.72133	-161
1.72500	-162
1.72867	-161
1.73233	-158
1.73600	-153
1.73967	-148
1.74333	-146
1.74700	-146
1.75067	-148
1.75433	-151
1.75800	-157
1.76167	-160
1.76533	-158
1.76900	-152
1.77267	-144
1.77633	-137
1.78000	-136
1.78367	-137
1.78733	-139
1.79100	-139
1.79467	-135
1.79833	-131
1.80200	-126
1.80567	-125
1.80933	-132
1.81300	-141
1.81667	-150
1.82033	-160
1.82400	-167
1.82767	-171
1.83133	-173
1.83500	-173
1.83867	-170
1.84233	-168
1.84600	-163
1.84967	-156
1.85333	-149
1.85700	-147
1.86067	-147
1.86433	-148
1.86800	-147
1.87167	-145
1.87533	-141
1.87900	-137
1.88267	-136
1.88633	-137
1.89000	-142
1.89367	-145
1.89733	-145
1.90100	-143
1.90467	-143
1.90833	-147
1.91200	-154
1.91567	-159
1.91933	-164
1.92300	-166
1.92667	-165
1.93033	-162
1.93400	-156
1.93767	-149
1.94133	-142
1.94500	-135
1.94867	-130
1.95233	-125
1.95600	-111
1.95967	-19
1.96333	532
1.96700	3088
1.97067	12098
1.97433	36423
1.97800	87499
1.98167	172021
1.98533	284409
1.98900	407107
1.99267	518780
1.99633	601287
2.00000	642399
2.00367	636764
2.00733	587539
2.01100	506552
2.01467	410697
2.01833	315947
2.02200	233127
2.02567	166916
2.02933	117259
2.03300	81642
2.03667	56849
2.04033	39915
2.04400	28460
2.04767	20731
2.05133	15493
2.05500	11905
2.05867	9408
2.06233	7635
2.06600	6348
2.06967	5390
2.07333	4662
2.07700	4096
2.08067	3644
2.08433	3274
2.08800	2964
2.09167	2706
2.09533	2488
2.09900	2298
2.10267	2129
2.10633	1979
2.11000	1847
2.11367	1732
2.11733	1631
2.12100	1539
2.12467	1455
2.12833	1379
2.13200	1311
2.13567	1248
2.13933	1193
2.14300	1142
2.14667	1093
2.15033	1048
2.15400	1003
2.15767	961
2.16133	923
2.16500	886
2.16867	853
2.17233	825
2.17600	802
2.17967	778
2.18333	751
2.18700	720
2.19067	691
2.19433	668
2.19800	648
2.20167	629
2.20533	609
2.20900	587
2.21267	564
2.21633	543
2.22000	526
2.22367	514
2.22733	502
2.23100	489
2.23467	475
2.23833	460
2.24200	446
2.24567	433
2.24933	420
2.25300	408
2.25667	397
2.26033	389
2.26400	380
2.26767	371
2.27133	365
2.27500	361
2.27867	358
2.28233	354
2.28600	345
2.28967	333
2.29333	322
2.29700	311
2.30067	299
2.30433	288
2.30800	281
2.31167	275
2.31533	268
2.31900	259
2.32267	251
2.32633	248
2.33000	246
2.33367	243
2.33733	239
2.34100	237
2.34467	237
2.34833	236
2.35200	236
2.35567	237
2.35933	238
2.36300	240
2.36667	238
2.37033	233
2.37400	225
2.37767	221
2.38133	220
2.38500	221
2.38867	219
2.39233	215
2.39600	208
2.39967	203
2.40333	197
2.40700	190
2.41067	186
2.41433	185
2.41800	184
2.42167	183
2.42533	183
2.42900	185
2.43267	185
2.43633	181
2.44000	171
2.44367	159
2.44733	151
2.45100	147
2.45467	145
2.45833	143
2.46200	139
2.46567	132
2.46933	124
2.47300	118
2.47667	117
2.48033	119
2.48400	121
2.48767	121
2.49133	118
2.49500	118
2.49867	117
2.50233	118
2.50600	119
2.50967	121
2.51333	124
2.51700	128
2.52067	131
2.52433	132
2.52800	126
2.53167	123
2.53533	124
2.53900	124
2.54267	120
2.54633	112
2.55000	105
2.55367	99
2.55733	96
2.56100	95
2.56467	96
2.56833	95
2.57200	95
2.57567	93
2.57933	91
2.58300	88
2.58667	86
2.59033	85
2.59400	87
2.59767	90
2.60133	91
2.60500	88
2.60867	85
2.61233	84
2.61600	85
2.61967	87
2.62333	88
2.62700	89
2.63067	88
2.63433	85
2.63800	81
2.64167	77
2.64533	74
2.64900	72
2.65267	68
2.65633	63
2.66000	55
2.66367	51
2.66733	50
2.67100	52
2.67467	53
2.67833	55
2.68200	57
2.68567	59
2.68933	60
2.69300	63
2.69667	67
2.70033	70
2.70400	70
2.70767	66
2.71133	62
2.71500	56
2.71867	52
2.72233	51
2.72600	50
2.72967	50
2.73333	51
2.73700	51
2.74067	50
2.74433	48
2.74800	47
2.75167	47
2.75533	48
2.75900	47
2.76267	42
2.76633	40
2.77000	43
2.77367	50
2.77733	54
2.78100	53
2.78467	51
2.78833	53
2.79200	55
2.79567	53
2.79933	45
2.80300	37
2.80667	32
2.81033	32
2.81400	34
2.81767	36
2.82133	39
2.82500	41
2.82867	43
2.83233	44
2.83600	44
2.83967	43
2.84333	42
2.84700	41
2.85067	38
2.85433	32
2.85800	26
2.86167	23
2.86533	23
2.86900	19
2.87267	16
2.87633	13
2.88000	12
2.88367	14
2.88733	20
2.89100	29
2.89467	37
2.89833	42
2.90200	44
2.90567	42
2.90933	36
2.91300	29
2.91667	26
2.92033	28
2.92400	33
2.92767	33
2.93133	31
2.93500	31
2.93867	31
2.94233	28
2.94600	24
2.94967	18
2.95333	14
2.95700	8
2.96067	3
2.96433	4
2.96800	8
2.97167	11
2.97533	13
2.97900	17
2.98267	22
2.98633	28
2.99000	32
2.99367	34
2.99733	33
3.00100	31
3.00467	29
3.00833	27
3.01200	29
3.01567	32
3.01933	34
3.02300	36
3.02667	38
3.03033	41
3.03400	44
3.03767	45
3.04133	44
3.04500	44
3.04867	42
3.05233	39
3.05600	36
3.05967	32
3.06333	32
3.06700	33
3.07067	35
3.07433	39
3.07800	43
3.08167	43
3.08533	39
3.08900	31
3.09267	23
3.09633	18
3.10000	11
3.10367	3
3.10733	-0
3.11100	3
3.11467	9
3.11833	17
3.12200	24
3.12567	26
3.12933	24
3.13300	22
3.13667	21
3.14033	22
3.14400	23
3.14767	24
3.15133	24
3.15500	19
3.15867	12
3.16233	10
3.16600	9
3.16967	7
3.17333	4
3.17700	1
3.18067	2
3.18433	4
3.18800	4
3.19167	4
3.19533	5
3.19900	5
3.20267	5
3.20633	6
3.21000	8
3.21367	10
3.21733	12
3.22100	18
3.22467	23
3.22833	28
3.23200	30
3.23567	27
3.23933	20
3.24300	9
3.24667	-3
3.25033	-13
3.25400	-15
3.25767	-11
3.26133	-6
3.26500	-5
3.26867	-5
3.27233	-1
3.27600	3
3.27967	5
3.28333	3
3.28700	1
3.29067	0
3.29433	3
3.29800	5
3.30167	6
3.30533	6
3.30900	8
3.31267	9
3.31633	7
3.32000	1
3.32367	-7
3.32733	-11
3.33100	-11
3.33467	-7
3.33833	-0
3.34200	6
3.34567	10
3.34933	11
3.35300	9
3.35667	6
3.36033	5
3.36400	3
3.36767	1
3.37133	1
3.37500	3
3.37867	4
3.38233	1
3.38600	-5
3.38967	-10
3.39333	-12
3.39700	-10
3.40067	-4
3.40433	4
3.40800	10
3.41167	9
3.41533	2
3.41900	-6
3.42267	-8
3.42633	-3
3.43000	6
3.43367	14
3.43733	20
3.44100	21
3.44467	14
3.44833	3
3.45200	-9
3.45567	-15
3.45933	-15
3.46300	-7
3.46667	-1
3.47033	5
3.47400	8
3.47767	9
3.48133	6
3.48500	-1
3.48867	-10
3.49233	-18
3.49600	-24
3.49967	-27
3.50333	-24
3.50700	-19
3.51067	-12
3.51433	-7
3.51800	-5
3.52167	-3
3.52533	-0
3.52900	5
3.53267	8
3.53633	7
3.54000	5
3.54367	5
3.54733	6
3.55100	5
3.55467	4
3.55833	4
3.56200	4
3.56567	3
3.56933	-1
3.57300	-6
3.57667	-10
3.58033	-10
3.58400	-8
3.58767	-4
3.59133	1
3.59500	5
3.59867	7
3.60233	5
3.60600	3
3.60967	1
3.61333	-5
3.61700	-12
3.62067	-17
3.62433	-20
3.62800	-21
3.63167	-20
3.63533	-19
3.63900	-16
3.64267	-15
3.64633	-17
3.65000	-20
3.65367	-16
3.65733	-8
3.66100	1
3.66467	10
3.66833	15
3.67200	13
3.67567	6
3.67933	-3
3.68300	-12
3.68667	-15
3.69033	-11
3.69400	-6
3.69767	-2
3.70133	3
3.70500	4
3.70867	0
3.71233	-2
3.71600	-2
3.71967	-1
3.72333	-2
3.72700	-0
3.73067	3
3.73433	8
3.73800	10
3.74167	13
3.74533	14
3.74900	13
3.75267	12
3.75633	14
3.76000	19
3.76367	22
3.76733	23
3.77100	23
3.77467	20
3.77833	14
3.78200	10
3.78567	11
3.78933	13
3.79300	15
3.79667	15
3.80033	10
3.80400	6
3.80767	4
3.81133	4
3.81500	5
3.81867	6
3.82233	6
3.82600	1
3.82967	-5
3.83333	-8
3.83700	-7
3.84067	-6
3.84433	-3
3.84800	-0
3.85167	1
3.85533	3
3.85900	5
3.86267	6
3.86633	5
3.87000	2
3.87367	-2
3.87733	-0
3.88100	6
3.88467	12
3.88833	15
3.89200	11
3.89567	3
3.89933	-7
3.90300	-16
3.90667	-22
3.91033	-19
3.91400	-14
3.91767	-7
3.92133	-2
3.92500	-1
3.92867	-3
3.93233	-6
3.93600	-9
3.93967	-12
3.94333	-14
3.94700	-15
3.95067	-14
3.95433	-11
3.95800	-5
3.96167	1
3.96533	3
3.96900	4
3.97267	3
3.97633	-3
3.98000	-12
3.98367	-18
3.98733	-20
3.99100	-23
3.99467	-24
3.99833	-24

[Chromatogram (Ch2)]
Interval(msec)	220
# of Points	1091
Start Time(min)	0.002
End Time(min)	3.998
R.Time (min)	Intensity
0.00167	0
0.00533	0
0.00900	0
0.01267	0
0.01633	0
0.02000	0
0.02367	0
0.02733	-0
0.03100	-0
0.03467	-1
0.03833	-1
0.04200	-1
0.04567	-1
0.04933	-1
0.05300	-1
0.05667	-1
0.06033	-0
0.06400	-0
0.06767	-0
0.07133	-0
0.07500	-0
0.07867	-0
0.08233	-0
0.08600	-0
0.08967	-0
0.09333	-0
0.09700	-0
0.10067	-0
0.10433	-0
0.10800	0
0.11167	-0
0.11533	-0
0.11900	-0
0.12267	-0
0.12633	-0
0.13000	0
0.13367	0
0.13733	1
0.14100	1
0.14467	1
0.14833	1
0.15200	1
0.15567	1
0.15933	1
0.16300	1
0.16667	2
0.17033	2
0.17400	1
0.17767	1
0.18133	1
0.18500	1
0.18867	1
0.19233	1
0.19600	1
0.19967	0
0.20333	0
0.20700	0
0.21067	1
0.21433	1
0.21800	1
0.22167	1
0.22533	1
0.22900	1
0.23267	1
0.23633	1
0.24000	1
0.24367	1
0.24733	1
0.25100	0
0.25467	0
0.25833	0
0.26200	0
0.26567	0
0.26933	-0
0.27300	-1
0.27667	-1
0.28033	-1
0.28400	-1
0.28767	-1
0.29133	-1
0.29500	-2
0.29867	-2
0.30233	-2
0.30600	-2
0.30967	-2
0.31333	-2
0.31700	-2
0.32067	-2
0.32433	-2
0.32800	-2
0.33167	-2
0.33533	-2
0.33900	-2
0.34267	-2
0.34633	-2
0.35000	-2
0.35367	-2
0.35733	-2
0.36100	-2
0.36467	-2
0.36833	-2
0.37200	-2
0.37567	-1
0.37933	-1
0.38300	-1
0.38667	-1
0.39033	-1
0.39400	-1
0.39767	-1
0.40133	-1
0.40500	-1
0.40867	-1
0.41233	-1
0.41600	-1
0.41967	-1
0.42333	-1
0.42700	-1
0.43067	-1
0.43433	-1
0.43800	-1
0.44167	-1
0.44533	-1
0.44900	-1
0.45267	-2
0.45633	-2
0.46000	-2
0.46367	-2
0.46733	-2
0.47100	-2
0.47467	-2
0.47833	-2
0.48200	-2
0.48567	-1
0.48933	-1
0.49300	-1
0.49667	-1
0.50033	-1
0.50400	-1
0.50767	-1
0.51133	-1
0.51500	-1
0.51867	-1
0.52233	-1
0.52600	-1
0.52967	-2
0.53333	-2
0.53700	-2
0.54067	-2
0.54433	-2
0.54800	-2
0.55167	-2
0.55533	-3
0.55900	-3
0.56267	-3
0.56633	-3
0.57000	-3
0.57367	-2
0.57733	-2
0.58100	-2
0.58467	-1
0.58833	-1
0.59200	-2
0.59567	-2
0.59933	-2
0.60300	-2
0.60667	-3
0.61033	-3
0.61400	-3
0.61767	-3
0.62133	-3
0.62500	-3
0.62867	-3
0.63233	-3
0.63600	-3
0.63967	-3
0.64333	-3
0.64700	-3
0.65067	-3
0.65433	-3
0.65800	-3
0.66167	-3
0.66533	-3
0.66900	-3
0.67267	-3
0.67633	-3
0.68000	-3
0.68367	-3
0.68733	-3
0.69100	-2
0.69467	-2
0.69833	-2
0.70200	-2
0.70567	-2
0.70933	-2
0.71300	-2
0.71667	-2
0.72033	-2
0.72400	-2
0.72767	-2
0.73133	-2
0.73500	-3
0.73867	-3
0.74233	-3
0.74600	-3
0.74967	-3
0.75333	-2
0.75700	-2
0.76067	-2
0.76433	-2
0.76800	-2
0.77167	-2
0.77533	-2
0.77900	-2
0.78267	-2
0.78633	-2
0.79000	-2
0.79367	-2
0.79733	-2
0.80100	-2
0.80467	-2
0.80833	-2
0.81200	-2
0.81567	-2
0.81933	-2
0.82300	-3
0.82667	-3
0.83033	-3
0.83400	-3
0.83767	-3
0.84133	-3
0.84500	-3
0.84867	-3
0.85233	-3
0.85600	-2
0.85967	-2
0.86333	-2
0.86700	-2
0.87067	-2
0.87433	-2
0.87800	-2
0.88167	-2
0.88533	-2
0.88900	-2
0.89267	-2
0.89633	-2
0.90000	-2
0.90367	-2
0.90733	-3
0.91100	-3
0.91467	-3
0.91833	-3
0.92200	-3
0.92567	-3
0.92933	-3
0.93300	-3
0.93667	-3
0.94033	-3
0.94400	-3
0.94767	-3
0.95133	-3
0.95500	-3
0.95867	-3
0.96233	-3
0.96600	-3
0.96967	-3
0.97333	-3
0.97700	-3
0.98067	-3
0.98433	-3
0.98800	-3
0.99167	-3
0.99533	-2
0.99900	-2
1.00267	-2
1.00633	-2
1.01000	-2
1.01367	-2
1.01733	-2
1.02100	-2
1.02467	-2
1.02833	-2
1.03200	-2
1.03567	-2
1.03933	-2
1.04300	-2
1.04667	-3
1.05033	-3
1.05400	-3
1.05767	-3
1.06133	-3
1.06500	-3
1.06867	-3
1.07233	-3
1.07600	-3
1.07967	-3
1.08333	-3
1.08700	-3
1.09067	-3
1.09433	-3
1.09800	-3
1.10167	-3
1.10533	-3
1.10900	-3
1.11267	-3
1.11633	-3
1.12000	-3
1.12367	-3
1.12733	-2
1.13100	-2
1.13467	-2
1.13833	-2
1.14200	-1
1.14567	-1
1.14933	-1
1.15300	-1
1.15667	-1
1.16033	-1
1.16400	-1
1.16767	-1
1.17133	-1
1.17500	-1
1.17867	-1
1.18233	-1
1.18600	-1
1.18967	-1
1.19333	-1
1.19700	-1
1.20067	-1
1.20433	-1
1.20800	-2
1.21167	-2
1.21533	-2
1.21900	-2
1.22267	-2
1.22633	-2
1.23000	-2
1.23367	-2
1.23733	-2
1.24100	-1
1.24467	-1
1.24833	-1
1.25200	-1
1.25567	-2
1.25933	-2
1.26300	-2
1.26667	-2
1.27033	-2
1.27400	-2
1.27767	-3
1.28133	-3
1.28500	-3
1.28867	-3
1.29233	-3
1.29600	-3
1.29967	-3
1.30333	-3
1.30700	-3
1.31067	-3
1.31433	-3
1.31800	-3
1.32167	-3
1.32533	-3
1.32900	-3
1.33267	-3
1.33633	-3
1.34000	-3
1.34367	-3
1.34733	-3
1.35100	-3
1.35467	-3
1.35833	-3
1.36200	-3
1.36567	-3
1.36933	-3
1.37300	-3
1.37667	-3
1.38033	-3
1.38400	-3
1.38767	-3
1.39133	-3
1.39500	-3
1.39867	-3
1.40233	-3
1.40600	-3
1.40967	-3
1.41333	-3
1.41700	-3
1.42067	-3
1.42433	-3
1.42800	-3
1.43167	-3
1.43533	-3
1.43900	-3
1.44267	-3
1.44633	-3
1.45000	-3
1.45367	-4
1.45733	-4
1.46100	-4
1.46467	-3
1.46833	-3
1.47200	-3
1.47567	-3
1.47933	-3
1.48300	-3
1.48667	-3
1.49033	-3
1.49400	-3
1.49767	-3
1.50133	-3
1.50500	-3
1.50867	-3
1.51233	-3
1.51600	-3
1.51967	-3
1.52333	-3
1.52700	-3
1.53067	-3
1.53433	-3
1.53800	-3
1.54167	-3
1.54533	-3
1.54900	-3
1.55267	-2
1.55633	-2
1.56000	-2
1.56367	-2
1.56733	-2
1.57100	-2
1.57467	-2
1.57833	-3
1.58200	-3
1.58567	-3
1.58933	-3
1.59300	-4
1.59667	-4
1.60033	-4
1.60400	-5
1.60767	-7
1.61133	-8
1.61500	-10
1.61867	-12
1.62233	-14
1.62600	-17
1.62967	-20
1.63333	-24
1.63700	-27
1.64067	-30
1.64433	-34
1.64800	-37
1.65167	-41
1.65533	-45
1.65900	-49
1.66267	-54
1.66633	-58
1.67000	-64
1.67367	-69
1.67733	-74
1.68100	-79
1.68467	-84
1.68833	-88
1.69200	-92
1.69567	-95
1.69933	-98
1.70300	-101
1.70667	-104
1.71033	-106
1.71400	-108
1.71767	-109
1.72133	-110
1.72500	-110
1.72867	-111
1.73233	-111
1.73600	-111
1.73967	-111
1.74333	-110
1.74700	-110
1.75067	-111
1.75433	-111
1.75800	-112
1.76167	-114
1.76533	-115
1.76900	-116
1.77267	-117
1.77633	-117
1.78000	-118
1.78367	-118
1.78733	-119
1.79100	-120
1.79467	-121
1.79833	-122
1.80200	-122
1.80567	-122
1.80933	-122
1.81300	-122
1.81667	-122
1.82033	-121
1.82400	-121
1.82767	-121
1.83133	-121
1.83500	-121
1.83867	-121
1.84233	-122
1.84600	-122
1.84967	-122
1.85333	-122
1.85700	-122
1.86067	-121
1.86433	-121
1.86800	-121
1.87167	-120
1.87533	-120
1.87900	-121
1.88267	-121
1.88633	-121
1.89000	-121
1.89367	-121
1.89733	-121
1.90100	-120
1.90467	-120
1.90833	-119
1.91200	-119
1.91567	-118
1.91933	-118
1.92300	-117
1.92667	-117
1.93033	-116
1.93400	-116
1.93767	-116
1.94133	-116
1.94500	-116
1.94867	-116
1.95233	-116
1.95600	-116
1.95967	-115
1.96333	-115
1.96700	-115
1.97067	-115
1.97433	-115
1.97800	-115
1.98167	-115
1.98533	-115
1.98900	-114
1.99267	-114
1.99633	-114
2.00000	-113
2.00367	-113
2.00733	-113
2.01100	-113
2.01467	-113
2.01833	-113
2.02200	-113
2.02567	-112
2.02933	-112
2.03300	-111
2.03667	-111
2.04033	-110
2.04400	-109
2.04767	-109
2.05133	-109
2.05500	-109
2.05867	-110
2.06233	-110
2.06600	-110
2.06967	-110
2.07333	-110
2.07700	-110
2.08067	-110
2.08433	-109
2.08800	-109
2.09167	-108
2.09533	-108
2.09900	-107
2.10267	-107
2.10633	-106
2.11000	-106
2.11367	-105
2.11733	-104
2.12100	-103
2.12467	-102
2.12833	-102
2.13200	-102
2.13567	-102
2.13933	-102
2.14300	-102
2.14667	-101
2.15033	-101
2.15400	-100
2.15767	-100
2.16133	-100
2.16500	-99
2.16867	-99
2.17233	-99
2.17600	-100
2.17967	-100
2.18333	-100
2.18700	-100
2.19067	-99
2.19433	-98
2.19800	-98
2.20167	-97
2.20533	-97
2.20900	-97
2.21267	-96
2.21633	-97
2.22000	-97
2.22367	-98
2.22733	-98
2.23100	-99
2.23467	-99
2.23833	-99
2.24200	-98
2.24567	-97
2.24933	-96
2.25300	-95
2.25667	-94
2.26033	-93
2.26400	-92
2.26767	-92
2.27133	-92
2.27500	-93
2.27867	-93
2.28233	-93
2.28600	-94
2.28967	-94
2.29333	-93
2.29700	-92
2.30067	-91
2.30433	-90
2.30800	-89
2.31167	-89
2.31533	-88
2.31900	-88
2.32267	-88
2.32633	-88
2.33000	-87
2.33367	-86
2.33733	-86
2.34100	-85
2.34467	-85
2.34833	-84
2.35200	-84
2.35567	-84
2.35933	-84
2.36300	-84
2.36667	-83
2.37033	-82
2.37400	-80
2.37767	-78
2.38133	-76
2.38500	-73
2.38867	-70
2.39233	-66
2.39600	-62
2.39967	-57
2.40333	-53
2.40700	-48
2.41067	-44
2.41433	-39
2.41800	-36
2.42167	-32
2.42533	-28
2.42900	-25
2.43267	-23
2.43633	-21
2.44000	-19
2.44367	-17
2.44733	-15
2.45100	-13
2.45467	-11
2.45833	-9
2.46200	-8
2.46567	-6
2.46933	-5
2.47300	-4
2.47667	-2
2.48033	-1
2.48400	1
2.48767	2
2.49133	4
2.49500	5
2.49867	6
2.50233	7
2.50600	7
2.50967	7
2.51333	8
2.51700	8
2.52067	9
2.52433	9
2.52800	10
2.53167	10
2.53533	11
2.53900	11
2.54267	11
2.54633	12
2.55000	12
2.55367	12
2.55733	12
2.56100	13
2.56467	13
2.56833	13
2.57200	13
2.57567	13
2.57933	13
2.58300	13
2.58667	13
2.59033	12
2.59400	12
2.59767	12
2.60133	12
2.60500	13
2.60867	13
2.61233	14
2.61600	14
2.61967	14
2.62333	14
2.62700	14
2.63067	15
2.63433	15
2.63800	15
2.64167	16
2.64533	16
2.64900	17
2.65267	17
2.65633	17
2.66000	17
2.66367	17
2.66733	17
2.67100	17
2.67467	17
2.67833	17
2.68200	18
2.68567	18
2.68933	18
2.69300	18
2.69667	19
2.70033	19
2.70400	19
2.70767	20
2.71133	20
2.71500	20
2.71867	20
2.72233	20
2.72600	20
2.72967	20
2.73333	20
2.73700	20
2.74067	20
2.74433	20
2.74800	21
2.75167	21
2.75533	21
2.75900	22
2.76267	22
2.76633	21
2.77000	21
2.77367	21
2.77733	21
2.78100	21
2.78467	21
2.78833	21
2.79200	22
2.79567	22
2.79933	22
2.80300	23
2.80667	23
2.81033	23
2.81400	23
2.81767	23
2.82133	24
2.82500	24
2.82867	24
2.83233	24
2.83600	24
2.83967	25
2.84333	25
2.84700	25
2.85067	25
2.85433	24
2.85800	22
2.86167	19
2.86533	14
2.86900	7
2.87267	-3
2.87633	-17
2.88000	-35
2.88367	-56
2.88733	-81
2.89100	-110
2.89467	-143
2.89833	-179
2.90200	-218
2.90567	-260
2.90933	-305
2.91300	-351
2.91667	-399
2.92033	-448
2.92400	-498
2.92767	-548
2.93133	-599
2.93500	-649
2.93867	-699
2.94233	-748
2.94600	-797
2.94967	-848
2.95333	-904
2.95700	-965
2.96067	-1025
2.96433	-1073
2.96800	-1100
2.97167	-1101
2.97533	-1076
2.97900	-1029
2.98267	-965
2.98633	-892
2.99000	-813
2.99367	-732
2.99733	-653
3.00100	-578
3.00467	-507
3.00833	-443
3.01200	-385
3.01567	-333
3.01933	-286
3.02300	-246
3.02667	-210
3.03033	-179
3.03400	-152
3.03767	-129
3.04133	-109
3.04500	-92
3.04867	-77
3.05233	-65
3.05600	-55
3.05967	-45
3.06333	-37
3.06700	-31
3.07067	-25
3.07433	-20
3.07800	-16
3.08167	-12
3.08533	-9
3.08900	-6
3.09267	-3
3.09633	-1
3.10000	1
3.10367	3
3.10733	4
3.11100	5
3.11467	6
3.11833	7
3.12200	8
3.12567	9
3.12933	10
3.13300	10
3.13667	11
3.14033	12
3.14400	12
3.14767	13
3.15133	13
3.15500	13
3.15867	13
3.16233	14
3.16600	14
3.16967	14
3.17333	14
3.17700	15
3.18067	15
3.18433	15
3.18800	16
3.19167	16
3.19533	16
3.19900	16
3.20267	16
3.20633	17
3.21000	17
3.21367	17
3.21733	17
3.22100	17
3.22467	17
3.22833	17
3.23200	17
3.23567	18
3.23933	18
3.24300	18
3.24667	19
3.25033	19
3.25400	19
3.25767	19
3.26133	20
3.26500	20
3.26867	20
3.27233	20
3.27600	20
3.27967	20
3.28333	20
3.28700	20
3.29067	20
3.29433	20
3.29800	20
3.30167	20
3.30533	20
3.30900	20
3.31267	20
3.31633	20
3.32000	20
3.32367	20
3.32733	20
3.33100	20
3.33467	20
3.33833	20
3.34200	20
3.34567	20
3.34933	20
3.35300	21
3.35667	21
3.36033	22
3.36400	22
3.36767	22
3.37133	22
3.37500	23
3.37867	23
3.38233	23
3.38600	23
3.38967	23
3.39333	23
3.39700	23
3.40067	23
3.40433	23
3.40800	23
3.41167	23
3.41533	23
3.41900	24
3.42267	24
3.42633	24
3.43000	24
3.43367	24
3.43733	24
3.44100	24
3.44467	24
3.44833	24
3.45200	24
3.45567	25
3.45933	25
3.46300	25
3.46667	25
3.47033	25
3.47400	25
3.47767	25
3.48133	25
3.48500	25
3.48867	25
3.49233	25
3.49600	25
3.49967	25
3.50333	25
3.50700	25
3.51067	25
3.51433	25
3.51800	25
3.52167	25
3.52533	25
3.52900	25
3.53267	25
3.53633	25
3.54000	25
3.54367	25
3.54733	25
3.55100	25
3.55467	24
3.55833	24
3.56200	24
3.56567	24
3.56933	24
3.57300	23
3.57667	23
3.58033	23
3.58400	23
3.58767	23
3.59133	23
3.59500	23
3.59867	23
3.60233	23
3.60600	23
3.60967	23
3.61333	23
3.61700	23
3.62067	23
3.62433	23
3.62800	23
3.63167	23
3.63533	23
3.63900	23
3.64267	23
3.64633	23
3.65000	23
3.65367	23
3.65733	23
3.66100	23
3.66467	24
3.66833	24
3.67200	24
3.67567	24
3.67933	24
3.68300	24
3.68667	24
3.69033	24
3.69400	24
3.69767	24
3.70133	24
3.70500	24
3.70867	24
3.71233	24
3.71600	24
3.71967	24
3.72333	24
3.72700	24
3.73067	24
3.73433	24
3.73800	24
3.74167	24
3.74533	24
3.74900	24
3.75267	24
3.75633	24
3.76000	24
3.76367	24
3.76733	24
3.77100	24
3.77467	24
3.77833	24
3.78200	24
3.78567	24
3.78933	24
3.79300	24
3.79667	23
3.80033	23
3.80400	23
3.80767	23
3.81133	23
3.81500	23
3.81867	23
3.82233	23
3.82600	23
3.82967	23
3.83333	23
3.83700	23
3.84067	23
3.84433	23
3.84800	23
3.85167	23
3.85533	23
3.85900	24
3.86267	24
3.86633	24
3.87000	23
3.87367	23
3.87733	23
3.88100	23
3.88467	23
3.88833	23
3.89200	23
3.89567	23
3.89933	23
3.90300	23
3.90667	23
3.91033	23
3.91400	23
3.91767	23
3.92133	24
3.92500	24
3.92867	24
3.93233	24
3.93600	23
3.93967	23
3.94333	23
3.94700	23
3.95067	23
3.95433	23
3.95800	23
3.96167	23
3.96533	23
3.96900	24
3.97267	24
3.97633	24
3.98000	24
3.98367	24
3.98733	24
3.99100	24
3.99467	24
3.99833	23

[Chromatogram (Ch3)]
Interval(msec)	220
# of Points	1091
Start Time(min)	0.002
End Time(min)	3.998
R.Time (min)	Intensity
0.00167	1
0.00533	-0
0.00900	-1
0.01267	-1
0.01633	-3
0.02000	-2
0.02367	-1
0.02733	-0
0.03100	2
0.03467	5
0.03833	8
0.04200	10
0.04567	10
0.04933	9
0.05300	9
0.05667	9
0.06033	11
0.06400	11
0.06767	10
0.07133	8
0.07500	7
0.07867	7
0.08233	8
0.08600	8
0.08967	8
0.09333	8
0.09700	7
0.10067	7
0.10433	6
0.10800	6
0.11167	5
0.11533	4
0.11900	7
0.12267	8
0.12633	9
0.13000	8
0.13367	8
0.13733	8
0.14100	5
0.14467	4
0.14833	4
0.15200	5
0.15567	9
0.15933	11
0.16300	12
0.16667	11
0.17033	11
0.17400	11
0.17767	11
0.18133	11
0.18500	11
0.18867	11
0.19233	12
0.19600	13
0.19967	13
0.20333	10
0.20700	8
0.21067	7
0.21433	8
0.21800	8
0.22167	9
0.22533	10
0.22900	10
0.23267	9
0.23633	8
0.24000	8
0.24367	9
0.24733	11
0.25100	11
0.25467	13
0.25833	12
0.26200	11
0.26567	8
0.26933	9
0.27300	10
0.27667	10
0.28033	10
0.28400	10
0.28767	12
0.29133	13
0.29500	15
0.29867	15
0.30233	14
0.30600	12
0.30967	10
0.31333	8
0.31700	9
0.32067	10
0.32433	12
0.32800	13
0.33167	13
0.33533	13
0.33900	12
0.34267	12
0.34633	14
0.35000	14
0.35367	14
0.35733	12
0.36100	11
0.36467	11
0.36833	11
0.37200	10
0.37567	11
0.37933	13
0.38300	12
0.38667	13
0.39033	16
0.39400	17
0.39767	17
0.40133	16
0.40500	14
0.40867	10
0.41233	8
0.41600	8
0.41967	11
0.42333	12
0.42700	13
0.43067	12
0.43433	12
0.43800	12
0.44167	12
0.44533	11
0.44900	11
0.45267	11
0.45633	9
0.46000	8
0.46367	9
0.46733	12
0.47100	10
0.47467	9
0.47833	11
0.48200	12
0.48567	13
0.48933	12
0.49300	12
0.49667	10
0.50033	9
0.50400	8
0.50767	8
0.51133	10
0.51500	13
0.51867	16
0.52233	17
0.52600	13
0.52967	9
0.53333	6
0.53700	6
0.54067	7
0.54433	9
0.54800	13
0.55167	12
0.55533	10
0.55900	9
0.56267	10
0.56633	10
0.57000	11
0.57367	13
0.57733	15
0.58100	16
0.58467	14
0.58833	14
0.59200	12
0.59567	9
0.59933	6
0.60300	7
0.60667	9
0.61033	10
0.61400	8
0.61767	7
0.62133	9
0.62500	12
0.62867	13
0.63233	14
0.63600	13
0.63967	12
0.64333	11
0.64700	10
0.65067	10
0.65433	11
0.65800	14
0.66167	18
0.66533	18
0.66900	19
0.67267	18
0.67633	17
0.68000	13
0.68367	11
0.68733	10
0.69100	11
0.69467	10
0.69833	9
0.70200	10
0.70567	12
0.70933	13
0.71300	12
0.71667	11
0.72033	11
0.72400	13
0.72767	12
0.73133	10
0.73500	8
0.73867	7
0.74233	6
0.74600	8
0.74967	11
0.75333	14
0.75700	16
0.76067	15
0.76433	15
0.76800	14
0.77167	13
0.77533	12
0.77900	14
0.78267	14
0.78633	14
0.79000	17
0.79367	19
0.79733	20
0.80100	19
0.80467	17
0.80833	15
0.81200	15
0.81567	15
0.81933	16
0.82300	15
0.82667	13
0.83033	13
0.83400	15
0.83767	17
0.84133	15
0.84500	15
0.84867	17
0.85233	18
0.85600	17
0.85967	16
0.86333	14
0.86700	12
0.87067	12
0.87433	15
0.87800	18
0.88167	19
0.88533	20
0.88900	21
0.89267	21
0.89633	20
0.90000	18
0.90367	18
0.90733	17
0.91100	14
0.91467	12
0.91833	13
0.92200	15
0.92567	14
0.92933	11
0.93300	12
0.93667	14
0.94033	14
0.94400	14
0.94767	14
0.95133	17
0.95500	16
0.95867	16
0.96233	16
0.96600	18
0.96967	19
0.97333	20
0.97700	20
0.98067	20
0.98433	20
0.98800	20
0.99167	19
0.99533	17
0.99900	17
1.00267	17
1.00633	17
1.01000	16
1.01367	15
1.01733	14
1.02100	14
1.02467	14
1.02833	13
1.03200	11
1.03567	10
1.03933	12
1.04300	12
1.04667	11
1.05033	11
1.05400	11
1.05767	14
1.06133	16
1.06500	16
1.06867	17
1.07233	16
1.07600	15
1.07967	15
1.08333	16
1.08700	16
1.09067	16
1.09433	18
1.09800	20
1.10167	22
1.10533	23
1.10900	23
1.11267	22
1.11633	22
1.12000	25
1.12367	24
1.12733	23
1.13100	23
1.13467	22
1.13833	19
1.14200	16
1.14567	14
1.14933	13
1.15300	13
1.15667	11
1.16033	14
1.16400	15
1.16767	16
1.17133	17
1.17500	20
1.17867	20
1.18233	18
1.18600	17
1.18967	17
1.19333	21
1.19700	22
1.20067	21
1.20433	20
1.20800	18
1.21167	19
1.21533	20
1.21900	20
1.22267	18
1.22633	15
1.23000	12
1.23367	10
1.23733	14
1.24100	17
1.24467	16
1.24833	15
1.25200	14
1.25567	14
1.25933	16
1.26300	18
1.26667	19
1.27033	18
1.27400	17
1.27767	19
1.28133	20
1.28500	19
1.28867	19
1.29233	19
1.29600	19
1.29967	20
1.30333	21
1.30700	19
1.31067	18
1.31433	16
1.31800	16
1.32167	15
1.32533	13
1.32900	13
1.33267	14
1.33633	18
1.34000	21
1.34367	22
1.34733	24
1.35100	24
1.35467	26
1.35833	28
1.36200	29
1.36567	29
1.36933	28
1.37300	29
1.37667	30
1.38033	28
1.38400	24
1.38767	23
1.39133	24
1.39500	24
1.39867	23
1.40233	22
1.40600	21
1.40967	23
1.41333	24
1.41700	22
1.42067	19
1.42433	17
1.42800	19
1.43167	20
1.43533	21
1.43900	22
1.44267	24
1.44633	24
1.45000	23
1.45367	23
1.45733	23
1.46100	23
1.46467	23
1.46833	23
1.47200	23
1.47567	24
1.47933	22
1.48300	20
1.48667	20
1.49033	21
1.49400	21
1.49767	19
1.50133	20
1.50500	21
1.50867	21
1.51233	21
1.51600	21
1.51967	22
1.52333	22
1.52700	22
1.53067	23
1.53433	23
1.53800	25
1.54167	26
1.54533	26
1.54900	25
1.55267	23
1.55633	22
1.56000	22
1.56367	22
1.56733	24
1.57100	25
1.57467	23
1.57833	20
1.58200	20
1.58567	23
1.58933	27
1.59300	28
1.59667	28
1.60033	27
1.60400	26
1.60767	25
1.61133	23
1.61500	22
1.61867	23
1.62233	24
1.62600	26
1.62967	27
1.63333	27
1.63700	28
1.64067	30
1.64433	31
1.64800	30
1.65167	29
1.65533	32
1.65900	32
1.66267	35
1.66633	34
1.67000	33
1.67367	34
1.67733	34
1.68100	37
1.68467	39
1.68833	41
1.69200	41
1.69567	42
1.69933	44
1.70300	43
1.70667	42
1.71033	43
1.71400	46
1.71767	49
1.72133	51
1.72500	52
1.72867	52
1.73233	51
1.73600	51
1.73967	51
1.74333	51
1.74700	49
1.75067	49
1.75433	48
1.75800	48
1.76167	47
1.76533	48
1.76900	48
1.77267	45
1.77633	46
1.78000	48
1.78367	49
1.78733	49
1.79100	52
1.79467	55
1.79833	56
1.80200	56
1.80567	55
1.80933	56
1.81300	56
1.81667	55
1.82033	52
1.82400	53
1.82767	56
1.83133	58
1.83500	58
1.83867	59
1.84233	60
1.84600	62
1.84967	66
1.85333	68
1.85700	69
1.86067	71
1.86433	71
1.86800	71
1.87167	71
1.87533	71
1.87900	72
1.88267	73
1.88633	73
1.89000	73
1.89367	74
1.89733	75
1.90100	75
1.90467	78
1.90833	79
1.91200	80
1.91567	83
1.91933	85
1.92300	87
1.92667	87
1.93033	86
1.93400	85
1.93767	85
1.94133	86
1.94500	87
1.94867	87
1.95233	91
1.95600	94
1.95967	98
1.96333	100
1.96700	100
1.97067	97
1.97433	94
1.97800	93
1.98167	94
1.98533	97
1.98900	100
1.99267	102
1.99633	103
2.00000	104
2.00367	106
2.00733	108
2.01100	109
2.01467	111
2.01833	114
2.02200	114
2.02567	114
2.02933	114
2.03300	115
2.03667	116
2.04033	119
2.04400	121
2.04767	121
2.05133	121
2.05500	124
2.05867	126
2.06233	126
2.06600	127
2.06967	127
2.07333	128
2.07700	131
2.08067	133
2.08433	135
2.08800	137
2.09167	139
2.09533	140
2.09900	139
2.10267	141
2.10633	143
2.11000	144
2.11367	145
2.11733	146
2.12100	147
2.12467	149
2.12833	149
2.13200	149
2.13567	150
2.13933	149
2.14300	149
2.14667	151
2.15033	153
2.15400	155
2.15767	158
2.16133	160
2.16500	161
2.16867	163
2.17233	164
2.17600	163
2.17967	165
2.18333	168
2.18700	169
2.19067	170
2.19433	171
2.19800	169
2.20167	169
2.20533	170
2.20900	173
2.21267	176
2.21633	180
2.22000	182
2.22367	186
2.22733	189
2.23100	190
2.23467	189
2.23833	191
2.24200	193
2.24567	195
2.24933	198
2.25300	202
2.25667	204
2.26033	205
2.26400	203
2.26767	202
2.27133	205
2.27500	209
2.27867	214
2.28233	217
2.28600	219
2.28967	219
2.29333	219
2.29700	220
2.30067	222
2.30433	223
2.30800	225
2.31167	226
2.31533	226
2.31900	227
2.32267	228
2.32633	230
2.33000	232
2.33367	235
2.33733	236
2.34100	239
2.34467	241
2.34833	244
2.35200	246
2.35567	247
2.35933	249
2.36300	250
2.36667	249
2.37033	249
2.37400	249
2.37767	249
2.38133	250
2.38500	252
2.38867	253
2.39233	255
2.39600	255
2.39967	253
2.40333	253
2.40700	256
2.41067	259
2.41433	260
2.41800	262
2.42167	263
2.42533	263
2.42900	262
2.43267	261
2.43633	263
2.44000	264
2.44367	277
2.44733	305
2.45100	330
2.45467	345
2.45833	356
2.46200	373
2.46567	396
2.46933	422
2.47300	448
2.47667	476
2.48033	505
2.48400	535
2.48767	567
2.49133	600
2.49500	632
2.49867	663
2.50233	688
2.50600	707
2.50967	722
2.51333	735
2.51700	745
2.52067	755
2.52433	767
2.52800	779
2.53167	787
2.53533	796
2.53900	808
2.54267	821
2.54633	833
2.55000	845
2.55367	857
2.55733	869
2.56100	879
2.56467	889
2.56833	896
2.57200	902
2.57567	903
2.57933	904
2.58300	904
2.58667	902
2.59033	898
2.59400	897
2.59767	896
2.60133	894
2.60500	890
2.60867	885
2.61233	878
2.61600	867
2.61967	854
2.62333	835
2.62700	812
2.63067	791
2.63433	771
2.63800	750
2.64167	731
2.64533	718
2.64900	707
2.65267	701
2.65633	697
2.66000	693
2.66367	690
2.66733	687
2.67100	682
2.67467	677
2.67833	673
2.68200	668
2.68567	665
2.68933	660
2.69300	657
2.69667	653
2.70033	648
2.70400	642
2.70767	634
2.71133	624
2.71500	615
2.71867	608
2.72233	600
2.72600	591
2.72967	584
2.73333	579
2.73700	574
2.74067	565
2.74433	560
2.74800	558
2.75167	556
2.75533	552
2.75900	547
2.76267	543
2.76633	539
2.77000	534
2.77367	529
2.77733	527
2.78100	524
2.78467	522
2.78833	520
2.79200	520
2.79567	516
2.79933	510
2.80300	507
2.80667	507
2.81033	508
2.81400	509
2.81767	510
2.82133	507
2.82500	507
2.82867	508
2.83233	513
2.83600	533
2.83967	572
2.84333	646
2.84700	780
2.85067	995
2.85433	1303
2.85800	1715
2.86167	2220
2.86533	2787
2.86900	3373
2.87267	3931
2.87633	4417
2.88000	4791
2.88367	5032
2.88733	5131
2.89100	5095
2.89467	4944
2.89833	4704
2.90200	4404
2.90567	4070
2.90933	3726
2.91300	3384
2.91667	3057
2.92033	2748
2.92400	2465
2.92767	2211
2.93133	1985
2.93500	1782
2.93867	1604
2.94233	1449
2.94600	1314
2.94967	1195
2.95333	1091
2.95700	1001
2.96067	927
2.96433	861
2.96800	804
2.97167	756
2.97533	715
2.97900	676
2.98267	641
2.98633	611
2.99000	584
2.99367	563
2.99733	544
3.00100	528
3.00467	513
3.00833	502
3.01200	490
3.01567	480
3.01933	473
3.02300	464
3.02667	457
3.03033	451
3.03400	444
3.03767	440
3.04133	437
3.04500	436
3.04867	436
3.05233	436
3.05600	433
3.05967	428
3.06333	423
3.06700	418
3.07067	415
3.07433	413
3.07800	411
3.08167	405
3.08533	401
3.08900	398
3.09267	394
3.09633	390
3.10000	388
3.10367	385
3.10733	383
3.11100	383
3.11467	381
3.11833	378
3.12200	373
3.12567	372
3.12933	370
3.13300	369
3.13667	365
3.14033	361
3.14400	358
3.14767	357
3.15133	354
3.15500	349
3.15867	345
3.16233	340
3.16600	336
3.16967	332
3.17333	328
3.17700	326
3.18067	326
3.18433	326
3.18800	324
3.19167	322
3.19533	319
3.19900	317
3.20267	314
3.20633	312
3.21000	309
3.21367	306
3.21733	304
3.22100	302
3.22467	299
3.22833	295
3.23200	290
3.23567	287
3.23933	284
3.24300	282
3.24667	280
3.25033	280
3.25400	280
3.25767	278
3.26133	275
3.26500	274
3.26867	275
3.27233	272
3.27600	270
3.27967	267
3.28333	263
3.28700	258
3.29067	255
3.29433	252
3.29800	247
3.30167	244
3.30533	242
3.30900	240
3.31267	239
3.31633	235
3.32000	232
3.32367	230
3.32733	228
3.33100	227
3.33467	225
3.33833	224
3.34200	221
3.34567	217
3.34933	214
3.35300	211
3.35667	208
3.36033	203
3.36400	198
3.36767	193
3.37133	189
3.37500	188
3.37867	185
3.38233	181
3.38600	177
3.38967	174
3.39333	171
3.39700	169
3.40067	167
3.40433	165
3.40800	164
3.41167	161
3.41533	156
3.41900	149
3.42267	143
3.42633	139
3.43000	138
3.43367	137
3.43733	136
3.44100	138
3.44467	138
3.44833	136
3.45200	133
3.45567	129
3.45933	127
3.46300	123
3.46667	121
3.47033	118
3.47400	116
3.47767	112
3.48133	108
3.48500	105
3.48867	105
3.49233	106
3.49600	105
3.49967	102
3.50333	96
3.50700	91
3.51067	89
3.51433	86
3.51800	83
3.52167	79
3.52533	78
3.52900	79
3.53267	79
3.53633	78
3.54000	73
3.54367	67
3.54733	64
3.55100	62
3.55467	59
3.55833	55
3.56200	52
3.56567	51
3.56933	49
3.57300	45
3.57667	41
3.58033	35
3.58400	31
3.58767	29
3.59133	28
3.59500	25
3.59867	23
3.60233	22
3.60600	23
3.60967	23
3.61333	20
3.61700	17
3.62067	14
3.62433	10
3.62800	6
3.63167	3
3.63533	-0
3.63900	-4
3.64267	-7
3.64633	-9
3.65000	-10
3.65367	-12
3.65733	-16
3.66100	-18
3.66467	-18
3.66833	-19
3.67200	-21
3.67567	-24
3.67933	-25
3.68300	-30
3.68667	-34
3.69033	-36
3.69400	-39
3.69767	-43
3.70133	-46
3.70500	-47
3.70867	-48
3.71233	-49
3.71600	-53
3.71967	-57
3.72333	-61
3.72700	-62
3.73067	-63
3.73433	-61
3.73800	-60
3.74167	-62
3.74533	-62
3.74900	-64
3.75267	-69
3.75633	-73
3.76000	-75
3.76367	-77
3.76733	-79
3.77100	-80
3.77467	-82
3.77833	-84
3.78200	-84
3.78567	-84
3.78933	-85
3.79300	-87
3.79667	-92
3.80033	-95
3.80400	-97
3.80767	-100
3.81133	-106
3.81500	-111
3.81867	-112
3.82233	-110
3.82600	-109
3.82967	-110
3.83333	-110
3.83700	-109
3.84067	-110
3.84433	-112
3.84800	-114
3.85167	-115
3.85533	-117
3.85900	-119
3.86267	-119
3.86633	-117
3.87000	-118
3.87367	-118
3.87733	-120
3.88100	-121
3.88467	-122
3.88833	-121
3.89200	-121
3.89567	-123
3.89933	-127
3.90300	-128
3.90667	-128
3.91033	-127
3.91400	-126
3.91767	-123
3.92133	-119
3.92500	-120
3.92867	-124
3.93233	-126
3.93600	-126
3.93967	-125
3.94333	-126
3.94700	-129
3.95067	-130
3.95433	-130
3.95800	-132
3.96167	-133
3.96533	-135
3.96900	-135
3.97267	-137
3.97633	-138
3.98000	-137
3.98367	-134
3.98733	-133
3.99100	-131
3.99467	-131
3.99833	-132

[Status Trace (Column Oven Temperature)]
Interval(msec)	1000
# of Points	240
Start Time(min)	0.005
End Time(min)	3.989
Intensity Units	
Intensity Multiplier	1
R.Time (min)	Intensity
0.00542	35.00
0.02208	35.01
0.03875	35.01
0.05542	35.01
0.07208	35.00
0.08875	35.01
0.10542	35.01
0.12208	35.02
0.13875	35.01
0.15542	35.01
0.17208	35.00
0.18875	35.01
0.20542	35.00
0.22208	34.99
0.23875	35.00
0.25542	34.99
0.27208	34.99
0.28875	34.99
0.30542	35.00
0.32208	35.00
0.33875	35.00
0.35542	35.00
0.37208	35.00
0.38875	35.00
0.40542	35.00
0.42208	35.00
0.43875	34.99
0.45542	35.00
0.47208	34.99
0.48875	34.99
0.50542	34.99
0.52208	35.00
0.53875	35.01
0.55542	35.01
0.57208	35.00
0.58875	35.00
0.60542	34.99
0.62208	34.99
0.63875	34.99
0.65542	35.00
0.67208	34.99
0.68875	35.00
0.70542	35.00
0.72208	35.01
0.73875	35.00
0.75542	34.99
0.77208	35.00
0.78875	35.00
0.80542	35.00
0.82208	35.00
0.83875	34.99
0.85542	35.00
0.87208	34.99
0.88875	34.98
0.90542	34.98
0.92208	34.99
0.93875	34.99
0.95542	35.00
0.97208	34.99
0.98875	34.99
1.00542	35.00
1.02208	35.01
1.03875	35.02
1.05542	35.02
1.07208	35.01
1.08875	35.00
1.10542	35.00
1.12208	35.01
1.13875	35.00
1.15542	35.00
1.17208	35.00
1.18875	34.99
1.20542	34.98
1.22208	34.98
1.23875	34.98
1.25542	34.98
1.27208	34.98
1.28875	34.98
1.30542	34.99
1.32208	34.99
1.33875	34.99
1.35542	35.00
1.37208	35.00
1.38875	35.00
1.40542	35.00
1.42208	35.00
1.43875	35.00
1.45542	35.00
1.47208	35.01
1.48875	35.01
1.50542	35.00
1.52208	35.00
1.53875	35.00
1.55542	34.99
1.57208	34.99
1.58875	35.00
1.60542	35.03
1.62208	35.14
1.63875	35.31
1.65542	35.55
1.67208	35.89
1.68875	36.25
1.70542	36.62
1.72208	36.96
1.73875	37.26
1.75542	37.60
1.77208	37.94
1.78875	38.27
1.80542	38.61
1.82208	38.94
1.83875	39.28
1.85542	39.60
1.87208	39.93
1.88875	40.27
1.90542	40.59
1.92208	40.91
1.93875	41.23
1.95542	41.55
1.97208	41.88
1.98875	42.20
2.00542	42.53
2.02208	42.85
2.03875	43.16
2.05542	43.49
2.07208	43.83
2.08875	44.16
2.10542	44.50
2.12208	44.79
2.13875	45.14
2.15542	45.44
2.17208	45.78
2.18875	46.10
2.20542	46.41
2.22208	46.78
2.23875	47.12
2.25542	47.40
2.27208	47.75
2.28875	48.09
2.30542	48.43
2.32208	48.76
2.33875	49.07
2.35542	49.38
2.37208	49.60
2.38875	49.69
2.40542	49.70
2.42208	49.70
2.43875	49.72
2.45542	49.71
2.47208	49.73
2.48875	49.70
2.50542	49.72
2.52208	49.72
2.53875	49.73
2.55542	49.75
2.57208	49.76
2.58875	49.78
2.60542	49.79
2.62208	49.81
2.63875	49.82
2.65542	49.82
2.67208	49.84
2.68875	49.85
2.70542	49.84
2.72208	49.85
2.73875	49.85
2.75542	49.85
2.77208	49.87
2.78875	49.89
2.80542	49.89
2.82208	49.88
2.83875	49.87
2.85542	49.88
2.87208	49.88
2.88875	49.89
2.90542	49.89
2.92208	49.91
2.93875	49.92
2.95542	49.93
2.97208	49.95
2.98875	49.97
3.00542	49.97
3.02208	49.97
3.03875	50.00
3.05542	50.01
3.07208	50.02
3.08875	50.03
3.10542	50.03
3.12208	50.04
3.13875	50.04
3.15542	50.05
3.17208	50.04
3.18875	50.05
3.20542	50.06
3.22208	50.07
3.23875	50.08
3.25542	50.08
3.27208	50.08
3.28875	50.09
3.30542	50.10
3.32208	50.10
3.33875	50.11
3.35542	50.11
3.37208	50.10
3.38875	50.09
3.40542	50.10
3.42208	50.09
3.43875	50.08
3.45542	50.07
3.47208	50.06
3.48875	50.05
3.50542	50.04
3.52208	50.04
3.53875	50.04
3.55542	50.04
3.57208	50.04
3.58875	50.05
3.60542	50.05
3.62208	50.04
3.63875	50.05
3.65542	50.05
3.67208	50.05
3.68875	50.05
3.70542	50.06
3.72208	50.05
3.73875	50.06
3.75542	50.06
3.77208	50.06
3.78875	50.05
3.80542	50.06
3.82208	50.06
3.83875	50.06
3.85542	50.05
3.87208	50.05
3.88875	50.05
3.90542	50.05
3.92208	50.05
3.93875	50.05
3.95542	50.06
3.97208	50.06
3.98875	50.06

[Status Trace (Injection Unit Temperature)]
Interval(msec)	1000
# of Points	240
Start Time(min)	0.005
End Time(min)	3.989
Intensity Units	
Intensity Multiplier	1
R.Time (min)	Intensity
0.00542	99.99
0.02208	99.99
0.03875	99.99
0.05542	99.98
0.07208	99.99
0.08875	99.99
0.10542	99.99
0.12208	99.99
0.13875	99.99
0.15542	99.99
0.17208	99.99
0.18875	99.99
0.20542	99.99
0.22208	99.99
0.23875	99.99
0.25542	99.98
0.27208	99.99
0.28875	99.98
0.30542	99.99
0.32208	99.99
0.33875	99.99
0.35542	99.98
0.37208	99.98
0.38875	99.98
0.40542	99.99
0.42208	99.98
0.43875	99.99
0.45542	99.98
0.47208	99.98
0.48875	99.98
0.50542	99.98
0.52208	99.98
0.53875	99.98
0.55542	99.98
0.57208	99.98
0.58875	99.98
0.60542	99.99
0.62208	99.98
0.63875	99.98
0.65542	99.98
0.67208	99.98
0.68875	99.98
0.70542	99.98
0.72208	99.98
0.73875	99.98
0.75542	99.98
0.77208	99.98
0.78875	99.98
0.80542	99.98
0.82208	99.98
0.83875	99.98
0.85542	99.98
0.87208	99.98
0.88875	99.98
0.90542	99.98
0.92208	99.98
0.93875	99.98
0.95542	99.98
0.97208	99.98
0.98875	99.98
1.00542	99.98
1.02208	99.98
1.03875	99.98
1.05542	99.98
1.07208	99.98
1.08875	99.98
1.10542	99.98
1.12208	99.98
1.13875	99.98
1.15542	99.98
1.17208	99.98
1.18875	99.98
1.20542	99.98
1.22208	99.98
1.23875	99.98
1.25542	99.98
1.27208	99.98
1.28875	99.98
1.30542	99.98
1.32208	99.98
1.33875	99.98
1.35542	99.98
1.37208	99.98
1.38875	99.98
1.40542	99.98
1.42208	99.98
1.43875	99.98
1.45542	99.99
1.47208	99.98
1.48875	99.98
1.50542	99.98
1.52208	99.98
1.53875	99.98
1.55542	99.98
1.57208	99.98
1.58875	99.98
1.60542	99.98
1.62208	99.98
1.63875	99.98
1.65542	99.98
1.67208	99.98
1.68875	99.98
1.70542	99.98
1.72208	99.99
1.73875	99.99
1.75542	99.98
1.77208	99.98
1.78875	99.99
1.80542	99.99
1.82208	99.98
1.83875	99.98
1.85542	99.98
1.87208	99.98
1.88875	99.98
1.90542	99.98
1.92208	99.98
1.93875	99.98
1.95542	99.98
1.97208	99.98
1.98875	99.98
2.00542	99.98
2.02208	99.98
2.03875	99.98
2.05542	99.98
2.07208	99.98
2.08875	99.98
2.10542	99.98
2.12208	99.98
2.13875	99.98
2.15542	99.98
2.17208	99.98
2.18875	99.98
2.20542	99.98
2.22208	99.98
2.23875	99.98
2.25542	99.98
2.27208	99.98
2.28875	99.98
2.30542	99.98
2.32208	99.98
2.33875	99.98
2.35542	99.98
2.37208	99.98
2.38875	99.98
2.40542	99.98
2.42208	99.98
2.43875	99.98
2.45542	99.98
2.47208	99.98
2.48875	99.98
2.50542	99.98
2.52208	99.98
2.53875	99.98
2.55542	99.98
2.57208	99.98
2.58875	99.98
2.60542	99.98
2.62208	99.99
2.63875	99.98
2.65542	99.99
2.67208	99.99
2.68875	99.99
2.70542	99.99
2.72208	99.99
2.73875	99.99
2.75542	99.99
2.77208	100.00
2.78875	99.99
2.80542	100.00
2.82208	100.00
2.83875	100.00
2.85542	100.00
2.87208	100.00
2.88875	100.00
2.90542	100.00
2.92208	100.00
2.93875	100.01
2.95542	100.01
2.97208	100.01
2.98875	100.01
3.00542	100.01
3.02208	100.01
3.03875	100.01
3.05542	100.02
3.07208	100.02
3.08875	100.02
3.10542	100.02
3.12208	100.02
3.13875	100.02
3.15542	100.02
3.17208	100.02
3.18875	100.02
3.20542	100.02
3.22208	100.02
3.23875	100.02
3.25542	100.03
3.27208	100.03
3.28875	100.03
3.30542	100.03
3.32208	100.03
3.33875	100.03
3.35542	100.03
3.37208	100.04
3.38875	100.03
3.40542	100.03
3.42208	100.04
3.43875	100.04
3.45542	100.04
3.47208	100.04
3.48875	100.04
3.50542	100.04
3.52208	100.04
3.53875	100.04
3.55542	100.04
3.57208	100.04
3.58875	100.05
3.60542	100.05
3.62208	100.05
3.63875	100.05
3.65542	100.05
3.67208	100.05
3.68875	100.05
3.70542	100.04
3.72208	100.05
3.73875	100.05
3.75542	100.05
3.77208	100.05
3.78875	100.05
3.80542	100.04
3.82208	100.05
3.83875	100.05
3.85542	100.05
3.87208	100.05
3.88875	100.05
3.90542	100.05
3.92208	100.05
3.93875	100.05
3.95542	100.04
3.97208	100.05
3.98875	100.05

[Status Trace (Carrier Gas Pressure)]
Interval(msec)	1000
# of Points	240
Start Time(min)	0.005
End Time(min)	3.989
Intensity Units	
Intensity Multiplier	1
R.Time (min)	Intensity
0.00542	58.00
0.02208	55.70
0.03875	56.68
0.05542	58.89
0.07208	59.71
0.08875	58.19
0.10542	57.97
0.12208	58.01
0.13875	58.01
0.15542	58.01
0.17208	58.00
0.18875	58.00
0.20542	58.00
0.22208	58.00
0.23875	58.00
0.25542	58.00
0.27208	58.00
0.28875	58.00
0.30542	58.00
0.32208	58.00
0.33875	58.00
0.35542	58.00
0.37208	58.00
0.38875	58.00
0.40542	58.00
0.42208	58.00
0.43875	58.00
0.45542	58.00
0.47208	58.00
0.48875	58.00
0.50542	58.00
0.52208	58.00
0.53875	58.00
0.55542	58.00
0.57208	58.00
0.58875	58.00
0.60542	58.00
0.62208	58.00
0.63875	58.00
0.65542	58.00
0.67208	58.00
0.68875	58.00
0.70542	58.00
0.72208	58.00
0.73875	58.00
0.75542	58.00
0.77208	58.00
0.78875	58.00
0.80542	58.00
0.82208	58.00
0.83875	58.00
0.85542	58.00
0.87208	58.00
0.88875	58.00
0.90542	58.00
0.92208	58.00
0.93875	58.00
0.95542	58.00
0.97208	58.00
0.98875	58.00
1.00542	58.00
1.02208	58.00
1.03875	58.00
1.05542	58.00
1.07208	58.00
1.08875	58.00
1.10542	58.00
1.12208	58.00
1.13875	58.00
1.15542	58.00
1.17208	58.00
1.18875	58.00
1.20542	58.00
1.22208	58.00
1.23875	58.00
1.25542	58.00
1.27208	58.00
1.28875	58.00
1.30542	58.00
1.32208	58.00
1.33875	58.00
1.35542	58.00
1.37208	58.00
1.38875	58.00
1.40542	58.00
1.42208	58.00
1.43875	58.00
1.45542	58.00
1.47208	58.00
1.48875	58.00
1.50542	58.00
1.52208	58.00
1.53875	58.00
1.55542	58.00
1.57208	58.00
1.58875	58.00
1.60542	58.00
1.62208	58.00
1.63875	58.00
1.65542	58.00
1.67208	58.01
1.68875	58.00
1.70542	58.00
1.72208	58.00
1.73875	58.00
1.75542	58.00
1.77208	58.00
1.78875	58.00
1.80542	58.00
1.82208	58.00
1.83875	58.00
1.85542	58.00
1.87208	58.00
1.88875	58.00
1.90542	58.00
1.92208	58.00
1.93875	58.00
1.95542	58.00
1.97208	58.00
1.98875	58.00
2.00542	58.00
2.02208	58.00
2.03875	58.00
2.05542	58.00
2.07208	58.00
2.08875	58.00
2.10542	58.00
2.12208	58.00
2.13875	58.00
2.15542	58.00
2.17208	58.00
2.18875	58.00
2.20542	58.00
2.22208	58.00
2.23875	58.00
2.25542	58.00
2.27208	58.00
2.28875	58.00
2.30542	58.00
2.32208	58.00
2.33875	58.00
2.35542	58.00
2.37208	58.00
2.38875	57.99
2.40542	57.99
2.42208	58.00
2.43875	58.00
2.45542	58.00
2.47208	58.00
2.48875	58.00
2.50542	57.99
2.52208	57.98
2.53875	58.00
2.55542	58.00
2.57208	58.00
2.58875	58.00
2.60542	58.00
2.62208	58.00
2.63875	58.00
2.65542	58.00
2.67208	58.00
2.68875	58.00
2.70542	58.00
2.72208	58.00
2.73875	58.00
2.75542	58.00
2.77208	58.00
2.78875	58.00
2.80542	58.00
2.82208	58.00
2.83875	58.00
2.85542	58.00
2.87208	58.00
2.88875	58.00
2.90542	58.00
2.92208	58.00
2.93875	58.00
2.95542	58.00
2.97208	58.00
2.98875	58.00
3.00542	58.00
3.02208	58.00
3.03875	58.00
3.05542	58.00
3.07208	58.00
3.08875	58.00
3.10542	58.00
3.12208	58.00
3.13875	58.00
3.15542	58.00
3.17208	58.00
3.18875	58.00
3.20542	58.00
3.22208	58.00
3.23875	58.00
3.25542	58.00
3.27208	58.00
3.28875	58.00
3.30542	58.00
3.32208	58.00
3.33875	58.00
3.35542	58.00
3.37208	58.00
3.38875	58.00
3.40542	58.00
3.42208	58.00
3.43875	58.00
3.45542	58.00
3.47208	58.00
3.48875	58.00
3.50542	58.00
3.52208	58.00
3.53875	58.00
3.55542	58.00
3.57208	58.00
3.58875	58.00
3.60542	58.00
3.62208	58.00
3.63875	58.00
3.65542	58.00
3.67208	58.00
3.68875	58.00
3.70542	58.00
3.72208	58.00
3.73875	58.00
3.75542	58.00
3.77208	58.00
3.78875	58.00
3.80542	58.00
3.82208	58.00
3.83875	58.00
3.85542	58.00
3.87208	58.00
3.88875	58.00
3.90542	58.00
3.92208	58.00
3.93875	58.00
3.95542	58.00
3.97208	58.00
3.98875	58.00

[Status Trace (Carrier Gas Flow)]
Interval(msec)	1000
# of Points	240
Start Time(min)	0.005
End Time(min)	3.989
Intensity Units	
Intensity Multiplier	1
R.Time (min)	Intensity
0.00542	34.52
0.02208	34.55
0.03875	34.55
0.05542	34.55
0.07208	34.50
0.08875	34.52
0.10542	34.52
0.12208	34.52
0.13875	34.52
0.15542	34.52
0.17208	34.52
0.18875	34.52
0.20542	34.52
0.22208	34.52
0.23875	34.52
0.25542	34.52
0.27208	34.52
0.28875	34.52
0.30542	34.52
0.32208	34.52
0.33875	34.52
0.35542	34.52
0.37208	34.52
0.38875	34.52
0.40542	34.52
0.42208	34.52
0.43875	34.52
0.45542	34.52
0.47208	34.52
0.48875	34.52
0.50542	34.52
0.52208	34.52
0.53875	34.52
0.55542	34.52
0.57208	34.52
0.58875	34.52
0.60542	34.52
0.62208	34.52
0.63875	34.52
0.65542	34.52
0.67208	34.52
0.68875	34.52
0.70542	34.52
0.72208	34.52
0.73875	34.52
0.75542	34.52
0.77208	34.52
0.78875	34.52
0.80542	34.52
0.82208	34.52
0.83875	34.52
0.85542	34.52
0.87208	34.52
0.88875	34.52
0.90542	34.52
0.92208	34.52
0.93875	34.52
0.95542	34.52
0.97208	34.52
0.98875	34.52
1.00542	34.52
1.02208	34.52
1.03875	34.52
1.05542	34.52
1.07208	34.52
1.08875	34.52
1.10542	34.52
1.12208	34.52
1.13875	34.52
1.15542	34.52
1.17208	34.52
1.18875	34.52
1.20542	34.52
1.22208	34.52
1.23875	34.52
1.25542	34.52
1.27208	34.52
1.28875	34.52
1.30542	34.52
1.32208	34.52
1.33875	34.52
1.35542	34.52
1.37208	34.52
1.38875	34.52
1.40542	34.52
1.42208	34.52
1.43875	34.52
1.45542	34.52
1.47208	34.52
1.48875	34.52
1.50542	34.52
1.52208	34.52
1.53875	34.52
1.55542	34.52
1.57208	34.52
1.58875	34.52
1.60542	34.52
1.62208	34.52
1.63875	34.52
1.65542	34.52
1.67208	34.52
1.68875	34.52
1.70542	34.52
1.72208	34.52
1.73875	34.52
1.75542	34.52
1.77208	34.52
1.78875	34.52
1.80542	34.52
1.82208	34.52
1.83875	34.52
1.85542	34.52
1.87208	34.52
1.88875	34.52
1.90542	34.52
1.92208	34.52
1.93875	34.53
1.95542	34.52
1.97208	34.52
1.98875	34.52
2.00542	34.52
2.02208	34.52
2.03875	34.52
2.05542	34.52
2.07208	34.51
2.08875	34.53
2.10542	34.52
2.12208	34.52
2.13875	34.51
2.15542	34.53
2.17208	34.52
2.18875	34.52
2.20542	34.51
2.22208	34.52
2.23875	34.52
2.25542	34.52
2.27208	34.52
2.28875	34.52
2.30542	34.52
2.32208	34.52
2.33875	34.52
2.35542	34.52
2.37208	34.52
2.38875	34.53
2.40542	34.52
2.42208	34.52
2.43875	34.52
2.45542	34.52
2.47208	34.52
2.48875	34.52
2.50542	34.52
2.52208	34.52
2.53875	34.52
2.55542	34.52
2.57208	34.52
2.58875	34.52
2.60542	34.52
2.62208	34.52
2.63875	34.52
2.65542	34.52
2.67208	34.52
2.68875	34.52
2.70542	34.52
2.72208	34.52
2.73875	34.52
2.75542	34.52
2.77208	34.52
2.78875	34.52
2.80542	34.52
2.82208	34.52
2.83875	34.52
2.85542	34.52
2.87208	34.52
2.88875	34.52
2.90542	34.52
2.92208	34.52
2.93875	34.52
2.95542	34.52
2.97208	34.52
2.98875	34.52
3.00542	34.52
3.02208	34.52
3.03875	34.52
3.05542	34.52
3.07208	34.52
3.08875	34.52
3.10542	34.52
3.12208	34.52
3.13875	34.52
3.15542	34.52
3.17208	34.52
3.18875	34.52
3.20542	34.52
3.22208	34.52
3.23875	34.52
3.25542	34.52
3.27208	34.52
3.28875	34.52
3.30542	34.52
3.32208	34.52
3.33875	34.52
3.35542	34.50
3.37208	34.52
3.38875	34.52
3.40542	34.52
3.42208	34.52
3.43875	34.52
3.45542	34.52
3.47208	34.52
3.48875	34.52
3.50542	34.52
3.52208	34.52
3.53875	34.52
3.55542	34.52
3.57208	34.52
3.58875	34.54
3.60542	34.51
3.62208	34.52
3.63875	34.52
3.65542	34.52
3.67208	34.52
3.68875	34.52
3.70542	34.52
3.72208	34.52
3.73875	34.52
3.75542	34.52
3.77208	34.52
3.78875	34.52
3.80542	34.52
3.82208	34.52
3.83875	34.52
3.85542	34.52
3.87208	34.52
3.88875	34.52
3.90542	34.52
3.92208	34.52
3.93875	34.52
3.95542	34.52
3.97208	34.52
3.98875	34.52

[Status Trace (Column Flow)]
Interval(msec)	1000
# of Points	240
Start Time(min)	0.005
End Time(min)	3.989
Intensity Units	
Intensity Multiplier	1
R.Time (min)	Intensity
0.00542	5.49
0.02208	5.23
0.03875	5.34
0.05542	5.60
0.07208	5.69
0.08875	5.52
0.10542	5.49
0.12208	5.49
0.13875	5.50
0.15542	5.49
0.17208	5.49
0.18875	5.49
0.20542	5.49
0.22208	5.49
0.23875	5.49
0.25542	5.49
0.27208	5.49
0.28875	5.49
0.30542	5.49
0.32208	5.49
0.33875	5.49
0.35542	5.49
0.37208	5.49
0.38875	5.49
0.40542	5.49
0.42208	5.49
0.43875	5.49
0.45542	5.49
0.47208	5.49
0.48875	5.49
0.50542	5.49
0.52208	5.49
0.53875	5.49
0.55542	5.49
0.57208	5.49
0.58875	5.49
0.60542	5.49
0.62208	5.49
0.63875	5.49
0.65542	5.49
0.67208	5.49
0.68875	5.49
0.70542	5.49
0.72208	5.49
0.73875	5.49
0.75542	5.49
0.77208	5.49
0.78875	5.49
0.80542	5.49
0.82208	5.49
0.83875	5.49
0.85542	5.49
0.87208	5.49
0.88875	5.49
0.90542	5.49
0.92208	5.49
0.93875	5.49
0.95542	5.49
0.97208	5.49
0.98875	5.49
1.00542	5.49
1.02208	5.49
1.03875	5.49
1.05542	5.49
1.07208	5.49
1.08875	5.49
1.10542	5.49
1.12208	5.49
1.13875	5.49
1.15542	5.49
1.17208	5.49
1.18875	5.49
1.20542	5.49
1.22208	5.49
1.23875	5.49
1.25542	5.49
1.27208	5.50
1.28875	5.49
1.30542	5.49
1.32208	5.49
1.33875	5.49
1.35542	5.49
1.37208	5.49
1.38875	5.49
1.40542	5.49
1.42208	5.49
1.43875	5.49
1.45542	5.49
1.47208	5.49
1.48875	5.49
1.50542	5.49
1.52208	5.49
1.53875	5.49
1.55542	5.49
1.57208	5.49
1.58875	5.49
1.60542	5.49
1.62208	5.49
1.63875	5.49
1.65542	5.48
1.67208	5.47
1.68875	5.46
1.70542	5.44
1.72208	5.43
1.73875	5.42
1.75542	5.41
1.77208	5.40
1.78875	5.39
1.80542	5.38
1.82208	5.37
1.83875	5.36
1.85542	5.35
1.87208	5.34
1.88875	5.33
1.90542	5.32
1.92208	5.31
1.93875	5.30
1.95542	5.29
1.97208	5.28
1.98875	5.28
2.00542	5.27
2.02208	5.26
2.03875	5.25
2.05542	5.24
2.07208	5.23
2.08875	5.22
2.10542	5.21
2.12208	5.20
2.13875	5.19
2.15542	5.18
2.17208	5.17
2.18875	5.16
2.20542	5.15
2.22208	5.14
2.23875	5.13
2.25542	5.13
2.27208	5.12
2.28875	5.11
2.30542	5.10
2.32208	5.09
2.33875	5.08
2.35542	5.07
2.37208	5.06
2.38875	5.06
2.40542	5.06
2.42208	5.06
2.43875	5.06
2.45542	5.06
2.47208	5.06
2.48875	5.06
2.50542	5.06
2.52208	5.06
2.53875	5.06
2.55542	5.06
2.57208	5.06
2.58875	5.06
2.60542	5.06
2.62208	5.06
2.63875	5.06
2.65542	5.06
2.67208	5.06
2.68875	5.06
2.70542	5.06
2.72208	5.06
2.73875	5.06
2.75542	5.06
2.77208	5.06
2.78875	5.06
2.80542	5.06
2.82208	5.06
2.83875	5.06
2.85542	5.06
2.87208	5.06
2.88875	5.06
2.90542	5.06
2.92208	5.06
2.93875	5.06
2.95542	5.06
2.97208	5.05
2.98875	5.05
3.00542	5.05
3.02208	5.05
3.03875	5.05
3.05542	5.05
3.07208	5.05
3.08875	5.05
3.10542	5.05
3.12208	5.05
3.13875	5.05
3.15542	5.05
3.17208	5.05
3.18875	5.05
3.20542	5.05
3.22208	5.05
3.23875	5.05
3.25542	5.05
3.27208	5.05
3.28875	5.05
3.30542	5.05
3.32208	5.05
3.33875	5.05
3.35542	5.05
3.37208	5.05
3.38875	5.05
3.40542	5.05
3.42208	5.05
3.43875	5.05
3.45542	5.05
3.47208	5.05
3.48875	5.05
3.50542	5.05
3.52208	5.05
3.53875	5.05
3.55542	5.05
3.57208	5.05
3.58875	5.05
3.60542	5.05
3.62208	5.05
3.63875	5.05
3.65542	5.05
3.67208	5.05
3.68875	5.05
3.70542	5.05
3.72208	5.05
3.73875	5.05
3.75542	5.05
3.77208	5.05
3.78875	5.05
3.80542	5.05
3.82208	5.05
3.83875	5.05
3.85542	5.05
3.87208	5.05
3.88875	5.05
3.90542	5.05
3.92208	5.05
3.93875	5.05
3.95542	5.05
3.97208	5.05
3.98875	5.05

[Status Trace (Linear Velocity)]
Interval(msec)	1000
# of Points	240
Start Time(min)	0.005
End Time(min)	3.989
Intensity Units	
Intensity Multiplier	1
R.Time (min)	Intensity
0.00542	39.01
0.02208	37.50
0.03875	38.14
0.05542	39.59
0.07208	40.13
0.08875	39.13
0.10542	38.99
0.12208	39.02
0.13875	39.02
0.15542	39.01
0.17208	39.01
0.18875	39.01
0.20542	39.01
0.22208	39.01
0.23875	39.01
0.25542	39.01
0.27208	39.01
0.28875	39.01
0.30542	39.01
0.32208	39.01
0.33875	39.01
0.35542	39.01
0.37208	39.01
0.38875	39.01
0.40542	39.01
0.42208	39.01
0.43875	39.01
0.45542	39.01
0.47208	39.01
0.48875	39.01
0.50542	39.01
0.52208	39.01
0.53875	39.01
0.55542	39.01
0.57208	39.01
0.58875	39.01
0.60542	39.01
0.62208	39.01
0.63875	39.01
0.65542	39.01
0.67208	39.01
0.68875	39.01
0.70542	39.01
0.72208	39.01
0.73875	39.01
0.75542	39.01
0.77208	39.01
0.78875	39.01
0.80542	39.01
0.82208	39.01
0.83875	39.01
0.85542	39.01
0.87208	39.01
0.88875	39.01
0.90542	39.01
0.92208	39.01
0.93875	39.01
0.95542	39.01
0.97208	39.01
0.98875	39.01
1.00542	39.01
1.02208	39.01
1.03875	39.01
1.05542	39.01
1.07208	39.01
1.08875	39.01
1.10542	39.01
1.12208	39.01
1.13875	39.01
1.15542	39.01
1.17208	39.01
1.18875	39.01
1.20542	39.01
1.22208	39.01
1.23875	39.01
1.25542	39.01
1.27208	39.01
1.28875	39.01
1.30542	39.01
1.32208	39.01
1.33875	39.01
1.35542	39.01
1.37208	39.01
1.38875	39.01
1.40542	39.01
1.42208	39.01
1.43875	39.01
1.45542	39.01
1.47208	39.01
1.48875	39.01
1.50542	39.01
1.52208	39.01
1.53875	39.01
1.55542	39.01
1.57208	39.01
1.58875	39.01
1.60542	39.01
1.62208	39.00
1.63875	38.98
1.65542	38.96
1.67208	38.93
1.68875	38.89
1.70542	38.86
1.72208	38.82
1.73875	38.79
1.75542	38.76
1.77208	38.73
1.78875	38.70
1.80542	38.67
1.82208	38.63
1.83875	38.60
1.85542	38.57
1.87208	38.54
1.88875	38.51
1.90542	38.48
1.92208	38.45
1.93875	38.42
1.95542	38.39
1.97208	38.36
1.98875	38.33
2.00542	38.30
2.02208	38.27
2.03875	38.24
2.05542	38.21
2.07208	38.18
2.08875	38.15
2.10542	38.12
2.12208	38.09
2.13875	38.06
2.15542	38.03
2.17208	38.00
2.18875	37.97
2.20542	37.95
2.22208	37.91
2.23875	37.88
2.25542	37.86
2.27208	37.83
2.28875	37.80
2.30542	37.77
2.32208	37.74
2.33875	37.71
2.35542	37.68
2.37208	37.66
2.38875	37.65
2.40542	37.65
2.42208	37.65
2.43875	37.65
2.45542	37.65
2.47208	37.65
2.48875	37.65
2.50542	37.65
2.52208	37.64
2.53875	37.65
2.55542	37.65
2.57208	37.65
2.58875	37.65
2.60542	37.64
2.62208	37.64
2.63875	37.64
2.65542	37.64
2.67208	37.64
2.68875	37.64
2.70542	37.64
2.72208	37.64
2.73875	37.64
2.75542	37.64
2.77208	37.64
2.78875	37.64
2.80542	37.64
2.82208	37.64
2.83875	37.64
2.85542	37.64
2.87208	37.64
2.88875	37.64
2.90542	37.64
2.92208	37.63
2.93875	37.63
2.95542	37.63
2.97208	37.63
2.98875	37.63
3.00542	37.63
3.02208	37.63
3.03875	37.63
3.05542	37.63
3.07208	37.62
3.08875	37.62
3.10542	37.62
3.12208	37.62
3.13875	37.62
3.15542	37.62
3.17208	37.62
3.18875	37.62
3.20542	37.62
3.22208	37.62
3.23875	37.62
3.25542	37.62
3.27208	37.62
3.28875	37.62
3.30542	37.62
3.32208	37.62
3.33875	37.62
3.35542	37.62
3.37208	37.62
3.38875	37.62
3.40542	37.62
3.42208	37.62
3.43875	37.62
3.45542	37.62
3.47208	37.62
3.48875	37.62
3.50542	37.62
3.52208	37.62
3.53875	37.62
3.55542	37.62
3.57208	37.62
3.58875	37.62
3.60542	37.62
3.62208	37.62
3.63875	37.62
3.65542	37.62
3.67208	37.62
3.68875	37.62
3.70542	37.62
3.72208	37.62
3.73875	37.62
3.75542	37.62
3.77208	37.62
3.78875	37.62
3.80542	37.62
3.82208	37.62
3.83875	37.62
3.85542	37.62
3.87208	37.62
3.88875	37.62
3.90542	37.62
3.92208	37.62
3.93875	37.62
3.95542	37.62
3.97208	37.62
3.98875	37.62

