[Header]
Application Name	LabSolutions
Version	5.110
Data File Name	C:\Users\User\Desktop\GC Analyses\Jack\UIC Prairie Sampling\9.16.22\220916_073.gcd
Output Date	11/29/2022
Output Time	11:10:20 AM

[File Information]
Type	Data File
Generated	11/16/2022 11:30:57 AM
Generated by	System Administrator
Modified	11/16/2022 11:35:18 AM
Modified by	System Administrator

[Sample Information]
Operator Name	System Administrator
Acquired	11/16/2022 11:31:16 AM
Sample Type	1:Standard
Level	1
Sample Name	220916_UICPrairie
Sample ID	220916_UICPrairie
ISTD Amount1	1
ISTD Amount2	1
ISTD Amount3	1
ISTD Amount4	1
ISTD Amount5	1
ISTD Amount6	1
ISTD Amount7	1
ISTD Amount8	1
ISTD Amount9	1
ISTD Amount10	1
ISTD Amount11	1
ISTD Amount12	1
ISTD Amount13	1
ISTD Amount14	1
ISTD Amount15	1
ISTD Amount16	1
ISTD Amount17	1
ISTD Amount18	1
ISTD Amount19	1
ISTD Amount20	1
ISTD Amount21	1
ISTD Amount22	1
ISTD Amount23	1
ISTD Amount24	1
ISTD Amount25	1
ISTD Amount26	1
ISTD Amount27	1
ISTD Amount28	1
ISTD Amount29	1
ISTD Amount30	1
ISTD Amount31	1
ISTD Amount32	1
Sample Amount	1
Dilution Factor	1
Vial#	1
Injection Volume	1
Injection Count	1
Bar Code	

[Original Files]
Data File	C:\Users\User\Desktop\GC Analyses\Jack\UIC Prairie Sampling\9.16.22\220916_073.gcd
Method File	C:\LabSolutions\Data\GHG_4min_2022\ghg3_togas_w_acet_4 min_new_int.gcm
Batch File	
Report Format File	c:\LabSolutions\System\DEFAULT.lsr

[File Description]


[Configuration]
Instrument Name	C0B7VH3-Instrument1
Instrument #	1
Line #	1
# of Detectors	3
Detector ID	DET#1	DET#2	DET#3
Detector Name	FID	PTCD	ECD
# of Channels	1	1	1

[Peak Table(Ch1)]
# of Peaks	3
Peak#	R.Time	I.Time	F.Time	Area	Height	A/H	Conc.	Mark	ID#	Name	k'	Plate #	Plate Ht.	Tailing	Resolution	Sep.Factor	Area Ratio	Height Ratio	Conc. %	Norm Conc.
1	1.465	1.439	1.534	4784	1661	2.880	100.000	   	1	CO	0.000	5935	25.275	0.000	0.000	0.000	0	0	16.667	16.667
2	1.571	1.534	1.648	20365	10155	2.005	100.000	 V 	2	CH4	0.073	11280	13.298	1.144	1.573	0.000	0	0	16.667	16.667
3	2.000	1.952	2.499	2143763	1018005	2.106	400.000	   	3	CO2	0.365	17285	8.678	1.184	7.149	5.034	0	0	66.667	66.667

[Peak Table(Ch2)]
# of Peaks	0

[Peak Table(Ch3)]
# of Peaks	3
Peak#	R.Time	I.Time	F.Time	Area	Height	A/H	Conc.	Mark	ID#	Name	k'	Plate #	Plate Ht.	Tailing	Resolution	Sep.Factor	Area Ratio	Height Ratio	Conc. %	Norm Conc.
1	2.458	2.216	2.499	2999	369	8.132	0.000	   			0.000	694	216.137	0.000	0.000	0.000	0	0	0.000	0.000
2	2.601	2.499	2.649	2393	339	7.065	0.000	 V 			0.058	644	232.945	0.000	0.365	0.000	0	0	0.000	0.000
3	2.884	2.660	3.921	73117	16169	4.522	1.000	   	1	N2O	0.173	12274	12.221	1.610	1.098	2.974	0	0	100.000	100.000

[Compound Results(Ch1)]
# of IDs	6
ID#	Name	R.Time	Area	Height	Conc.	Curve	3rd	2nd	1st	Constant	Area Ratio	Height Ratio	Conc. %	Norm Conc.
1	CO	1.465	4784	1661	100.000	Linear	0.000000e+00	0.000000e+00	4.784375e+001	0.000000e+00	0	0	16.667	16.667
2	CH4	1.571	20365	10155	100.000	Linear	0.000000e+00	0.000000e+00	2.036541e+002	0.000000e+00	0	0	16.667	16.667
3	CO2	2.000	2143763	1018005	400.000	Linear	0.000000e+00	0.000000e+00	5.359408e+003	0.000000e+00	0	0	66.667	66.667
4	Ethylene	0.000	0	0	0.000	Linear	0.000000e+00	0.000000e+00	0.000000e+00	0.000000e+00	0	0	0.000	0.000
5	Acetylene	0.000	0	0	0.000	Linear	0.000000e+00	0.000000e+00	0.000000e+00	0.000000e+00	0	0	0.000	0.000
6	Ethane	0.000	0	0	0.000	Linear	0.000000e+00	0.000000e+00	0.000000e+00	0.000000e+00	0	0	0.000	0.000

[Compound Results(Ch2)]
# of IDs	5
ID#	Name	R.Time	Area	Height	Conc.	Curve	3rd	2nd	1st	Constant	Area Ratio	Height Ratio	Conc. %	Norm Conc.
1	Hydrogen	0.000	0	0	0.000	Linear	0.000000e+00	0.000000e+00	0.000000e+00	0.000000e+00	0	0	0.000	0.000
2	Oxygen	0.000	0	0	0.000	Linear	0.000000e+00	0.000000e+00	0.000000e+00	0.000000e+00	0	0	0.000	0.000
3	Nitrogen	0.000	0	0	0.000	Linear	0.000000e+00	0.000000e+00	0.000000e+00	0.000000e+00	0	0	0.000	0.000
4	Methane	0.000	0	0	0.000	Linear	0.000000e+00	0.000000e+00	0.000000e+00	0.000000e+00	0	0	0.000	0.000
5	Carbon Monoxide	0.000	0	0	0.000	Linear	0.000000e+00	0.000000e+00	0.000000e+00	0.000000e+00	0	0	0.000	0.000

[Compound Results(Ch3)]
# of IDs	2
ID#	Name	R.Time	Area	Height	Conc.	Curve	3rd	2nd	1st	Constant	Area Ratio	Height Ratio	Conc. %	Norm Conc.
1	N2O	2.884	73117	16169	1.000	Linear	0.000000e+00	0.000000e+00	7.311714e+004	0.000000e+00	0	0	100.000	100.000
2	SF6	0.000	0	0	0.000	Linear	0.000000e+00	0.000000e+00	0.000000e+00	0.000000e+00	0	0	0.000	0.000

[Group Results(Ch1)]
# of Groups	0

[Group Results(Ch2)]
# of Groups	0

[Group Results(Ch3)]
# of Groups	0

[Chromatogram (Ch1)]
Interval(msec)	220
# of Points	1091
Start Time(min)	0.002
End Time(min)	3.998
R.Time (min)	Intensity
0.00167	9
0.00533	7
0.00900	4
0.01267	2
0.01633	4
0.02000	4
0.02367	2
0.02733	4
0.03100	9
0.03467	16
0.03833	22
0.04200	23
0.04567	19
0.04933	15
0.05300	14
0.05667	17
0.06033	18
0.06400	17
0.06767	15
0.07133	9
0.07500	5
0.07867	3
0.08233	3
0.08600	5
0.08967	8
0.09333	9
0.09700	6
0.10067	2
0.10433	1
0.10800	2
0.11167	5
0.11533	8
0.11900	11
0.12267	9
0.12633	1
0.13000	-7
0.13367	-12
0.13733	-18
0.14100	-22
0.14467	-20
0.14833	-15
0.15200	-9
0.15567	-7
0.15933	-7
0.16300	-8
0.16667	-9
0.17033	-6
0.17400	-3
0.17767	2
0.18133	6
0.18500	9
0.18867	7
0.19233	5
0.19600	1
0.19967	-3
0.20333	-8
0.20700	-13
0.21067	-15
0.21433	-14
0.21800	-11
0.22167	-10
0.22533	-10
0.22900	-8
0.23267	-2
0.23633	4
0.24000	8
0.24367	11
0.24733	9
0.25100	4
0.25467	-2
0.25833	-5
0.26200	-3
0.26567	-1
0.26933	-2
0.27300	-6
0.27667	-9
0.28033	-9
0.28400	-8
0.28767	-5
0.29133	-2
0.29500	2
0.29867	7
0.30233	8
0.30600	6
0.30967	3
0.31333	5
0.31700	12
0.32067	15
0.32433	12
0.32800	3
0.33167	-9
0.33533	-20
0.33900	-25
0.34267	-24
0.34633	-23
0.35000	-20
0.35367	-14
0.35733	-5
0.36100	-0
0.36467	-1
0.36833	-2
0.37200	1
0.37567	6
0.37933	9
0.38300	7
0.38667	4
0.39033	4
0.39400	4
0.39767	4
0.40133	5
0.40500	7
0.40867	8
0.41233	10
0.41600	11
0.41967	8
0.42333	1
0.42700	-7
0.43067	-12
0.43433	-14
0.43800	-12
0.44167	-8
0.44533	-6
0.44900	-6
0.45267	-7
0.45633	-6
0.46000	-7
0.46367	-8
0.46733	-11
0.47100	-16
0.47467	-21
0.47833	-22
0.48200	-20
0.48567	-16
0.48933	-12
0.49300	-11
0.49667	-10
0.50033	-10
0.50400	-11
0.50767	-10
0.51133	-4
0.51500	2
0.51867	3
0.52233	0
0.52600	-3
0.52967	-3
0.53333	-3
0.53700	-3
0.54067	-4
0.54433	-2
0.54800	0
0.55167	1
0.55533	0
0.55900	-4
0.56267	-7
0.56633	-7
0.57000	-3
0.57367	3
0.57733	7
0.58100	9
0.58467	10
0.58833	10
0.59200	4
0.59567	-7
0.59933	-16
0.60300	-24
0.60667	-27
0.61033	-24
0.61400	-17
0.61767	-11
0.62133	-7
0.62500	-5
0.62867	-4
0.63233	-0
0.63600	3
0.63967	3
0.64333	-2
0.64700	-5
0.65067	-1
0.65433	6
0.65800	12
0.66167	14
0.66533	15
0.66900	9
0.67267	1
0.67633	-6
0.68000	-13
0.68367	-15
0.68733	-17
0.69100	-15
0.69467	-14
0.69833	-18
0.70200	-22
0.70567	-22
0.70933	-23
0.71300	-24
0.71667	-25
0.72033	-24
0.72400	-21
0.72767	-18
0.73133	-14
0.73500	-9
0.73867	-3
0.74233	-1
0.74600	-2
0.74967	-6
0.75333	-11
0.75700	-13
0.76067	-9
0.76433	-3
0.76800	7
0.77167	14
0.77533	17
0.77900	20
0.78267	21
0.78633	21
0.79000	19
0.79367	14
0.79733	8
0.80100	-0
0.80467	-8
0.80833	-11
0.81200	-11
0.81567	-9
0.81933	-6
0.82300	-2
0.82667	2
0.83033	6
0.83400	9
0.83767	10
0.84133	7
0.84500	2
0.84867	-0
0.85233	-0
0.85600	-0
0.85967	-1
0.86333	-1
0.86700	2
0.87067	5
0.87433	4
0.87800	0
0.88167	-4
0.88533	-8
0.88900	-9
0.89267	-7
0.89633	-5
0.90000	-2
0.90367	-1
0.90733	0
0.91100	-1
0.91467	-1
0.91833	-0
0.92200	2
0.92567	3
0.92933	3
0.93300	3
0.93667	2
0.94033	-0
0.94400	-6
0.94767	-9
0.95133	-12
0.95500	-15
0.95867	-13
0.96233	-11
0.96600	-9
0.96967	-4
0.97333	0
0.97700	1
0.98067	-2
0.98433	-5
0.98800	-8
0.99167	-13
0.99533	-19
0.99900	-21
1.00267	-23
1.00633	-27
1.01000	-35
1.01367	-40
1.01733	-39
1.02100	-32
1.02467	-22
1.02833	-14
1.03200	-9
1.03567	-6
1.03933	-3
1.04300	-1
1.04667	2
1.05033	3
1.05400	1
1.05767	-1
1.06133	-3
1.06500	-4
1.06867	-6
1.07233	-8
1.07600	-11
1.07967	-15
1.08333	-20
1.08700	-23
1.09067	-22
1.09433	-17
1.09800	-11
1.10167	-8
1.10533	-7
1.10900	-5
1.11267	-5
1.11633	-3
1.12000	-1
1.12367	-1
1.12733	-3
1.13100	-6
1.13467	-10
1.13833	-10
1.14200	-8
1.14567	-8
1.14933	-12
1.15300	-18
1.15667	-23
1.16033	-27
1.16400	-29
1.16767	-26
1.17133	-20
1.17500	-15
1.17867	-9
1.18233	-4
1.18600	2
1.18967	6
1.19333	9
1.19700	6
1.20067	2
1.20433	-3
1.20800	-6
1.21167	-9
1.21533	-10
1.21900	-14
1.22267	-21
1.22633	-27
1.23000	-31
1.23367	-31
1.23733	-30
1.24100	-29
1.24467	-25
1.24833	-18
1.25200	-11
1.25567	-8
1.25933	-8
1.26300	-12
1.26667	-15
1.27033	-15
1.27400	-14
1.27767	-15
1.28133	-17
1.28500	-16
1.28867	-10
1.29233	-1
1.29600	7
1.29967	12
1.30333	12
1.30700	9
1.31067	3
1.31433	-4
1.31800	-10
1.32167	-15
1.32533	-19
1.32900	-22
1.33267	-24
1.33633	-25
1.34000	-27
1.34367	-29
1.34733	-28
1.35100	-25
1.35467	-19
1.35833	-12
1.36200	-6
1.36567	-3
1.36933	-3
1.37300	-4
1.37667	-6
1.38033	-7
1.38400	-9
1.38767	-14
1.39133	-19
1.39500	-21
1.39867	-18
1.40233	-11
1.40600	-4
1.40967	-1
1.41333	-2
1.41700	-4
1.42067	-3
1.42433	-1
1.42800	-1
1.43167	-5
1.43533	-11
1.43900	7
1.44267	138
1.44633	469
1.45000	901
1.45367	1267
1.45733	1508
1.46100	1631
1.46467	1667
1.46833	1651
1.47200	1610
1.47567	1555
1.47933	1482
1.48300	1382
1.48667	1248
1.49033	1089
1.49400	920
1.49767	756
1.50133	608
1.50500	484
1.50867	383
1.51233	300
1.51600	232
1.51967	180
1.52333	139
1.52700	110
1.53067	91
1.53433	85
1.53800	125
1.54167	341
1.54533	1004
1.54900	2319
1.55267	4154
1.55633	6111
1.56000	7838
1.56367	9156
1.56733	9969
1.57100	10153
1.57467	9601
1.57833	8379
1.58200	6772
1.58567	5128
1.58933	3695
1.59300	2568
1.59667	1739
1.60033	1157
1.60400	761
1.60767	498
1.61133	326
1.61500	217
1.61867	147
1.62233	99
1.62600	69
1.62967	48
1.63333	31
1.63700	17
1.64067	5
1.64433	-3
1.64800	-8
1.65167	-11
1.65533	-14
1.65900	-16
1.66267	-17
1.66633	-16
1.67000	-13
1.67367	-8
1.67733	-7
1.68100	-7
1.68467	-6
1.68833	-5
1.69200	-6
1.69567	-9
1.69933	-13
1.70300	-15
1.70667	-15
1.71033	-12
1.71400	-9
1.71767	-8
1.72133	-7
1.72500	-6
1.72867	-5
1.73233	-1
1.73600	2
1.73967	1
1.74333	1
1.74700	3
1.75067	9
1.75433	13
1.75800	13
1.76167	8
1.76533	1
1.76900	-3
1.77267	-6
1.77633	-7
1.78000	-5
1.78367	-2
1.78733	-1
1.79100	-4
1.79467	-11
1.79833	-20
1.80200	-28
1.80567	-31
1.80933	-31
1.81300	-30
1.81667	-28
1.82033	-28
1.82400	-28
1.82767	-27
1.83133	-27
1.83500	-26
1.83867	-23
1.84233	-15
1.84600	-6
1.84967	2
1.85333	6
1.85700	6
1.86067	1
1.86433	-2
1.86800	-2
1.87167	-0
1.87533	2
1.87900	6
1.88267	8
1.88633	12
1.89000	16
1.89367	19
1.89733	17
1.90100	11
1.90467	5
1.90833	1
1.91200	-1
1.91567	-5
1.91933	-6
1.92300	-8
1.92667	-9
1.93033	-7
1.93400	-5
1.93767	-1
1.94133	1
1.94500	2
1.94867	3
1.95233	14
1.95600	102
1.95967	666
1.96333	3529
1.96700	14505
1.97067	46468
1.97433	118158
1.97800	243116
1.98167	415492
1.98533	609140
1.98900	790101
1.99267	929791
1.99633	1008992
2.00000	1018046
2.00367	958690
2.00733	844921
2.01100	699582
2.01467	547787
2.01833	409427
2.02200	295261
2.02567	207719
2.02933	144040
2.03300	99383
2.03667	68819
2.04033	48198
2.04400	34370
2.04767	25089
2.05133	18819
2.05500	14531
2.05867	11547
2.06233	9424
2.06600	7882
2.06967	6736
2.07333	5862
2.07700	5181
2.08067	4639
2.08433	4191
2.08800	3813
2.09167	3488
2.09533	3208
2.09900	2965
2.10267	2756
2.10633	2580
2.11000	2429
2.11367	2296
2.11733	2175
2.12100	2065
2.12467	1964
2.12833	1870
2.13200	1784
2.13567	1704
2.13933	1631
2.14300	1563
2.14667	1498
2.15033	1437
2.15400	1383
2.15767	1334
2.16133	1294
2.16500	1257
2.16867	1218
2.17233	1179
2.17600	1140
2.17967	1105
2.18333	1072
2.18700	1040
2.19067	1010
2.19433	984
2.19800	962
2.20167	942
2.20533	923
2.20900	903
2.21267	881
2.21633	858
2.22000	834
2.22367	813
2.22733	796
2.23100	781
2.23467	766
2.23833	753
2.24200	744
2.24567	735
2.24933	725
2.25300	713
2.25667	701
2.26033	689
2.26400	678
2.26767	663
2.27133	648
2.27500	632
2.27867	617
2.28233	601
2.28600	585
2.28967	572
2.29333	563
2.29700	558
2.30067	553
2.30433	543
2.30800	529
2.31167	517
2.31533	508
2.31900	499
2.32267	491
2.32633	485
2.33000	482
2.33367	478
2.33733	473
2.34100	470
2.34467	470
2.34833	471
2.35200	472
2.35567	474
2.35933	473
2.36300	467
2.36667	459
2.37033	453
2.37400	446
2.37767	439
2.38133	435
2.38500	433
2.38867	428
2.39233	421
2.39600	415
2.39967	410
2.40333	405
2.40700	403
2.41067	404
2.41433	407
2.41800	409
2.42167	410
2.42533	411
2.42900	409
2.43267	405
2.43633	399
2.44000	391
2.44367	384
2.44733	380
2.45100	378
2.45467	374
2.45833	368
2.46200	363
2.46567	360
2.46933	360
2.47300	360
2.47667	358
2.48033	353
2.48400	344
2.48767	335
2.49133	329
2.49500	324
2.49867	320
2.50233	318
2.50600	319
2.50967	323
2.51333	327
2.51700	327
2.52067	325
2.52433	324
2.52800	324
2.53167	324
2.53533	324
2.53900	327
2.54267	333
2.54633	338
2.55000	337
2.55367	330
2.55733	318
2.56100	309
2.56467	304
2.56833	302
2.57200	303
2.57567	302
2.57933	297
2.58300	289
2.58667	282
2.59033	278
2.59400	278
2.59767	279
2.60133	283
2.60500	289
2.60867	292
2.61233	289
2.61600	285
2.61967	281
2.62333	276
2.62700	271
2.63067	268
2.63433	271
2.63800	275
2.64167	278
2.64533	279
2.64900	279
2.65267	280
2.65633	284
2.66000	289
2.66367	288
2.66733	279
2.67100	271
2.67467	264
2.67833	259
2.68200	257
2.68567	257
2.68933	261
2.69300	265
2.69667	272
2.70033	278
2.70400	284
2.70767	290
2.71133	294
2.71500	293
2.71867	289
2.72233	282
2.72600	277
2.72967	272
2.73333	267
2.73700	266
2.74067	263
2.74433	262
2.74800	264
2.75167	266
2.75533	266
2.75900	266
2.76267	268
2.76633	272
2.77000	273
2.77367	270
2.77733	265
2.78100	261
2.78467	256
2.78833	252
2.79200	250
2.79567	250
2.79933	252
2.80300	253
2.80667	253
2.81033	252
2.81400	255
2.81767	258
2.82133	261
2.82500	265
2.82867	267
2.83233	268
2.83600	272
2.83967	275
2.84333	276
2.84700	272
2.85067	266
2.85433	258
2.85800	251
2.86167	249
2.86533	253
2.86900	258
2.87267	259
2.87633	258
2.88000	257
2.88367	258
2.88733	260
2.89100	263
2.89467	266
2.89833	267
2.90200	269
2.90567	268
2.90933	264
2.91300	257
2.91667	250
2.92033	244
2.92400	240
2.92767	240
2.93133	241
2.93500	242
2.93867	244
2.94233	245
2.94600	246
2.94967	250
2.95333	255
2.95700	259
2.96067	262
2.96433	260
2.96800	255
2.97167	249
2.97533	245
2.97900	247
2.98267	253
2.98633	258
2.99000	262
2.99367	264
2.99733	264
3.00100	264
3.00467	262
3.00833	262
3.01200	265
3.01567	269
3.01933	270
3.02300	268
3.02667	267
3.03033	268
3.03400	271
3.03767	274
3.04133	277
3.04500	276
3.04867	268
3.05233	262
3.05600	259
3.05967	260
3.06333	259
3.06700	255
3.07067	249
3.07433	243
3.07800	241
3.08167	241
3.08533	243
3.08900	243
3.09267	244
3.09633	247
3.10000	250
3.10367	250
3.10733	248
3.11100	245
3.11467	241
3.11833	238
3.12200	239
3.12567	243
3.12933	247
3.13300	249
3.13667	249
3.14033	248
3.14400	245
3.14767	239
3.15133	235
3.15500	233
3.15867	234
3.16233	240
3.16600	249
3.16967	258
3.17333	265
3.17700	269
3.18067	265
3.18433	258
3.18800	254
3.19167	253
3.19533	256
3.19900	262
3.20267	264
3.20633	263
3.21000	261
3.21367	261
3.21733	261
3.22100	260
3.22467	258
3.22833	258
3.23200	259
3.23567	260
3.23933	258
3.24300	255
3.24667	252
3.25033	253
3.25400	257
3.25767	263
3.26133	272
3.26500	281
3.26867	281
3.27233	276
3.27600	269
3.27967	265
3.28333	265
3.28700	261
3.29067	252
3.29433	240
3.29800	234
3.30167	234
3.30533	237
3.30900	242
3.31267	244
3.31633	244
3.32000	242
3.32367	241
3.32733	242
3.33100	244
3.33467	249
3.33833	255
3.34200	261
3.34567	262
3.34933	261
3.35300	259
3.35667	257
3.36033	259
3.36400	265
3.36767	274
3.37133	278
3.37500	272
3.37867	258
3.38233	243
3.38600	231
3.38967	223
3.39333	223
3.39700	229
3.40067	239
3.40433	247
3.40800	250
3.41167	250
3.41533	247
3.41900	245
3.42267	244
3.42633	248
3.43000	252
3.43367	253
3.43733	254
3.44100	257
3.44467	261
3.44833	261
3.45200	254
3.45567	245
3.45933	237
3.46300	232
3.46667	228
3.47033	224
3.47400	223
3.47767	227
3.48133	231
3.48500	236
3.48867	239
3.49233	243
3.49600	249
3.49967	255
3.50333	260
3.50700	264
3.51067	265
3.51433	260
3.51800	250
3.52167	242
3.52533	239
3.52900	238
3.53267	238
3.53633	242
3.54000	248
3.54367	253
3.54733	254
3.55100	254
3.55467	253
3.55833	254
3.56200	255
3.56567	259
3.56933	262
3.57300	262
3.57667	259
3.58033	256
3.58400	254
3.58767	255
3.59133	258
3.59500	262
3.59867	263
3.60233	265
3.60600	267
3.60967	269
3.61333	267
3.61700	263
3.62067	260
3.62433	257
3.62800	253
3.63167	248
3.63533	243
3.63900	243
3.64267	247
3.64633	249
3.65000	248
3.65367	248
3.65733	251
3.66100	257
3.66467	263
3.66833	268
3.67200	273
3.67567	273
3.67933	268
3.68300	262
3.68667	259
3.69033	257
3.69400	254
3.69767	253
3.70133	251
3.70500	248
3.70867	250
3.71233	255
3.71600	254
3.71967	249
3.72333	244
3.72700	245
3.73067	252
3.73433	265
3.73800	278
3.74167	285
3.74533	283
3.74900	275
3.75267	268
3.75633	261
3.76000	255
3.76367	251
3.76733	251
3.77100	252
3.77467	254
3.77833	255
3.78200	258
3.78567	261
3.78933	265
3.79300	269
3.79667	271
3.80033	269
3.80400	267
3.80767	267
3.81133	270
3.81500	271
3.81867	271
3.82233	267
3.82600	261
3.82967	259
3.83333	263
3.83700	266
3.84067	266
3.84433	265
3.84800	261
3.85167	256
3.85533	254
3.85900	255
3.86267	255
3.86633	253
3.87000	250
3.87367	249
3.87733	249
3.88100	249
3.88467	251
3.88833	256
3.89200	260
3.89567	262
3.89933	261
3.90300	261
3.90667	262
3.91033	263
3.91400	265
3.91767	266
3.92133	267
3.92500	265
3.92867	264
3.93233	261
3.93600	260
3.93967	257
3.94333	252
3.94700	249
3.95067	247
3.95433	248
3.95800	253
3.96167	260
3.96533	266
3.96900	269
3.97267	271
3.97633	271
3.98000	270
3.98367	269
3.98733	270
3.99100	270
3.99467	269
3.99833	268

[Chromatogram (Ch2)]
Interval(msec)	220
# of Points	1091
Start Time(min)	0.002
End Time(min)	3.998
R.Time (min)	Intensity
0.00167	1
0.00533	2
0.00900	2
0.01267	3
0.01633	3
0.02000	4
0.02367	4
0.02733	5
0.03100	5
0.03467	5
0.03833	5
0.04200	5
0.04567	5
0.04933	6
0.05300	6
0.05667	6
0.06033	7
0.06400	7
0.06767	7
0.07133	7
0.07500	7
0.07867	7
0.08233	6
0.08600	6
0.08967	6
0.09333	6
0.09700	6
0.10067	6
0.10433	6
0.10800	6
0.11167	6
0.11533	6
0.11900	6
0.12267	6
0.12633	6
0.13000	7
0.13367	7
0.13733	7
0.14100	7
0.14467	7
0.14833	7
0.15200	7
0.15567	7
0.15933	7
0.16300	6
0.16667	6
0.17033	5
0.17400	5
0.17767	5
0.18133	5
0.18500	5
0.18867	5
0.19233	4
0.19600	4
0.19967	4
0.20333	4
0.20700	3
0.21067	3
0.21433	4
0.21800	4
0.22167	4
0.22533	4
0.22900	4
0.23267	4
0.23633	4
0.24000	4
0.24367	4
0.24733	4
0.25100	4
0.25467	4
0.25833	4
0.26200	4
0.26567	3
0.26933	3
0.27300	3
0.27667	3
0.28033	3
0.28400	3
0.28767	3
0.29133	3
0.29500	3
0.29867	3
0.30233	3
0.30600	3
0.30967	3
0.31333	3
0.31700	3
0.32067	3
0.32433	3
0.32800	3
0.33167	3
0.33533	3
0.33900	2
0.34267	3
0.34633	3
0.35000	3
0.35367	3
0.35733	3
0.36100	3
0.36467	4
0.36833	4
0.37200	4
0.37567	4
0.37933	4
0.38300	4
0.38667	4
0.39033	4
0.39400	4
0.39767	4
0.40133	4
0.40500	4
0.40867	4
0.41233	4
0.41600	4
0.41967	4
0.42333	4
0.42700	4
0.43067	4
0.43433	4
0.43800	4
0.44167	4
0.44533	4
0.44900	4
0.45267	4
0.45633	4
0.46000	3
0.46367	3
0.46733	3
0.47100	3
0.47467	3
0.47833	3
0.48200	3
0.48567	3
0.48933	3
0.49300	3
0.49667	4
0.50033	4
0.50400	4
0.50767	4
0.51133	4
0.51500	4
0.51867	4
0.52233	4
0.52600	4
0.52967	4
0.53333	4
0.53700	5
0.54067	5
0.54433	5
0.54800	5
0.55167	5
0.55533	5
0.55900	5
0.56267	5
0.56633	5
0.57000	5
0.57367	5
0.57733	5
0.58100	5
0.58467	5
0.58833	5
0.59200	4
0.59567	4
0.59933	4
0.60300	4
0.60667	4
0.61033	4
0.61400	4
0.61767	4
0.62133	4
0.62500	4
0.62867	4
0.63233	4
0.63600	4
0.63967	4
0.64333	4
0.64700	4
0.65067	4
0.65433	4
0.65800	4
0.66167	4
0.66533	4
0.66900	3
0.67267	3
0.67633	3
0.68000	3
0.68367	3
0.68733	3
0.69100	3
0.69467	3
0.69833	3
0.70200	3
0.70567	3
0.70933	4
0.71300	4
0.71667	4
0.72033	4
0.72400	4
0.72767	4
0.73133	4
0.73500	4
0.73867	4
0.74233	4
0.74600	4
0.74967	4
0.75333	4
0.75700	5
0.76067	5
0.76433	5
0.76800	5
0.77167	5
0.77533	5
0.77900	5
0.78267	5
0.78633	5
0.79000	5
0.79367	5
0.79733	5
0.80100	5
0.80467	5
0.80833	5
0.81200	5
0.81567	6
0.81933	5
0.82300	5
0.82667	5
0.83033	5
0.83400	5
0.83767	5
0.84133	5
0.84500	5
0.84867	5
0.85233	5
0.85600	5
0.85967	5
0.86333	5
0.86700	5
0.87067	5
0.87433	5
0.87800	6
0.88167	6
0.88533	5
0.88900	5
0.89267	5
0.89633	5
0.90000	4
0.90367	4
0.90733	4
0.91100	4
0.91467	4
0.91833	4
0.92200	4
0.92567	4
0.92933	4
0.93300	4
0.93667	4
0.94033	4
0.94400	4
0.94767	4
0.95133	4
0.95500	4
0.95867	4
0.96233	4
0.96600	4
0.96967	4
0.97333	4
0.97700	4
0.98067	4
0.98433	4
0.98800	4
0.99167	4
0.99533	4
0.99900	4
1.00267	4
1.00633	4
1.01000	4
1.01367	4
1.01733	4
1.02100	4
1.02467	4
1.02833	4
1.03200	4
1.03567	5
1.03933	5
1.04300	5
1.04667	5
1.05033	5
1.05400	5
1.05767	5
1.06133	5
1.06500	5
1.06867	5
1.07233	5
1.07600	5
1.07967	5
1.08333	5
1.08700	4
1.09067	4
1.09433	4
1.09800	4
1.10167	4
1.10533	4
1.10900	3
1.11267	3
1.11633	3
1.12000	3
1.12367	3
1.12733	3
1.13100	3
1.13467	3
1.13833	3
1.14200	3
1.14567	3
1.14933	3
1.15300	4
1.15667	4
1.16033	4
1.16400	4
1.16767	4
1.17133	4
1.17500	5
1.17867	5
1.18233	5
1.18600	5
1.18967	5
1.19333	5
1.19700	5
1.20067	4
1.20433	4
1.20800	4
1.21167	4
1.21533	4
1.21900	4
1.22267	4
1.22633	4
1.23000	4
1.23367	4
1.23733	4
1.24100	4
1.24467	4
1.24833	3
1.25200	3
1.25567	3
1.25933	3
1.26300	3
1.26667	4
1.27033	4
1.27400	4
1.27767	5
1.28133	5
1.28500	5
1.28867	5
1.29233	5
1.29600	5
1.29967	6
1.30333	6
1.30700	6
1.31067	6
1.31433	6
1.31800	6
1.32167	6
1.32533	6
1.32900	6
1.33267	6
1.33633	6
1.34000	6
1.34367	6
1.34733	6
1.35100	5
1.35467	5
1.35833	5
1.36200	6
1.36567	6
1.36933	6
1.37300	6
1.37667	6
1.38033	6
1.38400	6
1.38767	6
1.39133	6
1.39500	6
1.39867	6
1.40233	6
1.40600	6
1.40967	5
1.41333	5
1.41700	5
1.42067	5
1.42433	5
1.42800	5
1.43167	5
1.43533	5
1.43900	5
1.44267	5
1.44633	4
1.45000	4
1.45367	4
1.45733	4
1.46100	4
1.46467	4
1.46833	5
1.47200	5
1.47567	5
1.47933	4
1.48300	4
1.48667	4
1.49033	4
1.49400	4
1.49767	4
1.50133	4
1.50500	4
1.50867	3
1.51233	3
1.51600	3
1.51967	4
1.52333	4
1.52700	4
1.53067	4
1.53433	4
1.53800	5
1.54167	5
1.54533	5
1.54900	6
1.55267	6
1.55633	6
1.56000	6
1.56367	6
1.56733	6
1.57100	6
1.57467	6
1.57833	6
1.58200	6
1.58567	5
1.58933	5
1.59300	4
1.59667	4
1.60033	3
1.60400	2
1.60767	0
1.61133	-2
1.61500	-4
1.61867	-6
1.62233	-8
1.62600	-11
1.62967	-14
1.63333	-17
1.63700	-20
1.64067	-23
1.64433	-27
1.64800	-31
1.65167	-35
1.65533	-39
1.65900	-42
1.66267	-47
1.66633	-51
1.67000	-56
1.67367	-60
1.67733	-65
1.68100	-71
1.68467	-76
1.68833	-80
1.69200	-84
1.69567	-88
1.69933	-91
1.70300	-94
1.70667	-96
1.71033	-98
1.71400	-100
1.71767	-101
1.72133	-103
1.72500	-104
1.72867	-105
1.73233	-105
1.73600	-106
1.73967	-106
1.74333	-107
1.74700	-106
1.75067	-106
1.75433	-106
1.75800	-106
1.76167	-107
1.76533	-107
1.76900	-108
1.77267	-109
1.77633	-110
1.78000	-111
1.78367	-112
1.78733	-113
1.79100	-114
1.79467	-115
1.79833	-115
1.80200	-115
1.80567	-115
1.80933	-114
1.81300	-113
1.81667	-112
1.82033	-111
1.82400	-111
1.82767	-110
1.83133	-110
1.83500	-111
1.83867	-112
1.84233	-112
1.84600	-113
1.84967	-113
1.85333	-114
1.85700	-114
1.86067	-114
1.86433	-114
1.86800	-114
1.87167	-115
1.87533	-115
1.87900	-115
1.88267	-115
1.88633	-115
1.89000	-115
1.89367	-114
1.89733	-114
1.90100	-114
1.90467	-113
1.90833	-113
1.91200	-113
1.91567	-113
1.91933	-113
1.92300	-113
1.92667	-113
1.93033	-112
1.93400	-112
1.93767	-112
1.94133	-112
1.94500	-111
1.94867	-111
1.95233	-111
1.95600	-110
1.95967	-110
1.96333	-110
1.96700	-110
1.97067	-109
1.97433	-109
1.97800	-109
1.98167	-109
1.98533	-109
1.98900	-109
1.99267	-108
1.99633	-108
2.00000	-108
2.00367	-107
2.00733	-107
2.01100	-107
2.01467	-106
2.01833	-106
2.02200	-106
2.02567	-105
2.02933	-105
2.03300	-105
2.03667	-106
2.04033	-106
2.04400	-106
2.04767	-106
2.05133	-106
2.05500	-105
2.05867	-104
2.06233	-103
2.06600	-102
2.06967	-101
2.07333	-100
2.07700	-100
2.08067	-99
2.08433	-99
2.08800	-98
2.09167	-98
2.09533	-98
2.09900	-97
2.10267	-97
2.10633	-97
2.11000	-97
2.11367	-97
2.11733	-97
2.12100	-97
2.12467	-97
2.12833	-97
2.13200	-97
2.13567	-97
2.13933	-97
2.14300	-97
2.14667	-97
2.15033	-96
2.15400	-96
2.15767	-95
2.16133	-94
2.16500	-94
2.16867	-94
2.17233	-93
2.17600	-93
2.17967	-92
2.18333	-92
2.18700	-91
2.19067	-91
2.19433	-91
2.19800	-91
2.20167	-91
2.20533	-90
2.20900	-90
2.21267	-89
2.21633	-89
2.22000	-88
2.22367	-88
2.22733	-88
2.23100	-88
2.23467	-87
2.23833	-87
2.24200	-86
2.24567	-85
2.24933	-84
2.25300	-84
2.25667	-84
2.26033	-84
2.26400	-84
2.26767	-83
2.27133	-82
2.27500	-81
2.27867	-80
2.28233	-80
2.28600	-79
2.28967	-79
2.29333	-79
2.29700	-79
2.30067	-78
2.30433	-78
2.30800	-78
2.31167	-78
2.31533	-79
2.31900	-79
2.32267	-79
2.32633	-79
2.33000	-78
2.33367	-78
2.33733	-78
2.34100	-77
2.34467	-76
2.34833	-76
2.35200	-75
2.35567	-74
2.35933	-73
2.36300	-72
2.36667	-71
2.37033	-70
2.37400	-69
2.37767	-67
2.38133	-64
2.38500	-61
2.38867	-58
2.39233	-53
2.39600	-49
2.39967	-44
2.40333	-39
2.40700	-34
2.41067	-29
2.41433	-25
2.41800	-22
2.42167	-18
2.42533	-15
2.42900	-13
2.43267	-10
2.43633	-8
2.44000	-6
2.44367	-4
2.44733	-2
2.45100	-0
2.45467	1
2.45833	2
2.46200	4
2.46567	5
2.46933	6
2.47300	7
2.47667	9
2.48033	10
2.48400	11
2.48767	12
2.49133	13
2.49500	14
2.49867	15
2.50233	16
2.50600	17
2.50967	17
2.51333	18
2.51700	19
2.52067	19
2.52433	19
2.52800	19
2.53167	19
2.53533	19
2.53900	20
2.54267	20
2.54633	21
2.55000	22
2.55367	22
2.55733	22
2.56100	22
2.56467	22
2.56833	22
2.57200	22
2.57567	23
2.57933	23
2.58300	24
2.58667	24
2.59033	25
2.59400	25
2.59767	25
2.60133	26
2.60500	26
2.60867	26
2.61233	26
2.61600	26
2.61967	27
2.62333	27
2.62700	27
2.63067	28
2.63433	28
2.63800	28
2.64167	29
2.64533	29
2.64900	30
2.65267	30
2.65633	30
2.66000	30
2.66367	31
2.66733	31
2.67100	31
2.67467	32
2.67833	32
2.68200	33
2.68567	33
2.68933	33
2.69300	33
2.69667	33
2.70033	33
2.70400	33
2.70767	33
2.71133	32
2.71500	32
2.71867	31
2.72233	31
2.72600	31
2.72967	31
2.73333	31
2.73700	32
2.74067	32
2.74433	32
2.74800	33
2.75167	33
2.75533	34
2.75900	35
2.76267	35
2.76633	36
2.77000	36
2.77367	36
2.77733	35
2.78100	35
2.78467	35
2.78833	35
2.79200	34
2.79567	34
2.79933	33
2.80300	33
2.80667	33
2.81033	32
2.81400	32
2.81767	32
2.82133	33
2.82500	33
2.82867	33
2.83233	34
2.83600	34
2.83967	34
2.84333	34
2.84700	34
2.85067	32
2.85433	28
2.85800	22
2.86167	13
2.86533	0
2.86900	-17
2.87267	-38
2.87633	-64
2.88000	-95
2.88367	-132
2.88733	-173
2.89100	-219
2.89467	-269
2.89833	-324
2.90200	-383
2.90567	-445
2.90933	-511
2.91300	-579
2.91667	-651
2.92033	-724
2.92400	-800
2.92767	-878
2.93133	-958
2.93500	-1039
2.93867	-1122
2.94233	-1207
2.94600	-1294
2.94967	-1379
2.95333	-1453
2.95700	-1502
2.96067	-1519
2.96433	-1500
2.96800	-1448
2.97167	-1371
2.97533	-1276
2.97900	-1170
2.98267	-1059
2.98633	-949
2.99000	-843
2.99367	-743
2.99733	-650
3.00100	-566
3.00467	-490
3.00833	-422
3.01200	-362
3.01567	-310
3.01933	-264
3.02300	-224
3.02667	-189
3.03033	-160
3.03400	-134
3.03767	-112
3.04133	-93
3.04500	-77
3.04867	-63
3.05233	-51
3.05600	-41
3.05967	-32
3.06333	-25
3.06700	-19
3.07067	-14
3.07433	-9
3.07800	-5
3.08167	-2
3.08533	1
3.08900	3
3.09267	6
3.09633	8
3.10000	10
3.10367	11
3.10733	13
3.11100	14
3.11467	15
3.11833	16
3.12200	17
3.12567	18
3.12933	19
3.13300	19
3.13667	20
3.14033	21
3.14400	21
3.14767	22
3.15133	22
3.15500	23
3.15867	23
3.16233	24
3.16600	24
3.16967	24
3.17333	25
3.17700	25
3.18067	25
3.18433	26
3.18800	26
3.19167	27
3.19533	27
3.19900	27
3.20267	28
3.20633	28
3.21000	28
3.21367	28
3.21733	28
3.22100	28
3.22467	28
3.22833	28
3.23200	28
3.23567	28
3.23933	28
3.24300	29
3.24667	29
3.25033	29
3.25400	29
3.25767	29
3.26133	29
3.26500	29
3.26867	29
3.27233	29
3.27600	29
3.27967	29
3.28333	29
3.28700	29
3.29067	30
3.29433	30
3.29800	30
3.30167	30
3.30533	31
3.30900	31
3.31267	31
3.31633	32
3.32000	32
3.32367	33
3.32733	33
3.33100	33
3.33467	33
3.33833	34
3.34200	34
3.34567	34
3.34933	34
3.35300	34
3.35667	34
3.36033	34
3.36400	35
3.36767	35
3.37133	35
3.37500	36
3.37867	36
3.38233	36
3.38600	36
3.38967	36
3.39333	36
3.39700	36
3.40067	36
3.40433	36
3.40800	36
3.41167	36
3.41533	36
3.41900	36
3.42267	36
3.42633	36
3.43000	36
3.43367	36
3.43733	36
3.44100	36
3.44467	36
3.44833	36
3.45200	36
3.45567	36
3.45933	36
3.46300	36
3.46667	35
3.47033	35
3.47400	35
3.47767	34
3.48133	34
3.48500	34
3.48867	34
3.49233	34
3.49600	34
3.49967	34
3.50333	34
3.50700	34
3.51067	34
3.51433	34
3.51800	34
3.52167	34
3.52533	35
3.52900	35
3.53267	35
3.53633	35
3.54000	35
3.54367	35
3.54733	35
3.55100	35
3.55467	34
3.55833	34
3.56200	34
3.56567	34
3.56933	34
3.57300	34
3.57667	34
3.58033	35
3.58400	35
3.58767	35
3.59133	35
3.59500	35
3.59867	35
3.60233	35
3.60600	35
3.60967	36
3.61333	36
3.61700	36
3.62067	36
3.62433	36
3.62800	36
3.63167	36
3.63533	35
3.63900	35
3.64267	35
3.64633	36
3.65000	36
3.65367	36
3.65733	36
3.66100	36
3.66467	36
3.66833	36
3.67200	36
3.67567	36
3.67933	36
3.68300	36
3.68667	35
3.69033	35
3.69400	35
3.69767	35
3.70133	36
3.70500	36
3.70867	36
3.71233	36
3.71600	36
3.71967	36
3.72333	37
3.72700	37
3.73067	37
3.73433	37
3.73800	37
3.74167	37
3.74533	37
3.74900	37
3.75267	37
3.75633	37
3.76000	38
3.76367	38
3.76733	38
3.77100	38
3.77467	37
3.77833	37
3.78200	37
3.78567	37
3.78933	37
3.79300	37
3.79667	37
3.80033	37
3.80400	37
3.80767	37
3.81133	37
3.81500	37
3.81867	38
3.82233	37
3.82600	37
3.82967	37
3.83333	37
3.83700	37
3.84067	37
3.84433	37
3.84800	37
3.85167	36
3.85533	36
3.85900	36
3.86267	36
3.86633	36
3.87000	36
3.87367	36
3.87733	36
3.88100	36
3.88467	36
3.88833	36
3.89200	36
3.89567	36
3.89933	36
3.90300	36
3.90667	36
3.91033	36
3.91400	36
3.91767	36
3.92133	36
3.92500	36
3.92867	36
3.93233	36
3.93600	36
3.93967	36
3.94333	36
3.94700	36
3.95067	36
3.95433	36
3.95800	36
3.96167	36
3.96533	36
3.96900	36
3.97267	36
3.97633	36
3.98000	36
3.98367	36
3.98733	36
3.99100	36
3.99467	36
3.99833	36

[Chromatogram (Ch3)]
Interval(msec)	220
# of Points	1091
Start Time(min)	0.002
End Time(min)	3.998
R.Time (min)	Intensity
0.00167	0
0.00533	-1
0.00900	-2
0.01267	-1
0.01633	-3
0.02000	-5
0.02367	-4
0.02733	-2
0.03100	-1
0.03467	-1
0.03833	-2
0.04200	-0
0.04567	-0
0.04933	-1
0.05300	-2
0.05667	-3
0.06033	-3
0.06400	-3
0.06767	-1
0.07133	3
0.07500	4
0.07867	3
0.08233	2
0.08600	1
0.08967	-0
0.09333	-1
0.09700	1
0.10067	1
0.10433	2
0.10800	2
0.11167	2
0.11533	1
0.11900	1
0.12267	1
0.12633	1
0.13000	-1
0.13367	-3
0.13733	-3
0.14100	-4
0.14467	-5
0.14833	-4
0.15200	-2
0.15567	-3
0.15933	-3
0.16300	-2
0.16667	1
0.17033	1
0.17400	-1
0.17767	-4
0.18133	-5
0.18500	-8
0.18867	-11
0.19233	-11
0.19600	-10
0.19967	-10
0.20333	-9
0.20700	-8
0.21067	-8
0.21433	-7
0.21800	-8
0.22167	-10
0.22533	-10
0.22900	-9
0.23267	-11
0.23633	-12
0.24000	-11
0.24367	-8
0.24733	-4
0.25100	-3
0.25467	-3
0.25833	-4
0.26200	-4
0.26567	-6
0.26933	-7
0.27300	-8
0.27667	-8
0.28033	-8
0.28400	-7
0.28767	-8
0.29133	-7
0.29500	-5
0.29867	-5
0.30233	-5
0.30600	-7
0.30967	-7
0.31333	-4
0.31700	-3
0.32067	-3
0.32433	-2
0.32800	-4
0.33167	-6
0.33533	-7
0.33900	-7
0.34267	-5
0.34633	-5
0.35000	-6
0.35367	-6
0.35733	-4
0.36100	-3
0.36467	-4
0.36833	-6
0.37200	-9
0.37567	-12
0.37933	-12
0.38300	-13
0.38667	-13
0.39033	-14
0.39400	-14
0.39767	-12
0.40133	-11
0.40500	-11
0.40867	-11
0.41233	-12
0.41600	-12
0.41967	-10
0.42333	-8
0.42700	-7
0.43067	-10
0.43433	-12
0.43800	-12
0.44167	-10
0.44533	-8
0.44900	-9
0.45267	-8
0.45633	-7
0.46000	-9
0.46367	-10
0.46733	-11
0.47100	-11
0.47467	-11
0.47833	-12
0.48200	-11
0.48567	-9
0.48933	-10
0.49300	-12
0.49667	-13
0.50033	-13
0.50400	-11
0.50767	-9
0.51133	-11
0.51500	-12
0.51867	-13
0.52233	-13
0.52600	-16
0.52967	-15
0.53333	-12
0.53700	-10
0.54067	-8
0.54433	-7
0.54800	-8
0.55167	-10
0.55533	-11
0.55900	-9
0.56267	-9
0.56633	-8
0.57000	-5
0.57367	-3
0.57733	-4
0.58100	-5
0.58467	-7
0.58833	-10
0.59200	-12
0.59567	-14
0.59933	-14
0.60300	-13
0.60667	-11
0.61033	-12
0.61400	-13
0.61767	-13
0.62133	-13
0.62500	-13
0.62867	-14
0.63233	-15
0.63600	-15
0.63967	-14
0.64333	-14
0.64700	-13
0.65067	-12
0.65433	-12
0.65800	-8
0.66167	-6
0.66533	-7
0.66900	-9
0.67267	-9
0.67633	-10
0.68000	-11
0.68367	-10
0.68733	-10
0.69100	-11
0.69467	-11
0.69833	-9
0.70200	-10
0.70567	-11
0.70933	-9
0.71300	-7
0.71667	-7
0.72033	-9
0.72400	-11
0.72767	-13
0.73133	-17
0.73500	-18
0.73867	-16
0.74233	-16
0.74600	-18
0.74967	-19
0.75333	-18
0.75700	-16
0.76067	-15
0.76433	-13
0.76800	-11
0.77167	-9
0.77533	-9
0.77900	-11
0.78267	-12
0.78633	-11
0.79000	-9
0.79367	-8
0.79733	-8
0.80100	-9
0.80467	-9
0.80833	-9
0.81200	-10
0.81567	-11
0.81933	-13
0.82300	-14
0.82667	-14
0.83033	-13
0.83400	-11
0.83767	-9
0.84133	-10
0.84500	-11
0.84867	-11
0.85233	-10
0.85600	-8
0.85967	-8
0.86333	-10
0.86700	-12
0.87067	-11
0.87433	-10
0.87800	-7
0.88167	-5
0.88533	-6
0.88900	-9
0.89267	-13
0.89633	-15
0.90000	-14
0.90367	-12
0.90733	-13
0.91100	-15
0.91467	-15
0.91833	-16
0.92200	-17
0.92567	-15
0.92933	-13
0.93300	-11
0.93667	-13
0.94033	-13
0.94400	-12
0.94767	-10
0.95133	-13
0.95500	-16
0.95867	-19
0.96233	-18
0.96600	-17
0.96967	-16
0.97333	-12
0.97700	-10
0.98067	-11
0.98433	-13
0.98800	-12
0.99167	-12
0.99533	-11
0.99900	-11
1.00267	-12
1.00633	-13
1.01000	-13
1.01367	-13
1.01733	-11
1.02100	-12
1.02467	-13
1.02833	-15
1.03200	-14
1.03567	-15
1.03933	-13
1.04300	-12
1.04667	-11
1.05033	-8
1.05400	-6
1.05767	-5
1.06133	-6
1.06500	-7
1.06867	-8
1.07233	-9
1.07600	-9
1.07967	-11
1.08333	-11
1.08700	-11
1.09067	-12
1.09433	-14
1.09800	-14
1.10167	-14
1.10533	-17
1.10900	-19
1.11267	-20
1.11633	-22
1.12000	-25
1.12367	-24
1.12733	-22
1.13100	-21
1.13467	-20
1.13833	-20
1.14200	-19
1.14567	-17
1.14933	-16
1.15300	-16
1.15667	-19
1.16033	-20
1.16400	-22
1.16767	-21
1.17133	-19
1.17500	-16
1.17867	-13
1.18233	-14
1.18600	-15
1.18967	-16
1.19333	-16
1.19700	-15
1.20067	-16
1.20433	-19
1.20800	-19
1.21167	-18
1.21533	-17
1.21900	-19
1.22267	-20
1.22633	-20
1.23000	-19
1.23367	-20
1.23733	-21
1.24100	-21
1.24467	-21
1.24833	-21
1.25200	-20
1.25567	-20
1.25933	-19
1.26300	-20
1.26667	-20
1.27033	-21
1.27400	-21
1.27767	-20
1.28133	-20
1.28500	-21
1.28867	-22
1.29233	-23
1.29600	-22
1.29967	-21
1.30333	-19
1.30700	-17
1.31067	-17
1.31433	-20
1.31800	-24
1.32167	-25
1.32533	-25
1.32900	-25
1.33267	-23
1.33633	-23
1.34000	-22
1.34367	-22
1.34733	-20
1.35100	-19
1.35467	-19
1.35833	-20
1.36200	-20
1.36567	-20
1.36933	-17
1.37300	-14
1.37667	-15
1.38033	-19
1.38400	-20
1.38767	-22
1.39133	-25
1.39500	-23
1.39867	-22
1.40233	-21
1.40600	-21
1.40967	-20
1.41333	-19
1.41700	-18
1.42067	-18
1.42433	-18
1.42800	-19
1.43167	-19
1.43533	-18
1.43900	-18
1.44267	-19
1.44633	-18
1.45000	-18
1.45367	-19
1.45733	-19
1.46100	-18
1.46467	-17
1.46833	-20
1.47200	-21
1.47567	-21
1.47933	-22
1.48300	-23
1.48667	-23
1.49033	-24
1.49400	-25
1.49767	-24
1.50133	-22
1.50500	-22
1.50867	-22
1.51233	-20
1.51600	-18
1.51967	-18
1.52333	-21
1.52700	-23
1.53067	-24
1.53433	-23
1.53800	-22
1.54167	-21
1.54533	-20
1.54900	-18
1.55267	-16
1.55633	-17
1.56000	-18
1.56367	-18
1.56733	-20
1.57100	-22
1.57467	-23
1.57833	-23
1.58200	-22
1.58567	-23
1.58933	-21
1.59300	-22
1.59667	-22
1.60033	-22
1.60400	-22
1.60767	-20
1.61133	-20
1.61500	-18
1.61867	-17
1.62233	-17
1.62600	-19
1.62967	-21
1.63333	-21
1.63700	-20
1.64067	-18
1.64433	-14
1.64800	-13
1.65167	-12
1.65533	-13
1.65900	-14
1.66267	-13
1.66633	-11
1.67000	-11
1.67367	-11
1.67733	-10
1.68100	-10
1.68467	-8
1.68833	-6
1.69200	-6
1.69567	-6
1.69933	-6
1.70300	-6
1.70667	-4
1.71033	-3
1.71400	-3
1.71767	-4
1.72133	-3
1.72500	-3
1.72867	-2
1.73233	-1
1.73600	1
1.73967	5
1.74333	6
1.74700	6
1.75067	4
1.75433	4
1.75800	4
1.76167	3
1.76533	2
1.76900	4
1.77267	5
1.77633	5
1.78000	5
1.78367	5
1.78733	6
1.79100	8
1.79467	10
1.79833	12
1.80200	13
1.80567	12
1.80933	12
1.81300	11
1.81667	11
1.82033	11
1.82400	11
1.82767	13
1.83133	16
1.83500	16
1.83867	16
1.84233	13
1.84600	12
1.84967	14
1.85333	15
1.85700	17
1.86067	19
1.86433	20
1.86800	20
1.87167	18
1.87533	18
1.87900	17
1.88267	15
1.88633	17
1.89000	19
1.89367	21
1.89733	20
1.90100	19
1.90467	18
1.90833	17
1.91200	18
1.91567	21
1.91933	23
1.92300	24
1.92667	23
1.93033	24
1.93400	25
1.93767	26
1.94133	26
1.94500	25
1.94867	26
1.95233	28
1.95600	29
1.95967	30
1.96333	31
1.96700	33
1.97067	33
1.97433	35
1.97800	35
1.98167	35
1.98533	36
1.98900	36
1.99267	34
1.99633	34
2.00000	36
2.00367	35
2.00733	34
2.01100	34
2.01467	36
2.01833	38
2.02200	41
2.02567	43
2.02933	45
2.03300	48
2.03667	48
2.04033	50
2.04400	53
2.04767	53
2.05133	53
2.05500	53
2.05867	52
2.06233	51
2.06600	50
2.06967	49
2.07333	48
2.07700	50
2.08067	52
2.08433	55
2.08800	57
2.09167	60
2.09533	63
2.09900	62
2.10267	62
2.10633	60
2.11000	59
2.11367	60
2.11733	61
2.12100	64
2.12467	65
2.12833	67
2.13200	68
2.13567	70
2.13933	70
2.14300	71
2.14667	72
2.15033	73
2.15400	73
2.15767	74
2.16133	77
2.16500	78
2.16867	81
2.17233	85
2.17600	86
2.17967	88
2.18333	91
2.18700	92
2.19067	92
2.19433	93
2.19800	93
2.20167	92
2.20533	92
2.20900	93
2.21267	96
2.21633	99
2.22000	100
2.22367	100
2.22733	99
2.23100	96
2.23467	95
2.23833	97
2.24200	99
2.24567	102
2.24933	104
2.25300	105
2.25667	110
2.26033	113
2.26400	115
2.26767	113
2.27133	113
2.27500	115
2.27867	116
2.28233	115
2.28600	115
2.28967	118
2.29333	120
2.29700	124
2.30067	125
2.30433	126
2.30800	126
2.31167	129
2.31533	132
2.31900	134
2.32267	134
2.32633	132
2.33000	132
2.33367	134
2.33733	138
2.34100	141
2.34467	143
2.34833	141
2.35200	140
2.35567	141
2.35933	144
2.36300	145
2.36667	146
2.37033	147
2.37400	149
2.37767	152
2.38133	156
2.38500	159
2.38867	158
2.39233	155
2.39600	155
2.39967	155
2.40333	158
2.40700	159
2.41067	164
2.41433	169
2.41800	171
2.42167	173
2.42533	176
2.42900	177
2.43267	177
2.43633	177
2.44000	177
2.44367	186
2.44733	209
2.45100	233
2.45467	248
2.45833	247
2.46200	234
2.46567	222
2.46933	213
2.47300	204
2.47667	192
2.48033	179
2.48400	167
2.48767	156
2.49133	145
2.49500	137
2.49867	134
2.50233	133
2.50600	132
2.50967	135
2.51333	137
2.51700	137
2.52067	136
2.52433	133
2.52800	127
2.53167	120
2.53533	113
2.53900	106
2.54267	101
2.54633	96
2.55000	91
2.55367	86
2.55733	83
2.56100	82
2.56467	81
2.56833	83
2.57200	84
2.57567	85
2.57933	85
2.58300	89
2.58667	90
2.59033	89
2.59400	90
2.59767	89
2.60133	86
2.60500	76
2.60867	58
2.61233	32
2.61600	-2
2.61967	-42
2.62333	-85
2.62700	-128
2.63067	-170
2.63433	-209
2.63800	-242
2.64167	-267
2.64533	-284
2.64900	-296
2.65267	-303
2.65633	-305
2.66000	-303
2.66367	-297
2.66733	-289
2.67100	-279
2.67467	-270
2.67833	-260
2.68200	-249
2.68567	-238
2.68933	-226
2.69300	-213
2.69667	-201
2.70033	-189
2.70400	-177
2.70767	-165
2.71133	-153
2.71500	-144
2.71867	-134
2.72233	-127
2.72600	-120
2.72967	-112
2.73333	-103
2.73700	-95
2.74067	-89
2.74433	-84
2.74800	-81
2.75167	-77
2.75533	-72
2.75900	-67
2.76267	-62
2.76633	-56
2.77000	-51
2.77367	-46
2.77733	-42
2.78100	-35
2.78467	-29
2.78833	-24
2.79200	-19
2.79567	-15
2.79933	-12
2.80300	-9
2.80667	-5
2.81033	-1
2.81400	-0
2.81767	2
2.82133	12
2.82500	34
2.82867	83
2.83233	186
2.83600	393
2.83967	775
2.84333	1397
2.84700	2314
2.85067	3549
2.85433	5087
2.85800	6864
2.86167	8775
2.86533	10685
2.86900	12445
2.87267	13925
2.87633	15026
2.88000	15689
2.88367	15900
2.88733	15700
2.89100	15159
2.89467	14362
2.89833	13388
2.90200	12310
2.90567	11200
2.90933	10100
2.91300	9041
2.91667	8042
2.92033	7117
2.92400	6273
2.92767	5512
2.93133	4828
2.93500	4218
2.93867	3678
2.94233	3201
2.94600	2782
2.94967	2414
2.95333	2092
2.95700	1811
2.96067	1568
2.96433	1356
2.96800	1173
2.97167	1015
2.97533	875
2.97900	755
2.98267	651
2.98633	560
2.99000	481
2.99367	417
2.99733	362
3.00100	313
3.00467	269
3.00833	232
3.01200	203
3.01567	177
3.01933	156
3.02300	137
3.02667	119
3.03033	106
3.03400	94
3.03767	83
3.04133	72
3.04500	64
3.04867	57
3.05233	51
3.05600	49
3.05967	45
3.06333	40
3.06700	34
3.07067	29
3.07433	25
3.07800	22
3.08167	20
3.08533	17
3.08900	16
3.09267	17
3.09633	18
3.10000	19
3.10367	21
3.10733	20
3.11100	18
3.11467	17
3.11833	16
3.12200	12
3.12567	10
3.12933	10
3.13300	11
3.13667	11
3.14033	11
3.14400	12
3.14767	13
3.15133	11
3.15500	10
3.15867	8
3.16233	10
3.16600	11
3.16967	12
3.17333	12
3.17700	11
3.18067	10
3.18433	10
3.18800	9
3.19167	7
3.19533	5
3.19900	6
3.20267	7
3.20633	8
3.21000	7
3.21367	4
3.21733	3
3.22100	5
3.22467	6
3.22833	7
3.23200	8
3.23567	9
3.23933	12
3.24300	14
3.24667	14
3.25033	13
3.25400	12
3.25767	12
3.26133	12
3.26500	13
3.26867	12
3.27233	11
3.27600	8
3.27967	5
3.28333	4
3.28700	5
3.29067	6
3.29433	7
3.29800	7
3.30167	5
3.30533	2
3.30900	-1
3.31267	-4
3.31633	-6
3.32000	-7
3.32367	-6
3.32733	-5
3.33100	-5
3.33467	-7
3.33833	-9
3.34200	-10
3.34567	-11
3.34933	-10
3.35300	-11
3.35667	-14
3.36033	-15
3.36400	-15
3.36767	-15
3.37133	-15
3.37500	-16
3.37867	-19
3.38233	-21
3.38600	-23
3.38967	-25
3.39333	-28
3.39700	-28
3.40067	-25
3.40433	-24
3.40800	-25
3.41167	-28
3.41533	-31
3.41900	-32
3.42267	-34
3.42633	-34
3.43000	-35
3.43367	-37
3.43733	-38
3.44100	-41
3.44467	-42
3.44833	-45
3.45200	-45
3.45567	-45
3.45933	-47
3.46300	-49
3.46667	-50
3.47033	-54
3.47400	-58
3.47767	-59
3.48133	-59
3.48500	-59
3.48867	-59
3.49233	-57
3.49600	-58
3.49967	-59
3.50333	-59
3.50700	-61
3.51067	-62
3.51433	-66
3.51800	-69
3.52167	-71
3.52533	-73
3.52900	-73
3.53267	-71
3.53633	-70
3.54000	-71
3.54367	-73
3.54733	-73
3.55100	-73
3.55467	-73
3.55833	-73
3.56200	-74
3.56567	-75
3.56933	-76
3.57300	-78
3.57667	-78
3.58033	-77
3.58400	-77
3.58767	-78
3.59133	-79
3.59500	-79
3.59867	-79
3.60233	-80
3.60600	-83
3.60967	-83
3.61333	-81
3.61700	-80
3.62067	-82
3.62433	-83
3.62800	-81
3.63167	-78
3.63533	-77
3.63900	-78
3.64267	-81
3.64633	-84
3.65000	-86
3.65367	-86
3.65733	-85
3.66100	-86
3.66467	-87
3.66833	-86
3.67200	-87
3.67567	-88
3.67933	-89
3.68300	-92
3.68667	-92
3.69033	-91
3.69400	-89
3.69767	-89
3.70133	-89
3.70500	-89
3.70867	-90
3.71233	-90
3.71600	-90
3.71967	-90
3.72333	-92
3.72700	-95
3.73067	-96
3.73433	-95
3.73800	-95
3.74167	-96
3.74533	-99
3.74900	-100
3.75267	-99
3.75633	-98
3.76000	-97
3.76367	-96
3.76733	-94
3.77100	-92
3.77467	-92
3.77833	-94
3.78200	-97
3.78567	-96
3.78933	-95
3.79300	-94
3.79667	-94
3.80033	-95
3.80400	-95
3.80767	-95
3.81133	-98
3.81500	-101
3.81867	-100
3.82233	-98
3.82600	-100
3.82967	-101
3.83333	-101
3.83700	-102
3.84067	-104
3.84433	-105
3.84800	-104
3.85167	-102
3.85533	-102
3.85900	-102
3.86267	-101
3.86633	-99
3.87000	-97
3.87367	-96
3.87733	-96
3.88100	-97
3.88467	-98
3.88833	-98
3.89200	-98
3.89567	-96
3.89933	-94
3.90300	-95
3.90667	-96
3.91033	-99
3.91400	-103
3.91767	-106
3.92133	-106
3.92500	-108
3.92867	-109
3.93233	-107
3.93600	-103
3.93967	-101
3.94333	-100
3.94700	-100
3.95067	-100
3.95433	-101
3.95800	-100
3.96167	-100
3.96533	-100
3.96900	-97
3.97267	-95
3.97633	-96
3.98000	-97
3.98367	-99
3.98733	-102
3.99100	-104
3.99467	-104
3.99833	-102

[Status Trace (Column Oven Temperature)]
Interval(msec)	1000
# of Points	240
Start Time(min)	0.007
End Time(min)	3.990
Intensity Units	
Intensity Multiplier	1
R.Time (min)	Intensity
0.00650	35.05
0.02317	35.04
0.03983	35.02
0.05650	35.02
0.07317	35.01
0.08983	35.01
0.10650	35.00
0.12317	34.99
0.13983	34.98
0.15650	34.98
0.17317	34.98
0.18983	34.98
0.20650	34.98
0.22317	34.99
0.23983	34.98
0.25650	34.99
0.27317	34.98
0.28983	34.99
0.30650	34.98
0.32317	34.99
0.33983	35.00
0.35650	35.00
0.37317	35.00
0.38983	34.99
0.40650	35.00
0.42317	34.99
0.43983	34.99
0.45650	35.00
0.47317	35.00
0.48983	35.00
0.50650	35.00
0.52317	34.99
0.53983	34.99
0.55650	34.99
0.57317	34.99
0.58983	34.99
0.60650	34.99
0.62317	34.99
0.63983	34.99
0.65650	35.00
0.67317	35.00
0.68983	35.00
0.70650	35.00
0.72317	35.00
0.73983	35.00
0.75650	34.99
0.77317	35.00
0.78983	35.00
0.80650	34.99
0.82317	35.00
0.83983	34.99
0.85650	34.98
0.87317	34.99
0.88983	34.99
0.90650	35.00
0.92317	35.00
0.93983	35.00
0.95650	34.99
0.97317	34.98
0.98983	34.99
1.00650	34.99
1.02317	34.99
1.03983	34.99
1.05650	34.98
1.07317	34.99
1.08983	34.99
1.10650	35.00
1.12317	35.01
1.13983	35.01
1.15650	35.01
1.17317	35.02
1.18983	35.01
1.20650	35.01
1.22317	35.02
1.23983	35.02
1.25650	35.02
1.27317	35.01
1.28983	35.00
1.30650	35.00
1.32317	35.00
1.33983	35.00
1.35650	34.99
1.37317	34.99
1.38983	34.99
1.40650	34.99
1.42317	35.00
1.43983	35.00
1.45650	35.00
1.47317	35.00
1.48983	35.00
1.50650	35.00
1.52317	35.00
1.53983	34.99
1.55650	34.99
1.57317	34.99
1.58983	35.01
1.60650	35.07
1.62317	35.18
1.63983	35.37
1.65650	35.60
1.67317	35.93
1.68983	36.29
1.70650	36.65
1.72317	36.98
1.73983	37.32
1.75650	37.64
1.77317	37.98
1.78983	38.33
1.80650	38.64
1.82317	38.95
1.83983	39.30
1.85650	39.62
1.87317	39.96
1.88983	40.29
1.90650	40.62
1.92317	40.95
1.93983	41.29
1.95650	41.63
1.97317	41.95
1.98983	42.27
2.00650	42.59
2.02317	42.91
2.03983	43.25
2.05650	43.58
2.07317	43.89
2.08983	44.22
2.10650	44.54
2.12317	44.88
2.13983	45.22
2.15650	45.54
2.17317	45.86
2.18983	46.18
2.20650	46.49
2.22317	46.84
2.23983	47.14
2.25650	47.49
2.27317	47.79
2.28983	48.12
2.30650	48.48
2.32317	48.81
2.33983	49.14
2.35650	49.41
2.37317	49.60
2.38983	49.67
2.40650	49.66
2.42317	49.66
2.43983	49.67
2.45650	49.70
2.47317	49.71
2.48983	49.74
2.50650	49.73
2.52317	49.77
2.53983	49.78
2.55650	49.80
2.57317	49.81
2.58983	49.80
2.60650	49.83
2.62317	49.83
2.63983	49.84
2.65650	49.86
2.67317	49.85
2.68983	49.84
2.70650	49.87
2.72317	49.87
2.73983	49.87
2.75650	49.85
2.77317	49.85
2.78983	49.87
2.80650	49.90
2.82317	49.90
2.83983	49.90
2.85650	49.88
2.87317	49.88
2.88983	49.89
2.90650	49.91
2.92317	49.91
2.93983	49.92
2.95650	49.95
2.97317	49.98
2.98983	49.99
3.00650	50.00
3.02317	50.00
3.03983	50.00
3.05650	50.01
3.07317	50.03
3.08983	50.03
3.10650	50.03
3.12317	50.04
3.13983	50.04
3.15650	50.05
3.17317	50.05
3.18983	50.06
3.20650	50.06
3.22317	50.07
3.23983	50.07
3.25650	50.09
3.27317	50.10
3.28983	50.11
3.30650	50.09
3.32317	50.09
3.33983	50.09
3.35650	50.09
3.37317	50.07
3.38983	50.06
3.40650	50.06
3.42317	50.05
3.43983	50.05
3.45650	50.05
3.47317	50.07
3.48983	50.08
3.50650	50.08
3.52317	50.08
3.53983	50.09
3.55650	50.09
3.57317	50.10
3.58983	50.10
3.60650	50.09
3.62317	50.09
3.63983	50.09
3.65650	50.09
3.67317	50.09
3.68983	50.09
3.70650	50.08
3.72317	50.07
3.73983	50.07
3.75650	50.06
3.77317	50.06
3.78983	50.06
3.80650	50.06
3.82317	50.05
3.83983	50.05
3.85650	50.05
3.87317	50.06
3.88983	50.05
3.90650	50.05
3.92317	50.06
3.93983	50.06
3.95650	50.06
3.97317	50.06
3.98983	50.06

[Status Trace (Injection Unit Temperature)]
Interval(msec)	1000
# of Points	240
Start Time(min)	0.007
End Time(min)	3.990
Intensity Units	
Intensity Multiplier	1
R.Time (min)	Intensity
0.00650	100.00
0.02317	100.00
0.03983	100.01
0.05650	100.00
0.07317	100.00
0.08983	100.00
0.10650	100.00
0.12317	100.00
0.13983	100.00
0.15650	100.00
0.17317	100.00
0.18983	100.00
0.20650	100.00
0.22317	100.00
0.23983	100.00
0.25650	100.00
0.27317	99.99
0.28983	100.00
0.30650	100.00
0.32317	100.00
0.33983	100.00
0.35650	100.00
0.37317	100.00
0.38983	100.00
0.40650	100.00
0.42317	99.99
0.43983	100.00
0.45650	100.00
0.47317	100.00
0.48983	100.00
0.50650	100.00
0.52317	100.00
0.53983	100.00
0.55650	100.00
0.57317	100.00
0.58983	99.99
0.60650	100.00
0.62317	100.00
0.63983	100.00
0.65650	100.00
0.67317	100.00
0.68983	100.00
0.70650	100.00
0.72317	100.00
0.73983	100.00
0.75650	100.00
0.77317	99.99
0.78983	99.99
0.80650	100.00
0.82317	100.00
0.83983	100.00
0.85650	100.00
0.87317	99.99
0.88983	100.00
0.90650	100.00
0.92317	100.00
0.93983	100.00
0.95650	99.99
0.97317	100.00
0.98983	99.99
1.00650	99.99
1.02317	100.00
1.03983	100.00
1.05650	100.00
1.07317	100.00
1.08983	100.00
1.10650	100.00
1.12317	100.00
1.13983	100.00
1.15650	99.99
1.17317	100.00
1.18983	100.00
1.20650	99.99
1.22317	100.00
1.23983	100.00
1.25650	100.00
1.27317	100.00
1.28983	100.00
1.30650	100.00
1.32317	99.99
1.33983	100.00
1.35650	100.00
1.37317	100.00
1.38983	100.00
1.40650	100.00
1.42317	100.00
1.43983	100.00
1.45650	100.00
1.47317	100.00
1.48983	100.00
1.50650	100.00
1.52317	100.00
1.53983	100.00
1.55650	100.00
1.57317	100.00
1.58983	100.00
1.60650	100.00
1.62317	100.00
1.63983	100.00
1.65650	100.00
1.67317	99.99
1.68983	100.00
1.70650	100.00
1.72317	100.00
1.73983	100.00
1.75650	100.00
1.77317	100.00
1.78983	100.00
1.80650	100.00
1.82317	100.00
1.83983	100.00
1.85650	100.00
1.87317	100.00
1.88983	99.99
1.90650	100.00
1.92317	100.00
1.93983	99.99
1.95650	99.99
1.97317	99.99
1.98983	100.00
2.00650	99.99
2.02317	99.99
2.03983	99.99
2.05650	99.99
2.07317	99.99
2.08983	99.99
2.10650	99.99
2.12317	99.99
2.13983	99.99
2.15650	99.99
2.17317	99.98
2.18983	99.98
2.20650	99.99
2.22317	99.99
2.23983	99.98
2.25650	99.98
2.27317	99.98
2.28983	99.98
2.30650	99.98
2.32317	99.98
2.33983	99.98
2.35650	99.98
2.37317	99.98
2.38983	99.98
2.40650	99.98
2.42317	99.98
2.43983	99.98
2.45650	99.98
2.47317	99.98
2.48983	99.98
2.50650	99.98
2.52317	99.98
2.53983	99.98
2.55650	99.98
2.57317	99.98
2.58983	99.98
2.60650	99.98
2.62317	99.98
2.63983	99.98
2.65650	99.99
2.67317	99.98
2.68983	99.99
2.70650	99.99
2.72317	99.99
2.73983	99.99
2.75650	99.99
2.77317	100.00
2.78983	100.00
2.80650	100.00
2.82317	100.00
2.83983	100.00
2.85650	100.00
2.87317	100.01
2.88983	100.01
2.90650	100.01
2.92317	100.01
2.93983	100.01
2.95650	100.01
2.97317	100.01
2.98983	100.02
3.00650	100.02
3.02317	100.02
3.03983	100.02
3.05650	100.02
3.07317	100.03
3.08983	100.03
3.10650	100.03
3.12317	100.02
3.13983	100.03
3.15650	100.03
3.17317	100.03
3.18983	100.03
3.20650	100.03
3.22317	100.04
3.23983	100.04
3.25650	100.04
3.27317	100.04
3.28983	100.04
3.30650	100.04
3.32317	100.04
3.33983	100.04
3.35650	100.04
3.37317	100.05
3.38983	100.05
3.40650	100.05
3.42317	100.05
3.43983	100.05
3.45650	100.05
3.47317	100.06
3.48983	100.05
3.50650	100.05
3.52317	100.05
3.53983	100.06
3.55650	100.06
3.57317	100.05
3.58983	100.06
3.60650	100.06
3.62317	100.06
3.63983	100.06
3.65650	100.05
3.67317	100.05
3.68983	100.06
3.70650	100.06
3.72317	100.06
3.73983	100.06
3.75650	100.06
3.77317	100.06
3.78983	100.06
3.80650	100.06
3.82317	100.06
3.83983	100.06
3.85650	100.06
3.87317	100.06
3.88983	100.06
3.90650	100.06
3.92317	100.06
3.93983	100.06
3.95650	100.06
3.97317	100.06
3.98983	100.06

[Status Trace (Carrier Gas Pressure)]
Interval(msec)	1000
# of Points	240
Start Time(min)	0.007
End Time(min)	3.990
Intensity Units	
Intensity Multiplier	1
R.Time (min)	Intensity
0.00650	58.00
0.02317	55.65
0.03983	56.86
0.05650	59.05
0.07317	59.61
0.08983	58.11
0.10650	57.98
0.12317	58.01
0.13983	58.01
0.15650	58.01
0.17317	58.00
0.18983	58.00
0.20650	58.00
0.22317	58.00
0.23983	58.00
0.25650	58.00
0.27317	58.00
0.28983	58.00
0.30650	58.00
0.32317	58.00
0.33983	58.00
0.35650	58.00
0.37317	58.00
0.38983	58.00
0.40650	58.00
0.42317	58.00
0.43983	58.00
0.45650	58.00
0.47317	58.00
0.48983	58.00
0.50650	58.00
0.52317	58.00
0.53983	58.00
0.55650	58.00
0.57317	58.00
0.58983	58.00
0.60650	58.00
0.62317	58.00
0.63983	58.00
0.65650	58.00
0.67317	58.00
0.68983	58.00
0.70650	58.00
0.72317	58.00
0.73983	58.00
0.75650	58.00
0.77317	58.00
0.78983	58.00
0.80650	58.00
0.82317	58.00
0.83983	58.00
0.85650	58.00
0.87317	58.00
0.88983	58.00
0.90650	58.00
0.92317	58.00
0.93983	58.00
0.95650	58.00
0.97317	58.00
0.98983	58.00
1.00650	58.00
1.02317	58.00
1.03983	58.00
1.05650	58.00
1.07317	58.00
1.08983	58.00
1.10650	58.00
1.12317	58.00
1.13983	58.00
1.15650	58.00
1.17317	58.00
1.18983	58.00
1.20650	58.00
1.22317	58.00
1.23983	58.00
1.25650	58.00
1.27317	58.00
1.28983	58.00
1.30650	58.00
1.32317	58.00
1.33983	58.00
1.35650	58.00
1.37317	58.00
1.38983	58.00
1.40650	58.00
1.42317	58.00
1.43983	58.00
1.45650	58.00
1.47317	58.00
1.48983	58.00
1.50650	58.00
1.52317	58.00
1.53983	58.00
1.55650	58.00
1.57317	58.00
1.58983	58.00
1.60650	58.00
1.62317	58.00
1.63983	58.00
1.65650	58.00
1.67317	58.01
1.68983	58.00
1.70650	58.00
1.72317	58.00
1.73983	58.00
1.75650	58.00
1.77317	58.00
1.78983	58.00
1.80650	58.00
1.82317	58.00
1.83983	58.00
1.85650	58.00
1.87317	58.00
1.88983	58.00
1.90650	58.00
1.92317	58.00
1.93983	58.00
1.95650	58.00
1.97317	58.00
1.98983	58.00
2.00650	58.00
2.02317	58.00
2.03983	58.00
2.05650	58.00
2.07317	58.00
2.08983	58.00
2.10650	58.00
2.12317	58.00
2.13983	58.00
2.15650	58.00
2.17317	58.00
2.18983	58.00
2.20650	58.00
2.22317	58.00
2.23983	58.00
2.25650	58.00
2.27317	58.00
2.28983	58.00
2.30650	58.00
2.32317	58.00
2.33983	58.00
2.35650	58.00
2.37317	58.00
2.38983	57.99
2.40650	57.99
2.42317	58.00
2.43983	58.00
2.45650	58.00
2.47317	58.00
2.48983	58.00
2.50650	57.99
2.52317	57.98
2.53983	58.00
2.55650	58.00
2.57317	58.00
2.58983	58.00
2.60650	58.00
2.62317	58.00
2.63983	58.00
2.65650	58.00
2.67317	58.00
2.68983	58.00
2.70650	58.00
2.72317	58.00
2.73983	58.00
2.75650	58.00
2.77317	58.00
2.78983	58.00
2.80650	58.00
2.82317	58.00
2.83983	58.00
2.85650	58.00
2.87317	58.00
2.88983	58.00
2.90650	58.00
2.92317	58.00
2.93983	58.00
2.95650	58.00
2.97317	58.00
2.98983	58.00
3.00650	58.00
3.02317	58.00
3.03983	58.00
3.05650	58.00
3.07317	58.00
3.08983	58.00
3.10650	58.00
3.12317	58.00
3.13983	58.00
3.15650	58.00
3.17317	58.00
3.18983	58.00
3.20650	58.00
3.22317	58.00
3.23983	58.00
3.25650	58.00
3.27317	58.00
3.28983	58.00
3.30650	58.00
3.32317	58.00
3.33983	58.00
3.35650	58.00
3.37317	58.00
3.38983	58.00
3.40650	58.00
3.42317	58.00
3.43983	58.00
3.45650	58.00
3.47317	58.00
3.48983	58.00
3.50650	58.00
3.52317	58.00
3.53983	58.00
3.55650	58.00
3.57317	58.00
3.58983	58.00
3.60650	58.00
3.62317	58.00
3.63983	58.00
3.65650	58.00
3.67317	58.00
3.68983	58.00
3.70650	58.00
3.72317	58.00
3.73983	58.00
3.75650	58.00
3.77317	58.00
3.78983	58.00
3.80650	58.00
3.82317	58.00
3.83983	58.00
3.85650	58.00
3.87317	58.00
3.88983	58.00
3.90650	58.00
3.92317	58.00
3.93983	58.00
3.95650	58.00
3.97317	58.00
3.98983	58.00

[Status Trace (Carrier Gas Flow)]
Interval(msec)	1000
# of Points	240
Start Time(min)	0.007
End Time(min)	3.990
Intensity Units	
Intensity Multiplier	1
R.Time (min)	Intensity
0.00650	34.52
0.02317	34.54
0.03983	34.55
0.05650	34.55
0.07317	34.50
0.08983	34.52
0.10650	34.52
0.12317	34.52
0.13983	34.51
0.15650	34.52
0.17317	34.52
0.18983	34.52
0.20650	34.52
0.22317	34.52
0.23983	34.52
0.25650	34.52
0.27317	34.52
0.28983	34.52
0.30650	34.52
0.32317	34.52
0.33983	34.52
0.35650	34.52
0.37317	34.51
0.38983	34.52
0.40650	34.52
0.42317	34.52
0.43983	34.52
0.45650	34.52
0.47317	34.52
0.48983	34.52
0.50650	34.52
0.52317	34.51
0.53983	34.52
0.55650	34.52
0.57317	34.52
0.58983	34.52
0.60650	34.52
0.62317	34.52
0.63983	34.52
0.65650	34.52
0.67317	34.52
0.68983	34.52
0.70650	34.52
0.72317	34.52
0.73983	34.52
0.75650	34.52
0.77317	34.52
0.78983	34.52
0.80650	34.52
0.82317	34.52
0.83983	34.52
0.85650	34.52
0.87317	34.52
0.88983	34.52
0.90650	34.52
0.92317	34.52
0.93983	34.52
0.95650	34.52
0.97317	34.52
0.98983	34.52
1.00650	34.52
1.02317	34.52
1.03983	34.52
1.05650	34.52
1.07317	34.52
1.08983	34.52
1.10650	34.52
1.12317	34.52
1.13983	34.52
1.15650	34.52
1.17317	34.52
1.18983	34.52
1.20650	34.51
1.22317	34.52
1.23983	34.52
1.25650	34.52
1.27317	34.50
1.28983	34.52
1.30650	34.52
1.32317	34.52
1.33983	34.52
1.35650	34.52
1.37317	34.52
1.38983	34.51
1.40650	34.52
1.42317	34.52
1.43983	34.52
1.45650	34.52
1.47317	34.52
1.48983	34.52
1.50650	34.52
1.52317	34.52
1.53983	34.51
1.55650	34.52
1.57317	34.51
1.58983	34.52
1.60650	34.52
1.62317	34.52
1.63983	34.52
1.65650	34.52
1.67317	34.52
1.68983	34.52
1.70650	34.52
1.72317	34.52
1.73983	34.52
1.75650	34.52
1.77317	34.52
1.78983	34.52
1.80650	34.52
1.82317	34.52
1.83983	34.52
1.85650	34.52
1.87317	34.52
1.88983	34.52
1.90650	34.52
1.92317	34.52
1.93983	34.52
1.95650	34.52
1.97317	34.52
1.98983	34.52
2.00650	34.52
2.02317	34.52
2.03983	34.52
2.05650	34.52
2.07317	34.52
2.08983	34.52
2.10650	34.52
2.12317	34.52
2.13983	34.52
2.15650	34.52
2.17317	34.52
2.18983	34.52
2.20650	34.52
2.22317	34.52
2.23983	34.52
2.25650	34.52
2.27317	34.51
2.28983	34.52
2.30650	34.52
2.32317	34.52
2.33983	34.51
2.35650	34.52
2.37317	34.53
2.38983	34.50
2.40650	34.52
2.42317	34.52
2.43983	34.52
2.45650	34.52
2.47317	34.52
2.48983	34.52
2.50650	34.42
2.52317	34.52
2.53983	34.52
2.55650	34.52
2.57317	34.52
2.58983	34.52
2.60650	34.52
2.62317	34.52
2.63983	34.52
2.65650	34.52
2.67317	34.52
2.68983	34.52
2.70650	34.52
2.72317	34.52
2.73983	34.52
2.75650	34.52
2.77317	34.52
2.78983	34.52
2.80650	34.52
2.82317	34.52
2.83983	34.52
2.85650	34.52
2.87317	34.52
2.88983	34.52
2.90650	34.52
2.92317	34.52
2.93983	34.51
2.95650	34.52
2.97317	34.52
2.98983	34.52
3.00650	34.52
3.02317	34.51
3.03983	34.52
3.05650	34.52
3.07317	34.51
3.08983	34.53
3.10650	34.52
3.12317	34.53
3.13983	34.52
3.15650	34.52
3.17317	34.51
3.18983	34.52
3.20650	34.53
3.22317	34.52
3.23983	34.52
3.25650	34.52
3.27317	34.52
3.28983	34.52
3.30650	34.52
3.32317	34.52
3.33983	34.52
3.35650	34.52
3.37317	34.52
3.38983	34.52
3.40650	34.52
3.42317	34.52
3.43983	34.52
3.45650	34.52
3.47317	34.52
3.48983	34.52
3.50650	34.52
3.52317	34.52
3.53983	34.52
3.55650	34.52
3.57317	34.52
3.58983	34.52
3.60650	34.52
3.62317	34.52
3.63983	34.52
3.65650	34.53
3.67317	34.52
3.68983	34.52
3.70650	34.52
3.72317	34.52
3.73983	34.52
3.75650	34.52
3.77317	34.52
3.78983	34.52
3.80650	34.52
3.82317	34.52
3.83983	34.51
3.85650	34.52
3.87317	34.52
3.88983	34.52
3.90650	34.52
3.92317	34.52
3.93983	34.53
3.95650	34.52
3.97317	34.53
3.98983	34.53

[Status Trace (Column Flow)]
Interval(msec)	1000
# of Points	240
Start Time(min)	0.007
End Time(min)	3.990
Intensity Units	
Intensity Multiplier	1
R.Time (min)	Intensity
0.00650	5.51
0.02317	5.24
0.03983	5.38
0.05650	5.64
0.07317	5.70
0.08983	5.53
0.10650	5.51
0.12317	5.52
0.13983	5.52
0.15650	5.52
0.17317	5.52
0.18983	5.52
0.20650	5.52
0.22317	5.52
0.23983	5.52
0.25650	5.52
0.27317	5.52
0.28983	5.52
0.30650	5.52
0.32317	5.52
0.33983	5.52
0.35650	5.52
0.37317	5.52
0.38983	5.52
0.40650	5.52
0.42317	5.52
0.43983	5.52
0.45650	5.52
0.47317	5.52
0.48983	5.52
0.50650	5.52
0.52317	5.52
0.53983	5.52
0.55650	5.52
0.57317	5.52
0.58983	5.52
0.60650	5.52
0.62317	5.52
0.63983	5.52
0.65650	5.52
0.67317	5.52
0.68983	5.52
0.70650	5.52
0.72317	5.52
0.73983	5.52
0.75650	5.52
0.77317	5.52
0.78983	5.52
0.80650	5.52
0.82317	5.52
0.83983	5.52
0.85650	5.52
0.87317	5.52
0.88983	5.52
0.90650	5.52
0.92317	5.52
0.93983	5.52
0.95650	5.52
0.97317	5.52
0.98983	5.52
1.00650	5.52
1.02317	5.52
1.03983	5.52
1.05650	5.52
1.07317	5.52
1.08983	5.52
1.10650	5.52
1.12317	5.52
1.13983	5.52
1.15650	5.52
1.17317	5.52
1.18983	5.52
1.20650	5.52
1.22317	5.52
1.23983	5.52
1.25650	5.52
1.27317	5.52
1.28983	5.52
1.30650	5.52
1.32317	5.52
1.33983	5.52
1.35650	5.52
1.37317	5.52
1.38983	5.52
1.40650	5.52
1.42317	5.52
1.43983	5.52
1.45650	5.52
1.47317	5.52
1.48983	5.52
1.50650	5.52
1.52317	5.52
1.53983	5.52
1.55650	5.52
1.57317	5.52
1.58983	5.52
1.60650	5.51
1.62317	5.51
1.63983	5.51
1.65650	5.50
1.67317	5.49
1.68983	5.48
1.70650	5.46
1.72317	5.45
1.73983	5.44
1.75650	5.43
1.77317	5.42
1.78983	5.41
1.80650	5.40
1.82317	5.39
1.83983	5.38
1.85650	5.37
1.87317	5.36
1.88983	5.35
1.90650	5.34
1.92317	5.33
1.93983	5.32
1.95650	5.31
1.97317	5.30
1.98983	5.29
2.00650	5.28
2.02317	5.28
2.03983	5.27
2.05650	5.26
2.07317	5.25
2.08983	5.24
2.10650	5.23
2.12317	5.22
2.13983	5.21
2.15650	5.20
2.17317	5.19
2.18983	5.18
2.20650	5.17
2.22317	5.16
2.23983	5.15
2.25650	5.14
2.27317	5.13
2.28983	5.13
2.30650	5.12
2.32317	5.11
2.33983	5.10
2.35650	5.09
2.37317	5.08
2.38983	5.08
2.40650	5.08
2.42317	5.08
2.43983	5.08
2.45650	5.08
2.47317	5.08
2.48983	5.08
2.50650	5.08
2.52317	5.08
2.53983	5.08
2.55650	5.08
2.57317	5.08
2.58983	5.08
2.60650	5.08
2.62317	5.08
2.63983	5.08
2.65650	5.08
2.67317	5.08
2.68983	5.08
2.70650	5.08
2.72317	5.08
2.73983	5.08
2.75650	5.08
2.77317	5.08
2.78983	5.08
2.80650	5.08
2.82317	5.08
2.83983	5.08
2.85650	5.08
2.87317	5.08
2.88983	5.08
2.90650	5.08
2.92317	5.08
2.93983	5.08
2.95650	5.07
2.97317	5.07
2.98983	5.07
3.00650	5.07
3.02317	5.07
3.03983	5.07
3.05650	5.07
3.07317	5.07
3.08983	5.07
3.10650	5.07
3.12317	5.07
3.13983	5.07
3.15650	5.07
3.17317	5.07
3.18983	5.07
3.20650	5.07
3.22317	5.07
3.23983	5.07
3.25650	5.07
3.27317	5.07
3.28983	5.07
3.30650	5.07
3.32317	5.07
3.33983	5.07
3.35650	5.07
3.37317	5.07
3.38983	5.07
3.40650	5.07
3.42317	5.07
3.43983	5.07
3.45650	5.07
3.47317	5.07
3.48983	5.07
3.50650	5.07
3.52317	5.07
3.53983	5.07
3.55650	5.07
3.57317	5.07
3.58983	5.07
3.60650	5.07
3.62317	5.07
3.63983	5.07
3.65650	5.07
3.67317	5.07
3.68983	5.07
3.70650	5.07
3.72317	5.07
3.73983	5.07
3.75650	5.07
3.77317	5.07
3.78983	5.07
3.80650	5.07
3.82317	5.07
3.83983	5.07
3.85650	5.07
3.87317	5.07
3.88983	5.07
3.90650	5.07
3.92317	5.07
3.93983	5.07
3.95650	5.07
3.97317	5.07
3.98983	5.07

[Status Trace (Linear Velocity)]
Interval(msec)	1000
# of Points	240
Start Time(min)	0.007
End Time(min)	3.990
Intensity Units	
Intensity Multiplier	1
R.Time (min)	Intensity
0.00650	39.01
0.02317	37.47
0.03983	38.27
0.05650	39.70
0.07317	40.07
0.08983	39.09
0.10650	39.00
0.12317	39.02
0.13983	39.02
0.15650	39.02
0.17317	39.02
0.18983	39.02
0.20650	39.02
0.22317	39.02
0.23983	39.02
0.25650	39.02
0.27317	39.02
0.28983	39.02
0.30650	39.02
0.32317	39.02
0.33983	39.02
0.35650	39.01
0.37317	39.01
0.38983	39.02
0.40650	39.02
0.42317	39.02
0.43983	39.02
0.45650	39.02
0.47317	39.02
0.48983	39.02
0.50650	39.02
0.52317	39.02
0.53983	39.02
0.55650	39.02
0.57317	39.02
0.58983	39.02
0.60650	39.02
0.62317	39.02
0.63983	39.02
0.65650	39.02
0.67317	39.02
0.68983	39.01
0.70650	39.01
0.72317	39.02
0.73983	39.02
0.75650	39.02
0.77317	39.02
0.78983	39.02
0.80650	39.02
0.82317	39.02
0.83983	39.02
0.85650	39.02
0.87317	39.02
0.88983	39.02
0.90650	39.02
0.92317	39.02
0.93983	39.02
0.95650	39.02
0.97317	39.02
0.98983	39.02
1.00650	39.02
1.02317	39.02
1.03983	39.02
1.05650	39.02
1.07317	39.02
1.08983	39.02
1.10650	39.02
1.12317	39.01
1.13983	39.01
1.15650	39.01
1.17317	39.01
1.18983	39.01
1.20650	39.01
1.22317	39.01
1.23983	39.01
1.25650	39.01
1.27317	39.01
1.28983	39.01
1.30650	39.02
1.32317	39.01
1.33983	39.02
1.35650	39.02
1.37317	39.02
1.38983	39.02
1.40650	39.02
1.42317	39.02
1.43983	39.02
1.45650	39.02
1.47317	39.02
1.48983	39.02
1.50650	39.02
1.52317	39.02
1.53983	39.02
1.55650	39.02
1.57317	39.02
1.58983	39.01
1.60650	39.01
1.62317	39.00
1.63983	38.98
1.65650	38.96
1.67317	38.93
1.68983	38.90
1.70650	38.86
1.72317	38.83
1.73983	38.79
1.75650	38.76
1.77317	38.73
1.78983	38.70
1.80650	38.67
1.82317	38.64
1.83983	38.61
1.85650	38.58
1.87317	38.54
1.88983	38.51
1.90650	38.48
1.92317	38.45
1.93983	38.42
1.95650	38.39
1.97317	38.36
1.98983	38.33
2.00650	38.30
2.02317	38.27
2.03983	38.24
2.05650	38.21
2.07317	38.18
2.08983	38.15
2.10650	38.12
2.12317	38.09
2.13983	38.06
2.15650	38.03
2.17317	38.00
2.18983	37.97
2.20650	37.94
2.22317	37.91
2.23983	37.89
2.25650	37.86
2.27317	37.83
2.28983	37.80
2.30650	37.77
2.32317	37.74
2.33983	37.71
2.35650	37.68
2.37317	37.66
2.38983	37.66
2.40650	37.66
2.42317	37.66
2.43983	37.66
2.45650	37.66
2.47317	37.66
2.48983	37.65
2.50650	37.65
2.52317	37.64
2.53983	37.65
2.55650	37.65
2.57317	37.65
2.58983	37.65
2.60650	37.65
2.62317	37.65
2.63983	37.65
2.65650	37.64
2.67317	37.64
2.68983	37.65
2.70650	37.64
2.72317	37.64
2.73983	37.64
2.75650	37.64
2.77317	37.65
2.78983	37.64
2.80650	37.64
2.82317	37.64
2.83983	37.64
2.85650	37.64
2.87317	37.64
2.88983	37.64
2.90650	37.64
2.92317	37.64
2.93983	37.64
2.95650	37.64
2.97317	37.63
2.98983	37.63
3.00650	37.63
3.02317	37.63
3.03983	37.63
3.05650	37.63
3.07317	37.63
3.08983	37.63
3.10650	37.63
3.12317	37.63
3.13983	37.63
3.15650	37.63
3.17317	37.63
3.18983	37.63
3.20650	37.63
3.22317	37.63
3.23983	37.63
3.25650	37.62
3.27317	37.62
3.28983	37.62
3.30650	37.62
3.32317	37.62
3.33983	37.62
3.35650	37.62
3.37317	37.62
3.38983	37.63
3.40650	37.63
3.42317	37.63
3.43983	37.63
3.45650	37.63
3.47317	37.63
3.48983	37.62
3.50650	37.62
3.52317	37.62
3.53983	37.62
3.55650	37.62
3.57317	37.62
3.58983	37.62
3.60650	37.62
3.62317	37.62
3.63983	37.62
3.65650	37.62
3.67317	37.62
3.68983	37.62
3.70650	37.62
3.72317	37.62
3.73983	37.63
3.75650	37.63
3.77317	37.63
3.78983	37.63
3.80650	37.63
3.82317	37.63
3.83983	37.63
3.85650	37.63
3.87317	37.63
3.88983	37.63
3.90650	37.63
3.92317	37.63
3.93983	37.63
3.95650	37.63
3.97317	37.63
3.98983	37.63

