[Header]
Application Name	LabSolutions
Version	5.110
Data File Name	C:\Users\User\Desktop\GC Analyses\Jack\UIC Prairie Sampling\9.16.22\220916_082.gcd
Output Date	11/29/2022
Output Time	11:10:20 AM

[File Information]
Type	Data File
Generated	11/16/2022 12:38:44 PM
Generated by	System Administrator
Modified	11/16/2022 12:43:09 PM
Modified by	System Administrator

[Sample Information]
Operator Name	System Administrator
Acquired	11/16/2022 12:39:09 PM
Sample Type	1:Standard
Level	1
Sample Name	220916_UICPrairie
Sample ID	220916_UICPrairie
ISTD Amount1	1
ISTD Amount2	1
ISTD Amount3	1
ISTD Amount4	1
ISTD Amount5	1
ISTD Amount6	1
ISTD Amount7	1
ISTD Amount8	1
ISTD Amount9	1
ISTD Amount10	1
ISTD Amount11	1
ISTD Amount12	1
ISTD Amount13	1
ISTD Amount14	1
ISTD Amount15	1
ISTD Amount16	1
ISTD Amount17	1
ISTD Amount18	1
ISTD Amount19	1
ISTD Amount20	1
ISTD Amount21	1
ISTD Amount22	1
ISTD Amount23	1
ISTD Amount24	1
ISTD Amount25	1
ISTD Amount26	1
ISTD Amount27	1
ISTD Amount28	1
ISTD Amount29	1
ISTD Amount30	1
ISTD Amount31	1
ISTD Amount32	1
Sample Amount	1
Dilution Factor	1
Vial#	1
Injection Volume	1
Injection Count	1
Bar Code	

[Original Files]
Data File	C:\Users\User\Desktop\GC Analyses\Jack\UIC Prairie Sampling\9.16.22\220916_082.gcd
Method File	C:\LabSolutions\Data\GHG_4min_2022\ghg3_togas_w_acet_4 min_new_int.gcm
Batch File	
Report Format File	c:\LabSolutions\System\DEFAULT.lsr

[File Description]


[Configuration]
Instrument Name	C0B7VH3-Instrument1
Instrument #	1
Line #	1
# of Detectors	3
Detector ID	DET#1	DET#2	DET#3
Detector Name	FID	PTCD	ECD
# of Channels	1	1	1

[Peak Table(Ch1)]
# of Peaks	3
Peak#	R.Time	I.Time	F.Time	Area	Height	A/H	Conc.	Mark	ID#	Name	k'	Plate #	Plate Ht.	Tailing	Resolution	Sep.Factor	Area Ratio	Height Ratio	Conc. %	Norm Conc.
1	1.479	1.439	1.538	12148	5346	2.272	100.000	   	1	CO	0.000	8386	17.887	1.174	0.000	0.000	0	0	16.667	16.667
2	1.571	1.538	1.626	4565	2272	2.009	100.000	 V 	2	CH4	0.062	11117	13.493	1.067	1.476	0.000	0	0	16.667	16.667
3	2.000	1.952	2.510	2565452	1225116	2.094	400.000	   	3	CO2	0.352	17495	8.574	1.191	7.145	5.680	0	0	66.667	66.667

[Peak Table(Ch2)]
# of Peaks	0

[Peak Table(Ch3)]
# of Peaks	4
Peak#	R.Time	I.Time	F.Time	Area	Height	A/H	Conc.	Mark	ID#	Name	k'	Plate #	Plate Ht.	Tailing	Resolution	Sep.Factor	Area Ratio	Height Ratio	Conc. %	Norm Conc.
1	2.462	2.246	2.499	2395	375	6.379	0.000	   			0.000	2164	69.306	0.000	0.000	0.000	0	0	0.000	0.000
2	2.598	2.499	2.649	2588	355	7.286	0.000	 V 			0.055	674	222.626	0.000	0.443	0.000	0	0	0.000	0.000
3	2.884	2.671	3.005	23053	5519	4.177	1.000	   	1	N2O	0.171	12656	11.853	1.582	1.138	3.108	0	0	50.000	50.000
4	3.258	3.005	3.995	29079	860	33.828	1.000	 V 	2	SF6	0.323	222	675.427	0.000	0.766	1.887	0	0	50.000	50.000

[Compound Results(Ch1)]
# of IDs	6
ID#	Name	R.Time	Area	Height	Conc.	Curve	3rd	2nd	1st	Constant	Area Ratio	Height Ratio	Conc. %	Norm Conc.
1	CO	1.479	12148	5346	100.000	Linear	0.000000e+00	0.000000e+00	1.214821e+002	0.000000e+00	0	0	16.667	16.667
2	CH4	1.571	4565	2272	100.000	Linear	0.000000e+00	0.000000e+00	4.565475e+001	0.000000e+00	0	0	16.667	16.667
3	CO2	2.000	2565452	1225116	400.000	Linear	0.000000e+00	0.000000e+00	6.413629e+003	0.000000e+00	0	0	66.667	66.667
4	Ethylene	0.000	0	0	0.000	Linear	0.000000e+00	0.000000e+00	0.000000e+00	0.000000e+00	0	0	0.000	0.000
5	Acetylene	0.000	0	0	0.000	Linear	0.000000e+00	0.000000e+00	0.000000e+00	0.000000e+00	0	0	0.000	0.000
6	Ethane	0.000	0	0	0.000	Linear	0.000000e+00	0.000000e+00	0.000000e+00	0.000000e+00	0	0	0.000	0.000

[Compound Results(Ch2)]
# of IDs	5
ID#	Name	R.Time	Area	Height	Conc.	Curve	3rd	2nd	1st	Constant	Area Ratio	Height Ratio	Conc. %	Norm Conc.
1	Hydrogen	0.000	0	0	0.000	Linear	0.000000e+00	0.000000e+00	0.000000e+00	0.000000e+00	0	0	0.000	0.000
2	Oxygen	0.000	0	0	0.000	Linear	0.000000e+00	0.000000e+00	0.000000e+00	0.000000e+00	0	0	0.000	0.000
3	Nitrogen	0.000	0	0	0.000	Linear	0.000000e+00	0.000000e+00	0.000000e+00	0.000000e+00	0	0	0.000	0.000
4	Methane	0.000	0	0	0.000	Linear	0.000000e+00	0.000000e+00	0.000000e+00	0.000000e+00	0	0	0.000	0.000
5	Carbon Monoxide	0.000	0	0	0.000	Linear	0.000000e+00	0.000000e+00	0.000000e+00	0.000000e+00	0	0	0.000	0.000

[Compound Results(Ch3)]
# of IDs	2
ID#	Name	R.Time	Area	Height	Conc.	Curve	3rd	2nd	1st	Constant	Area Ratio	Height Ratio	Conc. %	Norm Conc.
1	N2O	2.884	23053	5519	1.000	Linear	0.000000e+00	0.000000e+00	2.305311e+004	0.000000e+00	0	0	50.000	50.000
2	SF6	3.258	29079	860	1.000	Linear	0.000000e+00	0.000000e+00	2.907898e+004	0.000000e+00	0	0	50.000	50.000

[Group Results(Ch1)]
# of Groups	0

[Group Results(Ch2)]
# of Groups	0

[Group Results(Ch3)]
# of Groups	0

[Chromatogram (Ch1)]
Interval(msec)	220
# of Points	1091
Start Time(min)	0.002
End Time(min)	3.998
R.Time (min)	Intensity
0.00167	11
0.00533	13
0.00900	15
0.01267	15
0.01633	15
0.02000	18
0.02367	23
0.02733	28
0.03100	28
0.03467	22
0.03833	15
0.04200	10
0.04567	6
0.04933	6
0.05300	11
0.05667	18
0.06033	24
0.06400	28
0.06767	28
0.07133	26
0.07500	26
0.07867	28
0.08233	34
0.08600	44
0.08967	54
0.09333	63
0.09700	73
0.10067	82
0.10433	90
0.10800	98
0.11167	106
0.11533	113
0.11900	114
0.12267	110
0.12633	105
0.13000	102
0.13367	98
0.13733	99
0.14100	101
0.14467	103
0.14833	107
0.15200	113
0.15567	120
0.15933	124
0.16300	124
0.16667	120
0.17033	116
0.17400	115
0.17767	119
0.18133	123
0.18500	121
0.18867	115
0.19233	106
0.19600	98
0.19967	92
0.20333	89
0.20700	86
0.21067	83
0.21433	83
0.21800	85
0.22167	83
0.22533	77
0.22900	71
0.23267	64
0.23633	57
0.24000	49
0.24367	42
0.24733	38
0.25100	39
0.25467	39
0.25833	36
0.26200	31
0.26567	30
0.26933	33
0.27300	37
0.27667	42
0.28033	45
0.28400	48
0.28767	53
0.29133	60
0.29500	67
0.29867	73
0.30233	79
0.30600	82
0.30967	80
0.31333	67
0.31700	50
0.32067	38
0.32433	38
0.32800	41
0.33167	43
0.33533	44
0.33900	45
0.34267	46
0.34633	45
0.35000	44
0.35367	44
0.35733	41
0.36100	39
0.36467	40
0.36833	46
0.37200	54
0.37567	57
0.37933	57
0.38300	56
0.38667	54
0.39033	52
0.39400	49
0.39767	47
0.40133	47
0.40500	52
0.40867	60
0.41233	64
0.41600	62
0.41967	62
0.42333	60
0.42700	59
0.43067	58
0.43433	57
0.43800	57
0.44167	59
0.44533	60
0.44900	56
0.45267	55
0.45633	57
0.46000	59
0.46367	61
0.46733	61
0.47100	61
0.47467	60
0.47833	58
0.48200	59
0.48567	62
0.48933	64
0.49300	61
0.49667	51
0.50033	40
0.50400	33
0.50767	32
0.51133	35
0.51500	38
0.51867	35
0.52233	29
0.52600	23
0.52967	20
0.53333	20
0.53700	19
0.54067	20
0.54433	23
0.54800	27
0.55167	36
0.55533	45
0.55900	51
0.56267	52
0.56633	49
0.57000	47
0.57367	46
0.57733	46
0.58100	47
0.58467	43
0.58833	37
0.59200	36
0.59567	40
0.59933	46
0.60300	49
0.60667	51
0.61033	54
0.61400	56
0.61767	53
0.62133	46
0.62500	38
0.62867	30
0.63233	25
0.63600	24
0.63967	21
0.64333	16
0.64700	13
0.65067	12
0.65433	14
0.65800	18
0.66167	24
0.66533	27
0.66900	26
0.67267	20
0.67633	10
0.68000	0
0.68367	-4
0.68733	-4
0.69100	1
0.69467	9
0.69833	21
0.70200	33
0.70567	40
0.70933	42
0.71300	38
0.71667	30
0.72033	20
0.72400	15
0.72767	14
0.73133	12
0.73500	9
0.73867	6
0.74233	3
0.74600	4
0.74967	10
0.75333	21
0.75700	30
0.76067	35
0.76433	38
0.76800	40
0.77167	38
0.77533	34
0.77900	27
0.78267	14
0.78633	1
0.79000	-10
0.79367	-13
0.79733	-11
0.80100	-7
0.80467	-4
0.80833	-1
0.81200	1
0.81567	3
0.81933	5
0.82300	5
0.82667	5
0.83033	5
0.83400	7
0.83767	7
0.84133	5
0.84500	1
0.84867	1
0.85233	6
0.85600	13
0.85967	19
0.86333	20
0.86700	17
0.87067	13
0.87433	11
0.87800	9
0.88167	7
0.88533	6
0.88900	7
0.89267	9
0.89633	10
0.90000	11
0.90367	12
0.90733	13
0.91100	12
0.91467	9
0.91833	6
0.92200	1
0.92567	-5
0.92933	-12
0.93300	-14
0.93667	-14
0.94033	-15
0.94400	-17
0.94767	-19
0.95133	-17
0.95500	-13
0.95867	-9
0.96233	-5
0.96600	-0
0.96967	3
0.97333	4
0.97700	4
0.98067	1
0.98433	-2
0.98800	-4
0.99167	-7
0.99533	-10
0.99900	-16
1.00267	-21
1.00633	-21
1.01000	-16
1.01367	-9
1.01733	-4
1.02100	-0
1.02467	1
1.02833	1
1.03200	3
1.03567	3
1.03933	1
1.04300	-1
1.04667	-3
1.05033	-4
1.05400	-3
1.05767	-1
1.06133	-0
1.06500	-1
1.06867	-1
1.07233	1
1.07600	7
1.07967	12
1.08333	15
1.08700	14
1.09067	8
1.09433	-3
1.09800	-18
1.10167	-28
1.10533	-33
1.10900	-38
1.11267	-42
1.11633	-40
1.12000	-35
1.12367	-32
1.12733	-33
1.13100	-37
1.13467	-43
1.13833	-50
1.14200	-50
1.14567	-44
1.14933	-38
1.15300	-36
1.15667	-37
1.16033	-36
1.16400	-33
1.16767	-27
1.17133	-24
1.17500	-25
1.17867	-29
1.18233	-34
1.18600	-36
1.18967	-39
1.19333	-39
1.19700	-38
1.20067	-34
1.20433	-31
1.20800	-28
1.21167	-24
1.21533	-16
1.21900	-11
1.22267	-11
1.22633	-15
1.23000	-22
1.23367	-30
1.23733	-36
1.24100	-38
1.24467	-39
1.24833	-39
1.25200	-39
1.25567	-37
1.25933	-34
1.26300	-30
1.26667	-25
1.27033	-21
1.27400	-22
1.27767	-27
1.28133	-33
1.28500	-40
1.28867	-45
1.29233	-48
1.29600	-51
1.29967	-52
1.30333	-51
1.30700	-52
1.31067	-54
1.31433	-54
1.31800	-53
1.32167	-54
1.32533	-57
1.32900	-57
1.33267	-54
1.33633	-49
1.34000	-45
1.34367	-47
1.34733	-51
1.35100	-54
1.35467	-56
1.35833	-55
1.36200	-53
1.36567	-53
1.36933	-54
1.37300	-54
1.37667	-53
1.38033	-53
1.38400	-53
1.38767	-53
1.39133	-52
1.39500	-48
1.39867	-43
1.40233	-38
1.40600	-35
1.40967	-38
1.41333	-42
1.41700	-43
1.42067	-41
1.42433	-36
1.42800	-33
1.43167	-33
1.43533	-35
1.43900	-26
1.44267	37
1.44633	227
1.45000	565
1.45367	1102
1.45733	1885
1.46100	2823
1.46467	3736
1.46833	4486
1.47200	5020
1.47567	5308
1.47933	5313
1.48300	5008
1.48667	4423
1.49033	3668
1.49400	2887
1.49767	2184
1.50133	1609
1.50500	1168
1.50867	845
1.51233	613
1.51600	446
1.51967	324
1.52333	233
1.52700	166
1.53067	118
1.53433	84
1.53800	67
1.54167	89
1.54533	204
1.54900	462
1.55267	849
1.55633	1283
1.56000	1679
1.56367	1983
1.56733	2173
1.57100	2225
1.57467	2115
1.57833	1855
1.58200	1503
1.58567	1135
1.58933	806
1.59300	542
1.59667	344
1.60033	207
1.60400	118
1.60767	59
1.61133	20
1.61500	-9
1.61867	-32
1.62233	-48
1.62600	-57
1.62967	-60
1.63333	-61
1.63700	-58
1.64067	-53
1.64433	-51
1.64800	-53
1.65167	-58
1.65533	-62
1.65900	-64
1.66267	-64
1.66633	-63
1.67000	-60
1.67367	-56
1.67733	-54
1.68100	-50
1.68467	-47
1.68833	-49
1.69200	-54
1.69567	-61
1.69933	-67
1.70300	-72
1.70667	-76
1.71033	-77
1.71400	-79
1.71767	-80
1.72133	-76
1.72500	-72
1.72867	-71
1.73233	-72
1.73600	-74
1.73967	-76
1.74333	-78
1.74700	-77
1.75067	-74
1.75433	-72
1.75800	-69
1.76167	-68
1.76533	-68
1.76900	-71
1.77267	-75
1.77633	-74
1.78000	-74
1.78367	-75
1.78733	-79
1.79100	-85
1.79467	-95
1.79833	-103
1.80200	-104
1.80567	-104
1.80933	-99
1.81300	-91
1.81667	-82
1.82033	-69
1.82400	-56
1.82767	-44
1.83133	-36
1.83500	-33
1.83867	-37
1.84233	-45
1.84600	-56
1.84967	-66
1.85333	-78
1.85700	-85
1.86067	-85
1.86433	-81
1.86800	-78
1.87167	-79
1.87533	-79
1.87900	-80
1.88267	-82
1.88633	-86
1.89000	-89
1.89367	-90
1.89733	-88
1.90100	-82
1.90467	-79
1.90833	-76
1.91200	-72
1.91567	-67
1.91933	-59
1.92300	-51
1.92667	-44
1.93033	-42
1.93400	-45
1.93767	-50
1.94133	-53
1.94500	-57
1.94867	-64
1.95233	-59
1.95600	25
1.95967	585
1.96333	3505
1.96700	15117
1.97067	50353
1.97433	132556
1.97800	280658
1.98167	489406
1.98533	726395
1.98900	948489
1.99267	1119373
1.99633	1215353
2.00000	1225084
2.00367	1151891
2.00733	1013573
2.01100	838170
2.01467	655781
2.01833	489971
2.02200	353374
2.02567	248709
2.02933	172599
2.03300	119219
2.03667	82662
2.04033	57972
2.04400	41396
2.04767	30254
2.05133	22714
2.05500	17542
2.05867	13933
2.06233	11364
2.06600	9491
2.06967	8091
2.07333	7017
2.07700	6176
2.08067	5501
2.08433	4950
2.08800	4494
2.09167	4111
2.09533	3785
2.09900	3505
2.10267	3263
2.10633	3051
2.11000	2864
2.11367	2697
2.11733	2547
2.12100	2409
2.12467	2282
2.12833	2166
2.13200	2061
2.13567	1965
2.13933	1877
2.14300	1797
2.14667	1724
2.15033	1653
2.15400	1586
2.15767	1522
2.16133	1464
2.16500	1410
2.16867	1362
2.17233	1319
2.17600	1279
2.17967	1242
2.18333	1207
2.18700	1170
2.19067	1133
2.19433	1098
2.19800	1064
2.20167	1030
2.20533	998
2.20900	970
2.21267	946
2.21633	922
2.22000	904
2.22367	889
2.22733	873
2.23100	853
2.23467	831
2.23833	812
2.24200	791
2.24567	767
2.24933	742
2.25300	720
2.25667	696
2.26033	670
2.26400	649
2.26767	633
2.27133	620
2.27500	609
2.27867	598
2.28233	588
2.28600	580
2.28967	574
2.29333	570
2.29700	566
2.30067	565
2.30433	562
2.30800	555
2.31167	544
2.31533	534
2.31900	523
2.32267	510
2.32633	496
2.33000	481
2.33367	466
2.33733	452
2.34100	442
2.34467	435
2.34833	430
2.35200	424
2.35567	418
2.35933	414
2.36300	416
2.36667	419
2.37033	419
2.37400	416
2.37767	413
2.38133	408
2.38500	402
2.38867	396
2.39233	392
2.39600	390
2.39967	387
2.40333	382
2.40700	377
2.41067	371
2.41433	366
2.41800	360
2.42167	350
2.42533	340
2.42900	334
2.43267	329
2.43633	324
2.44000	321
2.44367	321
2.44733	318
2.45100	314
2.45467	310
2.45833	304
2.46200	298
2.46567	297
2.46933	299
2.47300	301
2.47667	301
2.48033	299
2.48400	292
2.48767	285
2.49133	281
2.49500	279
2.49867	276
2.50233	272
2.50600	267
2.50967	264
2.51333	263
2.51700	264
2.52067	265
2.52433	262
2.52800	260
2.53167	261
2.53533	265
2.53900	268
2.54267	272
2.54633	273
2.55000	270
2.55367	268
2.55733	266
2.56100	261
2.56467	253
2.56833	246
2.57200	242
2.57567	237
2.57933	231
2.58300	223
2.58667	217
2.59033	214
2.59400	217
2.59767	226
2.60133	230
2.60500	229
2.60867	225
2.61233	221
2.61600	221
2.61967	225
2.62333	225
2.62700	220
2.63067	217
2.63433	213
2.63800	204
2.64167	197
2.64533	194
2.64900	193
2.65267	194
2.65633	199
2.66000	204
2.66367	208
2.66733	208
2.67100	205
2.67467	202
2.67833	199
2.68200	200
2.68567	201
2.68933	200
2.69300	201
2.69667	201
2.70033	197
2.70400	189
2.70767	180
2.71133	172
2.71500	166
2.71867	162
2.72233	159
2.72600	157
2.72967	156
2.73333	159
2.73700	164
2.74067	169
2.74433	174
2.74800	180
2.75167	185
2.75533	188
2.75900	191
2.76267	192
2.76633	191
2.77000	189
2.77367	185
2.77733	180
2.78100	177
2.78467	178
2.78833	176
2.79200	170
2.79567	164
2.79933	159
2.80300	159
2.80667	160
2.81033	161
2.81400	161
2.81767	163
2.82133	164
2.82500	162
2.82867	159
2.83233	158
2.83600	156
2.83967	155
2.84333	158
2.84700	163
2.85067	170
2.85433	176
2.85800	178
2.86167	178
2.86533	178
2.86900	180
2.87267	182
2.87633	183
2.88000	182
2.88367	179
2.88733	178
2.89100	179
2.89467	179
2.89833	177
2.90200	175
2.90567	173
2.90933	169
2.91300	161
2.91667	153
2.92033	150
2.92400	151
2.92767	152
2.93133	155
2.93500	157
2.93867	159
2.94233	158
2.94600	156
2.94967	155
2.95333	156
2.95700	158
2.96067	160
2.96433	162
2.96800	163
2.97167	164
2.97533	161
2.97900	154
2.98267	150
2.98633	150
2.99000	153
2.99367	158
2.99733	163
3.00100	166
3.00467	167
3.00833	166
3.01200	165
3.01567	164
3.01933	166
3.02300	169
3.02667	172
3.03033	173
3.03400	171
3.03767	166
3.04133	162
3.04500	159
3.04867	154
3.05233	150
3.05600	150
3.05967	153
3.06333	156
3.06700	160
3.07067	161
3.07433	160
3.07800	159
3.08167	157
3.08533	154
3.08900	151
3.09267	149
3.09633	147
3.10000	145
3.10367	145
3.10733	142
3.11100	141
3.11467	143
3.11833	143
3.12200	141
3.12567	142
3.12933	147
3.13300	157
3.13667	171
3.14033	185
3.14400	194
3.14767	197
3.15133	194
3.15500	184
3.15867	171
3.16233	155
3.16600	138
3.16967	124
3.17333	116
3.17700	115
3.18067	116
3.18433	118
3.18800	118
3.19167	121
3.19533	128
3.19900	134
3.20267	141
3.20633	148
3.21000	151
3.21367	149
3.21733	148
3.22100	148
3.22467	147
3.22833	146
3.23200	144
3.23567	141
3.23933	139
3.24300	136
3.24667	135
3.25033	132
3.25400	131
3.25767	131
3.26133	131
3.26500	131
3.26867	133
3.27233	133
3.27600	130
3.27967	129
3.28333	131
3.28700	135
3.29067	139
3.29433	140
3.29800	140
3.30167	138
3.30533	136
3.30900	136
3.31267	138
3.31633	141
3.32000	143
3.32367	143
3.32733	142
3.33100	140
3.33467	138
3.33833	138
3.34200	137
3.34567	131
3.34933	123
3.35300	114
3.35667	108
3.36033	103
3.36400	104
3.36767	106
3.37133	109
3.37500	114
3.37867	122
3.38233	130
3.38600	133
3.38967	133
3.39333	130
3.39700	127
3.40067	130
3.40433	135
3.40800	138
3.41167	139
3.41533	138
3.41900	136
3.42267	134
3.42633	132
3.43000	129
3.43367	129
3.43733	133
3.44100	138
3.44467	141
3.44833	140
3.45200	132
3.45567	122
3.45933	113
3.46300	108
3.46667	105
3.47033	107
3.47400	114
3.47767	121
3.48133	128
3.48500	132
3.48867	134
3.49233	134
3.49600	132
3.49967	129
3.50333	124
3.50700	122
3.51067	125
3.51433	126
3.51800	122
3.52167	117
3.52533	116
3.52900	118
3.53267	119
3.53633	118
3.54000	115
3.54367	114
3.54733	119
3.55100	124
3.55467	125
3.55833	121
3.56200	119
3.56567	119
3.56933	120
3.57300	118
3.57667	115
3.58033	112
3.58400	111
3.58767	109
3.59133	108
3.59500	107
3.59867	104
3.60233	101
3.60600	97
3.60967	92
3.61333	87
3.61700	86
3.62067	90
3.62433	97
3.62800	105
3.63167	112
3.63533	117
3.63900	124
3.64267	132
3.64633	137
3.65000	137
3.65367	132
3.65733	125
3.66100	116
3.66467	105
3.66833	96
3.67200	88
3.67567	83
3.67933	80
3.68300	83
3.68667	90
3.69033	97
3.69400	101
3.69767	103
3.70133	101
3.70500	98
3.70867	93
3.71233	84
3.71600	79
3.71967	80
3.72333	88
3.72700	101
3.73067	110
3.73433	109
3.73800	99
3.74167	84
3.74533	68
3.74900	57
3.75267	55
3.75633	61
3.76000	68
3.76367	74
3.76733	80
3.77100	89
3.77467	95
3.77833	95
3.78200	95
3.78567	94
3.78933	90
3.79300	83
3.79667	75
3.80033	69
3.80400	64
3.80767	62
3.81133	61
3.81500	62
3.81867	65
3.82233	70
3.82600	74
3.82967	78
3.83333	83
3.83700	90
3.84067	96
3.84433	99
3.84800	100
3.85167	98
3.85533	93
3.85900	86
3.86267	78
3.86633	72
3.87000	71
3.87367	75
3.87733	80
3.88100	86
3.88467	91
3.88833	93
3.89200	91
3.89567	86
3.89933	83
3.90300	79
3.90667	77
3.91033	77
3.91400	78
3.91767	79
3.92133	77
3.92500	73
3.92867	72
3.93233	74
3.93600	76
3.93967	79
3.94333	81
3.94700	83
3.95067	83
3.95433	78
3.95800	71
3.96167	65
3.96533	61
3.96900	57
3.97267	54
3.97633	53
3.98000	55
3.98367	57
3.98733	62
3.99100	68
3.99467	74
3.99833	75

[Chromatogram (Ch2)]
Interval(msec)	220
# of Points	1091
Start Time(min)	0.002
End Time(min)	3.998
R.Time (min)	Intensity
0.00167	-0
0.00533	-0
0.00900	-0
0.01267	-0
0.01633	0
0.02000	0
0.02367	1
0.02733	1
0.03100	1
0.03467	1
0.03833	1
0.04200	2
0.04567	2
0.04933	2
0.05300	2
0.05667	2
0.06033	2
0.06400	2
0.06767	2
0.07133	2
0.07500	2
0.07867	2
0.08233	2
0.08600	2
0.08967	2
0.09333	2
0.09700	2
0.10067	2
0.10433	2
0.10800	2
0.11167	2
0.11533	2
0.11900	2
0.12267	2
0.12633	3
0.13000	3
0.13367	3
0.13733	3
0.14100	3
0.14467	2
0.14833	2
0.15200	1
0.15567	1
0.15933	0
0.16300	-0
0.16667	-1
0.17033	-1
0.17400	-2
0.17767	-2
0.18133	-3
0.18500	-3
0.18867	-3
0.19233	-3
0.19600	-3
0.19967	-3
0.20333	-2
0.20700	-2
0.21067	-2
0.21433	-2
0.21800	-2
0.22167	-2
0.22533	-1
0.22900	-1
0.23267	-1
0.23633	-1
0.24000	-0
0.24367	-0
0.24733	-0
0.25100	0
0.25467	0
0.25833	0
0.26200	1
0.26567	1
0.26933	1
0.27300	1
0.27667	1
0.28033	2
0.28400	2
0.28767	2
0.29133	2
0.29500	2
0.29867	2
0.30233	2
0.30600	2
0.30967	2
0.31333	2
0.31700	2
0.32067	2
0.32433	2
0.32800	2
0.33167	2
0.33533	2
0.33900	2
0.34267	2
0.34633	2
0.35000	2
0.35367	2
0.35733	2
0.36100	2
0.36467	2
0.36833	1
0.37200	1
0.37567	0
0.37933	0
0.38300	-0
0.38667	-0
0.39033	-1
0.39400	-1
0.39767	-1
0.40133	-2
0.40500	-2
0.40867	-2
0.41233	-2
0.41600	-2
0.41967	-2
0.42333	-2
0.42700	-2
0.43067	-2
0.43433	-2
0.43800	-2
0.44167	-1
0.44533	-1
0.44900	-1
0.45267	-1
0.45633	-0
0.46000	-0
0.46367	-0
0.46733	-1
0.47100	-1
0.47467	-1
0.47833	-1
0.48200	-1
0.48567	-1
0.48933	-1
0.49300	-1
0.49667	-1
0.50033	-1
0.50400	-1
0.50767	-1
0.51133	-1
0.51500	-1
0.51867	-1
0.52233	-1
0.52600	-0
0.52967	-0
0.53333	0
0.53700	0
0.54067	0
0.54433	0
0.54800	0
0.55167	0
0.55533	0
0.55900	0
0.56267	-0
0.56633	-0
0.57000	-1
0.57367	-1
0.57733	-1
0.58100	-1
0.58467	-1
0.58833	-2
0.59200	-2
0.59567	-3
0.59933	-3
0.60300	-4
0.60667	-4
0.61033	-5
0.61400	-5
0.61767	-5
0.62133	-5
0.62500	-5
0.62867	-4
0.63233	-3
0.63600	-3
0.63967	-2
0.64333	-1
0.64700	-1
0.65067	-0
0.65433	0
0.65800	1
0.66167	1
0.66533	1
0.66900	1
0.67267	1
0.67633	1
0.68000	1
0.68367	1
0.68733	1
0.69100	1
0.69467	1
0.69833	1
0.70200	1
0.70567	1
0.70933	2
0.71300	2
0.71667	2
0.72033	2
0.72400	1
0.72767	1
0.73133	1
0.73500	1
0.73867	1
0.74233	1
0.74600	0
0.74967	0
0.75333	-0
0.75700	-1
0.76067	-1
0.76433	-1
0.76800	-2
0.77167	-2
0.77533	-2
0.77900	-2
0.78267	-2
0.78633	-3
0.79000	-3
0.79367	-3
0.79733	-4
0.80100	-4
0.80467	-4
0.80833	-4
0.81200	-4
0.81567	-4
0.81933	-3
0.82300	-3
0.82667	-3
0.83033	-2
0.83400	-2
0.83767	-3
0.84133	-3
0.84500	-3
0.84867	-3
0.85233	-3
0.85600	-2
0.85967	-2
0.86333	-2
0.86700	-2
0.87067	-2
0.87433	-2
0.87800	-2
0.88167	-2
0.88533	-2
0.88900	-2
0.89267	-1
0.89633	-1
0.90000	-1
0.90367	-1
0.90733	-1
0.91100	-1
0.91467	-1
0.91833	-1
0.92200	-1
0.92567	-1
0.92933	-1
0.93300	-1
0.93667	-1
0.94033	-1
0.94400	-1
0.94767	-1
0.95133	-1
0.95500	-1
0.95867	-1
0.96233	-1
0.96600	-1
0.96967	-1
0.97333	-1
0.97700	-1
0.98067	-1
0.98433	-1
0.98800	-1
0.99167	-1
0.99533	-1
0.99900	-1
1.00267	-1
1.00633	-1
1.01000	-1
1.01367	-1
1.01733	-1
1.02100	-1
1.02467	-1
1.02833	-1
1.03200	-1
1.03567	-2
1.03933	-2
1.04300	-2
1.04667	-2
1.05033	-2
1.05400	-2
1.05767	-2
1.06133	-2
1.06500	-2
1.06867	-2
1.07233	-2
1.07600	-2
1.07967	-2
1.08333	-2
1.08700	-2
1.09067	-1
1.09433	-2
1.09800	-2
1.10167	-2
1.10533	-2
1.10900	-2
1.11267	-2
1.11633	-2
1.12000	-2
1.12367	-2
1.12733	-2
1.13100	-2
1.13467	-2
1.13833	-2
1.14200	-2
1.14567	-2
1.14933	-2
1.15300	-3
1.15667	-3
1.16033	-3
1.16400	-3
1.16767	-3
1.17133	-3
1.17500	-3
1.17867	-2
1.18233	-2
1.18600	-2
1.18967	-2
1.19333	-2
1.19700	-2
1.20067	-2
1.20433	-2
1.20800	-2
1.21167	-2
1.21533	-2
1.21900	-2
1.22267	-2
1.22633	-2
1.23000	-2
1.23367	-2
1.23733	-2
1.24100	-2
1.24467	-2
1.24833	-2
1.25200	-2
1.25567	-2
1.25933	-2
1.26300	-3
1.26667	-2
1.27033	-2
1.27400	-2
1.27767	-2
1.28133	-2
1.28500	-2
1.28867	-2
1.29233	-2
1.29600	-2
1.29967	-2
1.30333	-2
1.30700	-2
1.31067	-2
1.31433	-2
1.31800	-2
1.32167	-3
1.32533	-3
1.32900	-3
1.33267	-3
1.33633	-3
1.34000	-3
1.34367	-3
1.34733	-3
1.35100	-3
1.35467	-3
1.35833	-3
1.36200	-3
1.36567	-3
1.36933	-3
1.37300	-3
1.37667	-3
1.38033	-2
1.38400	-2
1.38767	-2
1.39133	-2
1.39500	-2
1.39867	-2
1.40233	-2
1.40600	-2
1.40967	-2
1.41333	-2
1.41700	-3
1.42067	-3
1.42433	-3
1.42800	-4
1.43167	-4
1.43533	-4
1.43900	-4
1.44267	-5
1.44633	-5
1.45000	-5
1.45367	-5
1.45733	-5
1.46100	-5
1.46467	-5
1.46833	-6
1.47200	-5
1.47567	-5
1.47933	-5
1.48300	-4
1.48667	-4
1.49033	-3
1.49400	-3
1.49767	-2
1.50133	-2
1.50500	-2
1.50867	-2
1.51233	-2
1.51600	-2
1.51967	-2
1.52333	-2
1.52700	-2
1.53067	-3
1.53433	-3
1.53800	-3
1.54167	-3
1.54533	-3
1.54900	-3
1.55267	-3
1.55633	-3
1.56000	-3
1.56367	-3
1.56733	-3
1.57100	-4
1.57467	-4
1.57833	-4
1.58200	-4
1.58567	-5
1.58933	-5
1.59300	-5
1.59667	-6
1.60033	-7
1.60400	-8
1.60767	-10
1.61133	-11
1.61500	-14
1.61867	-16
1.62233	-18
1.62600	-20
1.62967	-23
1.63333	-25
1.63700	-28
1.64067	-30
1.64433	-33
1.64800	-36
1.65167	-39
1.65533	-43
1.65900	-47
1.66267	-51
1.66633	-56
1.67000	-60
1.67367	-65
1.67733	-71
1.68100	-76
1.68467	-81
1.68833	-86
1.69200	-90
1.69567	-94
1.69933	-97
1.70300	-100
1.70667	-102
1.71033	-104
1.71400	-106
1.71767	-107
1.72133	-108
1.72500	-109
1.72867	-110
1.73233	-111
1.73600	-112
1.73967	-112
1.74333	-113
1.74700	-114
1.75067	-114
1.75433	-115
1.75800	-115
1.76167	-115
1.76533	-116
1.76900	-116
1.77267	-117
1.77633	-117
1.78000	-118
1.78367	-118
1.78733	-118
1.79100	-118
1.79467	-117
1.79833	-117
1.80200	-117
1.80567	-117
1.80933	-118
1.81300	-119
1.81667	-120
1.82033	-121
1.82400	-121
1.82767	-121
1.83133	-122
1.83500	-122
1.83867	-122
1.84233	-123
1.84600	-123
1.84967	-123
1.85333	-123
1.85700	-123
1.86067	-123
1.86433	-123
1.86800	-123
1.87167	-122
1.87533	-122
1.87900	-122
1.88267	-122
1.88633	-122
1.89000	-123
1.89367	-123
1.89733	-123
1.90100	-123
1.90467	-122
1.90833	-121
1.91200	-121
1.91567	-120
1.91933	-120
1.92300	-120
1.92667	-120
1.93033	-120
1.93400	-120
1.93767	-120
1.94133	-120
1.94500	-120
1.94867	-120
1.95233	-120
1.95600	-120
1.95967	-120
1.96333	-119
1.96700	-119
1.97067	-118
1.97433	-117
1.97800	-117
1.98167	-117
1.98533	-116
1.98900	-116
1.99267	-116
1.99633	-116
2.00000	-116
2.00367	-115
2.00733	-115
2.01100	-114
2.01467	-114
2.01833	-113
2.02200	-113
2.02567	-112
2.02933	-111
2.03300	-111
2.03667	-110
2.04033	-110
2.04400	-109
2.04767	-109
2.05133	-109
2.05500	-109
2.05867	-109
2.06233	-109
2.06600	-109
2.06967	-109
2.07333	-109
2.07700	-109
2.08067	-109
2.08433	-109
2.08800	-108
2.09167	-108
2.09533	-108
2.09900	-107
2.10267	-107
2.10633	-107
2.11000	-107
2.11367	-107
2.11733	-107
2.12100	-107
2.12467	-107
2.12833	-106
2.13200	-106
2.13567	-105
2.13933	-105
2.14300	-104
2.14667	-104
2.15033	-103
2.15400	-103
2.15767	-102
2.16133	-102
2.16500	-102
2.16867	-102
2.17233	-102
2.17600	-101
2.17967	-101
2.18333	-100
2.18700	-99
2.19067	-99
2.19433	-99
2.19800	-99
2.20167	-99
2.20533	-99
2.20900	-99
2.21267	-98
2.21633	-98
2.22000	-97
2.22367	-97
2.22733	-97
2.23100	-97
2.23467	-97
2.23833	-96
2.24200	-96
2.24567	-96
2.24933	-95
2.25300	-95
2.25667	-95
2.26033	-95
2.26400	-95
2.26767	-95
2.27133	-94
2.27500	-93
2.27867	-93
2.28233	-92
2.28600	-91
2.28967	-91
2.29333	-90
2.29700	-90
2.30067	-89
2.30433	-89
2.30800	-88
2.31167	-88
2.31533	-88
2.31900	-88
2.32267	-87
2.32633	-87
2.33000	-87
2.33367	-86
2.33733	-86
2.34100	-85
2.34467	-84
2.34833	-83
2.35200	-82
2.35567	-81
2.35933	-81
2.36300	-80
2.36667	-80
2.37033	-79
2.37400	-78
2.37767	-77
2.38133	-76
2.38500	-74
2.38867	-71
2.39233	-68
2.39600	-64
2.39967	-60
2.40333	-55
2.40700	-50
2.41067	-45
2.41433	-41
2.41800	-36
2.42167	-33
2.42533	-29
2.42900	-26
2.43267	-24
2.43633	-21
2.44000	-18
2.44367	-16
2.44733	-14
2.45100	-12
2.45467	-10
2.45833	-8
2.46200	-6
2.46567	-5
2.46933	-4
2.47300	-3
2.47667	-2
2.48033	-1
2.48400	0
2.48767	2
2.49133	3
2.49500	4
2.49867	5
2.50233	5
2.50600	6
2.50967	6
2.51333	6
2.51700	6
2.52067	7
2.52433	8
2.52800	9
2.53167	10
2.53533	10
2.53900	11
2.54267	12
2.54633	12
2.55000	13
2.55367	13
2.55733	13
2.56100	14
2.56467	14
2.56833	14
2.57200	15
2.57567	15
2.57933	15
2.58300	15
2.58667	15
2.59033	15
2.59400	16
2.59767	16
2.60133	16
2.60500	16
2.60867	16
2.61233	16
2.61600	16
2.61967	16
2.62333	16
2.62700	17
2.63067	17
2.63433	17
2.63800	18
2.64167	18
2.64533	18
2.64900	19
2.65267	19
2.65633	19
2.66000	19
2.66367	19
2.66733	19
2.67100	18
2.67467	18
2.67833	18
2.68200	18
2.68567	18
2.68933	18
2.69300	19
2.69667	19
2.70033	19
2.70400	20
2.70767	20
2.71133	21
2.71500	22
2.71867	22
2.72233	23
2.72600	23
2.72967	24
2.73333	24
2.73700	24
2.74067	23
2.74433	23
2.74800	23
2.75167	22
2.75533	22
2.75900	22
2.76267	22
2.76633	22
2.77000	22
2.77367	22
2.77733	22
2.78100	23
2.78467	23
2.78833	23
2.79200	23
2.79567	24
2.79933	24
2.80300	24
2.80667	25
2.81033	25
2.81400	25
2.81767	25
2.82133	25
2.82500	25
2.82867	25
2.83233	24
2.83600	24
2.83967	24
2.84333	23
2.84700	23
2.85067	21
2.85433	18
2.85800	14
2.86167	8
2.86533	-1
2.86900	-13
2.87267	-29
2.87633	-49
2.88000	-72
2.88367	-100
2.88733	-131
2.89100	-166
2.89467	-204
2.89833	-245
2.90200	-289
2.90567	-334
2.90933	-382
2.91300	-430
2.91667	-480
2.92033	-530
2.92400	-580
2.92767	-630
2.93133	-680
2.93500	-729
2.93867	-777
2.94233	-827
2.94600	-879
2.94967	-938
2.95333	-999
2.95700	-1053
2.96067	-1090
2.96433	-1101
2.96800	-1085
2.97167	-1046
2.97533	-989
2.97900	-918
2.98267	-840
2.98633	-760
2.99000	-680
2.99367	-603
2.99733	-530
3.00100	-463
3.00467	-402
3.00833	-348
3.01200	-299
3.01567	-257
3.01933	-219
3.02300	-187
3.02667	-158
3.03033	-134
3.03400	-113
3.03767	-95
3.04133	-79
3.04500	-66
3.04867	-54
3.05233	-45
3.05600	-36
3.05967	-29
3.06333	-23
3.06700	-18
3.07067	-13
3.07433	-9
3.07800	-6
3.08167	-4
3.08533	-2
3.08900	0
3.09267	2
3.09633	3
3.10000	5
3.10367	6
3.10733	7
3.11100	8
3.11467	9
3.11833	10
3.12200	10
3.12567	11
3.12933	11
3.13300	12
3.13667	12
3.14033	13
3.14400	13
3.14767	14
3.15133	14
3.15500	15
3.15867	15
3.16233	15
3.16600	16
3.16967	16
3.17333	17
3.17700	17
3.18067	17
3.18433	17
3.18800	17
3.19167	18
3.19533	18
3.19900	19
3.20267	19
3.20633	19
3.21000	20
3.21367	20
3.21733	21
3.22100	21
3.22467	21
3.22833	22
3.23200	22
3.23567	22
3.23933	23
3.24300	23
3.24667	23
3.25033	23
3.25400	23
3.25767	23
3.26133	23
3.26500	23
3.26867	23
3.27233	23
3.27600	23
3.27967	23
3.28333	23
3.28700	23
3.29067	23
3.29433	23
3.29800	23
3.30167	23
3.30533	23
3.30900	24
3.31267	24
3.31633	24
3.32000	24
3.32367	23
3.32733	23
3.33100	23
3.33467	23
3.33833	23
3.34200	23
3.34567	23
3.34933	23
3.35300	23
3.35667	23
3.36033	24
3.36400	24
3.36767	25
3.37133	25
3.37500	25
3.37867	26
3.38233	26
3.38600	27
3.38967	27
3.39333	27
3.39700	26
3.40067	26
3.40433	26
3.40800	26
3.41167	26
3.41533	26
3.41900	26
3.42267	26
3.42633	27
3.43000	27
3.43367	27
3.43733	27
3.44100	28
3.44467	28
3.44833	28
3.45200	28
3.45567	28
3.45933	28
3.46300	28
3.46667	28
3.47033	27
3.47400	27
3.47767	27
3.48133	27
3.48500	27
3.48867	27
3.49233	27
3.49600	28
3.49967	28
3.50333	28
3.50700	28
3.51067	28
3.51433	28
3.51800	28
3.52167	28
3.52533	28
3.52900	28
3.53267	28
3.53633	27
3.54000	27
3.54367	27
3.54733	27
3.55100	27
3.55467	27
3.55833	27
3.56200	27
3.56567	27
3.56933	27
3.57300	26
3.57667	26
3.58033	26
3.58400	26
3.58767	26
3.59133	27
3.59500	27
3.59867	26
3.60233	26
3.60600	26
3.60967	26
3.61333	26
3.61700	26
3.62067	26
3.62433	26
3.62800	26
3.63167	26
3.63533	25
3.63900	25
3.64267	25
3.64633	25
3.65000	24
3.65367	24
3.65733	24
3.66100	24
3.66467	24
3.66833	24
3.67200	24
3.67567	24
3.67933	24
3.68300	24
3.68667	24
3.69033	24
3.69400	24
3.69767	24
3.70133	24
3.70500	24
3.70867	24
3.71233	24
3.71600	24
3.71967	24
3.72333	24
3.72700	24
3.73067	24
3.73433	24
3.73800	25
3.74167	25
3.74533	25
3.74900	25
3.75267	25
3.75633	25
3.76000	25
3.76367	25
3.76733	25
3.77100	25
3.77467	25
3.77833	25
3.78200	25
3.78567	25
3.78933	25
3.79300	25
3.79667	24
3.80033	24
3.80400	24
3.80767	24
3.81133	24
3.81500	24
3.81867	24
3.82233	24
3.82600	24
3.82967	24
3.83333	24
3.83700	24
3.84067	24
3.84433	25
3.84800	25
3.85167	24
3.85533	24
3.85900	24
3.86267	24
3.86633	24
3.87000	24
3.87367	23
3.87733	23
3.88100	23
3.88467	23
3.88833	23
3.89200	23
3.89567	23
3.89933	23
3.90300	23
3.90667	24
3.91033	24
3.91400	24
3.91767	25
3.92133	25
3.92500	25
3.92867	25
3.93233	25
3.93600	25
3.93967	25
3.94333	25
3.94700	25
3.95067	24
3.95433	24
3.95800	24
3.96167	23
3.96533	23
3.96900	24
3.97267	24
3.97633	24
3.98000	24
3.98367	24
3.98733	24
3.99100	24
3.99467	24
3.99833	24

[Chromatogram (Ch3)]
Interval(msec)	220
# of Points	1091
Start Time(min)	0.002
End Time(min)	3.998
R.Time (min)	Intensity
0.00167	0
0.00533	1
0.00900	1
0.01267	2
0.01633	4
0.02000	5
0.02367	5
0.02733	5
0.03100	4
0.03467	5
0.03833	5
0.04200	5
0.04567	5
0.04933	5
0.05300	2
0.05667	1
0.06033	2
0.06400	2
0.06767	3
0.07133	5
0.07500	6
0.07867	5
0.08233	5
0.08600	7
0.08967	5
0.09333	3
0.09700	3
0.10067	4
0.10433	2
0.10800	2
0.11167	4
0.11533	6
0.11900	7
0.12267	9
0.12633	12
0.13000	12
0.13367	10
0.13733	9
0.14100	7
0.14467	4
0.14833	4
0.15200	7
0.15567	10
0.15933	13
0.16300	15
0.16667	15
0.17033	15
0.17400	15
0.17767	14
0.18133	12
0.18500	11
0.18867	10
0.19233	11
0.19600	9
0.19967	8
0.20333	9
0.20700	10
0.21067	10
0.21433	10
0.21800	8
0.22167	8
0.22533	8
0.22900	7
0.23267	9
0.23633	11
0.24000	11
0.24367	11
0.24733	11
0.25100	11
0.25467	11
0.25833	13
0.26200	15
0.26567	16
0.26933	15
0.27300	14
0.27667	14
0.28033	14
0.28400	15
0.28767	17
0.29133	17
0.29500	18
0.29867	17
0.30233	16
0.30600	13
0.30967	12
0.31333	12
0.31700	13
0.32067	13
0.32433	14
0.32800	16
0.33167	17
0.33533	15
0.33900	14
0.34267	16
0.34633	18
0.35000	19
0.35367	21
0.35733	23
0.36100	23
0.36467	21
0.36833	20
0.37200	21
0.37567	22
0.37933	20
0.38300	21
0.38667	22
0.39033	24
0.39400	24
0.39767	23
0.40133	20
0.40500	17
0.40867	16
0.41233	16
0.41600	16
0.41967	18
0.42333	20
0.42700	21
0.43067	23
0.43433	24
0.43800	24
0.44167	22
0.44533	20
0.44900	20
0.45267	21
0.45633	22
0.46000	23
0.46367	24
0.46733	22
0.47100	21
0.47467	23
0.47833	23
0.48200	23
0.48567	22
0.48933	20
0.49300	21
0.49667	22
0.50033	24
0.50400	24
0.50767	23
0.51133	23
0.51500	26
0.51867	27
0.52233	28
0.52600	30
0.52967	29
0.53333	28
0.53700	27
0.54067	28
0.54433	27
0.54800	27
0.55167	26
0.55533	25
0.55900	26
0.56267	30
0.56633	32
0.57000	32
0.57367	31
0.57733	32
0.58100	34
0.58467	36
0.58833	37
0.59200	35
0.59567	33
0.59933	33
0.60300	35
0.60667	38
0.61033	39
0.61400	40
0.61767	39
0.62133	40
0.62500	40
0.62867	39
0.63233	38
0.63600	37
0.63967	36
0.64333	36
0.64700	37
0.65067	38
0.65433	41
0.65800	41
0.66167	42
0.66533	41
0.66900	40
0.67267	38
0.67633	37
0.68000	36
0.68367	36
0.68733	37
0.69100	38
0.69467	37
0.69833	38
0.70200	38
0.70567	37
0.70933	35
0.71300	33
0.71667	34
0.72033	34
0.72400	34
0.72767	36
0.73133	39
0.73500	40
0.73867	41
0.74233	42
0.74600	44
0.74967	44
0.75333	45
0.75700	46
0.76067	45
0.76433	43
0.76800	45
0.77167	42
0.77533	41
0.77900	41
0.78267	42
0.78633	42
0.79000	41
0.79367	41
0.79733	39
0.80100	38
0.80467	39
0.80833	40
0.81200	42
0.81567	43
0.81933	43
0.82300	43
0.82667	47
0.83033	50
0.83400	51
0.83767	49
0.84133	47
0.84500	46
0.84867	44
0.85233	44
0.85600	45
0.85967	44
0.86333	44
0.86700	45
0.87067	46
0.87433	45
0.87800	45
0.88167	47
0.88533	48
0.88900	48
0.89267	48
0.89633	51
0.90000	53
0.90367	53
0.90733	51
0.91100	49
0.91467	50
0.91833	51
0.92200	49
0.92567	47
0.92933	45
0.93300	45
0.93667	46
0.94033	47
0.94400	50
0.94767	50
0.95133	49
0.95500	50
0.95867	50
0.96233	48
0.96600	47
0.96967	49
0.97333	50
0.97700	50
0.98067	51
0.98433	52
0.98800	52
0.99167	50
0.99533	49
0.99900	51
1.00267	53
1.00633	54
1.01000	53
1.01367	55
1.01733	55
1.02100	55
1.02467	56
1.02833	58
1.03200	58
1.03567	59
1.03933	59
1.04300	57
1.04667	57
1.05033	59
1.05400	58
1.05767	57
1.06133	55
1.06500	54
1.06867	53
1.07233	53
1.07600	55
1.07967	54
1.08333	54
1.08700	54
1.09067	55
1.09433	55
1.09800	55
1.10167	55
1.10533	57
1.10900	58
1.11267	57
1.11633	57
1.12000	58
1.12367	57
1.12733	53
1.13100	51
1.13467	51
1.13833	53
1.14200	55
1.14567	56
1.14933	57
1.15300	58
1.15667	58
1.16033	59
1.16400	60
1.16767	61
1.17133	62
1.17500	63
1.17867	61
1.18233	63
1.18600	62
1.18967	62
1.19333	62
1.19700	62
1.20067	61
1.20433	61
1.20800	62
1.21167	64
1.21533	64
1.21900	63
1.22267	61
1.22633	61
1.23000	59
1.23367	57
1.23733	56
1.24100	56
1.24467	56
1.24833	53
1.25200	53
1.25567	55
1.25933	57
1.26300	60
1.26667	61
1.27033	62
1.27400	63
1.27767	65
1.28133	64
1.28500	63
1.28867	64
1.29233	63
1.29600	62
1.29967	62
1.30333	64
1.30700	65
1.31067	63
1.31433	62
1.31800	61
1.32167	61
1.32533	64
1.32900	66
1.33267	68
1.33633	68
1.34000	66
1.34367	62
1.34733	60
1.35100	60
1.35467	62
1.35833	63
1.36200	61
1.36567	60
1.36933	60
1.37300	58
1.37667	58
1.38033	58
1.38400	60
1.38767	62
1.39133	65
1.39500	65
1.39867	63
1.40233	61
1.40600	59
1.40967	57
1.41333	59
1.41700	61
1.42067	63
1.42433	62
1.42800	62
1.43167	62
1.43533	62
1.43900	62
1.44267	62
1.44633	61
1.45000	61
1.45367	62
1.45733	63
1.46100	64
1.46467	67
1.46833	69
1.47200	68
1.47567	69
1.47933	67
1.48300	67
1.48667	66
1.49033	66
1.49400	65
1.49767	63
1.50133	62
1.50500	61
1.50867	61
1.51233	64
1.51600	65
1.51967	64
1.52333	64
1.52700	65
1.53067	65
1.53433	66
1.53800	65
1.54167	66
1.54533	69
1.54900	71
1.55267	71
1.55633	70
1.56000	69
1.56367	67
1.56733	67
1.57100	67
1.57467	67
1.57833	68
1.58200	70
1.58567	72
1.58933	72
1.59300	71
1.59667	69
1.60033	69
1.60400	69
1.60767	69
1.61133	69
1.61500	70
1.61867	71
1.62233	71
1.62600	71
1.62967	71
1.63333	71
1.63700	71
1.64067	70
1.64433	70
1.64800	71
1.65167	72
1.65533	74
1.65900	74
1.66267	75
1.66633	78
1.67000	79
1.67367	80
1.67733	79
1.68100	79
1.68467	79
1.68833	77
1.69200	77
1.69567	78
1.69933	78
1.70300	77
1.70667	77
1.71033	77
1.71400	78
1.71767	80
1.72133	81
1.72500	82
1.72867	84
1.73233	86
1.73600	88
1.73967	90
1.74333	92
1.74700	90
1.75067	86
1.75433	85
1.75800	86
1.76167	88
1.76533	89
1.76900	90
1.77267	90
1.77633	91
1.78000	91
1.78367	90
1.78733	90
1.79100	88
1.79467	87
1.79833	86
1.80200	85
1.80567	86
1.80933	89
1.81300	93
1.81667	92
1.82033	89
1.82400	89
1.82767	89
1.83133	93
1.83500	95
1.83867	95
1.84233	96
1.84600	96
1.84967	96
1.85333	96
1.85700	94
1.86067	93
1.86433	92
1.86800	94
1.87167	95
1.87533	96
1.87900	96
1.88267	96
1.88633	98
1.89000	100
1.89367	101
1.89733	101
1.90100	102
1.90467	103
1.90833	102
1.91200	104
1.91567	104
1.91933	102
1.92300	103
1.92667	105
1.93033	105
1.93400	106
1.93767	104
1.94133	104
1.94500	104
1.94867	104
1.95233	103
1.95600	103
1.95967	104
1.96333	106
1.96700	109
1.97067	110
1.97433	111
1.97800	112
1.98167	113
1.98533	117
1.98900	119
1.99267	119
1.99633	117
2.00000	115
2.00367	113
2.00733	115
2.01100	115
2.01467	116
2.01833	117
2.02200	119
2.02567	118
2.02933	119
2.03300	120
2.03667	122
2.04033	123
2.04400	125
2.04767	126
2.05133	126
2.05500	128
2.05867	132
2.06233	134
2.06600	135
2.06967	136
2.07333	137
2.07700	138
2.08067	139
2.08433	139
2.08800	137
2.09167	135
2.09533	136
2.09900	142
2.10267	146
2.10633	146
2.11000	145
2.11367	145
2.11733	147
2.12100	147
2.12467	144
2.12833	143
2.13200	142
2.13567	143
2.13933	147
2.14300	150
2.14667	151
2.15033	152
2.15400	152
2.15767	152
2.16133	152
2.16500	154
2.16867	154
2.17233	155
2.17600	156
2.17967	159
2.18333	160
2.18700	162
2.19067	164
2.19433	163
2.19800	163
2.20167	161
2.20533	159
2.20900	160
2.21267	162
2.21633	166
2.22000	166
2.22367	165
2.22733	164
2.23100	164
2.23467	166
2.23833	166
2.24200	166
2.24567	167
2.24933	170
2.25300	171
2.25667	171
2.26033	170
2.26400	170
2.26767	169
2.27133	169
2.27500	168
2.27867	166
2.28233	168
2.28600	170
2.28967	170
2.29333	168
2.29700	168
2.30067	170
2.30433	171
2.30800	172
2.31167	175
2.31533	176
2.31900	178
2.32267	180
2.32633	182
2.33000	183
2.33367	185
2.33733	186
2.34100	186
2.34467	186
2.34833	184
2.35200	184
2.35567	185
2.35933	187
2.36300	187
2.36667	187
2.37033	188
2.37400	189
2.37767	190
2.38133	190
2.38500	188
2.38867	186
2.39233	186
2.39600	186
2.39967	187
2.40333	187
2.40700	188
2.41067	191
2.41433	195
2.41800	199
2.42167	203
2.42533	206
2.42900	208
2.43267	206
2.43633	205
2.44000	205
2.44367	219
2.44733	256
2.45100	297
2.45467	331
2.45833	346
2.46200	345
2.46567	340
2.46933	338
2.47300	334
2.47667	326
2.48033	312
2.48400	296
2.48767	280
2.49133	267
2.49500	258
2.49867	254
2.50233	251
2.50600	250
2.50967	252
2.51333	254
2.51700	257
2.52067	259
2.52433	257
2.52800	250
2.53167	244
2.53533	235
2.53900	229
2.54267	225
2.54633	218
2.55000	213
2.55367	209
2.55733	205
2.56100	201
2.56467	200
2.56833	201
2.57200	201
2.57567	202
2.57933	202
2.58300	200
2.58667	200
2.59033	202
2.59400	202
2.59767	201
2.60133	197
2.60500	188
2.60867	172
2.61233	147
2.61600	114
2.61967	75
2.62333	32
2.62700	-13
2.63067	-57
2.63433	-95
2.63800	-130
2.64167	-161
2.64533	-185
2.64900	-201
2.65267	-210
2.65633	-216
2.66000	-218
2.66367	-217
2.66733	-212
2.67100	-206
2.67467	-198
2.67833	-187
2.68200	-176
2.68567	-163
2.68933	-151
2.69300	-139
2.69667	-125
2.70033	-112
2.70400	-101
2.70767	-90
2.71133	-78
2.71500	-65
2.71867	-56
2.72233	-49
2.72600	-41
2.72967	-35
2.73333	-28
2.73700	-19
2.74067	-14
2.74433	-9
2.74800	-2
2.75167	6
2.75533	12
2.75900	20
2.76267	26
2.76633	32
2.77000	37
2.77367	41
2.77733	43
2.78100	46
2.78467	49
2.78833	54
2.79200	58
2.79567	60
2.79933	64
2.80300	68
2.80667	73
2.81033	79
2.81400	82
2.81767	85
2.82133	90
2.82500	99
2.82867	114
2.83233	140
2.83600	192
2.83967	292
2.84333	467
2.84700	734
2.85067	1111
2.85433	1601
2.85800	2186
2.86167	2832
2.86533	3495
2.86900	4122
2.87267	4659
2.87633	5065
2.88000	5319
2.88367	5415
2.88733	5367
2.89100	5194
2.89467	4924
2.89833	4587
2.90200	4214
2.90567	3823
2.90933	3437
2.91300	3067
2.91667	2722
2.92033	2406
2.92400	2118
2.92767	1859
2.93133	1630
2.93500	1426
2.93867	1246
2.94233	1087
2.94600	948
2.94967	830
2.95333	730
2.95700	644
2.96067	571
2.96433	506
2.96800	450
2.97167	401
2.97533	361
2.97900	327
2.98267	297
2.98633	272
2.99000	248
2.99367	225
2.99733	204
3.00100	185
3.00467	179
3.00833	185
3.01200	202
3.01567	226
3.01933	256
3.02300	295
3.02667	337
3.03033	382
3.03400	430
3.03767	477
3.04133	521
3.04500	561
3.04867	595
3.05233	623
3.05600	648
3.05967	670
3.06333	689
3.06700	707
3.07067	721
3.07433	735
3.07800	748
3.08167	760
3.08533	770
3.08900	778
3.09267	785
3.09633	789
3.10000	795
3.10367	800
3.10733	807
3.11100	813
3.11467	818
3.11833	822
3.12200	826
3.12567	828
3.12933	831
3.13300	834
3.13667	837
3.14033	839
3.14400	844
3.14767	846
3.15133	848
3.15500	851
3.15867	858
3.16233	862
3.16600	862
3.16967	861
3.17333	863
3.17700	866
3.18067	867
3.18433	870
3.18800	874
3.19167	878
3.19533	879
3.19900	881
3.20267	883
3.20633	886
3.21000	890
3.21367	894
3.21733	897
3.22100	899
3.22467	902
3.22833	908
3.23200	911
3.23567	915
3.23933	919
3.24300	922
3.24667	925
3.25033	929
3.25400	933
3.25767	936
3.26133	938
3.26500	938
3.26867	938
3.27233	937
3.27600	936
3.27967	936
3.28333	936
3.28700	938
3.29067	938
3.29433	938
3.29800	936
3.30167	931
3.30533	927
3.30900	924
3.31267	921
3.31633	918
3.32000	916
3.32367	916
3.32733	913
3.33100	909
3.33467	907
3.33833	904
3.34200	899
3.34567	897
3.34933	896
3.35300	892
3.35667	885
3.36033	880
3.36400	876
3.36767	873
3.37133	867
3.37500	863
3.37867	859
3.38233	855
3.38600	851
3.38967	845
3.39333	837
3.39700	830
3.40067	828
3.40433	826
3.40800	824
3.41167	822
3.41533	818
3.41900	814
3.42267	810
3.42633	805
3.43000	801
3.43367	800
3.43733	799
3.44100	798
3.44467	796
3.44833	794
3.45200	791
3.45567	788
3.45933	785
3.46300	781
3.46667	778
3.47033	776
3.47400	775
3.47767	774
3.48133	770
3.48500	763
3.48867	756
3.49233	753
3.49600	751
3.49967	749
3.50333	745
3.50700	740
3.51067	738
3.51433	734
3.51800	730
3.52167	725
3.52533	722
3.52900	720
3.53267	716
3.53633	713
3.54000	710
3.54367	709
3.54733	706
3.55100	700
3.55467	696
3.55833	691
3.56200	689
3.56567	688
3.56933	687
3.57300	685
3.57667	682
3.58033	679
3.58400	674
3.58767	669
3.59133	666
3.59500	664
3.59867	658
3.60233	652
3.60600	649
3.60967	645
3.61333	642
3.61700	639
3.62067	638
3.62433	636
3.62800	633
3.63167	629
3.63533	626
3.63900	624
3.64267	621
3.64633	615
3.65000	613
3.65367	611
3.65733	609
3.66100	607
3.66467	604
3.66833	601
3.67200	596
3.67567	593
3.67933	590
3.68300	589
3.68667	590
3.69033	589
3.69400	586
3.69767	580
3.70133	576
3.70500	575
3.70867	574
3.71233	573
3.71600	571
3.71967	569
3.72333	565
3.72700	563
3.73067	561
3.73433	559
3.73800	553
3.74167	549
3.74533	547
3.74900	544
3.75267	543
3.75633	543
3.76000	542
3.76367	542
3.76733	541
3.77100	540
3.77467	537
3.77833	533
3.78200	529
3.78567	527
3.78933	525
3.79300	523
3.79667	519
3.80033	517
3.80400	516
3.80767	514
3.81133	513
3.81500	513
3.81867	511
3.82233	509
3.82600	506
3.82967	507
3.83333	506
3.83700	503
3.84067	499
3.84433	496
3.84800	493
3.85167	492
3.85533	491
3.85900	490
3.86267	488
3.86633	483
3.87000	480
3.87367	477
3.87733	476
3.88100	476
3.88467	473
3.88833	473
3.89200	472
3.89567	470
3.89933	471
3.90300	471
3.90667	470
3.91033	469
3.91400	463
3.91767	459
3.92133	458
3.92500	458
3.92867	459
3.93233	462
3.93600	464
3.93967	462
3.94333	458
3.94700	453
3.95067	449
3.95433	447
3.95800	447
3.96167	446
3.96533	443
3.96900	442
3.97267	442
3.97633	442
3.98000	438
3.98367	436
3.98733	434
3.99100	433
3.99467	432
3.99833	429

[Status Trace (Column Oven Temperature)]
Interval(msec)	1000
# of Points	240
Start Time(min)	0.012
End Time(min)	3.995
Intensity Units	
Intensity Multiplier	1
R.Time (min)	Intensity
0.01170	35.04
0.02837	35.03
0.04503	35.02
0.06170	35.00
0.07837	35.00
0.09503	34.99
0.11170	34.98
0.12837	34.98
0.14503	34.99
0.16170	35.01
0.17837	35.03
0.19503	35.04
0.21170	35.04
0.22837	35.03
0.24503	35.02
0.26170	35.02
0.27837	35.01
0.29503	35.00
0.31170	34.99
0.32837	34.98
0.34503	34.98
0.36170	34.97
0.37837	34.97
0.39503	34.99
0.41170	34.99
0.42837	35.00
0.44503	35.01
0.46170	35.01
0.47837	35.01
0.49503	35.01
0.51170	35.01
0.52837	35.00
0.54503	34.99
0.56170	34.99
0.57837	35.00
0.59503	35.02
0.61170	35.03
0.62837	35.03
0.64503	35.01
0.66170	34.99
0.67837	34.99
0.69503	34.99
0.71170	34.98
0.72837	34.98
0.74503	34.98
0.76170	34.98
0.77837	34.98
0.79503	34.99
0.81170	34.99
0.82837	34.99
0.84503	35.00
0.86170	35.00
0.87837	34.99
0.89503	34.99
0.91170	34.98
0.92837	34.98
0.94503	34.97
0.96170	34.97
0.97837	34.97
0.99503	34.97
1.01170	34.97
1.02837	34.97
1.04503	34.97
1.06170	34.97
1.07837	34.98
1.09503	34.98
1.11170	34.98
1.12837	34.98
1.14503	34.99
1.16170	34.99
1.17837	34.99
1.19503	34.98
1.21170	34.98
1.22837	34.98
1.24503	34.98
1.26170	34.98
1.27837	34.98
1.29503	34.97
1.31170	34.97
1.32837	34.97
1.34503	34.98
1.36170	34.98
1.37837	34.98
1.39503	34.98
1.41170	34.98
1.42837	34.99
1.44503	35.00
1.46170	35.01
1.47837	35.00
1.49503	35.00
1.51170	35.00
1.52837	35.00
1.54503	35.01
1.56170	35.01
1.57837	35.02
1.59503	35.05
1.61170	35.13
1.62837	35.25
1.64503	35.43
1.66170	35.68
1.67837	36.02
1.69503	36.38
1.71170	36.74
1.72837	37.07
1.74503	37.42
1.76170	37.75
1.77837	38.09
1.79503	38.39
1.81170	38.74
1.82837	39.07
1.84503	39.41
1.86170	39.74
1.87837	40.06
1.89503	40.40
1.91170	40.71
1.92837	41.04
1.94503	41.37
1.96170	41.70
1.97837	42.01
1.99503	42.34
2.01170	42.67
2.02837	42.99
2.04503	43.31
2.06170	43.65
2.07837	43.98
2.09503	44.29
2.11170	44.62
2.12837	44.95
2.14503	45.27
2.16170	45.63
2.17837	45.93
2.19503	46.27
2.21170	46.59
2.22837	46.94
2.24503	47.26
2.26170	47.58
2.27837	47.91
2.29503	48.23
2.31170	48.58
2.32837	48.90
2.34503	49.20
2.36170	49.47
2.37837	49.66
2.39503	49.72
2.41170	49.71
2.42837	49.73
2.44503	49.74
2.46170	49.73
2.47837	49.76
2.49503	49.77
2.51170	49.79
2.52837	49.79
2.54503	49.80
2.56170	49.80
2.57837	49.81
2.59503	49.81
2.61170	49.82
2.62837	49.82
2.64503	49.84
2.66170	49.85
2.67837	49.86
2.69503	49.86
2.71170	49.85
2.72837	49.85
2.74503	49.87
2.76170	49.88
2.77837	49.88
2.79503	49.87
2.81170	49.88
2.82837	49.88
2.84503	49.90
2.86170	49.92
2.87837	49.94
2.89503	49.94
2.91170	49.95
2.92837	49.97
2.94503	49.98
2.96170	50.00
2.97837	50.00
2.99503	50.01
3.01170	50.01
3.02837	50.02
3.04503	50.03
3.06170	50.04
3.07837	50.04
3.09503	50.06
3.11170	50.07
3.12837	50.08
3.14503	50.09
3.16170	50.10
3.17837	50.10
3.19503	50.10
3.21170	50.09
3.22837	50.08
3.24503	50.09
3.26170	50.09
3.27837	50.09
3.29503	50.09
3.31170	50.10
3.32837	50.11
3.34503	50.12
3.36170	50.11
3.37837	50.08
3.39503	50.07
3.41170	50.06
3.42837	50.04
3.44503	50.02
3.46170	50.01
3.47837	50.01
3.49503	50.00
3.51170	49.99
3.52837	49.99
3.54503	49.99
3.56170	49.98
3.57837	49.98
3.59503	49.98
3.61170	49.98
3.62837	49.99
3.64503	50.00
3.66170	50.00
3.67837	50.00
3.69503	50.02
3.71170	50.02
3.72837	50.03
3.74503	50.02
3.76170	50.02
3.77837	50.02
3.79503	50.02
3.81170	50.02
3.82837	50.02
3.84503	50.02
3.86170	50.03
3.87837	50.05
3.89503	50.05
3.91170	50.05
3.92837	50.04
3.94503	50.05
3.96170	50.05
3.97837	50.04
3.99503	50.04

[Status Trace (Injection Unit Temperature)]
Interval(msec)	1000
# of Points	240
Start Time(min)	0.012
End Time(min)	3.995
Intensity Units	
Intensity Multiplier	1
R.Time (min)	Intensity
0.01170	99.98
0.02837	99.98
0.04503	99.99
0.06170	99.98
0.07837	99.98
0.09503	99.98
0.11170	99.99
0.12837	99.99
0.14503	99.98
0.16170	99.99
0.17837	99.98
0.19503	99.99
0.21170	99.99
0.22837	99.99
0.24503	99.99
0.26170	99.99
0.27837	99.99
0.29503	99.99
0.31170	99.99
0.32837	99.98
0.34503	99.99
0.36170	99.99
0.37837	99.99
0.39503	99.99
0.41170	99.98
0.42837	99.99
0.44503	99.98
0.46170	99.99
0.47837	99.99
0.49503	99.98
0.51170	99.98
0.52837	99.98
0.54503	99.99
0.56170	99.99
0.57837	99.98
0.59503	99.99
0.61170	99.98
0.62837	99.98
0.64503	99.98
0.66170	99.98
0.67837	99.98
0.69503	99.99
0.71170	99.99
0.72837	99.98
0.74503	99.98
0.76170	99.98
0.77837	99.98
0.79503	99.98
0.81170	99.98
0.82837	99.98
0.84503	99.97
0.86170	99.98
0.87837	99.98
0.89503	99.98
0.91170	99.98
0.92837	99.98
0.94503	99.98
0.96170	99.98
0.97837	99.98
0.99503	99.98
1.01170	99.98
1.02837	99.98
1.04503	99.98
1.06170	99.98
1.07837	99.98
1.09503	99.98
1.11170	99.98
1.12837	99.98
1.14503	99.98
1.16170	99.98
1.17837	99.98
1.19503	99.98
1.21170	99.98
1.22837	99.98
1.24503	99.98
1.26170	99.98
1.27837	99.99
1.29503	99.98
1.31170	99.98
1.32837	99.98
1.34503	99.98
1.36170	99.98
1.37837	99.98
1.39503	99.98
1.41170	99.98
1.42837	99.98
1.44503	99.98
1.46170	99.98
1.47837	99.99
1.49503	99.98
1.51170	99.99
1.52837	99.98
1.54503	99.99
1.56170	99.99
1.57837	99.99
1.59503	99.98
1.61170	99.99
1.62837	99.99
1.64503	99.99
1.66170	99.99
1.67837	99.99
1.69503	99.99
1.71170	99.98
1.72837	99.99
1.74503	99.99
1.76170	99.98
1.77837	99.99
1.79503	99.98
1.81170	99.99
1.82837	99.99
1.84503	99.99
1.86170	99.97
1.87837	99.98
1.89503	99.98
1.91170	99.98
1.92837	99.99
1.94503	99.98
1.96170	99.98
1.97837	99.98
1.99503	99.98
2.01170	99.97
2.02837	99.98
2.04503	99.97
2.06170	99.97
2.07837	99.97
2.09503	99.97
2.11170	99.97
2.12837	99.97
2.14503	99.98
2.16170	99.97
2.17837	99.97
2.19503	99.97
2.21170	99.96
2.22837	99.97
2.24503	99.97
2.26170	99.96
2.27837	99.97
2.29503	99.96
2.31170	99.96
2.32837	99.96
2.34503	99.97
2.36170	99.96
2.37837	99.97
2.39503	99.96
2.41170	99.96
2.42837	99.96
2.44503	99.96
2.46170	99.97
2.47837	99.97
2.49503	99.96
2.51170	99.96
2.52837	99.97
2.54503	99.97
2.56170	99.96
2.57837	99.96
2.59503	99.97
2.61170	99.97
2.62837	99.97
2.64503	99.97
2.66170	99.97
2.67837	99.97
2.69503	99.98
2.71170	99.98
2.72837	99.98
2.74503	99.98
2.76170	99.99
2.77837	99.98
2.79503	99.99
2.81170	99.99
2.82837	99.99
2.84503	99.99
2.86170	99.99
2.87837	100.00
2.89503	99.99
2.91170	100.00
2.92837	100.00
2.94503	100.00
2.96170	100.01
2.97837	100.00
2.99503	100.01
3.01170	100.01
3.02837	100.01
3.04503	100.01
3.06170	100.01
3.07837	100.01
3.09503	100.01
3.11170	100.01
3.12837	100.02
3.14503	100.02
3.16170	100.02
3.17837	100.02
3.19503	100.02
3.21170	100.02
3.22837	100.02
3.24503	100.02
3.26170	100.02
3.27837	100.02
3.29503	100.03
3.31170	100.03
3.32837	100.03
3.34503	100.02
3.36170	100.03
3.37837	100.03
3.39503	100.04
3.41170	100.03
3.42837	100.04
3.44503	100.03
3.46170	100.04
3.47837	100.03
3.49503	100.04
3.51170	100.04
3.52837	100.04
3.54503	100.04
3.56170	100.04
3.57837	100.04
3.59503	100.04
3.61170	100.03
3.62837	100.04
3.64503	100.04
3.66170	100.03
3.67837	100.04
3.69503	100.04
3.71170	100.04
3.72837	100.04
3.74503	100.04
3.76170	100.04
3.77837	100.04
3.79503	100.04
3.81170	100.04
3.82837	100.04
3.84503	100.04
3.86170	100.04
3.87837	100.04
3.89503	100.04
3.91170	100.04
3.92837	100.04
3.94503	100.04
3.96170	100.04
3.97837	100.04
3.99503	100.04

[Status Trace (Carrier Gas Pressure)]
Interval(msec)	1000
# of Points	240
Start Time(min)	0.012
End Time(min)	3.995
Intensity Units	
Intensity Multiplier	1
R.Time (min)	Intensity
0.01170	58.00
0.02837	54.97
0.04503	57.48
0.06170	59.56
0.07837	59.08
0.09503	58.00
0.11170	57.99
0.12837	58.01
0.14503	58.01
0.16170	58.01
0.17837	58.00
0.19503	58.00
0.21170	58.00
0.22837	58.00
0.24503	58.00
0.26170	58.00
0.27837	58.00
0.29503	58.00
0.31170	58.00
0.32837	58.00
0.34503	58.00
0.36170	58.00
0.37837	58.00
0.39503	58.00
0.41170	58.00
0.42837	58.00
0.44503	58.00
0.46170	58.00
0.47837	58.00
0.49503	58.00
0.51170	58.00
0.52837	58.00
0.54503	58.00
0.56170	58.00
0.57837	58.00
0.59503	58.00
0.61170	58.00
0.62837	58.00
0.64503	58.00
0.66170	58.00
0.67837	58.00
0.69503	58.00
0.71170	58.00
0.72837	58.00
0.74503	58.00
0.76170	58.00
0.77837	58.00
0.79503	58.00
0.81170	58.00
0.82837	58.00
0.84503	58.00
0.86170	58.00
0.87837	58.00
0.89503	58.00
0.91170	58.00
0.92837	58.00
0.94503	58.00
0.96170	58.00
0.97837	58.00
0.99503	58.00
1.01170	58.00
1.02837	58.00
1.04503	58.00
1.06170	58.00
1.07837	58.00
1.09503	58.00
1.11170	58.00
1.12837	58.00
1.14503	58.00
1.16170	58.00
1.17837	58.00
1.19503	58.00
1.21170	58.00
1.22837	58.00
1.24503	58.00
1.26170	58.00
1.27837	58.00
1.29503	58.00
1.31170	58.00
1.32837	58.00
1.34503	58.00
1.36170	58.00
1.37837	58.00
1.39503	58.00
1.41170	58.00
1.42837	58.00
1.44503	58.00
1.46170	58.00
1.47837	58.00
1.49503	58.00
1.51170	58.00
1.52837	58.00
1.54503	58.00
1.56170	58.00
1.57837	58.00
1.59503	58.00
1.61170	58.00
1.62837	58.00
1.64503	58.00
1.66170	58.00
1.67837	58.01
1.69503	58.00
1.71170	58.00
1.72837	58.00
1.74503	58.00
1.76170	58.00
1.77837	58.00
1.79503	58.00
1.81170	58.00
1.82837	58.00
1.84503	58.00
1.86170	58.00
1.87837	58.00
1.89503	58.00
1.91170	58.00
1.92837	58.00
1.94503	58.00
1.96170	58.00
1.97837	58.00
1.99503	58.00
2.01170	58.00
2.02837	58.00
2.04503	58.00
2.06170	58.00
2.07837	58.00
2.09503	58.00
2.11170	58.00
2.12837	58.00
2.14503	58.00
2.16170	58.00
2.17837	58.00
2.19503	58.00
2.21170	58.00
2.22837	58.00
2.24503	58.00
2.26170	58.00
2.27837	58.00
2.29503	58.00
2.31170	58.00
2.32837	58.00
2.34503	58.00
2.36170	58.00
2.37837	58.00
2.39503	57.99
2.41170	57.99
2.42837	58.00
2.44503	58.00
2.46170	58.00
2.47837	58.00
2.49503	58.00
2.51170	57.99
2.52837	57.98
2.54503	58.00
2.56170	58.00
2.57837	58.00
2.59503	58.00
2.61170	58.00
2.62837	58.00
2.64503	58.00
2.66170	58.00
2.67837	58.00
2.69503	58.00
2.71170	58.00
2.72837	58.00
2.74503	58.00
2.76170	58.00
2.77837	58.00
2.79503	58.00
2.81170	58.00
2.82837	58.00
2.84503	58.00
2.86170	58.00
2.87837	58.00
2.89503	58.00
2.91170	58.00
2.92837	58.00
2.94503	58.00
2.96170	58.00
2.97837	58.00
2.99503	58.00
3.01170	58.00
3.02837	58.00
3.04503	58.00
3.06170	58.00
3.07837	58.00
3.09503	58.00
3.11170	58.00
3.12837	58.00
3.14503	58.00
3.16170	58.00
3.17837	58.00
3.19503	58.00
3.21170	58.00
3.22837	58.00
3.24503	58.00
3.26170	58.00
3.27837	58.00
3.29503	58.00
3.31170	58.00
3.32837	58.00
3.34503	58.00
3.36170	58.00
3.37837	58.00
3.39503	58.00
3.41170	58.00
3.42837	58.00
3.44503	58.00
3.46170	58.00
3.47837	58.00
3.49503	58.00
3.51170	58.00
3.52837	58.00
3.54503	58.00
3.56170	58.00
3.57837	58.00
3.59503	58.00
3.61170	58.00
3.62837	58.00
3.64503	58.00
3.66170	58.00
3.67837	58.00
3.69503	58.00
3.71170	58.00
3.72837	58.00
3.74503	58.00
3.76170	58.00
3.77837	58.00
3.79503	58.00
3.81170	58.00
3.82837	58.00
3.84503	58.00
3.86170	58.00
3.87837	58.00
3.89503	58.00
3.91170	58.00
3.92837	58.00
3.94503	58.00
3.96170	58.00
3.97837	58.00
3.99503	58.00

[Status Trace (Carrier Gas Flow)]
Interval(msec)	1000
# of Points	240
Start Time(min)	0.012
End Time(min)	3.995
Intensity Units	
Intensity Multiplier	1
R.Time (min)	Intensity
0.01170	34.52
0.02837	34.54
0.04503	34.55
0.06170	34.54
0.07837	34.50
0.09503	34.52
0.11170	34.52
0.12837	34.52
0.14503	34.52
0.16170	34.52
0.17837	34.52
0.19503	34.52
0.21170	34.52
0.22837	34.52
0.24503	34.52
0.26170	34.52
0.27837	34.52
0.29503	34.52
0.31170	34.52
0.32837	34.52
0.34503	34.52
0.36170	34.52
0.37837	34.52
0.39503	34.52
0.41170	34.52
0.42837	34.52
0.44503	34.52
0.46170	34.52
0.47837	34.52
0.49503	34.52
0.51170	34.52
0.52837	34.52
0.54503	34.52
0.56170	34.52
0.57837	34.52
0.59503	34.52
0.61170	34.52
0.62837	34.52
0.64503	34.52
0.66170	34.52
0.67837	34.52
0.69503	34.52
0.71170	34.52
0.72837	34.52
0.74503	34.52
0.76170	34.52
0.77837	34.52
0.79503	34.52
0.81170	34.52
0.82837	34.52
0.84503	34.52
0.86170	34.52
0.87837	34.52
0.89503	34.52
0.91170	34.52
0.92837	34.52
0.94503	34.52
0.96170	34.52
0.97837	34.52
0.99503	34.52
1.01170	34.52
1.02837	34.52
1.04503	34.52
1.06170	34.52
1.07837	34.52
1.09503	34.52
1.11170	34.52
1.12837	34.52
1.14503	34.52
1.16170	34.52
1.17837	34.52
1.19503	34.52
1.21170	34.52
1.22837	34.52
1.24503	34.52
1.26170	34.52
1.27837	34.52
1.29503	34.52
1.31170	34.52
1.32837	34.52
1.34503	34.52
1.36170	34.52
1.37837	34.52
1.39503	34.52
1.41170	34.52
1.42837	34.52
1.44503	34.52
1.46170	34.52
1.47837	34.52
1.49503	34.52
1.51170	34.52
1.52837	34.52
1.54503	34.52
1.56170	34.52
1.57837	34.52
1.59503	34.52
1.61170	34.52
1.62837	34.52
1.64503	34.52
1.66170	34.52
1.67837	34.52
1.69503	34.52
1.71170	34.52
1.72837	34.52
1.74503	34.52
1.76170	34.52
1.77837	34.52
1.79503	34.52
1.81170	34.52
1.82837	34.52
1.84503	34.52
1.86170	34.52
1.87837	34.52
1.89503	34.52
1.91170	34.52
1.92837	34.52
1.94503	34.52
1.96170	34.52
1.97837	34.52
1.99503	34.52
2.01170	34.52
2.02837	34.52
2.04503	34.52
2.06170	34.52
2.07837	34.52
2.09503	34.52
2.11170	34.52
2.12837	34.52
2.14503	34.52
2.16170	34.52
2.17837	34.52
2.19503	34.52
2.21170	34.52
2.22837	34.52
2.24503	34.52
2.26170	34.52
2.27837	34.52
2.29503	34.52
2.31170	34.52
2.32837	34.52
2.34503	34.52
2.36170	34.52
2.37837	34.52
2.39503	34.51
2.41170	34.52
2.42837	34.52
2.44503	34.52
2.46170	34.52
2.47837	34.52
2.49503	34.52
2.51170	34.52
2.52837	34.52
2.54503	34.52
2.56170	34.52
2.57837	34.52
2.59503	34.52
2.61170	34.52
2.62837	34.52
2.64503	34.52
2.66170	34.52
2.67837	34.52
2.69503	34.52
2.71170	34.52
2.72837	34.52
2.74503	34.51
2.76170	34.53
2.77837	34.51
2.79503	34.52
2.81170	34.52
2.82837	34.52
2.84503	34.52
2.86170	34.51
2.87837	34.51
2.89503	34.51
2.91170	34.51
2.92837	34.52
2.94503	34.52
2.96170	34.52
2.97837	34.52
2.99503	34.52
3.01170	34.52
3.02837	34.52
3.04503	34.52
3.06170	34.52
3.07837	34.52
3.09503	34.52
3.11170	34.52
3.12837	34.52
3.14503	34.52
3.16170	34.52
3.17837	34.52
3.19503	34.52
3.21170	34.52
3.22837	34.52
3.24503	34.52
3.26170	34.52
3.27837	34.52
3.29503	34.52
3.31170	34.52
3.32837	34.52
3.34503	34.52
3.36170	34.52
3.37837	34.52
3.39503	34.52
3.41170	34.52
3.42837	34.52
3.44503	34.52
3.46170	34.52
3.47837	34.52
3.49503	34.52
3.51170	34.52
3.52837	34.52
3.54503	34.52
3.56170	34.52
3.57837	34.52
3.59503	34.52
3.61170	34.52
3.62837	34.52
3.64503	34.52
3.66170	34.52
3.67837	34.52
3.69503	34.52
3.71170	34.52
3.72837	34.52
3.74503	34.52
3.76170	34.52
3.77837	34.52
3.79503	34.52
3.81170	34.52
3.82837	34.52
3.84503	34.52
3.86170	34.52
3.87837	34.52
3.89503	34.52
3.91170	34.52
3.92837	34.52
3.94503	34.52
3.96170	34.52
3.97837	34.52
3.99503	34.56

[Status Trace (Column Flow)]
Interval(msec)	1000
# of Points	240
Start Time(min)	0.012
End Time(min)	3.995
Intensity Units	
Intensity Multiplier	1
R.Time (min)	Intensity
0.01170	5.51
0.02837	5.16
0.04503	5.45
0.06170	5.70
0.07837	5.64
0.09503	5.51
0.11170	5.51
0.12837	5.52
0.14503	5.52
0.16170	5.51
0.17837	5.51
0.19503	5.51
0.21170	5.51
0.22837	5.51
0.24503	5.51
0.26170	5.51
0.27837	5.51
0.29503	5.51
0.31170	5.51
0.32837	5.51
0.34503	5.51
0.36170	5.51
0.37837	5.51
0.39503	5.51
0.41170	5.51
0.42837	5.51
0.44503	5.51
0.46170	5.51
0.47837	5.51
0.49503	5.51
0.51170	5.51
0.52837	5.51
0.54503	5.51
0.56170	5.51
0.57837	5.51
0.59503	5.51
0.61170	5.51
0.62837	5.51
0.64503	5.51
0.66170	5.51
0.67837	5.51
0.69503	5.51
0.71170	5.51
0.72837	5.51
0.74503	5.51
0.76170	5.51
0.77837	5.51
0.79503	5.51
0.81170	5.51
0.82837	5.51
0.84503	5.51
0.86170	5.51
0.87837	5.51
0.89503	5.51
0.91170	5.51
0.92837	5.51
0.94503	5.52
0.96170	5.51
0.97837	5.52
0.99503	5.52
1.01170	5.51
1.02837	5.51
1.04503	5.51
1.06170	5.51
1.07837	5.51
1.09503	5.51
1.11170	5.51
1.12837	5.51
1.14503	5.51
1.16170	5.51
1.17837	5.51
1.19503	5.51
1.21170	5.51
1.22837	5.51
1.24503	5.51
1.26170	5.51
1.27837	5.51
1.29503	5.51
1.31170	5.51
1.32837	5.51
1.34503	5.51
1.36170	5.51
1.37837	5.51
1.39503	5.51
1.41170	5.51
1.42837	5.51
1.44503	5.51
1.46170	5.51
1.47837	5.51
1.49503	5.51
1.51170	5.51
1.52837	5.51
1.54503	5.51
1.56170	5.51
1.57837	5.51
1.59503	5.51
1.61170	5.51
1.62837	5.51
1.64503	5.50
1.66170	5.49
1.67837	5.48
1.69503	5.47
1.71170	5.46
1.72837	5.45
1.74503	5.44
1.76170	5.43
1.77837	5.42
1.79503	5.41
1.81170	5.40
1.82837	5.39
1.84503	5.38
1.86170	5.37
1.87837	5.36
1.89503	5.35
1.91170	5.34
1.92837	5.33
1.94503	5.32
1.96170	5.31
1.97837	5.30
1.99503	5.29
2.01170	5.28
2.02837	5.27
2.04503	5.26
2.06170	5.25
2.07837	5.24
2.09503	5.23
2.11170	5.22
2.12837	5.21
2.14503	5.20
2.16170	5.19
2.17837	5.19
2.19503	5.18
2.21170	5.17
2.22837	5.16
2.24503	5.15
2.26170	5.14
2.27837	5.13
2.29503	5.12
2.31170	5.11
2.32837	5.10
2.34503	5.09
2.36170	5.09
2.37837	5.08
2.39503	5.08
2.41170	5.08
2.42837	5.08
2.44503	5.08
2.46170	5.08
2.47837	5.08
2.49503	5.08
2.51170	5.08
2.52837	5.08
2.54503	5.08
2.56170	5.08
2.57837	5.08
2.59503	5.08
2.61170	5.08
2.62837	5.08
2.64503	5.08
2.66170	5.08
2.67837	5.08
2.69503	5.08
2.71170	5.08
2.72837	5.08
2.74503	5.08
2.76170	5.07
2.77837	5.07
2.79503	5.07
2.81170	5.07
2.82837	5.07
2.84503	5.07
2.86170	5.07
2.87837	5.07
2.89503	5.07
2.91170	5.07
2.92837	5.07
2.94503	5.07
2.96170	5.07
2.97837	5.07
2.99503	5.07
3.01170	5.07
3.02837	5.07
3.04503	5.07
3.06170	5.07
3.07837	5.07
3.09503	5.07
3.11170	5.07
3.12837	5.07
3.14503	5.07
3.16170	5.07
3.17837	5.07
3.19503	5.07
3.21170	5.07
3.22837	5.07
3.24503	5.07
3.26170	5.07
3.27837	5.07
3.29503	5.07
3.31170	5.07
3.32837	5.07
3.34503	5.07
3.36170	5.07
3.37837	5.07
3.39503	5.07
3.41170	5.07
3.42837	5.07
3.44503	5.07
3.46170	5.07
3.47837	5.07
3.49503	5.07
3.51170	5.07
3.52837	5.07
3.54503	5.07
3.56170	5.07
3.57837	5.07
3.59503	5.07
3.61170	5.07
3.62837	5.07
3.64503	5.07
3.66170	5.07
3.67837	5.07
3.69503	5.07
3.71170	5.07
3.72837	5.07
3.74503	5.07
3.76170	5.07
3.77837	5.07
3.79503	5.07
3.81170	5.07
3.82837	5.07
3.84503	5.07
3.86170	5.07
3.87837	5.07
3.89503	5.07
3.91170	5.07
3.92837	5.07
3.94503	5.07
3.96170	5.07
3.97837	5.07
3.99503	5.07

[Status Trace (Linear Velocity)]
Interval(msec)	1000
# of Points	240
Start Time(min)	0.012
End Time(min)	3.995
Intensity Units	
Intensity Multiplier	1
R.Time (min)	Intensity
0.01170	39.01
0.02837	37.02
0.04503	38.67
0.06170	40.03
0.07837	39.72
0.09503	39.02
0.11170	39.01
0.12837	39.02
0.14503	39.02
0.16170	39.02
0.17837	39.02
0.19503	39.01
0.21170	39.01
0.22837	39.01
0.24503	39.01
0.26170	39.01
0.27837	39.01
0.29503	39.02
0.31170	39.02
0.32837	39.02
0.34503	39.02
0.36170	39.02
0.37837	39.02
0.39503	39.02
0.41170	39.02
0.42837	39.02
0.44503	39.01
0.46170	39.01
0.47837	39.01
0.49503	39.01
0.51170	39.01
0.52837	39.01
0.54503	39.02
0.56170	39.02
0.57837	39.02
0.59503	39.01
0.61170	39.01
0.62837	39.01
0.64503	39.01
0.66170	39.01
0.67837	39.02
0.69503	39.02
0.71170	39.02
0.72837	39.02
0.74503	39.02
0.76170	39.02
0.77837	39.02
0.79503	39.02
0.81170	39.02
0.82837	39.02
0.84503	39.02
0.86170	39.01
0.87837	39.02
0.89503	39.02
0.91170	39.02
0.92837	39.02
0.94503	39.02
0.96170	39.02
0.97837	39.02
0.99503	39.02
1.01170	39.02
1.02837	39.02
1.04503	39.02
1.06170	39.02
1.07837	39.02
1.09503	39.02
1.11170	39.02
1.12837	39.02
1.14503	39.02
1.16170	39.02
1.17837	39.02
1.19503	39.02
1.21170	39.02
1.22837	39.02
1.24503	39.02
1.26170	39.02
1.27837	39.02
1.29503	39.02
1.31170	39.02
1.32837	39.02
1.34503	39.02
1.36170	39.02
1.37837	39.02
1.39503	39.02
1.41170	39.02
1.42837	39.02
1.44503	39.01
1.46170	39.01
1.47837	39.01
1.49503	39.02
1.51170	39.02
1.52837	39.01
1.54503	39.01
1.56170	39.01
1.57837	39.01
1.59503	39.01
1.61170	39.00
1.62837	38.99
1.64503	38.98
1.66170	38.95
1.67837	38.92
1.69503	38.88
1.71170	38.85
1.72837	38.82
1.74503	38.78
1.76170	38.75
1.77837	38.72
1.79503	38.69
1.81170	38.66
1.82837	38.63
1.84503	38.60
1.86170	38.56
1.87837	38.53
1.89503	38.50
1.91170	38.47
1.92837	38.44
1.94503	38.41
1.96170	38.38
1.97837	38.35
1.99503	38.32
2.01170	38.29
2.02837	38.26
2.04503	38.23
2.06170	38.20
2.07837	38.17
2.09503	38.14
2.11170	38.11
2.12837	38.08
2.14503	38.05
2.16170	38.02
2.17837	37.99
2.19503	37.96
2.21170	37.93
2.22837	37.90
2.24503	37.88
2.26170	37.85
2.27837	37.82
2.29503	37.79
2.31170	37.76
2.32837	37.73
2.34503	37.70
2.36170	37.68
2.37837	37.66
2.39503	37.65
2.41170	37.65
2.42837	37.65
2.44503	37.65
2.46170	37.65
2.47837	37.65
2.49503	37.65
2.51170	37.65
2.52837	37.64
2.54503	37.65
2.56170	37.65
2.57837	37.65
2.59503	37.65
2.61170	37.65
2.62837	37.65
2.64503	37.65
2.66170	37.64
2.67837	37.64
2.69503	37.64
2.71170	37.64
2.72837	37.64
2.74503	37.64
2.76170	37.64
2.77837	37.64
2.79503	37.64
2.81170	37.64
2.82837	37.64
2.84503	37.64
2.86170	37.64
2.87837	37.64
2.89503	37.64
2.91170	37.64
2.92837	37.63
2.94503	37.63
2.96170	37.63
2.97837	37.63
2.99503	37.63
3.01170	37.63
3.02837	37.63
3.04503	37.63
3.06170	37.63
3.07837	37.63
3.09503	37.63
3.11170	37.62
3.12837	37.62
3.14503	37.62
3.16170	37.62
3.17837	37.62
3.19503	37.62
3.21170	37.62
3.22837	37.62
3.24503	37.62
3.26170	37.62
3.27837	37.62
3.29503	37.62
3.31170	37.62
3.32837	37.62
3.34503	37.62
3.36170	37.62
3.37837	37.62
3.39503	37.63
3.41170	37.63
3.42837	37.63
3.44503	37.63
3.46170	37.63
3.47837	37.63
3.49503	37.63
3.51170	37.63
3.52837	37.63
3.54503	37.63
3.56170	37.63
3.57837	37.63
3.59503	37.63
3.61170	37.63
3.62837	37.63
3.64503	37.63
3.66170	37.63
3.67837	37.63
3.69503	37.63
3.71170	37.63
3.72837	37.63
3.74503	37.63
3.76170	37.63
3.77837	37.63
3.79503	37.63
3.81170	37.63
3.82837	37.63
3.84503	37.63
3.86170	37.63
3.87837	37.63
3.89503	37.63
3.91170	37.63
3.92837	37.63
3.94503	37.63
3.96170	37.63
3.97837	37.63
3.99503	37.63

