[Header]
Application Name	LabSolutions
Version	5.110
Data File Name	C:\Users\User\Desktop\GC Analyses\Jack\UIC Prairie Sampling\9.16.22\220916_129.gcd
Output Date	11/29/2022
Output Time	11:10:24 AM

[File Information]
Type	Data File
Generated	11/29/2022 10:49:31 AM
Generated by	System Administrator
Modified	11/29/2022 10:53:54 AM
Modified by	System Administrator

[Sample Information]
Operator Name	System Administrator
Acquired	11/29/2022 10:49:53 AM
Sample Type	1:Standard
Level	1
Sample Name	220916_UICPrairie
Sample ID	220916_UICPrairie
ISTD Amount1	1
ISTD Amount2	1
ISTD Amount3	1
ISTD Amount4	1
ISTD Amount5	1
ISTD Amount6	1
ISTD Amount7	1
ISTD Amount8	1
ISTD Amount9	1
ISTD Amount10	1
ISTD Amount11	1
ISTD Amount12	1
ISTD Amount13	1
ISTD Amount14	1
ISTD Amount15	1
ISTD Amount16	1
ISTD Amount17	1
ISTD Amount18	1
ISTD Amount19	1
ISTD Amount20	1
ISTD Amount21	1
ISTD Amount22	1
ISTD Amount23	1
ISTD Amount24	1
ISTD Amount25	1
ISTD Amount26	1
ISTD Amount27	1
ISTD Amount28	1
ISTD Amount29	1
ISTD Amount30	1
ISTD Amount31	1
ISTD Amount32	1
Sample Amount	1
Dilution Factor	1
Vial#	1
Injection Volume	1
Injection Count	1
Bar Code	

[Original Files]
Data File	C:\Users\User\Desktop\GC Analyses\Jack\UIC Prairie Sampling\9.16.22\220916_129.gcd
Method File	C:\LabSolutions\Data\GHG_4min_2022\ghg3_togas_w_acet_4 min_new_int.gcm
Batch File	
Report Format File	c:\LabSolutions\System\DEFAULT.lsr

[File Description]


[Configuration]
Instrument Name	C0B7VH3-Instrument1
Instrument #	1
Line #	1
# of Detectors	3
Detector ID	DET#1	DET#2	DET#3
Detector Name	FID	PTCD	ECD
# of Channels	1	1	1

[Peak Table(Ch1)]
# of Peaks	3
Peak#	R.Time	I.Time	F.Time	Area	Height	A/H	Conc.	Mark	ID#	Name	k'	Plate #	Plate Ht.	Tailing	Resolution	Sep.Factor	Area Ratio	Height Ratio	Conc. %	Norm Conc.
1	1.468	1.435	1.534	3353	1086	3.087	100.000	   	1	CO	0.000	5068	29.596	0.000	0.000	0.000	0	0	16.667	16.667
2	1.571	1.534	1.641	20346	10323	1.971	100.000	 V 	2	CH4	0.070	11631	12.896	1.153	1.459	0.000	0	0	16.667	16.667
3	2.000	1.930	2.568	2087266	995309	2.097	400.000	   	3	CO2	0.362	17592	8.527	1.203	7.235	5.179	0	0	66.667	66.667

[Peak Table(Ch2)]
# of Peaks	0

[Peak Table(Ch3)]
# of Peaks	5
Peak#	R.Time	I.Time	F.Time	Area	Height	A/H	Conc.	Mark	ID#	Name	k'	Plate #	Plate Ht.	Tailing	Resolution	Sep.Factor	Area Ratio	Height Ratio	Conc. %	Norm Conc.
1	1.054	1.010	1.322	184	18	10.287	0.000	   			0.000	1566	95.777	3.280	0.000	0.000	0	0	0.000	0.000
2	2.458	2.205	2.488	1759	295	5.953	0.000	   			1.332	4491	33.400	0.000	11.090	0.000	0	0	0.000	0.000
3	2.513	2.488	2.524	578	281	2.057	0.000	 V 			1.385	655	229.008	0.000	0.204	1.039	0	0	0.000	0.000
4	2.594	2.524	2.653	1923	346	5.552	0.000	 V 			1.461	1571	95.456	0.000	0.246	1.055	0	0	0.000	0.000
5	2.887	2.664	3.826	71580	16353	4.377	1.000	   	1	N2O	1.739	12436	12.062	1.628	1.606	1.190	0	0	100.000	100.000

[Compound Results(Ch1)]
# of IDs	6
ID#	Name	R.Time	Area	Height	Conc.	Curve	3rd	2nd	1st	Constant	Area Ratio	Height Ratio	Conc. %	Norm Conc.
1	CO	1.468	3353	1086	100.000	Linear	0.000000e+00	0.000000e+00	3.352941e+001	0.000000e+00	0	0	16.667	16.667
2	CH4	1.571	20346	10323	100.000	Linear	0.000000e+00	0.000000e+00	2.034595e+002	0.000000e+00	0	0	16.667	16.667
3	CO2	2.000	2087266	995309	400.000	Linear	0.000000e+00	0.000000e+00	5.218164e+003	0.000000e+00	0	0	66.667	66.667
4	Ethylene	0.000	0	0	0.000	Linear	0.000000e+00	0.000000e+00	0.000000e+00	0.000000e+00	0	0	0.000	0.000
5	Acetylene	0.000	0	0	0.000	Linear	0.000000e+00	0.000000e+00	0.000000e+00	0.000000e+00	0	0	0.000	0.000
6	Ethane	0.000	0	0	0.000	Linear	0.000000e+00	0.000000e+00	0.000000e+00	0.000000e+00	0	0	0.000	0.000

[Compound Results(Ch2)]
# of IDs	5
ID#	Name	R.Time	Area	Height	Conc.	Curve	3rd	2nd	1st	Constant	Area Ratio	Height Ratio	Conc. %	Norm Conc.
1	Hydrogen	0.000	0	0	0.000	Linear	0.000000e+00	0.000000e+00	0.000000e+00	0.000000e+00	0	0	0.000	0.000
2	Oxygen	0.000	0	0	0.000	Linear	0.000000e+00	0.000000e+00	0.000000e+00	0.000000e+00	0	0	0.000	0.000
3	Nitrogen	0.000	0	0	0.000	Linear	0.000000e+00	0.000000e+00	0.000000e+00	0.000000e+00	0	0	0.000	0.000
4	Methane	0.000	0	0	0.000	Linear	0.000000e+00	0.000000e+00	0.000000e+00	0.000000e+00	0	0	0.000	0.000
5	Carbon Monoxide	0.000	0	0	0.000	Linear	0.000000e+00	0.000000e+00	0.000000e+00	0.000000e+00	0	0	0.000	0.000

[Compound Results(Ch3)]
# of IDs	2
ID#	Name	R.Time	Area	Height	Conc.	Curve	3rd	2nd	1st	Constant	Area Ratio	Height Ratio	Conc. %	Norm Conc.
1	N2O	2.887	71580	16353	1.000	Linear	0.000000e+00	0.000000e+00	7.158044e+004	0.000000e+00	0	0	100.000	100.000
2	SF6	0.000	0	0	0.000	Linear	0.000000e+00	0.000000e+00	0.000000e+00	0.000000e+00	0	0	0.000	0.000

[Group Results(Ch1)]
# of Groups	0

[Group Results(Ch2)]
# of Groups	0

[Group Results(Ch3)]
# of Groups	0

[Chromatogram (Ch1)]
Interval(msec)	220
# of Points	1091
Start Time(min)	0.002
End Time(min)	3.998
R.Time (min)	Intensity
0.00167	7
0.00533	7
0.00900	6
0.01267	5
0.01633	9
0.02000	16
0.02367	21
0.02733	21
0.03100	17
0.03467	11
0.03833	6
0.04200	2
0.04567	0
0.04933	1
0.05300	4
0.05667	8
0.06033	10
0.06400	13
0.06767	20
0.07133	26
0.07500	28
0.07867	26
0.08233	21
0.08600	14
0.08967	8
0.09333	3
0.09700	2
0.10067	3
0.10433	3
0.10800	5
0.11167	7
0.11533	9
0.11900	11
0.12267	9
0.12633	4
0.13000	-1
0.13367	-6
0.13733	-7
0.14100	-5
0.14467	-3
0.14833	-1
0.15200	3
0.15567	6
0.15933	5
0.16300	0
0.16667	-3
0.17033	-3
0.17400	-2
0.17767	-1
0.18133	1
0.18500	3
0.18867	4
0.19233	6
0.19600	11
0.19967	15
0.20333	17
0.20700	17
0.21067	17
0.21433	17
0.21800	11
0.22167	3
0.22533	-2
0.22900	-0
0.23267	5
0.23633	8
0.24000	8
0.24367	4
0.24733	-3
0.25100	-11
0.25467	-17
0.25833	-23
0.26200	-26
0.26567	-25
0.26933	-25
0.27300	-24
0.27667	-20
0.28033	-13
0.28400	-5
0.28767	2
0.29133	6
0.29500	6
0.29867	3
0.30233	-3
0.30600	-6
0.30967	-6
0.31333	-4
0.31700	-3
0.32067	-6
0.32433	-11
0.32800	-16
0.33167	-21
0.33533	-22
0.33900	-20
0.34267	-18
0.34633	-16
0.35000	-13
0.35367	-12
0.35733	-12
0.36100	-10
0.36467	-5
0.36833	2
0.37200	3
0.37567	-0
0.37933	-8
0.38300	-17
0.38667	-26
0.39033	-29
0.39400	-28
0.39767	-20
0.40133	-14
0.40500	-10
0.40867	-4
0.41233	3
0.41600	8
0.41967	7
0.42333	3
0.42700	-5
0.43067	-14
0.43433	-21
0.43800	-24
0.44167	-29
0.44533	-32
0.44900	-32
0.45267	-29
0.45633	-22
0.46000	-17
0.46367	-15
0.46733	-15
0.47100	-13
0.47467	-12
0.47833	-9
0.48200	-3
0.48567	0
0.48933	-3
0.49300	-9
0.49667	-18
0.50033	-22
0.50400	-22
0.50767	-20
0.51133	-17
0.51500	-13
0.51867	-11
0.52233	-13
0.52600	-19
0.52967	-25
0.53333	-30
0.53700	-33
0.54067	-34
0.54433	-34
0.54800	-31
0.55167	-27
0.55533	-24
0.55900	-22
0.56267	-23
0.56633	-23
0.57000	-22
0.57367	-21
0.57733	-20
0.58100	-21
0.58467	-22
0.58833	-24
0.59200	-27
0.59567	-30
0.59933	-33
0.60300	-38
0.60667	-43
0.61033	-43
0.61400	-33
0.61767	-22
0.62133	-17
0.62500	-18
0.62867	-22
0.63233	-28
0.63600	-33
0.63967	-38
0.64333	-38
0.64700	-34
0.65067	-30
0.65433	-27
0.65800	-29
0.66167	-34
0.66533	-38
0.66900	-43
0.67267	-43
0.67633	-39
0.68000	-31
0.68367	-26
0.68733	-26
0.69100	-29
0.69467	-37
0.69833	-44
0.70200	-46
0.70567	-44
0.70933	-41
0.71300	-40
0.71667	-37
0.72033	-32
0.72400	-29
0.72767	-30
0.73133	-31
0.73500	-32
0.73867	-33
0.74233	-32
0.74600	-30
0.74967	-25
0.75333	-18
0.75700	-11
0.76067	-8
0.76433	-13
0.76800	-21
0.77167	-31
0.77533	-39
0.77900	-42
0.78267	-41
0.78633	-39
0.79000	-38
0.79367	-38
0.79733	-37
0.80100	-38
0.80467	-41
0.80833	-42
0.81200	-43
0.81567	-43
0.81933	-40
0.82300	-38
0.82667	-39
0.83033	-42
0.83400	-44
0.83767	-46
0.84133	-45
0.84500	-45
0.84867	-40
0.85233	-35
0.85600	-33
0.85967	-35
0.86333	-41
0.86700	-50
0.87067	-57
0.87433	-60
0.87800	-59
0.88167	-52
0.88533	-42
0.88900	-33
0.89267	-28
0.89633	-27
0.90000	-28
0.90367	-30
0.90733	-36
0.91100	-41
0.91467	-42
0.91833	-42
0.92200	-44
0.92567	-50
0.92933	-55
0.93300	-57
0.93667	-58
0.94033	-57
0.94400	-51
0.94767	-44
0.95133	-38
0.95500	-35
0.95867	-37
0.96233	-41
0.96600	-44
0.96967	-44
0.97333	-42
0.97700	-43
0.98067	-48
0.98433	-55
0.98800	-59
0.99167	-62
0.99533	-63
0.99900	-64
1.00267	-67
1.00633	-68
1.01000	-66
1.01367	-63
1.01733	-60
1.02100	-59
1.02467	-58
1.02833	-56
1.03200	-54
1.03567	-51
1.03933	-48
1.04300	-45
1.04667	-43
1.05033	-41
1.05400	-37
1.05767	-36
1.06133	-39
1.06500	-45
1.06867	-50
1.07233	-48
1.07600	-43
1.07967	-40
1.08333	-37
1.08700	-36
1.09067	-37
1.09433	-40
1.09800	-45
1.10167	-50
1.10533	-56
1.10900	-60
1.11267	-63
1.11633	-65
1.12000	-68
1.12367	-67
1.12733	-63
1.13100	-58
1.13467	-51
1.13833	-47
1.14200	-47
1.14567	-49
1.14933	-51
1.15300	-49
1.15667	-48
1.16033	-52
1.16400	-54
1.16767	-53
1.17133	-52
1.17500	-51
1.17867	-48
1.18233	-45
1.18600	-43
1.18967	-41
1.19333	-42
1.19700	-46
1.20067	-52
1.20433	-56
1.20800	-59
1.21167	-62
1.21533	-62
1.21900	-62
1.22267	-65
1.22633	-69
1.23000	-72
1.23367	-74
1.23733	-71
1.24100	-63
1.24467	-57
1.24833	-52
1.25200	-48
1.25567	-48
1.25933	-54
1.26300	-63
1.26667	-72
1.27033	-77
1.27400	-80
1.27767	-81
1.28133	-79
1.28500	-76
1.28867	-75
1.29233	-75
1.29600	-72
1.29967	-69
1.30333	-68
1.30700	-67
1.31067	-67
1.31433	-68
1.31800	-68
1.32167	-66
1.32533	-62
1.32900	-62
1.33267	-65
1.33633	-70
1.34000	-78
1.34367	-85
1.34733	-90
1.35100	-92
1.35467	-92
1.35833	-89
1.36200	-84
1.36567	-78
1.36933	-73
1.37300	-70
1.37667	-73
1.38033	-79
1.38400	-80
1.38767	-79
1.39133	-76
1.39500	-73
1.39867	-74
1.40233	-78
1.40600	-82
1.40967	-86
1.41333	-90
1.41700	-94
1.42067	-99
1.42433	-99
1.42800	-99
1.43167	-97
1.43533	-94
1.43900	-79
1.44267	-13
1.44633	170
1.45000	433
1.45367	678
1.45733	850
1.46100	946
1.46467	987
1.46833	994
1.47200	983
1.47567	964
1.47933	937
1.48300	894
1.48667	825
1.49033	729
1.49400	616
1.49767	502
1.50133	399
1.50500	310
1.50867	234
1.51233	172
1.51600	122
1.51967	82
1.52333	50
1.52700	24
1.53067	4
1.53433	-8
1.53800	20
1.54167	203
1.54533	803
1.54900	2063
1.55267	3905
1.55633	5939
1.56000	7772
1.56367	9183
1.56733	10050
1.57100	10235
1.57467	9637
1.57833	8357
1.58200	6704
1.58567	5038
1.58933	3594
1.59300	2461
1.59667	1635
1.60033	1061
1.60400	675
1.60767	416
1.61133	246
1.61500	136
1.61867	62
1.62233	10
1.62600	-27
1.62967	-54
1.63333	-72
1.63700	-82
1.64067	-86
1.64433	-88
1.64800	-90
1.65167	-93
1.65533	-96
1.65900	-98
1.66267	-99
1.66633	-98
1.67000	-94
1.67367	-90
1.67733	-88
1.68100	-88
1.68467	-86
1.68833	-85
1.69200	-84
1.69567	-86
1.69933	-92
1.70300	-97
1.70667	-101
1.71033	-102
1.71400	-98
1.71767	-94
1.72133	-90
1.72500	-86
1.72867	-84
1.73233	-83
1.73600	-79
1.73967	-74
1.74333	-71
1.74700	-75
1.75067	-80
1.75433	-82
1.75800	-83
1.76167	-86
1.76533	-88
1.76900	-90
1.77267	-91
1.77633	-91
1.78000	-89
1.78367	-87
1.78733	-87
1.79100	-90
1.79467	-93
1.79833	-95
1.80200	-94
1.80567	-92
1.80933	-87
1.81300	-84
1.81667	-84
1.82033	-84
1.82400	-85
1.82767	-86
1.83133	-87
1.83500	-86
1.83867	-83
1.84233	-77
1.84600	-71
1.84967	-66
1.85333	-64
1.85700	-66
1.86067	-70
1.86433	-75
1.86800	-81
1.87167	-85
1.87533	-85
1.87900	-84
1.88267	-81
1.88633	-75
1.89000	-67
1.89367	-60
1.89733	-57
1.90100	-56
1.90467	-57
1.90833	-59
1.91200	-63
1.91567	-70
1.91933	-77
1.92300	-81
1.92667	-82
1.93033	-79
1.93400	-71
1.93767	-60
1.94133	-49
1.94500	-42
1.94867	-38
1.95233	-29
1.95600	34
1.95967	459
1.96333	2697
1.96700	11656
1.97067	38847
1.97433	102476
1.97800	217940
1.98167	382920
1.98533	573613
1.98900	756274
1.99267	899909
1.99633	983103
2.00000	995272
2.00367	938205
2.00733	826687
2.01100	684352
2.01467	536217
2.01833	401583
2.02200	290681
2.02567	205661
2.02933	143731
2.03300	100171
2.03667	70218
2.04033	49884
2.04400	36150
2.04767	26856
2.05133	20514
2.05500	16128
2.05867	13045
2.06233	10828
2.06600	9193
2.06967	7953
2.07333	6994
2.07700	6241
2.08067	5636
2.08433	5136
2.08800	4713
2.09167	4353
2.09533	4043
2.09900	3771
2.10267	3529
2.10633	3311
2.11000	3116
2.11367	2943
2.11733	2789
2.12100	2651
2.12467	2528
2.12833	2414
2.13200	2310
2.13567	2212
2.13933	2120
2.14300	2035
2.14667	1955
2.15033	1882
2.15400	1815
2.15767	1751
2.16133	1692
2.16500	1635
2.16867	1582
2.17233	1534
2.17600	1492
2.17967	1455
2.18333	1418
2.18700	1378
2.19067	1338
2.19433	1296
2.19800	1255
2.20167	1217
2.20533	1183
2.20900	1154
2.21267	1124
2.21633	1095
2.22000	1063
2.22367	1034
2.22733	1007
2.23100	982
2.23467	961
2.23833	944
2.24200	926
2.24567	903
2.24933	879
2.25300	860
2.25667	842
2.26033	823
2.26400	803
2.26767	783
2.27133	767
2.27500	754
2.27867	747
2.28233	741
2.28600	734
2.28967	723
2.29333	710
2.29700	703
2.30067	696
2.30433	685
2.30800	670
2.31167	652
2.31533	635
2.31900	624
2.32267	619
2.32633	616
2.33000	612
2.33367	606
2.33733	595
2.34100	582
2.34467	570
2.34833	563
2.35200	557
2.35567	552
2.35933	544
2.36300	535
2.36667	524
2.37033	516
2.37400	514
2.37767	517
2.38133	521
2.38500	522
2.38867	518
2.39233	511
2.39600	503
2.39967	494
2.40333	487
2.40700	482
2.41067	480
2.41433	478
2.41800	472
2.42167	462
2.42533	452
2.42900	448
2.43267	444
2.43633	438
2.44000	430
2.44367	422
2.44733	415
2.45100	408
2.45467	405
2.45833	406
2.46200	408
2.46567	405
2.46933	398
2.47300	392
2.47667	387
2.48033	385
2.48400	385
2.48767	386
2.49133	387
2.49500	386
2.49867	381
2.50233	379
2.50600	379
2.50967	379
2.51333	374
2.51700	364
2.52067	355
2.52433	348
2.52800	344
2.53167	342
2.53533	337
2.53900	331
2.54267	327
2.54633	326
2.55000	326
2.55367	326
2.55733	325
2.56100	321
2.56467	314
2.56833	309
2.57200	312
2.57567	321
2.57933	326
2.58300	326
2.58667	320
2.59033	313
2.59400	306
2.59767	299
2.60133	292
2.60500	287
2.60867	283
2.61233	280
2.61600	280
2.61967	283
2.62333	285
2.62700	283
2.63067	279
2.63433	274
2.63800	270
2.64167	268
2.64533	268
2.64900	269
2.65267	268
2.65633	264
2.66000	259
2.66367	255
2.66733	252
2.67100	255
2.67467	260
2.67833	264
2.68200	261
2.68567	253
2.68933	245
2.69300	238
2.69667	237
2.70033	240
2.70400	240
2.70767	236
2.71133	231
2.71500	228
2.71867	230
2.72233	233
2.72600	238
2.72967	241
2.73333	244
2.73700	247
2.74067	247
2.74433	245
2.74800	240
2.75167	236
2.75533	233
2.75900	233
2.76267	235
2.76633	237
2.77000	236
2.77367	231
2.77733	222
2.78100	214
2.78467	210
2.78833	209
2.79200	211
2.79567	213
2.79933	214
2.80300	216
2.80667	220
2.81033	223
2.81400	225
2.81767	228
2.82133	227
2.82500	222
2.82867	214
2.83233	206
2.83600	201
2.83967	199
2.84333	203
2.84700	210
2.85067	215
2.85433	218
2.85800	219
2.86167	216
2.86533	213
2.86900	210
2.87267	208
2.87633	207
2.88000	202
2.88367	198
2.88733	196
2.89100	197
2.89467	202
2.89833	206
2.90200	207
2.90567	208
2.90933	207
2.91300	205
2.91667	202
2.92033	199
2.92400	198
2.92767	196
2.93133	195
2.93500	196
2.93867	199
2.94233	201
2.94600	199
2.94967	196
2.95333	191
2.95700	184
2.96067	178
2.96433	176
2.96800	176
2.97167	181
2.97533	186
2.97900	191
2.98267	193
2.98633	193
2.99000	192
2.99367	193
2.99733	193
3.00100	192
3.00467	191
3.00833	188
3.01200	185
3.01567	183
3.01933	180
3.02300	176
3.02667	177
3.03033	176
3.03400	173
3.03767	170
3.04133	170
3.04500	171
3.04867	173
3.05233	176
3.05600	179
3.05967	180
3.06333	179
3.06700	173
3.07067	167
3.07433	162
3.07800	160
3.08167	156
3.08533	153
3.08900	155
3.09267	160
3.09633	163
3.10000	164
3.10367	164
3.10733	163
3.11100	163
3.11467	160
3.11833	157
3.12200	155
3.12567	157
3.12933	160
3.13300	164
3.13667	167
3.14033	168
3.14400	165
3.14767	158
3.15133	148
3.15500	141
3.15867	144
3.16233	155
3.16600	163
3.16967	166
3.17333	165
3.17700	161
3.18067	158
3.18433	155
3.18800	151
3.19167	149
3.19533	147
3.19900	147
3.20267	151
3.20633	153
3.21000	153
3.21367	149
3.21733	146
3.22100	146
3.22467	146
3.22833	146
3.23200	147
3.23567	150
3.23933	152
3.24300	152
3.24667	150
3.25033	148
3.25400	148
3.25767	149
3.26133	152
3.26500	156
3.26867	158
3.27233	158
3.27600	156
3.27967	154
3.28333	152
3.28700	146
3.29067	142
3.29433	139
3.29800	138
3.30167	141
3.30533	145
3.30900	144
3.31267	141
3.31633	137
3.32000	134
3.32367	129
3.32733	126
3.33100	125
3.33467	126
3.33833	129
3.34200	135
3.34567	142
3.34933	144
3.35300	143
3.35667	141
3.36033	139
3.36400	137
3.36767	137
3.37133	135
3.37500	131
3.37867	127
3.38233	126
3.38600	130
3.38967	137
3.39333	143
3.39700	143
3.40067	138
3.40433	136
3.40800	135
3.41167	132
3.41533	131
3.41900	132
3.42267	133
3.42633	135
3.43000	135
3.43367	129
3.43733	122
3.44100	114
3.44467	107
3.44833	105
3.45200	111
3.45567	120
3.45933	126
3.46300	126
3.46667	123
3.47033	118
3.47400	114
3.47767	112
3.48133	111
3.48500	110
3.48867	108
3.49233	105
3.49600	104
3.49967	106
3.50333	108
3.50700	110
3.51067	111
3.51433	112
3.51800	108
3.52167	98
3.52533	91
3.52900	89
3.53267	92
3.53633	95
3.54000	98
3.54367	101
3.54733	102
3.55100	104
3.55467	107
3.55833	112
3.56200	117
3.56567	122
3.56933	125
3.57300	121
3.57667	116
3.58033	110
3.58400	105
3.58767	104
3.59133	106
3.59500	107
3.59867	109
3.60233	109
3.60600	107
3.60967	104
3.61333	103
3.61700	105
3.62067	107
3.62433	108
3.62800	110
3.63167	111
3.63533	112
3.63900	113
3.64267	112
3.64633	105
3.65000	93
3.65367	82
3.65733	75
3.66100	74
3.66467	75
3.66833	73
3.67200	69
3.67567	66
3.67933	65
3.68300	68
3.68667	76
3.69033	86
3.69400	93
3.69767	91
3.70133	86
3.70500	82
3.70867	81
3.71233	82
3.71600	84
3.71967	85
3.72333	85
3.72700	82
3.73067	80
3.73433	78
3.73800	77
3.74167	80
3.74533	83
3.74900	82
3.75267	78
3.75633	72
3.76000	67
3.76367	67
3.76733	74
3.77100	82
3.77467	87
3.77833	89
3.78200	87
3.78567	80
3.78933	72
3.79300	66
3.79667	60
3.80033	56
3.80400	54
3.80767	54
3.81133	56
3.81500	57
3.81867	60
3.82233	63
3.82600	63
3.82967	62
3.83333	64
3.83700	67
3.84067	71
3.84433	73
3.84800	74
3.85167	73
3.85533	69
3.85900	66
3.86267	62
3.86633	58
3.87000	57
3.87367	58
3.87733	61
3.88100	62
3.88467	61
3.88833	61
3.89200	60
3.89567	57
3.89933	54
3.90300	50
3.90667	45
3.91033	41
3.91400	38
3.91767	38
3.92133	42
3.92500	47
3.92867	53
3.93233	60
3.93600	63
3.93967	68
3.94333	73
3.94700	74
3.95067	71
3.95433	64
3.95800	58
3.96167	54
3.96533	52
3.96900	50
3.97267	50
3.97633	53
3.98000	59
3.98367	63
3.98733	63
3.99100	63
3.99467	63
3.99833	61

[Chromatogram (Ch2)]
Interval(msec)	220
# of Points	1091
Start Time(min)	0.002
End Time(min)	3.998
R.Time (min)	Intensity
0.00167	1
0.00533	1
0.00900	1
0.01267	1
0.01633	1
0.02000	1
0.02367	0
0.02733	0
0.03100	0
0.03467	0
0.03833	0
0.04200	0
0.04567	-0
0.04933	-0
0.05300	-1
0.05667	-1
0.06033	-1
0.06400	-1
0.06767	-1
0.07133	-1
0.07500	-1
0.07867	-1
0.08233	-1
0.08600	-1
0.08967	-1
0.09333	-1
0.09700	-1
0.10067	-1
0.10433	-1
0.10800	-1
0.11167	-1
0.11533	-2
0.11900	-2
0.12267	-1
0.12633	-1
0.13000	-1
0.13367	-1
0.13733	-1
0.14100	-1
0.14467	-1
0.14833	-1
0.15200	-1
0.15567	-0
0.15933	-0
0.16300	-0
0.16667	-0
0.17033	-0
0.17400	-0
0.17767	-1
0.18133	-1
0.18500	-1
0.18867	-1
0.19233	-0
0.19600	-0
0.19967	-0
0.20333	-0
0.20700	-0
0.21067	-0
0.21433	-0
0.21800	-1
0.22167	-1
0.22533	-1
0.22900	-0
0.23267	-0
0.23633	-0
0.24000	-0
0.24367	-0
0.24733	-0
0.25100	-0
0.25467	-1
0.25833	-1
0.26200	-1
0.26567	-1
0.26933	-1
0.27300	-1
0.27667	-1
0.28033	-1
0.28400	-1
0.28767	-1
0.29133	-1
0.29500	-1
0.29867	-1
0.30233	-1
0.30600	-2
0.30967	-2
0.31333	-2
0.31700	-2
0.32067	-2
0.32433	-2
0.32800	-2
0.33167	-2
0.33533	-3
0.33900	-3
0.34267	-3
0.34633	-3
0.35000	-3
0.35367	-3
0.35733	-3
0.36100	-3
0.36467	-3
0.36833	-3
0.37200	-3
0.37567	-3
0.37933	-2
0.38300	-2
0.38667	-2
0.39033	-2
0.39400	-2
0.39767	-2
0.40133	-2
0.40500	-2
0.40867	-2
0.41233	-2
0.41600	-2
0.41967	-2
0.42333	-2
0.42700	-2
0.43067	-2
0.43433	-3
0.43800	-3
0.44167	-3
0.44533	-3
0.44900	-3
0.45267	-3
0.45633	-2
0.46000	-2
0.46367	-2
0.46733	-2
0.47100	-2
0.47467	-2
0.47833	-2
0.48200	-2
0.48567	-2
0.48933	-3
0.49300	-3
0.49667	-3
0.50033	-3
0.50400	-3
0.50767	-3
0.51133	-3
0.51500	-3
0.51867	-2
0.52233	-2
0.52600	-2
0.52967	-2
0.53333	-2
0.53700	-2
0.54067	-2
0.54433	-2
0.54800	-2
0.55167	-2
0.55533	-3
0.55900	-3
0.56267	-3
0.56633	-3
0.57000	-3
0.57367	-3
0.57733	-3
0.58100	-3
0.58467	-3
0.58833	-4
0.59200	-4
0.59567	-4
0.59933	-4
0.60300	-5
0.60667	-4
0.61033	-4
0.61400	-4
0.61767	-4
0.62133	-5
0.62500	-5
0.62867	-5
0.63233	-5
0.63600	-4
0.63967	-4
0.64333	-4
0.64700	-3
0.65067	-3
0.65433	-2
0.65800	-2
0.66167	-2
0.66533	-2
0.66900	-2
0.67267	-2
0.67633	-2
0.68000	-2
0.68367	-2
0.68733	-3
0.69100	-3
0.69467	-2
0.69833	-2
0.70200	-2
0.70567	-2
0.70933	-2
0.71300	-2
0.71667	-2
0.72033	-2
0.72400	-2
0.72767	-2
0.73133	-2
0.73500	-2
0.73867	-1
0.74233	-1
0.74600	-1
0.74967	-2
0.75333	-2
0.75700	-2
0.76067	-2
0.76433	-2
0.76800	-3
0.77167	-3
0.77533	-3
0.77900	-3
0.78267	-3
0.78633	-3
0.79000	-4
0.79367	-4
0.79733	-4
0.80100	-4
0.80467	-4
0.80833	-3
0.81200	-3
0.81567	-3
0.81933	-3
0.82300	-2
0.82667	-2
0.83033	-2
0.83400	-2
0.83767	-2
0.84133	-2
0.84500	-2
0.84867	-2
0.85233	-2
0.85600	-2
0.85967	-2
0.86333	-1
0.86700	-1
0.87067	-1
0.87433	-1
0.87800	-1
0.88167	-1
0.88533	-0
0.88900	-1
0.89267	-1
0.89633	-1
0.90000	-1
0.90367	-1
0.90733	-2
0.91100	-2
0.91467	-2
0.91833	-2
0.92200	-2
0.92567	-2
0.92933	-2
0.93300	-2
0.93667	-2
0.94033	-2
0.94400	-2
0.94767	-2
0.95133	-2
0.95500	-2
0.95867	-2
0.96233	-2
0.96600	-2
0.96967	-2
0.97333	-2
0.97700	-2
0.98067	-2
0.98433	-2
0.98800	-2
0.99167	-2
0.99533	-2
0.99900	-2
1.00267	-2
1.00633	-2
1.01000	-1
1.01367	-1
1.01733	-1
1.02100	-1
1.02467	-1
1.02833	-1
1.03200	-1
1.03567	-1
1.03933	-1
1.04300	-1
1.04667	-2
1.05033	-2
1.05400	-2
1.05767	-2
1.06133	-2
1.06500	-2
1.06867	-2
1.07233	-2
1.07600	-2
1.07967	-2
1.08333	-2
1.08700	-2
1.09067	-2
1.09433	-2
1.09800	-2
1.10167	-2
1.10533	-2
1.10900	-3
1.11267	-3
1.11633	-2
1.12000	-2
1.12367	-2
1.12733	-2
1.13100	-2
1.13467	-2
1.13833	-2
1.14200	-2
1.14567	-2
1.14933	-2
1.15300	-2
1.15667	-2
1.16033	-2
1.16400	-2
1.16767	-2
1.17133	-2
1.17500	-3
1.17867	-3
1.18233	-3
1.18600	-3
1.18967	-3
1.19333	-3
1.19700	-2
1.20067	-2
1.20433	-2
1.20800	-2
1.21167	-2
1.21533	-2
1.21900	-2
1.22267	-3
1.22633	-3
1.23000	-3
1.23367	-3
1.23733	-3
1.24100	-3
1.24467	-3
1.24833	-3
1.25200	-3
1.25567	-3
1.25933	-3
1.26300	-3
1.26667	-3
1.27033	-3
1.27400	-2
1.27767	-2
1.28133	-2
1.28500	-2
1.28867	-3
1.29233	-3
1.29600	-3
1.29967	-3
1.30333	-3
1.30700	-3
1.31067	-4
1.31433	-4
1.31800	-4
1.32167	-4
1.32533	-4
1.32900	-4
1.33267	-4
1.33633	-4
1.34000	-4
1.34367	-3
1.34733	-3
1.35100	-3
1.35467	-3
1.35833	-2
1.36200	-2
1.36567	-2
1.36933	-2
1.37300	-2
1.37667	-2
1.38033	-2
1.38400	-2
1.38767	-2
1.39133	-2
1.39500	-2
1.39867	-2
1.40233	-2
1.40600	-2
1.40967	-2
1.41333	-2
1.41700	-2
1.42067	-2
1.42433	-2
1.42800	-2
1.43167	-2
1.43533	-3
1.43900	-3
1.44267	-3
1.44633	-3
1.45000	-3
1.45367	-3
1.45733	-3
1.46100	-3
1.46467	-3
1.46833	-4
1.47200	-4
1.47567	-4
1.47933	-4
1.48300	-4
1.48667	-4
1.49033	-4
1.49400	-4
1.49767	-4
1.50133	-4
1.50500	-4
1.50867	-4
1.51233	-4
1.51600	-4
1.51967	-4
1.52333	-4
1.52700	-4
1.53067	-4
1.53433	-4
1.53800	-4
1.54167	-4
1.54533	-3
1.54900	-3
1.55267	-3
1.55633	-3
1.56000	-3
1.56367	-3
1.56733	-3
1.57100	-3
1.57467	-3
1.57833	-4
1.58200	-4
1.58567	-4
1.58933	-5
1.59300	-5
1.59667	-5
1.60033	-6
1.60400	-7
1.60767	-8
1.61133	-9
1.61500	-11
1.61867	-13
1.62233	-15
1.62600	-18
1.62967	-20
1.63333	-24
1.63700	-27
1.64067	-30
1.64433	-34
1.64800	-37
1.65167	-41
1.65533	-45
1.65900	-49
1.66267	-53
1.66633	-57
1.67000	-61
1.67367	-65
1.67733	-70
1.68100	-74
1.68467	-79
1.68833	-84
1.69200	-88
1.69567	-92
1.69933	-95
1.70300	-98
1.70667	-100
1.71033	-102
1.71400	-104
1.71767	-105
1.72133	-106
1.72500	-107
1.72867	-108
1.73233	-109
1.73600	-110
1.73967	-110
1.74333	-111
1.74700	-112
1.75067	-113
1.75433	-114
1.75800	-114
1.76167	-114
1.76533	-115
1.76900	-114
1.77267	-114
1.77633	-114
1.78000	-113
1.78367	-113
1.78733	-113
1.79100	-113
1.79467	-113
1.79833	-114
1.80200	-115
1.80567	-116
1.80933	-117
1.81300	-117
1.81667	-117
1.82033	-117
1.82400	-117
1.82767	-117
1.83133	-117
1.83500	-117
1.83867	-117
1.84233	-118
1.84600	-118
1.84967	-118
1.85333	-119
1.85700	-119
1.86067	-119
1.86433	-119
1.86800	-119
1.87167	-119
1.87533	-119
1.87900	-119
1.88267	-119
1.88633	-119
1.89000	-118
1.89367	-118
1.89733	-117
1.90100	-117
1.90467	-117
1.90833	-117
1.91200	-117
1.91567	-117
1.91933	-116
1.92300	-116
1.92667	-116
1.93033	-116
1.93400	-116
1.93767	-116
1.94133	-116
1.94500	-116
1.94867	-115
1.95233	-115
1.95600	-115
1.95967	-115
1.96333	-115
1.96700	-114
1.97067	-114
1.97433	-114
1.97800	-113
1.98167	-112
1.98533	-112
1.98900	-111
1.99267	-111
1.99633	-110
2.00000	-110
2.00367	-110
2.00733	-110
2.01100	-109
2.01467	-109
2.01833	-109
2.02200	-109
2.02567	-109
2.02933	-109
2.03300	-109
2.03667	-109
2.04033	-109
2.04400	-108
2.04767	-108
2.05133	-107
2.05500	-107
2.05867	-107
2.06233	-107
2.06600	-107
2.06967	-106
2.07333	-106
2.07700	-105
2.08067	-105
2.08433	-105
2.08800	-104
2.09167	-104
2.09533	-104
2.09900	-103
2.10267	-103
2.10633	-103
2.11000	-103
2.11367	-102
2.11733	-102
2.12100	-102
2.12467	-102
2.12833	-101
2.13200	-101
2.13567	-101
2.13933	-101
2.14300	-101
2.14667	-101
2.15033	-101
2.15400	-100
2.15767	-100
2.16133	-99
2.16500	-98
2.16867	-97
2.17233	-97
2.17600	-96
2.17967	-96
2.18333	-96
2.18700	-95
2.19067	-95
2.19433	-95
2.19800	-95
2.20167	-95
2.20533	-95
2.20900	-95
2.21267	-95
2.21633	-94
2.22000	-94
2.22367	-94
2.22733	-94
2.23100	-95
2.23467	-95
2.23833	-95
2.24200	-96
2.24567	-96
2.24933	-95
2.25300	-94
2.25667	-93
2.26033	-92
2.26400	-91
2.26767	-91
2.27133	-90
2.27500	-90
2.27867	-90
2.28233	-89
2.28600	-89
2.28967	-89
2.29333	-88
2.29700	-88
2.30067	-87
2.30433	-86
2.30800	-85
2.31167	-85
2.31533	-85
2.31900	-85
2.32267	-86
2.32633	-87
2.33000	-88
2.33367	-88
2.33733	-88
2.34100	-86
2.34467	-85
2.34833	-83
2.35200	-82
2.35567	-81
2.35933	-79
2.36300	-79
2.36667	-78
2.37033	-77
2.37400	-76
2.37767	-75
2.38133	-73
2.38500	-71
2.38867	-68
2.39233	-64
2.39600	-61
2.39967	-56
2.40333	-52
2.40700	-47
2.41067	-43
2.41433	-38
2.41800	-34
2.42167	-31
2.42533	-28
2.42900	-25
2.43267	-22
2.43633	-20
2.44000	-17
2.44367	-15
2.44733	-12
2.45100	-10
2.45467	-8
2.45833	-6
2.46200	-5
2.46567	-3
2.46933	-2
2.47300	-1
2.47667	1
2.48033	2
2.48400	2
2.48767	3
2.49133	4
2.49500	4
2.49867	5
2.50233	6
2.50600	7
2.50967	7
2.51333	8
2.51700	9
2.52067	9
2.52433	10
2.52800	11
2.53167	12
2.53533	12
2.53900	13
2.54267	13
2.54633	13
2.55000	14
2.55367	14
2.55733	13
2.56100	14
2.56467	14
2.56833	14
2.57200	14
2.57567	15
2.57933	16
2.58300	16
2.58667	17
2.59033	17
2.59400	17
2.59767	18
2.60133	18
2.60500	18
2.60867	19
2.61233	19
2.61600	19
2.61967	20
2.62333	20
2.62700	20
2.63067	20
2.63433	20
2.63800	20
2.64167	20
2.64533	20
2.64900	21
2.65267	21
2.65633	21
2.66000	21
2.66367	21
2.66733	21
2.67100	21
2.67467	21
2.67833	21
2.68200	22
2.68567	22
2.68933	22
2.69300	23
2.69667	23
2.70033	24
2.70400	24
2.70767	24
2.71133	24
2.71500	24
2.71867	24
2.72233	23
2.72600	23
2.72967	22
2.73333	22
2.73700	22
2.74067	22
2.74433	22
2.74800	22
2.75167	22
2.75533	22
2.75900	23
2.76267	23
2.76633	23
2.77000	24
2.77367	24
2.77733	25
2.78100	25
2.78467	25
2.78833	25
2.79200	26
2.79567	26
2.79933	26
2.80300	26
2.80667	26
2.81033	26
2.81400	26
2.81767	26
2.82133	26
2.82500	26
2.82867	26
2.83233	26
2.83600	25
2.83967	25
2.84333	24
2.84700	24
2.85067	23
2.85433	21
2.85800	18
2.86167	13
2.86533	5
2.86900	-6
2.87267	-21
2.87633	-40
2.88000	-65
2.88367	-94
2.88733	-129
2.89100	-168
2.89467	-213
2.89833	-262
2.90200	-316
2.90567	-374
2.90933	-436
2.91300	-502
2.91667	-570
2.92033	-642
2.92400	-716
2.92767	-792
2.93133	-871
2.93500	-951
2.93867	-1034
2.94233	-1118
2.94600	-1204
2.94967	-1291
2.95333	-1377
2.95700	-1455
2.96067	-1510
2.96433	-1534
2.96800	-1523
2.97167	-1478
2.97533	-1405
2.97900	-1313
2.98267	-1209
2.98633	-1099
2.99000	-988
2.99367	-881
2.99733	-779
3.00100	-684
3.00467	-598
3.00833	-520
3.01200	-450
3.01567	-388
3.01933	-333
3.02300	-286
3.02667	-244
3.03033	-208
3.03400	-177
3.03767	-150
3.04133	-127
3.04500	-107
3.04867	-91
3.05233	-76
3.05600	-64
3.05967	-54
3.06333	-45
3.06700	-37
3.07067	-31
3.07433	-25
3.07800	-20
3.08167	-16
3.08533	-12
3.08900	-9
3.09267	-7
3.09633	-4
3.10000	-2
3.10367	-0
3.10733	1
3.11100	3
3.11467	4
3.11833	5
3.12200	6
3.12567	7
3.12933	7
3.13300	8
3.13667	9
3.14033	10
3.14400	10
3.14767	11
3.15133	12
3.15500	12
3.15867	13
3.16233	13
3.16600	14
3.16967	14
3.17333	14
3.17700	15
3.18067	15
3.18433	15
3.18800	15
3.19167	16
3.19533	16
3.19900	16
3.20267	16
3.20633	16
3.21000	16
3.21367	16
3.21733	16
3.22100	17
3.22467	17
3.22833	17
3.23200	17
3.23567	18
3.23933	18
3.24300	18
3.24667	19
3.25033	19
3.25400	19
3.25767	20
3.26133	20
3.26500	20
3.26867	21
3.27233	21
3.27600	21
3.27967	21
3.28333	21
3.28700	21
3.29067	21
3.29433	22
3.29800	22
3.30167	22
3.30533	22
3.30900	22
3.31267	22
3.31633	22
3.32000	22
3.32367	22
3.32733	22
3.33100	22
3.33467	22
3.33833	22
3.34200	22
3.34567	22
3.34933	22
3.35300	22
3.35667	23
3.36033	23
3.36400	23
3.36767	23
3.37133	23
3.37500	24
3.37867	24
3.38233	25
3.38600	25
3.38967	26
3.39333	26
3.39700	26
3.40067	27
3.40433	27
3.40800	28
3.41167	28
3.41533	28
3.41900	28
3.42267	29
3.42633	29
3.43000	29
3.43367	29
3.43733	29
3.44100	29
3.44467	29
3.44833	28
3.45200	28
3.45567	28
3.45933	28
3.46300	28
3.46667	28
3.47033	28
3.47400	28
3.47767	28
3.48133	28
3.48500	28
3.48867	28
3.49233	28
3.49600	28
3.49967	28
3.50333	27
3.50700	27
3.51067	26
3.51433	26
3.51800	26
3.52167	25
3.52533	25
3.52900	26
3.53267	26
3.53633	26
3.54000	26
3.54367	26
3.54733	26
3.55100	27
3.55467	27
3.55833	27
3.56200	27
3.56567	27
3.56933	27
3.57300	27
3.57667	27
3.58033	27
3.58400	26
3.58767	26
3.59133	26
3.59500	26
3.59867	26
3.60233	26
3.60600	26
3.60967	26
3.61333	26
3.61700	26
3.62067	26
3.62433	26
3.62800	26
3.63167	26
3.63533	26
3.63900	26
3.64267	26
3.64633	26
3.65000	26
3.65367	26
3.65733	26
3.66100	26
3.66467	26
3.66833	26
3.67200	26
3.67567	26
3.67933	26
3.68300	26
3.68667	25
3.69033	25
3.69400	25
3.69767	25
3.70133	25
3.70500	25
3.70867	26
3.71233	26
3.71600	25
3.71967	25
3.72333	25
3.72700	25
3.73067	25
3.73433	25
3.73800	25
3.74167	25
3.74533	25
3.74900	25
3.75267	25
3.75633	25
3.76000	25
3.76367	25
3.76733	26
3.77100	26
3.77467	26
3.77833	26
3.78200	25
3.78567	25
3.78933	25
3.79300	25
3.79667	25
3.80033	25
3.80400	25
3.80767	24
3.81133	25
3.81500	25
3.81867	25
3.82233	25
3.82600	25
3.82967	25
3.83333	25
3.83700	25
3.84067	25
3.84433	24
3.84800	24
3.85167	24
3.85533	24
3.85900	24
3.86267	24
3.86633	24
3.87000	24
3.87367	24
3.87733	25
3.88100	25
3.88467	25
3.88833	25
3.89200	25
3.89567	25
3.89933	25
3.90300	25
3.90667	25
3.91033	25
3.91400	25
3.91767	25
3.92133	25
3.92500	25
3.92867	25
3.93233	25
3.93600	25
3.93967	25
3.94333	25
3.94700	25
3.95067	25
3.95433	25
3.95800	25
3.96167	25
3.96533	26
3.96900	26
3.97267	26
3.97633	26
3.98000	26
3.98367	26
3.98733	26
3.99100	26
3.99467	26
3.99833	26

[Chromatogram (Ch3)]
Interval(msec)	220
# of Points	1091
Start Time(min)	0.002
End Time(min)	3.998
R.Time (min)	Intensity
0.00167	1
0.00533	2
0.00900	-2
0.01267	-4
0.01633	-5
0.02000	-8
0.02367	-11
0.02733	-13
0.03100	-14
0.03467	-13
0.03833	-11
0.04200	-10
0.04567	-10
0.04933	-9
0.05300	-6
0.05667	-6
0.06033	-7
0.06400	-8
0.06767	-9
0.07133	-10
0.07500	-10
0.07867	-8
0.08233	-6
0.08600	-5
0.08967	-6
0.09333	-4
0.09700	-3
0.10067	-1
0.10433	0
0.10800	-1
0.11167	-2
0.11533	-2
0.11900	-4
0.12267	-5
0.12633	-3
0.13000	-3
0.13367	-3
0.13733	-5
0.14100	-6
0.14467	-6
0.14833	-6
0.15200	-6
0.15567	-4
0.15933	-4
0.16300	-6
0.16667	-7
0.17033	-6
0.17400	-5
0.17767	-4
0.18133	-4
0.18500	-6
0.18867	-7
0.19233	-8
0.19600	-7
0.19967	-6
0.20333	-8
0.20700	-9
0.21067	-6
0.21433	-4
0.21800	-4
0.22167	-3
0.22533	-3
0.22900	-5
0.23267	-7
0.23633	-8
0.24000	-9
0.24367	-11
0.24733	-12
0.25100	-10
0.25467	-7
0.25833	-7
0.26200	-7
0.26567	-5
0.26933	-4
0.27300	-3
0.27667	-2
0.28033	-2
0.28400	-2
0.28767	-2
0.29133	-4
0.29500	-7
0.29867	-8
0.30233	-8
0.30600	-7
0.30967	-6
0.31333	-4
0.31700	-2
0.32067	-5
0.32433	-7
0.32800	-7
0.33167	-6
0.33533	-6
0.33900	-6
0.34267	-7
0.34633	-9
0.35000	-9
0.35367	-8
0.35733	-9
0.36100	-9
0.36467	-7
0.36833	-7
0.37200	-6
0.37567	-6
0.37933	-6
0.38300	-7
0.38667	-7
0.39033	-8
0.39400	-11
0.39767	-12
0.40133	-12
0.40500	-9
0.40867	-8
0.41233	-9
0.41600	-10
0.41967	-11
0.42333	-13
0.42700	-13
0.43067	-10
0.43433	-8
0.43800	-10
0.44167	-10
0.44533	-9
0.44900	-8
0.45267	-6
0.45633	-6
0.46000	-6
0.46367	-7
0.46733	-8
0.47100	-10
0.47467	-10
0.47833	-11
0.48200	-10
0.48567	-11
0.48933	-11
0.49300	-11
0.49667	-10
0.50033	-8
0.50400	-9
0.50767	-9
0.51133	-11
0.51500	-11
0.51867	-11
0.52233	-11
0.52600	-10
0.52967	-10
0.53333	-10
0.53700	-11
0.54067	-13
0.54433	-13
0.54800	-14
0.55167	-15
0.55533	-13
0.55900	-13
0.56267	-13
0.56633	-11
0.57000	-10
0.57367	-11
0.57733	-11
0.58100	-11
0.58467	-10
0.58833	-10
0.59200	-10
0.59567	-10
0.59933	-10
0.60300	-10
0.60667	-10
0.61033	-12
0.61400	-12
0.61767	-13
0.62133	-14
0.62500	-13
0.62867	-15
0.63233	-17
0.63600	-17
0.63967	-14
0.64333	-13
0.64700	-11
0.65067	-10
0.65433	-8
0.65800	-7
0.66167	-8
0.66533	-7
0.66900	-7
0.67267	-8
0.67633	-9
0.68000	-8
0.68367	-7
0.68733	-6
0.69100	-6
0.69467	-9
0.69833	-10
0.70200	-11
0.70567	-10
0.70933	-9
0.71300	-6
0.71667	-6
0.72033	-8
0.72400	-9
0.72767	-10
0.73133	-11
0.73500	-13
0.73867	-15
0.74233	-14
0.74600	-12
0.74967	-11
0.75333	-10
0.75700	-11
0.76067	-9
0.76433	-8
0.76800	-8
0.77167	-8
0.77533	-8
0.77900	-10
0.78267	-10
0.78633	-11
0.79000	-11
0.79367	-11
0.79733	-12
0.80100	-12
0.80467	-12
0.80833	-11
0.81200	-11
0.81567	-9
0.81933	-4
0.82300	-4
0.82667	-7
0.83033	-9
0.83400	-10
0.83767	-10
0.84133	-11
0.84500	-12
0.84867	-14
0.85233	-15
0.85600	-14
0.85967	-11
0.86333	-10
0.86700	-9
0.87067	-10
0.87433	-10
0.87800	-11
0.88167	-10
0.88533	-8
0.88900	-9
0.89267	-10
0.89633	-13
0.90000	-14
0.90367	-14
0.90733	-13
0.91100	-12
0.91467	-13
0.91833	-13
0.92200	-10
0.92567	-9
0.92933	-10
0.93300	-10
0.93667	-11
0.94033	-12
0.94400	-11
0.94767	-8
0.95133	-9
0.95500	-10
0.95867	-10
0.96233	-12
0.96600	-13
0.96967	-15
0.97333	-16
0.97700	-16
0.98067	-15
0.98433	-14
0.98800	-14
0.99167	-14
0.99533	-16
0.99900	-19
1.00267	-20
1.00633	-17
1.01000	-15
1.01367	-12
1.01733	-10
1.02100	-11
1.02467	-10
1.02833	-8
1.03200	-5
1.03567	-4
1.03933	-2
1.04300	-0
1.04667	1
1.05033	3
1.05400	4
1.05767	3
1.06133	2
1.06500	1
1.06867	-0
1.07233	-2
1.07600	-3
1.07967	-4
1.08333	-5
1.08700	-2
1.09067	-1
1.09433	-2
1.09800	0
1.10167	-0
1.10533	1
1.10900	-0
1.11267	-3
1.11633	-3
1.12000	-1
1.12367	-1
1.12733	-3
1.13100	-5
1.13467	-4
1.13833	-3
1.14200	-3
1.14567	-2
1.14933	-3
1.15300	-4
1.15667	-4
1.16033	-2
1.16400	1
1.16767	4
1.17133	3
1.17500	0
1.17867	-0
1.18233	1
1.18600	4
1.18967	5
1.19333	4
1.19700	2
1.20067	0
1.20433	1
1.20800	2
1.21167	2
1.21533	1
1.21900	-0
1.22267	1
1.22633	2
1.23000	-1
1.23367	-3
1.23733	-5
1.24100	-6
1.24467	-6
1.24833	-7
1.25200	-5
1.25567	-2
1.25933	-1
1.26300	-0
1.26667	-0
1.27033	-0
1.27400	-3
1.27767	-4
1.28133	-4
1.28500	-5
1.28867	-6
1.29233	-10
1.29600	-9
1.29967	-6
1.30333	-7
1.30700	-7
1.31067	-6
1.31433	-7
1.31800	-9
1.32167	-10
1.32533	-7
1.32900	-5
1.33267	-6
1.33633	-8
1.34000	-9
1.34367	-9
1.34733	-11
1.35100	-13
1.35467	-13
1.35833	-11
1.36200	-11
1.36567	-10
1.36933	-10
1.37300	-8
1.37667	-6
1.38033	-6
1.38400	-7
1.38767	-7
1.39133	-7
1.39500	-7
1.39867	-8
1.40233	-11
1.40600	-16
1.40967	-19
1.41333	-21
1.41700	-17
1.42067	-15
1.42433	-12
1.42800	-10
1.43167	-11
1.43533	-12
1.43900	-13
1.44267	-14
1.44633	-15
1.45000	-15
1.45367	-13
1.45733	-9
1.46100	-5
1.46467	-3
1.46833	-3
1.47200	-6
1.47567	-8
1.47933	-9
1.48300	-10
1.48667	-12
1.49033	-14
1.49400	-13
1.49767	-13
1.50133	-15
1.50500	-17
1.50867	-17
1.51233	-14
1.51600	-11
1.51967	-11
1.52333	-11
1.52700	-11
1.53067	-12
1.53433	-11
1.53800	-10
1.54167	-10
1.54533	-9
1.54900	-9
1.55267	-8
1.55633	-7
1.56000	-9
1.56367	-11
1.56733	-11
1.57100	-11
1.57467	-10
1.57833	-10
1.58200	-9
1.58567	-9
1.58933	-6
1.59300	-4
1.59667	-5
1.60033	-7
1.60400	-9
1.60767	-9
1.61133	-12
1.61500	-13
1.61867	-13
1.62233	-12
1.62600	-10
1.62967	-9
1.63333	-8
1.63700	-6
1.64067	-6
1.64433	-4
1.64800	-3
1.65167	-2
1.65533	-1
1.65900	2
1.66267	3
1.66633	3
1.67000	3
1.67367	2
1.67733	1
1.68100	2
1.68467	4
1.68833	4
1.69200	3
1.69567	1
1.69933	1
1.70300	0
1.70667	1
1.71033	1
1.71400	2
1.71767	3
1.72133	3
1.72500	5
1.72867	7
1.73233	7
1.73600	5
1.73967	4
1.74333	4
1.74700	4
1.75067	4
1.75433	5
1.75800	5
1.76167	6
1.76533	8
1.76900	10
1.77267	11
1.77633	12
1.78000	12
1.78367	12
1.78733	11
1.79100	11
1.79467	11
1.79833	13
1.80200	15
1.80567	18
1.80933	18
1.81300	17
1.81667	16
1.82033	15
1.82400	17
1.82767	19
1.83133	19
1.83500	18
1.83867	18
1.84233	17
1.84600	18
1.84967	20
1.85333	21
1.85700	22
1.86067	23
1.86433	23
1.86800	24
1.87167	27
1.87533	29
1.87900	31
1.88267	31
1.88633	30
1.89000	28
1.89367	25
1.89733	26
1.90100	29
1.90467	32
1.90833	32
1.91200	33
1.91567	35
1.91933	36
1.92300	38
1.92667	37
1.93033	40
1.93400	41
1.93767	39
1.94133	37
1.94500	37
1.94867	39
1.95233	39
1.95600	38
1.95967	37
1.96333	37
1.96700	41
1.97067	44
1.97433	46
1.97800	49
1.98167	52
1.98533	51
1.98900	51
1.99267	51
1.99633	51
2.00000	51
2.00367	54
2.00733	55
2.01100	55
2.01467	55
2.01833	56
2.02200	57
2.02567	57
2.02933	56
2.03300	56
2.03667	57
2.04033	57
2.04400	58
2.04767	61
2.05133	63
2.05500	65
2.05867	66
2.06233	66
2.06600	67
2.06967	67
2.07333	66
2.07700	62
2.08067	62
2.08433	65
2.08800	67
2.09167	68
2.09533	68
2.09900	70
2.10267	75
2.10633	77
2.11000	77
2.11367	78
2.11733	76
2.12100	74
2.12467	73
2.12833	75
2.13200	77
2.13567	78
2.13933	80
2.14300	85
2.14667	89
2.15033	91
2.15400	91
2.15767	90
2.16133	90
2.16500	93
2.16867	97
2.17233	99
2.17600	100
2.17967	102
2.18333	105
2.18700	105
2.19067	104
2.19433	103
2.19800	103
2.20167	107
2.20533	112
2.20900	112
2.21267	112
2.21633	114
2.22000	114
2.22367	116
2.22733	117
2.23100	115
2.23467	115
2.23833	115
2.24200	114
2.24567	116
2.24933	118
2.25300	120
2.25667	122
2.26033	125
2.26400	127
2.26767	128
2.27133	130
2.27500	132
2.27867	133
2.28233	135
2.28600	137
2.28967	138
2.29333	137
2.29700	138
2.30067	140
2.30433	139
2.30800	139
2.31167	142
2.31533	146
2.31900	149
2.32267	151
2.32633	153
2.33000	155
2.33367	156
2.33733	154
2.34100	154
2.34467	156
2.34833	159
2.35200	161
2.35567	163
2.35933	166
2.36300	168
2.36667	170
2.37033	170
2.37400	172
2.37767	175
2.38133	177
2.38500	176
2.38867	175
2.39233	178
2.39600	179
2.39967	182
2.40333	184
2.40700	187
2.41067	192
2.41433	193
2.41800	196
2.42167	199
2.42533	200
2.42900	200
2.43267	202
2.43633	205
2.44000	207
2.44367	224
2.44733	263
2.45100	304
2.45467	332
2.45833	336
2.46200	330
2.46567	326
2.46933	321
2.47300	313
2.47667	299
2.48033	285
2.48400	274
2.48767	265
2.49133	265
2.49500	272
2.49867	282
2.50233	292
2.50600	300
2.50967	306
2.51333	306
2.51700	302
2.52067	297
2.52433	292
2.52800	288
2.53167	287
2.53533	284
2.53900	283
2.54267	283
2.54633	285
2.55000	290
2.55367	296
2.55733	301
2.56100	306
2.56467	313
2.56833	317
2.57200	321
2.57567	327
2.57933	332
2.58300	338
2.58667	342
2.59033	346
2.59400	349
2.59767	347
2.60133	342
2.60500	333
2.60867	318
2.61233	299
2.61600	274
2.61967	244
2.62333	209
2.62700	169
2.63067	131
2.63433	94
2.63800	61
2.64167	33
2.64533	12
2.64900	-5
2.65267	-14
2.65633	-19
2.66000	-19
2.66367	-15
2.66733	-7
2.67100	1
2.67467	9
2.67833	18
2.68200	31
2.68567	43
2.68933	55
2.69300	63
2.69667	71
2.70033	77
2.70400	86
2.70767	98
2.71133	109
2.71500	116
2.71867	122
2.72233	129
2.72600	139
2.72967	147
2.73333	153
2.73700	158
2.74067	165
2.74433	172
2.74800	178
2.75167	184
2.75533	192
2.75900	199
2.76267	204
2.76633	209
2.77000	213
2.77367	216
2.77733	217
2.78100	217
2.78467	215
2.78833	214
2.79200	214
2.79567	215
2.79933	217
2.80300	220
2.80667	221
2.81033	221
2.81400	222
2.81767	224
2.82133	225
2.82500	228
2.82867	241
2.83233	278
2.83600	370
2.83967	568
2.84333	935
2.84700	1543
2.85067	2449
2.85433	3682
2.85800	5231
2.86167	7032
2.86533	8977
2.86900	10931
2.87267	12741
2.87633	14271
2.88000	15412
2.88367	16105
2.88733	16342
2.89100	16147
2.89467	15600
2.89833	14792
2.90200	13804
2.90567	12715
2.90933	11586
2.91300	10465
2.91667	9387
2.92033	8380
2.92400	7446
2.92767	6594
2.93133	5824
2.93500	5132
2.93867	4513
2.94233	3964
2.94600	3481
2.94967	3057
2.95333	2683
2.95700	2356
2.96067	2071
2.96433	1822
2.96800	1606
2.97167	1418
2.97533	1254
2.97900	1111
2.98267	989
2.98633	886
2.99000	796
2.99367	718
2.99733	648
3.00100	588
3.00467	537
3.00833	493
3.01200	456
3.01567	424
3.01933	395
3.02300	370
3.02667	349
3.03033	333
3.03400	320
3.03767	309
3.04133	299
3.04500	290
3.04867	283
3.05233	275
3.05600	268
3.05967	261
3.06333	256
3.06700	253
3.07067	249
3.07433	247
3.07800	244
3.08167	242
3.08533	241
3.08900	240
3.09267	238
3.09633	237
3.10000	237
3.10367	237
3.10733	236
3.11100	235
3.11467	234
3.11833	234
3.12200	231
3.12567	231
3.12933	231
3.13300	231
3.13667	229
3.14033	228
3.14400	227
3.14767	224
3.15133	223
3.15500	223
3.15867	223
3.16233	221
3.16600	219
3.16967	221
3.17333	222
3.17700	223
3.18067	225
3.18433	226
3.18800	223
3.19167	220
3.19533	218
3.19900	217
3.20267	217
3.20633	216
3.21000	214
3.21367	213
3.21733	210
3.22100	208
3.22467	203
3.22833	199
3.23200	195
3.23567	196
3.23933	197
3.24300	198
3.24667	198
3.25033	196
3.25400	194
3.25767	191
3.26133	189
3.26500	185
3.26867	181
3.27233	178
3.27600	178
3.27967	177
3.28333	176
3.28700	174
3.29067	172
3.29433	170
3.29800	169
3.30167	168
3.30533	167
3.30900	166
3.31267	162
3.31633	160
3.32000	154
3.32367	148
3.32733	145
3.33100	142
3.33467	137
3.33833	134
3.34200	133
3.34567	132
3.34933	130
3.35300	128
3.35667	128
3.36033	125
3.36400	123
3.36767	121
3.37133	118
3.37500	115
3.37867	111
3.38233	109
3.38600	108
3.38967	107
3.39333	107
3.39700	104
3.40067	103
3.40433	100
3.40800	97
3.41167	95
3.41533	94
3.41900	94
3.42267	94
3.42633	92
3.43000	90
3.43367	85
3.43733	83
3.44100	81
3.44467	82
3.44833	82
3.45200	80
3.45567	79
3.45933	77
3.46300	72
3.46667	72
3.47033	73
3.47400	74
3.47767	72
3.48133	71
3.48500	70
3.48867	67
3.49233	64
3.49600	63
3.49967	62
3.50333	61
3.50700	58
3.51067	56
3.51433	54
3.51800	54
3.52167	55
3.52533	54
3.52900	53
3.53267	53
3.53633	53
3.54000	51
3.54367	49
3.54733	46
3.55100	42
3.55467	39
3.55833	37
3.56200	38
3.56567	39
3.56933	42
3.57300	43
3.57667	41
3.58033	37
3.58400	36
3.58767	36
3.59133	37
3.59500	38
3.59867	38
3.60233	35
3.60600	33
3.60967	32
3.61333	33
3.61700	34
3.62067	33
3.62433	32
3.62800	31
3.63167	30
3.63533	30
3.63900	27
3.64267	26
3.64633	26
3.65000	25
3.65367	23
3.65733	23
3.66100	24
3.66467	25
3.66833	22
3.67200	20
3.67567	19
3.67933	20
3.68300	20
3.68667	19
3.69033	18
3.69400	17
3.69767	17
3.70133	17
3.70500	15
3.70867	15
3.71233	15
3.71600	14
3.71967	13
3.72333	12
3.72700	10
3.73067	11
3.73433	12
3.73800	13
3.74167	13
3.74533	12
3.74900	10
3.75267	7
3.75633	6
3.76000	8
3.76367	11
3.76733	11
3.77100	9
3.77467	10
3.77833	9
3.78200	7
3.78567	7
3.78933	7
3.79300	6
3.79667	5
3.80033	4
3.80400	5
3.80767	6
3.81133	6
3.81500	4
3.81867	3
3.82233	2
3.82600	2
3.82967	2
3.83333	2
3.83700	3
3.84067	4
3.84433	4
3.84800	4
3.85167	3
3.85533	3
3.85900	4
3.86267	4
3.86633	5
3.87000	3
3.87367	-0
3.87733	-2
3.88100	-3
3.88467	-4
3.88833	-5
3.89200	-5
3.89567	-4
3.89933	-2
3.90300	-2
3.90667	-2
3.91033	-3
3.91400	-4
3.91767	-4
3.92133	-3
3.92500	-3
3.92867	-3
3.93233	-2
3.93600	-2
3.93967	-0
3.94333	0
3.94700	1
3.95067	2
3.95433	0
3.95800	-1
3.96167	-3
3.96533	-4
3.96900	-2
3.97267	-2
3.97633	-4
3.98000	-4
3.98367	-4
3.98733	-4
3.99100	-6
3.99467	-8
3.99833	-8

[Status Trace (Column Oven Temperature)]
Interval(msec)	1000
# of Points	240
Start Time(min)	0.009
End Time(min)	3.992
Intensity Units	
Intensity Multiplier	1
R.Time (min)	Intensity
0.00865	35.00
0.02532	35.00
0.04198	35.00
0.05865	34.99
0.07532	35.00
0.09198	34.99
0.10865	35.00
0.12532	35.01
0.14198	35.01
0.15865	35.00
0.17532	35.00
0.19198	35.00
0.20865	34.99
0.22532	35.00
0.24198	34.99
0.25865	34.99
0.27532	34.99
0.29198	34.99
0.30865	34.98
0.32532	34.99
0.34198	35.00
0.35865	35.00
0.37532	34.99
0.39198	34.99
0.40865	34.99
0.42532	34.99
0.44198	34.98
0.45865	34.98
0.47532	34.98
0.49198	34.99
0.50865	34.98
0.52532	34.98
0.54198	34.98
0.55865	34.99
0.57532	34.98
0.59198	34.99
0.60865	35.00
0.62532	35.00
0.64198	35.00
0.65865	35.00
0.67532	35.00
0.69198	34.99
0.70865	34.99
0.72532	34.99
0.74198	34.99
0.75865	34.99
0.77532	35.00
0.79198	35.00
0.80865	35.01
0.82532	35.01
0.84198	35.00
0.85865	35.00
0.87532	35.00
0.89198	34.99
0.90865	34.99
0.92532	34.99
0.94198	35.00
0.95865	35.00
0.97532	35.00
0.99198	35.00
1.00865	35.00
1.02532	34.99
1.04198	35.00
1.05865	35.00
1.07532	34.99
1.09198	35.00
1.10865	34.99
1.12532	34.99
1.14198	34.99
1.15865	34.99
1.17532	34.98
1.19198	34.99
1.20865	34.99
1.22532	34.99
1.24198	35.00
1.25865	35.00
1.27532	34.99
1.29198	34.99
1.30865	35.00
1.32532	34.99
1.34198	34.99
1.35865	34.99
1.37532	34.99
1.39198	34.98
1.40865	34.98
1.42532	34.98
1.44198	34.98
1.45865	34.98
1.47532	34.98
1.49198	34.99
1.50865	35.00
1.52532	35.00
1.54198	35.00
1.55865	35.01
1.57532	35.01
1.59198	35.02
1.60865	35.08
1.62532	35.20
1.64198	35.39
1.65865	35.64
1.67532	35.97
1.69198	36.33
1.70865	36.69
1.72532	37.03
1.74198	37.37
1.75865	37.71
1.77532	38.01
1.79198	38.34
1.80865	38.68
1.82532	39.00
1.84198	39.34
1.85865	39.66
1.87532	40.01
1.89198	40.32
1.90865	40.64
1.92532	40.98
1.94198	41.31
1.95865	41.64
1.97532	41.95
1.99198	42.27
2.00865	42.60
2.02532	42.93
2.04198	43.25
2.05865	43.58
2.07532	43.89
2.09198	44.22
2.10865	44.55
2.12532	44.88
2.14198	45.22
2.15865	45.52
2.17532	45.85
2.19198	46.17
2.20865	46.50
2.22532	46.84
2.24198	47.19
2.25865	47.51
2.27532	47.83
2.29198	48.17
2.30865	48.49
2.32532	48.87
2.34198	49.17
2.35865	49.44
2.37532	49.64
2.39198	49.71
2.40865	49.70
2.42532	49.72
2.44198	49.71
2.45865	49.73
2.47532	49.74
2.49198	49.76
2.50865	49.78
2.52532	49.78
2.54198	49.79
2.55865	49.83
2.57532	49.82
2.59198	49.83
2.60865	49.84
2.62532	49.83
2.64198	49.84
2.65865	49.85
2.67532	49.85
2.69198	49.84
2.70865	49.84
2.72532	49.88
2.74198	49.88
2.75865	49.88
2.77532	49.87
2.79198	49.86
2.80865	49.85
2.82532	49.85
2.84198	49.87
2.85865	49.89
2.87532	49.91
2.89198	49.92
2.90865	49.94
2.92532	49.96
2.94198	49.97
2.95865	49.98
2.97532	49.98
2.99198	49.99
3.00865	50.00
3.02532	50.01
3.04198	50.01
3.05865	50.01
3.07532	50.02
3.09198	50.03
3.10865	50.03
3.12532	50.05
3.14198	50.06
3.15865	50.07
3.17532	50.08
3.19198	50.09
3.20865	50.11
3.22532	50.11
3.24198	50.10
3.25865	50.09
3.27532	50.09
3.29198	50.09
3.30865	50.09
3.32532	50.10
3.34198	50.11
3.35865	50.11
3.37532	50.09
3.39198	50.07
3.40865	50.06
3.42532	50.04
3.44198	50.04
3.45865	50.03
3.47532	50.02
3.49198	50.02
3.50865	50.03
3.52532	50.03
3.54198	50.03
3.55865	50.03
3.57532	50.03
3.59198	50.03
3.60865	50.03
3.62532	50.02
3.64198	50.03
3.65865	50.02
3.67532	50.03
3.69198	50.04
3.70865	50.04
3.72532	50.04
3.74198	50.05
3.75865	50.05
3.77532	50.06
3.79198	50.07
3.80865	50.07
3.82532	50.07
3.84198	50.07
3.85865	50.07
3.87532	50.06
3.89198	50.05
3.90865	50.05
3.92532	50.05
3.94198	50.05
3.95865	50.05
3.97532	50.05
3.99198	50.05

[Status Trace (Injection Unit Temperature)]
Interval(msec)	1000
# of Points	240
Start Time(min)	0.009
End Time(min)	3.992
Intensity Units	
Intensity Multiplier	1
R.Time (min)	Intensity
0.00865	99.99
0.02532	99.99
0.04198	99.99
0.05865	99.99
0.07532	99.99
0.09198	99.99
0.10865	99.99
0.12532	99.99
0.14198	99.99
0.15865	99.99
0.17532	99.99
0.19198	99.99
0.20865	99.99
0.22532	99.99
0.24198	99.99
0.25865	99.99
0.27532	99.99
0.29198	99.99
0.30865	99.99
0.32532	99.99
0.34198	99.99
0.35865	99.99
0.37532	99.99
0.39198	99.99
0.40865	99.99
0.42532	99.99
0.44198	99.99
0.45865	99.99
0.47532	99.99
0.49198	99.99
0.50865	99.99
0.52532	99.99
0.54198	99.99
0.55865	99.99
0.57532	99.99
0.59198	99.99
0.60865	99.99
0.62532	99.99
0.64198	100.00
0.65865	99.99
0.67532	99.99
0.69198	99.99
0.70865	99.99
0.72532	99.99
0.74198	99.99
0.75865	99.99
0.77532	99.99
0.79198	99.99
0.80865	99.99
0.82532	99.99
0.84198	99.99
0.85865	99.99
0.87532	100.00
0.89198	99.99
0.90865	100.00
0.92532	100.00
0.94198	99.99
0.95865	100.00
0.97532	100.00
0.99198	100.00
1.00865	99.99
1.02532	100.00
1.04198	100.00
1.05865	100.00
1.07532	100.00
1.09198	99.99
1.10865	100.00
1.12532	100.00
1.14198	100.00
1.15865	100.00
1.17532	100.00
1.19198	99.99
1.20865	100.00
1.22532	100.00
1.24198	100.00
1.25865	100.00
1.27532	99.99
1.29198	100.00
1.30865	100.00
1.32532	100.00
1.34198	100.00
1.35865	99.99
1.37532	99.99
1.39198	99.99
1.40865	99.99
1.42532	99.99
1.44198	100.00
1.45865	100.00
1.47532	100.00
1.49198	99.99
1.50865	99.99
1.52532	100.00
1.54198	99.99
1.55865	99.99
1.57532	99.99
1.59198	99.99
1.60865	99.99
1.62532	100.00
1.64198	99.99
1.65865	99.99
1.67532	100.00
1.69198	99.99
1.70865	99.99
1.72532	99.99
1.74198	100.00
1.75865	99.99
1.77532	99.99
1.79198	99.99
1.80865	99.99
1.82532	99.99
1.84198	99.99
1.85865	99.99
1.87532	99.99
1.89198	99.99
1.90865	99.99
1.92532	99.99
1.94198	99.99
1.95865	99.99
1.97532	99.99
1.99198	99.99
2.00865	99.99
2.02532	99.99
2.04198	99.99
2.05865	99.99
2.07532	99.98
2.09198	99.98
2.10865	99.99
2.12532	99.99
2.14198	99.99
2.15865	99.98
2.17532	99.98
2.19198	99.98
2.20865	99.98
2.22532	99.98
2.24198	99.98
2.25865	99.98
2.27532	99.98
2.29198	99.98
2.30865	99.98
2.32532	99.98
2.34198	99.98
2.35865	99.98
2.37532	99.98
2.39198	99.98
2.40865	99.98
2.42532	99.98
2.44198	99.98
2.45865	99.98
2.47532	99.98
2.49198	99.98
2.50865	99.98
2.52532	99.98
2.54198	99.98
2.55865	99.99
2.57532	99.99
2.59198	99.99
2.60865	99.99
2.62532	99.99
2.64198	99.99
2.65865	99.99
2.67532	99.99
2.69198	99.99
2.70865	99.99
2.72532	99.99
2.74198	100.00
2.75865	100.00
2.77532	100.00
2.79198	100.00
2.80865	100.00
2.82532	100.00
2.84198	100.00
2.85865	100.00
2.87532	100.01
2.89198	100.01
2.90865	100.01
2.92532	100.01
2.94198	100.01
2.95865	100.01
2.97532	100.01
2.99198	100.01
3.00865	100.01
3.02532	100.02
3.04198	100.01
3.05865	100.02
3.07532	100.02
3.09198	100.02
3.10865	100.02
3.12532	100.02
3.14198	100.02
3.15865	100.02
3.17532	100.02
3.19198	100.02
3.20865	100.02
3.22532	100.03
3.24198	100.03
3.25865	100.03
3.27532	100.03
3.29198	100.03
3.30865	100.03
3.32532	100.04
3.34198	100.04
3.35865	100.04
3.37532	100.04
3.39198	100.04
3.40865	100.04
3.42532	100.03
3.44198	100.04
3.45865	100.04
3.47532	100.04
3.49198	100.05
3.50865	100.05
3.52532	100.05
3.54198	100.05
3.55865	100.05
3.57532	100.05
3.59198	100.05
3.60865	100.05
3.62532	100.05
3.64198	100.06
3.65865	100.06
3.67532	100.06
3.69198	100.06
3.70865	100.05
3.72532	100.06
3.74198	100.05
3.75865	100.06
3.77532	100.06
3.79198	100.06
3.80865	100.06
3.82532	100.06
3.84198	100.06
3.85865	100.06
3.87532	100.06
3.89198	100.06
3.90865	100.06
3.92532	100.06
3.94198	100.06
3.95865	100.06
3.97532	100.05
3.99198	100.06

[Status Trace (Carrier Gas Pressure)]
Interval(msec)	1000
# of Points	240
Start Time(min)	0.009
End Time(min)	3.992
Intensity Units	
Intensity Multiplier	1
R.Time (min)	Intensity
0.00865	58.00
0.02532	55.30
0.04198	57.21
0.05865	59.24
0.07532	59.42
0.09198	58.05
0.10865	57.98
0.12532	58.01
0.14198	58.01
0.15865	58.00
0.17532	58.00
0.19198	58.00
0.20865	58.00
0.22532	58.00
0.24198	58.00
0.25865	58.00
0.27532	58.00
0.29198	58.00
0.30865	58.00
0.32532	58.00
0.34198	58.00
0.35865	58.00
0.37532	58.00
0.39198	58.00
0.40865	58.00
0.42532	58.00
0.44198	58.00
0.45865	58.00
0.47532	58.00
0.49198	58.00
0.50865	58.00
0.52532	58.00
0.54198	58.00
0.55865	58.00
0.57532	58.00
0.59198	58.00
0.60865	58.00
0.62532	58.00
0.64198	58.00
0.65865	58.00
0.67532	58.00
0.69198	58.00
0.70865	58.00
0.72532	58.00
0.74198	58.00
0.75865	58.00
0.77532	58.00
0.79198	58.00
0.80865	58.00
0.82532	58.00
0.84198	58.00
0.85865	58.00
0.87532	58.00
0.89198	58.00
0.90865	58.00
0.92532	58.00
0.94198	58.00
0.95865	58.00
0.97532	58.00
0.99198	58.00
1.00865	58.00
1.02532	58.00
1.04198	58.00
1.05865	58.00
1.07532	58.00
1.09198	58.00
1.10865	58.00
1.12532	58.00
1.14198	58.00
1.15865	58.00
1.17532	58.00
1.19198	58.00
1.20865	58.00
1.22532	58.00
1.24198	58.00
1.25865	58.00
1.27532	58.00
1.29198	58.00
1.30865	58.00
1.32532	58.00
1.34198	58.00
1.35865	58.00
1.37532	58.00
1.39198	58.00
1.40865	58.00
1.42532	58.00
1.44198	58.00
1.45865	58.00
1.47532	58.00
1.49198	58.00
1.50865	58.00
1.52532	58.00
1.54198	58.00
1.55865	58.00
1.57532	58.00
1.59198	58.00
1.60865	58.00
1.62532	58.00
1.64198	58.01
1.65865	58.00
1.67532	58.01
1.69198	58.00
1.70865	58.00
1.72532	58.00
1.74198	58.00
1.75865	58.00
1.77532	58.00
1.79198	58.00
1.80865	58.00
1.82532	58.00
1.84198	58.00
1.85865	58.00
1.87532	58.00
1.89198	58.00
1.90865	58.00
1.92532	58.00
1.94198	58.00
1.95865	58.00
1.97532	58.00
1.99198	58.00
2.00865	58.00
2.02532	58.00
2.04198	58.00
2.05865	58.00
2.07532	58.00
2.09198	58.00
2.10865	58.00
2.12532	58.00
2.14198	58.00
2.15865	58.00
2.17532	58.00
2.19198	58.00
2.20865	58.00
2.22532	58.00
2.24198	58.00
2.25865	58.00
2.27532	58.00
2.29198	58.00
2.30865	58.00
2.32532	58.00
2.34198	58.00
2.35865	58.00
2.37532	58.00
2.39198	57.99
2.40865	57.99
2.42532	58.00
2.44198	58.00
2.45865	58.00
2.47532	58.00
2.49198	58.00
2.50865	57.99
2.52532	57.98
2.54198	58.00
2.55865	58.00
2.57532	58.00
2.59198	58.00
2.60865	58.00
2.62532	58.00
2.64198	58.00
2.65865	58.00
2.67532	58.00
2.69198	58.00
2.70865	58.00
2.72532	58.00
2.74198	58.00
2.75865	58.00
2.77532	58.00
2.79198	58.00
2.80865	58.00
2.82532	58.00
2.84198	58.00
2.85865	58.00
2.87532	58.00
2.89198	58.00
2.90865	58.00
2.92532	58.00
2.94198	58.00
2.95865	58.00
2.97532	58.00
2.99198	58.00
3.00865	58.00
3.02532	58.00
3.04198	58.00
3.05865	58.00
3.07532	58.00
3.09198	58.00
3.10865	58.00
3.12532	58.00
3.14198	58.00
3.15865	58.00
3.17532	58.00
3.19198	58.00
3.20865	58.00
3.22532	58.00
3.24198	58.00
3.25865	58.00
3.27532	58.00
3.29198	58.00
3.30865	58.00
3.32532	58.00
3.34198	58.00
3.35865	58.00
3.37532	58.00
3.39198	58.00
3.40865	58.00
3.42532	58.00
3.44198	58.00
3.45865	58.00
3.47532	58.00
3.49198	58.00
3.50865	58.00
3.52532	58.00
3.54198	58.00
3.55865	58.00
3.57532	58.00
3.59198	58.00
3.60865	58.00
3.62532	58.00
3.64198	58.00
3.65865	58.00
3.67532	58.00
3.69198	58.00
3.70865	58.00
3.72532	58.00
3.74198	58.00
3.75865	58.00
3.77532	58.00
3.79198	58.00
3.80865	58.00
3.82532	58.00
3.84198	58.00
3.85865	58.00
3.87532	58.00
3.89198	58.00
3.90865	58.00
3.92532	58.00
3.94198	58.00
3.95865	58.00
3.97532	58.00
3.99198	58.00

[Status Trace (Carrier Gas Flow)]
Interval(msec)	1000
# of Points	240
Start Time(min)	0.009
End Time(min)	3.992
Intensity Units	
Intensity Multiplier	1
R.Time (min)	Intensity
0.00865	34.52
0.02532	34.54
0.04198	34.55
0.05865	34.55
0.07532	34.50
0.09198	34.52
0.10865	34.52
0.12532	34.52
0.14198	34.52
0.15865	34.52
0.17532	34.52
0.19198	34.52
0.20865	34.52
0.22532	34.52
0.24198	34.52
0.25865	34.52
0.27532	34.52
0.29198	34.52
0.30865	34.52
0.32532	34.52
0.34198	34.52
0.35865	34.52
0.37532	34.52
0.39198	34.52
0.40865	34.52
0.42532	34.52
0.44198	34.52
0.45865	34.52
0.47532	34.52
0.49198	34.52
0.50865	34.52
0.52532	34.52
0.54198	34.52
0.55865	34.52
0.57532	34.52
0.59198	34.52
0.60865	34.52
0.62532	34.52
0.64198	34.52
0.65865	34.52
0.67532	34.52
0.69198	34.52
0.70865	34.52
0.72532	34.52
0.74198	34.52
0.75865	34.52
0.77532	34.52
0.79198	34.52
0.80865	34.52
0.82532	34.52
0.84198	34.52
0.85865	34.52
0.87532	34.52
0.89198	34.52
0.90865	34.52
0.92532	34.52
0.94198	34.52
0.95865	34.52
0.97532	34.52
0.99198	34.52
1.00865	34.52
1.02532	34.52
1.04198	34.52
1.05865	34.52
1.07532	34.52
1.09198	34.52
1.10865	34.52
1.12532	34.52
1.14198	34.52
1.15865	34.52
1.17532	34.52
1.19198	34.52
1.20865	34.52
1.22532	34.52
1.24198	34.52
1.25865	34.52
1.27532	34.52
1.29198	34.52
1.30865	34.52
1.32532	34.52
1.34198	34.52
1.35865	34.52
1.37532	34.52
1.39198	34.52
1.40865	34.52
1.42532	34.52
1.44198	34.52
1.45865	34.52
1.47532	34.52
1.49198	34.52
1.50865	34.52
1.52532	34.52
1.54198	34.52
1.55865	34.52
1.57532	34.52
1.59198	34.52
1.60865	34.52
1.62532	34.52
1.64198	34.52
1.65865	34.52
1.67532	34.52
1.69198	34.52
1.70865	34.52
1.72532	34.52
1.74198	34.52
1.75865	34.52
1.77532	34.52
1.79198	34.51
1.80865	34.52
1.82532	34.52
1.84198	34.52
1.85865	34.52
1.87532	34.53
1.89198	34.52
1.90865	34.53
1.92532	34.52
1.94198	34.51
1.95865	34.52
1.97532	34.52
1.99198	34.52
2.00865	34.53
2.02532	34.52
2.04198	34.52
2.05865	34.52
2.07532	34.54
2.09198	34.52
2.10865	34.52
2.12532	34.52
2.14198	34.52
2.15865	34.52
2.17532	34.52
2.19198	34.52
2.20865	34.52
2.22532	34.52
2.24198	34.52
2.25865	34.52
2.27532	34.52
2.29198	34.52
2.30865	34.52
2.32532	34.52
2.34198	34.52
2.35865	34.52
2.37532	34.52
2.39198	34.52
2.40865	34.52
2.42532	34.53
2.44198	34.52
2.45865	34.52
2.47532	34.54
2.49198	34.52
2.50865	34.39
2.52532	34.52
2.54198	34.52
2.55865	34.52
2.57532	34.53
2.59198	34.52
2.60865	34.52
2.62532	34.52
2.64198	34.52
2.65865	34.52
2.67532	34.52
2.69198	34.52
2.70865	34.52
2.72532	34.52
2.74198	34.51
2.75865	34.52
2.77532	34.52
2.79198	34.52
2.80865	34.52
2.82532	34.52
2.84198	34.52
2.85865	34.52
2.87532	34.52
2.89198	34.52
2.90865	34.52
2.92532	34.52
2.94198	34.52
2.95865	34.52
2.97532	34.52
2.99198	34.52
3.00865	34.52
3.02532	34.52
3.04198	34.52
3.05865	34.52
3.07532	34.52
3.09198	34.52
3.10865	34.52
3.12532	34.52
3.14198	34.52
3.15865	34.52
3.17532	34.52
3.19198	34.52
3.20865	34.52
3.22532	34.52
3.24198	34.52
3.25865	34.52
3.27532	34.52
3.29198	34.52
3.30865	34.52
3.32532	34.52
3.34198	34.52
3.35865	34.52
3.37532	34.52
3.39198	34.52
3.40865	34.52
3.42532	34.52
3.44198	34.52
3.45865	34.52
3.47532	34.52
3.49198	34.52
3.50865	34.52
3.52532	34.52
3.54198	34.52
3.55865	34.52
3.57532	34.52
3.59198	34.52
3.60865	34.52
3.62532	34.52
3.64198	34.52
3.65865	34.52
3.67532	34.52
3.69198	34.52
3.70865	34.52
3.72532	34.52
3.74198	34.52
3.75865	34.52
3.77532	34.52
3.79198	34.52
3.80865	34.52
3.82532	34.52
3.84198	34.51
3.85865	34.52
3.87532	34.51
3.89198	34.52
3.90865	34.52
3.92532	34.52
3.94198	34.51
3.95865	34.52
3.97532	34.52
3.99198	34.52

[Status Trace (Column Flow)]
Interval(msec)	1000
# of Points	240
Start Time(min)	0.009
End Time(min)	3.992
Intensity Units	
Intensity Multiplier	1
R.Time (min)	Intensity
0.00865	5.46
0.02532	5.15
0.04198	5.37
0.05865	5.60
0.07532	5.62
0.09198	5.47
0.10865	5.46
0.12532	5.46
0.14198	5.46
0.15865	5.46
0.17532	5.46
0.19198	5.46
0.20865	5.46
0.22532	5.46
0.24198	5.46
0.25865	5.46
0.27532	5.46
0.29198	5.46
0.30865	5.46
0.32532	5.46
0.34198	5.46
0.35865	5.46
0.37532	5.46
0.39198	5.46
0.40865	5.46
0.42532	5.46
0.44198	5.46
0.45865	5.46
0.47532	5.46
0.49198	5.46
0.50865	5.46
0.52532	5.46
0.54198	5.46
0.55865	5.46
0.57532	5.46
0.59198	5.46
0.60865	5.46
0.62532	5.46
0.64198	5.46
0.65865	5.46
0.67532	5.46
0.69198	5.46
0.70865	5.46
0.72532	5.46
0.74198	5.46
0.75865	5.46
0.77532	5.46
0.79198	5.46
0.80865	5.46
0.82532	5.46
0.84198	5.46
0.85865	5.46
0.87532	5.46
0.89198	5.46
0.90865	5.46
0.92532	5.46
0.94198	5.46
0.95865	5.46
0.97532	5.46
0.99198	5.46
1.00865	5.46
1.02532	5.46
1.04198	5.46
1.05865	5.46
1.07532	5.46
1.09198	5.46
1.10865	5.46
1.12532	5.46
1.14198	5.46
1.15865	5.46
1.17532	5.46
1.19198	5.46
1.20865	5.46
1.22532	5.46
1.24198	5.46
1.25865	5.46
1.27532	5.46
1.29198	5.46
1.30865	5.46
1.32532	5.46
1.34198	5.46
1.35865	5.46
1.37532	5.46
1.39198	5.46
1.40865	5.46
1.42532	5.46
1.44198	5.46
1.45865	5.46
1.47532	5.46
1.49198	5.46
1.50865	5.46
1.52532	5.46
1.54198	5.46
1.55865	5.46
1.57532	5.46
1.59198	5.46
1.60865	5.46
1.62532	5.45
1.64198	5.45
1.65865	5.44
1.67532	5.43
1.69198	5.42
1.70865	5.41
1.72532	5.40
1.74198	5.39
1.75865	5.38
1.77532	5.37
1.79198	5.36
1.80865	5.35
1.82532	5.34
1.84198	5.33
1.85865	5.32
1.87532	5.31
1.89198	5.30
1.90865	5.29
1.92532	5.28
1.94198	5.27
1.95865	5.26
1.97532	5.25
1.99198	5.24
2.00865	5.23
2.02532	5.22
2.04198	5.21
2.05865	5.20
2.07532	5.19
2.09198	5.18
2.10865	5.17
2.12532	5.17
2.14198	5.15
2.15865	5.15
2.17532	5.14
2.19198	5.13
2.20865	5.12
2.22532	5.11
2.24198	5.10
2.25865	5.09
2.27532	5.08
2.29198	5.07
2.30865	5.06
2.32532	5.05
2.34198	5.04
2.35865	5.04
2.37532	5.03
2.39198	5.03
2.40865	5.03
2.42532	5.03
2.44198	5.03
2.45865	5.03
2.47532	5.03
2.49198	5.03
2.50865	5.03
2.52532	5.03
2.54198	5.03
2.55865	5.03
2.57532	5.03
2.59198	5.03
2.60865	5.03
2.62532	5.03
2.64198	5.03
2.65865	5.03
2.67532	5.03
2.69198	5.03
2.70865	5.03
2.72532	5.02
2.74198	5.02
2.75865	5.02
2.77532	5.02
2.79198	5.02
2.80865	5.03
2.82532	5.03
2.84198	5.02
2.85865	5.02
2.87532	5.02
2.89198	5.02
2.90865	5.02
2.92532	5.02
2.94198	5.02
2.95865	5.02
2.97532	5.02
2.99198	5.02
3.00865	5.02
3.02532	5.02
3.04198	5.02
3.05865	5.02
3.07532	5.02
3.09198	5.02
3.10865	5.02
3.12532	5.02
3.14198	5.02
3.15865	5.02
3.17532	5.02
3.19198	5.02
3.20865	5.02
3.22532	5.02
3.24198	5.02
3.25865	5.02
3.27532	5.02
3.29198	5.02
3.30865	5.02
3.32532	5.02
3.34198	5.02
3.35865	5.02
3.37532	5.02
3.39198	5.02
3.40865	5.02
3.42532	5.02
3.44198	5.02
3.45865	5.02
3.47532	5.02
3.49198	5.02
3.50865	5.02
3.52532	5.02
3.54198	5.02
3.55865	5.02
3.57532	5.02
3.59198	5.02
3.60865	5.02
3.62532	5.02
3.64198	5.02
3.65865	5.02
3.67532	5.02
3.69198	5.02
3.70865	5.02
3.72532	5.02
3.74198	5.02
3.75865	5.02
3.77532	5.02
3.79198	5.02
3.80865	5.02
3.82532	5.02
3.84198	5.02
3.85865	5.02
3.87532	5.02
3.89198	5.02
3.90865	5.02
3.92532	5.02
3.94198	5.02
3.95865	5.02
3.97532	5.02
3.99198	5.02

[Status Trace (Linear Velocity)]
Interval(msec)	1000
# of Points	240
Start Time(min)	0.009
End Time(min)	3.992
Intensity Units	
Intensity Multiplier	1
R.Time (min)	Intensity
0.00865	39.00
0.02532	37.23
0.04198	38.49
0.05865	39.81
0.07532	39.93
0.09198	39.04
0.10865	38.99
0.12532	39.01
0.14198	39.01
0.15865	39.00
0.17532	39.00
0.19198	39.00
0.20865	39.00
0.22532	39.00
0.24198	39.00
0.25865	39.00
0.27532	39.00
0.29198	39.00
0.30865	39.01
0.32532	39.00
0.34198	39.00
0.35865	39.00
0.37532	39.00
0.39198	39.00
0.40865	39.00
0.42532	39.00
0.44198	39.00
0.45865	39.00
0.47532	39.00
0.49198	39.00
0.50865	39.00
0.52532	39.00
0.54198	39.00
0.55865	39.00
0.57532	39.00
0.59198	39.00
0.60865	39.00
0.62532	39.00
0.64198	39.00
0.65865	39.00
0.67532	39.00
0.69198	39.00
0.70865	39.00
0.72532	39.00
0.74198	39.00
0.75865	39.00
0.77532	39.00
0.79198	39.00
0.80865	39.00
0.82532	39.00
0.84198	39.00
0.85865	39.00
0.87532	39.00
0.89198	39.00
0.90865	39.00
0.92532	39.00
0.94198	39.00
0.95865	39.00
0.97532	39.00
0.99198	39.00
1.00865	39.00
1.02532	39.00
1.04198	39.00
1.05865	39.00
1.07532	39.00
1.09198	39.00
1.10865	39.00
1.12532	39.00
1.14198	39.00
1.15865	39.00
1.17532	39.00
1.19198	39.00
1.20865	39.00
1.22532	39.00
1.24198	39.00
1.25865	39.00
1.27532	39.00
1.29198	39.00
1.30865	39.00
1.32532	39.00
1.34198	39.00
1.35865	39.00
1.37532	39.00
1.39198	39.00
1.40865	39.00
1.42532	39.00
1.44198	39.00
1.45865	39.00
1.47532	39.00
1.49198	39.00
1.50865	39.00
1.52532	39.00
1.54198	39.00
1.55865	39.00
1.57532	39.00
1.59198	39.00
1.60865	39.00
1.62532	38.99
1.64198	38.97
1.65865	38.95
1.67532	38.92
1.69198	38.88
1.70865	38.84
1.72532	38.81
1.74198	38.78
1.75865	38.75
1.77532	38.72
1.79198	38.68
1.80865	38.66
1.82532	38.62
1.84198	38.59
1.85865	38.56
1.87532	38.53
1.89198	38.50
1.90865	38.47
1.92532	38.44
1.94198	38.41
1.95865	38.38
1.97532	38.35
1.99198	38.32
2.00865	38.29
2.02532	38.26
2.04198	38.23
2.05865	38.20
2.07532	38.17
2.09198	38.14
2.10865	38.11
2.12532	38.08
2.14198	38.05
2.15865	38.02
2.17532	37.99
2.19198	37.96
2.20865	37.93
2.22532	37.90
2.24198	37.87
2.25865	37.84
2.27532	37.81
2.29198	37.78
2.30865	37.75
2.32532	37.72
2.34198	37.69
2.35865	37.67
2.37532	37.65
2.39198	37.64
2.40865	37.64
2.42532	37.64
2.44198	37.64
2.45865	37.64
2.47532	37.64
2.49198	37.64
2.50865	37.64
2.52532	37.63
2.54198	37.64
2.55865	37.64
2.57532	37.63
2.59198	37.63
2.60865	37.63
2.62532	37.63
2.64198	37.63
2.65865	37.63
2.67532	37.63
2.69198	37.63
2.70865	37.63
2.72532	37.63
2.74198	37.63
2.75865	37.63
2.77532	37.63
2.79198	37.63
2.80865	37.63
2.82532	37.63
2.84198	37.63
2.85865	37.63
2.87532	37.63
2.89198	37.62
2.90865	37.62
2.92532	37.62
2.94198	37.62
2.95865	37.62
2.97532	37.62
2.99198	37.62
3.00865	37.62
3.02532	37.62
3.04198	37.62
3.05865	37.62
3.07532	37.62
3.09198	37.62
3.10865	37.62
3.12532	37.61
3.14198	37.61
3.15865	37.61
3.17532	37.61
3.19198	37.61
3.20865	37.61
3.22532	37.61
3.24198	37.61
3.25865	37.61
3.27532	37.61
3.29198	37.61
3.30865	37.61
3.32532	37.61
3.34198	37.61
3.35865	37.61
3.37532	37.61
3.39198	37.61
3.40865	37.61
3.42532	37.61
3.44198	37.62
3.45865	37.62
3.47532	37.62
3.49198	37.62
3.50865	37.62
3.52532	37.62
3.54198	37.62
3.55865	37.62
3.57532	37.62
3.59198	37.62
3.60865	37.62
3.62532	37.62
3.64198	37.62
3.65865	37.62
3.67532	37.62
3.69198	37.62
3.70865	37.62
3.72532	37.61
3.74198	37.61
3.75865	37.61
3.77532	37.61
3.79198	37.61
3.80865	37.61
3.82532	37.61
3.84198	37.61
3.85865	37.61
3.87532	37.61
3.89198	37.61
3.90865	37.61
3.92532	37.61
3.94198	37.61
3.95865	37.61
3.97532	37.61
3.99198	37.61

