[Header]
Application Name	LabSolutions
Version	5.110
Data File Name	C:\Users\User\Desktop\GC Analyses\Jack\UIC Prairie Sampling\9.16.22\220916_010.gcd
Output Date	11/29/2022
Output Time	11:10:15 AM

[File Information]
Type	Data File
Generated	11/1/2022 1:10:55 PM
Generated by	System Administrator
Modified	11/1/2022 1:15:27 PM
Modified by	System Administrator

[Sample Information]
Operator Name	System Administrator
Acquired	11/1/2022 1:11:27 PM
Sample Type	1:Standard
Level	1
Sample Name	220916_Run
Sample ID	220916_Run
ISTD Amount1	1
ISTD Amount2	1
ISTD Amount3	1
ISTD Amount4	1
ISTD Amount5	1
ISTD Amount6	1
ISTD Amount7	1
ISTD Amount8	1
ISTD Amount9	1
ISTD Amount10	1
ISTD Amount11	1
ISTD Amount12	1
ISTD Amount13	1
ISTD Amount14	1
ISTD Amount15	1
ISTD Amount16	1
ISTD Amount17	1
ISTD Amount18	1
ISTD Amount19	1
ISTD Amount20	1
ISTD Amount21	1
ISTD Amount22	1
ISTD Amount23	1
ISTD Amount24	1
ISTD Amount25	1
ISTD Amount26	1
ISTD Amount27	1
ISTD Amount28	1
ISTD Amount29	1
ISTD Amount30	1
ISTD Amount31	1
ISTD Amount32	1
Sample Amount	1
Dilution Factor	1
Vial#	1
Injection Volume	1
Injection Count	1
Bar Code	

[Original Files]
Data File	C:\Users\User\Desktop\GC Analyses\Jack\UIC Prairie Sampling\9.16.22\220916_010.gcd
Method File	C:\LabSolutions\Data\GHG_4min_2022\ghg3_togas_w_acet_4 min_new_int.gcm
Batch File	
Report Format File	c:\LabSolutions\System\DEFAULT.lsr

[File Description]


[Configuration]
Instrument Name	C0B7VH3-Instrument1
Instrument #	1
Line #	1
# of Detectors	3
Detector ID	DET#1	DET#2	DET#3
Detector Name	FID	PTCD	ECD
# of Channels	1	1	1

[Peak Table(Ch1)]
# of Peaks	3
Peak#	R.Time	I.Time	F.Time	Area	Height	A/H	Conc.	Mark	ID#	Name	k'	Plate #	Plate Ht.	Tailing	Resolution	Sep.Factor	Area Ratio	Height Ratio	Conc. %	Norm Conc.
1	1.479	1.421	1.542	9160	4408	2.078	100.000	   	1	CO	0.000	9238	16.238	1.210	0.000	0.000	0	0	16.667	16.667
2	1.571	1.542	1.633	3855	2133	1.807	100.000	 V 	2	CH4	0.062	13222	11.345	1.294	1.578	0.000	0	0	16.667	16.667
3	2.000	1.956	2.293	1018642	535547	1.902	400.000	   	3	CO2	0.352	20445	7.337	1.323	7.758	5.680	0	0	66.667	66.667

[Peak Table(Ch2)]
# of Peaks	0

[Peak Table(Ch3)]
# of Peaks	3
Peak#	R.Time	I.Time	F.Time	Area	Height	A/H	Conc.	Mark	ID#	Name	k'	Plate #	Plate Ht.	Tailing	Resolution	Sep.Factor	Area Ratio	Height Ratio	Conc. %	Norm Conc.
1	2.473	2.180	2.627	2103	185	11.377	0.000	   			0.000	1767	84.897	0.787	0.000	0.000	0	0	0.000	0.000
2	2.796	2.638	2.825	5128	600	8.554	0.131	   	1	N2O	0.130	138	1090.655	0.000	0.543	0.000	0	0	13.076	13.076
3	2.880	2.825	3.951	34091	4587	7.432	0.869	 V 	1	N2O	0.165	11752	12.764	0.000	0.159	1.261	0	0	86.924	86.924

[Compound Results(Ch1)]
# of IDs	6
ID#	Name	R.Time	Area	Height	Conc.	Curve	3rd	2nd	1st	Constant	Area Ratio	Height Ratio	Conc. %	Norm Conc.
1	CO	1.479	9160	4408	100.000	Linear	0.000000e+00	0.000000e+00	9.160446e+001	0.000000e+00	0	0	16.667	16.667
2	CH4	1.571	3855	2133	100.000	Linear	0.000000e+00	0.000000e+00	3.854505e+001	0.000000e+00	0	0	16.667	16.667
3	CO2	2.000	1018642	535547	400.000	Linear	0.000000e+00	0.000000e+00	2.546606e+003	0.000000e+00	0	0	66.667	66.667
4	Ethylene	0.000	0	0	0.000	Linear	0.000000e+00	0.000000e+00	0.000000e+00	0.000000e+00	0	0	0.000	0.000
5	Acetylene	0.000	0	0	0.000	Linear	0.000000e+00	0.000000e+00	0.000000e+00	0.000000e+00	0	0	0.000	0.000
6	Ethane	0.000	0	0	0.000	Linear	0.000000e+00	0.000000e+00	0.000000e+00	0.000000e+00	0	0	0.000	0.000

[Compound Results(Ch2)]
# of IDs	5
ID#	Name	R.Time	Area	Height	Conc.	Curve	3rd	2nd	1st	Constant	Area Ratio	Height Ratio	Conc. %	Norm Conc.
1	Hydrogen	0.000	0	0	0.000	Linear	0.000000e+00	0.000000e+00	0.000000e+00	0.000000e+00	0	0	0.000	0.000
2	Oxygen	0.000	0	0	0.000	Linear	0.000000e+00	0.000000e+00	0.000000e+00	0.000000e+00	0	0	0.000	0.000
3	Nitrogen	0.000	0	0	0.000	Linear	0.000000e+00	0.000000e+00	0.000000e+00	0.000000e+00	0	0	0.000	0.000
4	Methane	0.000	0	0	0.000	Linear	0.000000e+00	0.000000e+00	0.000000e+00	0.000000e+00	0	0	0.000	0.000
5	Carbon Monoxide	0.000	0	0	0.000	Linear	0.000000e+00	0.000000e+00	0.000000e+00	0.000000e+00	0	0	0.000	0.000

[Compound Results(Ch3)]
# of IDs	2
ID#	Name	R.Time	Area	Height	Conc.	Curve	3rd	2nd	1st	Constant	Area Ratio	Height Ratio	Conc. %	Norm Conc.
1	N2O	2.880	39219	5187	1.000	Linear	0.000000e+00	0.000000e+00	3.921939e+004	0.000000e+00	0	0	100.000	100.000
2	SF6	0.000	0	0	0.000	Linear	0.000000e+00	0.000000e+00	0.000000e+00	0.000000e+00	0	0	0.000	0.000

[Group Results(Ch1)]
# of Groups	0

[Group Results(Ch2)]
# of Groups	0

[Group Results(Ch3)]
# of Groups	0

[Chromatogram (Ch1)]
Interval(msec)	220
# of Points	1091
Start Time(min)	0.002
End Time(min)	3.998
R.Time (min)	Intensity
0.00167	6
0.00533	18
0.00900	26
0.01267	26
0.01633	20
0.02000	13
0.02367	7
0.02733	2
0.03100	-0
0.03467	-2
0.03833	-1
0.04200	2
0.04567	3
0.04933	3
0.05300	6
0.05667	11
0.06033	15
0.06400	15
0.06767	14
0.07133	13
0.07500	15
0.07867	18
0.08233	20
0.08600	22
0.08967	23
0.09333	21
0.09700	18
0.10067	11
0.10433	4
0.10800	-1
0.11167	-2
0.11533	-1
0.11900	1
0.12267	2
0.12633	2
0.13000	-2
0.13367	-7
0.13733	-12
0.14100	-16
0.14467	-18
0.14833	-18
0.15200	-15
0.15567	-8
0.15933	-0
0.16300	5
0.16667	11
0.17033	16
0.17400	19
0.17767	20
0.18133	19
0.18500	12
0.18867	1
0.19233	-8
0.19600	-16
0.19967	-20
0.20333	-22
0.20700	-21
0.21067	-19
0.21433	-17
0.21800	-11
0.22167	-2
0.22533	7
0.22900	17
0.23267	23
0.23633	22
0.24000	15
0.24367	7
0.24733	-0
0.25100	-8
0.25467	-12
0.25833	-11
0.26200	-8
0.26567	-7
0.26933	-8
0.27300	-10
0.27667	-13
0.28033	-17
0.28400	-20
0.28767	-23
0.29133	-24
0.29500	-24
0.29867	-21
0.30233	-16
0.30600	-10
0.30967	-4
0.31333	-2
0.31700	-4
0.32067	-8
0.32433	-11
0.32800	-13
0.33167	-15
0.33533	-19
0.33900	-26
0.34267	-32
0.34633	-38
0.35000	-40
0.35367	-39
0.35733	-38
0.36100	-36
0.36467	-32
0.36833	-27
0.37200	-20
0.37567	-11
0.37933	-1
0.38300	6
0.38667	9
0.39033	10
0.39400	7
0.39767	1
0.40133	-5
0.40500	-11
0.40867	-17
0.41233	-20
0.41600	-21
0.41967	-23
0.42333	-25
0.42700	-24
0.43067	-23
0.43433	-24
0.43800	-27
0.44167	-31
0.44533	-33
0.44900	-32
0.45267	-26
0.45633	-18
0.46000	-12
0.46367	-13
0.46733	-18
0.47100	-21
0.47467	-21
0.47833	-17
0.48200	-13
0.48567	-9
0.48933	-8
0.49300	-10
0.49667	-12
0.50033	-16
0.50400	-22
0.50767	-28
0.51133	-32
0.51500	-35
0.51867	-37
0.52233	-39
0.52600	-37
0.52967	-33
0.53333	-27
0.53700	-22
0.54067	-21
0.54433	-21
0.54800	-23
0.55167	-26
0.55533	-31
0.55900	-37
0.56267	-44
0.56633	-49
0.57000	-47
0.57367	-40
0.57733	-32
0.58100	-29
0.58467	-28
0.58833	-30
0.59200	-34
0.59567	-37
0.59933	-39
0.60300	-38
0.60667	-34
0.61033	-27
0.61400	-26
0.61767	-26
0.62133	-24
0.62500	-25
0.62867	-27
0.63233	-30
0.63600	-33
0.63967	-34
0.64333	-31
0.64700	-27
0.65067	-22
0.65433	-20
0.65800	-19
0.66167	-18
0.66533	-20
0.66900	-25
0.67267	-31
0.67633	-35
0.68000	-37
0.68367	-39
0.68733	-40
0.69100	-40
0.69467	-40
0.69833	-40
0.70200	-38
0.70567	-35
0.70933	-34
0.71300	-35
0.71667	-37
0.72033	-37
0.72400	-39
0.72767	-42
0.73133	-45
0.73500	-46
0.73867	-43
0.74233	-41
0.74600	-43
0.74967	-43
0.75333	-43
0.75700	-46
0.76067	-49
0.76433	-50
0.76800	-48
0.77167	-44
0.77533	-38
0.77900	-37
0.78267	-39
0.78633	-43
0.79000	-48
0.79367	-51
0.79733	-52
0.80100	-51
0.80467	-53
0.80833	-57
0.81200	-58
0.81567	-59
0.81933	-57
0.82300	-52
0.82667	-47
0.83033	-45
0.83400	-44
0.83767	-46
0.84133	-48
0.84500	-46
0.84867	-39
0.85233	-27
0.85600	-16
0.85967	-12
0.86333	-17
0.86700	-26
0.87067	-33
0.87433	-39
0.87800	-42
0.88167	-42
0.88533	-40
0.88900	-33
0.89267	-25
0.89633	-24
0.90000	-32
0.90367	-39
0.90733	-46
0.91100	-52
0.91467	-56
0.91833	-59
0.92200	-60
0.92567	-59
0.92933	-61
0.93300	-64
0.93667	-69
0.94033	-73
0.94400	-73
0.94767	-72
0.95133	-71
0.95500	-66
0.95867	-63
0.96233	-61
0.96600	-60
0.96967	-57
0.97333	-56
0.97700	-58
0.98067	-63
0.98433	-67
0.98800	-66
0.99167	-59
0.99533	-50
0.99900	-44
1.00267	-39
1.00633	-33
1.01000	-30
1.01367	-29
1.01733	-28
1.02100	-26
1.02467	-26
1.02833	-29
1.03200	-32
1.03567	-41
1.03933	-53
1.04300	-67
1.04667	-78
1.05033	-83
1.05400	-83
1.05767	-79
1.06133	-73
1.06500	-66
1.06867	-62
1.07233	-56
1.07600	-51
1.07967	-50
1.08333	-54
1.08700	-62
1.09067	-71
1.09433	-76
1.09800	-80
1.10167	-83
1.10533	-82
1.10900	-77
1.11267	-67
1.11633	-57
1.12000	-55
1.12367	-58
1.12733	-59
1.13100	-58
1.13467	-58
1.13833	-57
1.14200	-57
1.14567	-59
1.14933	-62
1.15300	-67
1.15667	-71
1.16033	-72
1.16400	-69
1.16767	-65
1.17133	-62
1.17500	-58
1.17867	-54
1.18233	-51
1.18600	-50
1.18967	-52
1.19333	-58
1.19700	-64
1.20067	-69
1.20433	-72
1.20800	-68
1.21167	-61
1.21533	-50
1.21900	-44
1.22267	-46
1.22633	-53
1.23000	-62
1.23367	-69
1.23733	-74
1.24100	-75
1.24467	-73
1.24833	-71
1.25200	-72
1.25567	-70
1.25933	-63
1.26300	-54
1.26667	-51
1.27033	-52
1.27400	-56
1.27767	-61
1.28133	-64
1.28500	-66
1.28867	-67
1.29233	-69
1.29600	-70
1.29967	-68
1.30333	-66
1.30700	-67
1.31067	-67
1.31433	-65
1.31800	-63
1.32167	-62
1.32533	-61
1.32900	-63
1.33267	-67
1.33633	-67
1.34000	-63
1.34367	-57
1.34733	-54
1.35100	-56
1.35467	-59
1.35833	-62
1.36200	-65
1.36567	-68
1.36933	-70
1.37300	-71
1.37667	-70
1.38033	-70
1.38400	-74
1.38767	-80
1.39133	-85
1.39500	-86
1.39867	-86
1.40233	-87
1.40600	-90
1.40967	-93
1.41333	-97
1.41700	-99
1.42067	-97
1.42433	-91
1.42800	-85
1.43167	-78
1.43533	-71
1.43900	-66
1.44267	-59
1.44633	-17
1.45000	156
1.45367	500
1.45733	937
1.46100	1458
1.46467	2106
1.46833	2851
1.47200	3563
1.47567	4090
1.47933	4306
1.48300	4162
1.48667	3708
1.49033	3071
1.49400	2396
1.49767	1785
1.50133	1289
1.50500	908
1.50867	624
1.51233	416
1.51600	269
1.51967	164
1.52333	88
1.52700	36
1.53067	2
1.53433	-23
1.53800	-43
1.54167	-56
1.54533	-44
1.54900	42
1.55267	265
1.55633	640
1.56000	1095
1.56367	1530
1.56733	1861
1.57100	2024
1.57467	1980
1.57833	1748
1.58200	1407
1.58567	1046
1.58933	725
1.59300	470
1.59667	284
1.60033	154
1.60400	65
1.60767	6
1.61133	-31
1.61500	-55
1.61867	-72
1.62233	-85
1.62600	-97
1.62967	-106
1.63333	-114
1.63700	-116
1.64067	-114
1.64433	-112
1.64800	-109
1.65167	-107
1.65533	-105
1.65900	-100
1.66267	-96
1.66633	-98
1.67000	-105
1.67367	-114
1.67733	-119
1.68100	-117
1.68467	-110
1.68833	-103
1.69200	-98
1.69567	-95
1.69933	-94
1.70300	-93
1.70667	-95
1.71033	-99
1.71400	-101
1.71767	-99
1.72133	-99
1.72500	-99
1.72867	-98
1.73233	-97
1.73600	-93
1.73967	-87
1.74333	-84
1.74700	-84
1.75067	-85
1.75433	-84
1.75800	-80
1.76167	-78
1.76533	-80
1.76900	-85
1.77267	-92
1.77633	-98
1.78000	-104
1.78367	-107
1.78733	-105
1.79100	-101
1.79467	-94
1.79833	-86
1.80200	-81
1.80567	-75
1.80933	-69
1.81300	-68
1.81667	-70
1.82033	-71
1.82400	-73
1.82767	-75
1.83133	-80
1.83500	-87
1.83867	-96
1.84233	-106
1.84600	-112
1.84967	-110
1.85333	-104
1.85700	-101
1.86067	-100
1.86433	-96
1.86800	-86
1.87167	-74
1.87533	-69
1.87900	-72
1.88267	-80
1.88633	-90
1.89000	-96
1.89367	-99
1.89733	-97
1.90100	-91
1.90467	-85
1.90833	-81
1.91200	-78
1.91567	-73
1.91933	-67
1.92300	-64
1.92667	-64
1.93033	-65
1.93400	-66
1.93767	-68
1.94133	-73
1.94500	-79
1.94867	-83
1.95233	-84
1.95600	-76
1.95967	-42
1.96333	134
1.96700	1021
1.97067	4707
1.97433	16503
1.97800	45726
1.98167	102611
1.98533	190628
1.98900	299978
1.99267	409325
1.99633	494042
2.00000	535505
2.00367	527216
2.00733	476228
2.01100	398796
2.01467	313195
2.01833	233599
2.02200	167599
2.02567	117075
2.02933	80497
2.03300	55006
2.03667	37679
2.04033	26070
2.04400	18336
2.04767	13181
2.05133	9725
2.05500	7370
2.05867	5735
2.06233	4577
2.06600	3743
2.06967	3127
2.07333	2665
2.07700	2308
2.08067	2025
2.08433	1796
2.08800	1609
2.09167	1457
2.09533	1327
2.09900	1215
2.10267	1117
2.10633	1031
2.11000	954
2.11367	887
2.11733	829
2.12100	779
2.12467	734
2.12833	694
2.13200	662
2.13567	638
2.13933	616
2.14300	592
2.14667	567
2.15033	536
2.15400	503
2.15767	473
2.16133	449
2.16500	431
2.16867	417
2.17233	403
2.17600	391
2.17967	379
2.18333	367
2.18700	357
2.19067	348
2.19433	339
2.19800	329
2.20167	317
2.20533	305
2.20900	295
2.21267	285
2.21633	274
2.22000	267
2.22367	262
2.22733	258
2.23100	254
2.23467	249
2.23833	241
2.24200	235
2.24567	232
2.24933	229
2.25300	226
2.25667	219
2.26033	209
2.26400	199
2.26767	193
2.27133	193
2.27500	196
2.27867	198
2.28233	197
2.28600	193
2.28967	188
2.29333	182
2.29700	178
2.30067	176
2.30433	176
2.30800	179
2.31167	184
2.31533	185
2.31900	184
2.32267	179
2.32633	175
2.33000	168
2.33367	160
2.33733	156
2.34100	155
2.34467	158
2.34833	163
2.35200	167
2.35567	167
2.35933	165
2.36300	163
2.36667	161
2.37033	158
2.37400	156
2.37767	157
2.38133	163
2.38500	167
2.38867	167
2.39233	165
2.39600	162
2.39967	160
2.40333	160
2.40700	158
2.41067	153
2.41433	143
2.41800	132
2.42167	123
2.42533	119
2.42900	120
2.43267	124
2.43633	132
2.44000	140
2.44367	147
2.44733	149
2.45100	148
2.45467	145
2.45833	143
2.46200	142
2.46567	142
2.46933	144
2.47300	144
2.47667	144
2.48033	147
2.48400	149
2.48767	148
2.49133	141
2.49500	132
2.49867	129
2.50233	129
2.50600	129
2.50967	127
2.51333	124
2.51700	121
2.52067	122
2.52433	124
2.52800	127
2.53167	131
2.53533	136
2.53900	141
2.54267	145
2.54633	145
2.55000	143
2.55367	138
2.55733	132
2.56100	128
2.56467	129
2.56833	132
2.57200	134
2.57567	133
2.57933	130
2.58300	126
2.58667	124
2.59033	128
2.59400	134
2.59767	138
2.60133	134
2.60500	129
2.60867	128
2.61233	128
2.61600	129
2.61967	126
2.62333	124
2.62700	121
2.63067	119
2.63433	119
2.63800	122
2.64167	124
2.64533	123
2.64900	122
2.65267	123
2.65633	127
2.66000	130
2.66367	128
2.66733	127
2.67100	130
2.67467	136
2.67833	141
2.68200	145
2.68567	150
2.68933	155
2.69300	159
2.69667	158
2.70033	154
2.70400	148
2.70767	139
2.71133	132
2.71500	126
2.71867	123
2.72233	122
2.72600	124
2.72967	124
2.73333	127
2.73700	132
2.74067	140
2.74433	149
2.74800	156
2.75167	157
2.75533	153
2.75900	148
2.76267	145
2.76633	143
2.77000	142
2.77367	144
2.77733	147
2.78100	148
2.78467	148
2.78833	148
2.79200	151
2.79567	154
2.79933	160
2.80300	164
2.80667	169
2.81033	173
2.81400	178
2.81767	179
2.82133	176
2.82500	173
2.82867	169
2.83233	163
2.83600	155
2.83967	146
2.84333	140
2.84700	139
2.85067	141
2.85433	145
2.85800	149
2.86167	153
2.86533	156
2.86900	156
2.87267	154
2.87633	151
2.88000	150
2.88367	150
2.88733	148
2.89100	148
2.89467	149
2.89833	151
2.90200	155
2.90567	158
2.90933	162
2.91300	166
2.91667	173
2.92033	178
2.92400	179
2.92767	177
2.93133	174
2.93500	171
2.93867	167
2.94233	159
2.94600	151
2.94967	143
2.95333	135
2.95700	130
2.96067	131
2.96433	139
2.96800	147
2.97167	149
2.97533	149
2.97900	146
2.98267	144
2.98633	145
2.99000	149
2.99367	155
2.99733	159
3.00100	160
3.00467	157
3.00833	155
3.01200	157
3.01567	159
3.01933	160
3.02300	161
3.02667	163
3.03033	166
3.03400	165
3.03767	163
3.04133	161
3.04500	158
3.04867	155
3.05233	154
3.05600	154
3.05967	157
3.06333	161
3.06700	167
3.07067	169
3.07433	169
3.07800	167
3.08167	164
3.08533	164
3.08900	163
3.09267	162
3.09633	164
3.10000	164
3.10367	163
3.10733	161
3.11100	158
3.11467	156
3.11833	156
3.12200	158
3.12567	160
3.12933	160
3.13300	163
3.13667	165
3.14033	163
3.14400	160
3.14767	159
3.15133	160
3.15500	164
3.15867	169
3.16233	174
3.16600	174
3.16967	172
3.17333	173
3.17700	176
3.18067	174
3.18433	167
3.18800	158
3.19167	156
3.19533	155
3.19900	152
3.20267	149
3.20633	143
3.21000	138
3.21367	139
3.21733	145
3.22100	153
3.22467	159
3.22833	165
3.23200	167
3.23567	166
3.23933	163
3.24300	157
3.24667	153
3.25033	150
3.25400	149
3.25767	153
3.26133	160
3.26500	166
3.26867	170
3.27233	170
3.27600	166
3.27967	161
3.28333	153
3.28700	149
3.29067	152
3.29433	159
3.29800	164
3.30167	166
3.30533	164
3.30900	158
3.31267	152
3.31633	145
3.32000	138
3.32367	131
3.32733	129
3.33100	133
3.33467	146
3.33833	161
3.34200	169
3.34567	166
3.34933	157
3.35300	146
3.35667	139
3.36033	137
3.36400	137
3.36767	134
3.37133	134
3.37500	137
3.37867	139
3.38233	140
3.38600	143
3.38967	144
3.39333	140
3.39700	132
3.40067	123
3.40433	119
3.40800	125
3.41167	131
3.41533	136
3.41900	140
3.42267	143
3.42633	143
3.43000	141
3.43367	140
3.43733	139
3.44100	142
3.44467	147
3.44833	151
3.45200	151
3.45567	150
3.45933	149
3.46300	144
3.46667	136
3.47033	131
3.47400	128
3.47767	126
3.48133	125
3.48500	124
3.48867	122
3.49233	121
3.49600	119
3.49967	114
3.50333	110
3.50700	109
3.51067	113
3.51433	122
3.51800	133
3.52167	142
3.52533	146
3.52900	144
3.53267	139
3.53633	135
3.54000	133
3.54367	134
3.54733	139
3.55100	142
3.55467	141
3.55833	140
3.56200	140
3.56567	139
3.56933	140
3.57300	144
3.57667	148
3.58033	148
3.58400	149
3.58767	151
3.59133	149
3.59500	141
3.59867	136
3.60233	134
3.60600	134
3.60967	136
3.61333	137
3.61700	138
3.62067	138
3.62433	139
3.62800	139
3.63167	139
3.63533	138
3.63900	140
3.64267	141
3.64633	138
3.65000	133
3.65367	132
3.65733	135
3.66100	139
3.66467	142
3.66833	145
3.67200	145
3.67567	143
3.67933	142
3.68300	142
3.68667	141
3.69033	140
3.69400	136
3.69767	131
3.70133	128
3.70500	127
3.70867	127
3.71233	129
3.71600	130
3.71967	132
3.72333	133
3.72700	132
3.73067	132
3.73433	132
3.73800	137
3.74167	140
3.74533	142
3.74900	143
3.75267	142
3.75633	140
3.76000	137
3.76367	133
3.76733	129
3.77100	124
3.77467	120
3.77833	119
3.78200	121
3.78567	123
3.78933	127
3.79300	129
3.79667	131
3.80033	131
3.80400	131
3.80767	132
3.81133	133
3.81500	136
3.81867	140
3.82233	139
3.82600	134
3.82967	128
3.83333	127
3.83700	131
3.84067	138
3.84433	143
3.84800	143
3.85167	137
3.85533	129
3.85900	123
3.86267	122
3.86633	121
3.87000	121
3.87367	120
3.87733	116
3.88100	111
3.88467	107
3.88833	106
3.89200	108
3.89567	112
3.89933	117
3.90300	118
3.90667	116
3.91033	115
3.91400	119
3.91767	125
3.92133	126
3.92500	122
3.92867	115
3.93233	109
3.93600	106
3.93967	109
3.94333	116
3.94700	121
3.95067	123
3.95433	123
3.95800	120
3.96167	118
3.96533	114
3.96900	109
3.97267	106
3.97633	107
3.98000	109
3.98367	111
3.98733	112
3.99100	113
3.99467	113
3.99833	111

[Chromatogram (Ch2)]
Interval(msec)	220
# of Points	1091
Start Time(min)	0.002
End Time(min)	3.998
R.Time (min)	Intensity
0.00167	-2
0.00533	-2
0.00900	-3
0.01267	-3
0.01633	-3
0.02000	-4
0.02367	-4
0.02733	-4
0.03100	-3
0.03467	-3
0.03833	-3
0.04200	-2
0.04567	-2
0.04933	-2
0.05300	-1
0.05667	-1
0.06033	-1
0.06400	-1
0.06767	-1
0.07133	-0
0.07500	0
0.07867	1
0.08233	1
0.08600	1
0.08967	2
0.09333	2
0.09700	2
0.10067	3
0.10433	3
0.10800	3
0.11167	3
0.11533	3
0.11900	3
0.12267	3
0.12633	3
0.13000	3
0.13367	2
0.13733	2
0.14100	2
0.14467	2
0.14833	2
0.15200	2
0.15567	2
0.15933	2
0.16300	1
0.16667	1
0.17033	1
0.17400	1
0.17767	1
0.18133	1
0.18500	2
0.18867	2
0.19233	2
0.19600	2
0.19967	2
0.20333	3
0.20700	3
0.21067	3
0.21433	3
0.21800	3
0.22167	3
0.22533	2
0.22900	2
0.23267	2
0.23633	2
0.24000	2
0.24367	2
0.24733	1
0.25100	1
0.25467	1
0.25833	2
0.26200	2
0.26567	2
0.26933	2
0.27300	2
0.27667	2
0.28033	1
0.28400	1
0.28767	1
0.29133	1
0.29500	1
0.29867	1
0.30233	1
0.30600	1
0.30967	1
0.31333	1
0.31700	1
0.32067	1
0.32433	1
0.32800	1
0.33167	1
0.33533	1
0.33900	1
0.34267	1
0.34633	1
0.35000	1
0.35367	1
0.35733	1
0.36100	1
0.36467	1
0.36833	1
0.37200	1
0.37567	1
0.37933	1
0.38300	1
0.38667	1
0.39033	1
0.39400	0
0.39767	0
0.40133	0
0.40500	0
0.40867	0
0.41233	0
0.41600	0
0.41967	1
0.42333	1
0.42700	1
0.43067	1
0.43433	0
0.43800	0
0.44167	0
0.44533	0
0.44900	0
0.45267	0
0.45633	0
0.46000	0
0.46367	0
0.46733	-0
0.47100	-0
0.47467	-0
0.47833	-0
0.48200	-0
0.48567	-0
0.48933	-0
0.49300	-1
0.49667	-1
0.50033	-1
0.50400	-1
0.50767	-1
0.51133	-1
0.51500	-1
0.51867	-1
0.52233	-1
0.52600	-0
0.52967	-0
0.53333	-0
0.53700	-0
0.54067	-1
0.54433	-1
0.54800	-1
0.55167	-1
0.55533	-1
0.55900	-1
0.56267	-1
0.56633	-1
0.57000	-1
0.57367	-1
0.57733	-1
0.58100	-1
0.58467	-1
0.58833	-1
0.59200	-1
0.59567	-1
0.59933	-1
0.60300	-1
0.60667	-1
0.61033	-0
0.61400	0
0.61767	0
0.62133	1
0.62500	1
0.62867	1
0.63233	1
0.63600	2
0.63967	2
0.64333	2
0.64700	2
0.65067	2
0.65433	3
0.65800	3
0.66167	3
0.66533	3
0.66900	3
0.67267	3
0.67633	3
0.68000	3
0.68367	2
0.68733	2
0.69100	2
0.69467	2
0.69833	2
0.70200	1
0.70567	1
0.70933	1
0.71300	1
0.71667	1
0.72033	1
0.72400	0
0.72767	0
0.73133	0
0.73500	0
0.73867	0
0.74233	0
0.74600	0
0.74967	-0
0.75333	-0
0.75700	-1
0.76067	-1
0.76433	-1
0.76800	-1
0.77167	-1
0.77533	-1
0.77900	-1
0.78267	-0
0.78633	-0
0.79000	0
0.79367	0
0.79733	0
0.80100	0
0.80467	0
0.80833	0
0.81200	-0
0.81567	-0
0.81933	-0
0.82300	-0
0.82667	-0
0.83033	-0
0.83400	-1
0.83767	-1
0.84133	-1
0.84500	-0
0.84867	-0
0.85233	0
0.85600	-0
0.85967	0
0.86333	0
0.86700	1
0.87067	1
0.87433	1
0.87800	2
0.88167	2
0.88533	2
0.88900	2
0.89267	1
0.89633	1
0.90000	1
0.90367	1
0.90733	1
0.91100	1
0.91467	1
0.91833	1
0.92200	1
0.92567	0
0.92933	0
0.93300	-0
0.93667	-0
0.94033	-1
0.94400	-1
0.94767	-1
0.95133	-1
0.95500	-1
0.95867	-1
0.96233	-1
0.96600	-1
0.96967	-1
0.97333	-1
0.97700	-1
0.98067	-1
0.98433	-1
0.98800	-1
0.99167	-1
0.99533	-1
0.99900	-1
1.00267	-1
1.00633	-1
1.01000	-0
1.01367	-0
1.01733	-0
1.02100	-1
1.02467	-0
1.02833	-0
1.03200	-0
1.03567	-0
1.03933	-0
1.04300	-0
1.04667	0
1.05033	0
1.05400	1
1.05767	1
1.06133	1
1.06500	1
1.06867	0
1.07233	0
1.07600	-0
1.07967	-0
1.08333	-0
1.08700	-0
1.09067	-1
1.09433	-1
1.09800	-0
1.10167	-0
1.10533	-0
1.10900	-0
1.11267	-0
1.11633	-0
1.12000	-0
1.12367	-0
1.12733	-0
1.13100	-0
1.13467	-1
1.13833	-1
1.14200	-1
1.14567	-1
1.14933	-1
1.15300	-1
1.15667	-1
1.16033	-1
1.16400	-1
1.16767	-1
1.17133	-1
1.17500	-1
1.17867	-1
1.18233	-1
1.18600	-1
1.18967	-1
1.19333	-1
1.19700	-2
1.20067	-2
1.20433	-2
1.20800	-2
1.21167	-2
1.21533	-2
1.21900	-2
1.22267	-2
1.22633	-2
1.23000	-1
1.23367	-1
1.23733	-1
1.24100	-1
1.24467	-1
1.24833	-1
1.25200	-1
1.25567	-1
1.25933	-1
1.26300	-1
1.26667	-1
1.27033	-1
1.27400	-1
1.27767	-1
1.28133	-1
1.28500	-1
1.28867	-1
1.29233	-1
1.29600	-1
1.29967	-1
1.30333	-1
1.30700	-1
1.31067	-1
1.31433	-1
1.31800	-1
1.32167	-1
1.32533	-1
1.32900	-1
1.33267	-1
1.33633	-1
1.34000	-1
1.34367	-0
1.34733	-0
1.35100	-0
1.35467	-0
1.35833	0
1.36200	0
1.36567	0
1.36933	0
1.37300	0
1.37667	-0
1.38033	-0
1.38400	-0
1.38767	-1
1.39133	-1
1.39500	-1
1.39867	-1
1.40233	-1
1.40600	-1
1.40967	-1
1.41333	-1
1.41700	-1
1.42067	-1
1.42433	-1
1.42800	-1
1.43167	-1
1.43533	-1
1.43900	-1
1.44267	-1
1.44633	-1
1.45000	-1
1.45367	-1
1.45733	-1
1.46100	-1
1.46467	-1
1.46833	-1
1.47200	-1
1.47567	-1
1.47933	-1
1.48300	-1
1.48667	-1
1.49033	-2
1.49400	-2
1.49767	-2
1.50133	-2
1.50500	-2
1.50867	-2
1.51233	-2
1.51600	-2
1.51967	-2
1.52333	-2
1.52700	-2
1.53067	-2
1.53433	-2
1.53800	-2
1.54167	-2
1.54533	-2
1.54900	-2
1.55267	-2
1.55633	-2
1.56000	-2
1.56367	-2
1.56733	-2
1.57100	-2
1.57467	-2
1.57833	-2
1.58200	-2
1.58567	-2
1.58933	-3
1.59300	-3
1.59667	-3
1.60033	-3
1.60400	-4
1.60767	-6
1.61133	-7
1.61500	-9
1.61867	-11
1.62233	-13
1.62600	-16
1.62967	-18
1.63333	-21
1.63700	-24
1.64067	-28
1.64433	-31
1.64800	-35
1.65167	-39
1.65533	-42
1.65900	-46
1.66267	-50
1.66633	-55
1.67000	-60
1.67367	-65
1.67733	-71
1.68100	-76
1.68467	-81
1.68833	-86
1.69200	-91
1.69567	-95
1.69933	-98
1.70300	-101
1.70667	-104
1.71033	-106
1.71400	-108
1.71767	-109
1.72133	-110
1.72500	-111
1.72867	-112
1.73233	-112
1.73600	-113
1.73967	-113
1.74333	-113
1.74700	-114
1.75067	-115
1.75433	-115
1.75800	-116
1.76167	-117
1.76533	-118
1.76900	-119
1.77267	-119
1.77633	-119
1.78000	-120
1.78367	-120
1.78733	-120
1.79100	-120
1.79467	-120
1.79833	-120
1.80200	-121
1.80567	-121
1.80933	-121
1.81300	-121
1.81667	-121
1.82033	-122
1.82400	-123
1.82767	-123
1.83133	-123
1.83500	-123
1.83867	-122
1.84233	-122
1.84600	-121
1.84967	-121
1.85333	-121
1.85700	-121
1.86067	-121
1.86433	-122
1.86800	-122
1.87167	-122
1.87533	-123
1.87900	-122
1.88267	-122
1.88633	-122
1.89000	-121
1.89367	-120
1.89733	-120
1.90100	-120
1.90467	-119
1.90833	-119
1.91200	-118
1.91567	-118
1.91933	-118
1.92300	-118
1.92667	-118
1.93033	-118
1.93400	-118
1.93767	-118
1.94133	-118
1.94500	-118
1.94867	-119
1.95233	-119
1.95600	-119
1.95967	-119
1.96333	-119
1.96700	-119
1.97067	-118
1.97433	-117
1.97800	-116
1.98167	-115
1.98533	-114
1.98900	-114
1.99267	-114
1.99633	-113
2.00000	-113
2.00367	-113
2.00733	-114
2.01100	-113
2.01467	-113
2.01833	-113
2.02200	-112
2.02567	-112
2.02933	-111
2.03300	-111
2.03667	-111
2.04033	-111
2.04400	-111
2.04767	-111
2.05133	-110
2.05500	-110
2.05867	-110
2.06233	-109
2.06600	-109
2.06967	-108
2.07333	-108
2.07700	-108
2.08067	-107
2.08433	-107
2.08800	-107
2.09167	-108
2.09533	-107
2.09900	-107
2.10267	-107
2.10633	-107
2.11000	-106
2.11367	-105
2.11733	-104
2.12100	-104
2.12467	-103
2.12833	-102
2.13200	-102
2.13567	-102
2.13933	-102
2.14300	-102
2.14667	-103
2.15033	-103
2.15400	-103
2.15767	-102
2.16133	-102
2.16500	-102
2.16867	-101
2.17233	-101
2.17600	-101
2.17967	-101
2.18333	-101
2.18700	-100
2.19067	-100
2.19433	-100
2.19800	-99
2.20167	-98
2.20533	-97
2.20900	-96
2.21267	-96
2.21633	-95
2.22000	-95
2.22367	-94
2.22733	-94
2.23100	-94
2.23467	-94
2.23833	-94
2.24200	-94
2.24567	-94
2.24933	-94
2.25300	-94
2.25667	-94
2.26033	-93
2.26400	-93
2.26767	-92
2.27133	-92
2.27500	-91
2.27867	-90
2.28233	-89
2.28600	-88
2.28967	-88
2.29333	-88
2.29700	-88
2.30067	-88
2.30433	-89
2.30800	-89
2.31167	-89
2.31533	-89
2.31900	-89
2.32267	-88
2.32633	-88
2.33000	-87
2.33367	-86
2.33733	-85
2.34100	-84
2.34467	-84
2.34833	-84
2.35200	-84
2.35567	-83
2.35933	-83
2.36300	-82
2.36667	-82
2.37033	-81
2.37400	-79
2.37767	-77
2.38133	-75
2.38500	-71
2.38867	-68
2.39233	-64
2.39600	-60
2.39967	-55
2.40333	-51
2.40700	-46
2.41067	-41
2.41433	-37
2.41800	-33
2.42167	-29
2.42533	-26
2.42900	-23
2.43267	-20
2.43633	-18
2.44000	-15
2.44367	-13
2.44733	-12
2.45100	-10
2.45467	-8
2.45833	-6
2.46200	-4
2.46567	-3
2.46933	-2
2.47300	-0
2.47667	1
2.48033	2
2.48400	4
2.48767	5
2.49133	6
2.49500	7
2.49867	7
2.50233	8
2.50600	8
2.50967	8
2.51333	8
2.51700	9
2.52067	9
2.52433	10
2.52800	10
2.53167	10
2.53533	10
2.53900	10
2.54267	10
2.54633	10
2.55000	10
2.55367	11
2.55733	11
2.56100	12
2.56467	12
2.56833	12
2.57200	12
2.57567	12
2.57933	12
2.58300	13
2.58667	13
2.59033	14
2.59400	14
2.59767	15
2.60133	15
2.60500	16
2.60867	16
2.61233	17
2.61600	17
2.61967	18
2.62333	18
2.62700	19
2.63067	19
2.63433	19
2.63800	19
2.64167	19
2.64533	19
2.64900	20
2.65267	20
2.65633	20
2.66000	20
2.66367	21
2.66733	21
2.67100	21
2.67467	21
2.67833	21
2.68200	20
2.68567	20
2.68933	20
2.69300	20
2.69667	21
2.70033	21
2.70400	22
2.70767	22
2.71133	23
2.71500	23
2.71867	24
2.72233	24
2.72600	25
2.72967	25
2.73333	25
2.73700	25
2.74067	25
2.74433	24
2.74800	24
2.75167	23
2.75533	23
2.75900	23
2.76267	23
2.76633	24
2.77000	24
2.77367	24
2.77733	24
2.78100	24
2.78467	24
2.78833	24
2.79200	24
2.79567	24
2.79933	24
2.80300	24
2.80667	24
2.81033	25
2.81400	25
2.81767	25
2.82133	25
2.82500	25
2.82867	25
2.83233	25
2.83600	25
2.83967	25
2.84333	25
2.84700	25
2.85067	25
2.85433	23
2.85800	21
2.86167	17
2.86533	10
2.86900	-0
2.87267	-13
2.87633	-31
2.88000	-52
2.88367	-77
2.88733	-106
2.89100	-138
2.89467	-174
2.89833	-213
2.90200	-254
2.90567	-297
2.90933	-341
2.91300	-387
2.91667	-434
2.92033	-481
2.92400	-529
2.92767	-577
2.93133	-628
2.93500	-683
2.93867	-741
2.94233	-794
2.94600	-834
2.94967	-854
2.95333	-852
2.95700	-830
2.96067	-790
2.96433	-739
2.96800	-679
2.97167	-617
2.97533	-554
2.97900	-492
2.98267	-433
2.98633	-379
2.99000	-329
2.99367	-284
2.99733	-244
3.00100	-209
3.00467	-177
3.00833	-150
3.01200	-127
3.01567	-107
3.01933	-89
3.02300	-74
3.02667	-61
3.03033	-50
3.03400	-40
3.03767	-32
3.04133	-25
3.04500	-20
3.04867	-15
3.05233	-10
3.05600	-6
3.05967	-3
3.06333	-1
3.06700	2
3.07067	4
3.07433	6
3.07800	7
3.08167	8
3.08533	9
3.08900	10
3.09267	11
3.09633	12
3.10000	12
3.10367	13
3.10733	14
3.11100	14
3.11467	14
3.11833	15
3.12200	15
3.12567	15
3.12933	15
3.13300	16
3.13667	16
3.14033	16
3.14400	17
3.14767	17
3.15133	17
3.15500	17
3.15867	18
3.16233	18
3.16600	18
3.16967	18
3.17333	18
3.17700	18
3.18067	18
3.18433	18
3.18800	18
3.19167	19
3.19533	19
3.19900	19
3.20267	19
3.20633	20
3.21000	20
3.21367	20
3.21733	21
3.22100	21
3.22467	21
3.22833	21
3.23200	22
3.23567	22
3.23933	23
3.24300	24
3.24667	24
3.25033	24
3.25400	25
3.25767	25
3.26133	25
3.26500	25
3.26867	26
3.27233	26
3.27600	26
3.27967	26
3.28333	26
3.28700	26
3.29067	26
3.29433	26
3.29800	26
3.30167	26
3.30533	26
3.30900	26
3.31267	26
3.31633	26
3.32000	26
3.32367	27
3.32733	27
3.33100	27
3.33467	27
3.33833	26
3.34200	26
3.34567	26
3.34933	25
3.35300	25
3.35667	25
3.36033	25
3.36400	26
3.36767	26
3.37133	26
3.37500	26
3.37867	26
3.38233	26
3.38600	27
3.38967	27
3.39333	27
3.39700	27
3.40067	27
3.40433	27
3.40800	26
3.41167	26
3.41533	26
3.41900	26
3.42267	26
3.42633	25
3.43000	25
3.43367	25
3.43733	25
3.44100	25
3.44467	25
3.44833	25
3.45200	25
3.45567	24
3.45933	24
3.46300	24
3.46667	23
3.47033	23
3.47400	23
3.47767	23
3.48133	23
3.48500	24
3.48867	24
3.49233	24
3.49600	24
3.49967	24
3.50333	23
3.50700	24
3.51067	24
3.51433	24
3.51800	24
3.52167	24
3.52533	24
3.52900	24
3.53267	24
3.53633	24
3.54000	24
3.54367	25
3.54733	25
3.55100	25
3.55467	25
3.55833	25
3.56200	24
3.56567	24
3.56933	24
3.57300	24
3.57667	24
3.58033	24
3.58400	24
3.58767	24
3.59133	24
3.59500	24
3.59867	24
3.60233	24
3.60600	24
3.60967	25
3.61333	25
3.61700	25
3.62067	25
3.62433	24
3.62800	24
3.63167	24
3.63533	24
3.63900	24
3.64267	24
3.64633	24
3.65000	24
3.65367	25
3.65733	25
3.66100	25
3.66467	24
3.66833	24
3.67200	24
3.67567	24
3.67933	24
3.68300	24
3.68667	25
3.69033	25
3.69400	25
3.69767	25
3.70133	25
3.70500	25
3.70867	25
3.71233	25
3.71600	25
3.71967	25
3.72333	25
3.72700	25
3.73067	25
3.73433	25
3.73800	25
3.74167	25
3.74533	25
3.74900	25
3.75267	25
3.75633	25
3.76000	25
3.76367	25
3.76733	25
3.77100	25
3.77467	25
3.77833	25
3.78200	26
3.78567	26
3.78933	26
3.79300	26
3.79667	26
3.80033	26
3.80400	25
3.80767	25
3.81133	25
3.81500	25
3.81867	25
3.82233	25
3.82600	25
3.82967	25
3.83333	25
3.83700	25
3.84067	25
3.84433	25
3.84800	26
3.85167	26
3.85533	26
3.85900	26
3.86267	26
3.86633	26
3.87000	25
3.87367	25
3.87733	25
3.88100	25
3.88467	25
3.88833	25
3.89200	25
3.89567	25
3.89933	24
3.90300	24
3.90667	24
3.91033	24
3.91400	24
3.91767	24
3.92133	24
3.92500	24
3.92867	24
3.93233	25
3.93600	25
3.93967	25
3.94333	25
3.94700	25
3.95067	25
3.95433	25
3.95800	25
3.96167	25
3.96533	25
3.96900	25
3.97267	25
3.97633	25
3.98000	25
3.98367	25
3.98733	25
3.99100	25
3.99467	25
3.99833	25

[Chromatogram (Ch3)]
Interval(msec)	220
# of Points	1091
Start Time(min)	0.002
End Time(min)	3.998
R.Time (min)	Intensity
0.00167	-1
0.00533	-2
0.00900	-4
0.01267	-5
0.01633	-3
0.02000	-2
0.02367	-1
0.02733	-1
0.03100	-1
0.03467	-2
0.03833	-2
0.04200	-3
0.04567	-4
0.04933	-3
0.05300	-3
0.05667	-5
0.06033	-6
0.06400	-7
0.06767	-8
0.07133	-8
0.07500	-11
0.07867	-12
0.08233	-10
0.08600	-9
0.08967	-8
0.09333	-5
0.09700	-4
0.10067	-7
0.10433	-9
0.10800	-10
0.11167	-8
0.11533	-6
0.11900	-4
0.12267	-3
0.12633	-2
0.13000	0
0.13367	2
0.13733	1
0.14100	-2
0.14467	-4
0.14833	-4
0.15200	-1
0.15567	1
0.15933	0
0.16300	-1
0.16667	-0
0.17033	-1
0.17400	-1
0.17767	-1
0.18133	1
0.18500	2
0.18867	3
0.19233	1
0.19600	-1
0.19967	-3
0.20333	-5
0.20700	-4
0.21067	-4
0.21433	-2
0.21800	-1
0.22167	-1
0.22533	0
0.22900	-1
0.23267	-2
0.23633	-1
0.24000	-1
0.24367	0
0.24733	2
0.25100	2
0.25467	1
0.25833	0
0.26200	-0
0.26567	0
0.26933	1
0.27300	0
0.27667	2
0.28033	2
0.28400	1
0.28767	1
0.29133	3
0.29500	4
0.29867	6
0.30233	7
0.30600	5
0.30967	2
0.31333	1
0.31700	3
0.32067	6
0.32433	10
0.32800	12
0.33167	10
0.33533	10
0.33900	9
0.34267	7
0.34633	8
0.35000	9
0.35367	8
0.35733	7
0.36100	7
0.36467	8
0.36833	7
0.37200	5
0.37567	4
0.37933	2
0.38300	1
0.38667	1
0.39033	4
0.39400	6
0.39767	6
0.40133	4
0.40500	2
0.40867	1
0.41233	1
0.41600	2
0.41967	1
0.42333	1
0.42700	3
0.43067	4
0.43433	3
0.43800	3
0.44167	4
0.44533	6
0.44900	6
0.45267	6
0.45633	5
0.46000	4
0.46367	5
0.46733	5
0.47100	5
0.47467	7
0.47833	8
0.48200	8
0.48567	9
0.48933	9
0.49300	9
0.49667	9
0.50033	9
0.50400	8
0.50767	6
0.51133	5
0.51500	4
0.51867	4
0.52233	6
0.52600	7
0.52967	8
0.53333	9
0.53700	10
0.54067	11
0.54433	11
0.54800	11
0.55167	9
0.55533	7
0.55900	7
0.56267	9
0.56633	9
0.57000	8
0.57367	7
0.57733	6
0.58100	6
0.58467	6
0.58833	6
0.59200	5
0.59567	7
0.59933	11
0.60300	12
0.60667	13
0.61033	13
0.61400	12
0.61767	12
0.62133	12
0.62500	10
0.62867	9
0.63233	11
0.63600	11
0.63967	13
0.64333	12
0.64700	12
0.65067	11
0.65433	12
0.65800	11
0.66167	13
0.66533	14
0.66900	15
0.67267	16
0.67633	16
0.68000	16
0.68367	15
0.68733	13
0.69100	11
0.69467	10
0.69833	11
0.70200	11
0.70567	9
0.70933	11
0.71300	13
0.71667	13
0.72033	13
0.72400	13
0.72767	14
0.73133	14
0.73500	13
0.73867	13
0.74233	12
0.74600	13
0.74967	14
0.75333	14
0.75700	15
0.76067	13
0.76433	12
0.76800	13
0.77167	15
0.77533	15
0.77900	17
0.78267	17
0.78633	16
0.79000	14
0.79367	12
0.79733	11
0.80100	11
0.80467	11
0.80833	11
0.81200	11
0.81567	11
0.81933	11
0.82300	12
0.82667	12
0.83033	12
0.83400	13
0.83767	14
0.84133	13
0.84500	15
0.84867	14
0.85233	12
0.85600	11
0.85967	11
0.86333	11
0.86700	10
0.87067	10
0.87433	10
0.87800	9
0.88167	8
0.88533	9
0.88900	7
0.89267	9
0.89633	11
0.90000	11
0.90367	10
0.90733	10
0.91100	12
0.91467	15
0.91833	16
0.92200	16
0.92567	12
0.92933	9
0.93300	10
0.93667	14
0.94033	14
0.94400	14
0.94767	14
0.95133	12
0.95500	10
0.95867	9
0.96233	11
0.96600	14
0.96967	14
0.97333	13
0.97700	16
0.98067	18
0.98433	20
0.98800	20
0.99167	19
0.99533	18
0.99900	18
1.00267	19
1.00633	19
1.01000	21
1.01367	21
1.01733	20
1.02100	20
1.02467	19
1.02833	20
1.03200	20
1.03567	19
1.03933	19
1.04300	16
1.04667	14
1.05033	15
1.05400	16
1.05767	13
1.06133	12
1.06500	12
1.06867	13
1.07233	11
1.07600	11
1.07967	11
1.08333	12
1.08700	12
1.09067	13
1.09433	13
1.09800	13
1.10167	12
1.10533	13
1.10900	12
1.11267	12
1.11633	11
1.12000	10
1.12367	11
1.12733	13
1.13100	15
1.13467	20
1.13833	21
1.14200	21
1.14567	20
1.14933	19
1.15300	20
1.15667	19
1.16033	18
1.16400	17
1.16767	16
1.17133	16
1.17500	18
1.17867	18
1.18233	18
1.18600	17
1.18967	17
1.19333	17
1.19700	17
1.20067	17
1.20433	15
1.20800	14
1.21167	12
1.21533	11
1.21900	12
1.22267	13
1.22633	12
1.23000	14
1.23367	13
1.23733	13
1.24100	12
1.24467	12
1.24833	14
1.25200	14
1.25567	13
1.25933	14
1.26300	16
1.26667	17
1.27033	19
1.27400	17
1.27767	15
1.28133	14
1.28500	14
1.28867	15
1.29233	13
1.29600	9
1.29967	8
1.30333	8
1.30700	8
1.31067	10
1.31433	11
1.31800	13
1.32167	15
1.32533	17
1.32900	17
1.33267	17
1.33633	16
1.34000	14
1.34367	11
1.34733	10
1.35100	10
1.35467	11
1.35833	12
1.36200	11
1.36567	9
1.36933	9
1.37300	11
1.37667	12
1.38033	11
1.38400	11
1.38767	11
1.39133	10
1.39500	10
1.39867	11
1.40233	13
1.40600	12
1.40967	13
1.41333	13
1.41700	11
1.42067	10
1.42433	10
1.42800	12
1.43167	12
1.43533	12
1.43900	12
1.44267	10
1.44633	9
1.45000	7
1.45367	7
1.45733	7
1.46100	7
1.46467	7
1.46833	9
1.47200	11
1.47567	14
1.47933	14
1.48300	14
1.48667	11
1.49033	9
1.49400	9
1.49767	10
1.50133	10
1.50500	11
1.50867	13
1.51233	13
1.51600	11
1.51967	9
1.52333	10
1.52700	10
1.53067	9
1.53433	11
1.53800	12
1.54167	12
1.54533	13
1.54900	13
1.55267	15
1.55633	15
1.56000	14
1.56367	11
1.56733	10
1.57100	8
1.57467	6
1.57833	5
1.58200	6
1.58567	8
1.58933	10
1.59300	10
1.59667	9
1.60033	7
1.60400	9
1.60767	11
1.61133	13
1.61500	14
1.61867	12
1.62233	9
1.62600	8
1.62967	9
1.63333	8
1.63700	7
1.64067	7
1.64433	8
1.64800	11
1.65167	12
1.65533	10
1.65900	7
1.66267	6
1.66633	7
1.67000	8
1.67367	9
1.67733	11
1.68100	14
1.68467	17
1.68833	18
1.69200	16
1.69567	17
1.69933	19
1.70300	22
1.70667	24
1.71033	23
1.71400	23
1.71767	24
1.72133	26
1.72500	25
1.72867	23
1.73233	21
1.73600	20
1.73967	21
1.74333	22
1.74700	23
1.75067	23
1.75433	25
1.75800	26
1.76167	26
1.76533	26
1.76900	26
1.77267	28
1.77633	29
1.78000	29
1.78367	28
1.78733	30
1.79100	30
1.79467	28
1.79833	27
1.80200	27
1.80567	27
1.80933	29
1.81300	32
1.81667	33
1.82033	33
1.82400	31
1.82767	31
1.83133	32
1.83500	33
1.83867	34
1.84233	32
1.84600	31
1.84967	29
1.85333	27
1.85700	28
1.86067	33
1.86433	36
1.86800	37
1.87167	36
1.87533	35
1.87900	34
1.88267	33
1.88633	34
1.89000	34
1.89367	35
1.89733	35
1.90100	35
1.90467	35
1.90833	34
1.91200	35
1.91567	38
1.91933	40
1.92300	42
1.92667	43
1.93033	42
1.93400	41
1.93767	41
1.94133	43
1.94500	44
1.94867	44
1.95233	45
1.95600	44
1.95967	42
1.96333	43
1.96700	45
1.97067	48
1.97433	48
1.97800	51
1.98167	51
1.98533	51
1.98900	53
1.99267	55
1.99633	58
2.00000	57
2.00367	58
2.00733	59
2.01100	60
2.01467	59
2.01833	60
2.02200	60
2.02567	60
2.02933	61
2.03300	60
2.03667	60
2.04033	60
2.04400	59
2.04767	61
2.05133	62
2.05500	62
2.05867	65
2.06233	69
2.06600	70
2.06967	70
2.07333	71
2.07700	72
2.08067	73
2.08433	75
2.08800	76
2.09167	78
2.09533	80
2.09900	82
2.10267	82
2.10633	81
2.11000	80
2.11367	79
2.11733	79
2.12100	78
2.12467	77
2.12833	77
2.13200	78
2.13567	80
2.13933	81
2.14300	82
2.14667	84
2.15033	88
2.15400	89
2.15767	88
2.16133	88
2.16500	89
2.16867	89
2.17233	92
2.17600	94
2.17967	96
2.18333	97
2.18700	97
2.19067	98
2.19433	99
2.19800	99
2.20167	99
2.20533	100
2.20900	101
2.21267	102
2.21633	103
2.22000	104
2.22367	104
2.22733	104
2.23100	105
2.23467	106
2.23833	106
2.24200	105
2.24567	104
2.24933	102
2.25300	103
2.25667	103
2.26033	102
2.26400	102
2.26767	103
2.27133	107
2.27500	109
2.27867	111
2.28233	110
2.28600	110
2.28967	112
2.29333	112
2.29700	110
2.30067	111
2.30433	112
2.30800	112
2.31167	114
2.31533	117
2.31900	118
2.32267	119
2.32633	120
2.33000	122
2.33367	122
2.33733	123
2.34100	123
2.34467	122
2.34833	123
2.35200	124
2.35567	126
2.35933	128
2.36300	130
2.36667	130
2.37033	131
2.37400	132
2.37767	135
2.38133	136
2.38500	136
2.38867	136
2.39233	136
2.39600	136
2.39967	135
2.40333	134
2.40700	133
2.41067	134
2.41433	135
2.41800	136
2.42167	138
2.42533	140
2.42900	143
2.43267	147
2.43633	150
2.44000	152
2.44367	160
2.44733	182
2.45100	206
2.45467	225
2.45833	232
2.46200	232
2.46567	230
2.46933	231
2.47300	231
2.47667	228
2.48033	221
2.48400	212
2.48767	202
2.49133	194
2.49500	189
2.49867	185
2.50233	181
2.50600	175
2.50967	173
2.51333	171
2.51700	170
2.52067	171
2.52433	173
2.52800	174
2.53167	173
2.53533	169
2.53900	162
2.54267	155
2.54633	150
2.55000	145
2.55367	141
2.55733	139
2.56100	138
2.56467	138
2.56833	138
2.57200	138
2.57567	138
2.57933	135
2.58300	134
2.58667	134
2.59033	136
2.59400	135
2.59767	133
2.60133	133
2.60500	129
2.60867	125
2.61233	118
2.61600	103
2.61967	80
2.62333	48
2.62700	20
2.63067	7
2.63433	5
2.63800	15
2.64167	36
2.64533	59
2.64900	84
2.65267	111
2.65633	142
2.66000	173
2.66367	204
2.66733	235
2.67100	266
2.67467	300
2.67833	332
2.68200	363
2.68567	393
2.68933	417
2.69300	440
2.69667	463
2.70033	482
2.70400	497
2.70767	512
2.71133	528
2.71500	544
2.71867	556
2.72233	566
2.72600	577
2.72967	585
2.73333	590
2.73700	596
2.74067	600
2.74433	604
2.74800	612
2.75167	619
2.75533	624
2.75900	625
2.76267	627
2.76633	630
2.77000	632
2.77367	633
2.77733	632
2.78100	632
2.78467	631
2.78833	633
2.79200	636
2.79567	638
2.79933	638
2.80300	637
2.80667	633
2.81033	630
2.81400	627
2.81767	625
2.82133	624
2.82500	623
2.82867	625
2.83233	638
2.83600	670
2.83967	739
2.84333	867
2.84700	1079
2.85067	1392
2.85433	1808
2.85800	2311
2.86167	2859
2.86533	3401
2.86900	3884
2.87267	4268
2.87633	4522
2.88000	4638
2.88367	4626
2.88733	4503
2.89100	4298
2.89467	4038
2.89833	3745
2.90200	3438
2.90567	3136
2.90933	2847
2.91300	2575
2.91667	2328
2.92033	2106
2.92400	1909
2.92767	1735
2.93133	1580
2.93500	1445
2.93867	1329
2.94233	1225
2.94600	1136
2.94967	1057
2.95333	992
2.95700	936
2.96067	886
2.96433	844
2.96800	810
2.97167	778
2.97533	748
2.97900	720
2.98267	698
2.98633	682
2.99000	668
2.99367	656
2.99733	645
3.00100	635
3.00467	625
3.00833	617
3.01200	609
3.01567	603
3.01933	599
3.02300	595
3.02667	591
3.03033	588
3.03400	587
3.03767	585
3.04133	583
3.04500	581
3.04867	579
3.05233	576
3.05600	574
3.05967	573
3.06333	573
3.06700	573
3.07067	570
3.07433	568
3.07800	567
3.08167	567
3.08533	565
3.08900	564
3.09267	566
3.09633	567
3.10000	566
3.10367	563
3.10733	561
3.11100	560
3.11467	559
3.11833	558
3.12200	558
3.12567	556
3.12933	553
3.13300	549
3.13667	547
3.14033	548
3.14400	549
3.14767	549
3.15133	545
3.15500	543
3.15867	541
3.16233	539
3.16600	537
3.16967	537
3.17333	538
3.17700	538
3.18067	538
3.18433	537
3.18800	536
3.19167	536
3.19533	536
3.19900	533
3.20267	530
3.20633	529
3.21000	526
3.21367	521
3.21733	519
3.22100	518
3.22467	517
3.22833	516
3.23200	517
3.23567	517
3.23933	518
3.24300	516
3.24667	512
3.25033	508
3.25400	506
3.25767	505
3.26133	502
3.26500	499
3.26867	498
3.27233	497
3.27600	496
3.27967	490
3.28333	484
3.28700	479
3.29067	476
3.29433	473
3.29800	470
3.30167	470
3.30533	469
3.30900	467
3.31267	464
3.31633	460
3.32000	455
3.32367	452
3.32733	451
3.33100	451
3.33467	449
3.33833	448
3.34200	448
3.34567	446
3.34933	444
3.35300	442
3.35667	440
3.36033	438
3.36400	433
3.36767	430
3.37133	430
3.37500	426
3.37867	421
3.38233	418
3.38600	418
3.38967	417
3.39333	417
3.39700	414
3.40067	412
3.40433	410
3.40800	408
3.41167	405
3.41533	403
3.41900	399
3.42267	393
3.42633	389
3.43000	388
3.43367	388
3.43733	386
3.44100	383
3.44467	380
3.44833	378
3.45200	376
3.45567	374
3.45933	372
3.46300	373
3.46667	373
3.47033	372
3.47400	373
3.47767	370
3.48133	366
3.48500	363
3.48867	359
3.49233	354
3.49600	352
3.49967	353
3.50333	351
3.50700	349
3.51067	347
3.51433	344
3.51800	340
3.52167	336
3.52533	334
3.52900	334
3.53267	335
3.53633	335
3.54000	334
3.54367	333
3.54733	332
3.55100	329
3.55467	325
3.55833	322
3.56200	323
3.56567	324
3.56933	322
3.57300	322
3.57667	321
3.58033	319
3.58400	320
3.58767	317
3.59133	317
3.59500	316
3.59867	315
3.60233	315
3.60600	314
3.60967	311
3.61333	307
3.61700	305
3.62067	306
3.62433	305
3.62800	301
3.63167	300
3.63533	299
3.63900	297
3.64267	293
3.64633	289
3.65000	286
3.65367	286
3.65733	289
3.66100	290
3.66467	287
3.66833	283
3.67200	281
3.67567	282
3.67933	283
3.68300	285
3.68667	285
3.69033	283
3.69400	279
3.69767	277
3.70133	276
3.70500	275
3.70867	273
3.71233	273
3.71600	274
3.71967	273
3.72333	271
3.72700	269
3.73067	269
3.73433	269
3.73800	267
3.74167	264
3.74533	261
3.74900	260
3.75267	261
3.75633	262
3.76000	262
3.76367	260
3.76733	256
3.77100	253
3.77467	252
3.77833	251
3.78200	253
3.78567	253
3.78933	252
3.79300	249
3.79667	247
3.80033	246
3.80400	244
3.80767	244
3.81133	245
3.81500	245
3.81867	244
3.82233	242
3.82600	239
3.82967	237
3.83333	236
3.83700	235
3.84067	233
3.84433	233
3.84800	234
3.85167	234
3.85533	234
3.85900	233
3.86267	232
3.86633	234
3.87000	233
3.87367	233
3.87733	231
3.88100	231
3.88467	230
3.88833	228
3.89200	225
3.89567	224
3.89933	223
3.90300	224
3.90667	224
3.91033	224
3.91400	225
3.91767	222
3.92133	218
3.92500	217
3.92867	219
3.93233	218
3.93600	215
3.93967	214
3.94333	214
3.94700	214
3.95067	210
3.95433	207
3.95800	208
3.96167	209
3.96533	210
3.96900	210
3.97267	212
3.97633	213
3.98000	214
3.98367	213
3.98733	212
3.99100	209
3.99467	205
3.99833	203

[Status Trace (Column Oven Temperature)]
Interval(msec)	1000
# of Points	240
Start Time(min)	0.014
End Time(min)	3.997
Intensity Units	
Intensity Multiplier	1
R.Time (min)	Intensity
0.01413	35.03
0.03080	35.03
0.04747	35.03
0.06413	35.03
0.08080	35.03
0.09747	35.01
0.11413	35.01
0.13080	35.00
0.14747	35.00
0.16413	34.99
0.18080	35.00
0.19747	34.99
0.21413	34.99
0.23080	34.98
0.24747	34.97
0.26413	34.98
0.28080	34.98
0.29747	34.98
0.31413	34.98
0.33080	34.98
0.34747	34.99
0.36413	34.98
0.38080	34.98
0.39747	34.98
0.41413	34.98
0.43080	34.98
0.44747	34.98
0.46413	34.98
0.48080	34.99
0.49747	34.99
0.51413	35.00
0.53080	35.00
0.54747	35.01
0.56413	35.01
0.58080	35.01
0.59747	35.01
0.61413	35.00
0.63080	34.99
0.64747	34.98
0.66413	34.99
0.68080	34.99
0.69747	34.99
0.71413	34.98
0.73080	34.99
0.74747	34.99
0.76413	34.99
0.78080	35.00
0.79747	35.00
0.81413	35.00
0.83080	35.00
0.84747	35.00
0.86413	35.00
0.88080	35.00
0.89747	34.99
0.91413	34.98
0.93080	34.99
0.94747	35.00
0.96413	35.00
0.98080	35.00
0.99747	35.00
1.01413	35.01
1.03080	35.01
1.04747	35.00
1.06413	34.99
1.08080	34.99
1.09747	34.99
1.11413	34.99
1.13080	34.98
1.14747	34.98
1.16413	34.98
1.18080	34.99
1.19747	35.00
1.21413	34.99
1.23080	34.99
1.24747	34.99
1.26413	35.00
1.28080	35.00
1.29747	35.00
1.31413	35.00
1.33080	34.99
1.34747	34.98
1.36413	34.98
1.38080	34.98
1.39747	34.98
1.41413	34.99
1.43080	34.99
1.44747	35.00
1.46413	35.00
1.48080	35.00
1.49747	35.00
1.51413	35.00
1.53080	35.00
1.54747	35.01
1.56413	35.01
1.58080	35.02
1.59747	35.04
1.61413	35.12
1.63080	35.25
1.64747	35.46
1.66413	35.74
1.68080	36.09
1.69747	36.46
1.71413	36.81
1.73080	37.14
1.74747	37.48
1.76413	37.82
1.78080	38.15
1.79747	38.48
1.81413	38.82
1.83080	39.15
1.84747	39.47
1.86413	39.81
1.88080	40.13
1.89747	40.46
1.91413	40.77
1.93080	41.10
1.94747	41.44
1.96413	41.77
1.98080	42.08
1.99747	42.42
2.01413	42.74
2.03080	43.05
2.04747	43.38
2.06413	43.71
2.08080	44.02
2.09747	44.35
2.11413	44.68
2.13080	45.00
2.14747	45.34
2.16413	45.67
2.18080	46.01
2.19747	46.33
2.21413	46.67
2.23080	46.99
2.24747	47.33
2.26413	47.67
2.28080	47.97
2.29747	48.29
2.31413	48.63
2.33080	48.94
2.34747	49.26
2.36413	49.55
2.38080	49.68
2.39747	49.71
2.41413	49.71
2.43080	49.71
2.44747	49.73
2.46413	49.73
2.48080	49.73
2.49747	49.74
2.51413	49.76
2.53080	49.78
2.54747	49.79
2.56413	49.81
2.58080	49.82
2.59747	49.83
2.61413	49.82
2.63080	49.83
2.64747	49.84
2.66413	49.85
2.68080	49.87
2.69747	49.86
2.71413	49.84
2.73080	49.86
2.74747	49.88
2.76413	49.88
2.78080	49.87
2.79747	49.88
2.81413	49.88
2.83080	49.89
2.84747	49.90
2.86413	49.91
2.88080	49.92
2.89747	49.93
2.91413	49.94
2.93080	49.95
2.94747	49.96
2.96413	49.98
2.98080	49.98
2.99747	49.98
3.01413	49.99
3.03080	50.00
3.04747	50.01
3.06413	50.02
3.08080	50.03
3.09747	50.04
3.11413	50.05
3.13080	50.07
3.14747	50.08
3.16413	50.09
3.18080	50.11
3.19747	50.12
3.21413	50.11
3.23080	50.10
3.24747	50.07
3.26413	50.04
3.28080	50.03
3.29747	50.03
3.31413	50.01
3.33080	50.01
3.34747	50.01
3.36413	50.00
3.38080	49.99
3.39747	49.99
3.41413	49.99
3.43080	50.00
3.44747	50.02
3.46413	50.03
3.48080	50.03
3.49747	50.04
3.51413	50.05
3.53080	50.05
3.54747	50.05
3.56413	50.06
3.58080	50.05
3.59747	50.06
3.61413	50.07
3.63080	50.07
3.64747	50.07
3.66413	50.07
3.68080	50.06
3.69747	50.06
3.71413	50.06
3.73080	50.07
3.74747	50.07
3.76413	50.06
3.78080	50.07
3.79747	50.07
3.81413	50.06
3.83080	50.05
3.84747	50.05
3.86413	50.05
3.88080	50.05
3.89747	50.06
3.91413	50.06
3.93080	50.06
3.94747	50.06
3.96413	50.06
3.98080	50.06
3.99747	50.06

[Status Trace (Injection Unit Temperature)]
Interval(msec)	1000
# of Points	240
Start Time(min)	0.014
End Time(min)	3.997
Intensity Units	
Intensity Multiplier	1
R.Time (min)	Intensity
0.01413	99.99
0.03080	99.98
0.04747	99.98
0.06413	99.98
0.08080	99.98
0.09747	99.98
0.11413	99.98
0.13080	99.98
0.14747	99.99
0.16413	99.98
0.18080	99.98
0.19747	99.99
0.21413	99.98
0.23080	99.98
0.24747	99.98
0.26413	99.98
0.28080	99.98
0.29747	99.99
0.31413	99.98
0.33080	99.98
0.34747	99.98
0.36413	99.98
0.38080	99.98
0.39747	99.98
0.41413	99.98
0.43080	99.98
0.44747	99.98
0.46413	99.99
0.48080	99.98
0.49747	99.98
0.51413	99.98
0.53080	99.98
0.54747	99.99
0.56413	99.98
0.58080	99.98
0.59747	99.98
0.61413	99.98
0.63080	99.98
0.64747	99.98
0.66413	99.98
0.68080	99.98
0.69747	99.98
0.71413	99.98
0.73080	99.98
0.74747	99.98
0.76413	99.98
0.78080	99.98
0.79747	99.98
0.81413	99.98
0.83080	99.98
0.84747	99.98
0.86413	99.98
0.88080	99.98
0.89747	99.98
0.91413	99.98
0.93080	99.99
0.94747	99.98
0.96413	99.98
0.98080	99.98
0.99747	99.98
1.01413	99.99
1.03080	99.99
1.04747	99.99
1.06413	99.99
1.08080	99.98
1.09747	99.98
1.11413	99.98
1.13080	99.99
1.14747	99.99
1.16413	99.99
1.18080	99.99
1.19747	99.98
1.21413	99.98
1.23080	99.99
1.24747	99.99
1.26413	99.99
1.28080	99.99
1.29747	99.99
1.31413	99.98
1.33080	99.99
1.34747	99.99
1.36413	99.98
1.38080	99.98
1.39747	99.98
1.41413	99.99
1.43080	99.99
1.44747	99.98
1.46413	99.99
1.48080	99.99
1.49747	99.99
1.51413	99.99
1.53080	99.99
1.54747	99.99
1.56413	99.99
1.58080	99.99
1.59747	99.98
1.61413	99.99
1.63080	99.98
1.64747	99.98
1.66413	99.99
1.68080	99.99
1.69747	99.99
1.71413	99.99
1.73080	99.99
1.74747	99.98
1.76413	99.98
1.78080	99.98
1.79747	99.98
1.81413	99.99
1.83080	99.99
1.84747	99.98
1.86413	99.98
1.88080	99.98
1.89747	99.98
1.91413	99.99
1.93080	99.99
1.94747	99.98
1.96413	99.98
1.98080	99.98
1.99747	99.98
2.01413	99.98
2.03080	99.98
2.04747	99.98
2.06413	99.98
2.08080	99.98
2.09747	99.98
2.11413	99.98
2.13080	99.98
2.14747	99.97
2.16413	99.97
2.18080	99.98
2.19747	99.97
2.21413	99.97
2.23080	99.97
2.24747	99.97
2.26413	99.98
2.28080	99.97
2.29747	99.97
2.31413	99.97
2.33080	99.97
2.34747	99.97
2.36413	99.97
2.38080	99.97
2.39747	99.97
2.41413	99.97
2.43080	99.97
2.44747	99.97
2.46413	99.97
2.48080	99.97
2.49747	99.97
2.51413	99.97
2.53080	99.97
2.54747	99.97
2.56413	99.97
2.58080	99.97
2.59747	99.97
2.61413	99.98
2.63080	99.98
2.64747	99.98
2.66413	99.98
2.68080	99.98
2.69747	99.98
2.71413	99.98
2.73080	99.98
2.74747	99.99
2.76413	99.99
2.78080	99.99
2.79747	100.00
2.81413	99.99
2.83080	100.00
2.84747	100.00
2.86413	100.00
2.88080	100.00
2.89747	100.00
2.91413	100.00
2.93080	100.01
2.94747	100.01
2.96413	100.01
2.98080	100.01
2.99747	100.01
3.01413	100.02
3.03080	100.02
3.04747	100.02
3.06413	100.02
3.08080	100.02
3.09747	100.03
3.11413	100.03
3.13080	100.03
3.14747	100.03
3.16413	100.03
3.18080	100.03
3.19747	100.03
3.21413	100.04
3.23080	100.04
3.24747	100.04
3.26413	100.04
3.28080	100.04
3.29747	100.04
3.31413	100.04
3.33080	100.04
3.34747	100.04
3.36413	100.04
3.38080	100.05
3.39747	100.04
3.41413	100.04
3.43080	100.05
3.44747	100.05
3.46413	100.05
3.48080	100.05
3.49747	100.05
3.51413	100.05
3.53080	100.05
3.54747	100.05
3.56413	100.05
3.58080	100.05
3.59747	100.05
3.61413	100.05
3.63080	100.05
3.64747	100.05
3.66413	100.05
3.68080	100.05
3.69747	100.05
3.71413	100.05
3.73080	100.06
3.74747	100.06
3.76413	100.05
3.78080	100.06
3.79747	100.06
3.81413	100.06
3.83080	100.06
3.84747	100.06
3.86413	100.05
3.88080	100.06
3.89747	100.05
3.91413	100.05
3.93080	100.06
3.94747	100.05
3.96413	100.05
3.98080	100.06
3.99747	100.05

[Status Trace (Carrier Gas Pressure)]
Interval(msec)	1000
# of Points	240
Start Time(min)	0.014
End Time(min)	3.997
Intensity Units	
Intensity Multiplier	1
R.Time (min)	Intensity
0.01413	57.45
0.03080	55.53
0.04747	57.85
0.06413	59.81
0.08080	58.85
0.09747	57.98
0.11413	58.00
0.13080	58.01
0.14747	58.01
0.16413	58.00
0.18080	58.00
0.19747	58.00
0.21413	58.00
0.23080	58.00
0.24747	58.00
0.26413	58.00
0.28080	58.00
0.29747	58.00
0.31413	58.00
0.33080	58.00
0.34747	58.00
0.36413	58.00
0.38080	58.00
0.39747	58.00
0.41413	58.00
0.43080	58.00
0.44747	58.00
0.46413	58.00
0.48080	58.00
0.49747	58.00
0.51413	58.00
0.53080	58.00
0.54747	58.00
0.56413	58.00
0.58080	58.00
0.59747	58.00
0.61413	58.00
0.63080	58.00
0.64747	58.00
0.66413	58.00
0.68080	58.00
0.69747	58.00
0.71413	58.00
0.73080	58.00
0.74747	58.00
0.76413	58.00
0.78080	58.00
0.79747	58.00
0.81413	58.00
0.83080	58.00
0.84747	58.00
0.86413	58.00
0.88080	58.00
0.89747	58.00
0.91413	58.00
0.93080	58.00
0.94747	58.00
0.96413	58.00
0.98080	58.00
0.99747	58.00
1.01413	58.00
1.03080	58.00
1.04747	58.00
1.06413	58.00
1.08080	58.00
1.09747	58.00
1.11413	58.00
1.13080	58.00
1.14747	58.00
1.16413	58.00
1.18080	58.00
1.19747	58.00
1.21413	58.00
1.23080	58.00
1.24747	58.00
1.26413	58.00
1.28080	58.00
1.29747	58.00
1.31413	58.00
1.33080	58.00
1.34747	58.00
1.36413	58.00
1.38080	58.00
1.39747	58.00
1.41413	58.00
1.43080	58.00
1.44747	58.00
1.46413	58.00
1.48080	58.00
1.49747	58.00
1.51413	58.00
1.53080	58.00
1.54747	58.00
1.56413	58.00
1.58080	58.00
1.59747	58.00
1.61413	58.00
1.63080	58.00
1.64747	58.00
1.66413	58.01
1.68080	58.01
1.69747	58.00
1.71413	58.00
1.73080	58.00
1.74747	58.00
1.76413	58.00
1.78080	58.00
1.79747	58.00
1.81413	58.00
1.83080	58.00
1.84747	58.00
1.86413	58.00
1.88080	58.00
1.89747	58.00
1.91413	58.00
1.93080	58.00
1.94747	58.00
1.96413	58.00
1.98080	58.00
1.99747	58.00
2.01413	58.00
2.03080	58.00
2.04747	58.00
2.06413	58.00
2.08080	58.00
2.09747	58.00
2.11413	58.00
2.13080	58.00
2.14747	58.00
2.16413	58.00
2.18080	58.00
2.19747	58.00
2.21413	58.00
2.23080	58.00
2.24747	58.00
2.26413	58.00
2.28080	58.00
2.29747	58.00
2.31413	58.00
2.33080	58.00
2.34747	58.00
2.36413	58.00
2.38080	57.99
2.39747	57.99
2.41413	58.00
2.43080	58.00
2.44747	58.00
2.46413	58.00
2.48080	58.00
2.49747	58.00
2.51413	57.99
2.53080	57.99
2.54747	58.00
2.56413	58.00
2.58080	58.00
2.59747	58.00
2.61413	58.00
2.63080	58.00
2.64747	58.00
2.66413	58.00
2.68080	58.00
2.69747	58.00
2.71413	58.00
2.73080	58.00
2.74747	58.00
2.76413	58.00
2.78080	58.00
2.79747	58.00
2.81413	58.00
2.83080	58.00
2.84747	58.00
2.86413	58.00
2.88080	58.00
2.89747	58.00
2.91413	58.00
2.93080	58.00
2.94747	58.00
2.96413	58.00
2.98080	58.00
2.99747	58.00
3.01413	58.00
3.03080	58.00
3.04747	58.00
3.06413	58.00
3.08080	58.00
3.09747	58.00
3.11413	58.00
3.13080	58.00
3.14747	58.00
3.16413	58.00
3.18080	58.00
3.19747	58.00
3.21413	58.00
3.23080	58.00
3.24747	58.00
3.26413	58.00
3.28080	58.00
3.29747	58.00
3.31413	58.00
3.33080	58.00
3.34747	58.00
3.36413	58.00
3.38080	58.00
3.39747	58.00
3.41413	58.00
3.43080	58.00
3.44747	58.00
3.46413	58.00
3.48080	58.00
3.49747	58.00
3.51413	58.00
3.53080	58.00
3.54747	58.00
3.56413	58.00
3.58080	58.00
3.59747	58.00
3.61413	58.00
3.63080	58.00
3.64747	58.00
3.66413	58.00
3.68080	58.00
3.69747	58.00
3.71413	58.00
3.73080	58.00
3.74747	58.00
3.76413	58.00
3.78080	58.00
3.79747	58.00
3.81413	58.00
3.83080	58.00
3.84747	58.00
3.86413	58.00
3.88080	58.00
3.89747	58.00
3.91413	58.00
3.93080	58.00
3.94747	58.00
3.96413	58.00
3.98080	58.00
3.99747	58.00

[Status Trace (Carrier Gas Flow)]
Interval(msec)	1000
# of Points	240
Start Time(min)	0.014
End Time(min)	3.997
Intensity Units	
Intensity Multiplier	1
R.Time (min)	Intensity
0.01413	34.19
0.03080	34.54
0.04747	34.55
0.06413	34.53
0.08080	34.50
0.09747	34.52
0.11413	34.52
0.13080	34.52
0.14747	34.49
0.16413	34.52
0.18080	34.51
0.19747	34.52
0.21413	34.53
0.23080	34.52
0.24747	34.52
0.26413	34.52
0.28080	34.52
0.29747	34.52
0.31413	34.52
0.33080	34.52
0.34747	34.52
0.36413	34.52
0.38080	34.50
0.39747	34.54
0.41413	34.52
0.43080	34.52
0.44747	34.52
0.46413	34.52
0.48080	34.52
0.49747	34.52
0.51413	34.50
0.53080	34.52
0.54747	34.50
0.56413	34.53
0.58080	34.51
0.59747	34.51
0.61413	34.54
0.63080	34.53
0.64747	34.49
0.66413	34.52
0.68080	34.54
0.69747	34.52
0.71413	34.52
0.73080	34.52
0.74747	34.52
0.76413	34.52
0.78080	34.52
0.79747	34.50
0.81413	34.52
0.83080	34.49
0.84747	34.52
0.86413	34.54
0.88080	34.53
0.89747	34.55
0.91413	34.52
0.93080	34.53
0.94747	34.52
0.96413	34.52
0.98080	34.52
0.99747	34.52
1.01413	34.53
1.03080	34.52
1.04747	34.49
1.06413	34.52
1.08080	34.55
1.09747	34.52
1.11413	34.52
1.13080	34.54
1.14747	34.52
1.16413	34.52
1.18080	34.51
1.19747	34.53
1.21413	34.49
1.23080	34.52
1.24747	34.53
1.26413	34.52
1.28080	34.52
1.29747	34.54
1.31413	34.50
1.33080	34.53
1.34747	34.52
1.36413	34.52
1.38080	34.52
1.39747	34.49
1.41413	34.52
1.43080	34.55
1.44747	34.52
1.46413	34.49
1.48080	34.52
1.49747	34.54
1.51413	34.53
1.53080	34.52
1.54747	34.52
1.56413	34.51
1.58080	34.52
1.59747	34.49
1.61413	34.52
1.63080	34.51
1.64747	34.53
1.66413	34.52
1.68080	34.52
1.69747	34.52
1.71413	34.49
1.73080	34.52
1.74747	34.52
1.76413	34.53
1.78080	34.52
1.79747	34.52
1.81413	34.52
1.83080	34.52
1.84747	34.52
1.86413	34.52
1.88080	34.51
1.89747	34.52
1.91413	34.54
1.93080	34.52
1.94747	34.50
1.96413	34.52
1.98080	34.52
1.99747	34.52
2.01413	34.52
2.03080	34.52
2.04747	34.52
2.06413	34.50
2.08080	34.52
2.09747	34.51
2.11413	34.52
2.13080	34.52
2.14747	34.49
2.16413	34.54
2.18080	34.50
2.19747	34.52
2.21413	34.53
2.23080	34.52
2.24747	34.52
2.26413	34.52
2.28080	34.52
2.29747	34.53
2.31413	34.52
2.33080	34.52
2.34747	34.50
2.36413	34.52
2.38080	34.52
2.39747	34.52
2.41413	34.52
2.43080	34.52
2.44747	34.52
2.46413	34.52
2.48080	34.52
2.49747	34.54
2.51413	34.52
2.53080	34.50
2.54747	34.54
2.56413	34.55
2.58080	34.52
2.59747	34.51
2.61413	34.54
2.63080	34.50
2.64747	34.50
2.66413	34.49
2.68080	34.52
2.69747	34.52
2.71413	34.52
2.73080	34.52
2.74747	34.52
2.76413	34.52
2.78080	34.50
2.79747	34.50
2.81413	34.50
2.83080	34.52
2.84747	34.55
2.86413	34.52
2.88080	34.52
2.89747	34.52
2.91413	34.52
2.93080	34.51
2.94747	34.52
2.96413	34.54
2.98080	34.52
2.99747	34.52
3.01413	34.52
3.03080	34.52
3.04747	34.52
3.06413	34.52
3.08080	34.53
3.09747	34.50
3.11413	34.52
3.13080	34.52
3.14747	34.54
3.16413	34.51
3.18080	34.51
3.19747	34.54
3.21413	34.50
3.23080	34.54
3.24747	34.51
3.26413	34.52
3.28080	34.52
3.29747	34.52
3.31413	34.52
3.33080	34.49
3.34747	34.55
3.36413	34.52
3.38080	34.52
3.39747	34.52
3.41413	34.52
3.43080	34.49
3.44747	34.49
3.46413	34.52
3.48080	34.52
3.49747	34.55
3.51413	34.52
3.53080	34.52
3.54747	34.49
3.56413	34.52
3.58080	34.52
3.59747	34.52
3.61413	34.52
3.63080	34.52
3.64747	34.52
3.66413	34.52
3.68080	34.52
3.69747	34.53
3.71413	34.52
3.73080	34.52
3.74747	34.51
3.76413	34.52
3.78080	34.52
3.79747	34.54
3.81413	34.49
3.83080	34.52
3.84747	34.52
3.86413	34.49
3.88080	34.52
3.89747	34.53
3.91413	34.52
3.93080	34.52
3.94747	34.52
3.96413	34.55
3.98080	34.52
3.99747	34.53

[Status Trace (Column Flow)]
Interval(msec)	1000
# of Points	240
Start Time(min)	0.014
End Time(min)	3.997
Intensity Units	
Intensity Multiplier	1
R.Time (min)	Intensity
0.01413	5.46
0.03080	5.24
0.04747	5.51
0.06413	5.74
0.08080	5.62
0.09747	5.52
0.11413	5.53
0.13080	5.53
0.14747	5.53
0.16413	5.53
0.18080	5.53
0.19747	5.53
0.21413	5.53
0.23080	5.53
0.24747	5.53
0.26413	5.53
0.28080	5.53
0.29747	5.53
0.31413	5.53
0.33080	5.53
0.34747	5.53
0.36413	5.53
0.38080	5.53
0.39747	5.53
0.41413	5.53
0.43080	5.53
0.44747	5.53
0.46413	5.53
0.48080	5.53
0.49747	5.53
0.51413	5.53
0.53080	5.53
0.54747	5.53
0.56413	5.53
0.58080	5.53
0.59747	5.53
0.61413	5.53
0.63080	5.53
0.64747	5.53
0.66413	5.53
0.68080	5.53
0.69747	5.53
0.71413	5.53
0.73080	5.53
0.74747	5.53
0.76413	5.53
0.78080	5.53
0.79747	5.53
0.81413	5.53
0.83080	5.53
0.84747	5.53
0.86413	5.53
0.88080	5.53
0.89747	5.53
0.91413	5.53
0.93080	5.53
0.94747	5.53
0.96413	5.53
0.98080	5.53
0.99747	5.53
1.01413	5.53
1.03080	5.53
1.04747	5.53
1.06413	5.53
1.08080	5.53
1.09747	5.53
1.11413	5.53
1.13080	5.53
1.14747	5.53
1.16413	5.53
1.18080	5.53
1.19747	5.53
1.21413	5.53
1.23080	5.53
1.24747	5.53
1.26413	5.53
1.28080	5.53
1.29747	5.53
1.31413	5.53
1.33080	5.53
1.34747	5.53
1.36413	5.53
1.38080	5.53
1.39747	5.53
1.41413	5.53
1.43080	5.53
1.44747	5.53
1.46413	5.53
1.48080	5.53
1.49747	5.53
1.51413	5.53
1.53080	5.53
1.54747	5.53
1.56413	5.53
1.58080	5.52
1.59747	5.52
1.61413	5.52
1.63080	5.52
1.64747	5.51
1.66413	5.50
1.68080	5.49
1.69747	5.48
1.71413	5.47
1.73080	5.46
1.74747	5.45
1.76413	5.44
1.78080	5.43
1.79747	5.42
1.81413	5.41
1.83080	5.40
1.84747	5.39
1.86413	5.38
1.88080	5.37
1.89747	5.36
1.91413	5.35
1.93080	5.34
1.94747	5.33
1.96413	5.32
1.98080	5.31
1.99747	5.30
2.01413	5.29
2.03080	5.28
2.04747	5.27
2.06413	5.26
2.08080	5.25
2.09747	5.24
2.11413	5.23
2.13080	5.22
2.14747	5.21
2.16413	5.21
2.18080	5.20
2.19747	5.19
2.21413	5.18
2.23080	5.17
2.24747	5.16
2.26413	5.15
2.28080	5.14
2.29747	5.13
2.31413	5.12
2.33080	5.11
2.34747	5.10
2.36413	5.10
2.38080	5.09
2.39747	5.09
2.41413	5.09
2.43080	5.09
2.44747	5.09
2.46413	5.09
2.48080	5.09
2.49747	5.09
2.51413	5.09
2.53080	5.09
2.54747	5.09
2.56413	5.09
2.58080	5.09
2.59747	5.09
2.61413	5.09
2.63080	5.09
2.64747	5.09
2.66413	5.09
2.68080	5.09
2.69747	5.09
2.71413	5.09
2.73080	5.09
2.74747	5.09
2.76413	5.09
2.78080	5.09
2.79747	5.09
2.81413	5.09
2.83080	5.09
2.84747	5.08
2.86413	5.08
2.88080	5.08
2.89747	5.08
2.91413	5.08
2.93080	5.08
2.94747	5.08
2.96413	5.08
2.98080	5.08
2.99747	5.08
3.01413	5.08
3.03080	5.08
3.04747	5.08
3.06413	5.08
3.08080	5.08
3.09747	5.08
3.11413	5.08
3.13080	5.08
3.14747	5.08
3.16413	5.08
3.18080	5.08
3.19747	5.08
3.21413	5.08
3.23080	5.08
3.24747	5.08
3.26413	5.08
3.28080	5.08
3.29747	5.08
3.31413	5.08
3.33080	5.08
3.34747	5.08
3.36413	5.08
3.38080	5.08
3.39747	5.08
3.41413	5.08
3.43080	5.08
3.44747	5.08
3.46413	5.08
3.48080	5.08
3.49747	5.08
3.51413	5.08
3.53080	5.08
3.54747	5.08
3.56413	5.08
3.58080	5.08
3.59747	5.08
3.61413	5.08
3.63080	5.08
3.64747	5.08
3.66413	5.08
3.68080	5.08
3.69747	5.08
3.71413	5.08
3.73080	5.08
3.74747	5.08
3.76413	5.08
3.78080	5.08
3.79747	5.08
3.81413	5.08
3.83080	5.08
3.84747	5.08
3.86413	5.08
3.88080	5.08
3.89747	5.08
3.91413	5.08
3.93080	5.08
3.94747	5.08
3.96413	5.08
3.98080	5.08
3.99747	5.08

[Status Trace (Linear Velocity)]
Interval(msec)	1000
# of Points	240
Start Time(min)	0.014
End Time(min)	3.997
Intensity Units	
Intensity Multiplier	1
R.Time (min)	Intensity
0.01413	38.65
0.03080	37.40
0.04747	38.92
0.06413	40.20
0.08080	39.57
0.09747	39.01
0.11413	39.01
0.13080	39.03
0.14747	39.02
0.16413	39.02
0.18080	39.02
0.19747	39.02
0.21413	39.02
0.23080	39.02
0.24747	39.02
0.26413	39.02
0.28080	39.02
0.29747	39.02
0.31413	39.02
0.33080	39.02
0.34747	39.02
0.36413	39.02
0.38080	39.02
0.39747	39.02
0.41413	39.02
0.43080	39.02
0.44747	39.02
0.46413	39.02
0.48080	39.02
0.49747	39.02
0.51413	39.02
0.53080	39.02
0.54747	39.02
0.56413	39.02
0.58080	39.02
0.59747	39.02
0.61413	39.02
0.63080	39.02
0.64747	39.02
0.66413	39.02
0.68080	39.02
0.69747	39.02
0.71413	39.02
0.73080	39.02
0.74747	39.02
0.76413	39.02
0.78080	39.02
0.79747	39.02
0.81413	39.02
0.83080	39.02
0.84747	39.02
0.86413	39.02
0.88080	39.02
0.89747	39.02
0.91413	39.02
0.93080	39.02
0.94747	39.02
0.96413	39.02
0.98080	39.02
0.99747	39.02
1.01413	39.02
1.03080	39.02
1.04747	39.02
1.06413	39.02
1.08080	39.02
1.09747	39.02
1.11413	39.02
1.13080	39.02
1.14747	39.02
1.16413	39.02
1.18080	39.02
1.19747	39.02
1.21413	39.02
1.23080	39.02
1.24747	39.02
1.26413	39.02
1.28080	39.02
1.29747	39.02
1.31413	39.02
1.33080	39.02
1.34747	39.02
1.36413	39.02
1.38080	39.02
1.39747	39.02
1.41413	39.02
1.43080	39.02
1.44747	39.02
1.46413	39.02
1.48080	39.02
1.49747	39.02
1.51413	39.02
1.53080	39.02
1.54747	39.02
1.56413	39.02
1.58080	39.02
1.59747	39.01
1.61413	39.01
1.63080	39.00
1.64747	38.98
1.66413	38.95
1.68080	38.92
1.69747	38.89
1.71413	38.85
1.73080	38.81
1.74747	38.79
1.76413	38.75
1.78080	38.72
1.79747	38.69
1.81413	38.66
1.83080	38.62
1.84747	38.60
1.86413	38.57
1.88080	38.53
1.89747	38.50
1.91413	38.47
1.93080	38.44
1.94747	38.41
1.96413	38.38
1.98080	38.35
1.99747	38.32
2.01413	38.29
2.03080	38.26
2.04747	38.23
2.06413	38.20
2.08080	38.17
2.09747	38.14
2.11413	38.11
2.13080	38.08
2.14747	38.05
2.16413	38.02
2.18080	37.99
2.19747	37.96
2.21413	37.93
2.23080	37.90
2.24747	37.87
2.26413	37.84
2.28080	37.82
2.29747	37.79
2.31413	37.76
2.33080	37.73
2.34747	37.70
2.36413	37.68
2.38080	37.66
2.39747	37.65
2.41413	37.66
2.43080	37.66
2.44747	37.66
2.46413	37.66
2.48080	37.66
2.49747	37.66
2.51413	37.65
2.53080	37.64
2.54747	37.65
2.56413	37.65
2.58080	37.65
2.59747	37.65
2.61413	37.65
2.63080	37.65
2.64747	37.65
2.66413	37.65
2.68080	37.65
2.69747	37.65
2.71413	37.65
2.73080	37.65
2.74747	37.65
2.76413	37.64
2.78080	37.64
2.79747	37.64
2.81413	37.64
2.83080	37.64
2.84747	37.64
2.86413	37.64
2.88080	37.64
2.89747	37.64
2.91413	37.64
2.93080	37.64
2.94747	37.64
2.96413	37.64
2.98080	37.64
2.99747	37.63
3.01413	37.63
3.03080	37.63
3.04747	37.63
3.06413	37.63
3.08080	37.63
3.09747	37.63
3.11413	37.63
3.13080	37.63
3.14747	37.63
3.16413	37.63
3.18080	37.62
3.19747	37.62
3.21413	37.62
3.23080	37.62
3.24747	37.63
3.26413	37.63
3.28080	37.63
3.29747	37.63
3.31413	37.63
3.33080	37.63
3.34747	37.63
3.36413	37.63
3.38080	37.63
3.39747	37.63
3.41413	37.63
3.43080	37.63
3.44747	37.63
3.46413	37.63
3.48080	37.63
3.49747	37.63
3.51413	37.63
3.53080	37.63
3.54747	37.63
3.56413	37.63
3.58080	37.63
3.59747	37.63
3.61413	37.63
3.63080	37.63
3.64747	37.63
3.66413	37.63
3.68080	37.63
3.69747	37.63
3.71413	37.63
3.73080	37.63
3.74747	37.63
3.76413	37.63
3.78080	37.63
3.79747	37.63
3.81413	37.63
3.83080	37.63
3.84747	37.63
3.86413	37.63
3.88080	37.63
3.89747	37.63
3.91413	37.63
3.93080	37.63
3.94747	37.63
3.96413	37.63
3.98080	37.63
3.99747	37.63

