[Header]
Application Name	LabSolutions
Version	5.110
Data File Name	C:\Users\User\Desktop\GC Analyses\Jack\UIC Prairie Sampling\9.16.22\220916_016.gcd
Output Date	11/29/2022
Output Time	11:10:16 AM

[File Information]
Type	Data File
Generated	11/10/2022 3:17:28 PM
Generated by	System Administrator
Modified	11/10/2022 3:21:45 PM
Modified by	System Administrator

[Sample Information]
Operator Name	System Administrator
Acquired	11/10/2022 3:17:44 PM
Sample Type	1:Standard
Level	1
Sample Name	220916_UICPrairie
Sample ID	220916_UICPrairie
ISTD Amount1	1
ISTD Amount2	1
ISTD Amount3	1
ISTD Amount4	1
ISTD Amount5	1
ISTD Amount6	1
ISTD Amount7	1
ISTD Amount8	1
ISTD Amount9	1
ISTD Amount10	1
ISTD Amount11	1
ISTD Amount12	1
ISTD Amount13	1
ISTD Amount14	1
ISTD Amount15	1
ISTD Amount16	1
ISTD Amount17	1
ISTD Amount18	1
ISTD Amount19	1
ISTD Amount20	1
ISTD Amount21	1
ISTD Amount22	1
ISTD Amount23	1
ISTD Amount24	1
ISTD Amount25	1
ISTD Amount26	1
ISTD Amount27	1
ISTD Amount28	1
ISTD Amount29	1
ISTD Amount30	1
ISTD Amount31	1
ISTD Amount32	1
Sample Amount	1
Dilution Factor	1
Vial#	1
Injection Volume	1
Injection Count	1
Bar Code	

[Original Files]
Data File	C:\Users\User\Desktop\GC Analyses\Jack\UIC Prairie Sampling\9.16.22\220916_016.gcd
Method File	C:\LabSolutions\Data\GHG_4min_2022\ghg3_togas_w_acet_4 min_new_int.gcm
Batch File	
Report Format File	c:\LabSolutions\System\DEFAULT.lsr

[File Description]


[Configuration]
Instrument Name	C0B7VH3-Instrument1
Instrument #	1
Line #	1
# of Detectors	3
Detector ID	DET#1	DET#2	DET#3
Detector Name	FID	PTCD	ECD
# of Channels	1	1	1

[Peak Table(Ch1)]
# of Peaks	3
Peak#	R.Time	I.Time	F.Time	Area	Height	A/H	Conc.	Mark	ID#	Name	k'	Plate #	Plate Ht.	Tailing	Resolution	Sep.Factor	Area Ratio	Height Ratio	Conc. %	Norm Conc.
1	1.465	1.435	1.531	3636	1206	3.015	100.000	   	1	CO	0.000	5484	27.355	0.000	0.000	0.000	0	0	16.667	16.667
2	1.567	1.531	1.633	20162	10257	1.966	100.000	 V 	2	CH4	0.070	11505	13.038	1.207	1.493	0.000	0	0	16.667	16.667
3	1.996	1.949	2.429	2078002	1005338	2.067	400.000	   	3	CO2	0.363	17537	8.553	1.209	7.225	5.179	0	0	66.667	66.667

[Peak Table(Ch2)]
# of Peaks	0

[Peak Table(Ch3)]
# of Peaks	3
Peak#	R.Time	I.Time	F.Time	Area	Height	A/H	Conc.	Mark	ID#	Name	k'	Plate #	Plate Ht.	Tailing	Resolution	Sep.Factor	Area Ratio	Height Ratio	Conc. %	Norm Conc.
1	2.462	1.373	2.510	11794	450	26.223	0.000	   			0.000	104	1444.820	0.000	0.000	0.000	0	0	0.000	0.000
2	2.521	2.510	2.649	2382	399	5.967	0.000	 V 			0.024	419	358.256	0.000	0.080	0.000	0	0	0.000	0.000
3	2.876	2.660	3.536	67610	16216	4.169	1.000	   	1	N2O	0.168	12361	12.135	1.662	1.193	7.063	0	0	100.000	100.000

[Compound Results(Ch1)]
# of IDs	6
ID#	Name	R.Time	Area	Height	Conc.	Curve	3rd	2nd	1st	Constant	Area Ratio	Height Ratio	Conc. %	Norm Conc.
1	CO	1.465	3636	1206	100.000	Linear	0.000000e+00	0.000000e+00	3.635634e+001	0.000000e+00	0	0	16.667	16.667
2	CH4	1.567	20162	10257	100.000	Linear	0.000000e+00	0.000000e+00	2.016222e+002	0.000000e+00	0	0	16.667	16.667
3	CO2	1.996	2078002	1005338	400.000	Linear	0.000000e+00	0.000000e+00	5.195005e+003	0.000000e+00	0	0	66.667	66.667
4	Ethylene	0.000	0	0	0.000	Linear	0.000000e+00	0.000000e+00	0.000000e+00	0.000000e+00	0	0	0.000	0.000
5	Acetylene	0.000	0	0	0.000	Linear	0.000000e+00	0.000000e+00	0.000000e+00	0.000000e+00	0	0	0.000	0.000
6	Ethane	0.000	0	0	0.000	Linear	0.000000e+00	0.000000e+00	0.000000e+00	0.000000e+00	0	0	0.000	0.000

[Compound Results(Ch2)]
# of IDs	5
ID#	Name	R.Time	Area	Height	Conc.	Curve	3rd	2nd	1st	Constant	Area Ratio	Height Ratio	Conc. %	Norm Conc.
1	Hydrogen	0.000	0	0	0.000	Linear	0.000000e+00	0.000000e+00	0.000000e+00	0.000000e+00	0	0	0.000	0.000
2	Oxygen	0.000	0	0	0.000	Linear	0.000000e+00	0.000000e+00	0.000000e+00	0.000000e+00	0	0	0.000	0.000
3	Nitrogen	0.000	0	0	0.000	Linear	0.000000e+00	0.000000e+00	0.000000e+00	0.000000e+00	0	0	0.000	0.000
4	Methane	0.000	0	0	0.000	Linear	0.000000e+00	0.000000e+00	0.000000e+00	0.000000e+00	0	0	0.000	0.000
5	Carbon Monoxide	0.000	0	0	0.000	Linear	0.000000e+00	0.000000e+00	0.000000e+00	0.000000e+00	0	0	0.000	0.000

[Compound Results(Ch3)]
# of IDs	2
ID#	Name	R.Time	Area	Height	Conc.	Curve	3rd	2nd	1st	Constant	Area Ratio	Height Ratio	Conc. %	Norm Conc.
1	N2O	2.876	67610	16216	1.000	Linear	0.000000e+00	0.000000e+00	6.760953e+004	0.000000e+00	0	0	100.000	100.000
2	SF6	0.000	0	0	0.000	Linear	0.000000e+00	0.000000e+00	0.000000e+00	0.000000e+00	0	0	0.000	0.000

[Group Results(Ch1)]
# of Groups	0

[Group Results(Ch2)]
# of Groups	0

[Group Results(Ch3)]
# of Groups	0

[Chromatogram (Ch1)]
Interval(msec)	220
# of Points	1091
Start Time(min)	0.002
End Time(min)	3.998
R.Time (min)	Intensity
0.00167	18
0.00533	20
0.00900	20
0.01267	18
0.01633	16
0.02000	11
0.02367	7
0.02733	4
0.03100	4
0.03467	6
0.03833	9
0.04200	9
0.04567	5
0.04933	2
0.05300	2
0.05667	9
0.06033	13
0.06400	15
0.06767	15
0.07133	18
0.07500	19
0.07867	14
0.08233	10
0.08600	9
0.08967	7
0.09333	6
0.09700	9
0.10067	14
0.10433	19
0.10800	24
0.11167	29
0.11533	35
0.11900	39
0.12267	40
0.12633	34
0.13000	23
0.13367	13
0.13733	7
0.14100	5
0.14467	6
0.14833	9
0.15200	13
0.15567	16
0.15933	15
0.16300	14
0.16667	14
0.17033	17
0.17400	20
0.17767	19
0.18133	12
0.18500	3
0.18867	-4
0.19233	-8
0.19600	-8
0.19967	-4
0.20333	1
0.20700	1
0.21067	-2
0.21433	-4
0.21800	-3
0.22167	-2
0.22533	-4
0.22900	-4
0.23267	2
0.23633	10
0.24000	12
0.24367	13
0.24733	12
0.25100	11
0.25467	11
0.25833	10
0.26200	6
0.26567	1
0.26933	-3
0.27300	-7
0.27667	-13
0.28033	-20
0.28400	-23
0.28767	-23
0.29133	-18
0.29500	-12
0.29867	-4
0.30233	4
0.30600	12
0.30967	17
0.31333	18
0.31700	12
0.32067	3
0.32433	-7
0.32800	-13
0.33167	-12
0.33533	-9
0.33900	-10
0.34267	-13
0.34633	-16
0.35000	-18
0.35367	-19
0.35733	-17
0.36100	-16
0.36467	-16
0.36833	-15
0.37200	-14
0.37567	-11
0.37933	-9
0.38300	-10
0.38667	-14
0.39033	-14
0.39400	-13
0.39767	-12
0.40133	-11
0.40500	-7
0.40867	-3
0.41233	4
0.41600	9
0.41967	10
0.42333	11
0.42700	11
0.43067	6
0.43433	-1
0.43800	-9
0.44167	-13
0.44533	-15
0.44900	-16
0.45267	-16
0.45633	-14
0.46000	-7
0.46367	0
0.46733	4
0.47100	3
0.47467	-3
0.47833	-11
0.48200	-17
0.48567	-17
0.48933	-15
0.49300	-15
0.49667	-20
0.50033	-28
0.50400	-35
0.50767	-40
0.51133	-44
0.51500	-48
0.51867	-48
0.52233	-47
0.52600	-44
0.52967	-42
0.53333	-42
0.53700	-42
0.54067	-42
0.54433	-41
0.54800	-36
0.55167	-30
0.55533	-21
0.55900	-14
0.56267	-8
0.56633	-5
0.57000	-3
0.57367	-2
0.57733	-0
0.58100	0
0.58467	-2
0.58833	-7
0.59200	-12
0.59567	-20
0.59933	-28
0.60300	-32
0.60667	-30
0.61033	-24
0.61400	-17
0.61767	-12
0.62133	-13
0.62500	-20
0.62867	-28
0.63233	-36
0.63600	-39
0.63967	-37
0.64333	-32
0.64700	-27
0.65067	-27
0.65433	-27
0.65800	-24
0.66167	-20
0.66533	-17
0.66900	-16
0.67267	-17
0.67633	-19
0.68000	-19
0.68367	-20
0.68733	-27
0.69100	-36
0.69467	-42
0.69833	-46
0.70200	-46
0.70567	-45
0.70933	-42
0.71300	-38
0.71667	-34
0.72033	-29
0.72400	-23
0.72767	-16
0.73133	-12
0.73500	-13
0.73867	-18
0.74233	-26
0.74600	-32
0.74967	-34
0.75333	-35
0.75700	-35
0.76067	-33
0.76433	-30
0.76800	-27
0.77167	-25
0.77533	-24
0.77900	-28
0.78267	-31
0.78633	-37
0.79000	-40
0.79367	-38
0.79733	-32
0.80100	-29
0.80467	-28
0.80833	-31
0.81200	-34
0.81567	-39
0.81933	-39
0.82300	-38
0.82667	-38
0.83033	-39
0.83400	-40
0.83767	-41
0.84133	-40
0.84500	-39
0.84867	-36
0.85233	-32
0.85600	-27
0.85967	-22
0.86333	-21
0.86700	-23
0.87067	-26
0.87433	-31
0.87800	-37
0.88167	-40
0.88533	-42
0.88900	-40
0.89267	-37
0.89633	-36
0.90000	-36
0.90367	-37
0.90733	-40
0.91100	-45
0.91467	-51
0.91833	-55
0.92200	-55
0.92567	-54
0.92933	-51
0.93300	-51
0.93667	-52
0.94033	-49
0.94400	-46
0.94767	-42
0.95133	-37
0.95500	-32
0.95867	-27
0.96233	-25
0.96600	-25
0.96967	-26
0.97333	-27
0.97700	-33
0.98067	-43
0.98433	-53
0.98800	-57
0.99167	-55
0.99533	-52
0.99900	-52
1.00267	-52
1.00633	-49
1.01000	-45
1.01367	-45
1.01733	-39
1.02100	-34
1.02467	-33
1.02833	-34
1.03200	-35
1.03567	-35
1.03933	-35
1.04300	-35
1.04667	-35
1.05033	-37
1.05400	-37
1.05767	-38
1.06133	-38
1.06500	-37
1.06867	-36
1.07233	-35
1.07600	-35
1.07967	-37
1.08333	-39
1.08700	-41
1.09067	-40
1.09433	-37
1.09800	-34
1.10167	-37
1.10533	-45
1.10900	-52
1.11267	-56
1.11633	-51
1.12000	-46
1.12367	-45
1.12733	-46
1.13100	-48
1.13467	-52
1.13833	-59
1.14200	-66
1.14567	-69
1.14933	-69
1.15300	-68
1.15667	-64
1.16033	-63
1.16400	-63
1.16767	-64
1.17133	-64
1.17500	-60
1.17867	-56
1.18233	-54
1.18600	-53
1.18967	-51
1.19333	-48
1.19700	-45
1.20067	-44
1.20433	-46
1.20800	-49
1.21167	-45
1.21533	-34
1.21900	-29
1.22267	-33
1.22633	-41
1.23000	-51
1.23367	-60
1.23733	-67
1.24100	-74
1.24467	-76
1.24833	-74
1.25200	-71
1.25567	-72
1.25933	-74
1.26300	-72
1.26667	-65
1.27033	-55
1.27400	-51
1.27767	-53
1.28133	-58
1.28500	-64
1.28867	-66
1.29233	-64
1.29600	-62
1.29967	-61
1.30333	-62
1.30700	-63
1.31067	-67
1.31433	-70
1.31800	-72
1.32167	-69
1.32533	-64
1.32900	-60
1.33267	-57
1.33633	-54
1.34000	-56
1.34367	-62
1.34733	-66
1.35100	-69
1.35467	-72
1.35833	-74
1.36200	-76
1.36567	-76
1.36933	-74
1.37300	-72
1.37667	-71
1.38033	-73
1.38400	-76
1.38767	-77
1.39133	-76
1.39500	-68
1.39867	-57
1.40233	-46
1.40600	-43
1.40967	-48
1.41333	-60
1.41700	-70
1.42067	-77
1.42433	-80
1.42800	-81
1.43167	-79
1.43533	-73
1.43900	-37
1.44267	95
1.44633	340
1.45000	624
1.45367	862
1.45733	1020
1.46100	1104
1.46467	1135
1.46833	1134
1.47200	1116
1.47567	1090
1.47933	1050
1.48300	985
1.48667	890
1.49033	775
1.49400	649
1.49767	523
1.50133	411
1.50500	314
1.50867	230
1.51233	162
1.51600	111
1.51967	75
1.52333	48
1.52700	27
1.53067	14
1.53433	22
1.53800	130
1.54167	559
1.54533	1598
1.54900	3282
1.55267	5286
1.55633	7192
1.56000	8732
1.56367	9772
1.56733	10193
1.57100	9863
1.57467	8791
1.57833	7219
1.58200	5531
1.58567	4014
1.58933	2794
1.59300	1890
1.59667	1249
1.60033	805
1.60400	504
1.60767	303
1.61133	171
1.61500	82
1.61867	22
1.62233	-19
1.62600	-43
1.62967	-55
1.63333	-60
1.63700	-65
1.64067	-69
1.64433	-73
1.64800	-78
1.65167	-82
1.65533	-83
1.65900	-85
1.66267	-87
1.66633	-91
1.67000	-96
1.67367	-98
1.67733	-99
1.68100	-98
1.68467	-96
1.68833	-91
1.69200	-87
1.69567	-87
1.69933	-86
1.70300	-86
1.70667	-86
1.71033	-86
1.71400	-86
1.71767	-90
1.72133	-94
1.72500	-99
1.72867	-101
1.73233	-102
1.73600	-102
1.73967	-104
1.74333	-109
1.74700	-112
1.75067	-114
1.75433	-113
1.75800	-113
1.76167	-114
1.76533	-110
1.76900	-104
1.77267	-99
1.77633	-97
1.78000	-99
1.78367	-100
1.78733	-99
1.79100	-97
1.79467	-98
1.79833	-100
1.80200	-99
1.80567	-97
1.80933	-97
1.81300	-99
1.81667	-103
1.82033	-110
1.82400	-113
1.82767	-113
1.83133	-111
1.83500	-109
1.83867	-105
1.84233	-101
1.84600	-102
1.84967	-103
1.85333	-102
1.85700	-98
1.86067	-93
1.86433	-89
1.86800	-82
1.87167	-77
1.87533	-75
1.87900	-78
1.88267	-85
1.88633	-93
1.89000	-100
1.89367	-106
1.89733	-110
1.90100	-113
1.90467	-114
1.90833	-113
1.91200	-113
1.91567	-114
1.91933	-115
1.92300	-113
1.92667	-108
1.93033	-102
1.93400	-95
1.93767	-90
1.94133	-84
1.94500	-80
1.94867	-76
1.95233	-33
1.95600	292
1.95967	2084
1.96333	9576
1.96700	33312
1.97067	90889
1.97433	199326
1.97800	359810
1.98167	550463
1.98533	737261
1.98900	888558
1.99267	981856
1.99633	1005293
2.00000	958201
2.00367	852864
2.00733	711908
2.01100	560979
2.01467	421089
2.01833	304331
2.02200	214102
2.02567	148136
2.02933	101735
2.03300	69928
2.03667	48473
2.04033	34116
2.04400	24515
2.04767	18060
2.05133	13678
2.05500	10652
2.05867	8525
2.06233	6995
2.06600	5867
2.06967	5016
2.07333	4359
2.07700	3840
2.08067	3422
2.08433	3080
2.08800	2798
2.09167	2559
2.09533	2353
2.09900	2172
2.10267	2015
2.10633	1878
2.11000	1756
2.11367	1646
2.11733	1545
2.12100	1453
2.12467	1365
2.12833	1292
2.13200	1233
2.13567	1185
2.13933	1142
2.14300	1100
2.14667	1055
2.15033	1011
2.15400	968
2.15767	927
2.16133	891
2.16500	863
2.16867	839
2.17233	819
2.17600	801
2.17967	781
2.18333	755
2.18700	728
2.19067	702
2.19433	676
2.19800	652
2.20167	630
2.20533	608
2.20900	590
2.21267	578
2.21633	567
2.22000	557
2.22367	547
2.22733	537
2.23100	529
2.23467	522
2.23833	514
2.24200	500
2.24567	482
2.24933	466
2.25300	454
2.25667	445
2.26033	437
2.26400	430
2.26767	422
2.27133	416
2.27500	410
2.27867	406
2.28233	401
2.28600	394
2.28967	390
2.29333	384
2.29700	371
2.30067	365
2.30433	365
2.30800	366
2.31167	360
2.31533	358
2.31900	355
2.32267	349
2.32633	342
2.33000	337
2.33367	332
2.33733	329
2.34100	327
2.34467	320
2.34833	308
2.35200	294
2.35567	291
2.35933	297
2.36300	297
2.36667	293
2.37033	288
2.37400	282
2.37767	276
2.38133	271
2.38500	267
2.38867	267
2.39233	269
2.39600	272
2.39967	272
2.40333	271
2.40700	267
2.41067	262
2.41433	258
2.41800	253
2.42167	246
2.42533	241
2.42900	239
2.43267	239
2.43633	239
2.44000	243
2.44367	247
2.44733	250
2.45100	250
2.45467	252
2.45833	255
2.46200	255
2.46567	252
2.46933	247
2.47300	242
2.47667	237
2.48033	231
2.48400	226
2.48767	222
2.49133	221
2.49500	222
2.49867	225
2.50233	227
2.50600	228
2.50967	229
2.51333	227
2.51700	221
2.52067	212
2.52433	200
2.52800	189
2.53167	181
2.53533	174
2.53900	172
2.54267	170
2.54633	170
2.55000	175
2.55367	181
2.55733	185
2.56100	189
2.56467	193
2.56833	195
2.57200	195
2.57567	196
2.57933	194
2.58300	190
2.58667	186
2.59033	183
2.59400	180
2.59767	176
2.60133	174
2.60500	173
2.60867	172
2.61233	172
2.61600	174
2.61967	176
2.62333	179
2.62700	180
2.63067	182
2.63433	184
2.63800	186
2.64167	189
2.64533	193
2.64900	195
2.65267	192
2.65633	183
2.66000	175
2.66367	171
2.66733	170
2.67100	169
2.67467	170
2.67833	171
2.68200	173
2.68567	171
2.68933	168
2.69300	166
2.69667	167
2.70033	166
2.70400	167
2.70767	168
2.71133	171
2.71500	175
2.71867	173
2.72233	179
2.72600	186
2.72967	187
2.73333	180
2.73700	174
2.74067	173
2.74433	174
2.74800	174
2.75167	175
2.75533	169
2.75900	164
2.76267	165
2.76633	162
2.77000	158
2.77367	155
2.77733	153
2.78100	155
2.78467	158
2.78833	160
2.79200	161
2.79567	158
2.79933	152
2.80300	147
2.80667	147
2.81033	152
2.81400	158
2.81767	163
2.82133	164
2.82500	162
2.82867	161
2.83233	163
2.83600	168
2.83967	173
2.84333	173
2.84700	169
2.85067	163
2.85433	157
2.85800	153
2.86167	148
2.86533	146
2.86900	148
2.87267	151
2.87633	156
2.88000	162
2.88367	169
2.88733	176
2.89100	180
2.89467	179
2.89833	173
2.90200	167
2.90567	165
2.90933	166
2.91300	168
2.91667	170
2.92033	171
2.92400	173
2.92767	176
2.93133	179
2.93500	182
2.93867	184
2.94233	185
2.94600	186
2.94967	188
2.95333	189
2.95700	188
2.96067	184
2.96433	186
2.96800	190
2.97167	192
2.97533	193
2.97900	195
2.98267	192
2.98633	185
2.99000	177
2.99367	170
2.99733	162
3.00100	156
3.00467	155
3.00833	155
3.01200	157
3.01567	161
3.01933	165
3.02300	166
3.02667	167
3.03033	169
3.03400	171
3.03767	172
3.04133	171
3.04500	172
3.04867	176
3.05233	181
3.05600	182
3.05967	181
3.06333	181
3.06700	182
3.07067	180
3.07433	177
3.07800	172
3.08167	170
3.08533	173
3.08900	182
3.09267	193
3.09633	201
3.10000	202
3.10367	201
3.10733	198
3.11100	192
3.11467	186
3.11833	180
3.12200	178
3.12567	179
3.12933	181
3.13300	180
3.13667	175
3.14033	172
3.14400	171
3.14767	169
3.15133	165
3.15500	164
3.15867	167
3.16233	168
3.16600	169
3.16967	174
3.17333	179
3.17700	183
3.18067	184
3.18433	183
3.18800	182
3.19167	183
3.19533	186
3.19900	189
3.20267	188
3.20633	187
3.21000	186
3.21367	186
3.21733	186
3.22100	186
3.22467	182
3.22833	177
3.23200	172
3.23567	166
3.23933	161
3.24300	158
3.24667	156
3.25033	155
3.25400	155
3.25767	156
3.26133	158
3.26500	158
3.26867	156
3.27233	154
3.27600	155
3.27967	156
3.28333	163
3.28700	170
3.29067	174
3.29433	177
3.29800	180
3.30167	181
3.30533	179
3.30900	178
3.31267	176
3.31633	174
3.32000	172
3.32367	168
3.32733	168
3.33100	174
3.33467	182
3.33833	189
3.34200	192
3.34567	191
3.34933	187
3.35300	184
3.35667	179
3.36033	170
3.36400	162
3.36767	157
3.37133	153
3.37500	150
3.37867	148
3.38233	152
3.38600	156
3.38967	157
3.39333	156
3.39700	154
3.40067	155
3.40433	155
3.40800	154
3.41167	153
3.41533	153
3.41900	153
3.42267	154
3.42633	150
3.43000	146
3.43367	148
3.43733	151
3.44100	152
3.44467	149
3.44833	147
3.45200	148
3.45567	151
3.45933	155
3.46300	159
3.46667	161
3.47033	161
3.47400	161
3.47767	158
3.48133	155
3.48500	153
3.48867	154
3.49233	155
3.49600	155
3.49967	154
3.50333	153
3.50700	153
3.51067	154
3.51433	154
3.51800	152
3.52167	154
3.52533	156
3.52900	159
3.53267	159
3.53633	157
3.54000	155
3.54367	154
3.54733	153
3.55100	150
3.55467	147
3.55833	145
3.56200	145
3.56567	149
3.56933	152
3.57300	154
3.57667	156
3.58033	158
3.58400	159
3.58767	159
3.59133	161
3.59500	163
3.59867	163
3.60233	159
3.60600	153
3.60967	147
3.61333	142
3.61700	138
3.62067	135
3.62433	132
3.62800	130
3.63167	130
3.63533	131
3.63900	133
3.64267	137
3.64633	140
3.65000	139
3.65367	135
3.65733	134
3.66100	134
3.66467	137
3.66833	139
3.67200	139
3.67567	137
3.67933	136
3.68300	140
3.68667	142
3.69033	146
3.69400	148
3.69767	147
3.70133	142
3.70500	135
3.70867	130
3.71233	128
3.71600	131
3.71967	134
3.72333	137
3.72700	142
3.73067	149
3.73433	155
3.73800	160
3.74167	159
3.74533	152
3.74900	144
3.75267	141
3.75633	140
3.76000	139
3.76367	135
3.76733	128
3.77100	123
3.77467	118
3.77833	109
3.78200	101
3.78567	101
3.78933	106
3.79300	112
3.79667	118
3.80033	122
3.80400	126
3.80767	130
3.81133	135
3.81500	136
3.81867	134
3.82233	130
3.82600	125
3.82967	121
3.83333	117
3.83700	115
3.84067	115
3.84433	117
3.84800	121
3.85167	124
3.85533	126
3.85900	126
3.86267	124
3.86633	121
3.87000	119
3.87367	118
3.87733	118
3.88100	119
3.88467	119
3.88833	120
3.89200	121
3.89567	120
3.89933	120
3.90300	121
3.90667	123
3.91033	125
3.91400	127
3.91767	130
3.92133	134
3.92500	140
3.92867	140
3.93233	134
3.93600	126
3.93967	118
3.94333	112
3.94700	110
3.95067	108
3.95433	109
3.95800	110
3.96167	110
3.96533	110
3.96900	111
3.97267	116
3.97633	124
3.98000	130
3.98367	131
3.98733	126
3.99100	119
3.99467	114
3.99833	112

[Chromatogram (Ch2)]
Interval(msec)	220
# of Points	1091
Start Time(min)	0.002
End Time(min)	3.998
R.Time (min)	Intensity
0.00167	-1
0.00533	-1
0.00900	-1
0.01267	-1
0.01633	-2
0.02000	-2
0.02367	-2
0.02733	-2
0.03100	-2
0.03467	-2
0.03833	-2
0.04200	-2
0.04567	-3
0.04933	-3
0.05300	-3
0.05667	-3
0.06033	-3
0.06400	-3
0.06767	-3
0.07133	-3
0.07500	-3
0.07867	-3
0.08233	-3
0.08600	-3
0.08967	-3
0.09333	-4
0.09700	-4
0.10067	-4
0.10433	-5
0.10800	-4
0.11167	-4
0.11533	-4
0.11900	-4
0.12267	-3
0.12633	-3
0.13000	-2
0.13367	-2
0.13733	-2
0.14100	-1
0.14467	-1
0.14833	-1
0.15200	-1
0.15567	-0
0.15933	-0
0.16300	0
0.16667	0
0.17033	1
0.17400	1
0.17767	1
0.18133	1
0.18500	1
0.18867	0
0.19233	0
0.19600	0
0.19967	0
0.20333	0
0.20700	0
0.21067	0
0.21433	0
0.21800	0
0.22167	0
0.22533	0
0.22900	1
0.23267	1
0.23633	1
0.24000	1
0.24367	1
0.24733	1
0.25100	1
0.25467	0
0.25833	0
0.26200	0
0.26567	0
0.26933	0
0.27300	0
0.27667	-0
0.28033	-0
0.28400	-0
0.28767	-0
0.29133	-0
0.29500	-0
0.29867	-0
0.30233	-0
0.30600	-0
0.30967	-0
0.31333	-0
0.31700	-0
0.32067	-0
0.32433	-0
0.32800	-1
0.33167	-1
0.33533	-1
0.33900	-1
0.34267	-1
0.34633	-1
0.35000	-1
0.35367	-1
0.35733	-1
0.36100	-2
0.36467	-2
0.36833	-2
0.37200	-3
0.37567	-3
0.37933	-3
0.38300	-3
0.38667	-3
0.39033	-3
0.39400	-3
0.39767	-3
0.40133	-2
0.40500	-2
0.40867	-2
0.41233	-2
0.41600	-2
0.41967	-2
0.42333	-2
0.42700	-2
0.43067	-2
0.43433	-2
0.43800	-1
0.44167	-1
0.44533	-2
0.44900	-2
0.45267	-2
0.45633	-2
0.46000	-2
0.46367	-2
0.46733	-2
0.47100	-2
0.47467	-3
0.47833	-3
0.48200	-3
0.48567	-3
0.48933	-3
0.49300	-3
0.49667	-3
0.50033	-3
0.50400	-2
0.50767	-2
0.51133	-3
0.51500	-3
0.51867	-3
0.52233	-3
0.52600	-3
0.52967	-3
0.53333	-3
0.53700	-3
0.54067	-3
0.54433	-3
0.54800	-3
0.55167	-3
0.55533	-3
0.55900	-3
0.56267	-3
0.56633	-2
0.57000	-2
0.57367	-2
0.57733	-2
0.58100	-2
0.58467	-2
0.58833	-2
0.59200	-2
0.59567	-2
0.59933	-2
0.60300	-2
0.60667	-2
0.61033	-2
0.61400	-2
0.61767	-2
0.62133	-2
0.62500	-1
0.62867	-1
0.63233	-1
0.63600	-1
0.63967	-1
0.64333	-1
0.64700	-1
0.65067	-1
0.65433	-1
0.65800	-1
0.66167	-1
0.66533	-1
0.66900	-1
0.67267	-1
0.67633	-1
0.68000	-1
0.68367	-1
0.68733	-1
0.69100	-1
0.69467	-1
0.69833	-1
0.70200	-1
0.70567	-1
0.70933	-1
0.71300	-1
0.71667	-1
0.72033	-1
0.72400	-1
0.72767	-1
0.73133	-1
0.73500	-1
0.73867	-1
0.74233	-1
0.74600	-1
0.74967	-1
0.75333	-1
0.75700	-1
0.76067	-1
0.76433	-2
0.76800	-2
0.77167	-2
0.77533	-2
0.77900	-2
0.78267	-3
0.78633	-3
0.79000	-3
0.79367	-3
0.79733	-3
0.80100	-3
0.80467	-3
0.80833	-3
0.81200	-3
0.81567	-3
0.81933	-3
0.82300	-4
0.82667	-4
0.83033	-5
0.83400	-5
0.83767	-5
0.84133	-5
0.84500	-5
0.84867	-5
0.85233	-5
0.85600	-5
0.85967	-4
0.86333	-4
0.86700	-4
0.87067	-4
0.87433	-4
0.87800	-4
0.88167	-4
0.88533	-4
0.88900	-4
0.89267	-4
0.89633	-4
0.90000	-4
0.90367	-4
0.90733	-4
0.91100	-3
0.91467	-3
0.91833	-3
0.92200	-3
0.92567	-3
0.92933	-3
0.93300	-3
0.93667	-3
0.94033	-3
0.94400	-3
0.94767	-3
0.95133	-3
0.95500	-3
0.95867	-3
0.96233	-3
0.96600	-3
0.96967	-3
0.97333	-4
0.97700	-4
0.98067	-4
0.98433	-3
0.98800	-3
0.99167	-3
0.99533	-3
0.99900	-3
1.00267	-3
1.00633	-3
1.01000	-3
1.01367	-3
1.01733	-3
1.02100	-3
1.02467	-3
1.02833	-3
1.03200	-3
1.03567	-3
1.03933	-3
1.04300	-4
1.04667	-4
1.05033	-4
1.05400	-4
1.05767	-4
1.06133	-4
1.06500	-4
1.06867	-4
1.07233	-4
1.07600	-4
1.07967	-4
1.08333	-4
1.08700	-4
1.09067	-4
1.09433	-4
1.09800	-4
1.10167	-4
1.10533	-4
1.10900	-4
1.11267	-4
1.11633	-4
1.12000	-4
1.12367	-4
1.12733	-4
1.13100	-4
1.13467	-4
1.13833	-4
1.14200	-4
1.14567	-4
1.14933	-3
1.15300	-3
1.15667	-3
1.16033	-3
1.16400	-3
1.16767	-3
1.17133	-3
1.17500	-3
1.17867	-3
1.18233	-3
1.18600	-3
1.18967	-3
1.19333	-3
1.19700	-2
1.20067	-2
1.20433	-2
1.20800	-2
1.21167	-2
1.21533	-2
1.21900	-2
1.22267	-1
1.22633	-2
1.23000	-2
1.23367	-1
1.23733	-1
1.24100	-1
1.24467	-1
1.24833	-1
1.25200	-1
1.25567	-1
1.25933	-2
1.26300	-2
1.26667	-2
1.27033	-2
1.27400	-2
1.27767	-3
1.28133	-3
1.28500	-3
1.28867	-3
1.29233	-3
1.29600	-3
1.29967	-3
1.30333	-3
1.30700	-3
1.31067	-3
1.31433	-3
1.31800	-3
1.32167	-3
1.32533	-3
1.32900	-3
1.33267	-3
1.33633	-3
1.34000	-3
1.34367	-3
1.34733	-3
1.35100	-3
1.35467	-3
1.35833	-3
1.36200	-3
1.36567	-3
1.36933	-3
1.37300	-4
1.37667	-4
1.38033	-4
1.38400	-4
1.38767	-4
1.39133	-4
1.39500	-4
1.39867	-4
1.40233	-4
1.40600	-4
1.40967	-4
1.41333	-4
1.41700	-4
1.42067	-4
1.42433	-4
1.42800	-4
1.43167	-4
1.43533	-4
1.43900	-4
1.44267	-4
1.44633	-4
1.45000	-4
1.45367	-4
1.45733	-5
1.46100	-5
1.46467	-4
1.46833	-4
1.47200	-4
1.47567	-4
1.47933	-4
1.48300	-4
1.48667	-4
1.49033	-3
1.49400	-3
1.49767	-4
1.50133	-4
1.50500	-4
1.50867	-4
1.51233	-4
1.51600	-4
1.51967	-4
1.52333	-4
1.52700	-5
1.53067	-5
1.53433	-5
1.53800	-5
1.54167	-5
1.54533	-5
1.54900	-4
1.55267	-4
1.55633	-4
1.56000	-4
1.56367	-4
1.56733	-4
1.57100	-4
1.57467	-4
1.57833	-4
1.58200	-4
1.58567	-4
1.58933	-5
1.59300	-5
1.59667	-6
1.60033	-6
1.60400	-8
1.60767	-9
1.61133	-10
1.61500	-12
1.61867	-15
1.62233	-17
1.62600	-20
1.62967	-23
1.63333	-27
1.63700	-30
1.64067	-34
1.64433	-37
1.64800	-41
1.65167	-44
1.65533	-48
1.65900	-52
1.66267	-56
1.66633	-61
1.67000	-65
1.67367	-70
1.67733	-76
1.68100	-81
1.68467	-86
1.68833	-91
1.69200	-95
1.69567	-99
1.69933	-102
1.70300	-105
1.70667	-107
1.71033	-109
1.71400	-110
1.71767	-111
1.72133	-112
1.72500	-112
1.72867	-112
1.73233	-112
1.73600	-112
1.73967	-112
1.74333	-112
1.74700	-111
1.75067	-111
1.75433	-111
1.75800	-111
1.76167	-112
1.76533	-112
1.76900	-114
1.77267	-115
1.77633	-116
1.78000	-118
1.78367	-119
1.78733	-119
1.79100	-120
1.79467	-120
1.79833	-121
1.80200	-121
1.80567	-121
1.80933	-122
1.81300	-122
1.81667	-123
1.82033	-124
1.82400	-125
1.82767	-125
1.83133	-125
1.83500	-125
1.83867	-125
1.84233	-125
1.84600	-124
1.84967	-124
1.85333	-124
1.85700	-123
1.86067	-123
1.86433	-122
1.86800	-122
1.87167	-122
1.87533	-121
1.87900	-121
1.88267	-121
1.88633	-121
1.89000	-122
1.89367	-122
1.89733	-122
1.90100	-123
1.90467	-123
1.90833	-122
1.91200	-121
1.91567	-121
1.91933	-120
1.92300	-120
1.92667	-120
1.93033	-120
1.93400	-120
1.93767	-120
1.94133	-120
1.94500	-120
1.94867	-121
1.95233	-121
1.95600	-121
1.95967	-122
1.96333	-122
1.96700	-122
1.97067	-121
1.97433	-120
1.97800	-119
1.98167	-119
1.98533	-119
1.98900	-118
1.99267	-118
1.99633	-117
2.00000	-117
2.00367	-116
2.00733	-115
2.01100	-115
2.01467	-115
2.01833	-114
2.02200	-114
2.02567	-114
2.02933	-113
2.03300	-113
2.03667	-112
2.04033	-112
2.04400	-111
2.04767	-111
2.05133	-111
2.05500	-111
2.05867	-111
2.06233	-110
2.06600	-110
2.06967	-110
2.07333	-109
2.07700	-109
2.08067	-109
2.08433	-108
2.08800	-108
2.09167	-107
2.09533	-107
2.09900	-106
2.10267	-106
2.10633	-106
2.11000	-106
2.11367	-106
2.11733	-106
2.12100	-106
2.12467	-107
2.12833	-107
2.13200	-106
2.13567	-106
2.13933	-105
2.14300	-105
2.14667	-105
2.15033	-104
2.15400	-104
2.15767	-104
2.16133	-103
2.16500	-103
2.16867	-103
2.17233	-103
2.17600	-102
2.17967	-102
2.18333	-101
2.18700	-100
2.19067	-99
2.19433	-99
2.19800	-99
2.20167	-98
2.20533	-98
2.20900	-98
2.21267	-98
2.21633	-97
2.22000	-97
2.22367	-97
2.22733	-97
2.23100	-97
2.23467	-96
2.23833	-97
2.24200	-97
2.24567	-97
2.24933	-98
2.25300	-98
2.25667	-98
2.26033	-98
2.26400	-97
2.26767	-96
2.27133	-95
2.27500	-95
2.27867	-94
2.28233	-94
2.28600	-94
2.28967	-94
2.29333	-93
2.29700	-93
2.30067	-92
2.30433	-92
2.30800	-92
2.31167	-92
2.31533	-92
2.31900	-92
2.32267	-91
2.32633	-90
2.33000	-90
2.33367	-89
2.33733	-88
2.34100	-88
2.34467	-87
2.34833	-87
2.35200	-87
2.35567	-87
2.35933	-87
2.36300	-87
2.36667	-87
2.37033	-87
2.37400	-86
2.37767	-84
2.38133	-81
2.38500	-78
2.38867	-74
2.39233	-70
2.39600	-65
2.39967	-60
2.40333	-55
2.40700	-50
2.41067	-45
2.41433	-40
2.41800	-35
2.42167	-31
2.42533	-27
2.42900	-24
2.43267	-22
2.43633	-19
2.44000	-17
2.44367	-15
2.44733	-13
2.45100	-11
2.45467	-10
2.45833	-8
2.46200	-7
2.46567	-5
2.46933	-4
2.47300	-3
2.47667	-3
2.48033	-2
2.48400	-1
2.48767	-1
2.49133	0
2.49500	1
2.49867	2
2.50233	3
2.50600	4
2.50967	5
2.51333	5
2.51700	6
2.52067	7
2.52433	8
2.52800	8
2.53167	9
2.53533	9
2.53900	10
2.54267	10
2.54633	10
2.55000	11
2.55367	11
2.55733	12
2.56100	12
2.56467	13
2.56833	13
2.57200	13
2.57567	13
2.57933	13
2.58300	13
2.58667	13
2.59033	13
2.59400	13
2.59767	14
2.60133	14
2.60500	15
2.60867	15
2.61233	16
2.61600	17
2.61967	17
2.62333	18
2.62700	18
2.63067	18
2.63433	18
2.63800	18
2.64167	18
2.64533	18
2.64900	18
2.65267	18
2.65633	18
2.66000	18
2.66367	18
2.66733	18
2.67100	18
2.67467	18
2.67833	18
2.68200	19
2.68567	19
2.68933	19
2.69300	20
2.69667	20
2.70033	21
2.70400	21
2.70767	22
2.71133	22
2.71500	22
2.71867	21
2.72233	21
2.72600	21
2.72967	20
2.73333	20
2.73700	20
2.74067	20
2.74433	20
2.74800	20
2.75167	20
2.75533	21
2.75900	21
2.76267	21
2.76633	21
2.77000	22
2.77367	22
2.77733	22
2.78100	23
2.78467	23
2.78833	23
2.79200	23
2.79567	23
2.79933	23
2.80300	22
2.80667	22
2.81033	22
2.81400	22
2.81767	22
2.82133	22
2.82500	22
2.82867	22
2.83233	22
2.83600	22
2.83967	20
2.84333	18
2.84700	14
2.85067	8
2.85433	-1
2.85800	-13
2.86167	-30
2.86533	-52
2.86900	-78
2.87267	-109
2.87633	-146
2.88000	-188
2.88367	-234
2.88733	-286
2.89100	-341
2.89467	-401
2.89833	-464
2.90200	-531
2.90567	-600
2.90933	-673
2.91300	-748
2.91667	-825
2.92033	-904
2.92400	-985
2.92767	-1068
2.93133	-1152
2.93500	-1237
2.93867	-1324
2.94233	-1409
2.94600	-1481
2.94967	-1528
2.95333	-1542
2.95700	-1521
2.96067	-1467
2.96433	-1388
2.96800	-1291
2.97167	-1184
2.97533	-1072
2.97900	-962
2.98267	-855
2.98633	-754
2.99000	-661
2.99367	-576
2.99733	-500
3.00100	-433
3.00467	-373
3.00833	-321
3.01200	-275
3.01567	-235
3.01933	-201
3.02300	-171
3.02667	-146
3.03033	-124
3.03400	-105
3.03767	-89
3.04133	-75
3.04500	-63
3.04867	-53
3.05233	-44
3.05600	-37
3.05967	-31
3.06333	-25
3.06700	-21
3.07067	-17
3.07433	-13
3.07800	-10
3.08167	-8
3.08533	-5
3.08900	-3
3.09267	-2
3.09633	-0
3.10000	1
3.10367	2
3.10733	3
3.11100	4
3.11467	5
3.11833	5
3.12200	6
3.12567	7
3.12933	8
3.13300	8
3.13667	9
3.14033	9
3.14400	10
3.14767	10
3.15133	10
3.15500	11
3.15867	11
3.16233	12
3.16600	13
3.16967	13
3.17333	14
3.17700	14
3.18067	15
3.18433	15
3.18800	16
3.19167	16
3.19533	17
3.19900	17
3.20267	18
3.20633	18
3.21000	18
3.21367	19
3.21733	19
3.22100	19
3.22467	20
3.22833	20
3.23200	20
3.23567	21
3.23933	21
3.24300	22
3.24667	22
3.25033	22
3.25400	22
3.25767	22
3.26133	22
3.26500	22
3.26867	22
3.27233	22
3.27600	22
3.27967	22
3.28333	22
3.28700	22
3.29067	22
3.29433	23
3.29800	23
3.30167	23
3.30533	23
3.30900	23
3.31267	23
3.31633	23
3.32000	23
3.32367	23
3.32733	23
3.33100	23
3.33467	23
3.33833	23
3.34200	23
3.34567	23
3.34933	23
3.35300	23
3.35667	23
3.36033	23
3.36400	23
3.36767	23
3.37133	23
3.37500	23
3.37867	23
3.38233	23
3.38600	23
3.38967	23
3.39333	23
3.39700	23
3.40067	23
3.40433	23
3.40800	23
3.41167	23
3.41533	23
3.41900	23
3.42267	23
3.42633	23
3.43000	23
3.43367	23
3.43733	23
3.44100	23
3.44467	23
3.44833	23
3.45200	23
3.45567	23
3.45933	23
3.46300	22
3.46667	22
3.47033	22
3.47400	22
3.47767	22
3.48133	22
3.48500	21
3.48867	21
3.49233	21
3.49600	21
3.49967	22
3.50333	22
3.50700	22
3.51067	22
3.51433	23
3.51800	23
3.52167	23
3.52533	23
3.52900	24
3.53267	24
3.53633	24
3.54000	24
3.54367	25
3.54733	25
3.55100	25
3.55467	25
3.55833	25
3.56200	25
3.56567	26
3.56933	26
3.57300	26
3.57667	26
3.58033	26
3.58400	26
3.58767	26
3.59133	26
3.59500	26
3.59867	26
3.60233	25
3.60600	25
3.60967	25
3.61333	25
3.61700	25
3.62067	25
3.62433	25
3.62800	25
3.63167	24
3.63533	25
3.63900	25
3.64267	25
3.64633	25
3.65000	25
3.65367	25
3.65733	25
3.66100	25
3.66467	25
3.66833	25
3.67200	25
3.67567	25
3.67933	25
3.68300	25
3.68667	25
3.69033	25
3.69400	25
3.69767	24
3.70133	24
3.70500	24
3.70867	24
3.71233	24
3.71600	24
3.71967	24
3.72333	24
3.72700	24
3.73067	24
3.73433	24
3.73800	24
3.74167	24
3.74533	24
3.74900	24
3.75267	24
3.75633	24
3.76000	24
3.76367	24
3.76733	24
3.77100	24
3.77467	24
3.77833	24
3.78200	24
3.78567	24
3.78933	24
3.79300	25
3.79667	25
3.80033	25
3.80400	25
3.80767	25
3.81133	25
3.81500	25
3.81867	25
3.82233	26
3.82600	26
3.82967	26
3.83333	26
3.83700	26
3.84067	25
3.84433	25
3.84800	25
3.85167	25
3.85533	25
3.85900	25
3.86267	24
3.86633	24
3.87000	24
3.87367	24
3.87733	24
3.88100	24
3.88467	24
3.88833	24
3.89200	24
3.89567	24
3.89933	24
3.90300	23
3.90667	23
3.91033	23
3.91400	24
3.91767	24
3.92133	24
3.92500	24
3.92867	24
3.93233	24
3.93600	24
3.93967	24
3.94333	24
3.94700	24
3.95067	24
3.95433	24
3.95800	24
3.96167	24
3.96533	24
3.96900	24
3.97267	24
3.97633	24
3.98000	24
3.98367	24
3.98733	24
3.99100	24
3.99467	24
3.99833	24

[Chromatogram (Ch3)]
Interval(msec)	220
# of Points	1091
Start Time(min)	0.002
End Time(min)	3.998
R.Time (min)	Intensity
0.00167	-0
0.00533	-0
0.00900	0
0.01267	0
0.01633	0
0.02000	1
0.02367	1
0.02733	2
0.03100	3
0.03467	3
0.03833	2
0.04200	1
0.04567	-1
0.04933	-3
0.05300	-4
0.05667	-3
0.06033	-2
0.06400	-1
0.06767	-1
0.07133	-0
0.07500	1
0.07867	4
0.08233	5
0.08600	4
0.08967	4
0.09333	5
0.09700	5
0.10067	7
0.10433	8
0.10800	6
0.11167	4
0.11533	4
0.11900	5
0.12267	7
0.12633	7
0.13000	7
0.13367	6
0.13733	5
0.14100	5
0.14467	7
0.14833	8
0.15200	9
0.15567	7
0.15933	6
0.16300	6
0.16667	6
0.17033	5
0.17400	6
0.17767	8
0.18133	9
0.18500	9
0.18867	9
0.19233	6
0.19600	2
0.19967	-1
0.20333	1
0.20700	3
0.21067	5
0.21433	7
0.21800	8
0.22167	8
0.22533	8
0.22900	7
0.23267	7
0.23633	9
0.24000	9
0.24367	7
0.24733	7
0.25100	10
0.25467	11
0.25833	10
0.26200	8
0.26567	7
0.26933	6
0.27300	6
0.27667	9
0.28033	10
0.28400	11
0.28767	10
0.29133	9
0.29500	7
0.29867	7
0.30233	6
0.30600	6
0.30967	8
0.31333	9
0.31700	10
0.32067	10
0.32433	9
0.32800	9
0.33167	10
0.33533	9
0.33900	12
0.34267	13
0.34633	13
0.35000	12
0.35367	10
0.35733	9
0.36100	7
0.36467	7
0.36833	9
0.37200	11
0.37567	11
0.37933	13
0.38300	16
0.38667	17
0.39033	16
0.39400	17
0.39767	18
0.40133	18
0.40500	18
0.40867	16
0.41233	15
0.41600	13
0.41967	12
0.42333	14
0.42700	14
0.43067	14
0.43433	14
0.43800	15
0.44167	15
0.44533	16
0.44900	18
0.45267	18
0.45633	17
0.46000	16
0.46367	13
0.46733	14
0.47100	14
0.47467	12
0.47833	11
0.48200	10
0.48567	12
0.48933	13
0.49300	14
0.49667	16
0.50033	16
0.50400	14
0.50767	14
0.51133	15
0.51500	18
0.51867	18
0.52233	17
0.52600	17
0.52967	18
0.53333	20
0.53700	21
0.54067	22
0.54433	23
0.54800	22
0.55167	18
0.55533	16
0.55900	16
0.56267	18
0.56633	18
0.57000	18
0.57367	18
0.57733	16
0.58100	13
0.58467	12
0.58833	13
0.59200	15
0.59567	19
0.59933	20
0.60300	19
0.60667	20
0.61033	23
0.61400	25
0.61767	27
0.62133	26
0.62500	21
0.62867	17
0.63233	17
0.63600	20
0.63967	21
0.64333	21
0.64700	21
0.65067	21
0.65433	21
0.65800	24
0.66167	25
0.66533	24
0.66900	22
0.67267	22
0.67633	24
0.68000	25
0.68367	26
0.68733	26
0.69100	26
0.69467	24
0.69833	23
0.70200	23
0.70567	24
0.70933	27
0.71300	29
0.71667	29
0.72033	29
0.72400	30
0.72767	31
0.73133	31
0.73500	30
0.73867	28
0.74233	28
0.74600	28
0.74967	29
0.75333	29
0.75700	30
0.76067	31
0.76433	34
0.76800	35
0.77167	35
0.77533	35
0.77900	33
0.78267	32
0.78633	31
0.79000	32
0.79367	34
0.79733	35
0.80100	33
0.80467	31
0.80833	32
0.81200	32
0.81567	33
0.81933	36
0.82300	37
0.82667	36
0.83033	34
0.83400	35
0.83767	33
0.84133	32
0.84500	32
0.84867	33
0.85233	32
0.85600	34
0.85967	35
0.86333	37
0.86700	37
0.87067	35
0.87433	35
0.87800	36
0.88167	36
0.88533	35
0.88900	36
0.89267	37
0.89633	37
0.90000	40
0.90367	41
0.90733	42
0.91100	42
0.91467	41
0.91833	41
0.92200	42
0.92567	44
0.92933	44
0.93300	43
0.93667	42
0.94033	40
0.94400	37
0.94767	33
0.95133	33
0.95500	35
0.95867	37
0.96233	38
0.96600	40
0.96967	40
0.97333	39
0.97700	38
0.98067	37
0.98433	35
0.98800	35
0.99167	36
0.99533	36
0.99900	38
1.00267	40
1.00633	41
1.01000	42
1.01367	44
1.01733	44
1.02100	42
1.02467	40
1.02833	39
1.03200	40
1.03567	43
1.03933	44
1.04300	44
1.04667	44
1.05033	42
1.05400	41
1.05767	41
1.06133	44
1.06500	48
1.06867	49
1.07233	47
1.07600	46
1.07967	46
1.08333	47
1.08700	48
1.09067	48
1.09433	48
1.09800	49
1.10167	51
1.10533	52
1.10900	52
1.11267	48
1.11633	45
1.12000	41
1.12367	39
1.12733	40
1.13100	44
1.13467	45
1.13833	44
1.14200	43
1.14567	43
1.14933	44
1.15300	45
1.15667	46
1.16033	46
1.16400	46
1.16767	45
1.17133	44
1.17500	45
1.17867	46
1.18233	48
1.18600	51
1.18967	50
1.19333	49
1.19700	48
1.20067	48
1.20433	49
1.20800	49
1.21167	48
1.21533	50
1.21900	51
1.22267	53
1.22633	53
1.23000	53
1.23367	54
1.23733	52
1.24100	48
1.24467	44
1.24833	44
1.25200	44
1.25567	45
1.25933	47
1.26300	49
1.26667	50
1.27033	52
1.27400	54
1.27767	57
1.28133	56
1.28500	55
1.28867	55
1.29233	53
1.29600	51
1.29967	51
1.30333	51
1.30700	52
1.31067	54
1.31433	52
1.31800	52
1.32167	53
1.32533	55
1.32900	56
1.33267	56
1.33633	56
1.34000	55
1.34367	54
1.34733	54
1.35100	53
1.35467	54
1.35833	55
1.36200	56
1.36567	54
1.36933	51
1.37300	52
1.37667	55
1.38033	56
1.38400	56
1.38767	56
1.39133	56
1.39500	57
1.39867	57
1.40233	58
1.40600	58
1.40967	58
1.41333	58
1.41700	56
1.42067	53
1.42433	53
1.42800	53
1.43167	53
1.43533	55
1.43900	57
1.44267	57
1.44633	55
1.45000	55
1.45367	56
1.45733	56
1.46100	56
1.46467	55
1.46833	55
1.47200	56
1.47567	56
1.47933	56
1.48300	55
1.48667	54
1.49033	57
1.49400	60
1.49767	59
1.50133	58
1.50500	57
1.50867	55
1.51233	54
1.51600	55
1.51967	57
1.52333	59
1.52700	60
1.53067	61
1.53433	62
1.53800	64
1.54167	64
1.54533	65
1.54900	64
1.55267	63
1.55633	61
1.56000	58
1.56367	56
1.56733	55
1.57100	57
1.57467	57
1.57833	56
1.58200	55
1.58567	51
1.58933	51
1.59300	53
1.59667	57
1.60033	59
1.60400	60
1.60767	58
1.61133	58
1.61500	57
1.61867	58
1.62233	57
1.62600	58
1.62967	61
1.63333	62
1.63700	64
1.64067	66
1.64433	66
1.64800	68
1.65167	70
1.65533	71
1.65900	71
1.66267	71
1.66633	72
1.67000	71
1.67367	69
1.67733	70
1.68100	70
1.68467	73
1.68833	74
1.69200	75
1.69567	75
1.69933	74
1.70300	74
1.70667	74
1.71033	74
1.71400	76
1.71767	76
1.72133	76
1.72500	79
1.72867	79
1.73233	79
1.73600	79
1.73967	82
1.74333	84
1.74700	84
1.75067	84
1.75433	85
1.75800	85
1.76167	86
1.76533	86
1.76900	86
1.77267	85
1.77633	85
1.78000	85
1.78367	87
1.78733	87
1.79100	87
1.79467	88
1.79833	89
1.80200	92
1.80567	94
1.80933	94
1.81300	95
1.81667	97
1.82033	98
1.82400	100
1.82767	99
1.83133	97
1.83500	95
1.83867	94
1.84233	95
1.84600	95
1.84967	96
1.85333	97
1.85700	97
1.86067	98
1.86433	99
1.86800	102
1.87167	102
1.87533	99
1.87900	97
1.88267	96
1.88633	97
1.89000	99
1.89367	100
1.89733	101
1.90100	101
1.90467	103
1.90833	103
1.91200	102
1.91567	102
1.91933	102
1.92300	102
1.92667	102
1.93033	102
1.93400	104
1.93767	107
1.94133	110
1.94500	111
1.94867	109
1.95233	106
1.95600	105
1.95967	108
1.96333	110
1.96700	113
1.97067	115
1.97433	113
1.97800	112
1.98167	110
1.98533	109
1.98900	109
1.99267	109
1.99633	111
2.00000	112
2.00367	113
2.00733	116
2.01100	118
2.01467	120
2.01833	122
2.02200	123
2.02567	121
2.02933	120
2.03300	122
2.03667	121
2.04033	122
2.04400	125
2.04767	126
2.05133	129
2.05500	134
2.05867	135
2.06233	135
2.06600	137
2.06967	140
2.07333	143
2.07700	145
2.08067	147
2.08433	147
2.08800	146
2.09167	147
2.09533	148
2.09900	150
2.10267	152
2.10633	153
2.11000	154
2.11367	154
2.11733	155
2.12100	158
2.12467	159
2.12833	158
2.13200	156
2.13567	157
2.13933	158
2.14300	159
2.14667	161
2.15033	164
2.15400	165
2.15767	164
2.16133	163
2.16500	163
2.16867	165
2.17233	165
2.17600	164
2.17967	165
2.18333	165
2.18700	166
2.19067	167
2.19433	166
2.19800	169
2.20167	171
2.20533	171
2.20900	173
2.21267	175
2.21633	177
2.22000	177
2.22367	177
2.22733	178
2.23100	179
2.23467	180
2.23833	179
2.24200	179
2.24567	180
2.24933	179
2.25300	180
2.25667	181
2.26033	180
2.26400	181
2.26767	183
2.27133	185
2.27500	186
2.27867	188
2.28233	191
2.28600	191
2.28967	192
2.29333	193
2.29700	192
2.30067	190
2.30433	190
2.30800	189
2.31167	190
2.31533	191
2.31900	190
2.32267	190
2.32633	192
2.33000	194
2.33367	195
2.33733	196
2.34100	196
2.34467	198
2.34833	201
2.35200	201
2.35567	200
2.35933	201
2.36300	205
2.36667	206
2.37033	204
2.37400	204
2.37767	203
2.38133	202
2.38500	203
2.38867	202
2.39233	200
2.39600	201
2.39967	205
2.40333	209
2.40700	211
2.41067	213
2.41433	215
2.41800	217
2.42167	219
2.42533	217
2.42900	216
2.43267	215
2.43633	214
2.44000	214
2.44367	223
2.44733	249
2.45100	277
2.45467	300
2.45833	311
2.46200	312
2.46567	309
2.46933	305
2.47300	303
2.47667	300
2.48033	293
2.48400	283
2.48767	273
2.49133	265
2.49500	257
2.49867	250
2.50233	246
2.50600	244
2.50967	243
2.51333	247
2.51700	251
2.52067	251
2.52433	249
2.52800	245
2.53167	241
2.53533	237
2.53900	229
2.54267	221
2.54633	217
2.55000	215
2.55367	211
2.55733	206
2.56100	201
2.56467	199
2.56833	198
2.57200	197
2.57567	195
2.57933	194
2.58300	191
2.58667	187
2.59033	184
2.59400	179
2.59767	171
2.60133	156
2.60500	134
2.60867	106
2.61233	70
2.61600	30
2.61967	-8
2.62333	-45
2.62700	-77
2.63067	-105
2.63433	-128
2.63800	-145
2.64167	-156
2.64533	-163
2.64900	-170
2.65267	-173
2.65633	-171
2.66000	-168
2.66367	-164
2.66733	-161
2.67100	-155
2.67467	-150
2.67833	-142
2.68200	-132
2.68567	-123
2.68933	-115
2.69300	-105
2.69667	-95
2.70033	-87
2.70400	-80
2.70767	-73
2.71133	-65
2.71500	-58
2.71867	-52
2.72233	-45
2.72600	-36
2.72967	-30
2.73333	-25
2.73700	-21
2.74067	-16
2.74433	-8
2.74800	-2
2.75167	2
2.75533	4
2.75900	7
2.76267	9
2.76633	11
2.77000	13
2.77367	16
2.77733	20
2.78100	23
2.78467	26
2.78833	28
2.79200	30
2.79567	32
2.79933	35
2.80300	38
2.80667	42
2.81033	47
2.81400	53
2.81767	63
2.82133	91
2.82500	161
2.82867	315
2.83233	612
2.83600	1120
2.83967	1905
2.84333	3002
2.84700	4419
2.85067	6113
2.85433	7995
2.85800	9944
2.86167	11817
2.86533	13467
2.86900	14779
2.87267	15670
2.87633	16101
2.88000	16091
2.88367	15698
2.88733	15001
2.89100	14090
2.89467	13046
2.89833	11936
2.90200	10815
2.90567	9720
2.90933	8680
2.91300	7710
2.91667	6818
2.92033	6010
2.92400	5283
2.92767	4629
2.93133	4049
2.93500	3538
2.93867	3086
2.94233	2690
2.94600	2344
2.94967	2041
2.95333	1777
2.95700	1545
2.96067	1343
2.96433	1169
2.96800	1018
2.97167	888
2.97533	775
2.97900	676
2.98267	592
2.98633	521
2.99000	458
2.99367	406
2.99733	359
3.00100	320
3.00467	286
3.00833	255
3.01200	228
3.01567	204
3.01933	186
3.02300	173
3.02667	160
3.03033	147
3.03400	136
3.03767	128
3.04133	120
3.04500	114
3.04867	111
3.05233	106
3.05600	100
3.05967	95
3.06333	90
3.06700	88
3.07067	87
3.07433	86
3.07800	84
3.08167	85
3.08533	87
3.08900	85
3.09267	81
3.09633	79
3.10000	78
3.10367	80
3.10733	80
3.11100	79
3.11467	78
3.11833	79
3.12200	79
3.12567	78
3.12933	78
3.13300	79
3.13667	79
3.14033	77
3.14400	76
3.14767	73
3.15133	73
3.15500	74
3.15867	75
3.16233	75
3.16600	73
3.16967	73
3.17333	72
3.17700	72
3.18067	71
3.18433	68
3.18800	66
3.19167	67
3.19533	67
3.19900	69
3.20267	71
3.20633	71
3.21000	70
3.21367	71
3.21733	73
3.22100	74
3.22467	75
3.22833	76
3.23200	75
3.23567	73
3.23933	71
3.24300	72
3.24667	71
3.25033	71
3.25400	72
3.25767	73
3.26133	71
3.26500	69
3.26867	69
3.27233	69
3.27600	70
3.27967	68
3.28333	67
3.28700	68
3.29067	71
3.29433	72
3.29800	72
3.30167	71
3.30533	68
3.30900	67
3.31267	66
3.31633	66
3.32000	64
3.32367	63
3.32733	64
3.33100	66
3.33467	69
3.33833	72
3.34200	71
3.34567	70
3.34933	71
3.35300	72
3.35667	70
3.36033	67
3.36400	65
3.36767	68
3.37133	73
3.37500	76
3.37867	77
3.38233	73
3.38600	69
3.38967	67
3.39333	65
3.39700	63
3.40067	62
3.40433	62
3.40800	60
3.41167	61
3.41533	63
3.41900	65
3.42267	64
3.42633	61
3.43000	60
3.43367	61
3.43733	62
3.44100	62
3.44467	62
3.44833	61
3.45200	61
3.45567	61
3.45933	61
3.46300	62
3.46667	63
3.47033	63
3.47400	64
3.47767	62
3.48133	64
3.48500	64
3.48867	65
3.49233	66
3.49600	66
3.49967	66
3.50333	64
3.50700	62
3.51067	60
3.51433	58
3.51800	58
3.52167	60
3.52533	59
3.52900	55
3.53267	50
3.53633	45
3.54000	43
3.54367	44
3.54733	46
3.55100	48
3.55467	52
3.55833	59
3.56200	67
3.56567	77
3.56933	89
3.57300	101
3.57667	111
3.58033	124
3.58400	138
3.58767	154
3.59133	171
3.59500	188
3.59867	205
3.60233	221
3.60600	235
3.60967	251
3.61333	266
3.61700	281
3.62067	294
3.62433	306
3.62800	317
3.63167	324
3.63533	331
3.63900	338
3.64267	346
3.64633	352
3.65000	352
3.65367	353
3.65733	358
3.66100	364
3.66467	369
3.66833	374
3.67200	376
3.67567	378
3.67933	378
3.68300	379
3.68667	379
3.69033	378
3.69400	379
3.69767	383
3.70133	386
3.70500	387
3.70867	389
3.71233	389
3.71600	391
3.71967	394
3.72333	395
3.72700	398
3.73067	398
3.73433	397
3.73800	396
3.74167	394
3.74533	390
3.74900	390
3.75267	392
3.75633	392
3.76000	394
3.76367	396
3.76733	399
3.77100	399
3.77467	400
3.77833	402
3.78200	402
3.78567	400
3.78933	397
3.79300	395
3.79667	394
3.80033	394
3.80400	395
3.80767	393
3.81133	393
3.81500	394
3.81867	393
3.82233	393
3.82600	394
3.82967	394
3.83333	393
3.83700	392
3.84067	392
3.84433	393
3.84800	392
3.85167	391
3.85533	390
3.85900	390
3.86267	390
3.86633	389
3.87000	388
3.87367	385
3.87733	386
3.88100	386
3.88467	384
3.88833	383
3.89200	383
3.89567	382
3.89933	379
3.90300	376
3.90667	374
3.91033	373
3.91400	373
3.91767	373
3.92133	371
3.92500	370
3.92867	369
3.93233	368
3.93600	366
3.93967	364
3.94333	365
3.94700	366
3.95067	366
3.95433	364
3.95800	362
3.96167	359
3.96533	359
3.96900	358
3.97267	357
3.97633	356
3.98000	353
3.98367	352
3.98733	351
3.99100	349
3.99467	348
3.99833	346

[Status Trace (Column Oven Temperature)]
Interval(msec)	1000
# of Points	240
Start Time(min)	0.006
End Time(min)	3.989
Intensity Units	
Intensity Multiplier	1
R.Time (min)	Intensity
0.00602	35.02
0.02268	35.02
0.03935	35.02
0.05602	35.03
0.07268	35.03
0.08935	35.05
0.10602	35.06
0.12268	35.06
0.13935	35.05
0.15602	35.03
0.17268	35.02
0.18935	35.01
0.20602	35.01
0.22268	35.00
0.23935	34.99
0.25602	34.98
0.27268	34.97
0.28935	34.98
0.30602	34.97
0.32268	34.97
0.33935	34.97
0.35602	34.97
0.37268	34.97
0.38935	34.98
0.40602	34.98
0.42268	34.99
0.43935	34.99
0.45602	34.99
0.47268	34.99
0.48935	34.99
0.50602	34.99
0.52268	35.01
0.53935	35.01
0.55602	35.01
0.57268	35.01
0.58935	35.01
0.60602	35.00
0.62268	35.00
0.63935	34.99
0.65602	34.98
0.67268	34.98
0.68935	34.97
0.70602	34.97
0.72268	34.97
0.73935	34.97
0.75602	34.97
0.77268	34.97
0.78935	34.97
0.80602	34.98
0.82268	34.99
0.83935	34.99
0.85602	34.99
0.87268	35.00
0.88935	34.99
0.90602	34.99
0.92268	34.99
0.93935	34.99
0.95602	34.99
0.97268	34.99
0.98935	34.99
1.00602	34.99
1.02268	35.00
1.03935	34.99
1.05602	34.99
1.07268	35.00
1.08935	35.01
1.10602	35.01
1.12268	35.01
1.13935	35.01
1.15602	35.01
1.17268	35.00
1.18935	35.00
1.20602	35.00
1.22268	35.00
1.23935	35.00
1.25602	34.98
1.27268	34.97
1.28935	34.97
1.30602	34.97
1.32268	34.98
1.33935	34.98
1.35602	34.98
1.37268	34.98
1.38935	34.99
1.40602	34.99
1.42268	34.99
1.43935	34.98
1.45602	34.97
1.47268	34.97
1.48935	34.97
1.50602	34.97
1.52268	34.97
1.53935	34.98
1.55602	34.97
1.57268	34.98
1.58935	34.99
1.60602	35.03
1.62268	35.15
1.63935	35.33
1.65602	35.58
1.67268	35.92
1.68935	36.31
1.70602	36.67
1.72268	37.00
1.73935	37.29
1.75602	37.60
1.77268	37.95
1.78935	38.29
1.80602	38.62
1.82268	38.97
1.83935	39.30
1.85602	39.62
1.87268	39.95
1.88935	40.28
1.90602	40.59
1.92268	40.92
1.93935	41.25
1.95602	41.60
1.97268	41.90
1.98935	42.23
2.00602	42.55
2.02268	42.87
2.03935	43.18
2.05602	43.51
2.07268	43.85
2.08935	44.17
2.10602	44.48
2.12268	44.84
2.13935	45.14
2.15602	45.48
2.17268	45.80
2.18935	46.12
2.20602	46.44
2.22268	46.77
2.23935	47.11
2.25602	47.45
2.27268	47.77
2.28935	48.11
2.30602	48.46
2.32268	48.79
2.33935	49.11
2.35602	49.41
2.37268	49.66
2.38935	49.74
2.40602	49.75
2.42268	49.75
2.43935	49.74
2.45602	49.73
2.47268	49.74
2.48935	49.76
2.50602	49.79
2.52268	49.79
2.53935	49.81
2.55602	49.80
2.57268	49.83
2.58935	49.85
2.60602	49.85
2.62268	49.85
2.63935	49.85
2.65602	49.87
2.67268	49.86
2.68935	49.85
2.70602	49.85
2.72268	49.87
2.73935	49.89
2.75602	49.89
2.77268	49.88
2.78935	49.89
2.80602	49.89
2.82268	49.91
2.83935	49.92
2.85602	49.93
2.87268	49.95
2.88935	49.96
2.90602	49.96
2.92268	49.97
2.93935	49.97
2.95602	49.99
2.97268	50.00
2.98935	50.01
3.00602	50.02
3.02268	50.04
3.03935	50.05
3.05602	50.04
3.07268	50.05
3.08935	50.06
3.10602	50.07
3.12268	50.08
3.13935	50.09
3.15602	50.10
3.17268	50.10
3.18935	50.11
3.20602	50.10
3.22268	50.08
3.23935	50.07
3.25602	50.07
3.27268	50.07
3.28935	50.06
3.30602	50.05
3.32268	50.04
3.33935	50.04
3.35602	50.04
3.37268	50.05
3.38935	50.05
3.40602	50.04
3.42268	50.05
3.43935	50.06
3.45602	50.08
3.47268	50.09
3.48935	50.10
3.50602	50.11
3.52268	50.10
3.53935	50.09
3.55602	50.09
3.57268	50.08
3.58935	50.08
3.60602	50.07
3.62268	50.08
3.63935	50.07
3.65602	50.06
3.67268	50.06
3.68935	50.07
3.70602	50.07
3.72268	50.07
3.73935	50.07
3.75602	50.07
3.77268	50.07
3.78935	50.07
3.80602	50.07
3.82268	50.05
3.83935	50.04
3.85602	50.04
3.87268	50.04
3.88935	50.04
3.90602	50.04
3.92268	50.04
3.93935	50.04
3.95602	50.04
3.97268	50.03
3.98935	50.04

[Status Trace (Injection Unit Temperature)]
Interval(msec)	1000
# of Points	240
Start Time(min)	0.006
End Time(min)	3.989
Intensity Units	
Intensity Multiplier	1
R.Time (min)	Intensity
0.00602	99.98
0.02268	99.98
0.03935	99.99
0.05602	99.98
0.07268	99.99
0.08935	99.99
0.10602	99.98
0.12268	99.98
0.13935	99.98
0.15602	99.99
0.17268	99.98
0.18935	99.99
0.20602	99.98
0.22268	99.99
0.23935	99.98
0.25602	99.99
0.27268	99.98
0.28935	99.98
0.30602	99.99
0.32268	99.98
0.33935	99.98
0.35602	99.98
0.37268	99.99
0.38935	99.99
0.40602	99.99
0.42268	99.98
0.43935	99.98
0.45602	99.98
0.47268	99.98
0.48935	99.99
0.50602	99.98
0.52268	99.98
0.53935	99.98
0.55602	99.99
0.57268	99.97
0.58935	99.98
0.60602	99.98
0.62268	99.98
0.63935	99.98
0.65602	99.98
0.67268	99.98
0.68935	99.97
0.70602	99.98
0.72268	99.98
0.73935	99.98
0.75602	99.98
0.77268	99.98
0.78935	99.99
0.80602	99.98
0.82268	99.98
0.83935	99.98
0.85602	99.98
0.87268	99.99
0.88935	99.99
0.90602	99.98
0.92268	99.98
0.93935	99.98
0.95602	99.98
0.97268	99.99
0.98935	99.98
1.00602	99.98
1.02268	99.98
1.03935	99.98
1.05602	99.98
1.07268	99.98
1.08935	99.99
1.10602	99.98
1.12268	99.99
1.13935	99.99
1.15602	99.98
1.17268	99.98
1.18935	99.98
1.20602	99.98
1.22268	99.99
1.23935	99.99
1.25602	99.99
1.27268	99.99
1.28935	99.99
1.30602	99.99
1.32268	99.99
1.33935	99.99
1.35602	99.99
1.37268	99.99
1.38935	99.99
1.40602	99.98
1.42268	99.98
1.43935	99.99
1.45602	99.99
1.47268	99.98
1.48935	99.99
1.50602	99.99
1.52268	99.99
1.53935	99.98
1.55602	99.98
1.57268	99.98
1.58935	99.99
1.60602	99.99
1.62268	99.99
1.63935	99.98
1.65602	99.98
1.67268	99.99
1.68935	99.98
1.70602	99.98
1.72268	99.99
1.73935	99.99
1.75602	99.98
1.77268	99.98
1.78935	99.98
1.80602	99.98
1.82268	99.98
1.83935	99.98
1.85602	99.98
1.87268	99.98
1.88935	99.98
1.90602	99.98
1.92268	99.98
1.93935	99.98
1.95602	99.98
1.97268	99.98
1.98935	99.98
2.00602	99.97
2.02268	99.98
2.03935	99.98
2.05602	99.97
2.07268	99.97
2.08935	99.97
2.10602	99.97
2.12268	99.97
2.13935	99.97
2.15602	99.97
2.17268	99.98
2.18935	99.97
2.20602	99.97
2.22268	99.97
2.23935	99.96
2.25602	99.97
2.27268	99.96
2.28935	99.97
2.30602	99.96
2.32268	99.96
2.33935	99.96
2.35602	99.96
2.37268	99.96
2.38935	99.96
2.40602	99.96
2.42268	99.96
2.43935	99.96
2.45602	99.96
2.47268	99.96
2.48935	99.96
2.50602	99.96
2.52268	99.96
2.53935	99.96
2.55602	99.97
2.57268	99.96
2.58935	99.96
2.60602	99.97
2.62268	99.97
2.63935	99.97
2.65602	99.97
2.67268	99.97
2.68935	99.98
2.70602	99.98
2.72268	99.97
2.73935	99.98
2.75602	99.98
2.77268	99.98
2.78935	99.99
2.80602	99.99
2.82268	99.99
2.83935	99.99
2.85602	99.99
2.87268	100.00
2.88935	100.00
2.90602	100.00
2.92268	100.01
2.93935	100.01
2.95602	100.01
2.97268	100.01
2.98935	100.01
3.00602	100.01
3.02268	100.02
3.03935	100.02
3.05602	100.02
3.07268	100.02
3.08935	100.02
3.10602	100.02
3.12268	100.02
3.13935	100.03
3.15602	100.02
3.17268	100.03
3.18935	100.03
3.20602	100.03
3.22268	100.02
3.23935	100.03
3.25602	100.04
3.27268	100.03
3.28935	100.04
3.30602	100.03
3.32268	100.04
3.33935	100.04
3.35602	100.04
3.37268	100.04
3.38935	100.04
3.40602	100.04
3.42268	100.04
3.43935	100.04
3.45602	100.04
3.47268	100.04
3.48935	100.04
3.50602	100.04
3.52268	100.04
3.53935	100.04
3.55602	100.05
3.57268	100.04
3.58935	100.04
3.60602	100.04
3.62268	100.04
3.63935	100.04
3.65602	100.04
3.67268	100.04
3.68935	100.04
3.70602	100.04
3.72268	100.04
3.73935	100.04
3.75602	100.04
3.77268	100.04
3.78935	100.04
3.80602	100.04
3.82268	100.04
3.83935	100.04
3.85602	100.04
3.87268	100.04
3.88935	100.05
3.90602	100.04
3.92268	100.05
3.93935	100.05
3.95602	100.05
3.97268	100.04
3.98935	100.04

[Status Trace (Carrier Gas Pressure)]
Interval(msec)	1000
# of Points	240
Start Time(min)	0.006
End Time(min)	3.989
Intensity Units	
Intensity Multiplier	1
R.Time (min)	Intensity
0.00602	58.00
0.02268	55.61
0.03935	56.73
0.05602	58.93
0.07268	59.70
0.08935	58.18
0.10602	57.97
0.12268	58.01
0.13935	58.01
0.15602	58.01
0.17268	58.00
0.18935	58.00
0.20602	58.00
0.22268	58.00
0.23935	58.00
0.25602	58.00
0.27268	58.00
0.28935	58.00
0.30602	58.00
0.32268	58.00
0.33935	58.00
0.35602	58.00
0.37268	58.00
0.38935	58.00
0.40602	58.00
0.42268	58.00
0.43935	58.00
0.45602	58.00
0.47268	58.00
0.48935	58.00
0.50602	58.00
0.52268	58.00
0.53935	58.00
0.55602	58.00
0.57268	58.00
0.58935	58.00
0.60602	58.00
0.62268	58.00
0.63935	58.00
0.65602	58.00
0.67268	58.00
0.68935	58.00
0.70602	58.00
0.72268	58.00
0.73935	58.00
0.75602	58.00
0.77268	58.00
0.78935	58.00
0.80602	58.00
0.82268	58.00
0.83935	58.00
0.85602	58.00
0.87268	58.00
0.88935	58.00
0.90602	58.00
0.92268	58.00
0.93935	58.00
0.95602	58.00
0.97268	58.00
0.98935	58.00
1.00602	58.00
1.02268	58.00
1.03935	58.00
1.05602	58.00
1.07268	58.00
1.08935	58.00
1.10602	58.00
1.12268	58.00
1.13935	58.00
1.15602	58.00
1.17268	58.00
1.18935	58.00
1.20602	58.00
1.22268	58.00
1.23935	58.00
1.25602	58.00
1.27268	58.00
1.28935	58.00
1.30602	58.00
1.32268	58.00
1.33935	58.00
1.35602	58.00
1.37268	58.00
1.38935	58.00
1.40602	58.00
1.42268	58.00
1.43935	58.00
1.45602	58.00
1.47268	58.00
1.48935	58.00
1.50602	58.00
1.52268	58.00
1.53935	58.00
1.55602	58.00
1.57268	58.00
1.58935	58.00
1.60602	58.00
1.62268	58.00
1.63935	58.00
1.65602	58.00
1.67268	58.01
1.68935	58.00
1.70602	58.00
1.72268	58.00
1.73935	58.00
1.75602	58.00
1.77268	58.00
1.78935	58.00
1.80602	58.00
1.82268	58.00
1.83935	58.00
1.85602	58.00
1.87268	58.00
1.88935	58.00
1.90602	58.00
1.92268	58.00
1.93935	58.00
1.95602	58.00
1.97268	58.00
1.98935	58.00
2.00602	58.00
2.02268	58.00
2.03935	58.00
2.05602	58.00
2.07268	58.00
2.08935	58.00
2.10602	58.00
2.12268	58.00
2.13935	58.00
2.15602	58.00
2.17268	58.00
2.18935	58.00
2.20602	58.00
2.22268	58.00
2.23935	58.00
2.25602	58.00
2.27268	58.00
2.28935	58.00
2.30602	58.00
2.32268	58.00
2.33935	58.00
2.35602	58.00
2.37268	58.00
2.38935	57.99
2.40602	57.99
2.42268	58.00
2.43935	58.00
2.45602	58.00
2.47268	58.00
2.48935	58.00
2.50602	57.99
2.52268	57.99
2.53935	57.99
2.55602	58.00
2.57268	58.00
2.58935	58.00
2.60602	58.00
2.62268	58.00
2.63935	58.00
2.65602	58.00
2.67268	58.00
2.68935	58.00
2.70602	58.00
2.72268	58.00
2.73935	58.00
2.75602	58.00
2.77268	58.00
2.78935	58.00
2.80602	58.00
2.82268	58.00
2.83935	58.00
2.85602	58.00
2.87268	58.00
2.88935	58.00
2.90602	58.00
2.92268	58.00
2.93935	58.00
2.95602	58.00
2.97268	58.00
2.98935	58.00
3.00602	58.00
3.02268	58.00
3.03935	58.00
3.05602	58.00
3.07268	58.00
3.08935	58.00
3.10602	58.00
3.12268	58.00
3.13935	58.00
3.15602	58.00
3.17268	58.00
3.18935	58.00
3.20602	58.00
3.22268	58.00
3.23935	58.00
3.25602	58.00
3.27268	58.00
3.28935	58.00
3.30602	58.00
3.32268	58.00
3.33935	58.00
3.35602	58.00
3.37268	58.00
3.38935	58.00
3.40602	58.00
3.42268	58.00
3.43935	58.00
3.45602	58.00
3.47268	58.00
3.48935	58.00
3.50602	58.00
3.52268	58.00
3.53935	58.00
3.55602	58.00
3.57268	58.00
3.58935	58.00
3.60602	58.00
3.62268	58.00
3.63935	58.00
3.65602	58.00
3.67268	58.00
3.68935	58.00
3.70602	58.00
3.72268	58.00
3.73935	58.00
3.75602	58.00
3.77268	58.00
3.78935	58.00
3.80602	58.00
3.82268	58.00
3.83935	58.00
3.85602	58.00
3.87268	58.00
3.88935	58.00
3.90602	58.00
3.92268	58.00
3.93935	58.00
3.95602	58.00
3.97268	58.00
3.98935	58.00

[Status Trace (Carrier Gas Flow)]
Interval(msec)	1000
# of Points	240
Start Time(min)	0.006
End Time(min)	3.989
Intensity Units	
Intensity Multiplier	1
R.Time (min)	Intensity
0.00602	34.52
0.02268	34.54
0.03935	34.54
0.05602	34.55
0.07268	34.49
0.08935	34.52
0.10602	34.52
0.12268	34.52
0.13935	34.52
0.15602	34.52
0.17268	34.52
0.18935	34.52
0.20602	34.52
0.22268	34.52
0.23935	34.52
0.25602	34.52
0.27268	34.52
0.28935	34.52
0.30602	34.52
0.32268	34.52
0.33935	34.52
0.35602	34.52
0.37268	34.52
0.38935	34.52
0.40602	34.52
0.42268	34.52
0.43935	34.52
0.45602	34.52
0.47268	34.52
0.48935	34.52
0.50602	34.52
0.52268	34.52
0.53935	34.52
0.55602	34.52
0.57268	34.52
0.58935	34.52
0.60602	34.52
0.62268	34.52
0.63935	34.52
0.65602	34.52
0.67268	34.52
0.68935	34.52
0.70602	34.52
0.72268	34.52
0.73935	34.52
0.75602	34.52
0.77268	34.52
0.78935	34.52
0.80602	34.52
0.82268	34.52
0.83935	34.52
0.85602	34.52
0.87268	34.52
0.88935	34.52
0.90602	34.52
0.92268	34.52
0.93935	34.52
0.95602	34.52
0.97268	34.52
0.98935	34.52
1.00602	34.52
1.02268	34.52
1.03935	34.52
1.05602	34.52
1.07268	34.52
1.08935	34.52
1.10602	34.52
1.12268	34.52
1.13935	34.52
1.15602	34.52
1.17268	34.52
1.18935	34.52
1.20602	34.52
1.22268	34.52
1.23935	34.52
1.25602	34.52
1.27268	34.52
1.28935	34.52
1.30602	34.52
1.32268	34.52
1.33935	34.52
1.35602	34.52
1.37268	34.52
1.38935	34.52
1.40602	34.52
1.42268	34.52
1.43935	34.52
1.45602	34.52
1.47268	34.52
1.48935	34.52
1.50602	34.52
1.52268	34.52
1.53935	34.52
1.55602	34.52
1.57268	34.52
1.58935	34.52
1.60602	34.52
1.62268	34.52
1.63935	34.52
1.65602	34.52
1.67268	34.52
1.68935	34.52
1.70602	34.52
1.72268	34.52
1.73935	34.52
1.75602	34.52
1.77268	34.52
1.78935	34.52
1.80602	34.52
1.82268	34.52
1.83935	34.52
1.85602	34.52
1.87268	34.52
1.88935	34.52
1.90602	34.52
1.92268	34.52
1.93935	34.52
1.95602	34.52
1.97268	34.52
1.98935	34.52
2.00602	34.52
2.02268	34.52
2.03935	34.52
2.05602	34.52
2.07268	34.51
2.08935	34.52
2.10602	34.52
2.12268	34.52
2.13935	34.51
2.15602	34.52
2.17268	34.52
2.18935	34.52
2.20602	34.52
2.22268	34.52
2.23935	34.52
2.25602	34.52
2.27268	34.52
2.28935	34.52
2.30602	34.52
2.32268	34.52
2.33935	34.53
2.35602	34.51
2.37268	34.52
2.38935	34.52
2.40602	34.52
2.42268	34.52
2.43935	34.52
2.45602	34.52
2.47268	34.52
2.48935	34.52
2.50602	34.49
2.52268	34.52
2.53935	34.52
2.55602	34.52
2.57268	34.52
2.58935	34.52
2.60602	34.52
2.62268	34.52
2.63935	34.52
2.65602	34.52
2.67268	34.52
2.68935	34.52
2.70602	34.52
2.72268	34.52
2.73935	34.52
2.75602	34.52
2.77268	34.52
2.78935	34.52
2.80602	34.52
2.82268	34.52
2.83935	34.52
2.85602	34.52
2.87268	34.52
2.88935	34.52
2.90602	34.52
2.92268	34.52
2.93935	34.52
2.95602	34.52
2.97268	34.52
2.98935	34.52
3.00602	34.52
3.02268	34.52
3.03935	34.52
3.05602	34.52
3.07268	34.52
3.08935	34.52
3.10602	34.52
3.12268	34.52
3.13935	34.52
3.15602	34.52
3.17268	34.52
3.18935	34.52
3.20602	34.52
3.22268	34.52
3.23935	34.52
3.25602	34.52
3.27268	34.52
3.28935	34.52
3.30602	34.52
3.32268	34.52
3.33935	34.52
3.35602	34.52
3.37268	34.52
3.38935	34.52
3.40602	34.52
3.42268	34.52
3.43935	34.52
3.45602	34.52
3.47268	34.52
3.48935	34.52
3.50602	34.52
3.52268	34.52
3.53935	34.52
3.55602	34.52
3.57268	34.52
3.58935	34.52
3.60602	34.52
3.62268	34.52
3.63935	34.52
3.65602	34.52
3.67268	34.52
3.68935	34.52
3.70602	34.52
3.72268	34.52
3.73935	34.52
3.75602	34.52
3.77268	34.52
3.78935	34.52
3.80602	34.52
3.82268	34.52
3.83935	34.52
3.85602	34.52
3.87268	34.52
3.88935	34.52
3.90602	34.52
3.92268	34.52
3.93935	34.52
3.95602	34.52
3.97268	34.52
3.98935	34.52

[Status Trace (Column Flow)]
Interval(msec)	1000
# of Points	240
Start Time(min)	0.006
End Time(min)	3.989
Intensity Units	
Intensity Multiplier	1
R.Time (min)	Intensity
0.00602	5.49
0.02268	5.22
0.03935	5.35
0.05602	5.60
0.07268	5.69
0.08935	5.51
0.10602	5.49
0.12268	5.49
0.13935	5.49
0.15602	5.49
0.17268	5.49
0.18935	5.49
0.20602	5.49
0.22268	5.49
0.23935	5.49
0.25602	5.49
0.27268	5.49
0.28935	5.49
0.30602	5.49
0.32268	5.49
0.33935	5.49
0.35602	5.49
0.37268	5.49
0.38935	5.49
0.40602	5.49
0.42268	5.49
0.43935	5.49
0.45602	5.49
0.47268	5.49
0.48935	5.49
0.50602	5.49
0.52268	5.49
0.53935	5.49
0.55602	5.49
0.57268	5.49
0.58935	5.49
0.60602	5.49
0.62268	5.49
0.63935	5.49
0.65602	5.49
0.67268	5.49
0.68935	5.49
0.70602	5.49
0.72268	5.49
0.73935	5.49
0.75602	5.49
0.77268	5.49
0.78935	5.49
0.80602	5.49
0.82268	5.49
0.83935	5.49
0.85602	5.49
0.87268	5.49
0.88935	5.49
0.90602	5.49
0.92268	5.49
0.93935	5.49
0.95602	5.49
0.97268	5.49
0.98935	5.49
1.00602	5.49
1.02268	5.49
1.03935	5.49
1.05602	5.49
1.07268	5.49
1.08935	5.49
1.10602	5.49
1.12268	5.49
1.13935	5.49
1.15602	5.49
1.17268	5.49
1.18935	5.49
1.20602	5.49
1.22268	5.49
1.23935	5.49
1.25602	5.49
1.27268	5.49
1.28935	5.49
1.30602	5.49
1.32268	5.49
1.33935	5.49
1.35602	5.49
1.37268	5.49
1.38935	5.49
1.40602	5.49
1.42268	5.49
1.43935	5.49
1.45602	5.49
1.47268	5.49
1.48935	5.49
1.50602	5.49
1.52268	5.49
1.53935	5.49
1.55602	5.49
1.57268	5.49
1.58935	5.49
1.60602	5.49
1.62268	5.49
1.63935	5.48
1.65602	5.48
1.67268	5.47
1.68935	5.45
1.70602	5.44
1.72268	5.43
1.73935	5.42
1.75602	5.41
1.77268	5.40
1.78935	5.39
1.80602	5.38
1.82268	5.37
1.83935	5.36
1.85602	5.35
1.87268	5.34
1.88935	5.33
1.90602	5.32
1.92268	5.31
1.93935	5.30
1.95602	5.29
1.97268	5.28
1.98935	5.27
2.00602	5.26
2.02268	5.25
2.03935	5.25
2.05602	5.24
2.07268	5.23
2.08935	5.22
2.10602	5.21
2.12268	5.20
2.13935	5.19
2.15602	5.18
2.17268	5.17
2.18935	5.16
2.20602	5.15
2.22268	5.14
2.23935	5.13
2.25602	5.12
2.27268	5.11
2.28935	5.10
2.30602	5.10
2.32268	5.09
2.33935	5.08
2.35602	5.07
2.37268	5.06
2.38935	5.06
2.40602	5.06
2.42268	5.06
2.43935	5.06
2.45602	5.06
2.47268	5.06
2.48935	5.06
2.50602	5.06
2.52268	5.06
2.53935	5.06
2.55602	5.06
2.57268	5.06
2.58935	5.06
2.60602	5.06
2.62268	5.06
2.63935	5.06
2.65602	5.06
2.67268	5.06
2.68935	5.06
2.70602	5.06
2.72268	5.06
2.73935	5.06
2.75602	5.06
2.77268	5.06
2.78935	5.06
2.80602	5.06
2.82268	5.05
2.83935	5.05
2.85602	5.05
2.87268	5.05
2.88935	5.05
2.90602	5.05
2.92268	5.05
2.93935	5.05
2.95602	5.05
2.97268	5.05
2.98935	5.05
3.00602	5.05
3.02268	5.05
3.03935	5.05
3.05602	5.05
3.07268	5.05
3.08935	5.05
3.10602	5.05
3.12268	5.05
3.13935	5.05
3.15602	5.05
3.17268	5.05
3.18935	5.05
3.20602	5.05
3.22268	5.05
3.23935	5.05
3.25602	5.05
3.27268	5.05
3.28935	5.05
3.30602	5.05
3.32268	5.05
3.33935	5.05
3.35602	5.05
3.37268	5.05
3.38935	5.05
3.40602	5.05
3.42268	5.05
3.43935	5.05
3.45602	5.05
3.47268	5.05
3.48935	5.05
3.50602	5.05
3.52268	5.05
3.53935	5.05
3.55602	5.05
3.57268	5.05
3.58935	5.05
3.60602	5.05
3.62268	5.05
3.63935	5.05
3.65602	5.05
3.67268	5.05
3.68935	5.05
3.70602	5.05
3.72268	5.05
3.73935	5.05
3.75602	5.05
3.77268	5.05
3.78935	5.05
3.80602	5.05
3.82268	5.05
3.83935	5.05
3.85602	5.05
3.87268	5.05
3.88935	5.05
3.90602	5.05
3.92268	5.05
3.93935	5.05
3.95602	5.05
3.97268	5.05
3.98935	5.05

[Status Trace (Linear Velocity)]
Interval(msec)	1000
# of Points	240
Start Time(min)	0.006
End Time(min)	3.989
Intensity Units	
Intensity Multiplier	1
R.Time (min)	Intensity
0.00602	39.01
0.02268	37.44
0.03935	38.18
0.05602	39.62
0.07268	40.12
0.08935	39.12
0.10602	38.99
0.12268	39.01
0.13935	39.01
0.15602	39.01
0.17268	39.01
0.18935	39.01
0.20602	39.01
0.22268	39.01
0.23935	39.01
0.25602	39.01
0.27268	39.01
0.28935	39.01
0.30602	39.01
0.32268	39.01
0.33935	39.01
0.35602	39.01
0.37268	39.01
0.38935	39.01
0.40602	39.01
0.42268	39.01
0.43935	39.01
0.45602	39.01
0.47268	39.01
0.48935	39.01
0.50602	39.01
0.52268	39.01
0.53935	39.01
0.55602	39.01
0.57268	39.01
0.58935	39.01
0.60602	39.01
0.62268	39.01
0.63935	39.01
0.65602	39.01
0.67268	39.01
0.68935	39.01
0.70602	39.01
0.72268	39.01
0.73935	39.01
0.75602	39.01
0.77268	39.01
0.78935	39.01
0.80602	39.01
0.82268	39.01
0.83935	39.01
0.85602	39.01
0.87268	39.01
0.88935	39.01
0.90602	39.01
0.92268	39.01
0.93935	39.01
0.95602	39.01
0.97268	39.01
0.98935	39.01
1.00602	39.01
1.02268	39.01
1.03935	39.01
1.05602	39.01
1.07268	39.01
1.08935	39.01
1.10602	39.01
1.12268	39.01
1.13935	39.01
1.15602	39.01
1.17268	39.01
1.18935	39.01
1.20602	39.01
1.22268	39.01
1.23935	39.01
1.25602	39.01
1.27268	39.01
1.28935	39.01
1.30602	39.01
1.32268	39.01
1.33935	39.01
1.35602	39.01
1.37268	39.01
1.38935	39.01
1.40602	39.01
1.42268	39.01
1.43935	39.01
1.45602	39.01
1.47268	39.01
1.48935	39.01
1.50602	39.01
1.52268	39.01
1.53935	39.01
1.55602	39.01
1.57268	39.01
1.58935	39.01
1.60602	39.01
1.62268	39.00
1.63935	38.98
1.65602	38.96
1.67268	38.93
1.68935	38.89
1.70602	38.85
1.72268	38.82
1.73935	38.79
1.75602	38.76
1.77268	38.73
1.78935	38.70
1.80602	38.66
1.82268	38.63
1.83935	38.60
1.85602	38.57
1.87268	38.54
1.88935	38.51
1.90602	38.48
1.92268	38.45
1.93935	38.42
1.95602	38.39
1.97268	38.36
1.98935	38.33
2.00602	38.30
2.02268	38.27
2.03935	38.24
2.05602	38.21
2.07268	38.18
2.08935	38.15
2.10602	38.12
2.12268	38.09
2.13935	38.06
2.15602	38.03
2.17268	38.00
2.18935	37.97
2.20602	37.94
2.22268	37.91
2.23935	37.88
2.25602	37.85
2.27268	37.82
2.28935	37.79
2.30602	37.76
2.32268	37.73
2.33935	37.70
2.35602	37.68
2.37268	37.66
2.38935	37.64
2.40602	37.64
2.42268	37.65
2.43935	37.65
2.45602	37.65
2.47268	37.65
2.48935	37.65
2.50602	37.64
2.52268	37.64
2.53935	37.64
2.55602	37.64
2.57268	37.64
2.58935	37.64
2.60602	37.64
2.62268	37.64
2.63935	37.64
2.65602	37.64
2.67268	37.64
2.68935	37.64
2.70602	37.64
2.72268	37.64
2.73935	37.64
2.75602	37.64
2.77268	37.64
2.78935	37.64
2.80602	37.64
2.82268	37.63
2.83935	37.63
2.85602	37.63
2.87268	37.63
2.88935	37.63
2.90602	37.63
2.92268	37.63
2.93935	37.63
2.95602	37.63
2.97268	37.63
2.98935	37.62
3.00602	37.62
3.02268	37.62
3.03935	37.62
3.05602	37.62
3.07268	37.62
3.08935	37.62
3.10602	37.62
3.12268	37.62
3.13935	37.62
3.15602	37.62
3.17268	37.62
3.18935	37.62
3.20602	37.62
3.22268	37.62
3.23935	37.62
3.25602	37.62
3.27268	37.62
3.28935	37.62
3.30602	37.62
3.32268	37.62
3.33935	37.62
3.35602	37.62
3.37268	37.62
3.38935	37.62
3.40602	37.62
3.42268	37.62
3.43935	37.62
3.45602	37.62
3.47268	37.62
3.48935	37.62
3.50602	37.62
3.52268	37.62
3.53935	37.62
3.55602	37.62
3.57268	37.62
3.58935	37.62
3.60602	37.62
3.62268	37.62
3.63935	37.62
3.65602	37.62
3.67268	37.62
3.68935	37.62
3.70602	37.62
3.72268	37.62
3.73935	37.62
3.75602	37.62
3.77268	37.62
3.78935	37.62
3.80602	37.62
3.82268	37.62
3.83935	37.62
3.85602	37.62
3.87268	37.62
3.88935	37.62
3.90602	37.62
3.92268	37.62
3.93935	37.62
3.95602	37.62
3.97268	37.62
3.98935	37.62

