[Header]
Application Name	LabSolutions
Version	5.110
Data File Name	C:\Users\User\Desktop\GC Analyses\Jack\UIC Prairie Sampling\9.16.22\220916_006.gcd
Output Date	11/29/2022
Output Time	11:10:15 AM

[File Information]
Type	Data File
Generated	11/1/2022 12:38:09 PM
Generated by	System Administrator
Modified	11/1/2022 12:42:26 PM
Modified by	System Administrator

[Sample Information]
Operator Name	System Administrator
Acquired	11/1/2022 12:38:26 PM
Sample Type	1:Standard
Level	1
Sample Name	220916_Run
Sample ID	220916_Run
ISTD Amount1	1
ISTD Amount2	1
ISTD Amount3	1
ISTD Amount4	1
ISTD Amount5	1
ISTD Amount6	1
ISTD Amount7	1
ISTD Amount8	1
ISTD Amount9	1
ISTD Amount10	1
ISTD Amount11	1
ISTD Amount12	1
ISTD Amount13	1
ISTD Amount14	1
ISTD Amount15	1
ISTD Amount16	1
ISTD Amount17	1
ISTD Amount18	1
ISTD Amount19	1
ISTD Amount20	1
ISTD Amount21	1
ISTD Amount22	1
ISTD Amount23	1
ISTD Amount24	1
ISTD Amount25	1
ISTD Amount26	1
ISTD Amount27	1
ISTD Amount28	1
ISTD Amount29	1
ISTD Amount30	1
ISTD Amount31	1
ISTD Amount32	1
Sample Amount	1
Dilution Factor	1
Vial#	1
Injection Volume	1
Injection Count	1
Bar Code	

[Original Files]
Data File	C:\Users\User\Desktop\GC Analyses\Jack\UIC Prairie Sampling\9.16.22\220916_006.gcd
Method File	C:\LabSolutions\Data\GHG_4min_2022\ghg3_togas_w_acet_4 min_new_int.gcm
Batch File	
Report Format File	c:\LabSolutions\System\DEFAULT.lsr

[File Description]


[Configuration]
Instrument Name	C0B7VH3-Instrument1
Instrument #	1
Line #	1
# of Detectors	3
Detector ID	DET#1	DET#2	DET#3
Detector Name	FID	PTCD	ECD
# of Channels	1	1	1

[Peak Table(Ch1)]
# of Peaks	3
Peak#	R.Time	I.Time	F.Time	Area	Height	A/H	Conc.	Mark	ID#	Name	k'	Plate #	Plate Ht.	Tailing	Resolution	Sep.Factor	Area Ratio	Height Ratio	Conc. %	Norm Conc.
1	1.465	1.435	1.534	4300	1613	2.666	100.000	   	1	CO	0.000	6279	23.888	1.748	0.000	0.000	0	0	16.667	16.667
2	1.571	1.534	1.641	20911	10523	1.987	100.000	 V 	2	CH4	0.073	11428	13.126	1.155	1.602	0.000	0	0	16.667	16.667
3	2.000	1.949	2.378	2170372	1035552	2.096	400.000	   	3	CO2	0.365	17389	8.626	1.171	7.183	5.034	0	0	66.667	66.667

[Peak Table(Ch2)]
# of Peaks	0

[Peak Table(Ch3)]
# of Peaks	2
Peak#	R.Time	I.Time	F.Time	Area	Height	A/H	Conc.	Mark	ID#	Name	k'	Plate #	Plate Ht.	Tailing	Resolution	Sep.Factor	Area Ratio	Height Ratio	Conc. %	Norm Conc.
1	2.594	2.330	2.642	2743	247	11.099	0.000	   			0.000	2124	70.628	0.584	0.000	0.000	0	0	0.000	0.000
2	2.880	2.656	3.958	78135	16236	4.812	1.000	   	1	N2O	0.110	12149	12.347	1.635	1.735	0.000	0	0	100.000	100.000

[Compound Results(Ch1)]
# of IDs	6
ID#	Name	R.Time	Area	Height	Conc.	Curve	3rd	2nd	1st	Constant	Area Ratio	Height Ratio	Conc. %	Norm Conc.
1	CO	1.465	4300	1613	100.000	Linear	0.000000e+00	0.000000e+00	4.299971e+001	0.000000e+00	0	0	16.667	16.667
2	CH4	1.571	20911	10523	100.000	Linear	0.000000e+00	0.000000e+00	2.091116e+002	0.000000e+00	0	0	16.667	16.667
3	CO2	2.000	2170372	1035552	400.000	Linear	0.000000e+00	0.000000e+00	5.425930e+003	0.000000e+00	0	0	66.667	66.667
4	Ethylene	0.000	0	0	0.000	Linear	0.000000e+00	0.000000e+00	0.000000e+00	0.000000e+00	0	0	0.000	0.000
5	Acetylene	0.000	0	0	0.000	Linear	0.000000e+00	0.000000e+00	0.000000e+00	0.000000e+00	0	0	0.000	0.000
6	Ethane	0.000	0	0	0.000	Linear	0.000000e+00	0.000000e+00	0.000000e+00	0.000000e+00	0	0	0.000	0.000

[Compound Results(Ch2)]
# of IDs	5
ID#	Name	R.Time	Area	Height	Conc.	Curve	3rd	2nd	1st	Constant	Area Ratio	Height Ratio	Conc. %	Norm Conc.
1	Hydrogen	0.000	0	0	0.000	Linear	0.000000e+00	0.000000e+00	0.000000e+00	0.000000e+00	0	0	0.000	0.000
2	Oxygen	0.000	0	0	0.000	Linear	0.000000e+00	0.000000e+00	0.000000e+00	0.000000e+00	0	0	0.000	0.000
3	Nitrogen	0.000	0	0	0.000	Linear	0.000000e+00	0.000000e+00	0.000000e+00	0.000000e+00	0	0	0.000	0.000
4	Methane	0.000	0	0	0.000	Linear	0.000000e+00	0.000000e+00	0.000000e+00	0.000000e+00	0	0	0.000	0.000
5	Carbon Monoxide	0.000	0	0	0.000	Linear	0.000000e+00	0.000000e+00	0.000000e+00	0.000000e+00	0	0	0.000	0.000

[Compound Results(Ch3)]
# of IDs	2
ID#	Name	R.Time	Area	Height	Conc.	Curve	3rd	2nd	1st	Constant	Area Ratio	Height Ratio	Conc. %	Norm Conc.
1	N2O	2.880	78135	16236	1.000	Linear	0.000000e+00	0.000000e+00	7.813495e+004	0.000000e+00	0	0	100.000	100.000
2	SF6	0.000	0	0	0.000	Linear	0.000000e+00	0.000000e+00	0.000000e+00	0.000000e+00	0	0	0.000	0.000

[Group Results(Ch1)]
# of Groups	0

[Group Results(Ch2)]
# of Groups	0

[Group Results(Ch3)]
# of Groups	0

[Chromatogram (Ch1)]
Interval(msec)	220
# of Points	1091
Start Time(min)	0.002
End Time(min)	3.998
R.Time (min)	Intensity
0.00167	15
0.00533	5
0.00900	-5
0.01267	-12
0.01633	-17
0.02000	-21
0.02367	-20
0.02733	-15
0.03100	-8
0.03467	-0
0.03833	5
0.04200	6
0.04567	3
0.04933	-2
0.05300	-10
0.05667	-18
0.06033	-20
0.06400	-19
0.06767	-19
0.07133	-18
0.07500	-16
0.07867	-13
0.08233	-7
0.08600	-1
0.08967	2
0.09333	6
0.09700	11
0.10067	11
0.10433	7
0.10800	-0
0.11167	-9
0.11533	-16
0.11900	-23
0.12267	-29
0.12633	-31
0.13000	-31
0.13367	-30
0.13733	-23
0.14100	-15
0.14467	-8
0.14833	-3
0.15200	2
0.15567	5
0.15933	5
0.16300	-1
0.16667	-13
0.17033	-25
0.17400	-33
0.17767	-40
0.18133	-44
0.18500	-43
0.18867	-39
0.19233	-37
0.19600	-38
0.19967	-40
0.20333	-41
0.20700	-37
0.21067	-29
0.21433	-18
0.21800	-12
0.22167	-11
0.22533	-16
0.22900	-24
0.23267	-30
0.23633	-31
0.24000	-29
0.24367	-25
0.24733	-21
0.25100	-16
0.25467	-12
0.25833	-11
0.26200	-11
0.26567	-14
0.26933	-19
0.27300	-22
0.27667	-23
0.28033	-23
0.28400	-25
0.28767	-27
0.29133	-28
0.29500	-29
0.29867	-30
0.30233	-31
0.30600	-32
0.30967	-31
0.31333	-30
0.31700	-30
0.32067	-30
0.32433	-29
0.32800	-31
0.33167	-32
0.33533	-32
0.33900	-30
0.34267	-27
0.34633	-24
0.35000	-24
0.35367	-25
0.35733	-27
0.36100	-33
0.36467	-40
0.36833	-44
0.37200	-45
0.37567	-46
0.37933	-46
0.38300	-49
0.38667	-47
0.39033	-46
0.39400	-44
0.39767	-41
0.40133	-36
0.40500	-30
0.40867	-28
0.41233	-33
0.41600	-37
0.41967	-40
0.42333	-40
0.42700	-39
0.43067	-37
0.43433	-34
0.43800	-33
0.44167	-33
0.44533	-34
0.44900	-36
0.45267	-41
0.45633	-44
0.46000	-45
0.46367	-44
0.46733	-43
0.47100	-42
0.47467	-41
0.47833	-41
0.48200	-38
0.48567	-35
0.48933	-33
0.49300	-32
0.49667	-32
0.50033	-31
0.50400	-30
0.50767	-32
0.51133	-36
0.51500	-38
0.51867	-38
0.52233	-37
0.52600	-37
0.52967	-37
0.53333	-37
0.53700	-38
0.54067	-43
0.54433	-50
0.54800	-56
0.55167	-60
0.55533	-62
0.55900	-62
0.56267	-60
0.56633	-55
0.57000	-50
0.57367	-48
0.57733	-49
0.58100	-50
0.58467	-49
0.58833	-47
0.59200	-47
0.59567	-46
0.59933	-46
0.60300	-50
0.60667	-55
0.61033	-59
0.61400	-63
0.61767	-65
0.62133	-65
0.62500	-61
0.62867	-55
0.63233	-52
0.63600	-56
0.63967	-55
0.64333	-47
0.64700	-36
0.65067	-31
0.65433	-34
0.65800	-39
0.66167	-42
0.66533	-43
0.66900	-47
0.67267	-51
0.67633	-53
0.68000	-59
0.68367	-62
0.68733	-61
0.69100	-61
0.69467	-56
0.69833	-59
0.70200	-59
0.70567	-54
0.70933	-51
0.71300	-51
0.71667	-54
0.72033	-53
0.72400	-50
0.72767	-49
0.73133	-52
0.73500	-57
0.73867	-62
0.74233	-65
0.74600	-65
0.74967	-61
0.75333	-55
0.75700	-49
0.76067	-45
0.76433	-44
0.76800	-45
0.77167	-47
0.77533	-48
0.77900	-46
0.78267	-44
0.78633	-44
0.79000	-47
0.79367	-50
0.79733	-53
0.80100	-56
0.80467	-59
0.80833	-58
0.81200	-53
0.81567	-45
0.81933	-36
0.82300	-32
0.82667	-33
0.83033	-36
0.83400	-40
0.83767	-47
0.84133	-55
0.84500	-63
0.84867	-68
0.85233	-68
0.85600	-65
0.85967	-60
0.86333	-57
0.86700	-57
0.87067	-57
0.87433	-58
0.87800	-60
0.88167	-63
0.88533	-67
0.88900	-69
0.89267	-70
0.89633	-71
0.90000	-67
0.90367	-61
0.90733	-57
0.91100	-57
0.91467	-65
0.91833	-73
0.92200	-80
0.92567	-85
0.92933	-86
0.93300	-84
0.93667	-78
0.94033	-72
0.94400	-64
0.94767	-57
0.95133	-55
0.95500	-55
0.95867	-54
0.96233	-53
0.96600	-53
0.96967	-55
0.97333	-58
0.97700	-60
0.98067	-63
0.98433	-69
0.98800	-77
0.99167	-79
0.99533	-78
0.99900	-73
1.00267	-68
1.00633	-65
1.01000	-67
1.01367	-70
1.01733	-70
1.02100	-68
1.02467	-67
1.02833	-69
1.03200	-75
1.03567	-83
1.03933	-85
1.04300	-83
1.04667	-79
1.05033	-77
1.05400	-81
1.05767	-84
1.06133	-84
1.06500	-83
1.06867	-80
1.07233	-78
1.07600	-76
1.07967	-74
1.08333	-72
1.08700	-70
1.09067	-70
1.09433	-73
1.09800	-75
1.10167	-78
1.10533	-81
1.10900	-84
1.11267	-85
1.11633	-81
1.12000	-72
1.12367	-67
1.12733	-66
1.13100	-67
1.13467	-65
1.13833	-60
1.14200	-57
1.14567	-58
1.14933	-59
1.15300	-63
1.15667	-68
1.16033	-70
1.16400	-72
1.16767	-74
1.17133	-74
1.17500	-72
1.17867	-72
1.18233	-75
1.18600	-78
1.18967	-80
1.19333	-82
1.19700	-83
1.20067	-82
1.20433	-81
1.20800	-80
1.21167	-76
1.21533	-70
1.21900	-66
1.22267	-62
1.22633	-62
1.23000	-67
1.23367	-72
1.23733	-75
1.24100	-76
1.24467	-76
1.24833	-78
1.25200	-79
1.25567	-79
1.25933	-78
1.26300	-70
1.26667	-58
1.27033	-51
1.27400	-53
1.27767	-60
1.28133	-69
1.28500	-77
1.28867	-83
1.29233	-88
1.29600	-91
1.29967	-92
1.30333	-92
1.30700	-91
1.31067	-88
1.31433	-84
1.31800	-84
1.32167	-87
1.32533	-89
1.32900	-90
1.33267	-87
1.33633	-81
1.34000	-76
1.34367	-75
1.34733	-80
1.35100	-87
1.35467	-93
1.35833	-93
1.36200	-90
1.36567	-86
1.36933	-86
1.37300	-89
1.37667	-89
1.38033	-88
1.38400	-87
1.38767	-84
1.39133	-80
1.39500	-77
1.39867	-76
1.40233	-79
1.40600	-84
1.40967	-87
1.41333	-90
1.41700	-94
1.42067	-97
1.42433	-98
1.42800	-97
1.43167	-93
1.43533	-88
1.43900	-65
1.44267	55
1.44633	364
1.45000	787
1.45367	1156
1.45733	1393
1.46100	1503
1.46467	1521
1.46833	1483
1.47200	1413
1.47567	1323
1.47933	1220
1.48300	1102
1.48667	964
1.49033	809
1.49400	650
1.49767	500
1.50133	372
1.50500	267
1.50867	182
1.51233	115
1.51600	63
1.51967	23
1.52333	-10
1.52700	-37
1.53067	-61
1.53433	-78
1.53800	-44
1.54167	179
1.54533	863
1.54900	2221
1.55267	4126
1.55633	6172
1.56000	7989
1.56367	9378
1.56733	10232
1.57100	10419
1.57467	9831
1.57833	8551
1.58200	6879
1.58567	5174
1.58933	3689
1.59300	2527
1.59667	1680
1.60033	1091
1.60400	690
1.60767	420
1.61133	239
1.61500	115
1.61867	30
1.62233	-24
1.62600	-57
1.62967	-82
1.63333	-101
1.63700	-109
1.64067	-112
1.64433	-113
1.64800	-113
1.65167	-113
1.65533	-115
1.65900	-114
1.66267	-107
1.66633	-100
1.67000	-101
1.67367	-107
1.67733	-113
1.68100	-119
1.68467	-124
1.68833	-129
1.69200	-135
1.69567	-136
1.69933	-130
1.70300	-125
1.70667	-127
1.71033	-132
1.71400	-138
1.71767	-143
1.72133	-143
1.72500	-139
1.72867	-135
1.73233	-135
1.73600	-137
1.73967	-139
1.74333	-140
1.74700	-139
1.75067	-137
1.75433	-137
1.75800	-135
1.76167	-128
1.76533	-115
1.76900	-106
1.77267	-103
1.77633	-110
1.78000	-118
1.78367	-125
1.78733	-125
1.79100	-121
1.79467	-122
1.79833	-126
1.80200	-128
1.80567	-131
1.80933	-133
1.81300	-133
1.81667	-127
1.82033	-117
1.82400	-111
1.82767	-108
1.83133	-107
1.83500	-106
1.83867	-112
1.84233	-122
1.84600	-130
1.84967	-132
1.85333	-130
1.85700	-125
1.86067	-121
1.86433	-121
1.86800	-122
1.87167	-124
1.87533	-123
1.87900	-121
1.88267	-119
1.88633	-116
1.89000	-111
1.89367	-107
1.89733	-101
1.90100	-96
1.90467	-94
1.90833	-94
1.91200	-87
1.91567	-85
1.91933	-87
1.92300	-91
1.92667	-96
1.93033	-100
1.93400	-102
1.93767	-103
1.94133	-103
1.94500	-102
1.94867	-100
1.95233	-85
1.95600	20
1.95967	677
1.96333	3909
1.96700	16021
1.97067	50754
1.97433	127630
1.97800	259810
1.98167	439716
1.98533	638828
1.98900	821911
1.99267	960002
1.99633	1034143
2.00000	1035491
2.00367	967631
2.00733	846396
2.01100	695990
2.01467	541748
2.01833	402918
2.02200	289377
2.02567	202856
2.02933	140186
2.03300	96351
2.03667	66387
2.04033	46178
2.04400	32629
2.04767	23539
2.05133	17406
2.05500	13218
2.05867	10312
2.06233	8257
2.06600	6768
2.06967	5662
2.07333	4820
2.07700	4167
2.08067	3649
2.08433	3229
2.08800	2885
2.09167	2600
2.09533	2363
2.09900	2161
2.10267	1989
2.10633	1845
2.11000	1723
2.11367	1611
2.11733	1505
2.12100	1409
2.12467	1326
2.12833	1248
2.13200	1184
2.13567	1124
2.13933	1067
2.14300	1013
2.14667	964
2.15033	925
2.15400	887
2.15767	846
2.16133	811
2.16500	776
2.16867	741
2.17233	712
2.17600	686
2.17967	662
2.18333	639
2.18700	618
2.19067	598
2.19433	578
2.19800	561
2.20167	548
2.20533	538
2.20900	526
2.21267	512
2.21633	500
2.22000	483
2.22367	463
2.22733	445
2.23100	429
2.23467	419
2.23833	412
2.24200	407
2.24567	403
2.24933	399
2.25300	392
2.25667	381
2.26033	368
2.26400	357
2.26767	348
2.27133	339
2.27500	330
2.27867	322
2.28233	318
2.28600	312
2.28967	311
2.29333	312
2.29700	315
2.30067	320
2.30433	321
2.30800	318
2.31167	312
2.31533	304
2.31900	296
2.32267	284
2.32633	278
2.33000	273
2.33367	269
2.33733	259
2.34100	247
2.34467	241
2.34833	243
2.35200	239
2.35567	239
2.35933	244
2.36300	248
2.36667	243
2.37033	240
2.37400	241
2.37767	235
2.38133	224
2.38500	217
2.38867	215
2.39233	217
2.39600	224
2.39967	230
2.40333	237
2.40700	242
2.41067	242
2.41433	239
2.41800	231
2.42167	222
2.42533	220
2.42900	222
2.43267	222
2.43633	220
2.44000	221
2.44367	223
2.44733	221
2.45100	221
2.45467	214
2.45833	203
2.46200	211
2.46567	215
2.46933	212
2.47300	209
2.47667	206
2.48033	203
2.48400	198
2.48767	196
2.49133	192
2.49500	188
2.49867	186
2.50233	189
2.50600	195
2.50967	199
2.51333	200
2.51700	197
2.52067	190
2.52433	178
2.52800	167
2.53167	163
2.53533	166
2.53900	173
2.54267	183
2.54633	195
2.55000	207
2.55367	215
2.55733	217
2.56100	212
2.56467	205
2.56833	197
2.57200	189
2.57567	181
2.57933	175
2.58300	170
2.58667	169
2.59033	171
2.59400	174
2.59767	179
2.60133	183
2.60500	187
2.60867	191
2.61233	193
2.61600	192
2.61967	192
2.62333	193
2.62700	196
2.63067	198
2.63433	199
2.63800	199
2.64167	200
2.64533	197
2.64900	190
2.65267	181
2.65633	175
2.66000	170
2.66367	169
2.66733	169
2.67100	171
2.67467	171
2.67833	170
2.68200	169
2.68567	167
2.68933	162
2.69300	157
2.69667	158
2.70033	164
2.70400	171
2.70767	173
2.71133	171
2.71500	167
2.71867	163
2.72233	160
2.72600	158
2.72967	158
2.73333	160
2.73700	164
2.74067	169
2.74433	176
2.74800	185
2.75167	191
2.75533	193
2.75900	190
2.76267	186
2.76633	182
2.77000	178
2.77367	178
2.77733	182
2.78100	189
2.78467	197
2.78833	202
2.79200	201
2.79567	194
2.79933	186
2.80300	180
2.80667	174
2.81033	168
2.81400	164
2.81767	164
2.82133	164
2.82500	163
2.82867	165
2.83233	166
2.83600	166
2.83967	164
2.84333	161
2.84700	159
2.85067	158
2.85433	158
2.85800	161
2.86167	167
2.86533	175
2.86900	183
2.87267	190
2.87633	194
2.88000	196
2.88367	196
2.88733	193
2.89100	190
2.89467	185
2.89833	183
2.90200	185
2.90567	188
2.90933	189
2.91300	189
2.91667	188
2.92033	186
2.92400	182
2.92767	177
2.93133	174
2.93500	177
2.93867	182
2.94233	184
2.94600	182
2.94967	175
2.95333	170
2.95700	170
2.96067	173
2.96433	177
2.96800	181
2.97167	184
2.97533	184
2.97900	184
2.98267	186
2.98633	189
2.99000	196
2.99367	204
2.99733	212
3.00100	218
3.00467	219
3.00833	212
3.01200	203
3.01567	197
3.01933	197
3.02300	202
3.02667	205
3.03033	203
3.03400	199
3.03767	191
3.04133	181
3.04500	174
3.04867	172
3.05233	174
3.05600	180
3.05967	188
3.06333	196
3.06700	201
3.07067	199
3.07433	196
3.07800	192
3.08167	190
3.08533	188
3.08900	186
3.09267	184
3.09633	182
3.10000	180
3.10367	178
3.10733	177
3.11100	180
3.11467	183
3.11833	187
3.12200	191
3.12567	193
3.12933	194
3.13300	197
3.13667	197
3.14033	196
3.14400	194
3.14767	193
3.15133	190
3.15500	192
3.15867	195
3.16233	193
3.16600	188
3.16967	183
3.17333	178
3.17700	172
3.18067	170
3.18433	171
3.18800	176
3.19167	180
3.19533	182
3.19900	181
3.20267	177
3.20633	175
3.21000	174
3.21367	174
3.21733	173
3.22100	172
3.22467	173
3.22833	170
3.23200	174
3.23567	174
3.23933	174
3.24300	173
3.24667	169
3.25033	163
3.25400	159
3.25767	158
3.26133	160
3.26500	161
3.26867	161
3.27233	163
3.27600	164
3.27967	163
3.28333	162
3.28700	162
3.29067	162
3.29433	162
3.29800	163
3.30167	165
3.30533	169
3.30900	171
3.31267	172
3.31633	171
3.32000	171
3.32367	172
3.32733	173
3.33100	173
3.33467	171
3.33833	169
3.34200	168
3.34567	166
3.34933	164
3.35300	159
3.35667	155
3.36033	155
3.36400	157
3.36767	163
3.37133	169
3.37500	176
3.37867	184
3.38233	190
3.38600	193
3.38967	192
3.39333	187
3.39700	177
3.40067	165
3.40433	157
3.40800	152
3.41167	148
3.41533	147
3.41900	150
3.42267	157
3.42633	163
3.43000	164
3.43367	161
3.43733	162
3.44100	164
3.44467	161
3.44833	158
3.45200	158
3.45567	158
3.45933	158
3.46300	158
3.46667	159
3.47033	160
3.47400	160
3.47767	160
3.48133	159
3.48500	158
3.48867	159
3.49233	161
3.49600	164
3.49967	166
3.50333	168
3.50700	171
3.51067	175
3.51433	179
3.51800	179
3.52167	177
3.52533	173
3.52900	167
3.53267	161
3.53633	155
3.54000	151
3.54367	155
3.54733	158
3.55100	160
3.55467	162
3.55833	164
3.56200	166
3.56567	165
3.56933	160
3.57300	154
3.57667	147
3.58033	142
3.58400	138
3.58767	138
3.59133	139
3.59500	139
3.59867	140
3.60233	144
3.60600	148
3.60967	152
3.61333	153
3.61700	154
3.62067	156
3.62433	157
3.62800	155
3.63167	153
3.63533	149
3.63900	145
3.64267	141
3.64633	138
3.65000	140
3.65367	147
3.65733	157
3.66100	165
3.66467	173
3.66833	176
3.67200	173
3.67567	165
3.67933	154
3.68300	144
3.68667	135
3.69033	129
3.69400	127
3.69767	129
3.70133	131
3.70500	129
3.70867	124
3.71233	121
3.71600	123
3.71967	128
3.72333	134
3.72700	138
3.73067	140
3.73433	140
3.73800	139
3.74167	137
3.74533	139
3.74900	138
3.75267	136
3.75633	135
3.76000	139
3.76367	144
3.76733	149
3.77100	151
3.77467	150
3.77833	146
3.78200	142
3.78567	139
3.78933	140
3.79300	143
3.79667	146
3.80033	149
3.80400	153
3.80767	154
3.81133	151
3.81500	146
3.81867	139
3.82233	134
3.82600	130
3.82967	126
3.83333	124
3.83700	126
3.84067	131
3.84433	133
3.84800	136
3.85167	141
3.85533	144
3.85900	145
3.86267	146
3.86633	146
3.87000	141
3.87367	133
3.87733	126
3.88100	124
3.88467	126
3.88833	130
3.89200	132
3.89567	131
3.89933	129
3.90300	130
3.90667	137
3.91033	144
3.91400	145
3.91767	139
3.92133	133
3.92500	129
3.92867	126
3.93233	125
3.93600	124
3.93967	124
3.94333	121
3.94700	117
3.95067	114
3.95433	115
3.95800	118
3.96167	121
3.96533	124
3.96900	126
3.97267	128
3.97633	125
3.98000	121
3.98367	121
3.98733	124
3.99100	127
3.99467	127
3.99833	123

[Chromatogram (Ch2)]
Interval(msec)	220
# of Points	1091
Start Time(min)	0.002
End Time(min)	3.998
R.Time (min)	Intensity
0.00167	-0
0.00533	-0
0.00900	-1
0.01267	-1
0.01633	-1
0.02000	-1
0.02367	-1
0.02733	-2
0.03100	-2
0.03467	-2
0.03833	-2
0.04200	-2
0.04567	-2
0.04933	-2
0.05300	-3
0.05667	-3
0.06033	-3
0.06400	-3
0.06767	-3
0.07133	-2
0.07500	-2
0.07867	-2
0.08233	-2
0.08600	-2
0.08967	-1
0.09333	-1
0.09700	-1
0.10067	-1
0.10433	-1
0.10800	-2
0.11167	-2
0.11533	-2
0.11900	-2
0.12267	-2
0.12633	-2
0.13000	-2
0.13367	-2
0.13733	-2
0.14100	-2
0.14467	-2
0.14833	-2
0.15200	-2
0.15567	-1
0.15933	-1
0.16300	-1
0.16667	-1
0.17033	-1
0.17400	-1
0.17767	-1
0.18133	-1
0.18500	-0
0.18867	-0
0.19233	0
0.19600	0
0.19967	0
0.20333	0
0.20700	-0
0.21067	-0
0.21433	-0
0.21800	-0
0.22167	-0
0.22533	-0
0.22900	0
0.23267	0
0.23633	1
0.24000	1
0.24367	1
0.24733	1
0.25100	1
0.25467	1
0.25833	1
0.26200	1
0.26567	1
0.26933	1
0.27300	1
0.27667	1
0.28033	1
0.28400	1
0.28767	1
0.29133	1
0.29500	1
0.29867	1
0.30233	0
0.30600	0
0.30967	0
0.31333	-0
0.31700	-0
0.32067	-0
0.32433	-0
0.32800	-0
0.33167	-0
0.33533	-0
0.33900	-0
0.34267	-0
0.34633	-0
0.35000	-0
0.35367	-0
0.35733	-0
0.36100	-0
0.36467	-1
0.36833	-1
0.37200	-1
0.37567	-1
0.37933	-1
0.38300	-1
0.38667	-1
0.39033	-1
0.39400	-1
0.39767	-1
0.40133	-1
0.40500	-1
0.40867	-1
0.41233	-2
0.41600	-2
0.41967	-2
0.42333	-2
0.42700	-2
0.43067	-2
0.43433	-2
0.43800	-2
0.44167	-2
0.44533	-2
0.44900	-2
0.45267	-2
0.45633	-2
0.46000	-2
0.46367	-2
0.46733	-1
0.47100	-1
0.47467	-1
0.47833	-1
0.48200	-1
0.48567	-1
0.48933	-1
0.49300	-1
0.49667	-2
0.50033	-2
0.50400	-1
0.50767	-1
0.51133	-1
0.51500	-1
0.51867	-0
0.52233	-0
0.52600	0
0.52967	0
0.53333	0
0.53700	0
0.54067	-0
0.54433	-0
0.54800	-0
0.55167	-0
0.55533	-0
0.55900	-1
0.56267	-1
0.56633	-1
0.57000	-1
0.57367	-1
0.57733	-1
0.58100	-0
0.58467	-0
0.58833	-1
0.59200	-1
0.59567	-1
0.59933	-1
0.60300	-2
0.60667	-2
0.61033	-2
0.61400	-2
0.61767	-2
0.62133	-2
0.62500	-2
0.62867	-2
0.63233	-2
0.63600	-2
0.63967	-2
0.64333	-1
0.64700	-1
0.65067	-1
0.65433	-1
0.65800	-1
0.66167	-2
0.66533	-2
0.66900	-2
0.67267	-2
0.67633	-2
0.68000	-2
0.68367	-2
0.68733	-2
0.69100	-2
0.69467	-1
0.69833	-1
0.70200	-1
0.70567	-1
0.70933	-1
0.71300	-2
0.71667	-2
0.72033	-2
0.72400	-2
0.72767	-2
0.73133	-2
0.73500	-2
0.73867	-2
0.74233	-2
0.74600	-2
0.74967	-2
0.75333	-2
0.75700	-2
0.76067	-2
0.76433	-1
0.76800	-1
0.77167	-1
0.77533	-1
0.77900	-1
0.78267	-1
0.78633	-1
0.79000	-1
0.79367	-1
0.79733	-1
0.80100	-1
0.80467	-2
0.80833	-2
0.81200	-2
0.81567	-2
0.81933	-2
0.82300	-2
0.82667	-2
0.83033	-2
0.83400	-2
0.83767	-2
0.84133	-2
0.84500	-2
0.84867	-2
0.85233	-2
0.85600	-2
0.85967	-2
0.86333	-2
0.86700	-2
0.87067	-2
0.87433	-2
0.87800	-2
0.88167	-2
0.88533	-2
0.88900	-2
0.89267	-2
0.89633	-2
0.90000	-2
0.90367	-2
0.90733	-2
0.91100	-2
0.91467	-2
0.91833	-3
0.92200	-3
0.92567	-3
0.92933	-3
0.93300	-3
0.93667	-3
0.94033	-3
0.94400	-2
0.94767	-2
0.95133	-2
0.95500	-2
0.95867	-2
0.96233	-2
0.96600	-3
0.96967	-3
0.97333	-3
0.97700	-3
0.98067	-3
0.98433	-2
0.98800	-2
0.99167	-2
0.99533	-2
0.99900	-2
1.00267	-2
1.00633	-2
1.01000	-2
1.01367	-2
1.01733	-2
1.02100	-3
1.02467	-3
1.02833	-3
1.03200	-3
1.03567	-4
1.03933	-4
1.04300	-4
1.04667	-4
1.05033	-4
1.05400	-3
1.05767	-3
1.06133	-3
1.06500	-3
1.06867	-3
1.07233	-3
1.07600	-3
1.07967	-3
1.08333	-3
1.08700	-3
1.09067	-3
1.09433	-3
1.09800	-3
1.10167	-3
1.10533	-3
1.10900	-3
1.11267	-4
1.11633	-4
1.12000	-4
1.12367	-4
1.12733	-3
1.13100	-3
1.13467	-3
1.13833	-2
1.14200	-2
1.14567	-2
1.14933	-2
1.15300	-2
1.15667	-2
1.16033	-1
1.16400	-1
1.16767	-2
1.17133	-2
1.17500	-2
1.17867	-2
1.18233	-2
1.18600	-3
1.18967	-3
1.19333	-3
1.19700	-3
1.20067	-2
1.20433	-2
1.20800	-2
1.21167	-2
1.21533	-2
1.21900	-2
1.22267	-2
1.22633	-2
1.23000	-2
1.23367	-2
1.23733	-2
1.24100	-2
1.24467	-2
1.24833	-2
1.25200	-2
1.25567	-2
1.25933	-2
1.26300	-2
1.26667	-3
1.27033	-3
1.27400	-3
1.27767	-3
1.28133	-3
1.28500	-3
1.28867	-3
1.29233	-3
1.29600	-3
1.29967	-3
1.30333	-3
1.30700	-3
1.31067	-3
1.31433	-3
1.31800	-3
1.32167	-3
1.32533	-3
1.32900	-3
1.33267	-3
1.33633	-2
1.34000	-2
1.34367	-2
1.34733	-2
1.35100	-2
1.35467	-2
1.35833	-2
1.36200	-2
1.36567	-2
1.36933	-2
1.37300	-2
1.37667	-2
1.38033	-2
1.38400	-2
1.38767	-3
1.39133	-3
1.39500	-3
1.39867	-3
1.40233	-3
1.40600	-3
1.40967	-3
1.41333	-3
1.41700	-3
1.42067	-3
1.42433	-3
1.42800	-4
1.43167	-4
1.43533	-4
1.43900	-4
1.44267	-4
1.44633	-4
1.45000	-5
1.45367	-5
1.45733	-5
1.46100	-5
1.46467	-6
1.46833	-6
1.47200	-6
1.47567	-6
1.47933	-5
1.48300	-5
1.48667	-5
1.49033	-5
1.49400	-5
1.49767	-5
1.50133	-5
1.50500	-5
1.50867	-4
1.51233	-4
1.51600	-4
1.51967	-4
1.52333	-3
1.52700	-3
1.53067	-3
1.53433	-3
1.53800	-2
1.54167	-2
1.54533	-2
1.54900	-2
1.55267	-1
1.55633	-1
1.56000	-1
1.56367	-1
1.56733	-1
1.57100	-1
1.57467	-1
1.57833	-1
1.58200	-2
1.58567	-2
1.58933	-2
1.59300	-2
1.59667	-3
1.60033	-3
1.60400	-4
1.60767	-6
1.61133	-8
1.61500	-10
1.61867	-12
1.62233	-15
1.62600	-18
1.62967	-22
1.63333	-25
1.63700	-29
1.64067	-32
1.64433	-36
1.64800	-40
1.65167	-44
1.65533	-47
1.65900	-50
1.66267	-54
1.66633	-58
1.67000	-62
1.67367	-67
1.67733	-72
1.68100	-77
1.68467	-82
1.68833	-87
1.69200	-92
1.69567	-96
1.69933	-100
1.70300	-103
1.70667	-106
1.71033	-108
1.71400	-109
1.71767	-110
1.72133	-111
1.72500	-112
1.72867	-113
1.73233	-113
1.73600	-114
1.73967	-115
1.74333	-116
1.74700	-117
1.75067	-118
1.75433	-118
1.75800	-118
1.76167	-118
1.76533	-118
1.76900	-117
1.77267	-116
1.77633	-116
1.78000	-115
1.78367	-115
1.78733	-116
1.79100	-117
1.79467	-118
1.79833	-119
1.80200	-120
1.80567	-121
1.80933	-122
1.81300	-123
1.81667	-124
1.82033	-124
1.82400	-124
1.82767	-124
1.83133	-124
1.83500	-124
1.83867	-124
1.84233	-123
1.84600	-123
1.84967	-123
1.85333	-123
1.85700	-124
1.86067	-124
1.86433	-124
1.86800	-124
1.87167	-124
1.87533	-124
1.87900	-124
1.88267	-124
1.88633	-124
1.89000	-123
1.89367	-123
1.89733	-122
1.90100	-122
1.90467	-122
1.90833	-123
1.91200	-123
1.91567	-123
1.91933	-124
1.92300	-124
1.92667	-124
1.93033	-123
1.93400	-123
1.93767	-122
1.94133	-122
1.94500	-121
1.94867	-120
1.95233	-119
1.95600	-118
1.95967	-117
1.96333	-117
1.96700	-117
1.97067	-117
1.97433	-117
1.97800	-117
1.98167	-118
1.98533	-118
1.98900	-118
1.99267	-117
1.99633	-117
2.00000	-116
2.00367	-115
2.00733	-114
2.01100	-113
2.01467	-112
2.01833	-112
2.02200	-112
2.02567	-112
2.02933	-112
2.03300	-112
2.03667	-112
2.04033	-112
2.04400	-112
2.04767	-112
2.05133	-111
2.05500	-111
2.05867	-111
2.06233	-111
2.06600	-111
2.06967	-111
2.07333	-111
2.07700	-111
2.08067	-111
2.08433	-111
2.08800	-111
2.09167	-111
2.09533	-110
2.09900	-110
2.10267	-109
2.10633	-108
2.11000	-107
2.11367	-106
2.11733	-105
2.12100	-104
2.12467	-104
2.12833	-104
2.13200	-104
2.13567	-104
2.13933	-104
2.14300	-104
2.14667	-104
2.15033	-104
2.15400	-103
2.15767	-103
2.16133	-103
2.16500	-102
2.16867	-102
2.17233	-101
2.17600	-101
2.17967	-100
2.18333	-100
2.18700	-99
2.19067	-98
2.19433	-98
2.19800	-97
2.20167	-97
2.20533	-97
2.20900	-97
2.21267	-97
2.21633	-97
2.22000	-96
2.22367	-96
2.22733	-96
2.23100	-96
2.23467	-96
2.23833	-96
2.24200	-96
2.24567	-95
2.24933	-95
2.25300	-94
2.25667	-94
2.26033	-93
2.26400	-93
2.26767	-93
2.27133	-92
2.27500	-91
2.27867	-91
2.28233	-90
2.28600	-90
2.28967	-89
2.29333	-89
2.29700	-89
2.30067	-89
2.30433	-89
2.30800	-89
2.31167	-89
2.31533	-89
2.31900	-90
2.32267	-92
2.32633	-93
2.33000	-94
2.33367	-95
2.33733	-95
2.34100	-95
2.34467	-94
2.34833	-93
2.35200	-91
2.35567	-89
2.35933	-87
2.36300	-86
2.36667	-84
2.37033	-82
2.37400	-79
2.37767	-76
2.38133	-73
2.38500	-69
2.38867	-65
2.39233	-60
2.39600	-56
2.39967	-51
2.40333	-46
2.40700	-42
2.41067	-37
2.41433	-33
2.41800	-29
2.42167	-25
2.42533	-22
2.42900	-20
2.43267	-18
2.43633	-16
2.44000	-14
2.44367	-12
2.44733	-11
2.45100	-9
2.45467	-8
2.45833	-6
2.46200	-5
2.46567	-3
2.46933	-2
2.47300	-1
2.47667	-1
2.48033	-0
2.48400	1
2.48767	2
2.49133	3
2.49500	4
2.49867	5
2.50233	5
2.50600	6
2.50967	7
2.51333	7
2.51700	8
2.52067	9
2.52433	9
2.52800	10
2.53167	11
2.53533	12
2.53900	12
2.54267	13
2.54633	13
2.55000	13
2.55367	13
2.55733	13
2.56100	13
2.56467	13
2.56833	13
2.57200	14
2.57567	14
2.57933	14
2.58300	14
2.58667	14
2.59033	14
2.59400	15
2.59767	15
2.60133	15
2.60500	15
2.60867	15
2.61233	15
2.61600	15
2.61967	16
2.62333	16
2.62700	16
2.63067	16
2.63433	17
2.63800	17
2.64167	17
2.64533	17
2.64900	17
2.65267	18
2.65633	18
2.66000	18
2.66367	19
2.66733	19
2.67100	19
2.67467	20
2.67833	20
2.68200	20
2.68567	20
2.68933	21
2.69300	21
2.69667	22
2.70033	22
2.70400	22
2.70767	22
2.71133	22
2.71500	21
2.71867	21
2.72233	21
2.72600	21
2.72967	21
2.73333	21
2.73700	21
2.74067	22
2.74433	22
2.74800	22
2.75167	22
2.75533	23
2.75900	23
2.76267	23
2.76633	24
2.77000	24
2.77367	25
2.77733	25
2.78100	25
2.78467	25
2.78833	26
2.79200	26
2.79567	26
2.79933	25
2.80300	25
2.80667	24
2.81033	23
2.81400	22
2.81767	21
2.82133	21
2.82500	20
2.82867	20
2.83233	20
2.83600	19
2.83967	18
2.84333	16
2.84700	13
2.85067	8
2.85433	-1
2.85800	-12
2.86167	-28
2.86533	-49
2.86900	-75
2.87267	-106
2.87633	-142
2.88000	-184
2.88367	-230
2.88733	-281
2.89100	-337
2.89467	-396
2.89833	-460
2.90200	-526
2.90567	-596
2.90933	-668
2.91300	-743
2.91667	-819
2.92033	-898
2.92400	-979
2.92767	-1062
2.93133	-1146
2.93500	-1232
2.93867	-1318
2.94233	-1404
2.94600	-1478
2.94967	-1529
2.95333	-1547
2.95700	-1529
2.96067	-1479
2.96433	-1403
2.96800	-1308
2.97167	-1202
2.97533	-1090
2.97900	-979
2.98267	-871
2.98633	-769
2.99000	-675
2.99367	-589
2.99733	-512
3.00100	-443
3.00467	-382
3.00833	-328
3.01200	-281
3.01567	-240
3.01933	-205
3.02300	-175
3.02667	-148
3.03033	-126
3.03400	-106
3.03767	-89
3.04133	-75
3.04500	-63
3.04867	-52
3.05233	-44
3.05600	-36
3.05967	-30
3.06333	-25
3.06700	-20
3.07067	-16
3.07433	-12
3.07800	-9
3.08167	-6
3.08533	-4
3.08900	-2
3.09267	-0
3.09633	1
3.10000	2
3.10367	4
3.10733	5
3.11100	5
3.11467	6
3.11833	7
3.12200	8
3.12567	8
3.12933	9
3.13300	9
3.13667	10
3.14033	10
3.14400	11
3.14767	11
3.15133	11
3.15500	11
3.15867	12
3.16233	12
3.16600	13
3.16967	13
3.17333	14
3.17700	14
3.18067	14
3.18433	14
3.18800	15
3.19167	15
3.19533	15
3.19900	16
3.20267	16
3.20633	16
3.21000	16
3.21367	16
3.21733	17
3.22100	17
3.22467	17
3.22833	17
3.23200	17
3.23567	17
3.23933	17
3.24300	17
3.24667	18
3.25033	18
3.25400	18
3.25767	18
3.26133	19
3.26500	19
3.26867	19
3.27233	19
3.27600	19
3.27967	19
3.28333	19
3.28700	19
3.29067	20
3.29433	20
3.29800	20
3.30167	20
3.30533	20
3.30900	20
3.31267	20
3.31633	20
3.32000	20
3.32367	20
3.32733	20
3.33100	21
3.33467	21
3.33833	21
3.34200	22
3.34567	22
3.34933	22
3.35300	22
3.35667	22
3.36033	22
3.36400	23
3.36767	23
3.37133	24
3.37500	24
3.37867	25
3.38233	25
3.38600	25
3.38967	25
3.39333	26
3.39700	26
3.40067	26
3.40433	26
3.40800	26
3.41167	27
3.41533	27
3.41900	27
3.42267	27
3.42633	27
3.43000	27
3.43367	28
3.43733	28
3.44100	28
3.44467	27
3.44833	27
3.45200	27
3.45567	27
3.45933	27
3.46300	27
3.46667	27
3.47033	27
3.47400	27
3.47767	26
3.48133	26
3.48500	26
3.48867	26
3.49233	26
3.49600	26
3.49967	26
3.50333	26
3.50700	25
3.51067	25
3.51433	25
3.51800	25
3.52167	24
3.52533	24
3.52900	24
3.53267	24
3.53633	25
3.54000	25
3.54367	25
3.54733	25
3.55100	25
3.55467	25
3.55833	24
3.56200	24
3.56567	24
3.56933	24
3.57300	24
3.57667	24
3.58033	24
3.58400	24
3.58767	24
3.59133	24
3.59500	24
3.59867	24
3.60233	24
3.60600	24
3.60967	24
3.61333	23
3.61700	23
3.62067	23
3.62433	23
3.62800	23
3.63167	24
3.63533	24
3.63900	24
3.64267	24
3.64633	24
3.65000	25
3.65367	25
3.65733	25
3.66100	25
3.66467	25
3.66833	25
3.67200	25
3.67567	25
3.67933	24
3.68300	24
3.68667	24
3.69033	24
3.69400	24
3.69767	24
3.70133	24
3.70500	24
3.70867	24
3.71233	23
3.71600	23
3.71967	23
3.72333	23
3.72700	23
3.73067	23
3.73433	23
3.73800	23
3.74167	24
3.74533	24
3.74900	24
3.75267	24
3.75633	24
3.76000	24
3.76367	24
3.76733	24
3.77100	24
3.77467	24
3.77833	24
3.78200	24
3.78567	24
3.78933	24
3.79300	24
3.79667	24
3.80033	24
3.80400	24
3.80767	24
3.81133	23
3.81500	23
3.81867	23
3.82233	23
3.82600	23
3.82967	23
3.83333	23
3.83700	23
3.84067	23
3.84433	23
3.84800	23
3.85167	23
3.85533	23
3.85900	23
3.86267	23
3.86633	23
3.87000	23
3.87367	23
3.87733	23
3.88100	22
3.88467	22
3.88833	22
3.89200	22
3.89567	22
3.89933	22
3.90300	22
3.90667	22
3.91033	23
3.91400	23
3.91767	23
3.92133	23
3.92500	23
3.92867	23
3.93233	23
3.93600	23
3.93967	23
3.94333	23
3.94700	23
3.95067	23
3.95433	23
3.95800	23
3.96167	23
3.96533	24
3.96900	24
3.97267	24
3.97633	24
3.98000	24
3.98367	24
3.98733	24
3.99100	25
3.99467	25
3.99833	25

[Chromatogram (Ch3)]
Interval(msec)	220
# of Points	1091
Start Time(min)	0.002
End Time(min)	3.998
R.Time (min)	Intensity
0.00167	-2
0.00533	-5
0.00900	-5
0.01267	-3
0.01633	-1
0.02000	0
0.02367	-1
0.02733	-2
0.03100	-2
0.03467	-0
0.03833	-1
0.04200	-2
0.04567	-3
0.04933	-4
0.05300	-5
0.05667	-6
0.06033	-7
0.06400	-9
0.06767	-9
0.07133	-8
0.07500	-7
0.07867	-5
0.08233	-2
0.08600	2
0.08967	2
0.09333	1
0.09700	-1
0.10067	-4
0.10433	-5
0.10800	-4
0.11167	-1
0.11533	-2
0.11900	-2
0.12267	-1
0.12633	-2
0.13000	-4
0.13367	-3
0.13733	-2
0.14100	-1
0.14467	-0
0.14833	1
0.15200	-0
0.15567	-4
0.15933	-6
0.16300	-7
0.16667	-9
0.17033	-7
0.17400	-4
0.17767	-4
0.18133	-6
0.18500	-7
0.18867	-8
0.19233	-7
0.19600	-8
0.19967	-7
0.20333	-6
0.20700	-5
0.21067	-3
0.21433	-3
0.21800	-2
0.22167	-1
0.22533	-2
0.22900	-2
0.23267	-2
0.23633	-2
0.24000	-0
0.24367	1
0.24733	2
0.25100	2
0.25467	2
0.25833	3
0.26200	5
0.26567	4
0.26933	2
0.27300	2
0.27667	1
0.28033	-1
0.28400	-4
0.28767	-8
0.29133	-11
0.29500	-11
0.29867	-9
0.30233	-7
0.30600	-6
0.30967	-7
0.31333	-8
0.31700	-9
0.32067	-9
0.32433	-8
0.32800	-7
0.33167	-5
0.33533	-3
0.33900	-1
0.34267	-2
0.34633	-3
0.35000	-4
0.35367	-6
0.35733	-7
0.36100	-8
0.36467	-8
0.36833	-9
0.37200	-7
0.37567	-6
0.37933	-6
0.38300	-7
0.38667	-7
0.39033	-5
0.39400	-5
0.39767	-6
0.40133	-6
0.40500	-4
0.40867	-5
0.41233	-6
0.41600	-4
0.41967	-1
0.42333	-0
0.42700	1
0.43067	1
0.43433	-0
0.43800	-1
0.44167	-0
0.44533	-2
0.44900	-2
0.45267	-3
0.45633	-2
0.46000	-3
0.46367	-5
0.46733	-7
0.47100	-7
0.47467	-6
0.47833	-3
0.48200	-3
0.48567	-5
0.48933	-6
0.49300	-8
0.49667	-9
0.50033	-11
0.50400	-11
0.50767	-8
0.51133	-5
0.51500	-3
0.51867	-2
0.52233	-1
0.52600	-1
0.52967	-2
0.53333	-2
0.53700	-4
0.54067	-6
0.54433	-6
0.54800	-7
0.55167	-9
0.55533	-7
0.55900	-5
0.56267	-5
0.56633	-5
0.57000	-6
0.57367	-8
0.57733	-6
0.58100	-5
0.58467	-7
0.58833	-9
0.59200	-11
0.59567	-13
0.59933	-12
0.60300	-9
0.60667	-8
0.61033	-8
0.61400	-8
0.61767	-8
0.62133	-7
0.62500	-9
0.62867	-10
0.63233	-9
0.63600	-7
0.63967	-5
0.64333	-5
0.64700	-6
0.65067	-7
0.65433	-8
0.65800	-8
0.66167	-8
0.66533	-9
0.66900	-8
0.67267	-7
0.67633	-7
0.68000	-7
0.68367	-8
0.68733	-12
0.69100	-13
0.69467	-8
0.69833	-6
0.70200	-6
0.70567	-7
0.70933	-6
0.71300	-6
0.71667	-6
0.72033	-8
0.72400	-10
0.72767	-11
0.73133	-11
0.73500	-10
0.73867	-9
0.74233	-10
0.74600	-9
0.74967	-8
0.75333	-8
0.75700	-8
0.76067	-8
0.76433	-8
0.76800	-12
0.77167	-14
0.77533	-15
0.77900	-14
0.78267	-12
0.78633	-12
0.79000	-10
0.79367	-10
0.79733	-10
0.80100	-9
0.80467	-8
0.80833	-8
0.81200	-7
0.81567	-6
0.81933	-5
0.82300	-6
0.82667	-7
0.83033	-6
0.83400	-6
0.83767	-7
0.84133	-8
0.84500	-8
0.84867	-6
0.85233	-7
0.85600	-8
0.85967	-9
0.86333	-8
0.86700	-6
0.87067	-7
0.87433	-8
0.87800	-9
0.88167	-10
0.88533	-9
0.88900	-7
0.89267	-6
0.89633	-6
0.90000	-8
0.90367	-10
0.90733	-12
0.91100	-11
0.91467	-9
0.91833	-7
0.92200	-6
0.92567	-5
0.92933	-5
0.93300	-8
0.93667	-11
0.94033	-13
0.94400	-13
0.94767	-10
0.95133	-7
0.95500	-5
0.95867	-4
0.96233	-3
0.96600	-4
0.96967	-5
0.97333	-7
0.97700	-8
0.98067	-8
0.98433	-9
0.98800	-8
0.99167	-7
0.99533	-8
0.99900	-9
1.00267	-10
1.00633	-10
1.01000	-11
1.01367	-9
1.01733	-10
1.02100	-11
1.02467	-11
1.02833	-10
1.03200	-9
1.03567	-10
1.03933	-10
1.04300	-11
1.04667	-12
1.05033	-10
1.05400	-9
1.05767	-9
1.06133	-7
1.06500	-7
1.06867	-6
1.07233	-6
1.07600	-8
1.07967	-10
1.08333	-9
1.08700	-9
1.09067	-8
1.09433	-8
1.09800	-7
1.10167	-7
1.10533	-5
1.10900	-5
1.11267	-6
1.11633	-7
1.12000	-10
1.12367	-11
1.12733	-11
1.13100	-13
1.13467	-11
1.13833	-10
1.14200	-11
1.14567	-10
1.14933	-9
1.15300	-9
1.15667	-11
1.16033	-11
1.16400	-11
1.16767	-10
1.17133	-10
1.17500	-8
1.17867	-8
1.18233	-9
1.18600	-9
1.18967	-6
1.19333	-6
1.19700	-8
1.20067	-10
1.20433	-11
1.20800	-14
1.21167	-16
1.21533	-14
1.21900	-12
1.22267	-10
1.22633	-9
1.23000	-9
1.23367	-9
1.23733	-10
1.24100	-9
1.24467	-9
1.24833	-10
1.25200	-11
1.25567	-12
1.25933	-12
1.26300	-13
1.26667	-13
1.27033	-11
1.27400	-10
1.27767	-9
1.28133	-9
1.28500	-9
1.28867	-10
1.29233	-10
1.29600	-10
1.29967	-10
1.30333	-11
1.30700	-12
1.31067	-12
1.31433	-11
1.31800	-10
1.32167	-7
1.32533	-5
1.32900	-5
1.33267	-4
1.33633	-6
1.34000	-7
1.34367	-8
1.34733	-8
1.35100	-10
1.35467	-11
1.35833	-9
1.36200	-8
1.36567	-10
1.36933	-11
1.37300	-11
1.37667	-12
1.38033	-14
1.38400	-16
1.38767	-16
1.39133	-16
1.39500	-15
1.39867	-14
1.40233	-14
1.40600	-13
1.40967	-11
1.41333	-12
1.41700	-15
1.42067	-17
1.42433	-17
1.42800	-18
1.43167	-19
1.43533	-20
1.43900	-19
1.44267	-19
1.44633	-20
1.45000	-18
1.45367	-17
1.45733	-19
1.46100	-19
1.46467	-17
1.46833	-15
1.47200	-12
1.47567	-7
1.47933	-7
1.48300	-9
1.48667	-8
1.49033	-6
1.49400	-8
1.49767	-9
1.50133	-10
1.50500	-10
1.50867	-11
1.51233	-12
1.51600	-13
1.51967	-13
1.52333	-13
1.52700	-14
1.53067	-15
1.53433	-15
1.53800	-15
1.54167	-16
1.54533	-16
1.54900	-16
1.55267	-17
1.55633	-17
1.56000	-17
1.56367	-17
1.56733	-16
1.57100	-15
1.57467	-15
1.57833	-14
1.58200	-14
1.58567	-17
1.58933	-19
1.59300	-19
1.59667	-17
1.60033	-15
1.60400	-14
1.60767	-13
1.61133	-13
1.61500	-13
1.61867	-14
1.62233	-14
1.62600	-15
1.62967	-16
1.63333	-14
1.63700	-13
1.64067	-13
1.64433	-14
1.64800	-13
1.65167	-9
1.65533	-8
1.65900	-8
1.66267	-9
1.66633	-10
1.67000	-10
1.67367	-9
1.67733	-9
1.68100	-7
1.68467	-6
1.68833	-6
1.69200	-7
1.69567	-8
1.69933	-9
1.70300	-9
1.70667	-7
1.71033	-4
1.71400	-4
1.71767	-7
1.72133	-7
1.72500	-4
1.72867	-0
1.73233	1
1.73600	3
1.73967	6
1.74333	6
1.74700	4
1.75067	2
1.75433	1
1.75800	0
1.76167	-1
1.76533	-1
1.76900	0
1.77267	-0
1.77633	-2
1.78000	-1
1.78367	-1
1.78733	-2
1.79100	-3
1.79467	-3
1.79833	-1
1.80200	1
1.80567	4
1.80933	6
1.81300	5
1.81667	2
1.82033	2
1.82400	4
1.82767	5
1.83133	7
1.83500	10
1.83867	11
1.84233	12
1.84600	12
1.84967	13
1.85333	14
1.85700	15
1.86067	14
1.86433	14
1.86800	15
1.87167	15
1.87533	17
1.87900	19
1.88267	18
1.88633	17
1.89000	17
1.89367	16
1.89733	16
1.90100	17
1.90467	18
1.90833	19
1.91200	21
1.91567	23
1.91933	24
1.92300	24
1.92667	25
1.93033	25
1.93400	23
1.93767	23
1.94133	24
1.94500	25
1.94867	27
1.95233	30
1.95600	31
1.95967	30
1.96333	28
1.96700	27
1.97067	28
1.97433	29
1.97800	31
1.98167	33
1.98533	34
1.98900	34
1.99267	34
1.99633	34
2.00000	35
2.00367	36
2.00733	37
2.01100	35
2.01467	35
2.01833	36
2.02200	36
2.02567	35
2.02933	37
2.03300	39
2.03667	40
2.04033	41
2.04400	42
2.04767	45
2.05133	47
2.05500	47
2.05867	49
2.06233	52
2.06600	50
2.06967	50
2.07333	51
2.07700	52
2.08067	54
2.08433	55
2.08800	57
2.09167	59
2.09533	59
2.09900	59
2.10267	56
2.10633	54
2.11000	54
2.11367	56
2.11733	57
2.12100	57
2.12467	57
2.12833	57
2.13200	58
2.13567	58
2.13933	60
2.14300	62
2.14667	66
2.15033	68
2.15400	68
2.15767	69
2.16133	71
2.16500	69
2.16867	69
2.17233	69
2.17600	69
2.17967	71
2.18333	72
2.18700	73
2.19067	73
2.19433	74
2.19800	75
2.20167	78
2.20533	81
2.20900	85
2.21267	89
2.21633	90
2.22000	88
2.22367	86
2.22733	85
2.23100	85
2.23467	85
2.23833	86
2.24200	86
2.24567	84
2.24933	83
2.25300	82
2.25667	84
2.26033	89
2.26400	93
2.26767	97
2.27133	101
2.27500	104
2.27867	105
2.28233	103
2.28600	105
2.28967	106
2.29333	105
2.29700	105
2.30067	105
2.30433	105
2.30800	109
2.31167	114
2.31533	117
2.31900	119
2.32267	119
2.32633	120
2.33000	121
2.33367	122
2.33733	122
2.34100	123
2.34467	124
2.34833	124
2.35200	123
2.35567	122
2.35933	124
2.36300	127
2.36667	127
2.37033	125
2.37400	128
2.37767	131
2.38133	132
2.38500	132
2.38867	133
2.39233	134
2.39600	132
2.39967	131
2.40333	132
2.40700	133
2.41067	133
2.41433	133
2.41800	135
2.42167	138
2.42533	139
2.42900	141
2.43267	145
2.43633	148
2.44000	149
2.44367	157
2.44733	176
2.45100	199
2.45467	217
2.45833	226
2.46200	228
2.46567	228
2.46933	225
2.47300	223
2.47667	220
2.48033	215
2.48400	208
2.48767	200
2.49133	193
2.49500	185
2.49867	177
2.50233	172
2.50600	168
2.50967	165
2.51333	165
2.51700	165
2.52067	164
2.52433	163
2.52800	162
2.53167	161
2.53533	160
2.53900	159
2.54267	154
2.54633	148
2.55000	145
2.55367	143
2.55733	143
2.56100	140
2.56467	138
2.56833	137
2.57200	137
2.57567	137
2.57933	139
2.58300	140
2.58667	139
2.59033	137
2.59400	135
2.59767	130
2.60133	119
2.60500	101
2.60867	76
2.61233	45
2.61600	11
2.61967	-23
2.62333	-53
2.62700	-80
2.63067	-107
2.63433	-128
2.63800	-144
2.64167	-154
2.64533	-161
2.64900	-165
2.65267	-164
2.65633	-160
2.66000	-156
2.66367	-149
2.66733	-140
2.67100	-133
2.67467	-124
2.67833	-113
2.68200	-101
2.68567	-91
2.68933	-83
2.69300	-75
2.69667	-66
2.70033	-59
2.70400	-52
2.70767	-45
2.71133	-35
2.71500	-25
2.71867	-17
2.72233	-9
2.72600	-5
2.72967	-3
2.73333	-3
2.73700	0
2.74067	5
2.74433	14
2.74800	27
2.75167	41
2.75533	54
2.75900	67
2.76267	79
2.76633	92
2.77000	105
2.77367	118
2.77733	128
2.78100	138
2.78467	147
2.78833	158
2.79200	168
2.79567	177
2.79933	185
2.80300	194
2.80667	201
2.81033	208
2.81400	215
2.81767	226
2.82133	254
2.82500	316
2.82867	447
2.83233	700
2.83600	1141
2.83967	1839
2.84333	2837
2.84700	4154
2.85067	5758
2.85433	7576
2.85800	9498
2.86167	11378
2.86533	13075
2.86900	14466
2.87267	15462
2.87633	16013
2.88000	16123
2.88367	15837
2.88733	15222
2.89100	14370
2.89467	13360
2.89833	12269
2.90200	11155
2.90567	10062
2.90933	9019
2.91300	8042
2.91667	7142
2.92033	6323
2.92400	5585
2.92767	4924
2.93133	4336
2.93500	3814
2.93867	3354
2.94233	2951
2.94600	2600
2.94967	2291
2.95333	2020
2.95700	1785
2.96067	1583
2.96433	1405
2.96800	1254
2.97167	1124
2.97533	1010
2.97900	913
2.98267	832
2.98633	760
2.99000	697
2.99367	642
2.99733	594
3.00100	552
3.00467	516
3.00833	485
3.01200	460
3.01567	440
3.01933	424
3.02300	412
3.02667	400
3.03033	387
3.03400	376
3.03767	365
3.04133	357
3.04500	349
3.04867	343
3.05233	339
3.05600	335
3.05967	331
3.06333	327
3.06700	324
3.07067	320
3.07433	317
3.07800	313
3.08167	312
3.08533	310
3.08900	307
3.09267	306
3.09633	305
3.10000	305
3.10367	304
3.10733	304
3.11100	303
3.11467	301
3.11833	301
3.12200	299
3.12567	298
3.12933	297
3.13300	298
3.13667	299
3.14033	301
3.14400	299
3.14767	296
3.15133	295
3.15500	295
3.15867	294
3.16233	293
3.16600	293
3.16967	293
3.17333	293
3.17700	293
3.18067	290
3.18433	288
3.18800	289
3.19167	290
3.19533	287
3.19900	286
3.20267	286
3.20633	285
3.21000	286
3.21367	288
3.21733	286
3.22100	285
3.22467	283
3.22833	283
3.23200	285
3.23567	288
3.23933	290
3.24300	289
3.24667	288
3.25033	285
3.25400	283
3.25767	282
3.26133	281
3.26500	279
3.26867	276
3.27233	276
3.27600	278
3.27967	279
3.28333	278
3.28700	277
3.29067	276
3.29433	274
3.29800	270
3.30167	266
3.30533	264
3.30900	265
3.31267	264
3.31633	263
3.32000	263
3.32367	261
3.32733	258
3.33100	259
3.33467	257
3.33833	254
3.34200	251
3.34567	250
3.34933	251
3.35300	251
3.35667	249
3.36033	246
3.36400	243
3.36767	242
3.37133	241
3.37500	240
3.37867	240
3.38233	238
3.38600	235
3.38967	232
3.39333	230
3.39700	231
3.40067	229
3.40433	227
3.40800	225
3.41167	224
3.41533	223
3.41900	223
3.42267	220
3.42633	216
3.43000	213
3.43367	213
3.43733	214
3.44100	213
3.44467	214
3.44833	215
3.45200	215
3.45567	214
3.45933	211
3.46300	208
3.46667	206
3.47033	206
3.47400	204
3.47767	203
3.48133	201
3.48500	200
3.48867	199
3.49233	196
3.49600	195
3.49967	195
3.50333	196
3.50700	193
3.51067	192
3.51433	191
3.51800	193
3.52167	194
3.52533	194
3.52900	191
3.53267	189
3.53633	186
3.54000	185
3.54367	185
3.54733	187
3.55100	187
3.55467	188
3.55833	188
3.56200	186
3.56567	183
3.56933	179
3.57300	176
3.57667	174
3.58033	173
3.58400	172
3.58767	171
3.59133	170
3.59500	172
3.59867	173
3.60233	172
3.60600	170
3.60967	168
3.61333	168
3.61700	169
3.62067	169
3.62433	170
3.62800	170
3.63167	170
3.63533	168
3.63900	168
3.64267	167
3.64633	165
3.65000	163
3.65367	162
3.65733	162
3.66100	161
3.66467	160
3.66833	161
3.67200	160
3.67567	158
3.67933	154
3.68300	154
3.68667	154
3.69033	152
3.69400	152
3.69767	153
3.70133	155
3.70500	154
3.70867	152
3.71233	150
3.71600	149
3.71967	149
3.72333	148
3.72700	146
3.73067	144
3.73433	142
3.73800	143
3.74167	143
3.74533	140
3.74900	140
3.75267	140
3.75633	140
3.76000	138
3.76367	136
3.76733	135
3.77100	133
3.77467	132
3.77833	134
3.78200	134
3.78567	133
3.78933	133
3.79300	134
3.79667	136
3.80033	138
3.80400	137
3.80767	133
3.81133	132
3.81500	132
3.81867	131
3.82233	130
3.82600	130
3.82967	129
3.83333	128
3.83700	129
3.84067	128
3.84433	128
3.84800	127
3.85167	126
3.85533	126
3.85900	126
3.86267	125
3.86633	126
3.87000	127
3.87367	128
3.87733	126
3.88100	125
3.88467	121
3.88833	119
3.89200	117
3.89567	117
3.89933	120
3.90300	122
3.90667	122
3.91033	121
3.91400	119
3.91767	119
3.92133	119
3.92500	119
3.92867	119
3.93233	119
3.93600	118
3.93967	117
3.94333	114
3.94700	113
3.95067	111
3.95433	111
3.95800	112
3.96167	113
3.96533	114
3.96900	114
3.97267	113
3.97633	113
3.98000	112
3.98367	110
3.98733	109
3.99100	109
3.99467	110
3.99833	109

[Status Trace (Column Oven Temperature)]
Interval(msec)	1000
# of Points	240
Start Time(min)	0.015
End Time(min)	3.998
Intensity Units	
Intensity Multiplier	1
R.Time (min)	Intensity
0.01513	35.00
0.03180	35.01
0.04847	35.01
0.06513	35.01
0.08180	35.01
0.09847	35.02
0.11513	35.03
0.13180	35.03
0.14847	35.03
0.16513	35.04
0.18180	35.03
0.19847	35.02
0.21513	35.02
0.23180	35.01
0.24847	35.00
0.26513	35.01
0.28180	35.00
0.29847	34.99
0.31513	34.99
0.33180	34.98
0.34847	34.98
0.36513	34.97
0.38180	34.97
0.39847	34.99
0.41513	34.99
0.43180	35.00
0.44847	35.00
0.46513	34.99
0.48180	35.00
0.49847	34.99
0.51513	34.99
0.53180	34.99
0.54847	34.98
0.56513	34.98
0.58180	34.98
0.59847	34.99
0.61513	34.99
0.63180	34.99
0.64847	34.99
0.66513	34.99
0.68180	34.99
0.69847	34.99
0.71513	34.99
0.73180	35.00
0.74847	35.00
0.76513	35.00
0.78180	34.99
0.79847	34.98
0.81513	34.98
0.83180	34.98
0.84847	34.98
0.86513	34.99
0.88180	34.98
0.89847	34.97
0.91513	34.98
0.93180	34.98
0.94847	34.98
0.96513	34.99
0.98180	34.99
0.99847	34.99
1.01513	34.99
1.03180	34.99
1.04847	34.99
1.06513	35.00
1.08180	35.00
1.09847	35.00
1.11513	35.00
1.13180	35.00
1.14847	35.00
1.16513	35.00
1.18180	35.00
1.19847	35.00
1.21513	35.00
1.23180	34.99
1.24847	34.99
1.26513	34.99
1.28180	35.00
1.29847	35.00
1.31513	35.00
1.33180	34.99
1.34847	34.98
1.36513	34.98
1.38180	34.99
1.39847	34.98
1.41513	34.98
1.43180	34.99
1.44847	35.00
1.46513	35.01
1.48180	35.02
1.49847	35.02
1.51513	35.02
1.53180	35.02
1.54847	35.00
1.56513	35.00
1.58180	34.99
1.59847	35.02
1.61513	35.11
1.63180	35.27
1.64847	35.48
1.66513	35.75
1.68180	36.12
1.69847	36.49
1.71513	36.83
1.73180	37.17
1.74847	37.51
1.76513	37.82
1.78180	38.14
1.79847	38.48
1.81513	38.83
1.83180	39.15
1.84847	39.48
1.86513	39.82
1.88180	40.15
1.89847	40.47
1.91513	40.81
1.93180	41.15
1.94847	41.45
1.96513	41.77
1.98180	42.11
1.99847	42.42
2.01513	42.74
2.03180	43.07
2.04847	43.40
2.06513	43.73
2.08180	44.06
2.09847	44.39
2.11513	44.70
2.13180	45.03
2.14847	45.36
2.16513	45.69
2.18180	46.01
2.19847	46.34
2.21513	46.65
2.23180	47.00
2.24847	47.33
2.26513	47.66
2.28180	47.99
2.29847	48.29
2.31513	48.67
2.33180	49.03
2.34847	49.32
2.36513	49.55
2.38180	49.64
2.39847	49.64
2.41513	49.64
2.43180	49.65
2.44847	49.67
2.46513	49.68
2.48180	49.69
2.49847	49.69
2.51513	49.71
2.53180	49.71
2.54847	49.75
2.56513	49.76
2.58180	49.78
2.59847	49.79
2.61513	49.83
2.63180	49.83
2.64847	49.84
2.66513	49.85
2.68180	49.85
2.69847	49.85
2.71513	49.86
2.73180	49.86
2.74847	49.87
2.76513	49.86
2.78180	49.85
2.79847	49.87
2.81513	49.91
2.83180	49.95
2.84847	49.97
2.86513	49.97
2.88180	49.98
2.89847	49.99
2.91513	49.99
2.93180	49.99
2.94847	49.97
2.96513	49.96
2.98180	49.96
2.99847	49.97
3.01513	49.96
3.03180	49.97
3.04847	49.97
3.06513	49.99
3.08180	50.00
3.09847	50.00
3.11513	50.01
3.13180	50.01
3.14847	50.03
3.16513	50.05
3.18180	50.06
3.19847	50.06
3.21513	50.06
3.23180	50.07
3.24847	50.08
3.26513	50.08
3.28180	50.09
3.29847	50.10
3.31513	50.10
3.33180	50.11
3.34847	50.11
3.36513	50.10
3.38180	50.07
3.39847	50.06
3.41513	50.05
3.43180	50.03
3.44847	50.02
3.46513	50.01
3.48180	50.01
3.49847	50.01
3.51513	50.01
3.53180	50.00
3.54847	50.01
3.56513	50.03
3.58180	50.02
3.59847	50.02
3.61513	50.03
3.63180	50.04
3.64847	50.03
3.66513	50.03
3.68180	50.03
3.69847	50.02
3.71513	50.03
3.73180	50.02
3.74847	50.02
3.76513	50.03
3.78180	50.03
3.79847	50.03
3.81513	50.04
3.83180	50.04
3.84847	50.04
3.86513	50.04
3.88180	50.06
3.89847	50.07
3.91513	50.06
3.93180	50.06
3.94847	50.06
3.96513	50.06
3.98180	50.05
3.99847	50.05

[Status Trace (Injection Unit Temperature)]
Interval(msec)	1000
# of Points	240
Start Time(min)	0.015
End Time(min)	3.998
Intensity Units	
Intensity Multiplier	1
R.Time (min)	Intensity
0.01513	99.98
0.03180	99.99
0.04847	99.98
0.06513	99.98
0.08180	99.99
0.09847	99.99
0.11513	99.99
0.13180	99.98
0.14847	99.99
0.16513	99.99
0.18180	99.99
0.19847	99.98
0.21513	99.99
0.23180	99.99
0.24847	99.99
0.26513	99.99
0.28180	99.99
0.29847	99.99
0.31513	99.99
0.33180	99.99
0.34847	99.99
0.36513	99.99
0.38180	99.99
0.39847	99.99
0.41513	99.99
0.43180	99.98
0.44847	99.99
0.46513	99.99
0.48180	99.99
0.49847	99.99
0.51513	99.99
0.53180	99.99
0.54847	99.99
0.56513	99.99
0.58180	99.99
0.59847	99.99
0.61513	99.99
0.63180	99.99
0.64847	99.99
0.66513	99.99
0.68180	99.99
0.69847	99.99
0.71513	99.98
0.73180	99.99
0.74847	99.99
0.76513	99.99
0.78180	99.99
0.79847	99.99
0.81513	99.99
0.83180	99.99
0.84847	99.99
0.86513	99.99
0.88180	99.99
0.89847	99.99
0.91513	99.99
0.93180	99.99
0.94847	99.99
0.96513	99.99
0.98180	99.99
0.99847	99.99
1.01513	99.98
1.03180	99.99
1.04847	99.99
1.06513	99.99
1.08180	99.99
1.09847	99.99
1.11513	99.98
1.13180	99.99
1.14847	99.99
1.16513	99.99
1.18180	99.99
1.19847	99.99
1.21513	99.99
1.23180	99.99
1.24847	99.99
1.26513	99.99
1.28180	99.99
1.29847	99.99
1.31513	99.99
1.33180	99.99
1.34847	99.99
1.36513	99.99
1.38180	99.99
1.39847	99.98
1.41513	99.99
1.43180	99.99
1.44847	99.99
1.46513	99.99
1.48180	99.99
1.49847	99.99
1.51513	99.99
1.53180	99.99
1.54847	99.99
1.56513	99.99
1.58180	99.99
1.59847	99.99
1.61513	99.99
1.63180	99.99
1.64847	99.99
1.66513	99.99
1.68180	99.99
1.69847	99.99
1.71513	99.98
1.73180	99.99
1.74847	99.99
1.76513	99.99
1.78180	99.99
1.79847	99.98
1.81513	99.98
1.83180	99.99
1.84847	99.98
1.86513	99.98
1.88180	99.98
1.89847	99.98
1.91513	99.98
1.93180	99.98
1.94847	99.98
1.96513	99.98
1.98180	99.98
1.99847	99.98
2.01513	99.98
2.03180	99.98
2.04847	99.98
2.06513	99.98
2.08180	99.97
2.09847	99.97
2.11513	99.97
2.13180	99.97
2.14847	99.97
2.16513	99.97
2.18180	99.97
2.19847	99.97
2.21513	99.97
2.23180	99.97
2.24847	99.97
2.26513	99.97
2.28180	99.97
2.29847	99.97
2.31513	99.97
2.33180	99.97
2.34847	99.97
2.36513	99.97
2.38180	99.97
2.39847	99.97
2.41513	99.97
2.43180	99.97
2.44847	99.97
2.46513	99.97
2.48180	99.97
2.49847	99.97
2.51513	99.97
2.53180	99.98
2.54847	99.97
2.56513	99.97
2.58180	99.98
2.59847	99.98
2.61513	99.98
2.63180	99.98
2.64847	99.98
2.66513	99.98
2.68180	99.98
2.69847	99.98
2.71513	99.99
2.73180	99.98
2.74847	99.99
2.76513	99.99
2.78180	99.99
2.79847	99.99
2.81513	99.99
2.83180	100.00
2.84847	99.99
2.86513	100.00
2.88180	100.00
2.89847	100.00
2.91513	100.00
2.93180	100.00
2.94847	100.00
2.96513	100.01
2.98180	100.01
2.99847	100.01
3.01513	100.01
3.03180	100.01
3.04847	100.01
3.06513	100.01
3.08180	100.02
3.09847	100.02
3.11513	100.02
3.13180	100.02
3.14847	100.02
3.16513	100.02
3.18180	100.03
3.19847	100.03
3.21513	100.03
3.23180	100.03
3.24847	100.03
3.26513	100.03
3.28180	100.03
3.29847	100.03
3.31513	100.04
3.33180	100.04
3.34847	100.04
3.36513	100.04
3.38180	100.04
3.39847	100.04
3.41513	100.04
3.43180	100.04
3.44847	100.04
3.46513	100.04
3.48180	100.04
3.49847	100.04
3.51513	100.04
3.53180	100.05
3.54847	100.04
3.56513	100.05
3.58180	100.04
3.59847	100.05
3.61513	100.04
3.63180	100.05
3.64847	100.05
3.66513	100.05
3.68180	100.05
3.69847	100.05
3.71513	100.05
3.73180	100.05
3.74847	100.05
3.76513	100.05
3.78180	100.06
3.79847	100.06
3.81513	100.06
3.83180	100.05
3.84847	100.06
3.86513	100.06
3.88180	100.06
3.89847	100.06
3.91513	100.06
3.93180	100.06
3.94847	100.05
3.96513	100.06
3.98180	100.06
3.99847	100.06

[Status Trace (Carrier Gas Pressure)]
Interval(msec)	1000
# of Points	240
Start Time(min)	0.015
End Time(min)	3.998
Intensity Units	
Intensity Multiplier	1
R.Time (min)	Intensity
0.01513	57.25
0.03180	55.66
0.04847	57.94
0.06513	59.85
0.08180	58.66
0.09847	57.98
0.11513	58.00
0.13180	58.01
0.14847	58.01
0.16513	58.00
0.18180	58.00
0.19847	58.00
0.21513	58.00
0.23180	58.00
0.24847	58.00
0.26513	58.00
0.28180	58.00
0.29847	58.00
0.31513	58.00
0.33180	58.00
0.34847	58.00
0.36513	58.00
0.38180	58.00
0.39847	58.00
0.41513	58.00
0.43180	58.00
0.44847	58.00
0.46513	58.00
0.48180	58.00
0.49847	58.00
0.51513	58.00
0.53180	58.00
0.54847	58.00
0.56513	58.00
0.58180	58.00
0.59847	58.00
0.61513	58.00
0.63180	58.00
0.64847	58.00
0.66513	58.00
0.68180	58.00
0.69847	58.00
0.71513	58.00
0.73180	58.00
0.74847	58.00
0.76513	58.00
0.78180	58.00
0.79847	58.00
0.81513	58.00
0.83180	58.00
0.84847	58.00
0.86513	58.00
0.88180	58.00
0.89847	58.00
0.91513	58.00
0.93180	58.00
0.94847	58.00
0.96513	58.00
0.98180	58.00
0.99847	58.00
1.01513	58.00
1.03180	58.00
1.04847	58.00
1.06513	58.00
1.08180	58.00
1.09847	58.00
1.11513	58.00
1.13180	58.00
1.14847	58.00
1.16513	58.00
1.18180	58.00
1.19847	58.00
1.21513	58.00
1.23180	58.00
1.24847	58.00
1.26513	58.00
1.28180	58.00
1.29847	58.00
1.31513	58.00
1.33180	58.00
1.34847	58.00
1.36513	58.00
1.38180	58.00
1.39847	58.00
1.41513	58.00
1.43180	58.00
1.44847	58.00
1.46513	58.00
1.48180	58.00
1.49847	58.00
1.51513	58.00
1.53180	58.00
1.54847	58.00
1.56513	58.00
1.58180	58.00
1.59847	58.00
1.61513	58.00
1.63180	58.01
1.64847	58.00
1.66513	58.00
1.68180	58.01
1.69847	58.00
1.71513	58.00
1.73180	58.00
1.74847	58.00
1.76513	58.00
1.78180	58.00
1.79847	58.00
1.81513	58.00
1.83180	58.00
1.84847	58.00
1.86513	58.00
1.88180	58.00
1.89847	58.00
1.91513	58.00
1.93180	58.00
1.94847	58.00
1.96513	58.00
1.98180	58.00
1.99847	58.00
2.01513	58.00
2.03180	58.00
2.04847	58.00
2.06513	58.00
2.08180	58.00
2.09847	58.00
2.11513	58.00
2.13180	58.00
2.14847	58.00
2.16513	58.00
2.18180	58.00
2.19847	58.00
2.21513	58.00
2.23180	58.00
2.24847	58.00
2.26513	58.00
2.28180	58.00
2.29847	58.00
2.31513	58.00
2.33180	58.00
2.34847	58.00
2.36513	58.00
2.38180	57.99
2.39847	57.99
2.41513	58.00
2.43180	58.00
2.44847	58.00
2.46513	58.00
2.48180	58.00
2.49847	58.00
2.51513	57.99
2.53180	57.99
2.54847	58.00
2.56513	58.00
2.58180	58.00
2.59847	58.00
2.61513	58.00
2.63180	58.00
2.64847	58.00
2.66513	58.00
2.68180	58.00
2.69847	58.00
2.71513	58.00
2.73180	58.00
2.74847	58.00
2.76513	58.00
2.78180	58.00
2.79847	58.00
2.81513	58.00
2.83180	58.00
2.84847	58.00
2.86513	58.00
2.88180	58.00
2.89847	58.00
2.91513	58.00
2.93180	58.00
2.94847	58.00
2.96513	58.00
2.98180	58.00
2.99847	58.00
3.01513	58.00
3.03180	58.00
3.04847	58.00
3.06513	58.00
3.08180	58.00
3.09847	58.00
3.11513	58.00
3.13180	58.00
3.14847	58.00
3.16513	58.00
3.18180	58.00
3.19847	58.00
3.21513	58.00
3.23180	58.00
3.24847	58.00
3.26513	58.00
3.28180	58.00
3.29847	58.00
3.31513	58.00
3.33180	58.00
3.34847	58.00
3.36513	58.00
3.38180	58.00
3.39847	58.00
3.41513	58.00
3.43180	58.00
3.44847	58.00
3.46513	58.00
3.48180	58.00
3.49847	58.00
3.51513	58.00
3.53180	58.00
3.54847	58.00
3.56513	58.00
3.58180	58.00
3.59847	58.00
3.61513	58.00
3.63180	58.00
3.64847	58.00
3.66513	58.00
3.68180	58.00
3.69847	58.00
3.71513	58.00
3.73180	58.00
3.74847	58.00
3.76513	58.00
3.78180	58.00
3.79847	58.00
3.81513	58.00
3.83180	58.00
3.84847	58.00
3.86513	58.00
3.88180	58.00
3.89847	58.00
3.91513	58.00
3.93180	58.00
3.94847	58.00
3.96513	58.00
3.98180	58.00
3.99847	58.00

[Status Trace (Carrier Gas Flow)]
Interval(msec)	1000
# of Points	240
Start Time(min)	0.015
End Time(min)	3.998
Intensity Units	
Intensity Multiplier	1
R.Time (min)	Intensity
0.01513	33.98
0.03180	34.51
0.04847	34.54
0.06513	34.54
0.08180	34.51
0.09847	34.52
0.11513	34.51
0.13180	34.55
0.14847	34.52
0.16513	34.52
0.18180	34.52
0.19847	34.52
0.21513	34.54
0.23180	34.52
0.24847	34.55
0.26513	34.52
0.28180	34.52
0.29847	34.52
0.31513	34.52
0.33180	34.52
0.34847	34.52
0.36513	34.51
0.38180	34.52
0.39847	34.51
0.41513	34.54
0.43180	34.52
0.44847	34.52
0.46513	34.50
0.48180	34.52
0.49847	34.52
0.51513	34.50
0.53180	34.52
0.54847	34.52
0.56513	34.52
0.58180	34.52
0.59847	34.52
0.61513	34.55
0.63180	34.52
0.64847	34.52
0.66513	34.52
0.68180	34.52
0.69847	34.52
0.71513	34.52
0.73180	34.51
0.74847	34.52
0.76513	34.54
0.78180	34.52
0.79847	34.52
0.81513	34.54
0.83180	34.52
0.84847	34.52
0.86513	34.52
0.88180	34.52
0.89847	34.52
0.91513	34.51
0.93180	34.52
0.94847	34.52
0.96513	34.52
0.98180	34.52
0.99847	34.52
1.01513	34.52
1.03180	34.52
1.04847	34.51
1.06513	34.52
1.08180	34.51
1.09847	34.52
1.11513	34.52
1.13180	34.52
1.14847	34.49
1.16513	34.53
1.18180	34.53
1.19847	34.53
1.21513	34.52
1.23180	34.52
1.24847	34.52
1.26513	34.52
1.28180	34.52
1.29847	34.52
1.31513	34.52
1.33180	34.55
1.34847	34.52
1.36513	34.52
1.38180	34.56
1.39847	34.49
1.41513	34.54
1.43180	34.53
1.44847	34.52
1.46513	34.52
1.48180	34.51
1.49847	34.52
1.51513	34.48
1.53180	34.52
1.54847	34.52
1.56513	34.52
1.58180	34.52
1.59847	34.52
1.61513	34.52
1.63180	34.52
1.64847	34.56
1.66513	34.52
1.68180	34.52
1.69847	34.50
1.71513	34.53
1.73180	34.52
1.74847	34.52
1.76513	34.52
1.78180	34.52
1.79847	34.49
1.81513	34.54
1.83180	34.52
1.84847	34.52
1.86513	34.49
1.88180	34.52
1.89847	34.52
1.91513	34.54
1.93180	34.52
1.94847	34.51
1.96513	34.51
1.98180	34.53
1.99847	34.52
2.01513	34.54
2.03180	34.52
2.04847	34.50
2.06513	34.50
2.08180	34.51
2.09847	34.53
2.11513	34.52
2.13180	34.52
2.14847	34.50
2.16513	34.54
2.18180	34.50
2.19847	34.53
2.21513	34.49
2.23180	34.53
2.24847	34.53
2.26513	34.52
2.28180	34.53
2.29847	34.53
2.31513	34.52
2.33180	34.49
2.34847	34.53
2.36513	34.51
2.38180	34.53
2.39847	34.52
2.41513	34.52
2.43180	34.52
2.44847	34.52
2.46513	34.50
2.48180	34.50
2.49847	34.54
2.51513	34.52
2.53180	34.52
2.54847	34.49
2.56513	34.52
2.58180	34.52
2.59847	34.52
2.61513	34.52
2.63180	34.52
2.64847	34.51
2.66513	34.51
2.68180	34.50
2.69847	34.52
2.71513	34.54
2.73180	34.54
2.74847	34.51
2.76513	34.54
2.78180	34.49
2.79847	34.54
2.81513	34.51
2.83180	34.52
2.84847	34.52
2.86513	34.50
2.88180	34.50
2.89847	34.52
2.91513	34.52
2.93180	34.50
2.94847	34.50
2.96513	34.52
2.98180	34.50
2.99847	34.54
3.01513	34.52
3.03180	34.53
3.04847	34.54
3.06513	34.50
3.08180	34.54
3.09847	34.52
3.11513	34.51
3.13180	34.55
3.14847	34.52
3.16513	34.54
3.18180	34.52
3.19847	34.52
3.21513	34.51
3.23180	34.52
3.24847	34.52
3.26513	34.53
3.28180	34.52
3.29847	34.52
3.31513	34.52
3.33180	34.52
3.34847	34.54
3.36513	34.54
3.38180	34.51
3.39847	34.53
3.41513	34.52
3.43180	34.50
3.44847	34.53
3.46513	34.52
3.48180	34.52
3.49847	34.53
3.51513	34.52
3.53180	34.50
3.54847	34.54
3.56513	34.53
3.58180	34.53
3.59847	34.52
3.61513	34.54
3.63180	34.51
3.64847	34.51
3.66513	34.54
3.68180	34.53
3.69847	34.52
3.71513	34.52
3.73180	34.54
3.74847	34.52
3.76513	34.52
3.78180	34.51
3.79847	34.52
3.81513	34.52
3.83180	34.52
3.84847	34.51
3.86513	34.52
3.88180	34.52
3.89847	34.52
3.91513	34.53
3.93180	34.50
3.94847	34.52
3.96513	34.52
3.98180	34.53
3.99847	34.53

[Status Trace (Column Flow)]
Interval(msec)	1000
# of Points	240
Start Time(min)	0.015
End Time(min)	3.998
Intensity Units	
Intensity Multiplier	1
R.Time (min)	Intensity
0.01513	5.44
0.03180	5.26
0.04847	5.52
0.06513	5.74
0.08180	5.60
0.09847	5.52
0.11513	5.53
0.13180	5.53
0.14847	5.53
0.16513	5.53
0.18180	5.53
0.19847	5.53
0.21513	5.53
0.23180	5.53
0.24847	5.53
0.26513	5.53
0.28180	5.53
0.29847	5.53
0.31513	5.53
0.33180	5.53
0.34847	5.53
0.36513	5.53
0.38180	5.53
0.39847	5.53
0.41513	5.53
0.43180	5.53
0.44847	5.53
0.46513	5.53
0.48180	5.53
0.49847	5.53
0.51513	5.53
0.53180	5.53
0.54847	5.53
0.56513	5.53
0.58180	5.53
0.59847	5.53
0.61513	5.53
0.63180	5.53
0.64847	5.53
0.66513	5.53
0.68180	5.53
0.69847	5.53
0.71513	5.53
0.73180	5.53
0.74847	5.53
0.76513	5.53
0.78180	5.53
0.79847	5.53
0.81513	5.53
0.83180	5.53
0.84847	5.53
0.86513	5.53
0.88180	5.53
0.89847	5.53
0.91513	5.53
0.93180	5.53
0.94847	5.53
0.96513	5.53
0.98180	5.53
0.99847	5.53
1.01513	5.53
1.03180	5.53
1.04847	5.53
1.06513	5.53
1.08180	5.53
1.09847	5.53
1.11513	5.53
1.13180	5.53
1.14847	5.53
1.16513	5.53
1.18180	5.53
1.19847	5.53
1.21513	5.53
1.23180	5.53
1.24847	5.53
1.26513	5.53
1.28180	5.53
1.29847	5.53
1.31513	5.53
1.33180	5.53
1.34847	5.53
1.36513	5.53
1.38180	5.53
1.39847	5.53
1.41513	5.53
1.43180	5.53
1.44847	5.53
1.46513	5.53
1.48180	5.53
1.49847	5.53
1.51513	5.53
1.53180	5.53
1.54847	5.53
1.56513	5.53
1.58180	5.53
1.59847	5.53
1.61513	5.52
1.63180	5.52
1.64847	5.51
1.66513	5.50
1.68180	5.49
1.69847	5.48
1.71513	5.47
1.73180	5.46
1.74847	5.45
1.76513	5.44
1.78180	5.43
1.79847	5.42
1.81513	5.41
1.83180	5.40
1.84847	5.39
1.86513	5.38
1.88180	5.37
1.89847	5.36
1.91513	5.35
1.93180	5.34
1.94847	5.33
1.96513	5.32
1.98180	5.31
1.99847	5.30
2.01513	5.29
2.03180	5.28
2.04847	5.27
2.06513	5.26
2.08180	5.25
2.09847	5.24
2.11513	5.23
2.13180	5.22
2.14847	5.22
2.16513	5.21
2.18180	5.20
2.19847	5.19
2.21513	5.18
2.23180	5.17
2.24847	5.16
2.26513	5.15
2.28180	5.14
2.29847	5.13
2.31513	5.12
2.33180	5.11
2.34847	5.10
2.36513	5.10
2.38180	5.09
2.39847	5.09
2.41513	5.09
2.43180	5.09
2.44847	5.09
2.46513	5.09
2.48180	5.09
2.49847	5.09
2.51513	5.09
2.53180	5.09
2.54847	5.09
2.56513	5.09
2.58180	5.09
2.59847	5.09
2.61513	5.09
2.63180	5.09
2.64847	5.09
2.66513	5.09
2.68180	5.09
2.69847	5.09
2.71513	5.09
2.73180	5.09
2.74847	5.09
2.76513	5.09
2.78180	5.09
2.79847	5.09
2.81513	5.09
2.83180	5.08
2.84847	5.08
2.86513	5.08
2.88180	5.08
2.89847	5.08
2.91513	5.08
2.93180	5.08
2.94847	5.08
2.96513	5.08
2.98180	5.08
2.99847	5.08
3.01513	5.08
3.03180	5.08
3.04847	5.08
3.06513	5.08
3.08180	5.08
3.09847	5.08
3.11513	5.08
3.13180	5.08
3.14847	5.08
3.16513	5.08
3.18180	5.08
3.19847	5.08
3.21513	5.08
3.23180	5.08
3.24847	5.08
3.26513	5.08
3.28180	5.08
3.29847	5.08
3.31513	5.08
3.33180	5.08
3.34847	5.08
3.36513	5.08
3.38180	5.08
3.39847	5.08
3.41513	5.08
3.43180	5.08
3.44847	5.08
3.46513	5.08
3.48180	5.08
3.49847	5.08
3.51513	5.08
3.53180	5.08
3.54847	5.08
3.56513	5.08
3.58180	5.08
3.59847	5.08
3.61513	5.08
3.63180	5.08
3.64847	5.08
3.66513	5.08
3.68180	5.08
3.69847	5.08
3.71513	5.08
3.73180	5.08
3.74847	5.08
3.76513	5.08
3.78180	5.08
3.79847	5.08
3.81513	5.08
3.83180	5.08
3.84847	5.08
3.86513	5.08
3.88180	5.08
3.89847	5.08
3.91513	5.08
3.93180	5.08
3.94847	5.08
3.96513	5.08
3.98180	5.08
3.99847	5.08

[Status Trace (Linear Velocity)]
Interval(msec)	1000
# of Points	240
Start Time(min)	0.015
End Time(min)	3.998
Intensity Units	
Intensity Multiplier	1
R.Time (min)	Intensity
0.01513	38.53
0.03180	37.48
0.04847	38.98
0.06513	40.23
0.08180	39.45
0.09847	39.00
0.11513	39.01
0.13180	39.02
0.14847	39.02
0.16513	39.02
0.18180	39.02
0.19847	39.02
0.21513	39.02
0.23180	39.02
0.24847	39.02
0.26513	39.02
0.28180	39.02
0.29847	39.02
0.31513	39.02
0.33180	39.02
0.34847	39.02
0.36513	39.02
0.38180	39.02
0.39847	39.02
0.41513	39.02
0.43180	39.02
0.44847	39.02
0.46513	39.02
0.48180	39.02
0.49847	39.02
0.51513	39.02
0.53180	39.02
0.54847	39.02
0.56513	39.02
0.58180	39.02
0.59847	39.02
0.61513	39.02
0.63180	39.02
0.64847	39.02
0.66513	39.02
0.68180	39.02
0.69847	39.02
0.71513	39.02
0.73180	39.02
0.74847	39.02
0.76513	39.02
0.78180	39.02
0.79847	39.02
0.81513	39.02
0.83180	39.02
0.84847	39.02
0.86513	39.02
0.88180	39.02
0.89847	39.02
0.91513	39.02
0.93180	39.02
0.94847	39.02
0.96513	39.02
0.98180	39.02
0.99847	39.02
1.01513	39.02
1.03180	39.02
1.04847	39.02
1.06513	39.02
1.08180	39.02
1.09847	39.02
1.11513	39.02
1.13180	39.02
1.14847	39.02
1.16513	39.02
1.18180	39.02
1.19847	39.02
1.21513	39.02
1.23180	39.02
1.24847	39.02
1.26513	39.02
1.28180	39.02
1.29847	39.02
1.31513	39.02
1.33180	39.02
1.34847	39.02
1.36513	39.02
1.38180	39.02
1.39847	39.02
1.41513	39.02
1.43180	39.02
1.44847	39.02
1.46513	39.02
1.48180	39.02
1.49847	39.02
1.51513	39.02
1.53180	39.02
1.54847	39.02
1.56513	39.02
1.58180	39.02
1.59847	39.02
1.61513	39.01
1.63180	39.00
1.64847	38.98
1.66513	38.95
1.68180	38.92
1.69847	38.88
1.71513	38.85
1.73180	38.81
1.74847	38.78
1.76513	38.75
1.78180	38.72
1.79847	38.69
1.81513	38.66
1.83180	38.63
1.84847	38.59
1.86513	38.56
1.88180	38.53
1.89847	38.50
1.91513	38.47
1.93180	38.44
1.94847	38.41
1.96513	38.38
1.98180	38.35
1.99847	38.32
2.01513	38.29
2.03180	38.26
2.04847	38.23
2.06513	38.20
2.08180	38.17
2.09847	38.14
2.11513	38.11
2.13180	38.08
2.14847	38.05
2.16513	38.02
2.18180	37.99
2.19847	37.96
2.21513	37.94
2.23180	37.90
2.24847	37.87
2.26513	37.85
2.28180	37.81
2.29847	37.79
2.31513	37.76
2.33180	37.72
2.34847	37.69
2.36513	37.67
2.38180	37.66
2.39847	37.66
2.41513	37.66
2.43180	37.66
2.44847	37.66
2.46513	37.66
2.48180	37.66
2.49847	37.66
2.51513	37.65
2.53180	37.65
2.54847	37.66
2.56513	37.66
2.58180	37.65
2.59847	37.65
2.61513	37.65
2.63180	37.65
2.64847	37.65
2.66513	37.65
2.68180	37.65
2.69847	37.65
2.71513	37.65
2.73180	37.65
2.74847	37.65
2.76513	37.65
2.78180	37.65
2.79847	37.65
2.81513	37.64
2.83180	37.64
2.84847	37.64
2.86513	37.64
2.88180	37.64
2.89847	37.64
2.91513	37.63
2.93180	37.63
2.94847	37.64
2.96513	37.64
2.98180	37.64
2.99847	37.64
3.01513	37.64
3.03180	37.64
3.04847	37.64
3.06513	37.64
3.08180	37.63
3.09847	37.63
3.11513	37.63
3.13180	37.63
3.14847	37.63
3.16513	37.63
3.18180	37.63
3.19847	37.63
3.21513	37.63
3.23180	37.63
3.24847	37.63
3.26513	37.63
3.28180	37.63
3.29847	37.63
3.31513	37.62
3.33180	37.62
3.34847	37.62
3.36513	37.63
3.38180	37.63
3.39847	37.63
3.41513	37.63
3.43180	37.63
3.44847	37.63
3.46513	37.63
3.48180	37.63
3.49847	37.63
3.51513	37.63
3.53180	37.63
3.54847	37.63
3.56513	37.63
3.58180	37.63
3.59847	37.63
3.61513	37.63
3.63180	37.63
3.64847	37.63
3.66513	37.63
3.68180	37.63
3.69847	37.63
3.71513	37.63
3.73180	37.63
3.74847	37.63
3.76513	37.63
3.78180	37.63
3.79847	37.63
3.81513	37.63
3.83180	37.63
3.84847	37.63
3.86513	37.63
3.88180	37.63
3.89847	37.63
3.91513	37.63
3.93180	37.63
3.94847	37.63
3.96513	37.63
3.98180	37.63
3.99847	37.63

