[Header]
Application Name	LabSolutions
Version	5.110
Data File Name	C:\Users\User\Desktop\GC Analyses\Jack\UIC Prairie Sampling\9.16.22\220916_018.gcd
Output Date	11/29/2022
Output Time	11:10:16 AM

[File Information]
Type	Data File
Generated	11/10/2022 3:31:32 PM
Generated by	System Administrator
Modified	11/10/2022 3:35:52 PM
Modified by	System Administrator

[Sample Information]
Operator Name	System Administrator
Acquired	11/10/2022 3:31:52 PM
Sample Type	1:Standard
Level	1
Sample Name	220916_UICPrairie
Sample ID	220916_UICPrairie
ISTD Amount1	1
ISTD Amount2	1
ISTD Amount3	1
ISTD Amount4	1
ISTD Amount5	1
ISTD Amount6	1
ISTD Amount7	1
ISTD Amount8	1
ISTD Amount9	1
ISTD Amount10	1
ISTD Amount11	1
ISTD Amount12	1
ISTD Amount13	1
ISTD Amount14	1
ISTD Amount15	1
ISTD Amount16	1
ISTD Amount17	1
ISTD Amount18	1
ISTD Amount19	1
ISTD Amount20	1
ISTD Amount21	1
ISTD Amount22	1
ISTD Amount23	1
ISTD Amount24	1
ISTD Amount25	1
ISTD Amount26	1
ISTD Amount27	1
ISTD Amount28	1
ISTD Amount29	1
ISTD Amount30	1
ISTD Amount31	1
ISTD Amount32	1
Sample Amount	1
Dilution Factor	1
Vial#	1
Injection Volume	1
Injection Count	1
Bar Code	

[Original Files]
Data File	C:\Users\User\Desktop\GC Analyses\Jack\UIC Prairie Sampling\9.16.22\220916_018.gcd
Method File	C:\LabSolutions\Data\GHG_4min_2022\ghg3_togas_w_acet_4 min_new_int.gcm
Batch File	
Report Format File	c:\LabSolutions\System\DEFAULT.lsr

[File Description]


[Configuration]
Instrument Name	C0B7VH3-Instrument1
Instrument #	1
Line #	1
# of Detectors	3
Detector ID	DET#1	DET#2	DET#3
Detector Name	FID	PTCD	ECD
# of Channels	1	1	1

[Peak Table(Ch1)]
# of Peaks	3
Peak#	R.Time	I.Time	F.Time	Area	Height	A/H	Conc.	Mark	ID#	Name	k'	Plate #	Plate Ht.	Tailing	Resolution	Sep.Factor	Area Ratio	Height Ratio	Conc. %	Norm Conc.
1	1.476	1.435	1.534	12269	5464	2.246	100.000	   	1	CO	0.000	8230	18.227	1.208	0.000	0.000	0	0	16.667	16.667
2	1.567	1.534	1.626	4857	2449	1.983	100.000	 V 	2	CH4	0.062	11171	13.428	1.139	1.474	0.000	0	0	16.667	16.667
3	1.996	1.949	2.381	1983457	962480	2.061	400.000	   	3	CO2	0.353	17624	8.511	1.210	7.182	5.680	0	0	66.667	66.667

[Peak Table(Ch2)]
# of Peaks	0

[Peak Table(Ch3)]
# of Peaks	3
Peak#	R.Time	I.Time	F.Time	Area	Height	A/H	Conc.	Mark	ID#	Name	k'	Plate #	Plate Ht.	Tailing	Resolution	Sep.Factor	Area Ratio	Height Ratio	Conc. %	Norm Conc.
1	2.462	1.256	2.649	15121	447	33.795	0.000	   			0.000	141	1066.008	0.580	0.000	0.000	0	0	0.000	0.000
2	2.876	2.664	3.030	23186	5678	4.083	1.000	   	1	N2O	0.168	12857	11.666	1.647	0.889	0.000	0	0	100.000	100.000
3	3.228	3.030	3.995	20740	618	33.541	0.000	 V 			0.311	215	696.410	0.000	0.717	1.850	0	0	0.000	0.000

[Compound Results(Ch1)]
# of IDs	6
ID#	Name	R.Time	Area	Height	Conc.	Curve	3rd	2nd	1st	Constant	Area Ratio	Height Ratio	Conc. %	Norm Conc.
1	CO	1.476	12269	5464	100.000	Linear	0.000000e+00	0.000000e+00	1.226902e+002	0.000000e+00	0	0	16.667	16.667
2	CH4	1.567	4857	2449	100.000	Linear	0.000000e+00	0.000000e+00	4.856541e+001	0.000000e+00	0	0	16.667	16.667
3	CO2	1.996	1983457	962480	400.000	Linear	0.000000e+00	0.000000e+00	4.958644e+003	0.000000e+00	0	0	66.667	66.667
4	Ethylene	0.000	0	0	0.000	Linear	0.000000e+00	0.000000e+00	0.000000e+00	0.000000e+00	0	0	0.000	0.000
5	Acetylene	0.000	0	0	0.000	Linear	0.000000e+00	0.000000e+00	0.000000e+00	0.000000e+00	0	0	0.000	0.000
6	Ethane	0.000	0	0	0.000	Linear	0.000000e+00	0.000000e+00	0.000000e+00	0.000000e+00	0	0	0.000	0.000

[Compound Results(Ch2)]
# of IDs	5
ID#	Name	R.Time	Area	Height	Conc.	Curve	3rd	2nd	1st	Constant	Area Ratio	Height Ratio	Conc. %	Norm Conc.
1	Hydrogen	0.000	0	0	0.000	Linear	0.000000e+00	0.000000e+00	0.000000e+00	0.000000e+00	0	0	0.000	0.000
2	Oxygen	0.000	0	0	0.000	Linear	0.000000e+00	0.000000e+00	0.000000e+00	0.000000e+00	0	0	0.000	0.000
3	Nitrogen	0.000	0	0	0.000	Linear	0.000000e+00	0.000000e+00	0.000000e+00	0.000000e+00	0	0	0.000	0.000
4	Methane	0.000	0	0	0.000	Linear	0.000000e+00	0.000000e+00	0.000000e+00	0.000000e+00	0	0	0.000	0.000
5	Carbon Monoxide	0.000	0	0	0.000	Linear	0.000000e+00	0.000000e+00	0.000000e+00	0.000000e+00	0	0	0.000	0.000

[Compound Results(Ch3)]
# of IDs	2
ID#	Name	R.Time	Area	Height	Conc.	Curve	3rd	2nd	1st	Constant	Area Ratio	Height Ratio	Conc. %	Norm Conc.
1	N2O	2.876	23186	5678	1.000	Linear	0.000000e+00	0.000000e+00	2.318608e+004	0.000000e+00	0	0	100.000	100.000
2	SF6	0.000	0	0	0.000	Linear	0.000000e+00	0.000000e+00	0.000000e+00	0.000000e+00	0	0	0.000	0.000

[Group Results(Ch1)]
# of Groups	0

[Group Results(Ch2)]
# of Groups	0

[Group Results(Ch3)]
# of Groups	0

[Chromatogram (Ch1)]
Interval(msec)	220
# of Points	1091
Start Time(min)	0.002
End Time(min)	3.998
R.Time (min)	Intensity
0.00167	-15
0.00533	-9
0.00900	-2
0.01267	5
0.01633	10
0.02000	11
0.02367	11
0.02733	13
0.03100	15
0.03467	17
0.03833	18
0.04200	20
0.04567	21
0.04933	23
0.05300	24
0.05667	24
0.06033	20
0.06400	20
0.06767	20
0.07133	16
0.07500	10
0.07867	7
0.08233	8
0.08600	11
0.08967	18
0.09333	24
0.09700	28
0.10067	29
0.10433	25
0.10800	21
0.11167	16
0.11533	11
0.11900	6
0.12267	3
0.12633	1
0.13000	-0
0.13367	-3
0.13733	-8
0.14100	-14
0.14467	-18
0.14833	-19
0.15200	-18
0.15567	-16
0.15933	-16
0.16300	-19
0.16667	-20
0.17033	-21
0.17400	-23
0.17767	-21
0.18133	-15
0.18500	-6
0.18867	-1
0.19233	-4
0.19600	-15
0.19967	-26
0.20333	-33
0.20700	-37
0.21067	-39
0.21433	-42
0.21800	-43
0.22167	-44
0.22533	-45
0.22900	-41
0.23267	-32
0.23633	-21
0.24000	-12
0.24367	-5
0.24733	-4
0.25100	-10
0.25467	-14
0.25833	-13
0.26200	-8
0.26567	-2
0.26933	3
0.27300	9
0.27667	10
0.28033	3
0.28400	-9
0.28767	-21
0.29133	-29
0.29500	-32
0.29867	-34
0.30233	-35
0.30600	-37
0.30967	-39
0.31333	-39
0.31700	-39
0.32067	-41
0.32433	-45
0.32800	-49
0.33167	-47
0.33533	-41
0.33900	-33
0.34267	-26
0.34633	-24
0.35000	-27
0.35367	-31
0.35733	-35
0.36100	-37
0.36467	-40
0.36833	-43
0.37200	-46
0.37567	-47
0.37933	-47
0.38300	-44
0.38667	-40
0.39033	-31
0.39400	-22
0.39767	-21
0.40133	-22
0.40500	-22
0.40867	-28
0.41233	-34
0.41600	-38
0.41967	-42
0.42333	-43
0.42700	-44
0.43067	-42
0.43433	-48
0.43800	-43
0.44167	-28
0.44533	-22
0.44900	-26
0.45267	-34
0.45633	-40
0.46000	-40
0.46367	-37
0.46733	-30
0.47100	-23
0.47467	-21
0.47833	-23
0.48200	-26
0.48567	-29
0.48933	-30
0.49300	-29
0.49667	-28
0.50033	-29
0.50400	-31
0.50767	-34
0.51133	-36
0.51500	-35
0.51867	-34
0.52233	-35
0.52600	-37
0.52967	-41
0.53333	-45
0.53700	-44
0.54067	-38
0.54433	-34
0.54800	-32
0.55167	-32
0.55533	-32
0.55900	-32
0.56267	-31
0.56633	-26
0.57000	-24
0.57367	-29
0.57733	-39
0.58100	-46
0.58467	-47
0.58833	-47
0.59200	-46
0.59567	-45
0.59933	-45
0.60300	-45
0.60667	-45
0.61033	-46
0.61400	-47
0.61767	-48
0.62133	-48
0.62500	-43
0.62867	-37
0.63233	-32
0.63600	-32
0.63967	-36
0.64333	-43
0.64700	-47
0.65067	-47
0.65433	-48
0.65800	-51
0.66167	-53
0.66533	-53
0.66900	-52
0.67267	-51
0.67633	-48
0.68000	-45
0.68367	-45
0.68733	-48
0.69100	-50
0.69467	-51
0.69833	-51
0.70200	-53
0.70567	-53
0.70933	-52
0.71300	-50
0.71667	-50
0.72033	-55
0.72400	-58
0.72767	-59
0.73133	-60
0.73500	-60
0.73867	-58
0.74233	-57
0.74600	-58
0.74967	-59
0.75333	-59
0.75700	-57
0.76067	-55
0.76433	-50
0.76800	-43
0.77167	-36
0.77533	-35
0.77900	-41
0.78267	-49
0.78633	-59
0.79000	-69
0.79367	-73
0.79733	-69
0.80100	-64
0.80467	-62
0.80833	-62
0.81200	-63
0.81567	-64
0.81933	-66
0.82300	-67
0.82667	-68
0.83033	-65
0.83400	-60
0.83767	-55
0.84133	-53
0.84500	-53
0.84867	-55
0.85233	-59
0.85600	-66
0.85967	-74
0.86333	-80
0.86700	-81
0.87067	-80
0.87433	-77
0.87800	-73
0.88167	-72
0.88533	-73
0.88900	-77
0.89267	-80
0.89633	-82
0.90000	-78
0.90367	-71
0.90733	-63
0.91100	-60
0.91467	-63
0.91833	-63
0.92200	-59
0.92567	-57
0.92933	-56
0.93300	-59
0.93667	-65
0.94033	-72
0.94400	-77
0.94767	-78
0.95133	-74
0.95500	-68
0.95867	-64
0.96233	-63
0.96600	-61
0.96967	-61
0.97333	-64
0.97700	-72
0.98067	-79
0.98433	-81
0.98800	-81
0.99167	-79
0.99533	-74
0.99900	-68
1.00267	-67
1.00633	-67
1.01000	-68
1.01367	-70
1.01733	-72
1.02100	-71
1.02467	-68
1.02833	-64
1.03200	-60
1.03567	-62
1.03933	-69
1.04300	-74
1.04667	-79
1.05033	-82
1.05400	-83
1.05767	-82
1.06133	-82
1.06500	-83
1.06867	-84
1.07233	-82
1.07600	-78
1.07967	-73
1.08333	-70
1.08700	-66
1.09067	-60
1.09433	-55
1.09800	-55
1.10167	-60
1.10533	-69
1.10900	-74
1.11267	-74
1.11633	-76
1.12000	-81
1.12367	-87
1.12733	-89
1.13100	-89
1.13467	-90
1.13833	-90
1.14200	-89
1.14567	-85
1.14933	-78
1.15300	-73
1.15667	-71
1.16033	-69
1.16400	-71
1.16767	-74
1.17133	-77
1.17500	-76
1.17867	-74
1.18233	-69
1.18600	-62
1.18967	-59
1.19333	-60
1.19700	-65
1.20067	-73
1.20433	-79
1.20800	-82
1.21167	-85
1.21533	-90
1.21900	-97
1.22267	-100
1.22633	-101
1.23000	-98
1.23367	-95
1.23733	-88
1.24100	-75
1.24467	-60
1.24833	-52
1.25200	-57
1.25567	-70
1.25933	-88
1.26300	-104
1.26667	-112
1.27033	-114
1.27400	-113
1.27767	-110
1.28133	-103
1.28500	-93
1.28867	-87
1.29233	-83
1.29600	-81
1.29967	-81
1.30333	-80
1.30700	-81
1.31067	-84
1.31433	-90
1.31800	-96
1.32167	-101
1.32533	-101
1.32900	-97
1.33267	-93
1.33633	-92
1.34000	-94
1.34367	-95
1.34733	-92
1.35100	-87
1.35467	-83
1.35833	-80
1.36200	-81
1.36567	-84
1.36933	-87
1.37300	-89
1.37667	-90
1.38033	-92
1.38400	-92
1.38767	-91
1.39133	-87
1.39500	-87
1.39867	-93
1.40233	-101
1.40600	-107
1.40967	-113
1.41333	-116
1.41700	-117
1.42067	-118
1.42433	-118
1.42800	-115
1.43167	-113
1.43533	-105
1.43900	-65
1.44267	75
1.44633	363
1.45000	834
1.45367	1557
1.45733	2491
1.46100	3456
1.46467	4286
1.46833	4904
1.47200	5274
1.47567	5358
1.47933	5123
1.48300	4589
1.48667	3856
1.49033	3061
1.49400	2324
1.49767	1704
1.50133	1223
1.50500	867
1.50867	609
1.51233	423
1.51600	288
1.51967	189
1.52333	113
1.52700	56
1.53067	16
1.53433	-5
1.53800	3
1.54167	84
1.54533	303
1.54900	679
1.55267	1144
1.55633	1596
1.56000	1965
1.56367	2223
1.56733	2343
1.57100	2287
1.57467	2048
1.57833	1685
1.58200	1279
1.58567	904
1.58933	597
1.59300	366
1.59667	199
1.60033	89
1.60400	16
1.60767	-28
1.61133	-55
1.61500	-74
1.61867	-89
1.62233	-99
1.62600	-107
1.62967	-109
1.63333	-107
1.63700	-104
1.64067	-101
1.64433	-100
1.64800	-102
1.65167	-108
1.65533	-114
1.65900	-117
1.66267	-117
1.66633	-114
1.67000	-111
1.67367	-108
1.67733	-108
1.68100	-107
1.68467	-106
1.68833	-108
1.69200	-115
1.69567	-124
1.69933	-129
1.70300	-130
1.70667	-129
1.71033	-128
1.71400	-131
1.71767	-135
1.72133	-136
1.72500	-135
1.72867	-131
1.73233	-126
1.73600	-124
1.73967	-124
1.74333	-123
1.74700	-122
1.75067	-121
1.75433	-122
1.75800	-124
1.76167	-125
1.76533	-121
1.76900	-113
1.77267	-103
1.77633	-97
1.78000	-99
1.78367	-108
1.78733	-119
1.79100	-129
1.79467	-136
1.79833	-142
1.80200	-142
1.80567	-137
1.80933	-128
1.81300	-121
1.81667	-121
1.82033	-127
1.82400	-132
1.82767	-130
1.83133	-124
1.83500	-122
1.83867	-123
1.84233	-122
1.84600	-118
1.84967	-112
1.85333	-109
1.85700	-109
1.86067	-112
1.86433	-119
1.86800	-121
1.87167	-120
1.87533	-117
1.87900	-117
1.88267	-122
1.88633	-128
1.89000	-133
1.89367	-136
1.89733	-135
1.90100	-131
1.90467	-128
1.90833	-125
1.91200	-124
1.91567	-123
1.91933	-122
1.92300	-117
1.92667	-110
1.93033	-102
1.93400	-97
1.93767	-99
1.94133	-104
1.94500	-107
1.94867	-104
1.95233	-60
1.95600	242
1.95967	1916
1.96333	8940
1.96700	31180
1.97067	85238
1.97433	187353
1.97800	339299
1.98167	521442
1.98533	701489
1.98900	848038
1.99267	938849
1.99633	962410
2.00000	918126
2.00367	817562
2.00733	682350
2.01100	537393
2.01467	403125
2.01833	291177
2.02200	204764
2.02567	141656
2.02933	97306
2.03300	66920
2.03667	46425
2.04033	32706
2.04400	23520
2.04767	17325
2.05133	13091
2.05500	10177
2.05867	8139
2.06233	6676
2.06600	5597
2.06967	4771
2.07333	4129
2.07700	3627
2.08067	3217
2.08433	2875
2.08800	2589
2.09167	2350
2.09533	2146
2.09900	1977
2.10267	1832
2.10633	1701
2.11000	1585
2.11367	1482
2.11733	1395
2.12100	1321
2.12467	1257
2.12833	1194
2.13200	1136
2.13567	1082
2.13933	1030
2.14300	985
2.14667	945
2.15033	903
2.15400	864
2.15767	830
2.16133	797
2.16500	765
2.16867	735
2.17233	707
2.17600	685
2.17967	663
2.18333	643
2.18700	623
2.19067	599
2.19433	574
2.19800	550
2.20167	532
2.20533	518
2.20900	507
2.21267	497
2.21633	487
2.22000	474
2.22367	463
2.22733	452
2.23100	442
2.23467	434
2.23833	428
2.24200	422
2.24567	415
2.24933	405
2.25300	392
2.25667	377
2.26033	364
2.26400	353
2.26767	342
2.27133	331
2.27500	323
2.27867	320
2.28233	322
2.28600	322
2.28967	321
2.29333	318
2.29700	313
2.30067	305
2.30433	295
2.30800	288
2.31167	280
2.31533	276
2.31900	275
2.32267	275
2.32633	275
2.33000	272
2.33367	267
2.33733	260
2.34100	252
2.34467	244
2.34833	239
2.35200	235
2.35567	232
2.35933	231
2.36300	233
2.36667	232
2.37033	225
2.37400	213
2.37767	203
2.38133	201
2.38500	203
2.38867	204
2.39233	207
2.39600	209
2.39967	207
2.40333	204
2.40700	203
2.41067	207
2.41433	214
2.41800	219
2.42167	220
2.42533	217
2.42900	211
2.43267	207
2.43633	200
2.44000	195
2.44367	188
2.44733	182
2.45100	179
2.45467	174
2.45833	167
2.46200	162
2.46567	159
2.46933	160
2.47300	164
2.47667	166
2.48033	168
2.48400	170
2.48767	170
2.49133	167
2.49500	161
2.49867	154
2.50233	148
2.50600	144
2.50967	139
2.51333	134
2.51700	132
2.52067	134
2.52433	134
2.52800	136
2.53167	139
2.53533	141
2.53900	142
2.54267	141
2.54633	140
2.55000	139
2.55367	138
2.55733	134
2.56100	128
2.56467	120
2.56833	114
2.57200	110
2.57567	112
2.57933	116
2.58300	119
2.58667	123
2.59033	127
2.59400	130
2.59767	132
2.60133	132
2.60500	129
2.60867	130
2.61233	135
2.61600	141
2.61967	143
2.62333	142
2.62700	142
2.63067	143
2.63433	143
2.63800	142
2.64167	144
2.64533	142
2.64900	137
2.65267	131
2.65633	123
2.66000	114
2.66367	110
2.66733	110
2.67100	114
2.67467	119
2.67833	124
2.68200	127
2.68567	126
2.68933	124
2.69300	122
2.69667	121
2.70033	122
2.70400	125
2.70767	130
2.71133	136
2.71500	141
2.71867	145
2.72233	146
2.72600	143
2.72967	138
2.73333	131
2.73700	125
2.74067	120
2.74433	119
2.74800	121
2.75167	123
2.75533	129
2.75900	134
2.76267	135
2.76633	137
2.77000	141
2.77367	138
2.77733	134
2.78100	129
2.78467	126
2.78833	130
2.79200	139
2.79567	141
2.79933	144
2.80300	143
2.80667	135
2.81033	123
2.81400	115
2.81767	112
2.82133	115
2.82500	118
2.82867	117
2.83233	115
2.83600	108
2.83967	100
2.84333	93
2.84700	91
2.85067	96
2.85433	104
2.85800	117
2.86167	128
2.86533	135
2.86900	140
2.87267	141
2.87633	138
2.88000	135
2.88367	134
2.88733	134
2.89100	134
2.89467	134
2.89833	133
2.90200	132
2.90567	128
2.90933	130
2.91300	136
2.91667	144
2.92033	151
2.92400	159
2.92767	169
2.93133	175
2.93500	174
2.93867	171
2.94233	167
2.94600	160
2.94967	151
2.95333	142
2.95700	131
2.96067	122
2.96433	115
2.96800	112
2.97167	112
2.97533	116
2.97900	123
2.98267	135
2.98633	147
2.99000	156
2.99367	160
2.99733	159
3.00100	155
3.00467	155
3.00833	154
3.01200	149
3.01567	143
3.01933	134
3.02300	128
3.02667	128
3.03033	132
3.03400	136
3.03767	138
3.04133	137
3.04500	138
3.04867	142
3.05233	149
3.05600	151
3.05967	146
3.06333	140
3.06700	134
3.07067	130
3.07433	128
3.07800	130
3.08167	130
3.08533	132
3.08900	136
3.09267	137
3.09633	138
3.10000	138
3.10367	138
3.10733	142
3.11100	148
3.11467	153
3.11833	155
3.12200	153
3.12567	150
3.12933	147
3.13300	145
3.13667	147
3.14033	149
3.14400	149
3.14767	150
3.15133	147
3.15500	142
3.15867	140
3.16233	139
3.16600	139
3.16967	139
3.17333	140
3.17700	143
3.18067	146
3.18433	146
3.18800	146
3.19167	143
3.19533	141
3.19900	142
3.20267	145
3.20633	146
3.21000	145
3.21367	141
3.21733	140
3.22100	140
3.22467	138
3.22833	135
3.23200	135
3.23567	139
3.23933	146
3.24300	149
3.24667	149
3.25033	147
3.25400	146
3.25767	146
3.26133	146
3.26500	147
3.26867	147
3.27233	143
3.27600	135
3.27967	129
3.28333	126
3.28700	124
3.29067	123
3.29433	124
3.29800	126
3.30167	129
3.30533	130
3.30900	129
3.31267	124
3.31633	118
3.32000	116
3.32367	120
3.32733	126
3.33100	134
3.33467	138
3.33833	137
3.34200	135
3.34567	133
3.34933	130
3.35300	128
3.35667	128
3.36033	132
3.36400	140
3.36767	148
3.37133	148
3.37500	147
3.37867	148
3.38233	148
3.38600	149
3.38967	147
3.39333	143
3.39700	136
3.40067	130
3.40433	128
3.40800	128
3.41167	130
3.41533	137
3.41900	146
3.42267	152
3.42633	154
3.43000	151
3.43367	147
3.43733	145
3.44100	143
3.44467	141
3.44833	137
3.45200	131
3.45567	128
3.45933	127
3.46300	131
3.46667	138
3.47033	142
3.47400	144
3.47767	146
3.48133	149
3.48500	149
3.48867	145
3.49233	140
3.49600	136
3.49967	136
3.50333	136
3.50700	134
3.51067	132
3.51433	129
3.51800	130
3.52167	134
3.52533	137
3.52900	138
3.53267	135
3.53633	133
3.54000	133
3.54367	131
3.54733	128
3.55100	124
3.55467	119
3.55833	117
3.56200	119
3.56567	121
3.56933	124
3.57300	127
3.57667	128
3.58033	126
3.58400	124
3.58767	122
3.59133	119
3.59500	114
3.59867	110
3.60233	110
3.60600	111
3.60967	113
3.61333	114
3.61700	117
3.62067	118
3.62433	118
3.62800	118
3.63167	120
3.63533	127
3.63900	136
3.64267	142
3.64633	141
3.65000	137
3.65367	132
3.65733	126
3.66100	119
3.66467	109
3.66833	102
3.67200	98
3.67567	100
3.67933	103
3.68300	106
3.68667	110
3.69033	114
3.69400	115
3.69767	114
3.70133	114
3.70500	116
3.70867	119
3.71233	121
3.71600	119
3.71967	112
3.72333	107
3.72700	104
3.73067	102
3.73433	98
3.73800	94
3.74167	93
3.74533	94
3.74900	95
3.75267	96
3.75633	98
3.76000	100
3.76367	101
3.76733	100
3.77100	100
3.77467	104
3.77833	108
3.78200	109
3.78567	107
3.78933	103
3.79300	101
3.79667	99
3.80033	96
3.80400	93
3.80767	92
3.81133	95
3.81500	98
3.81867	100
3.82233	100
3.82600	101
3.82967	102
3.83333	100
3.83700	97
3.84067	94
3.84433	93
3.84800	94
3.85167	96
3.85533	96
3.85900	91
3.86267	84
3.86633	79
3.87000	77
3.87367	80
3.87733	88
3.88100	94
3.88467	95
3.88833	90
3.89200	83
3.89567	77
3.89933	78
3.90300	85
3.90667	97
3.91033	109
3.91400	114
3.91767	109
3.92133	98
3.92500	85
3.92867	76
3.93233	72
3.93600	69
3.93967	65
3.94333	61
3.94700	60
3.95067	63
3.95433	68
3.95800	75
3.96167	82
3.96533	87
3.96900	87
3.97267	87
3.97633	88
3.98000	93
3.98367	102
3.98733	108
3.99100	108
3.99467	101
3.99833	90

[Chromatogram (Ch2)]
Interval(msec)	220
# of Points	1091
Start Time(min)	0.002
End Time(min)	3.998
R.Time (min)	Intensity
0.00167	1
0.00533	1
0.00900	1
0.01267	1
0.01633	1
0.02000	1
0.02367	1
0.02733	1
0.03100	1
0.03467	1
0.03833	1
0.04200	1
0.04567	2
0.04933	2
0.05300	2
0.05667	2
0.06033	2
0.06400	2
0.06767	1
0.07133	1
0.07500	1
0.07867	1
0.08233	1
0.08600	1
0.08967	1
0.09333	1
0.09700	1
0.10067	1
0.10433	1
0.10800	1
0.11167	1
0.11533	1
0.11900	1
0.12267	1
0.12633	1
0.13000	1
0.13367	2
0.13733	1
0.14100	1
0.14467	1
0.14833	1
0.15200	1
0.15567	2
0.15933	2
0.16300	2
0.16667	2
0.17033	2
0.17400	2
0.17767	2
0.18133	2
0.18500	2
0.18867	2
0.19233	2
0.19600	2
0.19967	2
0.20333	3
0.20700	3
0.21067	3
0.21433	3
0.21800	3
0.22167	3
0.22533	3
0.22900	2
0.23267	2
0.23633	2
0.24000	2
0.24367	1
0.24733	1
0.25100	1
0.25467	1
0.25833	1
0.26200	1
0.26567	1
0.26933	1
0.27300	1
0.27667	1
0.28033	1
0.28400	0
0.28767	0
0.29133	0
0.29500	0
0.29867	0
0.30233	0
0.30600	0
0.30967	0
0.31333	0
0.31700	0
0.32067	0
0.32433	0
0.32800	-0
0.33167	-0
0.33533	-0
0.33900	-0
0.34267	-1
0.34633	-1
0.35000	-0
0.35367	-0
0.35733	0
0.36100	0
0.36467	0
0.36833	0
0.37200	0
0.37567	0
0.37933	0
0.38300	0
0.38667	0
0.39033	0
0.39400	0
0.39767	0
0.40133	0
0.40500	0
0.40867	0
0.41233	0
0.41600	0
0.41967	0
0.42333	0
0.42700	0
0.43067	1
0.43433	1
0.43800	1
0.44167	1
0.44533	0
0.44900	0
0.45267	0
0.45633	0
0.46000	0
0.46367	0
0.46733	0
0.47100	0
0.47467	0
0.47833	-0
0.48200	0
0.48567	0
0.48933	0
0.49300	1
0.49667	1
0.50033	1
0.50400	1
0.50767	1
0.51133	1
0.51500	1
0.51867	1
0.52233	1
0.52600	1
0.52967	0
0.53333	0
0.53700	0
0.54067	0
0.54433	0
0.54800	0
0.55167	0
0.55533	0
0.55900	1
0.56267	1
0.56633	0
0.57000	0
0.57367	0
0.57733	0
0.58100	0
0.58467	0
0.58833	0
0.59200	0
0.59567	0
0.59933	0
0.60300	0
0.60667	0
0.61033	0
0.61400	0
0.61767	-0
0.62133	-0
0.62500	-0
0.62867	-0
0.63233	-0
0.63600	-1
0.63967	-1
0.64333	-1
0.64700	-1
0.65067	-1
0.65433	-1
0.65800	-1
0.66167	-1
0.66533	-1
0.66900	-1
0.67267	-1
0.67633	-0
0.68000	-0
0.68367	-0
0.68733	-0
0.69100	-0
0.69467	-0
0.69833	-0
0.70200	-0
0.70567	-1
0.70933	-1
0.71300	-1
0.71667	-1
0.72033	-2
0.72400	-2
0.72767	-3
0.73133	-3
0.73500	-3
0.73867	-3
0.74233	-2
0.74600	-2
0.74967	-2
0.75333	-2
0.75700	-2
0.76067	-2
0.76433	-2
0.76800	-2
0.77167	-2
0.77533	-2
0.77900	-2
0.78267	-2
0.78633	-2
0.79000	-1
0.79367	-1
0.79733	-1
0.80100	-1
0.80467	-0
0.80833	-0
0.81200	-1
0.81567	-1
0.81933	-1
0.82300	-1
0.82667	-1
0.83033	-1
0.83400	-1
0.83767	-1
0.84133	-1
0.84500	-0
0.84867	-0
0.85233	-0
0.85600	-0
0.85967	-0
0.86333	-0
0.86700	0
0.87067	0
0.87433	0
0.87800	0
0.88167	0
0.88533	0
0.88900	0
0.89267	0
0.89633	0
0.90000	0
0.90367	-0
0.90733	-0
0.91100	-1
0.91467	-1
0.91833	-1
0.92200	-2
0.92567	-2
0.92933	-2
0.93300	-3
0.93667	-3
0.94033	-3
0.94400	-4
0.94767	-4
0.95133	-4
0.95500	-4
0.95867	-4
0.96233	-4
0.96600	-4
0.96967	-3
0.97333	-3
0.97700	-3
0.98067	-3
0.98433	-4
0.98800	-4
0.99167	-4
0.99533	-3
0.99900	-3
1.00267	-3
1.00633	-3
1.01000	-3
1.01367	-4
1.01733	-4
1.02100	-4
1.02467	-4
1.02833	-4
1.03200	-3
1.03567	-3
1.03933	-2
1.04300	-2
1.04667	-2
1.05033	-1
1.05400	-1
1.05767	-0
1.06133	0
1.06500	1
1.06867	1
1.07233	1
1.07600	1
1.07967	2
1.08333	2
1.08700	2
1.09067	2
1.09433	1
1.09800	1
1.10167	1
1.10533	1
1.10900	1
1.11267	1
1.11633	1
1.12000	1
1.12367	1
1.12733	1
1.13100	1
1.13467	1
1.13833	1
1.14200	1
1.14567	1
1.14933	1
1.15300	1
1.15667	1
1.16033	1
1.16400	1
1.16767	1
1.17133	1
1.17500	1
1.17867	1
1.18233	1
1.18600	1
1.18967	1
1.19333	1
1.19700	1
1.20067	1
1.20433	0
1.20800	0
1.21167	0
1.21533	0
1.21900	0
1.22267	0
1.22633	0
1.23000	0
1.23367	0
1.23733	0
1.24100	-0
1.24467	-0
1.24833	-1
1.25200	-1
1.25567	-1
1.25933	-2
1.26300	-2
1.26667	-3
1.27033	-3
1.27400	-3
1.27767	-3
1.28133	-4
1.28500	-4
1.28867	-3
1.29233	-3
1.29600	-3
1.29967	-3
1.30333	-3
1.30700	-3
1.31067	-3
1.31433	-3
1.31800	-4
1.32167	-3
1.32533	-3
1.32900	-3
1.33267	-3
1.33633	-3
1.34000	-3
1.34367	-4
1.34733	-4
1.35100	-4
1.35467	-4
1.35833	-4
1.36200	-4
1.36567	-4
1.36933	-4
1.37300	-4
1.37667	-4
1.38033	-3
1.38400	-3
1.38767	-3
1.39133	-3
1.39500	-2
1.39867	-2
1.40233	-2
1.40600	-2
1.40967	-2
1.41333	-2
1.41700	-2
1.42067	-3
1.42433	-3
1.42800	-3
1.43167	-2
1.43533	-2
1.43900	-3
1.44267	-3
1.44633	-3
1.45000	-3
1.45367	-3
1.45733	-3
1.46100	-2
1.46467	-2
1.46833	-2
1.47200	-2
1.47567	-1
1.47933	-1
1.48300	-1
1.48667	-1
1.49033	-1
1.49400	-1
1.49767	-1
1.50133	-1
1.50500	-1
1.50867	-1
1.51233	-1
1.51600	-1
1.51967	-1
1.52333	-1
1.52700	-1
1.53067	-1
1.53433	-1
1.53800	-1
1.54167	-1
1.54533	-1
1.54900	-0
1.55267	-0
1.55633	0
1.56000	0
1.56367	0
1.56733	0
1.57100	-0
1.57467	-0
1.57833	-1
1.58200	-1
1.58567	-1
1.58933	-2
1.59300	-2
1.59667	-3
1.60033	-4
1.60400	-5
1.60767	-6
1.61133	-8
1.61500	-10
1.61867	-12
1.62233	-15
1.62600	-17
1.62967	-21
1.63333	-24
1.63700	-28
1.64067	-31
1.64433	-35
1.64800	-39
1.65167	-43
1.65533	-46
1.65900	-50
1.66267	-54
1.66633	-58
1.67000	-63
1.67367	-68
1.67733	-73
1.68100	-79
1.68467	-84
1.68833	-89
1.69200	-93
1.69567	-97
1.69933	-101
1.70300	-104
1.70667	-106
1.71033	-108
1.71400	-110
1.71767	-111
1.72133	-111
1.72500	-111
1.72867	-111
1.73233	-111
1.73600	-111
1.73967	-110
1.74333	-110
1.74700	-109
1.75067	-109
1.75433	-110
1.75800	-110
1.76167	-111
1.76533	-112
1.76900	-114
1.77267	-115
1.77633	-116
1.78000	-117
1.78367	-118
1.78733	-118
1.79100	-118
1.79467	-119
1.79833	-119
1.80200	-119
1.80567	-120
1.80933	-120
1.81300	-121
1.81667	-121
1.82033	-122
1.82400	-122
1.82767	-123
1.83133	-123
1.83500	-123
1.83867	-123
1.84233	-123
1.84600	-123
1.84967	-123
1.85333	-123
1.85700	-123
1.86067	-122
1.86433	-121
1.86800	-121
1.87167	-120
1.87533	-120
1.87900	-120
1.88267	-120
1.88633	-120
1.89000	-120
1.89367	-120
1.89733	-120
1.90100	-120
1.90467	-120
1.90833	-120
1.91200	-120
1.91567	-120
1.91933	-120
1.92300	-120
1.92667	-120
1.93033	-120
1.93400	-120
1.93767	-119
1.94133	-119
1.94500	-119
1.94867	-118
1.95233	-118
1.95600	-118
1.95967	-118
1.96333	-118
1.96700	-118
1.97067	-118
1.97433	-117
1.97800	-116
1.98167	-115
1.98533	-115
1.98900	-115
1.99267	-115
1.99633	-115
2.00000	-114
2.00367	-114
2.00733	-114
2.01100	-114
2.01467	-113
2.01833	-113
2.02200	-112
2.02567	-112
2.02933	-112
2.03300	-113
2.03667	-113
2.04033	-112
2.04400	-112
2.04767	-111
2.05133	-111
2.05500	-111
2.05867	-111
2.06233	-112
2.06600	-112
2.06967	-112
2.07333	-112
2.07700	-111
2.08067	-110
2.08433	-109
2.08800	-109
2.09167	-108
2.09533	-107
2.09900	-107
2.10267	-106
2.10633	-106
2.11000	-105
2.11367	-105
2.11733	-104
2.12100	-104
2.12467	-103
2.12833	-103
2.13200	-103
2.13567	-103
2.13933	-103
2.14300	-103
2.14667	-103
2.15033	-102
2.15400	-102
2.15767	-101
2.16133	-100
2.16500	-99
2.16867	-99
2.17233	-99
2.17600	-99
2.17967	-99
2.18333	-98
2.18700	-98
2.19067	-97
2.19433	-97
2.19800	-97
2.20167	-96
2.20533	-97
2.20900	-97
2.21267	-98
2.21633	-98
2.22000	-98
2.22367	-98
2.22733	-97
2.23100	-97
2.23467	-97
2.23833	-96
2.24200	-96
2.24567	-96
2.24933	-95
2.25300	-95
2.25667	-95
2.26033	-94
2.26400	-93
2.26767	-93
2.27133	-92
2.27500	-92
2.27867	-91
2.28233	-90
2.28600	-89
2.28967	-89
2.29333	-89
2.29700	-89
2.30067	-89
2.30433	-89
2.30800	-89
2.31167	-89
2.31533	-88
2.31900	-88
2.32267	-87
2.32633	-87
2.33000	-87
2.33367	-86
2.33733	-86
2.34100	-86
2.34467	-86
2.34833	-86
2.35200	-87
2.35567	-86
2.35933	-85
2.36300	-84
2.36667	-82
2.37033	-80
2.37400	-77
2.37767	-74
2.38133	-71
2.38500	-67
2.38867	-63
2.39233	-59
2.39600	-55
2.39967	-50
2.40333	-46
2.40700	-42
2.41067	-38
2.41433	-34
2.41800	-31
2.42167	-28
2.42533	-25
2.42900	-22
2.43267	-19
2.43633	-17
2.44000	-15
2.44367	-13
2.44733	-11
2.45100	-10
2.45467	-8
2.45833	-7
2.46200	-5
2.46567	-4
2.46933	-3
2.47300	-2
2.47667	-1
2.48033	-0
2.48400	1
2.48767	2
2.49133	3
2.49500	4
2.49867	5
2.50233	5
2.50600	6
2.50967	6
2.51333	7
2.51700	8
2.52067	8
2.52433	9
2.52800	10
2.53167	10
2.53533	11
2.53900	11
2.54267	11
2.54633	12
2.55000	11
2.55367	11
2.55733	11
2.56100	12
2.56467	12
2.56833	12
2.57200	13
2.57567	13
2.57933	13
2.58300	14
2.58667	14
2.59033	14
2.59400	13
2.59767	13
2.60133	13
2.60500	13
2.60867	13
2.61233	14
2.61600	14
2.61967	15
2.62333	15
2.62700	14
2.63067	14
2.63433	14
2.63800	13
2.64167	13
2.64533	13
2.64900	14
2.65267	14
2.65633	15
2.66000	15
2.66367	16
2.66733	17
2.67100	18
2.67467	19
2.67833	20
2.68200	21
2.68567	21
2.68933	22
2.69300	22
2.69667	23
2.70033	23
2.70400	23
2.70767	23
2.71133	22
2.71500	22
2.71867	22
2.72233	22
2.72600	22
2.72967	22
2.73333	22
2.73700	22
2.74067	23
2.74433	23
2.74800	23
2.75167	23
2.75533	24
2.75900	24
2.76267	24
2.76633	24
2.77000	25
2.77367	25
2.77733	25
2.78100	25
2.78467	25
2.78833	25
2.79200	24
2.79567	24
2.79933	24
2.80300	24
2.80667	24
2.81033	23
2.81400	23
2.81767	23
2.82133	23
2.82500	23
2.82867	23
2.83233	23
2.83600	23
2.83967	23
2.84333	21
2.84700	19
2.85067	14
2.85433	7
2.85800	-3
2.86167	-16
2.86533	-33
2.86900	-54
2.87267	-79
2.87633	-107
2.88000	-140
2.88367	-176
2.88733	-215
2.89100	-257
2.89467	-301
2.89833	-347
2.90200	-395
2.90567	-444
2.90933	-494
2.91300	-543
2.91667	-593
2.92033	-643
2.92400	-692
2.92767	-741
2.93133	-790
2.93500	-840
2.93867	-894
2.94233	-954
2.94600	-1014
2.94967	-1065
2.95333	-1095
2.95700	-1098
2.96067	-1076
2.96433	-1031
2.96800	-969
2.97167	-896
2.97533	-817
2.97900	-736
2.98267	-657
2.98633	-581
2.99000	-510
2.99367	-444
2.99733	-386
3.00100	-333
3.00467	-286
3.00833	-245
3.01200	-209
3.01567	-178
3.01933	-151
3.02300	-127
3.02667	-107
3.03033	-90
3.03400	-74
3.03767	-61
3.04133	-50
3.04500	-41
3.04867	-33
3.05233	-26
3.05600	-20
3.05967	-15
3.06333	-11
3.06700	-8
3.07067	-5
3.07433	-2
3.07800	0
3.08167	2
3.08533	4
3.08900	5
3.09267	6
3.09633	7
3.10000	8
3.10367	9
3.10733	9
3.11100	10
3.11467	10
3.11833	11
3.12200	11
3.12567	12
3.12933	12
3.13300	12
3.13667	12
3.14033	12
3.14400	13
3.14767	13
3.15133	13
3.15500	14
3.15867	14
3.16233	14
3.16600	15
3.16967	15
3.17333	16
3.17700	16
3.18067	17
3.18433	18
3.18800	18
3.19167	19
3.19533	20
3.19900	21
3.20267	21
3.20633	22
3.21000	22
3.21367	22
3.21733	23
3.22100	23
3.22467	24
3.22833	24
3.23200	24
3.23567	25
3.23933	25
3.24300	25
3.24667	25
3.25033	26
3.25400	26
3.25767	26
3.26133	26
3.26500	26
3.26867	26
3.27233	26
3.27600	26
3.27967	26
3.28333	26
3.28700	26
3.29067	26
3.29433	27
3.29800	27
3.30167	26
3.30533	26
3.30900	26
3.31267	26
3.31633	26
3.32000	26
3.32367	26
3.32733	26
3.33100	26
3.33467	26
3.33833	26
3.34200	25
3.34567	25
3.34933	25
3.35300	25
3.35667	25
3.36033	24
3.36400	24
3.36767	24
3.37133	25
3.37500	25
3.37867	25
3.38233	24
3.38600	24
3.38967	24
3.39333	24
3.39700	24
3.40067	24
3.40433	24
3.40800	24
3.41167	24
3.41533	24
3.41900	24
3.42267	24
3.42633	24
3.43000	24
3.43367	24
3.43733	24
3.44100	24
3.44467	24
3.44833	24
3.45200	24
3.45567	24
3.45933	25
3.46300	25
3.46667	25
3.47033	25
3.47400	25
3.47767	25
3.48133	25
3.48500	25
3.48867	25
3.49233	25
3.49600	25
3.49967	25
3.50333	25
3.50700	25
3.51067	25
3.51433	25
3.51800	25
3.52167	25
3.52533	25
3.52900	25
3.53267	25
3.53633	25
3.54000	25
3.54367	25
3.54733	25
3.55100	25
3.55467	25
3.55833	25
3.56200	25
3.56567	25
3.56933	25
3.57300	25
3.57667	25
3.58033	25
3.58400	24
3.58767	24
3.59133	24
3.59500	24
3.59867	24
3.60233	24
3.60600	24
3.60967	24
3.61333	24
3.61700	24
3.62067	24
3.62433	24
3.62800	24
3.63167	24
3.63533	24
3.63900	24
3.64267	24
3.64633	25
3.65000	25
3.65367	25
3.65733	25
3.66100	25
3.66467	25
3.66833	25
3.67200	26
3.67567	26
3.67933	26
3.68300	26
3.68667	26
3.69033	26
3.69400	27
3.69767	27
3.70133	27
3.70500	27
3.70867	27
3.71233	27
3.71600	27
3.71967	27
3.72333	27
3.72700	26
3.73067	26
3.73433	26
3.73800	26
3.74167	26
3.74533	26
3.74900	26
3.75267	27
3.75633	27
3.76000	27
3.76367	27
3.76733	27
3.77100	27
3.77467	27
3.77833	27
3.78200	27
3.78567	27
3.78933	26
3.79300	26
3.79667	26
3.80033	27
3.80400	27
3.80767	27
3.81133	26
3.81500	26
3.81867	26
3.82233	26
3.82600	25
3.82967	25
3.83333	25
3.83700	25
3.84067	25
3.84433	25
3.84800	26
3.85167	26
3.85533	26
3.85900	26
3.86267	26
3.86633	26
3.87000	26
3.87367	26
3.87733	26
3.88100	26
3.88467	26
3.88833	26
3.89200	26
3.89567	26
3.89933	26
3.90300	26
3.90667	26
3.91033	26
3.91400	26
3.91767	26
3.92133	26
3.92500	26
3.92867	26
3.93233	26
3.93600	26
3.93967	26
3.94333	26
3.94700	25
3.95067	25
3.95433	26
3.95800	26
3.96167	26
3.96533	26
3.96900	26
3.97267	26
3.97633	26
3.98000	26
3.98367	25
3.98733	26
3.99100	26
3.99467	26
3.99833	26

[Chromatogram (Ch3)]
Interval(msec)	220
# of Points	1091
Start Time(min)	0.002
End Time(min)	3.998
R.Time (min)	Intensity
0.00167	0
0.00533	0
0.00900	-2
0.01267	-3
0.01633	-2
0.02000	-1
0.02367	1
0.02733	1
0.03100	3
0.03467	3
0.03833	4
0.04200	8
0.04567	8
0.04933	5
0.05300	1
0.05667	0
0.06033	0
0.06400	-0
0.06767	-1
0.07133	-1
0.07500	-1
0.07867	0
0.08233	0
0.08600	-1
0.08967	-1
0.09333	-2
0.09700	-1
0.10067	1
0.10433	1
0.10800	0
0.11167	2
0.11533	3
0.11900	4
0.12267	5
0.12633	4
0.13000	4
0.13367	4
0.13733	2
0.14100	-0
0.14467	-1
0.14833	-0
0.15200	2
0.15567	2
0.15933	3
0.16300	5
0.16667	6
0.17033	5
0.17400	5
0.17767	4
0.18133	6
0.18500	5
0.18867	5
0.19233	7
0.19600	7
0.19967	7
0.20333	7
0.20700	4
0.21067	3
0.21433	4
0.21800	3
0.22167	1
0.22533	0
0.22900	1
0.23267	2
0.23633	3
0.24000	5
0.24367	6
0.24733	6
0.25100	6
0.25467	5
0.25833	6
0.26200	7
0.26567	8
0.26933	8
0.27300	9
0.27667	9
0.28033	7
0.28400	7
0.28767	9
0.29133	10
0.29500	9
0.29867	9
0.30233	8
0.30600	9
0.30967	12
0.31333	13
0.31700	13
0.32067	12
0.32433	12
0.32800	11
0.33167	11
0.33533	12
0.33900	13
0.34267	12
0.34633	11
0.35000	11
0.35367	10
0.35733	10
0.36100	11
0.36467	12
0.36833	13
0.37200	14
0.37567	14
0.37933	15
0.38300	16
0.38667	18
0.39033	17
0.39400	15
0.39767	14
0.40133	14
0.40500	14
0.40867	14
0.41233	13
0.41600	12
0.41967	16
0.42333	18
0.42700	19
0.43067	19
0.43433	20
0.43800	18
0.44167	16
0.44533	16
0.44900	16
0.45267	15
0.45633	14
0.46000	11
0.46367	11
0.46733	13
0.47100	15
0.47467	17
0.47833	17
0.48200	19
0.48567	21
0.48933	24
0.49300	26
0.49667	27
0.50033	25
0.50400	22
0.50767	21
0.51133	20
0.51500	19
0.51867	19
0.52233	19
0.52600	20
0.52967	21
0.53333	22
0.53700	24
0.54067	24
0.54433	24
0.54800	23
0.55167	23
0.55533	25
0.55900	24
0.56267	23
0.56633	23
0.57000	21
0.57367	20
0.57733	21
0.58100	22
0.58467	25
0.58833	27
0.59200	27
0.59567	26
0.59933	27
0.60300	26
0.60667	26
0.61033	26
0.61400	24
0.61767	25
0.62133	26
0.62500	25
0.62867	24
0.63233	24
0.63600	23
0.63967	25
0.64333	28
0.64700	28
0.65067	27
0.65433	26
0.65800	26
0.66167	25
0.66533	25
0.66900	27
0.67267	30
0.67633	32
0.68000	33
0.68367	33
0.68733	34
0.69100	33
0.69467	31
0.69833	28
0.70200	26
0.70567	27
0.70933	29
0.71300	31
0.71667	32
0.72033	33
0.72400	35
0.72767	35
0.73133	36
0.73500	36
0.73867	36
0.74233	35
0.74600	36
0.74967	35
0.75333	35
0.75700	35
0.76067	36
0.76433	36
0.76800	33
0.77167	32
0.77533	35
0.77900	40
0.78267	41
0.78633	40
0.79000	36
0.79367	33
0.79733	33
0.80100	35
0.80467	38
0.80833	42
0.81200	45
0.81567	45
0.81933	45
0.82300	44
0.82667	41
0.83033	39
0.83400	40
0.83767	43
0.84133	45
0.84500	44
0.84867	42
0.85233	40
0.85600	39
0.85967	40
0.86333	40
0.86700	40
0.87067	41
0.87433	40
0.87800	40
0.88167	38
0.88533	36
0.88900	37
0.89267	38
0.89633	37
0.90000	35
0.90367	33
0.90733	35
0.91100	38
0.91467	40
0.91833	38
0.92200	37
0.92567	36
0.92933	37
0.93300	39
0.93667	40
0.94033	40
0.94400	42
0.94767	42
0.95133	43
0.95500	43
0.95867	43
0.96233	42
0.96600	42
0.96967	42
0.97333	44
0.97700	43
0.98067	43
0.98433	46
0.98800	46
0.99167	46
0.99533	46
0.99900	45
1.00267	43
1.00633	42
1.01000	42
1.01367	42
1.01733	43
1.02100	45
1.02467	47
1.02833	49
1.03200	48
1.03567	47
1.03933	46
1.04300	45
1.04667	45
1.05033	45
1.05400	47
1.05767	51
1.06133	53
1.06500	54
1.06867	55
1.07233	52
1.07600	51
1.07967	48
1.08333	49
1.08700	51
1.09067	51
1.09433	48
1.09800	47
1.10167	49
1.10533	50
1.10900	51
1.11267	49
1.11633	47
1.12000	47
1.12367	45
1.12733	44
1.13100	44
1.13467	46
1.13833	47
1.14200	49
1.14567	53
1.14933	55
1.15300	54
1.15667	53
1.16033	52
1.16400	50
1.16767	49
1.17133	51
1.17500	53
1.17867	54
1.18233	56
1.18600	57
1.18967	57
1.19333	55
1.19700	53
1.20067	51
1.20433	50
1.20800	51
1.21167	53
1.21533	53
1.21900	53
1.22267	54
1.22633	54
1.23000	55
1.23367	56
1.23733	55
1.24100	55
1.24467	51
1.24833	47
1.25200	46
1.25567	46
1.25933	46
1.26300	47
1.26667	50
1.27033	52
1.27400	50
1.27767	48
1.28133	49
1.28500	49
1.28867	50
1.29233	52
1.29600	54
1.29967	54
1.30333	53
1.30700	53
1.31067	53
1.31433	53
1.31800	54
1.32167	56
1.32533	56
1.32900	56
1.33267	55
1.33633	53
1.34000	52
1.34367	50
1.34733	50
1.35100	52
1.35467	53
1.35833	54
1.36200	57
1.36567	60
1.36933	60
1.37300	58
1.37667	58
1.38033	59
1.38400	60
1.38767	60
1.39133	61
1.39500	62
1.39867	60
1.40233	60
1.40600	61
1.40967	61
1.41333	61
1.41700	63
1.42067	64
1.42433	64
1.42800	64
1.43167	63
1.43533	61
1.43900	62
1.44267	60
1.44633	59
1.45000	57
1.45367	57
1.45733	57
1.46100	57
1.46467	59
1.46833	61
1.47200	61
1.47567	62
1.47933	64
1.48300	63
1.48667	62
1.49033	62
1.49400	62
1.49767	63
1.50133	62
1.50500	62
1.50867	61
1.51233	61
1.51600	61
1.51967	61
1.52333	60
1.52700	59
1.53067	59
1.53433	60
1.53800	59
1.54167	59
1.54533	60
1.54900	59
1.55267	58
1.55633	56
1.56000	56
1.56367	56
1.56733	58
1.57100	60
1.57467	62
1.57833	63
1.58200	62
1.58567	61
1.58933	60
1.59300	59
1.59667	58
1.60033	59
1.60400	61
1.60767	63
1.61133	64
1.61500	64
1.61867	64
1.62233	65
1.62600	64
1.62967	64
1.63333	64
1.63700	67
1.64067	70
1.64433	72
1.64800	73
1.65167	73
1.65533	73
1.65900	73
1.66267	73
1.66633	73
1.67000	73
1.67367	76
1.67733	79
1.68100	82
1.68467	82
1.68833	81
1.69200	79
1.69567	78
1.69933	78
1.70300	79
1.70667	78
1.71033	80
1.71400	82
1.71767	83
1.72133	83
1.72500	82
1.72867	81
1.73233	81
1.73600	82
1.73967	82
1.74333	83
1.74700	84
1.75067	84
1.75433	84
1.75800	85
1.76167	85
1.76533	87
1.76900	88
1.77267	89
1.77633	90
1.78000	90
1.78367	90
1.78733	91
1.79100	92
1.79467	95
1.79833	95
1.80200	96
1.80567	96
1.80933	96
1.81300	97
1.81667	98
1.82033	96
1.82400	98
1.82767	99
1.83133	98
1.83500	97
1.83867	97
1.84233	98
1.84600	99
1.84967	100
1.85333	101
1.85700	99
1.86067	99
1.86433	100
1.86800	100
1.87167	100
1.87533	100
1.87900	99
1.88267	99
1.88633	101
1.89000	101
1.89367	102
1.89733	101
1.90100	98
1.90467	99
1.90833	99
1.91200	99
1.91567	100
1.91933	101
1.92300	103
1.92667	104
1.93033	105
1.93400	105
1.93767	106
1.94133	109
1.94500	110
1.94867	110
1.95233	109
1.95600	111
1.95967	111
1.96333	111
1.96700	111
1.97067	113
1.97433	115
1.97800	117
1.98167	117
1.98533	118
1.98900	121
1.99267	123
1.99633	122
2.00000	122
2.00367	121
2.00733	121
2.01100	121
2.01467	121
2.01833	122
2.02200	124
2.02567	124
2.02933	125
2.03300	127
2.03667	130
2.04033	134
2.04400	138
2.04767	139
2.05133	139
2.05500	137
2.05867	139
2.06233	142
2.06600	145
2.06967	147
2.07333	148
2.07700	148
2.08067	149
2.08433	150
2.08800	150
2.09167	150
2.09533	151
2.09900	154
2.10267	156
2.10633	158
2.11000	157
2.11367	156
2.11733	157
2.12100	157
2.12467	156
2.12833	156
2.13200	157
2.13567	160
2.13933	163
2.14300	165
2.14667	166
2.15033	165
2.15400	165
2.15767	165
2.16133	167
2.16500	167
2.16867	166
2.17233	166
2.17600	166
2.17967	172
2.18333	177
2.18700	179
2.19067	179
2.19433	178
2.19800	178
2.20167	178
2.20533	180
2.20900	182
2.21267	182
2.21633	183
2.22000	185
2.22367	184
2.22733	183
2.23100	183
2.23467	186
2.23833	187
2.24200	187
2.24567	188
2.24933	191
2.25300	192
2.25667	191
2.26033	189
2.26400	190
2.26767	189
2.27133	189
2.27500	190
2.27867	190
2.28233	191
2.28600	192
2.28967	193
2.29333	196
2.29700	196
2.30067	195
2.30433	193
2.30800	193
2.31167	194
2.31533	194
2.31900	194
2.32267	199
2.32633	204
2.33000	204
2.33367	202
2.33733	201
2.34100	201
2.34467	203
2.34833	206
2.35200	207
2.35567	208
2.35933	207
2.36300	206
2.36667	206
2.37033	206
2.37400	205
2.37767	205
2.38133	206
2.38500	204
2.38867	203
2.39233	203
2.39600	202
2.39967	205
2.40333	208
2.40700	211
2.41067	212
2.41433	214
2.41800	216
2.42167	218
2.42533	219
2.42900	220
2.43267	219
2.43633	217
2.44000	217
2.44367	228
2.44733	255
2.45100	282
2.45467	304
2.45833	314
2.46200	314
2.46567	311
2.46933	309
2.47300	307
2.47667	302
2.48033	294
2.48400	285
2.48767	274
2.49133	264
2.49500	258
2.49867	255
2.50233	251
2.50600	249
2.50967	247
2.51333	248
2.51700	249
2.52067	250
2.52433	250
2.52800	250
2.53167	245
2.53533	239
2.53900	234
2.54267	228
2.54633	224
2.55000	219
2.55367	213
2.55733	206
2.56100	202
2.56467	202
2.56833	201
2.57200	200
2.57567	198
2.57933	195
2.58300	191
2.58667	188
2.59033	186
2.59400	182
2.59767	174
2.60133	161
2.60500	138
2.60867	109
2.61233	75
2.61600	38
2.61967	3
2.62333	-33
2.62700	-66
2.63067	-94
2.63433	-119
2.63800	-137
2.64167	-149
2.64533	-157
2.64900	-162
2.65267	-163
2.65633	-161
2.66000	-158
2.66367	-154
2.66733	-148
2.67100	-140
2.67467	-132
2.67833	-122
2.68200	-114
2.68567	-108
2.68933	-100
2.69300	-94
2.69667	-86
2.70033	-77
2.70400	-69
2.70767	-62
2.71133	-56
2.71500	-48
2.71867	-38
2.72233	-31
2.72600	-25
2.72967	-18
2.73333	-14
2.73700	-12
2.74067	-9
2.74433	-5
2.74800	-0
2.75167	3
2.75533	8
2.75900	12
2.76267	19
2.76633	25
2.77000	29
2.77367	33
2.77733	36
2.78100	39
2.78467	40
2.78833	40
2.79200	41
2.79567	43
2.79933	44
2.80300	46
2.80667	50
2.81033	53
2.81400	56
2.81767	60
2.82133	69
2.82500	88
2.82867	132
2.83233	220
2.83600	377
2.83967	629
2.84333	991
2.84700	1472
2.85067	2059
2.85433	2724
2.85800	3415
2.86167	4083
2.86533	4674
2.86900	5142
2.87267	5454
2.87633	5605
2.88000	5599
2.88367	5453
2.88733	5197
2.89100	4863
2.89467	4483
2.89833	4082
2.90200	3679
2.90567	3288
2.90933	2919
2.91300	2578
2.91667	2268
2.92033	1988
2.92400	1740
2.92767	1523
2.93133	1330
2.93500	1161
2.93867	1014
2.94233	887
2.94600	776
2.94967	680
2.95333	596
2.95700	523
2.96067	460
2.96433	406
2.96800	360
2.97167	321
2.97533	286
2.97900	256
2.98267	230
2.98633	210
2.99000	192
2.99367	175
2.99733	160
3.00100	147
3.00467	138
3.00833	133
3.01200	128
3.01567	123
3.01933	119
3.02300	113
3.02667	107
3.03033	105
3.03400	108
3.03767	115
3.04133	128
3.04500	142
3.04867	158
3.05233	178
3.05600	203
3.05967	233
3.06333	270
3.06700	310
3.07067	348
3.07433	382
3.07800	414
3.08167	444
3.08533	470
3.08900	493
3.09267	513
3.09633	531
3.10000	544
3.10367	557
3.10733	569
3.11100	578
3.11467	584
3.11833	591
3.12200	599
3.12567	607
3.12933	614
3.13300	619
3.13667	622
3.14033	627
3.14400	634
3.14767	639
3.15133	641
3.15500	643
3.15867	647
3.16233	649
3.16600	651
3.16967	654
3.17333	655
3.17700	656
3.18067	657
3.18433	658
3.18800	658
3.19167	661
3.19533	665
3.19900	667
3.20267	668
3.20633	667
3.21000	666
3.21367	669
3.21733	672
3.22100	675
3.22467	676
3.22833	678
3.23200	679
3.23567	680
3.23933	681
3.24300	681
3.24667	682
3.25033	683
3.25400	684
3.25767	686
3.26133	686
3.26500	685
3.26867	686
3.27233	688
3.27600	689
3.27967	687
3.28333	685
3.28700	684
3.29067	683
3.29433	683
3.29800	681
3.30167	681
3.30533	684
3.30900	685
3.31267	685
3.31633	682
3.32000	680
3.32367	678
3.32733	675
3.33100	674
3.33467	673
3.33833	669
3.34200	667
3.34567	667
3.34933	667
3.35300	667
3.35667	666
3.36033	664
3.36400	661
3.36767	658
3.37133	655
3.37500	651
3.37867	650
3.38233	649
3.38600	647
3.38967	644
3.39333	640
3.39700	636
3.40067	633
3.40433	632
3.40800	632
3.41167	633
3.41533	632
3.41900	629
3.42267	625
3.42633	623
3.43000	622
3.43367	619
3.43733	616
3.44100	614
3.44467	613
3.44833	611
3.45200	610
3.45567	611
3.45933	609
3.46300	610
3.46667	609
3.47033	607
3.47400	604
3.47767	602
3.48133	601
3.48500	600
3.48867	599
3.49233	596
3.49600	593
3.49967	590
3.50333	587
3.50700	585
3.51067	583
3.51433	581
3.51800	580
3.52167	580
3.52533	576
3.52900	575
3.53267	574
3.53633	570
3.54000	567
3.54367	564
3.54733	561
3.55100	559
3.55467	558
3.55833	557
3.56200	555
3.56567	552
3.56933	550
3.57300	549
3.57667	546
3.58033	544
3.58400	541
3.58767	540
3.59133	539
3.59500	538
3.59867	538
3.60233	535
3.60600	530
3.60967	527
3.61333	525
3.61700	523
3.62067	523
3.62433	523
3.62800	521
3.63167	518
3.63533	516
3.63900	513
3.64267	510
3.64633	507
3.65000	505
3.65367	502
3.65733	499
3.66100	496
3.66467	492
3.66833	491
3.67200	491
3.67567	490
3.67933	488
3.68300	487
3.68667	486
3.69033	483
3.69400	482
3.69767	481
3.70133	480
3.70500	478
3.70867	476
3.71233	473
3.71600	470
3.71967	468
3.72333	466
3.72700	464
3.73067	463
3.73433	461
3.73800	459
3.74167	459
3.74533	457
3.74900	453
3.75267	451
3.75633	450
3.76000	447
3.76367	446
3.76733	446
3.77100	446
3.77467	445
3.77833	444
3.78200	445
3.78567	445
3.78933	441
3.79300	435
3.79667	433
3.80033	431
3.80400	427
3.80767	423
3.81133	420
3.81500	420
3.81867	418
3.82233	416
3.82600	415
3.82967	415
3.83333	415
3.83700	413
3.84067	410
3.84433	407
3.84800	405
3.85167	402
3.85533	398
3.85900	396
3.86267	394
3.86633	394
3.87000	393
3.87367	392
3.87733	391
3.88100	389
3.88467	387
3.88833	385
3.89200	384
3.89567	384
3.89933	385
3.90300	388
3.90667	387
3.91033	386
3.91400	386
3.91767	386
3.92133	383
3.92500	379
3.92867	377
3.93233	375
3.93600	375
3.93967	375
3.94333	372
3.94700	371
3.95067	368
3.95433	365
3.95800	363
3.96167	362
3.96533	361
3.96900	361
3.97267	362
3.97633	363
3.98000	363
3.98367	361
3.98733	357
3.99100	352
3.99467	350
3.99833	348

[Status Trace (Column Oven Temperature)]
Interval(msec)	1000
# of Points	240
Start Time(min)	0.006
End Time(min)	3.989
Intensity Units	
Intensity Multiplier	1
R.Time (min)	Intensity
0.00552	35.04
0.02218	35.04
0.03885	35.03
0.05552	35.02
0.07218	35.02
0.08885	35.02
0.10552	35.02
0.12218	35.03
0.13885	35.01
0.15552	35.00
0.17218	34.99
0.18885	34.98
0.20552	34.97
0.22218	34.98
0.23885	34.98
0.25552	34.98
0.27218	34.98
0.28885	34.98
0.30552	34.99
0.32218	34.98
0.33885	34.99
0.35552	34.99
0.37218	34.99
0.38885	34.99
0.40552	34.99
0.42218	34.99
0.43885	34.98
0.45552	34.98
0.47218	34.98
0.48885	34.98
0.50552	34.97
0.52218	34.97
0.53885	34.97
0.55552	34.98
0.57218	34.98
0.58885	34.97
0.60552	34.98
0.62218	34.98
0.63885	34.99
0.65552	34.99
0.67218	34.99
0.68885	34.99
0.70552	35.00
0.72218	35.02
0.73885	35.01
0.75552	35.01
0.77218	35.03
0.78885	35.02
0.80552	35.01
0.82218	35.01
0.83885	35.00
0.85552	34.99
0.87218	34.98
0.88885	34.98
0.90552	34.99
0.92218	34.99
0.93885	35.00
0.95552	35.02
0.97218	35.03
0.98885	35.04
1.00552	35.05
1.02218	35.05
1.03885	35.05
1.05552	35.04
1.07218	35.02
1.08885	35.01
1.10552	35.00
1.12218	34.98
1.13885	34.98
1.15552	34.98
1.17218	34.97
1.18885	34.96
1.20552	34.96
1.22218	34.96
1.23885	34.96
1.25552	34.97
1.27218	34.96
1.28885	34.96
1.30552	34.97
1.32218	34.98
1.33885	34.98
1.35552	34.99
1.37218	34.99
1.38885	34.98
1.40552	34.99
1.42218	35.00
1.43885	35.00
1.45552	35.01
1.47218	35.00
1.48885	34.99
1.50552	34.99
1.52218	34.98
1.53885	34.99
1.55552	34.98
1.57218	34.98
1.58885	34.99
1.60552	35.04
1.62218	35.15
1.63885	35.32
1.65552	35.56
1.67218	35.89
1.68885	36.28
1.70552	36.65
1.72218	36.98
1.73885	37.27
1.75552	37.58
1.77218	37.94
1.78885	38.27
1.80552	38.59
1.82218	38.94
1.83885	39.28
1.85552	39.61
1.87218	39.93
1.88885	40.27
1.90552	40.60
1.92218	40.94
1.93885	41.25
1.95552	41.58
1.97218	41.90
1.98885	42.24
2.00552	42.56
2.02218	42.88
2.03885	43.20
2.05552	43.53
2.07218	43.87
2.08885	44.18
2.10552	44.50
2.12218	44.82
2.13885	45.17
2.15552	45.47
2.17218	45.80
2.18885	46.12
2.20552	46.45
2.22218	46.78
2.23885	47.10
2.25552	47.43
2.27218	47.77
2.28885	48.09
2.30552	48.44
2.32218	48.77
2.33885	49.09
2.35552	49.39
2.37218	49.56
2.38885	49.63
2.40552	49.63
2.42218	49.62
2.43885	49.65
2.45552	49.66
2.47218	49.68
2.48885	49.68
2.50552	49.70
2.52218	49.71
2.53885	49.73
2.55552	49.76
2.57218	49.76
2.58885	49.77
2.60552	49.80
2.62218	49.82
2.63885	49.86
2.65552	49.87
2.67218	49.85
2.68885	49.84
2.70552	49.86
2.72218	49.86
2.73885	49.86
2.75552	49.85
2.77218	49.85
2.78885	49.86
2.80552	49.88
2.82218	49.89
2.83885	49.90
2.85552	49.91
2.87218	49.92
2.88885	49.93
2.90552	49.93
2.92218	49.94
2.93885	49.96
2.95552	49.97
2.97218	49.98
2.98885	49.99
3.00552	50.00
3.02218	50.01
3.03885	50.01
3.05552	50.02
3.07218	50.02
3.08885	50.04
3.10552	50.05
3.12218	50.07
3.13885	50.09
3.15552	50.11
3.17218	50.12
3.18885	50.10
3.20552	50.09
3.22218	50.06
3.23885	50.05
3.25552	50.04
3.27218	50.03
3.28885	50.01
3.30552	50.00
3.32218	50.00
3.33885	50.00
3.35552	50.01
3.37218	50.01
3.38885	50.02
3.40552	50.03
3.42218	50.03
3.43885	50.04
3.45552	50.04
3.47218	50.05
3.48885	50.05
3.50552	50.06
3.52218	50.06
3.53885	50.07
3.55552	50.07
3.57218	50.07
3.58885	50.08
3.60552	50.09
3.62218	50.09
3.63885	50.08
3.65552	50.09
3.67218	50.09
3.68885	50.09
3.70552	50.08
3.72218	50.07
3.73885	50.07
3.75552	50.07
3.77218	50.06
3.78885	50.07
3.80552	50.07
3.82218	50.07
3.83885	50.08
3.85552	50.07
3.87218	50.06
3.88885	50.07
3.90552	50.06
3.92218	50.06
3.93885	50.06
3.95552	50.06
3.97218	50.06
3.98885	50.06

[Status Trace (Injection Unit Temperature)]
Interval(msec)	1000
# of Points	240
Start Time(min)	0.006
End Time(min)	3.989
Intensity Units	
Intensity Multiplier	1
R.Time (min)	Intensity
0.00552	99.98
0.02218	99.99
0.03885	99.99
0.05552	99.99
0.07218	99.98
0.08885	99.98
0.10552	99.99
0.12218	99.99
0.13885	99.99
0.15552	99.99
0.17218	99.98
0.18885	99.99
0.20552	99.99
0.22218	99.99
0.23885	99.99
0.25552	99.99
0.27218	99.99
0.28885	99.98
0.30552	99.99
0.32218	99.98
0.33885	99.98
0.35552	99.98
0.37218	99.98
0.38885	99.98
0.40552	99.98
0.42218	99.98
0.43885	99.99
0.45552	99.98
0.47218	99.98
0.48885	99.98
0.50552	99.98
0.52218	99.98
0.53885	99.98
0.55552	99.98
0.57218	99.98
0.58885	99.98
0.60552	99.98
0.62218	99.98
0.63885	99.98
0.65552	99.98
0.67218	99.98
0.68885	99.98
0.70552	99.97
0.72218	99.98
0.73885	99.98
0.75552	99.98
0.77218	99.98
0.78885	99.98
0.80552	99.98
0.82218	99.98
0.83885	99.98
0.85552	99.98
0.87218	99.98
0.88885	99.98
0.90552	99.98
0.92218	99.98
0.93885	99.98
0.95552	99.98
0.97218	99.98
0.98885	99.99
1.00552	99.98
1.02218	99.99
1.03885	99.99
1.05552	99.98
1.07218	99.98
1.08885	99.98
1.10552	99.98
1.12218	99.98
1.13885	99.98
1.15552	99.99
1.17218	99.98
1.18885	99.99
1.20552	99.98
1.22218	99.98
1.23885	99.98
1.25552	99.98
1.27218	99.99
1.28885	99.98
1.30552	99.98
1.32218	99.99
1.33885	99.98
1.35552	99.99
1.37218	99.98
1.38885	99.98
1.40552	99.99
1.42218	99.99
1.43885	99.99
1.45552	99.98
1.47218	99.99
1.48885	99.99
1.50552	99.99
1.52218	99.99
1.53885	99.99
1.55552	99.99
1.57218	99.99
1.58885	99.99
1.60552	99.99
1.62218	99.99
1.63885	99.99
1.65552	99.99
1.67218	99.99
1.68885	99.99
1.70552	99.99
1.72218	99.99
1.73885	99.99
1.75552	99.99
1.77218	100.00
1.78885	99.99
1.80552	99.99
1.82218	99.99
1.83885	99.99
1.85552	99.98
1.87218	99.99
1.88885	99.99
1.90552	99.98
1.92218	99.99
1.93885	99.99
1.95552	99.98
1.97218	99.98
1.98885	99.98
2.00552	99.97
2.02218	99.98
2.03885	99.98
2.05552	99.98
2.07218	99.98
2.08885	99.98
2.10552	99.98
2.12218	99.97
2.13885	99.98
2.15552	99.97
2.17218	99.97
2.18885	99.97
2.20552	99.97
2.22218	99.97
2.23885	99.97
2.25552	99.97
2.27218	99.97
2.28885	99.97
2.30552	99.97
2.32218	99.97
2.33885	99.97
2.35552	99.97
2.37218	99.97
2.38885	99.97
2.40552	99.97
2.42218	99.97
2.43885	99.97
2.45552	99.97
2.47218	99.97
2.48885	99.97
2.50552	99.97
2.52218	99.97
2.53885	99.97
2.55552	99.97
2.57218	99.98
2.58885	99.98
2.60552	99.98
2.62218	99.97
2.63885	99.98
2.65552	99.98
2.67218	99.98
2.68885	99.98
2.70552	99.98
2.72218	99.99
2.73885	99.99
2.75552	99.99
2.77218	99.99
2.78885	99.99
2.80552	99.99
2.82218	99.99
2.83885	100.00
2.85552	100.00
2.87218	100.00
2.88885	99.99
2.90552	100.00
2.92218	100.00
2.93885	100.00
2.95552	100.00
2.97218	100.01
2.98885	100.01
3.00552	100.01
3.02218	100.01
3.03885	100.01
3.05552	100.01
3.07218	100.01
3.08885	100.01
3.10552	100.02
3.12218	100.01
3.13885	100.01
3.15552	100.01
3.17218	100.02
3.18885	100.01
3.20552	100.02
3.22218	100.02
3.23885	100.02
3.25552	100.02
3.27218	100.02
3.28885	100.02
3.30552	100.02
3.32218	100.02
3.33885	100.03
3.35552	100.03
3.37218	100.02
3.38885	100.03
3.40552	100.02
3.42218	100.03
3.43885	100.03
3.45552	100.03
3.47218	100.03
3.48885	100.03
3.50552	100.03
3.52218	100.03
3.53885	100.03
3.55552	100.03
3.57218	100.04
3.58885	100.03
3.60552	100.03
3.62218	100.03
3.63885	100.04
3.65552	100.04
3.67218	100.04
3.68885	100.04
3.70552	100.04
3.72218	100.04
3.73885	100.04
3.75552	100.04
3.77218	100.04
3.78885	100.04
3.80552	100.04
3.82218	100.04
3.83885	100.04
3.85552	100.04
3.87218	100.04
3.88885	100.04
3.90552	100.04
3.92218	100.04
3.93885	100.04
3.95552	100.04
3.97218	100.04
3.98885	100.04

[Status Trace (Carrier Gas Pressure)]
Interval(msec)	1000
# of Points	240
Start Time(min)	0.006
End Time(min)	3.989
Intensity Units	
Intensity Multiplier	1
R.Time (min)	Intensity
0.00552	58.00
0.02218	55.80
0.03885	56.70
0.05552	58.90
0.07218	59.80
0.08885	58.19
0.10552	57.97
0.12218	58.01
0.13885	58.01
0.15552	58.01
0.17218	58.00
0.18885	58.00
0.20552	58.00
0.22218	58.00
0.23885	58.00
0.25552	58.00
0.27218	58.00
0.28885	58.00
0.30552	58.00
0.32218	58.00
0.33885	58.00
0.35552	58.00
0.37218	58.00
0.38885	58.00
0.40552	58.00
0.42218	58.00
0.43885	58.00
0.45552	58.00
0.47218	58.00
0.48885	58.00
0.50552	58.00
0.52218	58.00
0.53885	58.00
0.55552	58.00
0.57218	58.00
0.58885	58.00
0.60552	58.00
0.62218	58.00
0.63885	58.00
0.65552	58.00
0.67218	58.00
0.68885	58.00
0.70552	58.00
0.72218	58.00
0.73885	58.00
0.75552	58.00
0.77218	58.00
0.78885	58.00
0.80552	58.00
0.82218	58.00
0.83885	58.00
0.85552	58.00
0.87218	58.00
0.88885	58.00
0.90552	58.00
0.92218	58.00
0.93885	58.00
0.95552	58.00
0.97218	58.00
0.98885	58.00
1.00552	58.00
1.02218	58.00
1.03885	58.00
1.05552	58.00
1.07218	58.00
1.08885	58.00
1.10552	58.00
1.12218	58.00
1.13885	58.00
1.15552	58.00
1.17218	58.00
1.18885	58.00
1.20552	58.00
1.22218	58.00
1.23885	58.00
1.25552	58.00
1.27218	58.00
1.28885	58.00
1.30552	58.00
1.32218	58.00
1.33885	58.00
1.35552	58.00
1.37218	58.00
1.38885	58.00
1.40552	58.00
1.42218	58.00
1.43885	58.00
1.45552	58.00
1.47218	58.00
1.48885	58.00
1.50552	58.00
1.52218	58.00
1.53885	58.00
1.55552	58.00
1.57218	58.00
1.58885	58.00
1.60552	58.00
1.62218	58.00
1.63885	58.01
1.65552	58.00
1.67218	58.01
1.68885	58.01
1.70552	58.00
1.72218	58.00
1.73885	58.00
1.75552	58.00
1.77218	58.00
1.78885	58.00
1.80552	58.00
1.82218	58.00
1.83885	58.00
1.85552	58.00
1.87218	58.00
1.88885	58.00
1.90552	58.00
1.92218	58.00
1.93885	58.00
1.95552	58.00
1.97218	58.00
1.98885	58.00
2.00552	58.00
2.02218	58.00
2.03885	58.00
2.05552	58.00
2.07218	58.00
2.08885	58.00
2.10552	58.00
2.12218	58.00
2.13885	58.00
2.15552	58.00
2.17218	58.00
2.18885	58.00
2.20552	58.00
2.22218	58.00
2.23885	58.00
2.25552	58.00
2.27218	58.00
2.28885	58.00
2.30552	58.00
2.32218	58.00
2.33885	58.00
2.35552	58.00
2.37218	58.00
2.38885	57.99
2.40552	57.99
2.42218	58.00
2.43885	58.00
2.45552	58.00
2.47218	58.00
2.48885	58.00
2.50552	57.99
2.52218	57.99
2.53885	58.00
2.55552	58.00
2.57218	58.00
2.58885	58.00
2.60552	58.00
2.62218	58.00
2.63885	58.00
2.65552	58.00
2.67218	58.00
2.68885	58.00
2.70552	58.00
2.72218	58.00
2.73885	58.00
2.75552	58.00
2.77218	58.00
2.78885	58.00
2.80552	58.00
2.82218	58.00
2.83885	58.00
2.85552	58.00
2.87218	58.00
2.88885	58.00
2.90552	58.00
2.92218	58.00
2.93885	58.00
2.95552	58.00
2.97218	58.00
2.98885	58.00
3.00552	58.00
3.02218	58.00
3.03885	58.00
3.05552	58.00
3.07218	58.00
3.08885	58.00
3.10552	58.00
3.12218	58.00
3.13885	58.00
3.15552	58.00
3.17218	58.00
3.18885	58.00
3.20552	58.00
3.22218	58.00
3.23885	58.00
3.25552	58.00
3.27218	58.00
3.28885	58.00
3.30552	58.00
3.32218	58.00
3.33885	58.00
3.35552	58.00
3.37218	58.00
3.38885	58.00
3.40552	58.00
3.42218	58.00
3.43885	58.00
3.45552	58.00
3.47218	58.00
3.48885	58.00
3.50552	58.00
3.52218	58.00
3.53885	58.00
3.55552	58.00
3.57218	58.00
3.58885	58.00
3.60552	58.00
3.62218	58.00
3.63885	58.00
3.65552	58.00
3.67218	58.00
3.68885	58.00
3.70552	58.00
3.72218	58.00
3.73885	58.00
3.75552	58.00
3.77218	58.00
3.78885	58.00
3.80552	58.00
3.82218	58.00
3.83885	58.00
3.85552	58.00
3.87218	58.00
3.88885	58.00
3.90552	58.00
3.92218	58.00
3.93885	58.00
3.95552	58.00
3.97218	58.00
3.98885	58.00

[Status Trace (Carrier Gas Flow)]
Interval(msec)	1000
# of Points	240
Start Time(min)	0.006
End Time(min)	3.989
Intensity Units	
Intensity Multiplier	1
R.Time (min)	Intensity
0.00552	34.52
0.02218	34.56
0.03885	34.54
0.05552	34.55
0.07218	34.49
0.08885	34.52
0.10552	34.52
0.12218	34.52
0.13885	34.52
0.15552	34.52
0.17218	34.52
0.18885	34.52
0.20552	34.52
0.22218	34.52
0.23885	34.52
0.25552	34.52
0.27218	34.52
0.28885	34.52
0.30552	34.52
0.32218	34.52
0.33885	34.52
0.35552	34.52
0.37218	34.52
0.38885	34.52
0.40552	34.52
0.42218	34.52
0.43885	34.52
0.45552	34.52
0.47218	34.52
0.48885	34.52
0.50552	34.52
0.52218	34.52
0.53885	34.52
0.55552	34.52
0.57218	34.52
0.58885	34.52
0.60552	34.52
0.62218	34.52
0.63885	34.52
0.65552	34.52
0.67218	34.52
0.68885	34.52
0.70552	34.52
0.72218	34.52
0.73885	34.52
0.75552	34.52
0.77218	34.52
0.78885	34.52
0.80552	34.52
0.82218	34.52
0.83885	34.52
0.85552	34.52
0.87218	34.52
0.88885	34.52
0.90552	34.52
0.92218	34.52
0.93885	34.52
0.95552	34.52
0.97218	34.52
0.98885	34.52
1.00552	34.52
1.02218	34.52
1.03885	34.52
1.05552	34.52
1.07218	34.52
1.08885	34.51
1.10552	34.52
1.12218	34.52
1.13885	34.51
1.15552	34.52
1.17218	34.51
1.18885	34.52
1.20552	34.52
1.22218	34.52
1.23885	34.52
1.25552	34.51
1.27218	34.52
1.28885	34.52
1.30552	34.52
1.32218	34.52
1.33885	34.52
1.35552	34.52
1.37218	34.52
1.38885	34.51
1.40552	34.52
1.42218	34.52
1.43885	34.51
1.45552	34.52
1.47218	34.52
1.48885	34.52
1.50552	34.52
1.52218	34.52
1.53885	34.52
1.55552	34.52
1.57218	34.52
1.58885	34.52
1.60552	34.52
1.62218	34.52
1.63885	34.52
1.65552	34.52
1.67218	34.52
1.68885	34.51
1.70552	34.52
1.72218	34.52
1.73885	34.52
1.75552	34.52
1.77218	34.52
1.78885	34.52
1.80552	34.52
1.82218	34.52
1.83885	34.52
1.85552	34.52
1.87218	34.52
1.88885	34.52
1.90552	34.52
1.92218	34.52
1.93885	34.52
1.95552	34.52
1.97218	34.52
1.98885	34.52
2.00552	34.52
2.02218	34.52
2.03885	34.52
2.05552	34.52
2.07218	34.52
2.08885	34.52
2.10552	34.52
2.12218	34.52
2.13885	34.52
2.15552	34.52
2.17218	34.52
2.18885	34.52
2.20552	34.52
2.22218	34.52
2.23885	34.52
2.25552	34.52
2.27218	34.52
2.28885	34.52
2.30552	34.52
2.32218	34.52
2.33885	34.52
2.35552	34.52
2.37218	34.52
2.38885	34.52
2.40552	34.52
2.42218	34.52
2.43885	34.52
2.45552	34.52
2.47218	34.52
2.48885	34.52
2.50552	34.52
2.52218	34.52
2.53885	34.52
2.55552	34.52
2.57218	34.52
2.58885	34.52
2.60552	34.52
2.62218	34.51
2.63885	34.52
2.65552	34.52
2.67218	34.52
2.68885	34.52
2.70552	34.52
2.72218	34.51
2.73885	34.52
2.75552	34.52
2.77218	34.52
2.78885	34.52
2.80552	34.52
2.82218	34.52
2.83885	34.52
2.85552	34.52
2.87218	34.52
2.88885	34.52
2.90552	34.52
2.92218	34.52
2.93885	34.52
2.95552	34.52
2.97218	34.52
2.98885	34.52
3.00552	34.52
3.02218	34.52
3.03885	34.52
3.05552	34.52
3.07218	34.52
3.08885	34.52
3.10552	34.52
3.12218	34.52
3.13885	34.52
3.15552	34.52
3.17218	34.52
3.18885	34.52
3.20552	34.52
3.22218	34.52
3.23885	34.52
3.25552	34.52
3.27218	34.52
3.28885	34.52
3.30552	34.52
3.32218	34.52
3.33885	34.52
3.35552	34.52
3.37218	34.52
3.38885	34.52
3.40552	34.52
3.42218	34.52
3.43885	34.52
3.45552	34.52
3.47218	34.52
3.48885	34.52
3.50552	34.52
3.52218	34.52
3.53885	34.52
3.55552	34.52
3.57218	34.52
3.58885	34.52
3.60552	34.52
3.62218	34.52
3.63885	34.52
3.65552	34.52
3.67218	34.52
3.68885	34.52
3.70552	34.52
3.72218	34.52
3.73885	34.52
3.75552	34.52
3.77218	34.52
3.78885	34.52
3.80552	34.52
3.82218	34.52
3.83885	34.52
3.85552	34.52
3.87218	34.52
3.88885	34.52
3.90552	34.52
3.92218	34.52
3.93885	34.52
3.95552	34.52
3.97218	34.52
3.98885	34.52

[Status Trace (Column Flow)]
Interval(msec)	1000
# of Points	240
Start Time(min)	0.006
End Time(min)	3.989
Intensity Units	
Intensity Multiplier	1
R.Time (min)	Intensity
0.00552	5.49
0.02218	5.24
0.03885	5.34
0.05552	5.60
0.07218	5.70
0.08885	5.52
0.10552	5.49
0.12218	5.49
0.13885	5.49
0.15552	5.49
0.17218	5.49
0.18885	5.49
0.20552	5.49
0.22218	5.49
0.23885	5.49
0.25552	5.49
0.27218	5.49
0.28885	5.49
0.30552	5.49
0.32218	5.49
0.33885	5.49
0.35552	5.49
0.37218	5.49
0.38885	5.49
0.40552	5.49
0.42218	5.49
0.43885	5.49
0.45552	5.49
0.47218	5.49
0.48885	5.49
0.50552	5.49
0.52218	5.49
0.53885	5.49
0.55552	5.49
0.57218	5.49
0.58885	5.49
0.60552	5.49
0.62218	5.49
0.63885	5.49
0.65552	5.49
0.67218	5.49
0.68885	5.49
0.70552	5.49
0.72218	5.49
0.73885	5.49
0.75552	5.49
0.77218	5.49
0.78885	5.49
0.80552	5.49
0.82218	5.49
0.83885	5.49
0.85552	5.49
0.87218	5.49
0.88885	5.49
0.90552	5.49
0.92218	5.49
0.93885	5.49
0.95552	5.49
0.97218	5.49
0.98885	5.49
1.00552	5.49
1.02218	5.49
1.03885	5.49
1.05552	5.49
1.07218	5.49
1.08885	5.49
1.10552	5.49
1.12218	5.49
1.13885	5.49
1.15552	5.49
1.17218	5.49
1.18885	5.49
1.20552	5.49
1.22218	5.49
1.23885	5.49
1.25552	5.49
1.27218	5.49
1.28885	5.49
1.30552	5.49
1.32218	5.49
1.33885	5.49
1.35552	5.49
1.37218	5.49
1.38885	5.49
1.40552	5.49
1.42218	5.49
1.43885	5.49
1.45552	5.49
1.47218	5.49
1.48885	5.49
1.50552	5.49
1.52218	5.49
1.53885	5.49
1.55552	5.49
1.57218	5.49
1.58885	5.49
1.60552	5.49
1.62218	5.49
1.63885	5.48
1.65552	5.48
1.67218	5.47
1.68885	5.45
1.70552	5.44
1.72218	5.43
1.73885	5.42
1.75552	5.41
1.77218	5.40
1.78885	5.39
1.80552	5.38
1.82218	5.37
1.83885	5.36
1.85552	5.35
1.87218	5.34
1.88885	5.33
1.90552	5.32
1.92218	5.31
1.93885	5.30
1.95552	5.29
1.97218	5.28
1.98885	5.27
2.00552	5.26
2.02218	5.25
2.03885	5.24
2.05552	5.24
2.07218	5.23
2.08885	5.22
2.10552	5.21
2.12218	5.20
2.13885	5.19
2.15552	5.18
2.17218	5.17
2.18885	5.16
2.20552	5.15
2.22218	5.14
2.23885	5.13
2.25552	5.12
2.27218	5.11
2.28885	5.10
2.30552	5.10
2.32218	5.09
2.33885	5.08
2.35552	5.07
2.37218	5.06
2.38885	5.06
2.40552	5.06
2.42218	5.06
2.43885	5.06
2.45552	5.06
2.47218	5.06
2.48885	5.06
2.50552	5.06
2.52218	5.06
2.53885	5.06
2.55552	5.06
2.57218	5.06
2.58885	5.06
2.60552	5.06
2.62218	5.06
2.63885	5.06
2.65552	5.06
2.67218	5.06
2.68885	5.06
2.70552	5.06
2.72218	5.06
2.73885	5.06
2.75552	5.06
2.77218	5.06
2.78885	5.06
2.80552	5.06
2.82218	5.06
2.83885	5.06
2.85552	5.05
2.87218	5.05
2.88885	5.05
2.90552	5.05
2.92218	5.05
2.93885	5.05
2.95552	5.05
2.97218	5.05
2.98885	5.05
3.00552	5.05
3.02218	5.05
3.03885	5.05
3.05552	5.05
3.07218	5.05
3.08885	5.05
3.10552	5.05
3.12218	5.05
3.13885	5.05
3.15552	5.05
3.17218	5.05
3.18885	5.05
3.20552	5.05
3.22218	5.05
3.23885	5.05
3.25552	5.05
3.27218	5.05
3.28885	5.05
3.30552	5.05
3.32218	5.05
3.33885	5.05
3.35552	5.05
3.37218	5.05
3.38885	5.05
3.40552	5.05
3.42218	5.05
3.43885	5.05
3.45552	5.05
3.47218	5.05
3.48885	5.05
3.50552	5.05
3.52218	5.05
3.53885	5.05
3.55552	5.05
3.57218	5.05
3.58885	5.05
3.60552	5.05
3.62218	5.05
3.63885	5.05
3.65552	5.05
3.67218	5.05
3.68885	5.05
3.70552	5.05
3.72218	5.05
3.73885	5.05
3.75552	5.05
3.77218	5.05
3.78885	5.05
3.80552	5.05
3.82218	5.05
3.83885	5.05
3.85552	5.05
3.87218	5.05
3.88885	5.05
3.90552	5.05
3.92218	5.05
3.93885	5.05
3.95552	5.05
3.97218	5.05
3.98885	5.05

[Status Trace (Linear Velocity)]
Interval(msec)	1000
# of Points	240
Start Time(min)	0.006
End Time(min)	3.989
Intensity Units	
Intensity Multiplier	1
R.Time (min)	Intensity
0.00552	39.01
0.02218	37.57
0.03885	38.16
0.05552	39.60
0.07218	40.18
0.08885	39.13
0.10552	38.99
0.12218	39.01
0.13885	39.02
0.15552	39.01
0.17218	39.01
0.18885	39.01
0.20552	39.01
0.22218	39.01
0.23885	39.01
0.25552	39.01
0.27218	39.01
0.28885	39.01
0.30552	39.01
0.32218	39.01
0.33885	39.01
0.35552	39.01
0.37218	39.01
0.38885	39.01
0.40552	39.01
0.42218	39.01
0.43885	39.01
0.45552	39.01
0.47218	39.01
0.48885	39.01
0.50552	39.01
0.52218	39.01
0.53885	39.01
0.55552	39.01
0.57218	39.01
0.58885	39.01
0.60552	39.01
0.62218	39.01
0.63885	39.01
0.65552	39.01
0.67218	39.01
0.68885	39.01
0.70552	39.01
0.72218	39.01
0.73885	39.01
0.75552	39.01
0.77218	39.01
0.78885	39.01
0.80552	39.01
0.82218	39.01
0.83885	39.01
0.85552	39.01
0.87218	39.01
0.88885	39.01
0.90552	39.01
0.92218	39.01
0.93885	39.01
0.95552	39.01
0.97218	39.01
0.98885	39.01
1.00552	39.01
1.02218	39.00
1.03885	39.01
1.05552	39.01
1.07218	39.01
1.08885	39.01
1.10552	39.01
1.12218	39.01
1.13885	39.01
1.15552	39.01
1.17218	39.01
1.18885	39.01
1.20552	39.01
1.22218	39.01
1.23885	39.01
1.25552	39.01
1.27218	39.01
1.28885	39.01
1.30552	39.01
1.32218	39.01
1.33885	39.01
1.35552	39.01
1.37218	39.01
1.38885	39.01
1.40552	39.01
1.42218	39.01
1.43885	39.01
1.45552	39.01
1.47218	39.01
1.48885	39.01
1.50552	39.01
1.52218	39.01
1.53885	39.01
1.55552	39.01
1.57218	39.01
1.58885	39.01
1.60552	39.01
1.62218	39.00
1.63885	38.98
1.65552	38.96
1.67218	38.93
1.68885	38.89
1.70552	38.85
1.72218	38.82
1.73885	38.79
1.75552	38.76
1.77218	38.73
1.78885	38.70
1.80552	38.67
1.82218	38.64
1.83885	38.60
1.85552	38.57
1.87218	38.54
1.88885	38.51
1.90552	38.48
1.92218	38.45
1.93885	38.42
1.95552	38.39
1.97218	38.36
1.98885	38.33
2.00552	38.30
2.02218	38.27
2.03885	38.24
2.05552	38.21
2.07218	38.18
2.08885	38.15
2.10552	38.12
2.12218	38.09
2.13885	38.06
2.15552	38.03
2.17218	38.00
2.18885	37.97
2.20552	37.94
2.22218	37.91
2.23885	37.88
2.25552	37.86
2.27218	37.82
2.28885	37.80
2.30552	37.76
2.32218	37.73
2.33885	37.71
2.35552	37.68
2.37218	37.66
2.38885	37.66
2.40552	37.66
2.42218	37.66
2.43885	37.66
2.45552	37.65
2.47218	37.65
2.48885	37.65
2.50552	37.65
2.52218	37.64
2.53885	37.65
2.55552	37.65
2.57218	37.65
2.58885	37.65
2.60552	37.64
2.62218	37.64
2.63885	37.64
2.65552	37.64
2.67218	37.64
2.68885	37.64
2.70552	37.64
2.72218	37.64
2.73885	37.64
2.75552	37.64
2.77218	37.64
2.78885	37.64
2.80552	37.64
2.82218	37.64
2.83885	37.63
2.85552	37.63
2.87218	37.63
2.88885	37.63
2.90552	37.63
2.92218	37.63
2.93885	37.63
2.95552	37.63
2.97218	37.63
2.98885	37.63
3.00552	37.63
3.02218	37.62
3.03885	37.62
3.05552	37.62
3.07218	37.62
3.08885	37.62
3.10552	37.62
3.12218	37.62
3.13885	37.62
3.15552	37.62
3.17218	37.62
3.18885	37.62
3.20552	37.62
3.22218	37.62
3.23885	37.62
3.25552	37.62
3.27218	37.62
3.28885	37.63
3.30552	37.63
3.32218	37.63
3.33885	37.63
3.35552	37.63
3.37218	37.62
3.38885	37.62
3.40552	37.62
3.42218	37.62
3.43885	37.62
3.45552	37.62
3.47218	37.62
3.48885	37.62
3.50552	37.62
3.52218	37.62
3.53885	37.62
3.55552	37.62
3.57218	37.62
3.58885	37.62
3.60552	37.62
3.62218	37.62
3.63885	37.62
3.65552	37.62
3.67218	37.62
3.68885	37.62
3.70552	37.62
3.72218	37.62
3.73885	37.62
3.75552	37.62
3.77218	37.62
3.78885	37.62
3.80552	37.62
3.82218	37.62
3.83885	37.62
3.85552	37.62
3.87218	37.62
3.88885	37.62
3.90552	37.62
3.92218	37.62
3.93885	37.62
3.95552	37.62
3.97218	37.62
3.98885	37.62

