[Header]
Application Name	LabSolutions
Version	5.110
Data File Name	C:\Users\User\Desktop\GC Analyses\Jack\UIC Prairie Sampling\9.16.22\220916_102.gcd
Output Date	11/29/2022
Output Time	11:10:22 AM

[File Information]
Type	Data File
Generated	11/28/2022 1:32:05 PM
Generated by	System Administrator
Modified	11/28/2022 1:36:33 PM
Modified by	System Administrator

[Sample Information]
Operator Name	System Administrator
Acquired	11/28/2022 1:32:32 PM
Sample Type	1:Standard
Level	1
Sample Name	220916_UICPrairie
Sample ID	220916_UICPrairie
ISTD Amount1	1
ISTD Amount2	1
ISTD Amount3	1
ISTD Amount4	1
ISTD Amount5	1
ISTD Amount6	1
ISTD Amount7	1
ISTD Amount8	1
ISTD Amount9	1
ISTD Amount10	1
ISTD Amount11	1
ISTD Amount12	1
ISTD Amount13	1
ISTD Amount14	1
ISTD Amount15	1
ISTD Amount16	1
ISTD Amount17	1
ISTD Amount18	1
ISTD Amount19	1
ISTD Amount20	1
ISTD Amount21	1
ISTD Amount22	1
ISTD Amount23	1
ISTD Amount24	1
ISTD Amount25	1
ISTD Amount26	1
ISTD Amount27	1
ISTD Amount28	1
ISTD Amount29	1
ISTD Amount30	1
ISTD Amount31	1
ISTD Amount32	1
Sample Amount	1
Dilution Factor	1
Vial#	1
Injection Volume	1
Injection Count	1
Bar Code	

[Original Files]
Data File	C:\Users\User\Desktop\GC Analyses\Jack\UIC Prairie Sampling\9.16.22\220916_102.gcd
Method File	C:\LabSolutions\Data\GHG_4min_2022\ghg3_togas_w_acet_4 min_new_int.gcm
Batch File	
Report Format File	c:\LabSolutions\System\DEFAULT.lsr

[File Description]


[Configuration]
Instrument Name	C0B7VH3-Instrument1
Instrument #	1
Line #	1
# of Detectors	3
Detector ID	DET#1	DET#2	DET#3
Detector Name	FID	PTCD	ECD
# of Channels	1	1	1

[Peak Table(Ch1)]
# of Peaks	3
Peak#	R.Time	I.Time	F.Time	Area	Height	A/H	Conc.	Mark	ID#	Name	k'	Plate #	Plate Ht.	Tailing	Resolution	Sep.Factor	Area Ratio	Height Ratio	Conc. %	Norm Conc.
1	1.479	1.432	1.542	13569	6058	2.240	100.000	   	1	CO	0.000	8478	17.693	1.222	0.000	0.000	0	0	16.667	16.667
2	1.571	1.542	1.630	4566	2271	2.010	100.000	 V 	2	CH4	0.062	11018	13.614	0.000	1.477	0.000	0	0	16.667	16.667
3	2.000	1.952	2.425	2201103	1056156	2.084	400.000	   	3	CO2	0.352	17485	8.579	1.297	7.128	5.680	0	0	66.667	66.667

[Peak Table(Ch2)]
# of Peaks	0

[Peak Table(Ch3)]
# of Peaks	4
Peak#	R.Time	I.Time	F.Time	Area	Height	A/H	Conc.	Mark	ID#	Name	k'	Plate #	Plate Ht.	Tailing	Resolution	Sep.Factor	Area Ratio	Height Ratio	Conc. %	Norm Conc.
1	2.458	2.026	2.499	1082	170	6.348	0.000	   			0.000	15718	9.543	0.000	0.000	0.000	0	0	0.000	0.000
2	2.598	2.499	2.660	4914	710	6.921	0.000	 V 			0.057	2307	65.031	0.000	0.945	0.000	0	0	0.000	0.000
3	2.693	2.660	2.829	4142	467	8.875	0.000	 V 			0.095	81	1859.372	0.000	0.135	1.684	0	0	0.000	0.000
4	2.887	2.829	3.225	21888	5000	4.377	1.000	 V 	1	N2O	0.175	12516	11.984	0.000	0.298	1.828	0	0	100.000	100.000

[Compound Results(Ch1)]
# of IDs	6
ID#	Name	R.Time	Area	Height	Conc.	Curve	3rd	2nd	1st	Constant	Area Ratio	Height Ratio	Conc. %	Norm Conc.
1	CO	1.479	13569	6058	100.000	Linear	0.000000e+00	0.000000e+00	1.356923e+002	0.000000e+00	0	0	16.667	16.667
2	CH4	1.571	4566	2271	100.000	Linear	0.000000e+00	0.000000e+00	4.566190e+001	0.000000e+00	0	0	16.667	16.667
3	CO2	2.000	2201103	1056156	400.000	Linear	0.000000e+00	0.000000e+00	5.502759e+003	0.000000e+00	0	0	66.667	66.667
4	Ethylene	0.000	0	0	0.000	Linear	0.000000e+00	0.000000e+00	0.000000e+00	0.000000e+00	0	0	0.000	0.000
5	Acetylene	0.000	0	0	0.000	Linear	0.000000e+00	0.000000e+00	0.000000e+00	0.000000e+00	0	0	0.000	0.000
6	Ethane	0.000	0	0	0.000	Linear	0.000000e+00	0.000000e+00	0.000000e+00	0.000000e+00	0	0	0.000	0.000

[Compound Results(Ch2)]
# of IDs	5
ID#	Name	R.Time	Area	Height	Conc.	Curve	3rd	2nd	1st	Constant	Area Ratio	Height Ratio	Conc. %	Norm Conc.
1	Hydrogen	0.000	0	0	0.000	Linear	0.000000e+00	0.000000e+00	0.000000e+00	0.000000e+00	0	0	0.000	0.000
2	Oxygen	0.000	0	0	0.000	Linear	0.000000e+00	0.000000e+00	0.000000e+00	0.000000e+00	0	0	0.000	0.000
3	Nitrogen	0.000	0	0	0.000	Linear	0.000000e+00	0.000000e+00	0.000000e+00	0.000000e+00	0	0	0.000	0.000
4	Methane	0.000	0	0	0.000	Linear	0.000000e+00	0.000000e+00	0.000000e+00	0.000000e+00	0	0	0.000	0.000
5	Carbon Monoxide	0.000	0	0	0.000	Linear	0.000000e+00	0.000000e+00	0.000000e+00	0.000000e+00	0	0	0.000	0.000

[Compound Results(Ch3)]
# of IDs	2
ID#	Name	R.Time	Area	Height	Conc.	Curve	3rd	2nd	1st	Constant	Area Ratio	Height Ratio	Conc. %	Norm Conc.
1	N2O	2.887	21888	5000	1.000	Linear	0.000000e+00	0.000000e+00	2.188825e+004	0.000000e+00	0	0	100.000	100.000
2	SF6	0.000	0	0	0.000	Linear	0.000000e+00	0.000000e+00	0.000000e+00	0.000000e+00	0	0	0.000	0.000

[Group Results(Ch1)]
# of Groups	0

[Group Results(Ch2)]
# of Groups	0

[Group Results(Ch3)]
# of Groups	0

[Chromatogram (Ch1)]
Interval(msec)	220
# of Points	1091
Start Time(min)	0.002
End Time(min)	3.998
R.Time (min)	Intensity
0.00167	-29
0.00533	-33
0.00900	-39
0.01267	-42
0.01633	-42
0.02000	-39
0.02367	-37
0.02733	-37
0.03100	-37
0.03467	-38
0.03833	-37
0.04200	-36
0.04567	-35
0.04933	-31
0.05300	-26
0.05667	-22
0.06033	-22
0.06400	-22
0.06767	-22
0.07133	-20
0.07500	-16
0.07867	-12
0.08233	-12
0.08600	-14
0.08967	-19
0.09333	-24
0.09700	-26
0.10067	-29
0.10433	-31
0.10800	-30
0.11167	-29
0.11533	-31
0.11900	-37
0.12267	-43
0.12633	-50
0.13000	-56
0.13367	-60
0.13733	-62
0.14100	-61
0.14467	-59
0.14833	-57
0.15200	-55
0.15567	-51
0.15933	-47
0.16300	-38
0.16667	-30
0.17033	-27
0.17400	-29
0.17767	-35
0.18133	-43
0.18500	-48
0.18867	-50
0.19233	-49
0.19600	-46
0.19967	-43
0.20333	-41
0.20700	-38
0.21067	-34
0.21433	-31
0.21800	-30
0.22167	-32
0.22533	-34
0.22900	-40
0.23267	-45
0.23633	-48
0.24000	-50
0.24367	-51
0.24733	-51
0.25100	-52
0.25467	-54
0.25833	-57
0.26200	-61
0.26567	-67
0.26933	-74
0.27300	-80
0.27667	-81
0.28033	-77
0.28400	-70
0.28767	-66
0.29133	-66
0.29500	-67
0.29867	-64
0.30233	-61
0.30600	-60
0.30967	-57
0.31333	-56
0.31700	-57
0.32067	-54
0.32433	-50
0.32800	-48
0.33167	-50
0.33533	-53
0.33900	-56
0.34267	-59
0.34633	-61
0.35000	-63
0.35367	-64
0.35733	-68
0.36100	-72
0.36467	-75
0.36833	-76
0.37200	-76
0.37567	-76
0.37933	-79
0.38300	-84
0.38667	-88
0.39033	-89
0.39400	-85
0.39767	-81
0.40133	-79
0.40500	-79
0.40867	-81
0.41233	-82
0.41600	-80
0.41967	-77
0.42333	-73
0.42700	-69
0.43067	-69
0.43433	-68
0.43800	-66
0.44167	-63
0.44533	-61
0.44900	-60
0.45267	-59
0.45633	-57
0.46000	-57
0.46367	-62
0.46733	-69
0.47100	-75
0.47467	-81
0.47833	-87
0.48200	-93
0.48567	-98
0.48933	-101
0.49300	-100
0.49667	-95
0.50033	-91
0.50400	-86
0.50767	-85
0.51133	-87
0.51500	-90
0.51867	-91
0.52233	-91
0.52600	-89
0.52967	-89
0.53333	-92
0.53700	-97
0.54067	-103
0.54433	-106
0.54800	-103
0.55167	-99
0.55533	-94
0.55900	-91
0.56267	-88
0.56633	-86
0.57000	-87
0.57367	-87
0.57733	-86
0.58100	-87
0.58467	-88
0.58833	-89
0.59200	-92
0.59567	-94
0.59933	-93
0.60300	-92
0.60667	-91
0.61033	-91
0.61400	-88
0.61767	-87
0.62133	-88
0.62500	-89
0.62867	-89
0.63233	-87
0.63600	-87
0.63967	-87
0.64333	-88
0.64700	-91
0.65067	-97
0.65433	-103
0.65800	-107
0.66167	-109
0.66533	-110
0.66900	-113
0.67267	-114
0.67633	-112
0.68000	-109
0.68367	-107
0.68733	-104
0.69100	-97
0.69467	-91
0.69833	-90
0.70200	-93
0.70567	-99
0.70933	-107
0.71300	-112
0.71667	-113
0.72033	-111
0.72400	-109
0.72767	-106
0.73133	-102
0.73500	-100
0.73867	-102
0.74233	-105
0.74600	-111
0.74967	-120
0.75333	-127
0.75700	-128
0.76067	-124
0.76433	-119
0.76800	-120
0.77167	-124
0.77533	-126
0.77900	-127
0.78267	-129
0.78633	-127
0.79000	-122
0.79367	-123
0.79733	-126
0.80100	-127
0.80467	-129
0.80833	-133
0.81200	-138
0.81567	-141
0.81933	-142
0.82300	-141
0.82667	-138
0.83033	-132
0.83400	-126
0.83767	-120
0.84133	-116
0.84500	-112
0.84867	-113
0.85233	-116
0.85600	-121
0.85967	-126
0.86333	-129
0.86700	-129
0.87067	-126
0.87433	-124
0.87800	-126
0.88167	-130
0.88533	-133
0.88900	-133
0.89267	-131
0.89633	-130
0.90000	-130
0.90367	-134
0.90733	-137
0.91100	-139
0.91467	-139
0.91833	-139
0.92200	-139
0.92567	-137
0.92933	-135
0.93300	-129
0.93667	-122
0.94033	-118
0.94400	-120
0.94767	-125
0.95133	-130
0.95500	-132
0.95867	-132
0.96233	-131
0.96600	-131
0.96967	-135
0.97333	-143
0.97700	-150
0.98067	-155
0.98433	-158
0.98800	-159
0.99167	-161
0.99533	-165
0.99900	-168
1.00267	-165
1.00633	-155
1.01000	-146
1.01367	-140
1.01733	-134
1.02100	-132
1.02467	-131
1.02833	-134
1.03200	-141
1.03567	-152
1.03933	-161
1.04300	-163
1.04667	-161
1.05033	-157
1.05400	-152
1.05767	-145
1.06133	-138
1.06500	-135
1.06867	-136
1.07233	-138
1.07600	-141
1.07967	-144
1.08333	-147
1.08700	-153
1.09067	-158
1.09433	-162
1.09800	-161
1.10167	-157
1.10533	-152
1.10900	-152
1.11267	-157
1.11633	-161
1.12000	-162
1.12367	-159
1.12733	-154
1.13100	-152
1.13467	-154
1.13833	-158
1.14200	-162
1.14567	-164
1.14933	-163
1.15300	-166
1.15667	-172
1.16033	-174
1.16400	-174
1.16767	-172
1.17133	-170
1.17500	-165
1.17867	-159
1.18233	-155
1.18600	-155
1.18967	-155
1.19333	-152
1.19700	-151
1.20067	-154
1.20433	-159
1.20800	-163
1.21167	-165
1.21533	-167
1.21900	-165
1.22267	-162
1.22633	-165
1.23000	-172
1.23367	-180
1.23733	-184
1.24100	-182
1.24467	-178
1.24833	-172
1.25200	-166
1.25567	-161
1.25933	-159
1.26300	-156
1.26667	-152
1.27033	-150
1.27400	-152
1.27767	-153
1.28133	-153
1.28500	-154
1.28867	-160
1.29233	-167
1.29600	-172
1.29967	-171
1.30333	-168
1.30700	-167
1.31067	-169
1.31433	-172
1.31800	-174
1.32167	-176
1.32533	-175
1.32900	-170
1.33267	-163
1.33633	-158
1.34000	-158
1.34367	-162
1.34733	-167
1.35100	-174
1.35467	-179
1.35833	-180
1.36200	-178
1.36567	-174
1.36933	-170
1.37300	-166
1.37667	-164
1.38033	-164
1.38400	-165
1.38767	-169
1.39133	-173
1.39500	-176
1.39867	-176
1.40233	-174
1.40600	-173
1.40967	-176
1.41333	-182
1.41700	-188
1.42067	-192
1.42433	-193
1.42800	-191
1.43167	-186
1.43533	-181
1.43900	-173
1.44267	-135
1.44633	3
1.45000	293
1.45367	754
1.45733	1476
1.46100	2462
1.46467	3540
1.46833	4511
1.47200	5258
1.47567	5726
1.47933	5877
1.48300	5675
1.48667	5131
1.49033	4339
1.49400	3456
1.49767	2620
1.50133	1914
1.50500	1360
1.50867	946
1.51233	643
1.51600	427
1.51967	271
1.52333	160
1.52700	78
1.53067	17
1.53433	-26
1.53800	-50
1.54167	-52
1.54533	3
1.54900	181
1.55267	508
1.55633	932
1.56000	1358
1.56367	1714
1.56733	1969
1.57100	2098
1.57467	2071
1.57833	1875
1.58200	1553
1.58567	1182
1.58933	834
1.59300	546
1.59667	331
1.60033	177
1.60400	68
1.60767	-12
1.61133	-71
1.61500	-113
1.61867	-139
1.62233	-155
1.62600	-163
1.62967	-167
1.63333	-171
1.63700	-174
1.64067	-178
1.64433	-181
1.64800	-186
1.65167	-187
1.65533	-187
1.65900	-187
1.66267	-189
1.66633	-193
1.67000	-196
1.67367	-197
1.67733	-196
1.68100	-196
1.68467	-198
1.68833	-201
1.69200	-203
1.69567	-203
1.69933	-200
1.70300	-194
1.70667	-190
1.71033	-189
1.71400	-191
1.71767	-195
1.72133	-200
1.72500	-204
1.72867	-202
1.73233	-198
1.73600	-193
1.73967	-191
1.74333	-192
1.74700	-193
1.75067	-195
1.75433	-196
1.75800	-193
1.76167	-188
1.76533	-186
1.76900	-186
1.77267	-187
1.77633	-188
1.78000	-190
1.78367	-196
1.78733	-200
1.79100	-201
1.79467	-202
1.79833	-204
1.80200	-203
1.80567	-198
1.80933	-191
1.81300	-185
1.81667	-182
1.82033	-180
1.82400	-180
1.82767	-184
1.83133	-190
1.83500	-194
1.83867	-196
1.84233	-196
1.84600	-195
1.84967	-195
1.85333	-197
1.85700	-199
1.86067	-201
1.86433	-199
1.86800	-197
1.87167	-199
1.87533	-203
1.87900	-202
1.88267	-197
1.88633	-191
1.89000	-186
1.89367	-185
1.89733	-187
1.90100	-192
1.90467	-197
1.90833	-198
1.91200	-199
1.91567	-202
1.91933	-203
1.92300	-200
1.92667	-195
1.93033	-189
1.93400	-186
1.93767	-186
1.94133	-188
1.94500	-190
1.94867	-189
1.95233	-184
1.95600	-160
1.95967	2
1.96333	954
1.96700	5385
1.97067	21138
1.97433	63924
1.97800	153405
1.98167	299720
1.98533	490474
1.98900	693572
1.99267	872626
1.99633	999329
2.00000	1056018
2.00367	1036851
2.00733	949476
2.01100	814057
2.01467	657431
2.01833	504437
2.02200	371556
2.02567	265657
2.02933	186380
2.03300	129590
2.03667	90097
2.04033	63141
2.04400	44925
2.04767	32643
2.05133	24330
2.05500	18647
2.05867	14705
2.06233	11913
2.06600	9891
2.06967	8390
2.07333	7248
2.07700	6363
2.08067	5664
2.08433	5097
2.08800	4626
2.09167	4230
2.09533	3895
2.09900	3609
2.10267	3360
2.10633	3138
2.11000	2936
2.11367	2751
2.11733	2584
2.12100	2433
2.12467	2300
2.12833	2179
2.13200	2065
2.13567	1960
2.13933	1866
2.14300	1783
2.14667	1707
2.15033	1632
2.15400	1560
2.15767	1493
2.16133	1432
2.16500	1377
2.16867	1326
2.17233	1280
2.17600	1240
2.17967	1200
2.18333	1160
2.18700	1124
2.19067	1090
2.19433	1056
2.19800	1021
2.20167	986
2.20533	953
2.20900	920
2.21267	886
2.21633	855
2.22000	829
2.22367	808
2.22733	789
2.23100	770
2.23467	748
2.23833	723
2.24200	700
2.24567	682
2.24933	667
2.25300	649
2.25667	628
2.26033	608
2.26400	589
2.26767	574
2.27133	565
2.27500	558
2.27867	552
2.28233	547
2.28600	540
2.28967	528
2.29333	512
2.29700	493
2.30067	474
2.30433	456
2.30800	441
2.31167	430
2.31533	425
2.31900	422
2.32267	418
2.32633	412
2.33000	405
2.33367	396
2.33733	389
2.34100	381
2.34467	375
2.34833	370
2.35200	363
2.35567	352
2.35933	340
2.36300	330
2.36667	321
2.37033	312
2.37400	303
2.37767	295
2.38133	290
2.38500	285
2.38867	285
2.39233	287
2.39600	287
2.39967	285
2.40333	281
2.40700	280
2.41067	279
2.41433	278
2.41800	277
2.42167	276
2.42533	274
2.42900	268
2.43267	261
2.43633	252
2.44000	245
2.44367	242
2.44733	244
2.45100	248
2.45467	251
2.45833	246
2.46200	236
2.46567	223
2.46933	212
2.47300	202
2.47667	194
2.48033	188
2.48400	187
2.48767	187
2.49133	188
2.49500	190
2.49867	191
2.50233	187
2.50600	184
2.50967	182
2.51333	175
2.51700	167
2.52067	162
2.52433	157
2.52800	153
2.53167	149
2.53533	145
2.53900	144
2.54267	145
2.54633	143
2.55000	138
2.55367	136
2.55733	135
2.56100	134
2.56467	130
2.56833	125
2.57200	121
2.57567	115
2.57933	108
2.58300	103
2.58667	103
2.59033	103
2.59400	108
2.59767	113
2.60133	115
2.60500	113
2.60867	109
2.61233	104
2.61600	101
2.61967	101
2.62333	101
2.62700	104
2.63067	107
2.63433	109
2.63800	106
2.64167	103
2.64533	98
2.64900	95
2.65267	93
2.65633	93
2.66000	94
2.66367	93
2.66733	90
2.67100	84
2.67467	76
2.67833	70
2.68200	64
2.68567	58
2.68933	53
2.69300	52
2.69667	56
2.70033	63
2.70400	69
2.70767	71
2.71133	70
2.71500	69
2.71867	68
2.72233	67
2.72600	69
2.72967	71
2.73333	71
2.73700	67
2.74067	60
2.74433	53
2.74800	50
2.75167	51
2.75533	56
2.75900	64
2.76267	68
2.76633	67
2.77000	61
2.77367	54
2.77733	47
2.78100	39
2.78467	32
2.78833	28
2.79200	28
2.79567	34
2.79933	40
2.80300	44
2.80667	44
2.81033	42
2.81400	40
2.81767	41
2.82133	47
2.82500	53
2.82867	57
2.83233	56
2.83600	49
2.83967	41
2.84333	35
2.84700	34
2.85067	37
2.85433	42
2.85800	47
2.86167	50
2.86533	51
2.86900	49
2.87267	47
2.87633	43
2.88000	38
2.88367	36
2.88733	35
2.89100	33
2.89467	30
2.89833	23
2.90200	13
2.90567	5
2.90933	-1
2.91300	-2
2.91667	-1
2.92033	6
2.92400	16
2.92767	27
2.93133	34
2.93500	36
2.93867	31
2.94233	23
2.94600	16
2.94967	12
2.95333	10
2.95700	8
2.96067	4
2.96433	1
2.96800	-0
2.97167	2
2.97533	8
2.97900	13
2.98267	14
2.98633	12
2.99000	11
2.99367	14
2.99733	21
3.00100	28
3.00467	31
3.00833	27
3.01200	15
3.01567	3
3.01933	-3
3.02300	1
3.02667	12
3.03033	23
3.03400	29
3.03767	28
3.04133	21
3.04500	10
3.04867	-3
3.05233	-15
3.05600	-19
3.05967	-15
3.06333	-8
3.06700	-3
3.07067	2
3.07433	3
3.07800	1
3.08167	-0
3.08533	-2
3.08900	-3
3.09267	-4
3.09633	-6
3.10000	-6
3.10367	-6
3.10733	-8
3.11100	-14
3.11467	-19
3.11833	-25
3.12200	-27
3.12567	-24
3.12933	-16
3.13300	-10
3.13667	-10
3.14033	-13
3.14400	-16
3.14767	-16
3.15133	-14
3.15500	-13
3.15867	-12
3.16233	-8
3.16600	-3
3.16967	-3
3.17333	-6
3.17700	-11
3.18067	-17
3.18433	-22
3.18800	-22
3.19167	-19
3.19533	-15
3.19900	-11
3.20267	-8
3.20633	-7
3.21000	-9
3.21367	-9
3.21733	-4
3.22100	2
3.22467	6
3.22833	9
3.23200	9
3.23567	6
3.23933	1
3.24300	-5
3.24667	-9
3.25033	-11
3.25400	-12
3.25767	-8
3.26133	-3
3.26500	-1
3.26867	-2
3.27233	-5
3.27600	-9
3.27967	-11
3.28333	-15
3.28700	-19
3.29067	-19
3.29433	-18
3.29800	-17
3.30167	-15
3.30533	-9
3.30900	-6
3.31267	-8
3.31633	-14
3.32000	-20
3.32367	-25
3.32733	-31
3.33100	-34
3.33467	-37
3.33833	-36
3.34200	-34
3.34567	-33
3.34933	-32
3.35300	-28
3.35667	-24
3.36033	-20
3.36400	-18
3.36767	-16
3.37133	-13
3.37500	-10
3.37867	-8
3.38233	-8
3.38600	-7
3.38967	-4
3.39333	2
3.39700	5
3.40067	4
3.40433	-2
3.40800	-11
3.41167	-18
3.41533	-23
3.41900	-27
3.42267	-31
3.42633	-36
3.43000	-39
3.43367	-38
3.43733	-35
3.44100	-30
3.44467	-23
3.44833	-17
3.45200	-14
3.45567	-11
3.45933	-11
3.46300	-11
3.46667	-12
3.47033	-10
3.47400	-8
3.47767	-8
3.48133	-10
3.48500	-12
3.48867	-14
3.49233	-16
3.49600	-17
3.49967	-16
3.50333	-18
3.50700	-22
3.51067	-25
3.51433	-27
3.51800	-28
3.52167	-31
3.52533	-32
3.52900	-32
3.53267	-34
3.53633	-39
3.54000	-39
3.54367	-33
3.54733	-24
3.55100	-15
3.55467	-10
3.55833	-9
3.56200	-12
3.56567	-14
3.56933	-15
3.57300	-17
3.57667	-21
3.58033	-23
3.58400	-23
3.58767	-21
3.59133	-18
3.59500	-19
3.59867	-20
3.60233	-24
3.60600	-28
3.60967	-28
3.61333	-24
3.61700	-18
3.62067	-9
3.62433	0
3.62800	7
3.63167	8
3.63533	4
3.63900	-4
3.64267	-12
3.64633	-19
3.65000	-22
3.65367	-22
3.65733	-23
3.66100	-22
3.66467	-19
3.66833	-16
3.67200	-15
3.67567	-13
3.67933	-11
3.68300	-10
3.68667	-9
3.69033	-6
3.69400	-2
3.69767	1
3.70133	-2
3.70500	-8
3.70867	-13
3.71233	-15
3.71600	-18
3.71967	-21
3.72333	-25
3.72700	-30
3.73067	-34
3.73433	-35
3.73800	-34
3.74167	-34
3.74533	-37
3.74900	-38
3.75267	-35
3.75633	-29
3.76000	-22
3.76367	-21
3.76733	-24
3.77100	-27
3.77467	-28
3.77833	-29
3.78200	-28
3.78567	-23
3.78933	-17
3.79300	-12
3.79667	-9
3.80033	-11
3.80400	-14
3.80767	-19
3.81133	-25
3.81500	-31
3.81867	-35
3.82233	-35
3.82600	-33
3.82967	-33
3.83333	-34
3.83700	-35
3.84067	-35
3.84433	-32
3.84800	-29
3.85167	-30
3.85533	-34
3.85900	-40
3.86267	-45
3.86633	-46
3.87000	-47
3.87367	-48
3.87733	-48
3.88100	-49
3.88467	-51
3.88833	-54
3.89200	-58
3.89567	-64
3.89933	-67
3.90300	-64
3.90667	-61
3.91033	-59
3.91400	-60
3.91767	-58
3.92133	-55
3.92500	-52
3.92867	-50
3.93233	-48
3.93600	-47
3.93967	-48
3.94333	-53
3.94700	-58
3.95067	-62
3.95433	-61
3.95800	-55
3.96167	-49
3.96533	-47
3.96900	-49
3.97267	-54
3.97633	-59
3.98000	-63
3.98367	-62
3.98733	-58
3.99100	-55
3.99467	-53
3.99833	-53

[Chromatogram (Ch2)]
Interval(msec)	220
# of Points	1091
Start Time(min)	0.002
End Time(min)	3.998
R.Time (min)	Intensity
0.00167	-0
0.00533	-0
0.00900	-0
0.01267	-0
0.01633	-0
0.02000	-0
0.02367	-0
0.02733	0
0.03100	0
0.03467	1
0.03833	1
0.04200	1
0.04567	1
0.04933	1
0.05300	1
0.05667	1
0.06033	1
0.06400	1
0.06767	1
0.07133	1
0.07500	1
0.07867	0
0.08233	0
0.08600	0
0.08967	0
0.09333	0
0.09700	0
0.10067	0
0.10433	0
0.10800	1
0.11167	1
0.11533	1
0.11900	1
0.12267	1
0.12633	2
0.13000	2
0.13367	2
0.13733	2
0.14100	2
0.14467	2
0.14833	2
0.15200	2
0.15567	1
0.15933	1
0.16300	1
0.16667	1
0.17033	1
0.17400	1
0.17767	0
0.18133	0
0.18500	0
0.18867	0
0.19233	0
0.19600	0
0.19967	0
0.20333	-0
0.20700	-0
0.21067	-1
0.21433	-1
0.21800	-1
0.22167	-0
0.22533	-0
0.22900	-0
0.23267	-0
0.23633	-0
0.24000	-0
0.24367	-0
0.24733	-0
0.25100	-0
0.25467	-0
0.25833	-0
0.26200	-0
0.26567	-0
0.26933	0
0.27300	0
0.27667	0
0.28033	0
0.28400	0
0.28767	-0
0.29133	-0
0.29500	-1
0.29867	-1
0.30233	-1
0.30600	-0
0.30967	-0
0.31333	-0
0.31700	-0
0.32067	-0
0.32433	-0
0.32800	-0
0.33167	-0
0.33533	-0
0.33900	-1
0.34267	-1
0.34633	-1
0.35000	-1
0.35367	-1
0.35733	-1
0.36100	-1
0.36467	-1
0.36833	-1
0.37200	-1
0.37567	-2
0.37933	-2
0.38300	-2
0.38667	-2
0.39033	-2
0.39400	-2
0.39767	-1
0.40133	-1
0.40500	-1
0.40867	-1
0.41233	-1
0.41600	-1
0.41967	-1
0.42333	-1
0.42700	-1
0.43067	-1
0.43433	-1
0.43800	-1
0.44167	-1
0.44533	-1
0.44900	-1
0.45267	-1
0.45633	-1
0.46000	-1
0.46367	-1
0.46733	-1
0.47100	-1
0.47467	-1
0.47833	-1
0.48200	-1
0.48567	-1
0.48933	-1
0.49300	-1
0.49667	-1
0.50033	-1
0.50400	-0
0.50767	-0
0.51133	0
0.51500	-0
0.51867	-0
0.52233	-0
0.52600	-1
0.52967	-1
0.53333	-2
0.53700	-2
0.54067	-2
0.54433	-2
0.54800	-2
0.55167	-2
0.55533	-2
0.55900	-2
0.56267	-2
0.56633	-2
0.57000	-2
0.57367	-2
0.57733	-2
0.58100	-3
0.58467	-3
0.58833	-3
0.59200	-3
0.59567	-3
0.59933	-3
0.60300	-3
0.60667	-2
0.61033	-2
0.61400	-2
0.61767	-2
0.62133	-2
0.62500	-2
0.62867	-2
0.63233	-2
0.63600	-1
0.63967	-1
0.64333	-1
0.64700	-1
0.65067	-1
0.65433	-1
0.65800	-1
0.66167	-1
0.66533	-1
0.66900	-1
0.67267	-1
0.67633	-1
0.68000	-1
0.68367	-1
0.68733	-1
0.69100	-0
0.69467	-0
0.69833	-0
0.70200	-0
0.70567	-0
0.70933	-0
0.71300	-0
0.71667	-0
0.72033	-1
0.72400	-1
0.72767	-1
0.73133	-1
0.73500	-1
0.73867	-1
0.74233	-2
0.74600	-2
0.74967	-2
0.75333	-2
0.75700	-2
0.76067	-2
0.76433	-2
0.76800	-2
0.77167	-2
0.77533	-2
0.77900	-2
0.78267	-2
0.78633	-1
0.79000	-1
0.79367	-1
0.79733	-1
0.80100	-1
0.80467	-0
0.80833	-0
0.81200	0
0.81567	0
0.81933	0
0.82300	0
0.82667	0
0.83033	-0
0.83400	-0
0.83767	-0
0.84133	-0
0.84500	-0
0.84867	-1
0.85233	-1
0.85600	-1
0.85967	-1
0.86333	-1
0.86700	-1
0.87067	-1
0.87433	-1
0.87800	-1
0.88167	-1
0.88533	-1
0.88900	-2
0.89267	-2
0.89633	-2
0.90000	-2
0.90367	-2
0.90733	-2
0.91100	-2
0.91467	-3
0.91833	-3
0.92200	-3
0.92567	-3
0.92933	-3
0.93300	-4
0.93667	-4
0.94033	-4
0.94400	-3
0.94767	-3
0.95133	-3
0.95500	-3
0.95867	-3
0.96233	-2
0.96600	-2
0.96967	-2
0.97333	-2
0.97700	-2
0.98067	-2
0.98433	-2
0.98800	-2
0.99167	-2
0.99533	-2
0.99900	-2
1.00267	-2
1.00633	-2
1.01000	-2
1.01367	-1
1.01733	-1
1.02100	-1
1.02467	-1
1.02833	-1
1.03200	-1
1.03567	-1
1.03933	-1
1.04300	-1
1.04667	-1
1.05033	-1
1.05400	-1
1.05767	-1
1.06133	-1
1.06500	-2
1.06867	-2
1.07233	-2
1.07600	-2
1.07967	-2
1.08333	-2
1.08700	-2
1.09067	-2
1.09433	-2
1.09800	-2
1.10167	-2
1.10533	-2
1.10900	-2
1.11267	-2
1.11633	-1
1.12000	-2
1.12367	-2
1.12733	-2
1.13100	-2
1.13467	-2
1.13833	-2
1.14200	-2
1.14567	-3
1.14933	-3
1.15300	-3
1.15667	-2
1.16033	-2
1.16400	-2
1.16767	-2
1.17133	-2
1.17500	-2
1.17867	-2
1.18233	-2
1.18600	-2
1.18967	-2
1.19333	-2
1.19700	-2
1.20067	-2
1.20433	-2
1.20800	-1
1.21167	-1
1.21533	-1
1.21900	-1
1.22267	-1
1.22633	-1
1.23000	-1
1.23367	-1
1.23733	-1
1.24100	-1
1.24467	-1
1.24833	-1
1.25200	-1
1.25567	-1
1.25933	-1
1.26300	-1
1.26667	-1
1.27033	-1
1.27400	-1
1.27767	-1
1.28133	-1
1.28500	-1
1.28867	-1
1.29233	-1
1.29600	-2
1.29967	-2
1.30333	-2
1.30700	-2
1.31067	-2
1.31433	-2
1.31800	-2
1.32167	-2
1.32533	-2
1.32900	-2
1.33267	-2
1.33633	-2
1.34000	-2
1.34367	-1
1.34733	-1
1.35100	-1
1.35467	-1
1.35833	-1
1.36200	-1
1.36567	-2
1.36933	-2
1.37300	-2
1.37667	-1
1.38033	-1
1.38400	-1
1.38767	-1
1.39133	-1
1.39500	-2
1.39867	-2
1.40233	-2
1.40600	-2
1.40967	-2
1.41333	-2
1.41700	-2
1.42067	-3
1.42433	-3
1.42800	-3
1.43167	-3
1.43533	-3
1.43900	-3
1.44267	-3
1.44633	-3
1.45000	-3
1.45367	-3
1.45733	-4
1.46100	-4
1.46467	-4
1.46833	-3
1.47200	-3
1.47567	-3
1.47933	-3
1.48300	-2
1.48667	-2
1.49033	-2
1.49400	-2
1.49767	-2
1.50133	-2
1.50500	-2
1.50867	-2
1.51233	-2
1.51600	-2
1.51967	-2
1.52333	-2
1.52700	-2
1.53067	-2
1.53433	-2
1.53800	-2
1.54167	-2
1.54533	-2
1.54900	-2
1.55267	-2
1.55633	-2
1.56000	-2
1.56367	-2
1.56733	-3
1.57100	-3
1.57467	-3
1.57833	-3
1.58200	-3
1.58567	-3
1.58933	-3
1.59300	-3
1.59667	-3
1.60033	-4
1.60400	-5
1.60767	-6
1.61133	-7
1.61500	-9
1.61867	-11
1.62233	-13
1.62600	-15
1.62967	-18
1.63333	-21
1.63700	-24
1.64067	-28
1.64433	-32
1.64800	-35
1.65167	-39
1.65533	-42
1.65900	-46
1.66267	-50
1.66633	-55
1.67000	-59
1.67367	-65
1.67733	-70
1.68100	-75
1.68467	-80
1.68833	-85
1.69200	-90
1.69567	-93
1.69933	-97
1.70300	-99
1.70667	-102
1.71033	-104
1.71400	-105
1.71767	-107
1.72133	-108
1.72500	-109
1.72867	-110
1.73233	-111
1.73600	-112
1.73967	-112
1.74333	-113
1.74700	-113
1.75067	-114
1.75433	-114
1.75800	-115
1.76167	-116
1.76533	-117
1.76900	-117
1.77267	-118
1.77633	-119
1.78000	-119
1.78367	-118
1.78733	-118
1.79100	-117
1.79467	-117
1.79833	-116
1.80200	-116
1.80567	-117
1.80933	-117
1.81300	-117
1.81667	-118
1.82033	-118
1.82400	-119
1.82767	-119
1.83133	-119
1.83500	-119
1.83867	-119
1.84233	-119
1.84600	-119
1.84967	-119
1.85333	-120
1.85700	-119
1.86067	-119
1.86433	-119
1.86800	-119
1.87167	-119
1.87533	-119
1.87900	-119
1.88267	-119
1.88633	-119
1.89000	-119
1.89367	-119
1.89733	-120
1.90100	-120
1.90467	-121
1.90833	-121
1.91200	-121
1.91567	-120
1.91933	-120
1.92300	-119
1.92667	-119
1.93033	-119
1.93400	-118
1.93767	-118
1.94133	-118
1.94500	-117
1.94867	-117
1.95233	-117
1.95600	-117
1.95967	-117
1.96333	-116
1.96700	-116
1.97067	-116
1.97433	-115
1.97800	-115
1.98167	-115
1.98533	-114
1.98900	-114
1.99267	-114
1.99633	-114
2.00000	-114
2.00367	-113
2.00733	-113
2.01100	-113
2.01467	-112
2.01833	-112
2.02200	-112
2.02567	-111
2.02933	-111
2.03300	-110
2.03667	-110
2.04033	-109
2.04400	-109
2.04767	-109
2.05133	-108
2.05500	-108
2.05867	-107
2.06233	-107
2.06600	-106
2.06967	-106
2.07333	-105
2.07700	-105
2.08067	-105
2.08433	-105
2.08800	-105
2.09167	-105
2.09533	-105
2.09900	-104
2.10267	-104
2.10633	-104
2.11000	-104
2.11367	-103
2.11733	-103
2.12100	-102
2.12467	-102
2.12833	-102
2.13200	-102
2.13567	-102
2.13933	-102
2.14300	-102
2.14667	-102
2.15033	-101
2.15400	-101
2.15767	-100
2.16133	-99
2.16500	-99
2.16867	-99
2.17233	-99
2.17600	-100
2.17967	-100
2.18333	-100
2.18700	-100
2.19067	-100
2.19433	-99
2.19800	-99
2.20167	-99
2.20533	-99
2.20900	-99
2.21267	-99
2.21633	-99
2.22000	-99
2.22367	-99
2.22733	-99
2.23100	-98
2.23467	-97
2.23833	-96
2.24200	-96
2.24567	-95
2.24933	-94
2.25300	-93
2.25667	-93
2.26033	-93
2.26400	-93
2.26767	-92
2.27133	-92
2.27500	-92
2.27867	-91
2.28233	-90
2.28600	-90
2.28967	-89
2.29333	-89
2.29700	-89
2.30067	-89
2.30433	-89
2.30800	-88
2.31167	-88
2.31533	-87
2.31900	-86
2.32267	-86
2.32633	-86
2.33000	-86
2.33367	-85
2.33733	-85
2.34100	-84
2.34467	-83
2.34833	-82
2.35200	-82
2.35567	-81
2.35933	-81
2.36300	-81
2.36667	-81
2.37033	-81
2.37400	-80
2.37767	-78
2.38133	-76
2.38500	-74
2.38867	-71
2.39233	-67
2.39600	-63
2.39967	-59
2.40333	-54
2.40700	-50
2.41067	-45
2.41433	-41
2.41800	-37
2.42167	-33
2.42533	-30
2.42900	-27
2.43267	-24
2.43633	-22
2.44000	-19
2.44367	-17
2.44733	-15
2.45100	-13
2.45467	-11
2.45833	-9
2.46200	-7
2.46567	-5
2.46933	-3
2.47300	-1
2.47667	-0
2.48033	1
2.48400	2
2.48767	2
2.49133	3
2.49500	3
2.49867	4
2.50233	4
2.50600	5
2.50967	6
2.51333	7
2.51700	8
2.52067	8
2.52433	9
2.52800	9
2.53167	9
2.53533	10
2.53900	11
2.54267	12
2.54633	12
2.55000	13
2.55367	14
2.55733	15
2.56100	15
2.56467	16
2.56833	16
2.57200	16
2.57567	16
2.57933	16
2.58300	16
2.58667	17
2.59033	17
2.59400	17
2.59767	17
2.60133	17
2.60500	17
2.60867	17
2.61233	17
2.61600	17
2.61967	17
2.62333	17
2.62700	16
2.63067	17
2.63433	17
2.63800	17
2.64167	17
2.64533	17
2.64900	18
2.65267	18
2.65633	18
2.66000	19
2.66367	19
2.66733	19
2.67100	19
2.67467	19
2.67833	19
2.68200	19
2.68567	19
2.68933	19
2.69300	20
2.69667	20
2.70033	20
2.70400	21
2.70767	21
2.71133	22
2.71500	23
2.71867	23
2.72233	24
2.72600	24
2.72967	24
2.73333	23
2.73700	23
2.74067	22
2.74433	22
2.74800	22
2.75167	22
2.75533	22
2.75900	22
2.76267	23
2.76633	23
2.77000	23
2.77367	24
2.77733	24
2.78100	24
2.78467	25
2.78833	25
2.79200	25
2.79567	25
2.79933	25
2.80300	25
2.80667	25
2.81033	25
2.81400	25
2.81767	25
2.82133	25
2.82500	25
2.82867	24
2.83233	24
2.83600	24
2.83967	23
2.84333	23
2.84700	23
2.85067	23
2.85433	22
2.85800	20
2.86167	17
2.86533	13
2.86900	5
2.87267	-5
2.87633	-18
2.88000	-36
2.88367	-57
2.88733	-83
2.89100	-112
2.89467	-144
2.89833	-181
2.90200	-220
2.90567	-262
2.90933	-306
2.91300	-352
2.91667	-401
2.92033	-450
2.92400	-499
2.92767	-549
2.93133	-599
2.93500	-649
2.93867	-699
2.94233	-748
2.94600	-797
2.94967	-848
2.95333	-904
2.95700	-965
2.96067	-1024
2.96433	-1072
2.96800	-1098
2.97167	-1097
2.97533	-1071
2.97900	-1024
2.98267	-960
2.98633	-886
2.99000	-806
2.99367	-726
2.99733	-647
3.00100	-572
3.00467	-502
3.00833	-438
3.01200	-381
3.01567	-329
3.01933	-283
3.02300	-242
3.02667	-207
3.03033	-176
3.03400	-149
3.03767	-126
3.04133	-106
3.04500	-89
3.04867	-74
3.05233	-62
3.05600	-51
3.05967	-42
3.06333	-34
3.06700	-27
3.07067	-21
3.07433	-16
3.07800	-11
3.08167	-8
3.08533	-5
3.08900	-2
3.09267	-0
3.09633	2
3.10000	3
3.10367	5
3.10733	6
3.11100	7
3.11467	8
3.11833	9
3.12200	10
3.12567	11
3.12933	11
3.13300	12
3.13667	12
3.14033	13
3.14400	13
3.14767	14
3.15133	14
3.15500	15
3.15867	15
3.16233	15
3.16600	15
3.16967	15
3.17333	15
3.17700	16
3.18067	16
3.18433	16
3.18800	16
3.19167	17
3.19533	17
3.19900	17
3.20267	17
3.20633	17
3.21000	18
3.21367	18
3.21733	18
3.22100	18
3.22467	18
3.22833	19
3.23200	19
3.23567	19
3.23933	19
3.24300	19
3.24667	19
3.25033	19
3.25400	20
3.25767	20
3.26133	20
3.26500	20
3.26867	20
3.27233	19
3.27600	19
3.27967	19
3.28333	19
3.28700	19
3.29067	20
3.29433	20
3.29800	20
3.30167	20
3.30533	21
3.30900	21
3.31267	21
3.31633	22
3.32000	22
3.32367	23
3.32733	23
3.33100	24
3.33467	24
3.33833	24
3.34200	25
3.34567	25
3.34933	25
3.35300	25
3.35667	25
3.36033	25
3.36400	26
3.36767	26
3.37133	26
3.37500	26
3.37867	26
3.38233	26
3.38600	26
3.38967	26
3.39333	26
3.39700	26
3.40067	26
3.40433	26
3.40800	26
3.41167	26
3.41533	26
3.41900	26
3.42267	26
3.42633	26
3.43000	26
3.43367	26
3.43733	26
3.44100	26
3.44467	25
3.44833	25
3.45200	25
3.45567	25
3.45933	25
3.46300	25
3.46667	25
3.47033	26
3.47400	26
3.47767	26
3.48133	26
3.48500	26
3.48867	26
3.49233	26
3.49600	26
3.49967	25
3.50333	25
3.50700	25
3.51067	25
3.51433	25
3.51800	25
3.52167	25
3.52533	25
3.52900	25
3.53267	25
3.53633	25
3.54000	25
3.54367	25
3.54733	25
3.55100	25
3.55467	25
3.55833	24
3.56200	24
3.56567	24
3.56933	24
3.57300	24
3.57667	24
3.58033	24
3.58400	24
3.58767	24
3.59133	24
3.59500	24
3.59867	24
3.60233	25
3.60600	25
3.60967	25
3.61333	25
3.61700	25
3.62067	25
3.62433	25
3.62800	25
3.63167	25
3.63533	25
3.63900	25
3.64267	25
3.64633	24
3.65000	24
3.65367	24
3.65733	24
3.66100	24
3.66467	24
3.66833	24
3.67200	24
3.67567	24
3.67933	24
3.68300	24
3.68667	24
3.69033	24
3.69400	24
3.69767	24
3.70133	24
3.70500	24
3.70867	24
3.71233	24
3.71600	24
3.71967	24
3.72333	24
3.72700	24
3.73067	24
3.73433	24
3.73800	24
3.74167	24
3.74533	24
3.74900	24
3.75267	23
3.75633	23
3.76000	23
3.76367	23
3.76733	23
3.77100	24
3.77467	24
3.77833	24
3.78200	24
3.78567	24
3.78933	24
3.79300	24
3.79667	24
3.80033	24
3.80400	24
3.80767	24
3.81133	24
3.81500	24
3.81867	24
3.82233	24
3.82600	24
3.82967	25
3.83333	25
3.83700	25
3.84067	25
3.84433	25
3.84800	25
3.85167	25
3.85533	25
3.85900	25
3.86267	25
3.86633	25
3.87000	25
3.87367	25
3.87733	25
3.88100	25
3.88467	25
3.88833	25
3.89200	25
3.89567	25
3.89933	25
3.90300	25
3.90667	26
3.91033	26
3.91400	26
3.91767	26
3.92133	26
3.92500	25
3.92867	25
3.93233	25
3.93600	25
3.93967	25
3.94333	25
3.94700	25
3.95067	25
3.95433	25
3.95800	25
3.96167	25
3.96533	25
3.96900	25
3.97267	26
3.97633	26
3.98000	26
3.98367	26
3.98733	26
3.99100	26
3.99467	25
3.99833	25

[Chromatogram (Ch3)]
Interval(msec)	220
# of Points	1091
Start Time(min)	0.002
End Time(min)	3.998
R.Time (min)	Intensity
0.00167	0
0.00533	-0
0.00900	-0
0.01267	2
0.01633	3
0.02000	2
0.02367	0
0.02733	-1
0.03100	-2
0.03467	-2
0.03833	0
0.04200	1
0.04567	0
0.04933	0
0.05300	0
0.05667	0
0.06033	-0
0.06400	-0
0.06767	0
0.07133	-0
0.07500	-1
0.07867	-0
0.08233	-1
0.08600	-3
0.08967	-1
0.09333	-1
0.09700	-1
0.10067	1
0.10433	1
0.10800	3
0.11167	4
0.11533	4
0.11900	3
0.12267	2
0.12633	2
0.13000	0
0.13367	-1
0.13733	-2
0.14100	-3
0.14467	-2
0.14833	-1
0.15200	-0
0.15567	1
0.15933	2
0.16300	2
0.16667	2
0.17033	3
0.17400	2
0.17767	3
0.18133	6
0.18500	7
0.18867	7
0.19233	6
0.19600	3
0.19967	1
0.20333	-1
0.20700	1
0.21067	1
0.21433	-1
0.21800	-3
0.22167	-0
0.22533	1
0.22900	-1
0.23267	-1
0.23633	-2
0.24000	-2
0.24367	-2
0.24733	-4
0.25100	-1
0.25467	2
0.25833	3
0.26200	3
0.26567	3
0.26933	4
0.27300	4
0.27667	2
0.28033	0
0.28400	2
0.28767	3
0.29133	0
0.29500	-1
0.29867	2
0.30233	4
0.30600	4
0.30967	4
0.31333	3
0.31700	2
0.32067	4
0.32433	5
0.32800	9
0.33167	9
0.33533	9
0.33900	7
0.34267	6
0.34633	7
0.35000	8
0.35367	7
0.35733	5
0.36100	3
0.36467	1
0.36833	-1
0.37200	1
0.37567	2
0.37933	2
0.38300	3
0.38667	2
0.39033	1
0.39400	2
0.39767	2
0.40133	1
0.40500	1
0.40867	2
0.41233	5
0.41600	6
0.41967	7
0.42333	5
0.42700	4
0.43067	3
0.43433	3
0.43800	2
0.44167	3
0.44533	7
0.44900	8
0.45267	9
0.45633	10
0.46000	10
0.46367	8
0.46733	8
0.47100	8
0.47467	8
0.47833	6
0.48200	4
0.48567	4
0.48933	4
0.49300	6
0.49667	8
0.50033	8
0.50400	8
0.50767	6
0.51133	4
0.51500	4
0.51867	6
0.52233	7
0.52600	7
0.52967	4
0.53333	3
0.53700	4
0.54067	4
0.54433	4
0.54800	2
0.55167	0
0.55533	-1
0.55900	1
0.56267	2
0.56633	4
0.57000	6
0.57367	4
0.57733	0
0.58100	-1
0.58467	-1
0.58833	-0
0.59200	3
0.59567	7
0.59933	10
0.60300	9
0.60667	8
0.61033	10
0.61400	12
0.61767	11
0.62133	10
0.62500	7
0.62867	8
0.63233	6
0.63600	5
0.63967	3
0.64333	2
0.64700	4
0.65067	5
0.65433	7
0.65800	6
0.66167	3
0.66533	3
0.66900	5
0.67267	7
0.67633	5
0.68000	1
0.68367	-1
0.68733	-1
0.69100	1
0.69467	3
0.69833	6
0.70200	10
0.70567	11
0.70933	11
0.71300	8
0.71667	7
0.72033	5
0.72400	3
0.72767	3
0.73133	3
0.73500	1
0.73867	2
0.74233	4
0.74600	7
0.74967	7
0.75333	6
0.75700	5
0.76067	6
0.76433	9
0.76800	10
0.77167	8
0.77533	6
0.77900	6
0.78267	7
0.78633	7
0.79000	8
0.79367	10
0.79733	7
0.80100	5
0.80467	6
0.80833	8
0.81200	9
0.81567	8
0.81933	9
0.82300	11
0.82667	11
0.83033	10
0.83400	9
0.83767	7
0.84133	6
0.84500	6
0.84867	5
0.85233	2
0.85600	0
0.85967	1
0.86333	4
0.86700	5
0.87067	7
0.87433	8
0.87800	11
0.88167	11
0.88533	11
0.88900	11
0.89267	9
0.89633	10
0.90000	13
0.90367	11
0.90733	9
0.91100	7
0.91467	8
0.91833	7
0.92200	6
0.92567	7
0.92933	8
0.93300	7
0.93667	8
0.94033	11
0.94400	12
0.94767	12
0.95133	9
0.95500	8
0.95867	7
0.96233	8
0.96600	9
0.96967	10
0.97333	8
0.97700	5
0.98067	3
0.98433	3
0.98800	5
0.99167	7
0.99533	7
0.99900	6
1.00267	8
1.00633	9
1.01000	9
1.01367	7
1.01733	4
1.02100	2
1.02467	3
1.02833	4
1.03200	5
1.03567	7
1.03933	7
1.04300	6
1.04667	6
1.05033	4
1.05400	3
1.05767	5
1.06133	7
1.06500	6
1.06867	4
1.07233	6
1.07600	7
1.07967	7
1.08333	8
1.08700	8
1.09067	10
1.09433	12
1.09800	13
1.10167	12
1.10533	12
1.10900	12
1.11267	10
1.11633	7
1.12000	5
1.12367	3
1.12733	2
1.13100	2
1.13467	2
1.13833	3
1.14200	5
1.14567	7
1.14933	8
1.15300	10
1.15667	12
1.16033	11
1.16400	10
1.16767	10
1.17133	9
1.17500	5
1.17867	1
1.18233	0
1.18600	0
1.18967	3
1.19333	5
1.19700	6
1.20067	6
1.20433	4
1.20800	4
1.21167	3
1.21533	1
1.21900	-1
1.22267	0
1.22633	2
1.23000	3
1.23367	3
1.23733	2
1.24100	-0
1.24467	-1
1.24833	-2
1.25200	-2
1.25567	-2
1.25933	-1
1.26300	2
1.26667	3
1.27033	5
1.27400	7
1.27767	8
1.28133	9
1.28500	10
1.28867	9
1.29233	7
1.29600	6
1.29967	5
1.30333	3
1.30700	2
1.31067	2
1.31433	1
1.31800	2
1.32167	2
1.32533	1
1.32900	-3
1.33267	-4
1.33633	-1
1.34000	2
1.34367	4
1.34733	5
1.35100	4
1.35467	2
1.35833	0
1.36200	1
1.36567	-1
1.36933	0
1.37300	3
1.37667	5
1.38033	7
1.38400	10
1.38767	11
1.39133	11
1.39500	10
1.39867	9
1.40233	8
1.40600	8
1.40967	10
1.41333	12
1.41700	11
1.42067	8
1.42433	7
1.42800	6
1.43167	5
1.43533	5
1.43900	4
1.44267	5
1.44633	6
1.45000	7
1.45367	9
1.45733	9
1.46100	7
1.46467	8
1.46833	11
1.47200	12
1.47567	10
1.47933	9
1.48300	8
1.48667	8
1.49033	10
1.49400	11
1.49767	11
1.50133	10
1.50500	10
1.50867	8
1.51233	8
1.51600	9
1.51967	9
1.52333	8
1.52700	8
1.53067	9
1.53433	6
1.53800	3
1.54167	2
1.54533	2
1.54900	3
1.55267	2
1.55633	4
1.56000	3
1.56367	2
1.56733	4
1.57100	7
1.57467	7
1.57833	4
1.58200	2
1.58567	1
1.58933	3
1.59300	5
1.59667	5
1.60033	6
1.60400	7
1.60767	8
1.61133	9
1.61500	10
1.61867	11
1.62233	12
1.62600	13
1.62967	15
1.63333	15
1.63700	14
1.64067	12
1.64433	11
1.64800	11
1.65167	14
1.65533	14
1.65900	12
1.66267	11
1.66633	15
1.67000	18
1.67367	20
1.67733	23
1.68100	21
1.68467	20
1.68833	21
1.69200	22
1.69567	24
1.69933	25
1.70300	25
1.70667	24
1.71033	25
1.71400	24
1.71767	23
1.72133	23
1.72500	24
1.72867	27
1.73233	29
1.73600	31
1.73967	35
1.74333	38
1.74700	41
1.75067	42
1.75433	40
1.75800	40
1.76167	39
1.76533	40
1.76900	41
1.77267	40
1.77633	36
1.78000	35
1.78367	39
1.78733	41
1.79100	42
1.79467	42
1.79833	40
1.80200	38
1.80567	38
1.80933	41
1.81300	43
1.81667	43
1.82033	42
1.82400	44
1.82767	46
1.83133	46
1.83500	47
1.83867	47
1.84233	46
1.84600	46
1.84967	44
1.85333	42
1.85700	44
1.86067	46
1.86433	47
1.86800	50
1.87167	52
1.87533	55
1.87900	58
1.88267	59
1.88633	59
1.89000	63
1.89367	65
1.89733	63
1.90100	61
1.90467	60
1.90833	61
1.91200	61
1.91567	61
1.91933	60
1.92300	58
1.92667	59
1.93033	64
1.93400	69
1.93767	71
1.94133	71
1.94500	72
1.94867	73
1.95233	75
1.95600	74
1.95967	74
1.96333	77
1.96700	81
1.97067	83
1.97433	84
1.97800	84
1.98167	83
1.98533	82
1.98900	81
1.99267	83
1.99633	85
2.00000	85
2.00367	84
2.00733	83
2.01100	83
2.01467	85
2.01833	87
2.02200	90
2.02567	91
2.02933	93
2.03300	96
2.03667	98
2.04033	99
2.04400	100
2.04767	102
2.05133	104
2.05500	104
2.05867	104
2.06233	106
2.06600	109
2.06967	111
2.07333	111
2.07700	110
2.08067	110
2.08433	111
2.08800	113
2.09167	114
2.09533	114
2.09900	115
2.10267	116
2.10633	119
2.11000	120
2.11367	121
2.11733	123
2.12100	122
2.12467	123
2.12833	127
2.13200	130
2.13567	132
2.13933	133
2.14300	135
2.14667	138
2.15033	141
2.15400	146
2.15767	150
2.16133	153
2.16500	152
2.16867	151
2.17233	152
2.17600	152
2.17967	152
2.18333	152
2.18700	153
2.19067	154
2.19433	156
2.19800	157
2.20167	158
2.20533	160
2.20900	163
2.21267	166
2.21633	167
2.22000	168
2.22367	171
2.22733	174
2.23100	178
2.23467	180
2.23833	181
2.24200	181
2.24567	183
2.24933	184
2.25300	183
2.25667	184
2.26033	187
2.26400	187
2.26767	187
2.27133	190
2.27500	192
2.27867	192
2.28233	193
2.28600	193
2.28967	192
2.29333	191
2.29700	193
2.30067	194
2.30433	195
2.30800	198
2.31167	203
2.31533	204
2.31900	204
2.32267	204
2.32633	204
2.33000	205
2.33367	209
2.33733	213
2.34100	215
2.34467	216
2.34833	217
2.35200	218
2.35567	217
2.35933	214
2.36300	215
2.36667	218
2.37033	222
2.37400	227
2.37767	231
2.38133	234
2.38500	236
2.38867	239
2.39233	240
2.39600	240
2.39967	240
2.40333	242
2.40700	242
2.41067	243
2.41433	245
2.41800	248
2.42167	250
2.42533	251
2.42900	255
2.43267	259
2.43633	259
2.44000	259
2.44367	272
2.44733	306
2.45100	343
2.45467	367
2.45833	375
2.46200	369
2.46567	360
2.46933	355
2.47300	348
2.47667	337
2.48033	322
2.48400	305
2.48767	289
2.49133	273
2.49500	262
2.49867	260
2.50233	275
2.50600	308
2.50967	354
2.51333	405
2.51700	452
2.52067	494
2.52433	534
2.52800	567
2.53167	602
2.53533	636
2.53900	667
2.54267	700
2.54633	730
2.55000	758
2.55367	787
2.55733	813
2.56100	836
2.56467	857
2.56833	875
2.57200	890
2.57567	906
2.57933	920
2.58300	929
2.58667	936
2.59033	943
2.59400	948
2.59767	951
2.60133	950
2.60500	945
2.60867	937
2.61233	925
2.61600	908
2.61967	884
2.62333	858
2.62700	833
2.63067	806
2.63433	778
2.63800	755
2.64167	738
2.64533	724
2.64900	713
2.65267	707
2.65633	704
2.66000	704
2.66367	706
2.66733	710
2.67100	712
2.67467	716
2.67833	721
2.68200	725
2.68567	728
2.68933	731
2.69300	732
2.69667	731
2.70033	728
2.70400	727
2.70767	726
2.71133	724
2.71500	722
2.71867	720
2.72233	720
2.72600	719
2.72967	715
2.73333	711
2.73700	707
2.74067	703
2.74433	699
2.74800	699
2.75167	695
2.75533	688
2.75900	681
2.76267	675
2.76633	668
2.77000	666
2.77367	665
2.77733	664
2.78100	660
2.78467	656
2.78833	653
2.79200	650
2.79567	647
2.79933	643
2.80300	642
2.80667	640
2.81033	639
2.81400	637
2.81767	634
2.82133	631
2.82500	629
2.82867	629
2.83233	636
2.83600	653
2.83967	691
2.84333	766
2.84700	903
2.85067	1121
2.85433	1440
2.85800	1865
2.86167	2379
2.86533	2954
2.86900	3550
2.87267	4116
2.87633	4605
2.88000	4980
2.88367	5222
2.88733	5317
2.89100	5277
2.89467	5120
2.89833	4874
2.90200	4569
2.90567	4230
2.90933	3879
2.91300	3533
2.91667	3202
2.92033	2895
2.92400	2614
2.92767	2360
2.93133	2131
2.93500	1928
2.93867	1750
2.94233	1597
2.94600	1463
2.94967	1342
2.95333	1238
2.95700	1148
2.96067	1070
2.96433	1005
2.96800	949
2.97167	901
2.97533	858
2.97900	818
2.98267	783
2.98633	751
2.99000	725
2.99367	701
2.99733	683
3.00100	669
3.00467	655
3.00833	643
3.01200	630
3.01567	619
3.01933	612
3.02300	605
3.02667	599
3.03033	592
3.03400	588
3.03767	582
3.04133	579
3.04500	575
3.04867	571
3.05233	566
3.05600	562
3.05967	560
3.06333	560
3.06700	557
3.07067	553
3.07433	548
3.07800	545
3.08167	540
3.08533	535
3.08900	529
3.09267	524
3.09633	521
3.10000	518
3.10367	517
3.10733	514
3.11100	510
3.11467	507
3.11833	502
3.12200	495
3.12567	492
3.12933	491
3.13300	488
3.13667	485
3.14033	483
3.14400	484
3.14767	483
3.15133	482
3.15500	479
3.15867	474
3.16233	470
3.16600	467
3.16967	463
3.17333	459
3.17700	455
3.18067	451
3.18433	447
3.18800	444
3.19167	440
3.19533	437
3.19900	432
3.20267	428
3.20633	425
3.21000	422
3.21367	418
3.21733	412
3.22100	408
3.22467	405
3.22833	402
3.23200	399
3.23567	393
3.23933	390
3.24300	387
3.24667	385
3.25033	382
3.25400	379
3.25767	376
3.26133	373
3.26500	369
3.26867	364
3.27233	358
3.27600	353
3.27967	346
3.28333	342
3.28700	338
3.29067	332
3.29433	326
3.29800	320
3.30167	314
3.30533	309
3.30900	307
3.31267	304
3.31633	301
3.32000	298
3.32367	292
3.32733	286
3.33100	280
3.33467	274
3.33833	266
3.34200	260
3.34567	255
3.34933	252
3.35300	250
3.35667	247
3.36033	242
3.36400	236
3.36767	233
3.37133	233
3.37500	230
3.37867	226
3.38233	222
3.38600	218
3.38967	214
3.39333	212
3.39700	209
3.40067	207
3.40433	205
3.40800	202
3.41167	198
3.41533	192
3.41900	186
3.42267	181
3.42633	175
3.43000	169
3.43367	164
3.43733	157
3.44100	149
3.44467	142
3.44833	139
3.45200	135
3.45567	130
3.45933	126
3.46300	122
3.46667	119
3.47033	116
3.47400	111
3.47767	104
3.48133	101
3.48500	100
3.48867	100
3.49233	97
3.49600	91
3.49967	85
3.50333	79
3.50700	73
3.51067	71
3.51433	70
3.51800	69
3.52167	66
3.52533	60
3.52900	52
3.53267	46
3.53633	41
3.54000	38
3.54367	37
3.54733	37
3.55100	36
3.55467	33
3.55833	29
3.56200	25
3.56567	20
3.56933	14
3.57300	10
3.57667	8
3.58033	7
3.58400	3
3.58767	-0
3.59133	-4
3.59500	-7
3.59867	-10
3.60233	-11
3.60600	-12
3.60967	-12
3.61333	-13
3.61700	-17
3.62067	-19
3.62433	-20
3.62800	-20
3.63167	-22
3.63533	-25
3.63900	-28
3.64267	-33
3.64633	-36
3.65000	-39
3.65367	-42
3.65733	-44
3.66100	-43
3.66467	-45
3.66833	-46
3.67200	-45
3.67567	-45
3.67933	-47
3.68300	-51
3.68667	-57
3.69033	-59
3.69400	-60
3.69767	-61
3.70133	-62
3.70500	-64
3.70867	-66
3.71233	-70
3.71600	-68
3.71967	-68
3.72333	-71
3.72700	-73
3.73067	-75
3.73433	-76
3.73800	-75
3.74167	-76
3.74533	-76
3.74900	-75
3.75267	-76
3.75633	-78
3.76000	-80
3.76367	-81
3.76733	-83
3.77100	-85
3.77467	-84
3.77833	-84
3.78200	-86
3.78567	-87
3.78933	-88
3.79300	-87
3.79667	-88
3.80033	-87
3.80400	-87
3.80767	-88
3.81133	-87
3.81500	-86
3.81867	-87
3.82233	-87
3.82600	-90
3.82967	-91
3.83333	-90
3.83700	-89
3.84067	-89
3.84433	-87
3.84800	-85
3.85167	-86
3.85533	-86
3.85900	-86
3.86267	-84
3.86633	-81
3.87000	-77
3.87367	-76
3.87733	-77
3.88100	-79
3.88467	-80
3.88833	-79
3.89200	-76
3.89567	-76
3.89933	-76
3.90300	-76
3.90667	-77
3.91033	-75
3.91400	-74
3.91767	-73
3.92133	-71
3.92500	-67
3.92867	-66
3.93233	-65
3.93600	-64
3.93967	-63
3.94333	-65
3.94700	-67
3.95067	-66
3.95433	-64
3.95800	-63
3.96167	-60
3.96533	-58
3.96900	-54
3.97267	-52
3.97633	-51
3.98000	-52
3.98367	-52
3.98733	-50
3.99100	-50
3.99467	-51
3.99833	-50

[Status Trace (Column Oven Temperature)]
Interval(msec)	1000
# of Points	240
Start Time(min)	0.014
End Time(min)	3.997
Intensity Units	
Intensity Multiplier	1
R.Time (min)	Intensity
0.01408	35.00
0.03075	35.00
0.04742	34.99
0.06408	34.99
0.08075	35.00
0.09742	35.00
0.11408	35.00
0.13075	35.00
0.14742	34.99
0.16408	35.00
0.18075	35.01
0.19742	35.00
0.21408	35.01
0.23075	34.99
0.24742	35.00
0.26408	35.00
0.28075	35.00
0.29742	34.99
0.31408	34.99
0.33075	34.99
0.34742	34.99
0.36408	35.00
0.38075	34.99
0.39742	35.00
0.41408	34.99
0.43075	34.99
0.44742	34.99
0.46408	34.99
0.48075	34.99
0.49742	34.99
0.51408	34.99
0.53075	35.00
0.54742	35.00
0.56408	35.00
0.58075	35.00
0.59742	35.00
0.61408	35.00
0.63075	35.01
0.64742	35.00
0.66408	35.00
0.68075	35.00
0.69742	35.00
0.71408	35.00
0.73075	35.00
0.74742	35.01
0.76408	35.00
0.78075	35.00
0.79742	34.99
0.81408	35.00
0.83075	34.99
0.84742	34.99
0.86408	34.99
0.88075	35.01
0.89742	35.01
0.91408	35.01
0.93075	35.02
0.94742	35.02
0.96408	35.01
0.98075	35.01
0.99742	35.00
1.01408	35.00
1.03075	34.99
1.04742	34.98
1.06408	34.98
1.08075	34.99
1.09742	34.99
1.11408	34.99
1.13075	35.00
1.14742	35.00
1.16408	34.99
1.18075	35.00
1.19742	34.99
1.21408	34.99
1.23075	34.99
1.24742	34.98
1.26408	34.98
1.28075	34.99
1.29742	35.00
1.31408	34.99
1.33075	34.99
1.34742	34.99
1.36408	34.98
1.38075	34.99
1.39742	34.99
1.41408	34.99
1.43075	34.99
1.44742	35.00
1.46408	35.00
1.48075	35.00
1.49742	35.00
1.51408	35.01
1.53075	35.01
1.54742	35.01
1.56408	35.01
1.58075	35.01
1.59742	35.03
1.61408	35.10
1.63075	35.23
1.64742	35.43
1.66408	35.69
1.68075	36.06
1.69742	36.42
1.71408	36.76
1.73075	37.11
1.74742	37.43
1.76408	37.79
1.78075	38.11
1.79742	38.42
1.81408	38.76
1.83075	39.08
1.84742	39.42
1.86408	39.75
1.88075	40.07
1.89742	40.42
1.91408	40.74
1.93075	41.06
1.94742	41.40
1.96408	41.72
1.98075	42.04
1.99742	42.35
2.01408	42.69
2.03075	43.01
2.04742	43.33
2.06408	43.64
2.08075	43.97
2.09742	44.30
2.11408	44.61
2.13075	44.96
2.14742	45.27
2.16408	45.58
2.18075	45.94
2.19742	46.27
2.21408	46.61
2.23075	46.92
2.24742	47.24
2.26408	47.61
2.28075	47.91
2.29742	48.27
2.31408	48.59
2.33075	48.93
2.34742	49.23
2.36408	49.52
2.38075	49.69
2.39742	49.74
2.41408	49.73
2.43075	49.76
2.44742	49.76
2.46408	49.76
2.48075	49.76
2.49742	49.78
2.51408	49.78
2.53075	49.80
2.54742	49.80
2.56408	49.81
2.58075	49.81
2.59742	49.81
2.61408	49.81
2.63075	49.83
2.64742	49.83
2.66408	49.84
2.68075	49.85
2.69742	49.85
2.71408	49.84
2.73075	49.86
2.74742	49.87
2.76408	49.86
2.78075	49.85
2.79742	49.85
2.81408	49.86
2.83075	49.87
2.84742	49.89
2.86408	49.91
2.88075	49.92
2.89742	49.92
2.91408	49.92
2.93075	49.93
2.94742	49.94
2.96408	49.95
2.98075	49.97
2.99742	49.98
3.01408	49.99
3.03075	50.00
3.04742	50.01
3.06408	50.02
3.08075	50.02
3.09742	50.03
3.11408	50.03
3.13075	50.04
3.14742	50.05
3.16408	50.05
3.18075	50.06
3.19742	50.07
3.21408	50.07
3.23075	50.09
3.24742	50.09
3.26408	50.10
3.28075	50.11
3.29742	50.11
3.31408	50.10
3.33075	50.09
3.34742	50.07
3.36408	50.06
3.38075	50.05
3.39742	50.04
3.41408	50.04
3.43075	50.03
3.44742	50.03
3.46408	50.03
3.48075	50.03
3.49742	50.03
3.51408	50.04
3.53075	50.03
3.54742	50.04
3.56408	50.05
3.58075	50.05
3.59742	50.05
3.61408	50.05
3.63075	50.05
3.64742	50.05
3.66408	50.05
3.68075	50.05
3.69742	50.05
3.71408	50.06
3.73075	50.06
3.74742	50.07
3.76408	50.06
3.78075	50.07
3.79742	50.07
3.81408	50.07
3.83075	50.08
3.84742	50.07
3.86408	50.07
3.88075	50.07
3.89742	50.06
3.91408	50.06
3.93075	50.06
3.94742	50.06
3.96408	50.06
3.98075	50.07
3.99742	50.07

[Status Trace (Injection Unit Temperature)]
Interval(msec)	1000
# of Points	240
Start Time(min)	0.014
End Time(min)	3.997
Intensity Units	
Intensity Multiplier	1
R.Time (min)	Intensity
0.01408	99.99
0.03075	99.99
0.04742	99.99
0.06408	99.99
0.08075	99.99
0.09742	99.98
0.11408	99.99
0.13075	99.98
0.14742	99.98
0.16408	99.99
0.18075	99.98
0.19742	99.98
0.21408	99.98
0.23075	99.98
0.24742	99.98
0.26408	99.98
0.28075	99.98
0.29742	99.98
0.31408	99.98
0.33075	99.98
0.34742	99.98
0.36408	99.98
0.38075	99.98
0.39742	99.98
0.41408	99.98
0.43075	99.98
0.44742	99.98
0.46408	99.98
0.48075	99.98
0.49742	99.98
0.51408	99.99
0.53075	99.99
0.54742	99.98
0.56408	99.99
0.58075	99.99
0.59742	99.98
0.61408	99.98
0.63075	99.98
0.64742	99.98
0.66408	99.99
0.68075	99.98
0.69742	99.99
0.71408	99.99
0.73075	99.98
0.74742	99.99
0.76408	99.99
0.78075	99.98
0.79742	99.98
0.81408	99.99
0.83075	99.99
0.84742	99.98
0.86408	99.98
0.88075	99.99
0.89742	99.98
0.91408	99.99
0.93075	99.98
0.94742	99.99
0.96408	99.99
0.98075	99.98
0.99742	99.99
1.01408	99.98
1.03075	99.98
1.04742	99.98
1.06408	99.98
1.08075	99.98
1.09742	99.98
1.11408	99.98
1.13075	99.98
1.14742	99.98
1.16408	99.98
1.18075	99.98
1.19742	99.98
1.21408	99.98
1.23075	99.98
1.24742	99.98
1.26408	99.98
1.28075	99.98
1.29742	99.98
1.31408	99.98
1.33075	99.98
1.34742	99.98
1.36408	99.98
1.38075	99.98
1.39742	99.98
1.41408	99.99
1.43075	99.98
1.44742	99.98
1.46408	99.98
1.48075	99.98
1.49742	99.98
1.51408	99.98
1.53075	99.98
1.54742	99.98
1.56408	99.98
1.58075	99.98
1.59742	99.98
1.61408	99.98
1.63075	99.98
1.64742	99.98
1.66408	99.98
1.68075	99.99
1.69742	99.99
1.71408	99.99
1.73075	99.98
1.74742	99.98
1.76408	99.98
1.78075	99.99
1.79742	99.99
1.81408	99.99
1.83075	99.99
1.84742	99.98
1.86408	99.98
1.88075	99.98
1.89742	99.98
1.91408	99.98
1.93075	99.98
1.94742	99.99
1.96408	99.98
1.98075	99.98
1.99742	99.98
2.01408	99.99
2.03075	99.98
2.04742	99.98
2.06408	99.99
2.08075	99.98
2.09742	99.98
2.11408	99.98
2.13075	99.98
2.14742	99.98
2.16408	99.98
2.18075	99.98
2.19742	99.98
2.21408	99.98
2.23075	99.98
2.24742	99.98
2.26408	99.98
2.28075	99.98
2.29742	99.98
2.31408	99.98
2.33075	99.98
2.34742	99.98
2.36408	99.98
2.38075	99.98
2.39742	99.98
2.41408	99.98
2.43075	99.98
2.44742	99.98
2.46408	99.98
2.48075	99.98
2.49742	99.98
2.51408	99.98
2.53075	99.98
2.54742	99.98
2.56408	99.98
2.58075	99.98
2.59742	99.98
2.61408	99.99
2.63075	99.99
2.64742	99.99
2.66408	99.99
2.68075	99.99
2.69742	99.99
2.71408	99.99
2.73075	99.99
2.74742	99.99
2.76408	100.00
2.78075	100.00
2.79742	100.00
2.81408	100.00
2.83075	100.00
2.84742	100.00
2.86408	100.00
2.88075	100.00
2.89742	100.01
2.91408	100.00
2.93075	100.01
2.94742	100.01
2.96408	100.01
2.98075	100.01
2.99742	100.01
3.01408	100.01
3.03075	100.01
3.04742	100.02
3.06408	100.01
3.08075	100.02
3.09742	100.02
3.11408	100.02
3.13075	100.02
3.14742	100.02
3.16408	100.02
3.18075	100.03
3.19742	100.03
3.21408	100.02
3.23075	100.03
3.24742	100.03
3.26408	100.03
3.28075	100.03
3.29742	100.03
3.31408	100.03
3.33075	100.03
3.34742	100.03
3.36408	100.03
3.38075	100.04
3.39742	100.04
3.41408	100.04
3.43075	100.04
3.44742	100.04
3.46408	100.04
3.48075	100.04
3.49742	100.04
3.51408	100.04
3.53075	100.04
3.54742	100.04
3.56408	100.04
3.58075	100.05
3.59742	100.05
3.61408	100.04
3.63075	100.05
3.64742	100.05
3.66408	100.05
3.68075	100.05
3.69742	100.05
3.71408	100.05
3.73075	100.05
3.74742	100.05
3.76408	100.05
3.78075	100.05
3.79742	100.05
3.81408	100.05
3.83075	100.05
3.84742	100.05
3.86408	100.05
3.88075	100.05
3.89742	100.05
3.91408	100.05
3.93075	100.05
3.94742	100.05
3.96408	100.05
3.98075	100.05
3.99742	100.05

[Status Trace (Carrier Gas Pressure)]
Interval(msec)	1000
# of Points	240
Start Time(min)	0.014
End Time(min)	3.997
Intensity Units	
Intensity Multiplier	1
R.Time (min)	Intensity
0.01408	57.68
0.03075	55.43
0.04742	57.93
0.06408	59.78
0.08075	58.79
0.09742	57.98
0.11408	57.99
0.13075	58.01
0.14742	58.01
0.16408	58.00
0.18075	58.00
0.19742	58.00
0.21408	58.00
0.23075	58.00
0.24742	58.00
0.26408	58.00
0.28075	58.00
0.29742	58.00
0.31408	58.00
0.33075	58.00
0.34742	58.00
0.36408	58.00
0.38075	58.00
0.39742	58.00
0.41408	58.00
0.43075	58.00
0.44742	58.00
0.46408	58.00
0.48075	58.00
0.49742	58.00
0.51408	58.00
0.53075	58.00
0.54742	58.00
0.56408	58.00
0.58075	58.00
0.59742	58.00
0.61408	58.00
0.63075	58.00
0.64742	58.00
0.66408	58.00
0.68075	58.00
0.69742	58.00
0.71408	58.00
0.73075	58.00
0.74742	58.00
0.76408	58.00
0.78075	58.00
0.79742	58.00
0.81408	58.00
0.83075	58.00
0.84742	58.00
0.86408	58.00
0.88075	58.00
0.89742	58.00
0.91408	58.00
0.93075	58.00
0.94742	58.00
0.96408	58.00
0.98075	58.00
0.99742	58.00
1.01408	58.00
1.03075	58.00
1.04742	58.00
1.06408	58.00
1.08075	58.00
1.09742	58.00
1.11408	58.00
1.13075	58.00
1.14742	58.00
1.16408	58.00
1.18075	58.00
1.19742	58.00
1.21408	58.00
1.23075	58.00
1.24742	58.00
1.26408	58.00
1.28075	58.00
1.29742	58.00
1.31408	58.00
1.33075	58.00
1.34742	58.00
1.36408	58.00
1.38075	58.00
1.39742	58.00
1.41408	58.00
1.43075	58.00
1.44742	58.00
1.46408	58.00
1.48075	58.00
1.49742	58.00
1.51408	58.00
1.53075	58.00
1.54742	58.00
1.56408	58.00
1.58075	58.00
1.59742	58.00
1.61408	58.00
1.63075	58.00
1.64742	58.00
1.66408	58.01
1.68075	58.01
1.69742	58.00
1.71408	58.00
1.73075	58.00
1.74742	58.00
1.76408	58.00
1.78075	58.00
1.79742	58.00
1.81408	58.00
1.83075	58.00
1.84742	58.00
1.86408	58.00
1.88075	58.00
1.89742	58.00
1.91408	58.00
1.93075	58.00
1.94742	58.00
1.96408	58.00
1.98075	58.00
1.99742	58.00
2.01408	58.00
2.03075	58.00
2.04742	58.00
2.06408	58.00
2.08075	58.00
2.09742	58.00
2.11408	58.00
2.13075	58.00
2.14742	58.00
2.16408	58.00
2.18075	58.00
2.19742	58.00
2.21408	58.00
2.23075	58.00
2.24742	58.00
2.26408	58.00
2.28075	58.00
2.29742	58.00
2.31408	58.00
2.33075	58.00
2.34742	58.00
2.36408	58.00
2.38075	58.00
2.39742	57.99
2.41408	58.00
2.43075	58.00
2.44742	58.00
2.46408	58.00
2.48075	58.00
2.49742	58.00
2.51408	57.99
2.53075	57.99
2.54742	58.00
2.56408	58.00
2.58075	58.00
2.59742	58.00
2.61408	58.00
2.63075	58.00
2.64742	58.00
2.66408	58.00
2.68075	58.00
2.69742	58.00
2.71408	58.00
2.73075	58.00
2.74742	58.00
2.76408	58.00
2.78075	58.00
2.79742	58.00
2.81408	58.00
2.83075	58.00
2.84742	58.00
2.86408	58.00
2.88075	58.00
2.89742	58.00
2.91408	58.00
2.93075	58.00
2.94742	58.00
2.96408	58.00
2.98075	58.00
2.99742	58.00
3.01408	58.00
3.03075	58.00
3.04742	58.00
3.06408	58.00
3.08075	58.00
3.09742	58.00
3.11408	58.00
3.13075	58.00
3.14742	58.00
3.16408	58.00
3.18075	58.00
3.19742	58.00
3.21408	58.00
3.23075	58.00
3.24742	58.00
3.26408	58.00
3.28075	58.00
3.29742	58.00
3.31408	58.00
3.33075	58.00
3.34742	58.00
3.36408	58.00
3.38075	58.00
3.39742	58.00
3.41408	58.00
3.43075	58.00
3.44742	58.00
3.46408	58.00
3.48075	58.00
3.49742	58.00
3.51408	58.00
3.53075	58.00
3.54742	58.00
3.56408	58.00
3.58075	58.00
3.59742	58.00
3.61408	58.00
3.63075	58.00
3.64742	58.00
3.66408	58.00
3.68075	58.00
3.69742	58.00
3.71408	58.00
3.73075	58.00
3.74742	58.00
3.76408	58.00
3.78075	58.00
3.79742	58.00
3.81408	58.00
3.83075	58.00
3.84742	58.00
3.86408	58.00
3.88075	58.00
3.89742	58.00
3.91408	58.00
3.93075	58.00
3.94742	58.00
3.96408	58.00
3.98075	58.00
3.99742	58.00

[Status Trace (Carrier Gas Flow)]
Interval(msec)	1000
# of Points	240
Start Time(min)	0.014
End Time(min)	3.997
Intensity Units	
Intensity Multiplier	1
R.Time (min)	Intensity
0.01408	34.43
0.03075	34.54
0.04742	34.55
0.06408	34.53
0.08075	34.51
0.09742	34.52
0.11408	34.54
0.13075	34.52
0.14742	34.52
0.16408	34.52
0.18075	34.52
0.19742	34.51
0.21408	34.52
0.23075	34.52
0.24742	34.52
0.26408	34.52
0.28075	34.52
0.29742	34.52
0.31408	34.52
0.33075	34.52
0.34742	34.52
0.36408	34.52
0.38075	34.52
0.39742	34.52
0.41408	34.52
0.43075	34.52
0.44742	34.52
0.46408	34.52
0.48075	34.52
0.49742	34.52
0.51408	34.52
0.53075	34.52
0.54742	34.52
0.56408	34.52
0.58075	34.52
0.59742	34.52
0.61408	34.52
0.63075	34.52
0.64742	34.52
0.66408	34.52
0.68075	34.52
0.69742	34.52
0.71408	34.52
0.73075	34.52
0.74742	34.52
0.76408	34.52
0.78075	34.52
0.79742	34.52
0.81408	34.52
0.83075	34.52
0.84742	34.52
0.86408	34.52
0.88075	34.52
0.89742	34.52
0.91408	34.52
0.93075	34.52
0.94742	34.52
0.96408	34.52
0.98075	34.52
0.99742	34.52
1.01408	34.52
1.03075	34.52
1.04742	34.52
1.06408	34.52
1.08075	34.52
1.09742	34.52
1.11408	34.52
1.13075	34.52
1.14742	34.52
1.16408	34.52
1.18075	34.52
1.19742	34.52
1.21408	34.52
1.23075	34.52
1.24742	34.52
1.26408	34.52
1.28075	34.52
1.29742	34.52
1.31408	34.52
1.33075	34.52
1.34742	34.52
1.36408	34.52
1.38075	34.52
1.39742	34.52
1.41408	34.52
1.43075	34.52
1.44742	34.52
1.46408	34.52
1.48075	34.52
1.49742	34.52
1.51408	34.52
1.53075	34.52
1.54742	34.52
1.56408	34.52
1.58075	34.52
1.59742	34.52
1.61408	34.52
1.63075	34.52
1.64742	34.52
1.66408	34.52
1.68075	34.52
1.69742	34.52
1.71408	34.52
1.73075	34.52
1.74742	34.52
1.76408	34.52
1.78075	34.52
1.79742	34.52
1.81408	34.52
1.83075	34.52
1.84742	34.52
1.86408	34.52
1.88075	34.52
1.89742	34.52
1.91408	34.52
1.93075	34.52
1.94742	34.52
1.96408	34.52
1.98075	34.52
1.99742	34.52
2.01408	34.52
2.03075	34.52
2.04742	34.52
2.06408	34.52
2.08075	34.52
2.09742	34.52
2.11408	34.52
2.13075	34.52
2.14742	34.52
2.16408	34.52
2.18075	34.52
2.19742	34.52
2.21408	34.52
2.23075	34.52
2.24742	34.52
2.26408	34.52
2.28075	34.52
2.29742	34.52
2.31408	34.52
2.33075	34.52
2.34742	34.52
2.36408	34.52
2.38075	34.52
2.39742	34.52
2.41408	34.52
2.43075	34.52
2.44742	34.52
2.46408	34.52
2.48075	34.52
2.49742	34.52
2.51408	34.52
2.53075	34.52
2.54742	34.52
2.56408	34.52
2.58075	34.52
2.59742	34.52
2.61408	34.52
2.63075	34.52
2.64742	34.52
2.66408	34.52
2.68075	34.52
2.69742	34.52
2.71408	34.52
2.73075	34.52
2.74742	34.52
2.76408	34.52
2.78075	34.52
2.79742	34.52
2.81408	34.52
2.83075	34.52
2.84742	34.52
2.86408	34.52
2.88075	34.52
2.89742	34.52
2.91408	34.52
2.93075	34.52
2.94742	34.52
2.96408	34.52
2.98075	34.52
2.99742	34.52
3.01408	34.52
3.03075	34.52
3.04742	34.52
3.06408	34.52
3.08075	34.52
3.09742	34.52
3.11408	34.52
3.13075	34.52
3.14742	34.52
3.16408	34.52
3.18075	34.52
3.19742	34.52
3.21408	34.52
3.23075	34.52
3.24742	34.52
3.26408	34.52
3.28075	34.52
3.29742	34.52
3.31408	34.52
3.33075	34.52
3.34742	34.52
3.36408	34.52
3.38075	34.52
3.39742	34.52
3.41408	34.52
3.43075	34.52
3.44742	34.52
3.46408	34.52
3.48075	34.52
3.49742	34.52
3.51408	34.52
3.53075	34.52
3.54742	34.52
3.56408	34.52
3.58075	34.52
3.59742	34.52
3.61408	34.52
3.63075	34.52
3.64742	34.52
3.66408	34.52
3.68075	34.52
3.69742	34.52
3.71408	34.52
3.73075	34.52
3.74742	34.52
3.76408	34.52
3.78075	34.52
3.79742	34.52
3.81408	34.52
3.83075	34.52
3.84742	34.52
3.86408	34.52
3.88075	34.52
3.89742	34.52
3.91408	34.52
3.93075	34.52
3.94742	34.52
3.96408	34.52
3.98075	34.52
3.99742	34.52

[Status Trace (Column Flow)]
Interval(msec)	1000
# of Points	240
Start Time(min)	0.014
End Time(min)	3.997
Intensity Units	
Intensity Multiplier	1
R.Time (min)	Intensity
0.01408	5.46
0.03075	5.20
0.04742	5.49
0.06408	5.70
0.08075	5.59
0.09742	5.49
0.11408	5.49
0.13075	5.50
0.14742	5.50
0.16408	5.49
0.18075	5.49
0.19742	5.49
0.21408	5.49
0.23075	5.49
0.24742	5.49
0.26408	5.49
0.28075	5.49
0.29742	5.49
0.31408	5.49
0.33075	5.49
0.34742	5.49
0.36408	5.49
0.38075	5.49
0.39742	5.49
0.41408	5.49
0.43075	5.49
0.44742	5.49
0.46408	5.49
0.48075	5.49
0.49742	5.49
0.51408	5.49
0.53075	5.49
0.54742	5.49
0.56408	5.49
0.58075	5.49
0.59742	5.49
0.61408	5.49
0.63075	5.49
0.64742	5.49
0.66408	5.49
0.68075	5.49
0.69742	5.49
0.71408	5.49
0.73075	5.49
0.74742	5.49
0.76408	5.49
0.78075	5.49
0.79742	5.49
0.81408	5.49
0.83075	5.49
0.84742	5.49
0.86408	5.49
0.88075	5.49
0.89742	5.49
0.91408	5.49
0.93075	5.49
0.94742	5.49
0.96408	5.49
0.98075	5.49
0.99742	5.49
1.01408	5.49
1.03075	5.49
1.04742	5.49
1.06408	5.49
1.08075	5.49
1.09742	5.49
1.11408	5.49
1.13075	5.49
1.14742	5.49
1.16408	5.49
1.18075	5.49
1.19742	5.49
1.21408	5.49
1.23075	5.49
1.24742	5.49
1.26408	5.49
1.28075	5.49
1.29742	5.49
1.31408	5.49
1.33075	5.49
1.34742	5.49
1.36408	5.49
1.38075	5.49
1.39742	5.49
1.41408	5.49
1.43075	5.49
1.44742	5.49
1.46408	5.49
1.48075	5.49
1.49742	5.49
1.51408	5.49
1.53075	5.49
1.54742	5.49
1.56408	5.49
1.58075	5.49
1.59742	5.49
1.61408	5.49
1.63075	5.49
1.64742	5.48
1.66408	5.47
1.68075	5.46
1.69742	5.45
1.71408	5.44
1.73075	5.43
1.74742	5.42
1.76408	5.41
1.78075	5.40
1.79742	5.39
1.81408	5.38
1.83075	5.37
1.84742	5.36
1.86408	5.35
1.88075	5.34
1.89742	5.33
1.91408	5.32
1.93075	5.31
1.94742	5.30
1.96408	5.29
1.98075	5.28
1.99742	5.27
2.01408	5.26
2.03075	5.25
2.04742	5.24
2.06408	5.23
2.08075	5.22
2.09742	5.21
2.11408	5.20
2.13075	5.19
2.14742	5.19
2.16408	5.18
2.18075	5.17
2.19742	5.16
2.21408	5.15
2.23075	5.14
2.24742	5.13
2.26408	5.12
2.28075	5.11
2.29742	5.10
2.31408	5.09
2.33075	5.08
2.34742	5.07
2.36408	5.07
2.38075	5.06
2.39742	5.06
2.41408	5.06
2.43075	5.06
2.44742	5.06
2.46408	5.06
2.48075	5.06
2.49742	5.06
2.51408	5.06
2.53075	5.06
2.54742	5.06
2.56408	5.06
2.58075	5.06
2.59742	5.06
2.61408	5.06
2.63075	5.06
2.64742	5.06
2.66408	5.06
2.68075	5.06
2.69742	5.06
2.71408	5.06
2.73075	5.06
2.74742	5.06
2.76408	5.06
2.78075	5.06
2.79742	5.06
2.81408	5.06
2.83075	5.06
2.84742	5.06
2.86408	5.06
2.88075	5.05
2.89742	5.05
2.91408	5.05
2.93075	5.05
2.94742	5.05
2.96408	5.05
2.98075	5.05
2.99742	5.05
3.01408	5.05
3.03075	5.05
3.04742	5.05
3.06408	5.05
3.08075	5.05
3.09742	5.05
3.11408	5.05
3.13075	5.05
3.14742	5.05
3.16408	5.05
3.18075	5.05
3.19742	5.05
3.21408	5.05
3.23075	5.05
3.24742	5.05
3.26408	5.05
3.28075	5.05
3.29742	5.05
3.31408	5.05
3.33075	5.05
3.34742	5.05
3.36408	5.05
3.38075	5.05
3.39742	5.05
3.41408	5.05
3.43075	5.05
3.44742	5.05
3.46408	5.05
3.48075	5.05
3.49742	5.05
3.51408	5.05
3.53075	5.05
3.54742	5.05
3.56408	5.05
3.58075	5.05
3.59742	5.05
3.61408	5.05
3.63075	5.05
3.64742	5.05
3.66408	5.05
3.68075	5.05
3.69742	5.05
3.71408	5.05
3.73075	5.05
3.74742	5.05
3.76408	5.05
3.78075	5.05
3.79742	5.05
3.81408	5.05
3.83075	5.05
3.84742	5.05
3.86408	5.05
3.88075	5.05
3.89742	5.05
3.91408	5.05
3.93075	5.05
3.94742	5.05
3.96408	5.05
3.98075	5.05
3.99742	5.05

[Status Trace (Linear Velocity)]
Interval(msec)	1000
# of Points	240
Start Time(min)	0.014
End Time(min)	3.997
Intensity Units	
Intensity Multiplier	1
R.Time (min)	Intensity
0.01408	38.80
0.03075	37.32
0.04742	38.96
0.06408	40.17
0.08075	39.53
0.09742	39.00
0.11408	39.00
0.13075	39.02
0.14742	39.02
0.16408	39.01
0.18075	39.01
0.19742	39.01
0.21408	39.01
0.23075	39.01
0.24742	39.01
0.26408	39.01
0.28075	39.01
0.29742	39.01
0.31408	39.01
0.33075	39.01
0.34742	39.01
0.36408	39.01
0.38075	39.01
0.39742	39.01
0.41408	39.01
0.43075	39.01
0.44742	39.01
0.46408	39.01
0.48075	39.01
0.49742	39.01
0.51408	39.01
0.53075	39.01
0.54742	39.01
0.56408	39.01
0.58075	39.01
0.59742	39.01
0.61408	39.01
0.63075	39.01
0.64742	39.01
0.66408	39.01
0.68075	39.01
0.69742	39.01
0.71408	39.01
0.73075	39.01
0.74742	39.01
0.76408	39.01
0.78075	39.01
0.79742	39.01
0.81408	39.01
0.83075	39.01
0.84742	39.01
0.86408	39.01
0.88075	39.01
0.89742	39.01
0.91408	39.01
0.93075	39.01
0.94742	39.01
0.96408	39.01
0.98075	39.01
0.99742	39.01
1.01408	39.01
1.03075	39.01
1.04742	39.01
1.06408	39.01
1.08075	39.01
1.09742	39.01
1.11408	39.01
1.13075	39.01
1.14742	39.01
1.16408	39.01
1.18075	39.01
1.19742	39.01
1.21408	39.01
1.23075	39.01
1.24742	39.01
1.26408	39.01
1.28075	39.01
1.29742	39.01
1.31408	39.01
1.33075	39.01
1.34742	39.01
1.36408	39.01
1.38075	39.01
1.39742	39.01
1.41408	39.01
1.43075	39.01
1.44742	39.01
1.46408	39.01
1.48075	39.01
1.49742	39.01
1.51408	39.01
1.53075	39.01
1.54742	39.01
1.56408	39.01
1.58075	39.01
1.59742	39.01
1.61408	39.00
1.63075	38.99
1.64742	38.97
1.66408	38.95
1.68075	38.91
1.69742	38.88
1.71408	38.84
1.73075	38.81
1.74742	38.78
1.76408	38.75
1.78075	38.71
1.79742	38.68
1.81408	38.65
1.83075	38.62
1.84742	38.59
1.86408	38.56
1.88075	38.53
1.89742	38.50
1.91408	38.47
1.93075	38.44
1.94742	38.41
1.96408	38.38
1.98075	38.35
1.99742	38.32
2.01408	38.29
2.03075	38.26
2.04742	38.23
2.06408	38.20
2.08075	38.17
2.09742	38.14
2.11408	38.11
2.13075	38.08
2.14742	38.05
2.16408	38.02
2.18075	37.99
2.19742	37.96
2.21408	37.93
2.23075	37.90
2.24742	37.87
2.26408	37.84
2.28075	37.81
2.29742	37.78
2.31408	37.75
2.33075	37.72
2.34742	37.69
2.36408	37.67
2.38075	37.65
2.39742	37.64
2.41408	37.65
2.43075	37.65
2.44742	37.65
2.46408	37.65
2.48075	37.65
2.49742	37.65
2.51408	37.64
2.53075	37.64
2.54742	37.64
2.56408	37.64
2.58075	37.64
2.59742	37.64
2.61408	37.64
2.63075	37.64
2.64742	37.64
2.66408	37.64
2.68075	37.64
2.69742	37.64
2.71408	37.64
2.73075	37.64
2.74742	37.64
2.76408	37.64
2.78075	37.64
2.79742	37.64
2.81408	37.64
2.83075	37.64
2.84742	37.64
2.86408	37.63
2.88075	37.63
2.89742	37.63
2.91408	37.63
2.93075	37.63
2.94742	37.63
2.96408	37.63
2.98075	37.63
2.99742	37.63
3.01408	37.63
3.03075	37.63
3.04742	37.63
3.06408	37.62
3.08075	37.62
3.09742	37.62
3.11408	37.62
3.13075	37.62
3.14742	37.62
3.16408	37.62
3.18075	37.62
3.19742	37.62
3.21408	37.62
3.23075	37.62
3.24742	37.62
3.26408	37.62
3.28075	37.62
3.29742	37.62
3.31408	37.62
3.33075	37.62
3.34742	37.62
3.36408	37.62
3.38075	37.62
3.39742	37.62
3.41408	37.62
3.43075	37.62
3.44742	37.62
3.46408	37.62
3.48075	37.62
3.49742	37.62
3.51408	37.62
3.53075	37.62
3.54742	37.62
3.56408	37.62
3.58075	37.62
3.59742	37.62
3.61408	37.62
3.63075	37.62
3.64742	37.62
3.66408	37.62
3.68075	37.62
3.69742	37.62
3.71408	37.62
3.73075	37.62
3.74742	37.62
3.76408	37.62
3.78075	37.62
3.79742	37.62
3.81408	37.62
3.83075	37.62
3.84742	37.62
3.86408	37.62
3.88075	37.62
3.89742	37.62
3.91408	37.62
3.93075	37.62
3.94742	37.62
3.96408	37.62
3.98075	37.62
3.99742	37.62

