[Header]
Application Name	LabSolutions
Version	5.110
Data File Name	C:\Users\User\Desktop\GC Analyses\Jack\UIC Prairie Sampling\9.16.22\220916_019.gcd
Output Date	11/29/2022
Output Time	11:10:16 AM

[File Information]
Type	Data File
Generated	11/10/2022 3:38:26 PM
Generated by	System Administrator
Modified	11/10/2022 3:43:34 PM
Modified by	System Administrator

[Sample Information]
Operator Name	System Administrator
Acquired	11/10/2022 3:39:33 PM
Sample Type	1:Standard
Level	1
Sample Name	220916_UICPrairie
Sample ID	220916_UICPrairie
ISTD Amount1	1
ISTD Amount2	1
ISTD Amount3	1
ISTD Amount4	1
ISTD Amount5	1
ISTD Amount6	1
ISTD Amount7	1
ISTD Amount8	1
ISTD Amount9	1
ISTD Amount10	1
ISTD Amount11	1
ISTD Amount12	1
ISTD Amount13	1
ISTD Amount14	1
ISTD Amount15	1
ISTD Amount16	1
ISTD Amount17	1
ISTD Amount18	1
ISTD Amount19	1
ISTD Amount20	1
ISTD Amount21	1
ISTD Amount22	1
ISTD Amount23	1
ISTD Amount24	1
ISTD Amount25	1
ISTD Amount26	1
ISTD Amount27	1
ISTD Amount28	1
ISTD Amount29	1
ISTD Amount30	1
ISTD Amount31	1
ISTD Amount32	1
Sample Amount	1
Dilution Factor	1
Vial#	1
Injection Volume	1
Injection Count	1
Bar Code	

[Original Files]
Data File	C:\Users\User\Desktop\GC Analyses\Jack\UIC Prairie Sampling\9.16.22\220916_019.gcd
Method File	C:\LabSolutions\Data\GHG_4min_2022\ghg3_togas_w_acet_4 min_new_int.gcm
Batch File	
Report Format File	c:\LabSolutions\System\DEFAULT.lsr

[File Description]


[Configuration]
Instrument Name	C0B7VH3-Instrument1
Instrument #	1
Line #	1
# of Detectors	3
Detector ID	DET#1	DET#2	DET#3
Detector Name	FID	PTCD	ECD
# of Channels	1	1	1

[Peak Table(Ch1)]
# of Peaks	3
Peak#	R.Time	I.Time	F.Time	Area	Height	A/H	Conc.	Mark	ID#	Name	k'	Plate #	Plate Ht.	Tailing	Resolution	Sep.Factor	Area Ratio	Height Ratio	Conc. %	Norm Conc.
1	1.476	1.435	1.534	9897	4297	2.303	100.000	   	1	CO	0.000	7938	18.896	1.195	0.000	0.000	0	0	16.667	16.667
2	1.567	1.534	1.630	4886	2406	2.031	100.000	 V 	2	CH4	0.062	10650	14.084	1.202	1.444	0.000	0	0	16.667	16.667
3	1.996	1.949	2.466	2337074	1131068	2.066	400.000	   	3	CO2	0.353	17615	8.516	1.202	7.096	5.680	0	0	66.667	66.667

[Peak Table(Ch2)]
# of Peaks	0

[Peak Table(Ch3)]
# of Peaks	4
Peak#	R.Time	I.Time	F.Time	Area	Height	A/H	Conc.	Mark	ID#	Name	k'	Plate #	Plate Ht.	Tailing	Resolution	Sep.Factor	Area Ratio	Height Ratio	Conc. %	Norm Conc.
1	0.827	0.775	1.006	76	11	6.703	0.000	   			0.000	2456	61.063	2.262	0.000	0.000	0	0	0.000	0.000
2	2.462	2.400	2.510	336	116	2.893	0.000	   			1.978	13734	10.922	0.000	21.696	0.000	0	0	0.000	0.000
3	2.598	2.510	2.649	2297	496	4.629	0.000	 V 			2.142	6002	24.990	0.000	1.244	1.083	0	0	0.000	0.000
4	2.880	2.649	3.877	39674	5929	6.691	1.000	 V 	1	N2O	2.484	11815	12.696	1.642	2.352	1.159	0	0	100.000	100.000

[Compound Results(Ch1)]
# of IDs	6
ID#	Name	R.Time	Area	Height	Conc.	Curve	3rd	2nd	1st	Constant	Area Ratio	Height Ratio	Conc. %	Norm Conc.
1	CO	1.476	9897	4297	100.000	Linear	0.000000e+00	0.000000e+00	9.897028e+001	0.000000e+00	0	0	16.667	16.667
2	CH4	1.567	4886	2406	100.000	Linear	0.000000e+00	0.000000e+00	4.886445e+001	0.000000e+00	0	0	16.667	16.667
3	CO2	1.996	2337074	1131068	400.000	Linear	0.000000e+00	0.000000e+00	5.842686e+003	0.000000e+00	0	0	66.667	66.667
4	Ethylene	0.000	0	0	0.000	Linear	0.000000e+00	0.000000e+00	0.000000e+00	0.000000e+00	0	0	0.000	0.000
5	Acetylene	0.000	0	0	0.000	Linear	0.000000e+00	0.000000e+00	0.000000e+00	0.000000e+00	0	0	0.000	0.000
6	Ethane	0.000	0	0	0.000	Linear	0.000000e+00	0.000000e+00	0.000000e+00	0.000000e+00	0	0	0.000	0.000

[Compound Results(Ch2)]
# of IDs	5
ID#	Name	R.Time	Area	Height	Conc.	Curve	3rd	2nd	1st	Constant	Area Ratio	Height Ratio	Conc. %	Norm Conc.
1	Hydrogen	0.000	0	0	0.000	Linear	0.000000e+00	0.000000e+00	0.000000e+00	0.000000e+00	0	0	0.000	0.000
2	Oxygen	0.000	0	0	0.000	Linear	0.000000e+00	0.000000e+00	0.000000e+00	0.000000e+00	0	0	0.000	0.000
3	Nitrogen	0.000	0	0	0.000	Linear	0.000000e+00	0.000000e+00	0.000000e+00	0.000000e+00	0	0	0.000	0.000
4	Methane	0.000	0	0	0.000	Linear	0.000000e+00	0.000000e+00	0.000000e+00	0.000000e+00	0	0	0.000	0.000
5	Carbon Monoxide	0.000	0	0	0.000	Linear	0.000000e+00	0.000000e+00	0.000000e+00	0.000000e+00	0	0	0.000	0.000

[Compound Results(Ch3)]
# of IDs	2
ID#	Name	R.Time	Area	Height	Conc.	Curve	3rd	2nd	1st	Constant	Area Ratio	Height Ratio	Conc. %	Norm Conc.
1	N2O	2.880	39674	5929	1.000	Linear	0.000000e+00	0.000000e+00	3.967429e+004	0.000000e+00	0	0	100.000	100.000
2	SF6	0.000	0	0	0.000	Linear	0.000000e+00	0.000000e+00	0.000000e+00	0.000000e+00	0	0	0.000	0.000

[Group Results(Ch1)]
# of Groups	0

[Group Results(Ch2)]
# of Groups	0

[Group Results(Ch3)]
# of Groups	0

[Chromatogram (Ch1)]
Interval(msec)	220
# of Points	1091
Start Time(min)	0.002
End Time(min)	3.998
R.Time (min)	Intensity
0.00167	-4
0.00533	-2
0.00900	1
0.01267	5
0.01633	8
0.02000	11
0.02367	11
0.02733	12
0.03100	17
0.03467	21
0.03833	21
0.04200	20
0.04567	17
0.04933	13
0.05300	7
0.05667	4
0.06033	5
0.06400	7
0.06767	10
0.07133	17
0.07500	27
0.07867	31
0.08233	29
0.08600	24
0.08967	20
0.09333	16
0.09700	10
0.10067	7
0.10433	1
0.10800	-8
0.11167	-16
0.11533	-20
0.11900	-20
0.12267	-18
0.12633	-13
0.13000	-11
0.13367	-5
0.13733	2
0.14100	7
0.14467	10
0.14833	12
0.15200	14
0.15567	16
0.15933	14
0.16300	7
0.16667	1
0.17033	-2
0.17400	-2
0.17767	-1
0.18133	0
0.18500	0
0.18867	-1
0.19233	-0
0.19600	-0
0.19967	-5
0.20333	-8
0.20700	-10
0.21067	-10
0.21433	-10
0.21800	-10
0.22167	-12
0.22533	-14
0.22900	-12
0.23267	-7
0.23633	-5
0.24000	-5
0.24367	-2
0.24733	4
0.25100	6
0.25467	2
0.25833	-3
0.26200	-7
0.26567	-10
0.26933	-8
0.27300	-4
0.27667	-0
0.28033	2
0.28400	1
0.28767	-3
0.29133	-6
0.29500	-12
0.29867	-18
0.30233	-23
0.30600	-24
0.30967	-17
0.31333	-5
0.31700	3
0.32067	2
0.32433	-6
0.32800	-12
0.33167	-14
0.33533	-14
0.33900	-13
0.34267	-9
0.34633	-5
0.35000	-2
0.35367	-1
0.35733	-4
0.36100	-7
0.36467	-12
0.36833	-16
0.37200	-18
0.37567	-17
0.37933	-13
0.38300	-4
0.38667	7
0.39033	19
0.39400	22
0.39767	15
0.40133	-3
0.40500	-20
0.40867	-34
0.41233	-40
0.41600	-39
0.41967	-35
0.42333	-33
0.42700	-29
0.43067	-26
0.43433	-21
0.43800	-17
0.44167	-18
0.44533	-22
0.44900	-25
0.45267	-29
0.45633	-31
0.46000	-34
0.46367	-38
0.46733	-41
0.47100	-41
0.47467	-37
0.47833	-28
0.48200	-22
0.48567	-21
0.48933	-27
0.49300	-31
0.49667	-30
0.50033	-26
0.50400	-24
0.50767	-28
0.51133	-37
0.51500	-45
0.51867	-44
0.52233	-39
0.52600	-31
0.52967	-24
0.53333	-18
0.53700	-15
0.54067	-17
0.54433	-19
0.54800	-21
0.55167	-25
0.55533	-28
0.55900	-31
0.56267	-35
0.56633	-39
0.57000	-43
0.57367	-46
0.57733	-47
0.58100	-47
0.58467	-46
0.58833	-45
0.59200	-46
0.59567	-48
0.59933	-49
0.60300	-48
0.60667	-46
0.61033	-44
0.61400	-42
0.61767	-38
0.62133	-34
0.62500	-32
0.62867	-37
0.63233	-45
0.63600	-55
0.63967	-62
0.64333	-63
0.64700	-60
0.65067	-55
0.65433	-49
0.65800	-41
0.66167	-33
0.66533	-31
0.66900	-34
0.67267	-39
0.67633	-46
0.68000	-50
0.68367	-49
0.68733	-50
0.69100	-55
0.69467	-63
0.69833	-70
0.70200	-72
0.70567	-68
0.70933	-59
0.71300	-47
0.71667	-38
0.72033	-33
0.72400	-33
0.72767	-32
0.73133	-29
0.73500	-28
0.73867	-32
0.74233	-38
0.74600	-48
0.74967	-59
0.75333	-65
0.75700	-68
0.76067	-70
0.76433	-70
0.76800	-69
0.77167	-67
0.77533	-65
0.77900	-61
0.78267	-55
0.78633	-51
0.79000	-50
0.79367	-51
0.79733	-54
0.80100	-56
0.80467	-57
0.80833	-55
0.81200	-49
0.81567	-42
0.81933	-38
0.82300	-37
0.82667	-40
0.83033	-46
0.83400	-54
0.83767	-61
0.84133	-64
0.84500	-62
0.84867	-57
0.85233	-51
0.85600	-47
0.85967	-46
0.86333	-51
0.86700	-57
0.87067	-61
0.87433	-65
0.87800	-69
0.88167	-73
0.88533	-74
0.88900	-71
0.89267	-70
0.89633	-69
0.90000	-67
0.90367	-65
0.90733	-62
0.91100	-63
0.91467	-67
0.91833	-70
0.92200	-69
0.92567	-64
0.92933	-57
0.93300	-52
0.93667	-53
0.94033	-57
0.94400	-62
0.94767	-65
0.95133	-66
0.95500	-66
0.95867	-65
0.96233	-61
0.96600	-57
0.96967	-52
0.97333	-52
0.97700	-58
0.98067	-68
0.98433	-77
0.98800	-84
0.99167	-83
0.99533	-76
0.99900	-72
1.00267	-67
1.00633	-64
1.01000	-62
1.01367	-62
1.01733	-63
1.02100	-62
1.02467	-61
1.02833	-61
1.03200	-63
1.03567	-66
1.03933	-67
1.04300	-68
1.04667	-68
1.05033	-68
1.05400	-63
1.05767	-57
1.06133	-54
1.06500	-55
1.06867	-57
1.07233	-59
1.07600	-64
1.07967	-71
1.08333	-75
1.08700	-76
1.09067	-71
1.09433	-62
1.09800	-56
1.10167	-56
1.10533	-63
1.10900	-74
1.11267	-87
1.11633	-96
1.12000	-97
1.12367	-95
1.12733	-91
1.13100	-89
1.13467	-88
1.13833	-85
1.14200	-80
1.14567	-76
1.14933	-71
1.15300	-67
1.15667	-66
1.16033	-72
1.16400	-77
1.16767	-81
1.17133	-85
1.17500	-89
1.17867	-92
1.18233	-89
1.18600	-82
1.18967	-73
1.19333	-71
1.19700	-78
1.20067	-88
1.20433	-96
1.20800	-98
1.21167	-96
1.21533	-96
1.21900	-84
1.22267	-71
1.22633	-61
1.23000	-55
1.23367	-50
1.23733	-50
1.24100	-54
1.24467	-60
1.24833	-65
1.25200	-68
1.25567	-73
1.25933	-76
1.26300	-80
1.26667	-85
1.27033	-91
1.27400	-96
1.27767	-100
1.28133	-100
1.28500	-97
1.28867	-89
1.29233	-79
1.29600	-68
1.29967	-57
1.30333	-50
1.30700	-52
1.31067	-63
1.31433	-73
1.31800	-77
1.32167	-78
1.32533	-83
1.32900	-90
1.33267	-93
1.33633	-92
1.34000	-87
1.34367	-77
1.34733	-65
1.35100	-57
1.35467	-54
1.35833	-58
1.36200	-65
1.36567	-73
1.36933	-80
1.37300	-87
1.37667	-94
1.38033	-97
1.38400	-98
1.38767	-97
1.39133	-98
1.39500	-97
1.39867	-95
1.40233	-89
1.40600	-84
1.40967	-81
1.41333	-78
1.41700	-72
1.42067	-69
1.42433	-68
1.42800	-70
1.43167	-71
1.43533	-67
1.43900	-31
1.44267	104
1.44633	376
1.45000	792
1.45367	1384
1.45733	2110
1.46100	2839
1.46467	3457
1.46833	3907
1.47200	4169
1.47567	4219
1.47933	4037
1.48300	3634
1.48667	3074
1.49033	2458
1.49400	1877
1.49767	1385
1.50133	998
1.50500	707
1.50867	493
1.51233	336
1.51600	222
1.51967	141
1.52333	84
1.52700	44
1.53067	18
1.53433	4
1.53800	18
1.54167	107
1.54533	334
1.54900	710
1.55267	1162
1.55633	1596
1.56000	1951
1.56367	2197
1.56733	2302
1.57100	2235
1.57467	1997
1.57833	1639
1.58200	1246
1.58567	889
1.58933	603
1.59300	390
1.59667	238
1.60033	133
1.60400	61
1.60767	10
1.61133	-27
1.61500	-53
1.61867	-74
1.62233	-94
1.62600	-111
1.62967	-121
1.63333	-123
1.63700	-120
1.64067	-116
1.64433	-111
1.64800	-106
1.65167	-104
1.65533	-109
1.65900	-114
1.66267	-117
1.66633	-119
1.67000	-120
1.67367	-119
1.67733	-115
1.68100	-111
1.68467	-107
1.68833	-103
1.69200	-99
1.69567	-98
1.69933	-101
1.70300	-107
1.70667	-113
1.71033	-120
1.71400	-124
1.71767	-124
1.72133	-122
1.72500	-118
1.72867	-116
1.73233	-113
1.73600	-109
1.73967	-107
1.74333	-106
1.74700	-105
1.75067	-104
1.75433	-99
1.75800	-90
1.76167	-84
1.76533	-84
1.76900	-93
1.77267	-103
1.77633	-112
1.78000	-118
1.78367	-120
1.78733	-120
1.79100	-118
1.79467	-112
1.79833	-104
1.80200	-97
1.80567	-97
1.80933	-103
1.81300	-113
1.81667	-121
1.82033	-124
1.82400	-121
1.82767	-116
1.83133	-113
1.83500	-117
1.83867	-122
1.84233	-122
1.84600	-118
1.84967	-112
1.85333	-106
1.85700	-105
1.86067	-109
1.86433	-113
1.86800	-118
1.87167	-121
1.87533	-122
1.87900	-119
1.88267	-114
1.88633	-109
1.89000	-107
1.89367	-108
1.89733	-109
1.90100	-108
1.90467	-107
1.90833	-105
1.91200	-100
1.91567	-95
1.91933	-91
1.92300	-87
1.92667	-86
1.93033	-88
1.93400	-91
1.93767	-93
1.94133	-96
1.94500	-98
1.94867	-90
1.95233	-30
1.95600	360
1.95967	2483
1.96333	11286
1.96700	39004
1.97067	106024
1.97433	231290
1.97800	414977
1.98167	631266
1.98533	841289
1.98900	1009266
1.99267	1110064
1.99633	1131001
2.00000	1072847
2.00367	950800
2.00733	790731
2.01100	621229
2.01467	465285
2.01833	335756
2.02200	235989
2.02567	163217
2.02933	112115
2.03300	77122
2.03667	53520
2.04033	37716
2.04400	27140
2.04767	20025
2.05133	15185
2.05500	11837
2.05867	9469
2.06233	7756
2.06600	6493
2.06967	5541
2.07333	4807
2.07700	4229
2.08067	3759
2.08433	3365
2.08800	3035
2.09167	2762
2.09533	2534
2.09900	2339
2.10267	2170
2.10633	2023
2.11000	1889
2.11367	1768
2.11733	1656
2.12100	1552
2.12467	1457
2.12833	1375
2.13200	1304
2.13567	1240
2.13933	1183
2.14300	1133
2.14667	1088
2.15033	1046
2.15400	1003
2.15767	958
2.16133	915
2.16500	877
2.16867	845
2.17233	815
2.17600	786
2.17967	758
2.18333	729
2.18700	698
2.19067	668
2.19433	640
2.19800	616
2.20167	596
2.20533	580
2.20900	565
2.21267	550
2.21633	535
2.22000	518
2.22367	500
2.22733	484
2.23100	468
2.23467	452
2.23833	438
2.24200	431
2.24567	426
2.24933	419
2.25300	411
2.25667	400
2.26033	390
2.26400	380
2.26767	371
2.27133	362
2.27500	354
2.27867	343
2.28233	334
2.28600	329
2.28967	328
2.29333	329
2.29700	323
2.30067	313
2.30433	300
2.30800	289
2.31167	280
2.31533	273
2.31900	265
2.32267	259
2.32633	254
2.33000	250
2.33367	246
2.33733	241
2.34100	239
2.34467	238
2.34833	235
2.35200	230
2.35567	223
2.35933	219
2.36300	218
2.36667	221
2.37033	223
2.37400	218
2.37767	208
2.38133	198
2.38500	189
2.38867	183
2.39233	184
2.39600	186
2.39967	189
2.40333	191
2.40700	192
2.41067	191
2.41433	187
2.41800	183
2.42167	180
2.42533	179
2.42900	178
2.43267	176
2.43633	172
2.44000	169
2.44367	165
2.44733	162
2.45100	160
2.45467	159
2.45833	158
2.46200	153
2.46567	149
2.46933	145
2.47300	142
2.47667	141
2.48033	142
2.48400	143
2.48767	146
2.49133	146
2.49500	147
2.49867	148
2.50233	148
2.50600	146
2.50967	143
2.51333	140
2.51700	139
2.52067	142
2.52433	150
2.52800	158
2.53167	159
2.53533	155
2.53900	149
2.54267	143
2.54633	135
2.55000	129
2.55367	128
2.55733	130
2.56100	133
2.56467	136
2.56833	138
2.57200	138
2.57567	137
2.57933	131
2.58300	122
2.58667	109
2.59033	96
2.59400	87
2.59767	82
2.60133	83
2.60500	89
2.60867	95
2.61233	98
2.61600	103
2.61967	109
2.62333	112
2.62700	113
2.63067	111
2.63433	105
2.63800	102
2.64167	103
2.64533	107
2.64900	110
2.65267	108
2.65633	103
2.66000	100
2.66367	100
2.66733	106
2.67100	114
2.67467	118
2.67833	120
2.68200	119
2.68567	114
2.68933	105
2.69300	97
2.69667	91
2.70033	88
2.70400	88
2.70767	88
2.71133	89
2.71500	89
2.71867	88
2.72233	88
2.72600	93
2.72967	97
2.73333	99
2.73700	98
2.74067	97
2.74433	101
2.74800	104
2.75167	106
2.75533	108
2.75900	115
2.76267	119
2.76633	121
2.77000	119
2.77367	115
2.77733	113
2.78100	113
2.78467	115
2.78833	113
2.79200	108
2.79567	105
2.79933	107
2.80300	109
2.80667	110
2.81033	110
2.81400	108
2.81767	107
2.82133	109
2.82500	110
2.82867	112
2.83233	113
2.83600	114
2.83967	114
2.84333	114
2.84700	116
2.85067	118
2.85433	119
2.85800	122
2.86167	124
2.86533	125
2.86900	122
2.87267	116
2.87633	109
2.88000	107
2.88367	110
2.88733	117
2.89100	124
2.89467	131
2.89833	134
2.90200	131
2.90567	124
2.90933	121
2.91300	120
2.91667	117
2.92033	115
2.92400	113
2.92767	112
2.93133	111
2.93500	111
2.93867	112
2.94233	113
2.94600	113
2.94967	112
2.95333	113
2.95700	117
2.96067	123
2.96433	125
2.96800	124
2.97167	122
2.97533	124
2.97900	130
2.98267	134
2.98633	136
2.99000	140
2.99367	145
2.99733	147
3.00100	148
3.00467	148
3.00833	148
3.01200	147
3.01567	144
3.01933	138
3.02300	135
3.02667	134
3.03033	136
3.03400	139
3.03767	142
3.04133	142
3.04500	136
3.04867	125
3.05233	115
3.05600	110
3.05967	112
3.06333	116
3.06700	120
3.07067	125
3.07433	127
3.07800	125
3.08167	122
3.08533	118
3.08900	114
3.09267	112
3.09633	115
3.10000	120
3.10367	123
3.10733	123
3.11100	122
3.11467	122
3.11833	125
3.12200	129
3.12567	131
3.12933	132
3.13300	133
3.13667	134
3.14033	134
3.14400	130
3.14767	129
3.15133	132
3.15500	137
3.15867	139
3.16233	137
3.16600	134
3.16967	133
3.17333	135
3.17700	138
3.18067	141
3.18433	146
3.18800	148
3.19167	146
3.19533	139
3.19900	130
3.20267	121
3.20633	118
3.21000	122
3.21367	126
3.21733	129
3.22100	129
3.22467	125
3.22833	121
3.23200	122
3.23567	126
3.23933	130
3.24300	131
3.24667	126
3.25033	121
3.25400	118
3.25767	118
3.26133	119
3.26500	120
3.26867	124
3.27233	130
3.27600	132
3.27967	129
3.28333	120
3.28700	114
3.29067	112
3.29433	113
3.29800	116
3.30167	118
3.30533	120
3.30900	124
3.31267	126
3.31633	125
3.32000	118
3.32367	111
3.32733	106
3.33100	105
3.33467	104
3.33833	104
3.34200	108
3.34567	117
3.34933	128
3.35300	136
3.35667	136
3.36033	133
3.36400	128
3.36767	125
3.37133	124
3.37500	127
3.37867	132
3.38233	135
3.38600	138
3.38967	142
3.39333	144
3.39700	142
3.40067	136
3.40433	129
3.40800	120
3.41167	111
3.41533	104
3.41900	102
3.42267	102
3.42633	104
3.43000	106
3.43367	108
3.43733	108
3.44100	107
3.44467	104
3.44833	101
3.45200	101
3.45567	101
3.45933	104
3.46300	108
3.46667	111
3.47033	116
3.47400	122
3.47767	123
3.48133	120
3.48500	117
3.48867	113
3.49233	110
3.49600	108
3.49967	110
3.50333	112
3.50700	111
3.51067	108
3.51433	108
3.51800	109
3.52167	108
3.52533	107
3.52900	107
3.53267	106
3.53633	102
3.54000	99
3.54367	99
3.54733	101
3.55100	104
3.55467	107
3.55833	110
3.56200	113
3.56567	116
3.56933	117
3.57300	115
3.57667	112
3.58033	109
3.58400	109
3.58767	108
3.59133	103
3.59500	98
3.59867	93
3.60233	88
3.60600	88
3.60967	93
3.61333	98
3.61700	100
3.62067	96
3.62433	91
3.62800	86
3.63167	83
3.63533	82
3.63900	84
3.64267	89
3.64633	93
3.65000	92
3.65367	86
3.65733	79
3.66100	74
3.66467	69
3.66833	65
3.67200	64
3.67567	65
3.67933	68
3.68300	77
3.68667	88
3.69033	95
3.69400	94
3.69767	88
3.70133	78
3.70500	73
3.70867	74
3.71233	79
3.71600	84
3.71967	88
3.72333	91
3.72700	92
3.73067	91
3.73433	87
3.73800	81
3.74167	76
3.74533	72
3.74900	71
3.75267	76
3.75633	85
3.76000	92
3.76367	95
3.76733	93
3.77100	91
3.77467	87
3.77833	81
3.78200	77
3.78567	75
3.78933	75
3.79300	76
3.79667	77
3.80033	75
3.80400	70
3.80767	65
3.81133	64
3.81500	69
3.81867	75
3.82233	79
3.82600	84
3.82967	88
3.83333	86
3.83700	81
3.84067	77
3.84433	75
3.84800	76
3.85167	77
3.85533	76
3.85900	76
3.86267	76
3.86633	76
3.87000	78
3.87367	80
3.87733	78
3.88100	75
3.88467	75
3.88833	79
3.89200	82
3.89567	81
3.89933	78
3.90300	74
3.90667	73
3.91033	74
3.91400	73
3.91767	75
3.92133	73
3.92500	68
3.92867	61
3.93233	58
3.93600	58
3.93967	58
3.94333	57
3.94700	58
3.95067	60
3.95433	64
3.95800	68
3.96167	73
3.96533	78
3.96900	80
3.97267	81
3.97633	83
3.98000	84
3.98367	83
3.98733	78
3.99100	73
3.99467	70
3.99833	66

[Chromatogram (Ch2)]
Interval(msec)	220
# of Points	1091
Start Time(min)	0.002
End Time(min)	3.998
R.Time (min)	Intensity
0.00167	0
0.00533	1
0.00900	1
0.01267	0
0.01633	0
0.02000	0
0.02367	0
0.02733	0
0.03100	0
0.03467	1
0.03833	1
0.04200	1
0.04567	2
0.04933	2
0.05300	2
0.05667	3
0.06033	3
0.06400	3
0.06767	4
0.07133	4
0.07500	5
0.07867	5
0.08233	6
0.08600	6
0.08967	6
0.09333	7
0.09700	7
0.10067	8
0.10433	8
0.10800	8
0.11167	8
0.11533	8
0.11900	8
0.12267	8
0.12633	8
0.13000	8
0.13367	8
0.13733	8
0.14100	7
0.14467	7
0.14833	7
0.15200	7
0.15567	7
0.15933	7
0.16300	7
0.16667	6
0.17033	6
0.17400	6
0.17767	5
0.18133	5
0.18500	5
0.18867	5
0.19233	4
0.19600	4
0.19967	3
0.20333	3
0.20700	3
0.21067	3
0.21433	3
0.21800	3
0.22167	3
0.22533	3
0.22900	4
0.23267	4
0.23633	4
0.24000	4
0.24367	4
0.24733	4
0.25100	4
0.25467	4
0.25833	4
0.26200	4
0.26567	4
0.26933	4
0.27300	4
0.27667	4
0.28033	4
0.28400	3
0.28767	4
0.29133	4
0.29500	4
0.29867	4
0.30233	4
0.30600	4
0.30967	4
0.31333	4
0.31700	4
0.32067	3
0.32433	3
0.32800	3
0.33167	3
0.33533	3
0.33900	3
0.34267	3
0.34633	3
0.35000	3
0.35367	4
0.35733	4
0.36100	4
0.36467	4
0.36833	4
0.37200	4
0.37567	4
0.37933	4
0.38300	3
0.38667	3
0.39033	3
0.39400	3
0.39767	3
0.40133	3
0.40500	2
0.40867	2
0.41233	2
0.41600	2
0.41967	2
0.42333	2
0.42700	2
0.43067	2
0.43433	2
0.43800	2
0.44167	2
0.44533	2
0.44900	2
0.45267	2
0.45633	2
0.46000	2
0.46367	2
0.46733	2
0.47100	2
0.47467	3
0.47833	3
0.48200	3
0.48567	3
0.48933	3
0.49300	3
0.49667	3
0.50033	3
0.50400	3
0.50767	3
0.51133	3
0.51500	3
0.51867	3
0.52233	3
0.52600	3
0.52967	3
0.53333	3
0.53700	3
0.54067	3
0.54433	2
0.54800	3
0.55167	3
0.55533	3
0.55900	2
0.56267	2
0.56633	2
0.57000	1
0.57367	1
0.57733	1
0.58100	1
0.58467	1
0.58833	1
0.59200	1
0.59567	1
0.59933	1
0.60300	1
0.60667	2
0.61033	2
0.61400	2
0.61767	2
0.62133	2
0.62500	2
0.62867	2
0.63233	2
0.63600	2
0.63967	2
0.64333	2
0.64700	2
0.65067	2
0.65433	2
0.65800	2
0.66167	2
0.66533	2
0.66900	3
0.67267	3
0.67633	3
0.68000	3
0.68367	3
0.68733	3
0.69100	3
0.69467	2
0.69833	3
0.70200	3
0.70567	3
0.70933	3
0.71300	3
0.71667	3
0.72033	3
0.72400	3
0.72767	3
0.73133	3
0.73500	2
0.73867	2
0.74233	2
0.74600	2
0.74967	2
0.75333	2
0.75700	2
0.76067	2
0.76433	2
0.76800	3
0.77167	3
0.77533	2
0.77900	2
0.78267	2
0.78633	2
0.79000	2
0.79367	2
0.79733	2
0.80100	2
0.80467	2
0.80833	2
0.81200	1
0.81567	1
0.81933	1
0.82300	1
0.82667	1
0.83033	1
0.83400	1
0.83767	1
0.84133	1
0.84500	1
0.84867	2
0.85233	2
0.85600	2
0.85967	1
0.86333	1
0.86700	0
0.87067	0
0.87433	0
0.87800	0
0.88167	0
0.88533	0
0.88900	1
0.89267	1
0.89633	1
0.90000	1
0.90367	1
0.90733	1
0.91100	1
0.91467	1
0.91833	1
0.92200	1
0.92567	1
0.92933	1
0.93300	1
0.93667	1
0.94033	1
0.94400	1
0.94767	1
0.95133	2
0.95500	2
0.95867	2
0.96233	2
0.96600	2
0.96967	2
0.97333	2
0.97700	2
0.98067	2
0.98433	2
0.98800	2
0.99167	2
0.99533	1
0.99900	1
1.00267	1
1.00633	1
1.01000	1
1.01367	1
1.01733	1
1.02100	1
1.02467	1
1.02833	1
1.03200	1
1.03567	1
1.03933	1
1.04300	1
1.04667	1
1.05033	2
1.05400	1
1.05767	1
1.06133	1
1.06500	1
1.06867	1
1.07233	1
1.07600	1
1.07967	0
1.08333	0
1.08700	1
1.09067	1
1.09433	1
1.09800	2
1.10167	2
1.10533	2
1.10900	2
1.11267	2
1.11633	2
1.12000	2
1.12367	2
1.12733	2
1.13100	1
1.13467	1
1.13833	1
1.14200	1
1.14567	1
1.14933	1
1.15300	1
1.15667	1
1.16033	1
1.16400	1
1.16767	1
1.17133	1
1.17500	1
1.17867	1
1.18233	1
1.18600	1
1.18967	1
1.19333	1
1.19700	1
1.20067	1
1.20433	1
1.20800	1
1.21167	1
1.21533	1
1.21900	1
1.22267	1
1.22633	1
1.23000	1
1.23367	2
1.23733	2
1.24100	2
1.24467	2
1.24833	2
1.25200	1
1.25567	1
1.25933	1
1.26300	1
1.26667	0
1.27033	0
1.27400	0
1.27767	0
1.28133	0
1.28500	1
1.28867	1
1.29233	1
1.29600	2
1.29967	2
1.30333	2
1.30700	2
1.31067	2
1.31433	2
1.31800	2
1.32167	2
1.32533	1
1.32900	1
1.33267	1
1.33633	1
1.34000	1
1.34367	1
1.34733	1
1.35100	1
1.35467	1
1.35833	1
1.36200	1
1.36567	1
1.36933	2
1.37300	2
1.37667	2
1.38033	1
1.38400	1
1.38767	1
1.39133	1
1.39500	0
1.39867	0
1.40233	0
1.40600	0
1.40967	0
1.41333	1
1.41700	1
1.42067	1
1.42433	1
1.42800	1
1.43167	1
1.43533	1
1.43900	1
1.44267	1
1.44633	1
1.45000	0
1.45367	0
1.45733	0
1.46100	0
1.46467	0
1.46833	0
1.47200	0
1.47567	1
1.47933	1
1.48300	1
1.48667	1
1.49033	1
1.49400	1
1.49767	1
1.50133	1
1.50500	1
1.50867	1
1.51233	1
1.51600	1
1.51967	0
1.52333	0
1.52700	0
1.53067	-0
1.53433	-0
1.53800	-0
1.54167	-0
1.54533	-0
1.54900	-1
1.55267	-1
1.55633	-1
1.56000	-0
1.56367	-0
1.56733	-0
1.57100	-0
1.57467	-0
1.57833	-0
1.58200	-1
1.58567	-1
1.58933	-1
1.59300	-1
1.59667	-1
1.60033	-2
1.60400	-3
1.60767	-4
1.61133	-6
1.61500	-7
1.61867	-10
1.62233	-12
1.62600	-15
1.62967	-18
1.63333	-22
1.63700	-25
1.64067	-29
1.64433	-33
1.64800	-37
1.65167	-41
1.65533	-45
1.65900	-49
1.66267	-52
1.66633	-56
1.67000	-61
1.67367	-65
1.67733	-70
1.68100	-75
1.68467	-80
1.68833	-85
1.69200	-89
1.69567	-93
1.69933	-96
1.70300	-99
1.70667	-101
1.71033	-104
1.71400	-105
1.71767	-106
1.72133	-107
1.72500	-108
1.72867	-108
1.73233	-108
1.73600	-108
1.73967	-108
1.74333	-108
1.74700	-109
1.75067	-109
1.75433	-109
1.75800	-110
1.76167	-111
1.76533	-111
1.76900	-112
1.77267	-112
1.77633	-113
1.78000	-113
1.78367	-114
1.78733	-115
1.79100	-116
1.79467	-116
1.79833	-117
1.80200	-117
1.80567	-117
1.80933	-117
1.81300	-117
1.81667	-118
1.82033	-118
1.82400	-118
1.82767	-118
1.83133	-118
1.83500	-117
1.83867	-118
1.84233	-118
1.84600	-118
1.84967	-118
1.85333	-118
1.85700	-118
1.86067	-117
1.86433	-117
1.86800	-118
1.87167	-118
1.87533	-119
1.87900	-119
1.88267	-119
1.88633	-119
1.89000	-119
1.89367	-118
1.89733	-118
1.90100	-118
1.90467	-117
1.90833	-117
1.91200	-117
1.91567	-117
1.91933	-117
1.92300	-117
1.92667	-116
1.93033	-116
1.93400	-116
1.93767	-116
1.94133	-115
1.94500	-115
1.94867	-115
1.95233	-114
1.95600	-114
1.95967	-114
1.96333	-114
1.96700	-114
1.97067	-114
1.97433	-114
1.97800	-113
1.98167	-113
1.98533	-113
1.98900	-113
1.99267	-113
1.99633	-113
2.00000	-113
2.00367	-113
2.00733	-113
2.01100	-112
2.01467	-112
2.01833	-112
2.02200	-112
2.02567	-112
2.02933	-112
2.03300	-112
2.03667	-111
2.04033	-110
2.04400	-109
2.04767	-109
2.05133	-108
2.05500	-107
2.05867	-107
2.06233	-107
2.06600	-107
2.06967	-107
2.07333	-106
2.07700	-106
2.08067	-106
2.08433	-106
2.08800	-105
2.09167	-105
2.09533	-104
2.09900	-104
2.10267	-103
2.10633	-103
2.11000	-103
2.11367	-103
2.11733	-102
2.12100	-102
2.12467	-102
2.12833	-102
2.13200	-102
2.13567	-101
2.13933	-101
2.14300	-101
2.14667	-100
2.15033	-100
2.15400	-100
2.15767	-100
2.16133	-100
2.16500	-100
2.16867	-100
2.17233	-99
2.17600	-98
2.17967	-98
2.18333	-97
2.18700	-97
2.19067	-97
2.19433	-96
2.19800	-96
2.20167	-95
2.20533	-95
2.20900	-94
2.21267	-94
2.21633	-94
2.22000	-94
2.22367	-94
2.22733	-94
2.23100	-94
2.23467	-93
2.23833	-93
2.24200	-92
2.24567	-92
2.24933	-91
2.25300	-91
2.25667	-90
2.26033	-90
2.26400	-89
2.26767	-89
2.27133	-89
2.27500	-89
2.27867	-89
2.28233	-88
2.28600	-88
2.28967	-88
2.29333	-87
2.29700	-87
2.30067	-87
2.30433	-87
2.30800	-87
2.31167	-87
2.31533	-87
2.31900	-87
2.32267	-86
2.32633	-86
2.33000	-85
2.33367	-85
2.33733	-85
2.34100	-84
2.34467	-84
2.34833	-84
2.35200	-83
2.35567	-83
2.35933	-82
2.36300	-81
2.36667	-80
2.37033	-78
2.37400	-76
2.37767	-73
2.38133	-70
2.38500	-66
2.38867	-62
2.39233	-58
2.39600	-53
2.39967	-49
2.40333	-44
2.40700	-40
2.41067	-36
2.41433	-32
2.41800	-28
2.42167	-25
2.42533	-23
2.42900	-20
2.43267	-18
2.43633	-16
2.44000	-13
2.44367	-11
2.44733	-9
2.45100	-8
2.45467	-7
2.45833	-5
2.46200	-4
2.46567	-2
2.46933	-0
2.47300	2
2.47667	3
2.48033	5
2.48400	6
2.48767	7
2.49133	7
2.49500	8
2.49867	8
2.50233	8
2.50600	8
2.50967	9
2.51333	9
2.51700	9
2.52067	10
2.52433	10
2.52800	11
2.53167	11
2.53533	12
2.53900	12
2.54267	13
2.54633	13
2.55000	14
2.55367	14
2.55733	15
2.56100	16
2.56467	16
2.56833	17
2.57200	18
2.57567	18
2.57933	18
2.58300	18
2.58667	17
2.59033	17
2.59400	17
2.59767	17
2.60133	17
2.60500	17
2.60867	17
2.61233	17
2.61600	17
2.61967	17
2.62333	18
2.62700	19
2.63067	19
2.63433	20
2.63800	20
2.64167	20
2.64533	20
2.64900	20
2.65267	20
2.65633	21
2.66000	21
2.66367	22
2.66733	22
2.67100	22
2.67467	22
2.67833	23
2.68200	23
2.68567	24
2.68933	25
2.69300	25
2.69667	26
2.70033	26
2.70400	26
2.70767	26
2.71133	25
2.71500	25
2.71867	25
2.72233	25
2.72600	25
2.72967	25
2.73333	25
2.73700	25
2.74067	26
2.74433	26
2.74800	26
2.75167	27
2.75533	27
2.75900	27
2.76267	27
2.76633	27
2.77000	26
2.77367	26
2.77733	26
2.78100	26
2.78467	25
2.78833	25
2.79200	25
2.79567	25
2.79933	25
2.80300	25
2.80667	25
2.81033	26
2.81400	26
2.81767	26
2.82133	26
2.82500	26
2.82867	27
2.83233	27
2.83600	27
2.83967	26
2.84333	25
2.84700	22
2.85067	17
2.85433	10
2.85800	-0
2.86167	-14
2.86533	-31
2.86900	-52
2.87267	-77
2.87633	-105
2.88000	-138
2.88367	-174
2.88733	-213
2.89100	-255
2.89467	-300
2.89833	-346
2.90200	-394
2.90567	-444
2.90933	-493
2.91300	-543
2.91667	-593
2.92033	-643
2.92400	-692
2.92767	-741
2.93133	-789
2.93500	-839
2.93867	-892
2.94233	-952
2.94600	-1012
2.94967	-1062
2.95333	-1091
2.95700	-1094
2.96067	-1071
2.96433	-1026
2.96800	-964
2.97167	-890
2.97533	-811
2.97900	-730
2.98267	-650
2.98633	-574
2.99000	-504
2.99367	-439
2.99733	-380
3.00100	-328
3.00467	-281
3.00833	-240
3.01200	-204
3.01567	-173
3.01933	-145
3.02300	-122
3.02667	-101
3.03033	-84
3.03400	-69
3.03767	-57
3.04133	-46
3.04500	-37
3.04867	-29
3.05233	-23
3.05600	-17
3.05967	-12
3.06333	-8
3.06700	-5
3.07067	-2
3.07433	1
3.07800	3
3.08167	5
3.08533	7
3.08900	8
3.09267	9
3.09633	11
3.10000	12
3.10367	13
3.10733	13
3.11100	14
3.11467	15
3.11833	16
3.12200	16
3.12567	17
3.12933	17
3.13300	17
3.13667	18
3.14033	18
3.14400	18
3.14767	18
3.15133	19
3.15500	19
3.15867	19
3.16233	20
3.16600	20
3.16967	20
3.17333	21
3.17700	21
3.18067	21
3.18433	21
3.18800	21
3.19167	21
3.19533	21
3.19900	21
3.20267	22
3.20633	22
3.21000	22
3.21367	23
3.21733	23
3.22100	23
3.22467	23
3.22833	24
3.23200	24
3.23567	24
3.23933	24
3.24300	24
3.24667	24
3.25033	24
3.25400	24
3.25767	24
3.26133	24
3.26500	25
3.26867	25
3.27233	25
3.27600	26
3.27967	26
3.28333	26
3.28700	27
3.29067	27
3.29433	27
3.29800	28
3.30167	28
3.30533	28
3.30900	29
3.31267	29
3.31633	30
3.32000	30
3.32367	30
3.32733	31
3.33100	31
3.33467	31
3.33833	31
3.34200	31
3.34567	31
3.34933	31
3.35300	31
3.35667	31
3.36033	31
3.36400	31
3.36767	31
3.37133	31
3.37500	31
3.37867	31
3.38233	31
3.38600	31
3.38967	31
3.39333	31
3.39700	31
3.40067	31
3.40433	31
3.40800	31
3.41167	31
3.41533	31
3.41900	31
3.42267	31
3.42633	31
3.43000	31
3.43367	31
3.43733	31
3.44100	30
3.44467	30
3.44833	30
3.45200	30
3.45567	30
3.45933	29
3.46300	29
3.46667	29
3.47033	29
3.47400	29
3.47767	29
3.48133	29
3.48500	29
3.48867	28
3.49233	28
3.49600	28
3.49967	28
3.50333	29
3.50700	29
3.51067	29
3.51433	29
3.51800	29
3.52167	28
3.52533	28
3.52900	28
3.53267	28
3.53633	28
3.54000	28
3.54367	28
3.54733	28
3.55100	29
3.55467	29
3.55833	29
3.56200	29
3.56567	28
3.56933	28
3.57300	28
3.57667	28
3.58033	28
3.58400	28
3.58767	28
3.59133	28
3.59500	28
3.59867	28
3.60233	28
3.60600	28
3.60967	28
3.61333	28
3.61700	29
3.62067	29
3.62433	29
3.62800	29
3.63167	29
3.63533	29
3.63900	29
3.64267	29
3.64633	29
3.65000	28
3.65367	28
3.65733	28
3.66100	28
3.66467	28
3.66833	28
3.67200	28
3.67567	28
3.67933	28
3.68300	28
3.68667	28
3.69033	28
3.69400	29
3.69767	29
3.70133	29
3.70500	29
3.70867	28
3.71233	28
3.71600	28
3.71967	28
3.72333	27
3.72700	27
3.73067	27
3.73433	28
3.73800	28
3.74167	28
3.74533	28
3.74900	28
3.75267	28
3.75633	29
3.76000	29
3.76367	29
3.76733	29
3.77100	29
3.77467	29
3.77833	29
3.78200	29
3.78567	29
3.78933	29
3.79300	29
3.79667	29
3.80033	29
3.80400	29
3.80767	29
3.81133	29
3.81500	29
3.81867	29
3.82233	29
3.82600	28
3.82967	28
3.83333	28
3.83700	28
3.84067	28
3.84433	27
3.84800	27
3.85167	27
3.85533	28
3.85900	28
3.86267	28
3.86633	28
3.87000	28
3.87367	28
3.87733	28
3.88100	28
3.88467	28
3.88833	28
3.89200	28
3.89567	28
3.89933	28
3.90300	28
3.90667	28
3.91033	28
3.91400	28
3.91767	28
3.92133	28
3.92500	28
3.92867	28
3.93233	28
3.93600	28
3.93967	28
3.94333	29
3.94700	29
3.95067	29
3.95433	29
3.95800	29
3.96167	29
3.96533	29
3.96900	29
3.97267	29
3.97633	29
3.98000	29
3.98367	29
3.98733	29
3.99100	29
3.99467	29
3.99833	29

[Chromatogram (Ch3)]
Interval(msec)	220
# of Points	1091
Start Time(min)	0.002
End Time(min)	3.998
R.Time (min)	Intensity
0.00167	1
0.00533	1
0.00900	-1
0.01267	0
0.01633	1
0.02000	2
0.02367	4
0.02733	6
0.03100	7
0.03467	8
0.03833	11
0.04200	13
0.04567	13
0.04933	10
0.05300	6
0.05667	4
0.06033	5
0.06400	6
0.06767	6
0.07133	7
0.07500	6
0.07867	6
0.08233	7
0.08600	8
0.08967	8
0.09333	7
0.09700	6
0.10067	5
0.10433	6
0.10800	7
0.11167	9
0.11533	8
0.11900	7
0.12267	7
0.12633	6
0.13000	8
0.13367	8
0.13733	9
0.14100	9
0.14467	10
0.14833	12
0.15200	13
0.15567	13
0.15933	15
0.16300	15
0.16667	16
0.17033	16
0.17400	17
0.17767	16
0.18133	14
0.18500	13
0.18867	12
0.19233	12
0.19600	12
0.19967	13
0.20333	14
0.20700	13
0.21067	13
0.21433	13
0.21800	14
0.22167	13
0.22533	13
0.22900	14
0.23267	15
0.23633	13
0.24000	13
0.24367	12
0.24733	11
0.25100	12
0.25467	13
0.25833	16
0.26200	18
0.26567	19
0.26933	20
0.27300	20
0.27667	20
0.28033	20
0.28400	18
0.28767	18
0.29133	18
0.29500	19
0.29867	19
0.30233	19
0.30600	20
0.30967	21
0.31333	21
0.31700	18
0.32067	15
0.32433	15
0.32800	16
0.33167	15
0.33533	15
0.33900	17
0.34267	19
0.34633	20
0.35000	20
0.35367	18
0.35733	18
0.36100	21
0.36467	23
0.36833	23
0.37200	24
0.37567	24
0.37933	22
0.38300	21
0.38667	21
0.39033	22
0.39400	21
0.39767	19
0.40133	18
0.40500	19
0.40867	20
0.41233	20
0.41600	22
0.41967	23
0.42333	24
0.42700	23
0.43067	21
0.43433	22
0.43800	23
0.44167	23
0.44533	24
0.44900	26
0.45267	26
0.45633	26
0.46000	22
0.46367	19
0.46733	19
0.47100	19
0.47467	20
0.47833	22
0.48200	23
0.48567	24
0.48933	24
0.49300	24
0.49667	24
0.50033	25
0.50400	26
0.50767	25
0.51133	25
0.51500	24
0.51867	22
0.52233	23
0.52600	25
0.52967	27
0.53333	25
0.53700	23
0.54067	22
0.54433	24
0.54800	26
0.55167	28
0.55533	27
0.55900	27
0.56267	27
0.56633	26
0.57000	25
0.57367	24
0.57733	26
0.58100	28
0.58467	29
0.58833	30
0.59200	31
0.59567	30
0.59933	29
0.60300	29
0.60667	29
0.61033	29
0.61400	29
0.61767	31
0.62133	32
0.62500	32
0.62867	28
0.63233	26
0.63600	27
0.63967	30
0.64333	34
0.64700	37
0.65067	37
0.65433	36
0.65800	34
0.66167	33
0.66533	34
0.66900	34
0.67267	34
0.67633	32
0.68000	30
0.68367	29
0.68733	28
0.69100	30
0.69467	32
0.69833	33
0.70200	35
0.70567	35
0.70933	34
0.71300	33
0.71667	35
0.72033	37
0.72400	36
0.72767	34
0.73133	34
0.73500	33
0.73867	33
0.74233	32
0.74600	32
0.74967	32
0.75333	32
0.75700	34
0.76067	35
0.76433	34
0.76800	31
0.77167	29
0.77533	29
0.77900	31
0.78267	33
0.78633	35
0.79000	35
0.79367	36
0.79733	36
0.80100	35
0.80467	35
0.80833	35
0.81200	35
0.81567	37
0.81933	39
0.82300	40
0.82667	41
0.83033	41
0.83400	40
0.83767	38
0.84133	35
0.84500	34
0.84867	34
0.85233	35
0.85600	35
0.85967	34
0.86333	33
0.86700	33
0.87067	34
0.87433	34
0.87800	35
0.88167	35
0.88533	36
0.88900	37
0.89267	39
0.89633	38
0.90000	37
0.90367	36
0.90733	37
0.91100	39
0.91467	39
0.91833	37
0.92200	36
0.92567	35
0.92933	35
0.93300	38
0.93667	40
0.94033	40
0.94400	39
0.94767	38
0.95133	37
0.95500	35
0.95867	34
0.96233	36
0.96600	37
0.96967	38
0.97333	41
0.97700	41
0.98067	42
0.98433	41
0.98800	40
0.99167	38
0.99533	38
0.99900	37
1.00267	34
1.00633	33
1.01000	35
1.01367	36
1.01733	37
1.02100	37
1.02467	36
1.02833	34
1.03200	34
1.03567	35
1.03933	36
1.04300	35
1.04667	35
1.05033	35
1.05400	34
1.05767	34
1.06133	35
1.06500	35
1.06867	35
1.07233	37
1.07600	38
1.07967	36
1.08333	32
1.08700	31
1.09067	34
1.09433	38
1.09800	41
1.10167	43
1.10533	42
1.10900	40
1.11267	38
1.11633	37
1.12000	37
1.12367	38
1.12733	38
1.13100	38
1.13467	40
1.13833	38
1.14200	35
1.14567	33
1.14933	34
1.15300	33
1.15667	34
1.16033	36
1.16400	38
1.16767	39
1.17133	38
1.17500	37
1.17867	36
1.18233	37
1.18600	38
1.18967	41
1.19333	41
1.19700	40
1.20067	40
1.20433	41
1.20800	40
1.21167	39
1.21533	40
1.21900	42
1.22267	41
1.22633	41
1.23000	41
1.23367	41
1.23733	38
1.24100	37
1.24467	37
1.24833	40
1.25200	41
1.25567	40
1.25933	38
1.26300	39
1.26667	40
1.27033	39
1.27400	37
1.27767	36
1.28133	36
1.28500	35
1.28867	34
1.29233	35
1.29600	35
1.29967	35
1.30333	35
1.30700	37
1.31067	40
1.31433	41
1.31800	40
1.32167	38
1.32533	38
1.32900	38
1.33267	39
1.33633	40
1.34000	39
1.34367	38
1.34733	35
1.35100	32
1.35467	33
1.35833	34
1.36200	32
1.36567	31
1.36933	36
1.37300	39
1.37667	40
1.38033	40
1.38400	39
1.38767	38
1.39133	35
1.39500	36
1.39867	35
1.40233	35
1.40600	37
1.40967	38
1.41333	39
1.41700	39
1.42067	40
1.42433	39
1.42800	39
1.43167	38
1.43533	39
1.43900	40
1.44267	42
1.44633	42
1.45000	40
1.45367	37
1.45733	36
1.46100	35
1.46467	35
1.46833	36
1.47200	37
1.47567	36
1.47933	35
1.48300	31
1.48667	29
1.49033	29
1.49400	33
1.49767	33
1.50133	32
1.50500	33
1.50867	31
1.51233	31
1.51600	32
1.51967	34
1.52333	33
1.52700	31
1.53067	30
1.53433	29
1.53800	31
1.54167	34
1.54533	37
1.54900	39
1.55267	40
1.55633	40
1.56000	40
1.56367	37
1.56733	34
1.57100	33
1.57467	34
1.57833	35
1.58200	34
1.58567	31
1.58933	31
1.59300	33
1.59667	33
1.60033	32
1.60400	32
1.60767	30
1.61133	29
1.61500	31
1.61867	31
1.62233	31
1.62600	33
1.62967	35
1.63333	36
1.63700	35
1.64067	35
1.64433	37
1.64800	38
1.65167	39
1.65533	38
1.65900	39
1.66267	40
1.66633	42
1.67000	42
1.67367	41
1.67733	42
1.68100	43
1.68467	46
1.68833	46
1.69200	46
1.69567	46
1.69933	48
1.70300	50
1.70667	50
1.71033	49
1.71400	48
1.71767	46
1.72133	46
1.72500	47
1.72867	48
1.73233	50
1.73600	53
1.73967	56
1.74333	57
1.74700	57
1.75067	58
1.75433	58
1.75800	56
1.76167	54
1.76533	54
1.76900	56
1.77267	57
1.77633	57
1.78000	57
1.78367	59
1.78733	61
1.79100	61
1.79467	59
1.79833	58
1.80200	58
1.80567	59
1.80933	59
1.81300	59
1.81667	59
1.82033	59
1.82400	57
1.82767	57
1.83133	59
1.83500	58
1.83867	56
1.84233	58
1.84600	59
1.84967	59
1.85333	57
1.85700	56
1.86067	57
1.86433	57
1.86800	57
1.87167	56
1.87533	57
1.87900	57
1.88267	60
1.88633	60
1.89000	58
1.89367	56
1.89733	56
1.90100	56
1.90467	56
1.90833	56
1.91200	58
1.91567	60
1.91933	63
1.92300	63
1.92667	61
1.93033	62
1.93400	61
1.93767	60
1.94133	61
1.94500	64
1.94867	68
1.95233	69
1.95600	69
1.95967	69
1.96333	70
1.96700	70
1.97067	69
1.97433	68
1.97800	69
1.98167	69
1.98533	69
1.98900	69
1.99267	69
1.99633	70
2.00000	71
2.00367	73
2.00733	74
2.01100	74
2.01467	74
2.01833	75
2.02200	76
2.02567	76
2.02933	78
2.03300	78
2.03667	78
2.04033	77
2.04400	78
2.04767	80
2.05133	83
2.05500	85
2.05867	87
2.06233	90
2.06600	90
2.06967	89
2.07333	89
2.07700	90
2.08067	93
2.08433	94
2.08800	93
2.09167	92
2.09533	91
2.09900	93
2.10267	93
2.10633	92
2.11000	92
2.11367	94
2.11733	95
2.12100	96
2.12467	97
2.12833	99
2.13200	102
2.13567	101
2.13933	100
2.14300	97
2.14667	96
2.15033	96
2.15400	97
2.15767	98
2.16133	100
2.16500	102
2.16867	105
2.17233	108
2.17600	110
2.17967	110
2.18333	108
2.18700	105
2.19067	105
2.19433	107
2.19800	110
2.20167	111
2.20533	111
2.20900	113
2.21267	116
2.21633	115
2.22000	114
2.22367	113
2.22733	113
2.23100	113
2.23467	113
2.23833	115
2.24200	116
2.24567	115
2.24933	116
2.25300	117
2.25667	116
2.26033	117
2.26400	120
2.26767	123
2.27133	125
2.27500	126
2.27867	128
2.28233	128
2.28600	125
2.28967	124
2.29333	125
2.29700	126
2.30067	128
2.30433	130
2.30800	128
2.31167	127
2.31533	128
2.31900	129
2.32267	129
2.32633	130
2.33000	131
2.33367	133
2.33733	136
2.34100	136
2.34467	135
2.34833	135
2.35200	135
2.35567	135
2.35933	134
2.36300	134
2.36667	134
2.37033	133
2.37400	133
2.37767	134
2.38133	134
2.38500	131
2.38867	129
2.39233	130
2.39600	132
2.39967	135
2.40333	138
2.40700	143
2.41067	146
2.41433	148
2.41800	150
2.42167	149
2.42533	149
2.42900	149
2.43267	150
2.43633	150
2.44000	149
2.44367	158
2.44733	186
2.45100	217
2.45467	240
2.45833	253
2.46200	255
2.46567	253
2.46933	249
2.47300	242
2.47667	237
2.48033	229
2.48400	220
2.48767	211
2.49133	202
2.49500	196
2.49867	190
2.50233	184
2.50600	181
2.50967	180
2.51333	182
2.51700	184
2.52067	186
2.52433	191
2.52800	203
2.53167	221
2.53533	241
2.53900	263
2.54267	287
2.54633	312
2.55000	339
2.55367	368
2.55733	400
2.56100	434
2.56467	465
2.56833	495
2.57200	521
2.57567	547
2.57933	572
2.58300	595
2.58667	612
2.59033	627
2.59400	639
2.59767	644
2.60133	640
2.60500	625
2.60867	603
2.61233	575
2.61600	541
2.61967	505
2.62333	469
2.62700	435
2.63067	405
2.63433	380
2.63800	360
2.64167	347
2.64533	340
2.64900	337
2.65267	339
2.65633	342
2.66000	346
2.66367	357
2.66733	370
2.67100	382
2.67467	394
2.67833	408
2.68200	422
2.68567	433
2.68933	445
2.69300	455
2.69667	464
2.70033	475
2.70400	488
2.70767	498
2.71133	507
2.71500	514
2.71867	522
2.72233	529
2.72600	535
2.72967	541
2.73333	548
2.73700	554
2.74067	560
2.74433	563
2.74800	567
2.75167	570
2.75533	573
2.75900	575
2.76267	577
2.76633	579
2.77000	579
2.77367	580
2.77733	580
2.78100	582
2.78467	584
2.78833	584
2.79200	584
2.79567	585
2.79933	586
2.80300	588
2.80667	590
2.81033	590
2.81400	590
2.81767	593
2.82133	602
2.82500	622
2.82867	663
2.83233	743
2.83600	888
2.83967	1123
2.84333	1470
2.84700	1933
2.85067	2508
2.85433	3162
2.85800	3851
2.86167	4523
2.86533	5123
2.86900	5602
2.87267	5929
2.87633	6091
2.88000	6096
2.88367	5962
2.88733	5716
2.89100	5388
2.89467	5012
2.89833	4612
2.90200	4211
2.90567	3822
2.90933	3454
2.91300	3110
2.91667	2799
2.92033	2520
2.92400	2269
2.92767	2048
2.93133	1853
2.93500	1680
2.93867	1527
2.94233	1397
2.94600	1286
2.94967	1191
2.95333	1108
2.95700	1037
2.96067	974
2.96433	918
2.96800	868
2.97167	825
2.97533	789
2.97900	760
2.98267	736
2.98633	715
2.99000	697
2.99367	680
2.99733	667
3.00100	656
3.00467	644
3.00833	632
3.01200	621
3.01567	612
3.01933	609
3.02300	605
3.02667	600
3.03033	595
3.03400	593
3.03767	590
3.04133	587
3.04500	585
3.04867	585
3.05233	583
3.05600	580
3.05967	579
3.06333	578
3.06700	576
3.07067	573
3.07433	573
3.07800	574
3.08167	575
3.08533	576
3.08900	576
3.09267	576
3.09633	573
3.10000	571
3.10367	572
3.10733	571
3.11100	568
3.11467	566
3.11833	564
3.12200	564
3.12567	563
3.12933	562
3.13300	560
3.13667	561
3.14033	562
3.14400	560
3.14767	557
3.15133	555
3.15500	554
3.15867	554
3.16233	554
3.16600	553
3.16967	551
3.17333	547
3.17700	546
3.18067	546
3.18433	544
3.18800	543
3.19167	545
3.19533	544
3.19900	541
3.20267	539
3.20633	538
3.21000	536
3.21367	535
3.21733	535
3.22100	536
3.22467	536
3.22833	535
3.23200	535
3.23567	535
3.23933	535
3.24300	534
3.24667	530
3.25033	525
3.25400	523
3.25767	522
3.26133	520
3.26500	517
3.26867	515
3.27233	514
3.27600	511
3.27967	508
3.28333	505
3.28700	504
3.29067	502
3.29433	503
3.29800	503
3.30167	501
3.30533	498
3.30900	493
3.31267	491
3.31633	489
3.32000	486
3.32367	483
3.32733	480
3.33100	475
3.33467	471
3.33833	468
3.34200	463
3.34567	461
3.34933	460
3.35300	460
3.35667	458
3.36033	456
3.36400	454
3.36767	452
3.37133	450
3.37500	448
3.37867	445
3.38233	440
3.38600	437
3.38967	434
3.39333	432
3.39700	432
3.40067	431
3.40433	429
3.40800	426
3.41167	419
3.41533	415
3.41900	414
3.42267	414
3.42633	413
3.43000	411
3.43367	410
3.43733	407
3.44100	401
3.44467	398
3.44833	397
3.45200	396
3.45567	392
3.45933	386
3.46300	384
3.46667	384
3.47033	384
3.47400	386
3.47767	384
3.48133	378
3.48500	375
3.48867	372
3.49233	369
3.49600	368
3.49967	368
3.50333	366
3.50700	365
3.51067	363
3.51433	363
3.51800	360
3.52167	357
3.52533	355
3.52900	354
3.53267	353
3.53633	350
3.54000	349
3.54367	346
3.54733	345
3.55100	343
3.55467	343
3.55833	342
3.56200	340
3.56567	336
3.56933	331
3.57300	330
3.57667	330
3.58033	329
3.58400	327
3.58767	326
3.59133	326
3.59500	326
3.59867	325
3.60233	321
3.60600	322
3.60967	324
3.61333	323
3.61700	321
3.62067	321
3.62433	318
3.62800	316
3.63167	315
3.63533	314
3.63900	312
3.64267	310
3.64633	308
3.65000	307
3.65367	305
3.65733	303
3.66100	299
3.66467	295
3.66833	295
3.67200	294
3.67567	292
3.67933	291
3.68300	290
3.68667	289
3.69033	288
3.69400	288
3.69767	286
3.70133	286
3.70500	284
3.70867	281
3.71233	278
3.71600	275
3.71967	273
3.72333	270
3.72700	271
3.73067	272
3.73433	272
3.73800	273
3.74167	274
3.74533	273
3.74900	271
3.75267	270
3.75633	268
3.76000	266
3.76367	265
3.76733	264
3.77100	262
3.77467	258
3.77833	257
3.78200	257
3.78567	258
3.78933	257
3.79300	255
3.79667	251
3.80033	248
3.80400	249
3.80767	249
3.81133	247
3.81500	247
3.81867	247
3.82233	247
3.82600	244
3.82967	241
3.83333	240
3.83700	239
3.84067	239
3.84433	239
3.84800	238
3.85167	236
3.85533	236
3.85900	235
3.86267	234
3.86633	234
3.87000	233
3.87367	233
3.87733	233
3.88100	231
3.88467	229
3.88833	230
3.89200	230
3.89567	230
3.89933	228
3.90300	225
3.90667	225
3.91033	225
3.91400	225
3.91767	226
3.92133	225
3.92500	223
3.92867	220
3.93233	217
3.93600	215
3.93967	213
3.94333	213
3.94700	213
3.95067	213
3.95433	213
3.95800	214
3.96167	215
3.96533	215
3.96900	214
3.97267	213
3.97633	211
3.98000	209
3.98367	208
3.98733	205
3.99100	203
3.99467	202
3.99833	201

[Status Trace (Column Oven Temperature)]
Interval(msec)	1000
# of Points	239
Start Time(min)	0.013
End Time(min)	3.979
Intensity Units	
Intensity Multiplier	1
R.Time (min)	Intensity
0.01252	35.04
0.02918	35.05
0.04585	35.05
0.06252	35.04
0.07918	35.02
0.09585	35.01
0.11252	34.98
0.12918	34.97
0.14585	34.97
0.16252	34.97
0.17918	34.97
0.19585	34.98
0.21252	34.98
0.22918	34.97
0.24585	34.97
0.26252	34.98
0.27918	34.98
0.29585	34.98
0.31252	34.97
0.32918	34.97
0.34585	34.98
0.36252	34.97
0.37918	34.97
0.39585	34.97
0.41252	34.98
0.42918	34.98
0.44585	34.99
0.46252	34.98
0.47918	34.98
0.49585	34.98
0.51252	34.98
0.52918	34.98
0.54585	34.98
0.56252	34.98
0.57918	34.99
0.59585	34.99
0.61252	34.99
0.62918	34.99
0.64585	34.99
0.66252	35.00
0.67918	34.99
0.69585	34.98
0.71252	34.99
0.72918	34.99
0.74585	34.98
0.76252	34.98
0.77918	34.98
0.79585	34.98
0.81252	34.98
0.82918	34.98
0.84585	34.99
0.86252	35.00
0.87918	34.99
0.89585	34.98
0.91252	34.99
0.92918	34.99
0.94585	34.97
0.96252	34.97
0.97918	34.97
0.99585	34.97
1.01252	34.97
1.02918	34.98
1.04585	34.99
1.06252	34.99
1.07918	34.99
1.09585	35.00
1.11252	34.99
1.12918	34.99
1.14585	34.99
1.16252	34.99
1.17918	34.98
1.19585	34.98
1.21252	34.98
1.22918	34.98
1.24585	34.98
1.26252	34.99
1.27918	34.99
1.29585	34.99
1.31252	34.99
1.32918	34.99
1.34585	34.98
1.36252	35.00
1.37918	35.00
1.39585	35.00
1.41252	34.99
1.42918	34.99
1.44585	35.00
1.46252	35.00
1.47918	35.00
1.49585	34.99
1.51252	34.99
1.52918	34.99
1.54585	34.99
1.56252	35.00
1.57918	35.00
1.59585	35.01
1.61252	35.09
1.62918	35.22
1.64585	35.44
1.66252	35.70
1.67918	36.05
1.69585	36.43
1.71252	36.78
1.72918	37.10
1.74585	37.41
1.76252	37.75
1.77918	38.07
1.79585	38.41
1.81252	38.75
1.82918	39.07
1.84585	39.41
1.86252	39.74
1.87918	40.08
1.89585	40.40
1.91252	40.72
1.92918	41.05
1.94585	41.36
1.96252	41.70
1.97918	42.01
1.99585	42.35
2.01252	42.68
2.02918	43.01
2.04585	43.33
2.06252	43.67
2.07918	43.99
2.09585	44.32
2.11252	44.64
2.12918	44.97
2.14585	45.30
2.16252	45.63
2.17918	45.96
2.19585	46.28
2.21252	46.62
2.22918	46.95
2.24585	47.28
2.26252	47.60
2.27918	47.95
2.29585	48.28
2.31252	48.62
2.32918	48.94
2.34585	49.26
2.36252	49.50
2.37918	49.63
2.39585	49.67
2.41252	49.64
2.42918	49.67
2.44585	49.67
2.46252	49.68
2.47918	49.68
2.49585	49.71
2.51252	49.75
2.52918	49.75
2.54585	49.78
2.56252	49.78
2.57918	49.80
2.59585	49.81
2.61252	49.84
2.62918	49.83
2.64585	49.87
2.66252	49.87
2.67918	49.85
2.69585	49.85
2.71252	49.85
2.72918	49.85
2.74585	49.85
2.76252	49.86
2.77918	49.88
2.79585	49.90
2.81252	49.91
2.82918	49.91
2.84585	49.92
2.86252	49.93
2.87918	49.95
2.89585	49.95
2.91252	49.96
2.92918	49.97
2.94585	49.97
2.96252	49.98
2.97918	49.99
2.99585	49.99
3.01252	50.00
3.02918	50.01
3.04585	50.02
3.06252	50.02
3.07918	50.03
3.09585	50.04
3.11252	50.05
3.12918	50.06
3.14585	50.07
3.16252	50.07
3.17918	50.07
3.19585	50.08
3.21252	50.09
3.22918	50.10
3.24585	50.10
3.26252	50.11
3.27918	50.11
3.29585	50.10
3.31252	50.08
3.32918	50.06
3.34585	50.05
3.36252	50.05
3.37918	50.04
3.39585	50.03
3.41252	50.02
3.42918	50.01
3.44585	50.01
3.46252	50.01
3.47918	50.02
3.49585	50.01
3.51252	50.01
3.52918	50.02
3.54585	50.02
3.56252	50.03
3.57918	50.03
3.59585	50.04
3.61252	50.04
3.62918	50.04
3.64585	50.05
3.66252	50.05
3.67918	50.05
3.69585	50.05
3.71252	50.06
3.72918	50.06
3.74585	50.06
3.76252	50.07
3.77918	50.07
3.79585	50.06
3.81252	50.07
3.82918	50.07
3.84585	50.07
3.86252	50.07
3.87918	50.06
3.89585	50.06
3.91252	50.06
3.92918	50.06
3.94585	50.05
3.96252	50.05
3.97918	50.06

[Status Trace (Injection Unit Temperature)]
Interval(msec)	1000
# of Points	239
Start Time(min)	0.013
End Time(min)	3.979
Intensity Units	
Intensity Multiplier	1
R.Time (min)	Intensity
0.01252	99.98
0.02918	99.98
0.04585	99.98
0.06252	99.98
0.07918	99.98
0.09585	99.98
0.11252	99.98
0.12918	99.98
0.14585	99.98
0.16252	99.98
0.17918	99.98
0.19585	99.98
0.21252	99.98
0.22918	99.98
0.24585	99.98
0.26252	99.98
0.27918	99.98
0.29585	99.98
0.31252	99.98
0.32918	99.98
0.34585	99.98
0.36252	99.98
0.37918	99.98
0.39585	99.98
0.41252	99.98
0.42918	99.99
0.44585	99.99
0.46252	99.98
0.47918	99.98
0.49585	99.98
0.51252	99.99
0.52918	99.98
0.54585	99.99
0.56252	99.99
0.57918	99.99
0.59585	99.98
0.61252	99.99
0.62918	99.99
0.64585	99.98
0.66252	99.99
0.67918	99.99
0.69585	99.99
0.71252	99.99
0.72918	99.99
0.74585	99.99
0.76252	99.99
0.77918	99.99
0.79585	99.99
0.81252	99.99
0.82918	99.99
0.84585	99.99
0.86252	99.98
0.87918	99.99
0.89585	99.98
0.91252	99.98
0.92918	99.99
0.94585	99.99
0.96252	99.99
0.97918	99.98
0.99585	99.99
1.01252	99.98
1.02918	99.99
1.04585	99.99
1.06252	99.99
1.07918	99.99
1.09585	99.99
1.11252	99.99
1.12918	99.99
1.14585	99.99
1.16252	99.98
1.17918	99.99
1.19585	99.99
1.21252	99.99
1.22918	99.99
1.24585	99.98
1.26252	99.99
1.27918	99.99
1.29585	99.99
1.31252	99.98
1.32918	99.99
1.34585	99.99
1.36252	99.99
1.37918	99.99
1.39585	99.99
1.41252	99.99
1.42918	99.99
1.44585	99.99
1.46252	99.98
1.47918	99.99
1.49585	99.99
1.51252	99.99
1.52918	99.99
1.54585	99.99
1.56252	99.99
1.57918	99.99
1.59585	99.99
1.61252	99.99
1.62918	99.99
1.64585	99.99
1.66252	99.99
1.67918	99.99
1.69585	99.99
1.71252	99.99
1.72918	99.99
1.74585	99.99
1.76252	99.99
1.77918	99.99
1.79585	99.99
1.81252	99.99
1.82918	99.99
1.84585	99.99
1.86252	99.99
1.87918	99.99
1.89585	99.99
1.91252	99.99
1.92918	99.99
1.94585	99.98
1.96252	99.98
1.97918	99.98
1.99585	99.98
2.01252	99.98
2.02918	99.98
2.04585	99.98
2.06252	99.98
2.07918	99.98
2.09585	99.98
2.11252	99.97
2.12918	99.98
2.14585	99.97
2.16252	99.97
2.17918	99.97
2.19585	99.97
2.21252	99.97
2.22918	99.97
2.24585	99.97
2.26252	99.97
2.27918	99.97
2.29585	99.97
2.31252	99.97
2.32918	99.97
2.34585	99.97
2.36252	99.97
2.37918	99.97
2.39585	99.97
2.41252	99.97
2.42918	99.97
2.44585	99.97
2.46252	99.97
2.47918	99.97
2.49585	99.97
2.51252	99.97
2.52918	99.97
2.54585	99.98
2.56252	99.97
2.57918	99.97
2.59585	99.98
2.61252	99.98
2.62918	99.98
2.64585	99.98
2.66252	99.98
2.67918	99.98
2.69585	99.98
2.71252	99.98
2.72918	99.99
2.74585	99.99
2.76252	99.99
2.77918	99.99
2.79585	99.99
2.81252	99.99
2.82918	99.99
2.84585	99.99
2.86252	100.00
2.87918	100.00
2.89585	100.00
2.91252	100.00
2.92918	100.00
2.94585	100.01
2.96252	100.00
2.97918	100.01
2.99585	100.01
3.01252	100.01
3.02918	100.01
3.04585	100.01
3.06252	100.01
3.07918	100.02
3.09585	100.02
3.11252	100.02
3.12918	100.02
3.14585	100.02
3.16252	100.02
3.17918	100.02
3.19585	100.02
3.21252	100.02
3.22918	100.03
3.24585	100.03
3.26252	100.03
3.27918	100.03
3.29585	100.03
3.31252	100.03
3.32918	100.03
3.34585	100.03
3.36252	100.03
3.37918	100.04
3.39585	100.03
3.41252	100.03
3.42918	100.03
3.44585	100.04
3.46252	100.04
3.47918	100.04
3.49585	100.04
3.51252	100.04
3.52918	100.03
3.54585	100.04
3.56252	100.04
3.57918	100.04
3.59585	100.04
3.61252	100.04
3.62918	100.04
3.64585	100.04
3.66252	100.04
3.67918	100.04
3.69585	100.04
3.71252	100.05
3.72918	100.05
3.74585	100.05
3.76252	100.04
3.77918	100.05
3.79585	100.04
3.81252	100.05
3.82918	100.05
3.84585	100.05
3.86252	100.05
3.87918	100.05
3.89585	100.05
3.91252	100.05
3.92918	100.05
3.94585	100.05
3.96252	100.05
3.97918	100.05

[Status Trace (Carrier Gas Pressure)]
Interval(msec)	1000
# of Points	239
Start Time(min)	0.013
End Time(min)	3.979
Intensity Units	
Intensity Multiplier	1
R.Time (min)	Intensity
0.01252	57.99
0.02918	54.91
0.04585	57.70
0.06252	59.62
0.07918	59.01
0.09585	57.99
0.11252	57.99
0.12918	58.01
0.14585	58.01
0.16252	58.01
0.17918	58.00
0.19585	58.00
0.21252	58.00
0.22918	58.00
0.24585	58.00
0.26252	58.00
0.27918	58.00
0.29585	58.00
0.31252	58.00
0.32918	58.00
0.34585	58.00
0.36252	58.00
0.37918	58.00
0.39585	58.00
0.41252	58.00
0.42918	58.00
0.44585	58.00
0.46252	58.00
0.47918	58.00
0.49585	58.00
0.51252	58.00
0.52918	58.00
0.54585	58.00
0.56252	58.00
0.57918	58.00
0.59585	58.00
0.61252	58.00
0.62918	58.00
0.64585	58.00
0.66252	58.00
0.67918	58.00
0.69585	58.00
0.71252	58.00
0.72918	58.00
0.74585	58.00
0.76252	58.00
0.77918	58.00
0.79585	58.00
0.81252	58.00
0.82918	58.00
0.84585	58.00
0.86252	58.00
0.87918	58.00
0.89585	58.00
0.91252	58.00
0.92918	58.00
0.94585	58.00
0.96252	58.00
0.97918	58.00
0.99585	58.00
1.01252	58.00
1.02918	58.00
1.04585	58.00
1.06252	58.00
1.07918	58.00
1.09585	58.00
1.11252	58.00
1.12918	58.00
1.14585	58.00
1.16252	58.00
1.17918	58.00
1.19585	58.00
1.21252	58.00
1.22918	58.00
1.24585	58.00
1.26252	58.00
1.27918	58.00
1.29585	58.00
1.31252	58.00
1.32918	58.00
1.34585	58.00
1.36252	58.00
1.37918	58.00
1.39585	58.00
1.41252	58.00
1.42918	58.00
1.44585	58.00
1.46252	58.00
1.47918	58.00
1.49585	58.00
1.51252	58.00
1.52918	58.00
1.54585	58.00
1.56252	58.00
1.57918	58.00
1.59585	58.00
1.61252	58.00
1.62918	58.00
1.64585	58.00
1.66252	58.00
1.67918	58.01
1.69585	58.00
1.71252	58.00
1.72918	58.00
1.74585	58.00
1.76252	58.00
1.77918	58.00
1.79585	58.00
1.81252	58.00
1.82918	58.00
1.84585	58.00
1.86252	58.00
1.87918	58.00
1.89585	58.00
1.91252	58.00
1.92918	58.00
1.94585	58.00
1.96252	58.00
1.97918	58.00
1.99585	58.00
2.01252	58.00
2.02918	58.00
2.04585	58.00
2.06252	58.00
2.07918	58.00
2.09585	58.00
2.11252	58.00
2.12918	58.00
2.14585	58.00
2.16252	58.00
2.17918	58.00
2.19585	58.00
2.21252	58.00
2.22918	58.00
2.24585	58.00
2.26252	58.00
2.27918	58.00
2.29585	58.00
2.31252	58.00
2.32918	58.00
2.34585	58.00
2.36252	58.00
2.37918	57.99
2.39585	57.99
2.41252	58.00
2.42918	58.00
2.44585	58.00
2.46252	58.00
2.47918	58.00
2.49585	58.00
2.51252	57.99
2.52918	57.99
2.54585	58.00
2.56252	58.00
2.57918	58.00
2.59585	58.00
2.61252	58.00
2.62918	58.00
2.64585	58.00
2.66252	58.00
2.67918	58.00
2.69585	58.00
2.71252	58.00
2.72918	58.00
2.74585	58.00
2.76252	58.00
2.77918	58.00
2.79585	58.00
2.81252	58.00
2.82918	58.00
2.84585	58.00
2.86252	58.00
2.87918	58.00
2.89585	58.00
2.91252	58.00
2.92918	58.00
2.94585	58.00
2.96252	58.00
2.97918	58.00
2.99585	58.00
3.01252	58.00
3.02918	58.00
3.04585	58.00
3.06252	58.00
3.07918	58.00
3.09585	58.00
3.11252	58.00
3.12918	58.00
3.14585	58.00
3.16252	58.00
3.17918	58.00
3.19585	58.00
3.21252	58.00
3.22918	58.00
3.24585	58.00
3.26252	58.00
3.27918	58.00
3.29585	58.00
3.31252	58.00
3.32918	58.00
3.34585	58.00
3.36252	58.00
3.37918	58.00
3.39585	58.00
3.41252	58.00
3.42918	58.00
3.44585	58.00
3.46252	58.00
3.47918	58.00
3.49585	58.00
3.51252	58.00
3.52918	58.00
3.54585	58.00
3.56252	58.00
3.57918	58.00
3.59585	58.00
3.61252	58.00
3.62918	58.00
3.64585	58.00
3.66252	58.00
3.67918	58.00
3.69585	58.00
3.71252	58.00
3.72918	58.00
3.74585	58.00
3.76252	58.00
3.77918	58.00
3.79585	58.00
3.81252	58.00
3.82918	58.00
3.84585	58.00
3.86252	58.00
3.87918	58.00
3.89585	58.00
3.91252	58.00
3.92918	58.00
3.94585	58.00
3.96252	58.00
3.97918	58.00

[Status Trace (Carrier Gas Flow)]
Interval(msec)	1000
# of Points	239
Start Time(min)	0.013
End Time(min)	3.979
Intensity Units	
Intensity Multiplier	1
R.Time (min)	Intensity
0.01252	34.54
0.02918	34.54
0.04585	34.54
0.06252	34.54
0.07918	34.51
0.09585	34.52
0.11252	34.52
0.12918	34.52
0.14585	34.52
0.16252	34.52
0.17918	34.52
0.19585	34.52
0.21252	34.52
0.22918	34.52
0.24585	34.52
0.26252	34.52
0.27918	34.52
0.29585	34.52
0.31252	34.52
0.32918	34.52
0.34585	34.52
0.36252	34.52
0.37918	34.52
0.39585	34.52
0.41252	34.52
0.42918	34.52
0.44585	34.52
0.46252	34.52
0.47918	34.52
0.49585	34.52
0.51252	34.52
0.52918	34.52
0.54585	34.52
0.56252	34.52
0.57918	34.52
0.59585	34.52
0.61252	34.52
0.62918	34.52
0.64585	34.52
0.66252	34.52
0.67918	34.52
0.69585	34.52
0.71252	34.52
0.72918	34.52
0.74585	34.52
0.76252	34.52
0.77918	34.52
0.79585	34.52
0.81252	34.52
0.82918	34.52
0.84585	34.52
0.86252	34.52
0.87918	34.52
0.89585	34.52
0.91252	34.52
0.92918	34.52
0.94585	34.52
0.96252	34.52
0.97918	34.52
0.99585	34.52
1.01252	34.52
1.02918	34.52
1.04585	34.52
1.06252	34.52
1.07918	34.52
1.09585	34.52
1.11252	34.52
1.12918	34.52
1.14585	34.52
1.16252	34.52
1.17918	34.52
1.19585	34.52
1.21252	34.52
1.22918	34.52
1.24585	34.52
1.26252	34.52
1.27918	34.52
1.29585	34.52
1.31252	34.52
1.32918	34.52
1.34585	34.52
1.36252	34.52
1.37918	34.52
1.39585	34.52
1.41252	34.52
1.42918	34.52
1.44585	34.52
1.46252	34.52
1.47918	34.52
1.49585	34.52
1.51252	34.52
1.52918	34.52
1.54585	34.52
1.56252	34.52
1.57918	34.52
1.59585	34.52
1.61252	34.52
1.62918	34.52
1.64585	34.52
1.66252	34.52
1.67918	34.52
1.69585	34.52
1.71252	34.52
1.72918	34.52
1.74585	34.52
1.76252	34.52
1.77918	34.52
1.79585	34.52
1.81252	34.52
1.82918	34.52
1.84585	34.52
1.86252	34.52
1.87918	34.52
1.89585	34.52
1.91252	34.52
1.92918	34.52
1.94585	34.52
1.96252	34.52
1.97918	34.52
1.99585	34.52
2.01252	34.52
2.02918	34.52
2.04585	34.52
2.06252	34.52
2.07918	34.52
2.09585	34.52
2.11252	34.52
2.12918	34.52
2.14585	34.52
2.16252	34.52
2.17918	34.52
2.19585	34.52
2.21252	34.52
2.22918	34.52
2.24585	34.52
2.26252	34.52
2.27918	34.52
2.29585	34.52
2.31252	34.52
2.32918	34.52
2.34585	34.52
2.36252	34.52
2.37918	34.52
2.39585	34.51
2.41252	34.52
2.42918	34.52
2.44585	34.52
2.46252	34.52
2.47918	34.52
2.49585	34.52
2.51252	34.52
2.52918	34.52
2.54585	34.52
2.56252	34.52
2.57918	34.52
2.59585	34.52
2.61252	34.52
2.62918	34.52
2.64585	34.52
2.66252	34.52
2.67918	34.52
2.69585	34.52
2.71252	34.52
2.72918	34.52
2.74585	34.52
2.76252	34.52
2.77918	34.52
2.79585	34.52
2.81252	34.52
2.82918	34.52
2.84585	34.52
2.86252	34.52
2.87918	34.52
2.89585	34.52
2.91252	34.52
2.92918	34.52
2.94585	34.52
2.96252	34.52
2.97918	34.52
2.99585	34.52
3.01252	34.52
3.02918	34.52
3.04585	34.52
3.06252	34.52
3.07918	34.52
3.09585	34.52
3.11252	34.52
3.12918	34.52
3.14585	34.52
3.16252	34.52
3.17918	34.52
3.19585	34.52
3.21252	34.52
3.22918	34.52
3.24585	34.52
3.26252	34.52
3.27918	34.52
3.29585	34.52
3.31252	34.52
3.32918	34.52
3.34585	34.52
3.36252	34.52
3.37918	34.52
3.39585	34.52
3.41252	34.52
3.42918	34.52
3.44585	34.52
3.46252	34.52
3.47918	34.52
3.49585	34.52
3.51252	34.52
3.52918	34.52
3.54585	34.52
3.56252	34.52
3.57918	34.52
3.59585	34.52
3.61252	34.52
3.62918	34.52
3.64585	34.51
3.66252	34.52
3.67918	34.52
3.69585	34.52
3.71252	34.52
3.72918	34.52
3.74585	34.52
3.76252	34.52
3.77918	34.52
3.79585	34.52
3.81252	34.52
3.82918	34.52
3.84585	34.52
3.86252	34.52
3.87918	34.52
3.89585	34.52
3.91252	34.52
3.92918	34.51
3.94585	34.52
3.96252	34.52
3.97918	34.52

[Status Trace (Column Flow)]
Interval(msec)	1000
# of Points	239
Start Time(min)	0.013
End Time(min)	3.979
Intensity Units	
Intensity Multiplier	1
R.Time (min)	Intensity
0.01252	5.49
0.02918	5.14
0.04585	5.46
0.06252	5.68
0.07918	5.61
0.09585	5.49
0.11252	5.49
0.12918	5.49
0.14585	5.49
0.16252	5.49
0.17918	5.49
0.19585	5.49
0.21252	5.49
0.22918	5.49
0.24585	5.49
0.26252	5.49
0.27918	5.49
0.29585	5.49
0.31252	5.49
0.32918	5.49
0.34585	5.49
0.36252	5.49
0.37918	5.49
0.39585	5.49
0.41252	5.49
0.42918	5.49
0.44585	5.49
0.46252	5.49
0.47918	5.49
0.49585	5.49
0.51252	5.49
0.52918	5.49
0.54585	5.49
0.56252	5.49
0.57918	5.49
0.59585	5.49
0.61252	5.49
0.62918	5.49
0.64585	5.49
0.66252	5.49
0.67918	5.49
0.69585	5.49
0.71252	5.49
0.72918	5.49
0.74585	5.49
0.76252	5.49
0.77918	5.49
0.79585	5.49
0.81252	5.49
0.82918	5.49
0.84585	5.49
0.86252	5.49
0.87918	5.49
0.89585	5.49
0.91252	5.49
0.92918	5.49
0.94585	5.49
0.96252	5.49
0.97918	5.49
0.99585	5.49
1.01252	5.49
1.02918	5.49
1.04585	5.49
1.06252	5.49
1.07918	5.49
1.09585	5.49
1.11252	5.49
1.12918	5.49
1.14585	5.49
1.16252	5.49
1.17918	5.49
1.19585	5.49
1.21252	5.49
1.22918	5.49
1.24585	5.49
1.26252	5.49
1.27918	5.49
1.29585	5.49
1.31252	5.49
1.32918	5.49
1.34585	5.49
1.36252	5.49
1.37918	5.49
1.39585	5.49
1.41252	5.49
1.42918	5.49
1.44585	5.49
1.46252	5.49
1.47918	5.49
1.49585	5.49
1.51252	5.49
1.52918	5.49
1.54585	5.49
1.56252	5.49
1.57918	5.49
1.59585	5.49
1.61252	5.49
1.62918	5.49
1.64585	5.48
1.66252	5.47
1.67918	5.46
1.69585	5.45
1.71252	5.44
1.72918	5.43
1.74585	5.42
1.76252	5.41
1.77918	5.40
1.79585	5.39
1.81252	5.38
1.82918	5.37
1.84585	5.36
1.86252	5.35
1.87918	5.34
1.89585	5.33
1.91252	5.32
1.92918	5.31
1.94585	5.30
1.96252	5.29
1.97918	5.28
1.99585	5.27
2.01252	5.26
2.02918	5.25
2.04585	5.24
2.06252	5.23
2.07918	5.22
2.09585	5.21
2.11252	5.20
2.12918	5.19
2.14585	5.18
2.16252	5.17
2.17918	5.16
2.19585	5.15
2.21252	5.15
2.22918	5.14
2.24585	5.13
2.26252	5.12
2.27918	5.11
2.29585	5.10
2.31252	5.09
2.32918	5.08
2.34585	5.07
2.36252	5.07
2.37918	5.06
2.39585	5.06
2.41252	5.06
2.42918	5.06
2.44585	5.06
2.46252	5.06
2.47918	5.06
2.49585	5.06
2.51252	5.06
2.52918	5.06
2.54585	5.06
2.56252	5.06
2.57918	5.06
2.59585	5.06
2.61252	5.06
2.62918	5.06
2.64585	5.06
2.66252	5.06
2.67918	5.06
2.69585	5.06
2.71252	5.06
2.72918	5.06
2.74585	5.06
2.76252	5.06
2.77918	5.05
2.79585	5.05
2.81252	5.05
2.82918	5.05
2.84585	5.05
2.86252	5.05
2.87918	5.05
2.89585	5.05
2.91252	5.05
2.92918	5.05
2.94585	5.05
2.96252	5.05
2.97918	5.05
2.99585	5.05
3.01252	5.05
3.02918	5.05
3.04585	5.05
3.06252	5.05
3.07918	5.05
3.09585	5.05
3.11252	5.05
3.12918	5.05
3.14585	5.05
3.16252	5.05
3.17918	5.05
3.19585	5.05
3.21252	5.05
3.22918	5.05
3.24585	5.05
3.26252	5.05
3.27918	5.05
3.29585	5.05
3.31252	5.05
3.32918	5.05
3.34585	5.05
3.36252	5.05
3.37918	5.05
3.39585	5.05
3.41252	5.05
3.42918	5.05
3.44585	5.05
3.46252	5.05
3.47918	5.05
3.49585	5.05
3.51252	5.05
3.52918	5.05
3.54585	5.05
3.56252	5.05
3.57918	5.05
3.59585	5.05
3.61252	5.05
3.62918	5.05
3.64585	5.05
3.66252	5.05
3.67918	5.05
3.69585	5.05
3.71252	5.05
3.72918	5.05
3.74585	5.05
3.76252	5.05
3.77918	5.05
3.79585	5.05
3.81252	5.05
3.82918	5.05
3.84585	5.05
3.86252	5.05
3.87918	5.05
3.89585	5.05
3.91252	5.05
3.92918	5.05
3.94585	5.05
3.96252	5.05
3.97918	5.05

[Status Trace (Linear Velocity)]
Interval(msec)	1000
# of Points	239
Start Time(min)	0.013
End Time(min)	3.979
Intensity Units	
Intensity Multiplier	1
R.Time (min)	Intensity
0.01252	39.00
0.02918	36.98
0.04585	38.81
0.06252	40.07
0.07918	39.67
0.09585	39.00
0.11252	39.00
0.12918	39.02
0.14585	39.02
0.16252	39.02
0.17918	39.02
0.19585	39.01
0.21252	39.01
0.22918	39.01
0.24585	39.01
0.26252	39.01
0.27918	39.01
0.29585	39.01
0.31252	39.01
0.32918	39.01
0.34585	39.01
0.36252	39.01
0.37918	39.01
0.39585	39.01
0.41252	39.01
0.42918	39.01
0.44585	39.01
0.46252	39.01
0.47918	39.01
0.49585	39.01
0.51252	39.01
0.52918	39.01
0.54585	39.01
0.56252	39.01
0.57918	39.01
0.59585	39.01
0.61252	39.01
0.62918	39.01
0.64585	39.01
0.66252	39.01
0.67918	39.01
0.69585	39.01
0.71252	39.01
0.72918	39.01
0.74585	39.01
0.76252	39.01
0.77918	39.01
0.79585	39.01
0.81252	39.01
0.82918	39.01
0.84585	39.01
0.86252	39.01
0.87918	39.01
0.89585	39.01
0.91252	39.01
0.92918	39.01
0.94585	39.01
0.96252	39.01
0.97918	39.01
0.99585	39.01
1.01252	39.01
1.02918	39.01
1.04585	39.01
1.06252	39.01
1.07918	39.01
1.09585	39.01
1.11252	39.01
1.12918	39.01
1.14585	39.01
1.16252	39.01
1.17918	39.01
1.19585	39.01
1.21252	39.01
1.22918	39.01
1.24585	39.01
1.26252	39.01
1.27918	39.01
1.29585	39.01
1.31252	39.01
1.32918	39.01
1.34585	39.01
1.36252	39.01
1.37918	39.01
1.39585	39.01
1.41252	39.01
1.42918	39.01
1.44585	39.01
1.46252	39.01
1.47918	39.01
1.49585	39.01
1.51252	39.01
1.52918	39.01
1.54585	39.01
1.56252	39.01
1.57918	39.01
1.59585	39.01
1.61252	39.00
1.62918	38.99
1.64585	38.97
1.66252	38.94
1.67918	38.91
1.69585	38.88
1.71252	38.84
1.72918	38.81
1.74585	38.78
1.76252	38.75
1.77918	38.72
1.79585	38.69
1.81252	38.65
1.82918	38.62
1.84585	38.59
1.86252	38.56
1.87918	38.53
1.89585	38.50
1.91252	38.47
1.92918	38.44
1.94585	38.41
1.96252	38.38
1.97918	38.35
1.99585	38.32
2.01252	38.29
2.02918	38.26
2.04585	38.23
2.06252	38.20
2.07918	38.17
2.09585	38.14
2.11252	38.11
2.12918	38.08
2.14585	38.05
2.16252	38.02
2.17918	37.99
2.19585	37.96
2.21252	37.93
2.22918	37.90
2.24585	37.87
2.26252	37.84
2.27918	37.81
2.29585	37.78
2.31252	37.75
2.32918	37.72
2.34585	37.69
2.36252	37.67
2.37918	37.65
2.39585	37.65
2.41252	37.65
2.42918	37.65
2.44585	37.65
2.46252	37.65
2.47918	37.65
2.49585	37.65
2.51252	37.64
2.52918	37.64
2.54585	37.65
2.56252	37.65
2.57918	37.64
2.59585	37.64
2.61252	37.64
2.62918	37.64
2.64585	37.64
2.66252	37.64
2.67918	37.64
2.69585	37.64
2.71252	37.64
2.72918	37.64
2.74585	37.64
2.76252	37.64
2.77918	37.64
2.79585	37.63
2.81252	37.63
2.82918	37.63
2.84585	37.63
2.86252	37.63
2.87918	37.63
2.89585	37.63
2.91252	37.63
2.92918	37.63
2.94585	37.63
2.96252	37.63
2.97918	37.63
2.99585	37.63
3.01252	37.63
3.02918	37.63
3.04585	37.62
3.06252	37.62
3.07918	37.62
3.09585	37.62
3.11252	37.62
3.12918	37.62
3.14585	37.62
3.16252	37.62
3.17918	37.62
3.19585	37.62
3.21252	37.62
3.22918	37.62
3.24585	37.62
3.26252	37.62
3.27918	37.62
3.29585	37.62
3.31252	37.62
3.32918	37.62
3.34585	37.62
3.36252	37.62
3.37918	37.62
3.39585	37.62
3.41252	37.62
3.42918	37.63
3.44585	37.63
3.46252	37.63
3.47918	37.62
3.49585	37.62
3.51252	37.62
3.52918	37.62
3.54585	37.62
3.56252	37.62
3.57918	37.62
3.59585	37.62
3.61252	37.62
3.62918	37.62
3.64585	37.62
3.66252	37.62
3.67918	37.62
3.69585	37.62
3.71252	37.62
3.72918	37.62
3.74585	37.62
3.76252	37.62
3.77918	37.62
3.79585	37.62
3.81252	37.62
3.82918	37.62
3.84585	37.62
3.86252	37.62
3.87918	37.62
3.89585	37.62
3.91252	37.62
3.92918	37.62
3.94585	37.62
3.96252	37.62
3.97918	37.62

