[Header]
Application Name	LabSolutions
Version	5.110
Data File Name	C:\Users\User\Desktop\GC Analyses\Jack\UIC Prairie Sampling\9.16.22\220916_038.gcd
Output Date	11/29/2022
Output Time	11:10:17 AM

[File Information]
Type	Data File
Generated	11/14/2022 2:00:53 PM
Generated by	System Administrator
Modified	11/14/2022 2:05:25 PM
Modified by	System Administrator

[Sample Information]
Operator Name	System Administrator
Acquired	11/14/2022 2:01:23 PM
Sample Type	1:Standard
Level	1
Sample Name	220916_UICPrairie
Sample ID	220916_UICPrairie
ISTD Amount1	1
ISTD Amount2	1
ISTD Amount3	1
ISTD Amount4	1
ISTD Amount5	1
ISTD Amount6	1
ISTD Amount7	1
ISTD Amount8	1
ISTD Amount9	1
ISTD Amount10	1
ISTD Amount11	1
ISTD Amount12	1
ISTD Amount13	1
ISTD Amount14	1
ISTD Amount15	1
ISTD Amount16	1
ISTD Amount17	1
ISTD Amount18	1
ISTD Amount19	1
ISTD Amount20	1
ISTD Amount21	1
ISTD Amount22	1
ISTD Amount23	1
ISTD Amount24	1
ISTD Amount25	1
ISTD Amount26	1
ISTD Amount27	1
ISTD Amount28	1
ISTD Amount29	1
ISTD Amount30	1
ISTD Amount31	1
ISTD Amount32	1
Sample Amount	1
Dilution Factor	1
Vial#	1
Injection Volume	1
Injection Count	1
Bar Code	

[Original Files]
Data File	C:\Users\User\Desktop\GC Analyses\Jack\UIC Prairie Sampling\9.16.22\220916_038.gcd
Method File	C:\LabSolutions\Data\GHG_4min_2022\ghg3_togas_w_acet_4 min_new_int.gcm
Batch File	
Report Format File	c:\LabSolutions\System\DEFAULT.lsr

[File Description]


[Configuration]
Instrument Name	C0B7VH3-Instrument1
Instrument #	1
Line #	1
# of Detectors	3
Detector ID	DET#1	DET#2	DET#3
Detector Name	FID	PTCD	ECD
# of Channels	1	1	1

[Peak Table(Ch1)]
# of Peaks	3
Peak#	R.Time	I.Time	F.Time	Area	Height	A/H	Conc.	Mark	ID#	Name	k'	Plate #	Plate Ht.	Tailing	Resolution	Sep.Factor	Area Ratio	Height Ratio	Conc. %	Norm Conc.
1	1.479	1.439	1.538	10998	4751	2.315	100.000	   	1	CO	0.000	7978	18.802	1.242	0.000	0.000	0	0	16.667	16.667
2	1.571	1.538	1.630	4990	2436	2.048	100.000	 V 	2	CH4	0.062	10789	13.904	0.000	1.446	0.000	0	0	16.667	16.667
3	2.000	1.952	2.367	1702400	815620	2.087	400.000	   	3	CO2	0.352	17418	8.612	1.295	7.084	5.680	0	0	66.667	66.667

[Peak Table(Ch2)]
# of Peaks	0

[Peak Table(Ch3)]
# of Peaks	3
Peak#	R.Time	I.Time	F.Time	Area	Height	A/H	Conc.	Mark	ID#	Name	k'	Plate #	Plate Ht.	Tailing	Resolution	Sep.Factor	Area Ratio	Height Ratio	Conc. %	Norm Conc.
1	2.462	2.242	2.572	3152	286	11.038	0.000	   			0.000	142	1052.654	0.000	0.000	0.000	0	0	0.000	0.000
2	2.601	2.572	2.653	875	262	3.336	0.000	 V 			0.057	328	457.919	0.000	0.199	0.000	0	0	0.000	0.000
3	2.887	2.667	3.965	58871	5956	9.884	1.000	   	1	N2O	0.173	9936	15.097	2.703	0.828	3.053	0	0	100.000	100.000

[Compound Results(Ch1)]
# of IDs	6
ID#	Name	R.Time	Area	Height	Conc.	Curve	3rd	2nd	1st	Constant	Area Ratio	Height Ratio	Conc. %	Norm Conc.
1	CO	1.479	10998	4751	100.000	Linear	0.000000e+00	0.000000e+00	1.099799e+002	0.000000e+00	0	0	16.667	16.667
2	CH4	1.571	4990	2436	100.000	Linear	0.000000e+00	0.000000e+00	4.989565e+001	0.000000e+00	0	0	16.667	16.667
3	CO2	2.000	1702400	815620	400.000	Linear	0.000000e+00	0.000000e+00	4.255999e+003	0.000000e+00	0	0	66.667	66.667
4	Ethylene	0.000	0	0	0.000	Linear	0.000000e+00	0.000000e+00	0.000000e+00	0.000000e+00	0	0	0.000	0.000
5	Acetylene	0.000	0	0	0.000	Linear	0.000000e+00	0.000000e+00	0.000000e+00	0.000000e+00	0	0	0.000	0.000
6	Ethane	0.000	0	0	0.000	Linear	0.000000e+00	0.000000e+00	0.000000e+00	0.000000e+00	0	0	0.000	0.000

[Compound Results(Ch2)]
# of IDs	5
ID#	Name	R.Time	Area	Height	Conc.	Curve	3rd	2nd	1st	Constant	Area Ratio	Height Ratio	Conc. %	Norm Conc.
1	Hydrogen	0.000	0	0	0.000	Linear	0.000000e+00	0.000000e+00	0.000000e+00	0.000000e+00	0	0	0.000	0.000
2	Oxygen	0.000	0	0	0.000	Linear	0.000000e+00	0.000000e+00	0.000000e+00	0.000000e+00	0	0	0.000	0.000
3	Nitrogen	0.000	0	0	0.000	Linear	0.000000e+00	0.000000e+00	0.000000e+00	0.000000e+00	0	0	0.000	0.000
4	Methane	0.000	0	0	0.000	Linear	0.000000e+00	0.000000e+00	0.000000e+00	0.000000e+00	0	0	0.000	0.000
5	Carbon Monoxide	0.000	0	0	0.000	Linear	0.000000e+00	0.000000e+00	0.000000e+00	0.000000e+00	0	0	0.000	0.000

[Compound Results(Ch3)]
# of IDs	2
ID#	Name	R.Time	Area	Height	Conc.	Curve	3rd	2nd	1st	Constant	Area Ratio	Height Ratio	Conc. %	Norm Conc.
1	N2O	2.887	58871	5956	1.000	Linear	0.000000e+00	0.000000e+00	5.887123e+004	0.000000e+00	0	0	100.000	100.000
2	SF6	0.000	0	0	0.000	Linear	0.000000e+00	0.000000e+00	0.000000e+00	0.000000e+00	0	0	0.000	0.000

[Group Results(Ch1)]
# of Groups	0

[Group Results(Ch2)]
# of Groups	0

[Group Results(Ch3)]
# of Groups	0

[Chromatogram (Ch1)]
Interval(msec)	220
# of Points	1091
Start Time(min)	0.002
End Time(min)	3.998
R.Time (min)	Intensity
0.00167	-24
0.00533	-21
0.00900	-16
0.01267	-7
0.01633	3
0.02000	10
0.02367	14
0.02733	16
0.03100	13
0.03467	8
0.03833	4
0.04200	0
0.04567	-5
0.04933	-10
0.05300	-11
0.05667	-8
0.06033	-5
0.06400	-5
0.06767	-10
0.07133	-15
0.07500	-15
0.07867	-12
0.08233	-13
0.08600	-17
0.08967	-21
0.09333	-22
0.09700	-18
0.10067	-14
0.10433	-9
0.10800	-6
0.11167	-6
0.11533	-7
0.11900	-9
0.12267	-11
0.12633	-12
0.13000	-13
0.13367	-15
0.13733	-22
0.14100	-24
0.14467	-22
0.14833	-20
0.15200	-20
0.15567	-23
0.15933	-25
0.16300	-27
0.16667	-25
0.17033	-18
0.17400	-11
0.17767	-6
0.18133	-5
0.18500	-10
0.18867	-18
0.19233	-21
0.19600	-20
0.19967	-21
0.20333	-25
0.20700	-25
0.21067	-22
0.21433	-18
0.21800	-14
0.22167	-13
0.22533	-12
0.22900	-10
0.23267	-11
0.23633	-13
0.24000	-15
0.24367	-14
0.24733	-13
0.25100	-17
0.25467	-26
0.25833	-35
0.26200	-36
0.26567	-29
0.26933	-23
0.27300	-21
0.27667	-24
0.28033	-29
0.28400	-34
0.28767	-37
0.29133	-36
0.29500	-33
0.29867	-34
0.30233	-38
0.30600	-40
0.30967	-39
0.31333	-38
0.31700	-39
0.32067	-42
0.32433	-43
0.32800	-44
0.33167	-44
0.33533	-44
0.33900	-44
0.34267	-43
0.34633	-43
0.35000	-45
0.35367	-44
0.35733	-41
0.36100	-36
0.36467	-29
0.36833	-28
0.37200	-30
0.37567	-34
0.37933	-37
0.38300	-37
0.38667	-36
0.39033	-34
0.39400	-36
0.39767	-38
0.40133	-36
0.40500	-34
0.40867	-30
0.41233	-29
0.41600	-31
0.41967	-33
0.42333	-34
0.42700	-36
0.43067	-37
0.43433	-37
0.43800	-37
0.44167	-35
0.44533	-31
0.44900	-28
0.45267	-25
0.45633	-25
0.46000	-27
0.46367	-33
0.46733	-40
0.47100	-44
0.47467	-47
0.47833	-49
0.48200	-49
0.48567	-47
0.48933	-46
0.49300	-48
0.49667	-50
0.50033	-52
0.50400	-57
0.50767	-59
0.51133	-54
0.51500	-51
0.51867	-48
0.52233	-46
0.52600	-44
0.52967	-44
0.53333	-49
0.53700	-55
0.54067	-57
0.54433	-57
0.54800	-58
0.55167	-59
0.55533	-57
0.55900	-53
0.56267	-48
0.56633	-44
0.57000	-41
0.57367	-38
0.57733	-35
0.58100	-33
0.58467	-32
0.58833	-34
0.59200	-43
0.59567	-53
0.59933	-63
0.60300	-70
0.60667	-73
0.61033	-72
0.61400	-68
0.61767	-63
0.62133	-59
0.62500	-57
0.62867	-57
0.63233	-57
0.63600	-55
0.63967	-51
0.64333	-49
0.64700	-50
0.65067	-53
0.65433	-56
0.65800	-58
0.66167	-57
0.66533	-55
0.66900	-54
0.67267	-53
0.67633	-51
0.68000	-50
0.68367	-49
0.68733	-50
0.69100	-50
0.69467	-47
0.69833	-42
0.70200	-40
0.70567	-44
0.70933	-49
0.71300	-57
0.71667	-65
0.72033	-69
0.72400	-70
0.72767	-68
0.73133	-62
0.73500	-54
0.73867	-49
0.74233	-48
0.74600	-52
0.74967	-59
0.75333	-67
0.75700	-72
0.76067	-73
0.76433	-69
0.76800	-66
0.77167	-65
0.77533	-65
0.77900	-62
0.78267	-56
0.78633	-51
0.79000	-51
0.79367	-54
0.79733	-60
0.80100	-64
0.80467	-65
0.80833	-63
0.81200	-61
0.81567	-61
0.81933	-64
0.82300	-67
0.82667	-69
0.83033	-70
0.83400	-72
0.83767	-74
0.84133	-71
0.84500	-67
0.84867	-65
0.85233	-67
0.85600	-71
0.85967	-73
0.86333	-73
0.86700	-71
0.87067	-68
0.87433	-68
0.87800	-70
0.88167	-73
0.88533	-74
0.88900	-78
0.89267	-82
0.89633	-83
0.90000	-81
0.90367	-81
0.90733	-86
0.91100	-92
0.91467	-98
0.91833	-101
0.92200	-104
0.92567	-104
0.92933	-98
0.93300	-91
0.93667	-85
0.94033	-79
0.94400	-78
0.94767	-81
0.95133	-84
0.95500	-87
0.95867	-91
0.96233	-92
0.96600	-90
0.96967	-87
0.97333	-84
0.97700	-82
0.98067	-80
0.98433	-78
0.98800	-72
0.99167	-64
0.99533	-59
0.99900	-58
1.00267	-61
1.00633	-65
1.01000	-69
1.01367	-72
1.01733	-76
1.02100	-84
1.02467	-93
1.02833	-100
1.03200	-103
1.03567	-102
1.03933	-100
1.04300	-95
1.04667	-90
1.05033	-90
1.05400	-95
1.05767	-100
1.06133	-101
1.06500	-98
1.06867	-98
1.07233	-98
1.07600	-100
1.07967	-100
1.08333	-101
1.08700	-100
1.09067	-100
1.09433	-103
1.09800	-109
1.10167	-111
1.10533	-106
1.10900	-98
1.11267	-91
1.11633	-87
1.12000	-86
1.12367	-87
1.12733	-87
1.13100	-88
1.13467	-91
1.13833	-94
1.14200	-95
1.14567	-96
1.14933	-99
1.15300	-106
1.15667	-113
1.16033	-115
1.16400	-113
1.16767	-114
1.17133	-117
1.17500	-115
1.17867	-110
1.18233	-104
1.18600	-104
1.18967	-105
1.19333	-105
1.19700	-101
1.20067	-98
1.20433	-98
1.20800	-101
1.21167	-102
1.21533	-100
1.21900	-100
1.22267	-101
1.22633	-101
1.23000	-101
1.23367	-101
1.23733	-105
1.24100	-111
1.24467	-117
1.24833	-120
1.25200	-121
1.25567	-122
1.25933	-121
1.26300	-121
1.26667	-120
1.27033	-118
1.27400	-114
1.27767	-111
1.28133	-104
1.28500	-98
1.28867	-95
1.29233	-97
1.29600	-98
1.29967	-103
1.30333	-108
1.30700	-110
1.31067	-109
1.31433	-106
1.31800	-103
1.32167	-104
1.32533	-108
1.32900	-110
1.33267	-110
1.33633	-110
1.34000	-112
1.34367	-115
1.34733	-118
1.35100	-120
1.35467	-124
1.35833	-126
1.36200	-123
1.36567	-117
1.36933	-112
1.37300	-109
1.37667	-107
1.38033	-108
1.38400	-111
1.38767	-116
1.39133	-119
1.39500	-120
1.39867	-120
1.40233	-118
1.40600	-113
1.40967	-107
1.41333	-102
1.41700	-101
1.42067	-107
1.42433	-119
1.42800	-132
1.43167	-141
1.43533	-145
1.43900	-141
1.44267	-108
1.44633	20
1.45000	282
1.45367	691
1.45733	1295
1.46100	2077
1.46467	2897
1.46833	3612
1.47200	4153
1.47567	4494
1.47933	4613
1.48300	4478
1.48667	4089
1.49033	3503
1.49400	2833
1.49767	2184
1.50133	1629
1.50500	1185
1.50867	844
1.51233	590
1.51600	404
1.51967	269
1.52333	169
1.52700	98
1.53067	49
1.53433	16
1.53800	-4
1.54167	3
1.54533	74
1.54900	274
1.55267	629
1.55633	1081
1.56000	1531
1.56367	1903
1.56733	2168
1.57100	2306
1.57467	2289
1.57833	2097
1.58200	1764
1.58567	1368
1.58933	987
1.59300	668
1.59667	425
1.60033	247
1.60400	119
1.60767	31
1.61133	-30
1.61500	-72
1.61867	-99
1.62233	-114
1.62600	-120
1.62967	-125
1.63333	-127
1.63700	-127
1.64067	-127
1.64433	-126
1.64800	-128
1.65167	-131
1.65533	-136
1.65900	-143
1.66267	-149
1.66633	-152
1.67000	-151
1.67367	-146
1.67733	-137
1.68100	-128
1.68467	-123
1.68833	-120
1.69200	-117
1.69567	-115
1.69933	-116
1.70300	-126
1.70667	-137
1.71033	-145
1.71400	-149
1.71767	-150
1.72133	-151
1.72500	-149
1.72867	-147
1.73233	-144
1.73600	-146
1.73967	-154
1.74333	-161
1.74700	-166
1.75067	-165
1.75433	-160
1.75800	-155
1.76167	-149
1.76533	-142
1.76900	-134
1.77267	-129
1.77633	-129
1.78000	-129
1.78367	-128
1.78733	-123
1.79100	-119
1.79467	-119
1.79833	-120
1.80200	-120
1.80567	-121
1.80933	-120
1.81300	-122
1.81667	-125
1.82033	-126
1.82400	-124
1.82767	-118
1.83133	-111
1.83500	-106
1.83867	-107
1.84233	-112
1.84600	-121
1.84967	-133
1.85333	-143
1.85700	-150
1.86067	-152
1.86433	-149
1.86800	-144
1.87167	-138
1.87533	-131
1.87900	-123
1.88267	-119
1.88633	-117
1.89000	-118
1.89367	-119
1.89733	-124
1.90100	-129
1.90467	-137
1.90833	-142
1.91200	-140
1.91567	-134
1.91933	-128
1.92300	-126
1.92667	-126
1.93033	-126
1.93400	-126
1.93767	-125
1.94133	-121
1.94500	-118
1.94867	-114
1.95233	-110
1.95600	-93
1.95967	31
1.96333	784
1.96700	4272
1.97067	16481
1.97433	49162
1.97800	116926
1.98167	227351
1.98533	371769
1.98900	526841
1.99267	665544
1.99633	766434
2.00000	815541
2.00367	806855
2.00733	744458
2.01100	642516
2.01467	521430
2.01833	401067
2.02200	295403
2.02567	210704
2.02933	147149
2.03300	101635
2.03667	70061
2.04033	48596
2.04400	34162
2.04767	24490
2.05133	17985
2.05500	13567
2.05867	10519
2.06233	8376
2.06600	6836
2.06967	5705
2.07333	4856
2.07700	4203
2.08067	3686
2.08433	3269
2.08800	2927
2.09167	2645
2.09533	2413
2.09900	2217
2.10267	2049
2.10633	1903
2.11000	1776
2.11367	1660
2.11733	1553
2.12100	1455
2.12467	1367
2.12833	1291
2.13200	1223
2.13567	1163
2.13933	1104
2.14300	1044
2.14667	987
2.15033	936
2.15400	889
2.15767	845
2.16133	807
2.16500	773
2.16867	742
2.17233	715
2.17600	693
2.17967	673
2.18333	652
2.18700	628
2.19067	605
2.19433	584
2.19800	566
2.20167	548
2.20533	531
2.20900	513
2.21267	494
2.21633	477
2.22000	461
2.22367	447
2.22733	430
2.23100	414
2.23467	397
2.23833	378
2.24200	360
2.24567	347
2.24933	338
2.25300	329
2.25667	320
2.26033	311
2.26400	301
2.26767	289
2.27133	281
2.27500	277
2.27867	273
2.28233	269
2.28600	266
2.28967	264
2.29333	258
2.29700	252
2.30067	250
2.30433	252
2.30800	255
2.31167	256
2.31533	253
2.31900	245
2.32267	234
2.32633	222
2.33000	208
2.33367	194
2.33733	183
2.34100	178
2.34467	176
2.34833	175
2.35200	172
2.35567	170
2.35933	169
2.36300	166
2.36667	161
2.37033	158
2.37400	158
2.37767	161
2.38133	163
2.38500	163
2.38867	158
2.39233	154
2.39600	153
2.39967	159
2.40333	169
2.40700	173
2.41067	169
2.41433	162
2.41800	156
2.42167	151
2.42533	147
2.42900	141
2.43267	135
2.43633	131
2.44000	128
2.44367	128
2.44733	129
2.45100	126
2.45467	119
2.45833	111
2.46200	105
2.46567	99
2.46933	97
2.47300	100
2.47667	105
2.48033	107
2.48400	105
2.48767	101
2.49133	97
2.49500	94
2.49867	90
2.50233	87
2.50600	87
2.50967	88
2.51333	92
2.51700	100
2.52067	106
2.52433	109
2.52800	109
2.53167	108
2.53533	106
2.53900	100
2.54267	92
2.54633	88
2.55000	90
2.55367	92
2.55733	94
2.56100	94
2.56467	94
2.56833	96
2.57200	102
2.57567	111
2.57933	116
2.58300	109
2.58667	93
2.59033	73
2.59400	54
2.59767	41
2.60133	34
2.60500	34
2.60867	37
2.61233	39
2.61600	43
2.61967	47
2.62333	53
2.62700	56
2.63067	53
2.63433	47
2.63800	44
2.64167	42
2.64533	43
2.64900	49
2.65267	58
2.65633	64
2.66000	66
2.66367	66
2.66733	63
2.67100	62
2.67467	64
2.67833	67
2.68200	68
2.68567	67
2.68933	67
2.69300	66
2.69667	66
2.70033	65
2.70400	64
2.70767	62
2.71133	61
2.71500	60
2.71867	62
2.72233	65
2.72600	67
2.72967	66
2.73333	66
2.73700	65
2.74067	65
2.74433	62
2.74800	57
2.75167	58
2.75533	61
2.75900	65
2.76267	67
2.76633	68
2.77000	68
2.77367	66
2.77733	62
2.78100	60
2.78467	57
2.78833	55
2.79200	55
2.79567	57
2.79933	61
2.80300	65
2.80667	70
2.81033	72
2.81400	72
2.81767	74
2.82133	73
2.82500	69
2.82867	67
2.83233	68
2.83600	71
2.83967	74
2.84333	76
2.84700	78
2.85067	81
2.85433	82
2.85800	77
2.86167	65
2.86533	55
2.86900	53
2.87267	55
2.87633	59
2.88000	60
2.88367	58
2.88733	55
2.89100	56
2.89467	62
2.89833	66
2.90200	70
2.90567	73
2.90933	72
2.91300	68
2.91667	66
2.92033	67
2.92400	71
2.92767	75
2.93133	78
2.93500	77
2.93867	73
2.94233	70
2.94600	71
2.94967	76
2.95333	80
2.95700	80
2.96067	79
2.96433	78
2.96800	77
2.97167	73
2.97533	66
2.97900	59
2.98267	54
2.98633	52
2.99000	52
2.99367	51
2.99733	55
3.00100	64
3.00467	75
3.00833	87
3.01200	100
3.01567	105
3.01933	102
3.02300	95
3.02667	88
3.03033	80
3.03400	72
3.03767	66
3.04133	62
3.04500	58
3.04867	56
3.05233	57
3.05600	60
3.05967	65
3.06333	70
3.06700	73
3.07067	72
3.07433	70
3.07800	71
3.08167	73
3.08533	71
3.08900	68
3.09267	63
3.09633	56
3.10000	51
3.10367	48
3.10733	47
3.11100	45
3.11467	42
3.11833	40
3.12200	43
3.12567	53
3.12933	62
3.13300	67
3.13667	69
3.14033	66
3.14400	63
3.14767	58
3.15133	54
3.15500	52
3.15867	48
3.16233	45
3.16600	44
3.16967	45
3.17333	46
3.17700	49
3.18067	55
3.18433	62
3.18800	67
3.19167	69
3.19533	69
3.19900	67
3.20267	61
3.20633	53
3.21000	46
3.21367	40
3.21733	37
3.22100	38
3.22467	40
3.22833	43
3.23200	47
3.23567	50
3.23933	53
3.24300	52
3.24667	52
3.25033	53
3.25400	54
3.25767	52
3.26133	49
3.26500	46
3.26867	46
3.27233	47
3.27600	51
3.27967	54
3.28333	57
3.28700	59
3.29067	58
3.29433	54
3.29800	48
3.30167	42
3.30533	41
3.30900	45
3.31267	49
3.31633	52
3.32000	52
3.32367	51
3.32733	50
3.33100	49
3.33467	43
3.33833	37
3.34200	35
3.34567	37
3.34933	40
3.35300	41
3.35667	43
3.36033	46
3.36400	48
3.36767	44
3.37133	38
3.37500	36
3.37867	38
3.38233	43
3.38600	46
3.38967	45
3.39333	45
3.39700	47
3.40067	51
3.40433	55
3.40800	56
3.41167	57
3.41533	58
3.41900	58
3.42267	56
3.42633	53
3.43000	51
3.43367	49
3.43733	45
3.44100	41
3.44467	37
3.44833	33
3.45200	32
3.45567	36
3.45933	40
3.46300	43
3.46667	47
3.47033	51
3.47400	54
3.47767	51
3.48133	48
3.48500	47
3.48867	46
3.49233	45
3.49600	45
3.49967	46
3.50333	46
3.50700	48
3.51067	50
3.51433	50
3.51800	50
3.52167	48
3.52533	44
3.52900	39
3.53267	35
3.53633	31
3.54000	30
3.54367	29
3.54733	30
3.55100	32
3.55467	34
3.55833	34
3.56200	36
3.56567	40
3.56933	42
3.57300	44
3.57667	44
3.58033	45
3.58400	46
3.58767	51
3.59133	53
3.59500	51
3.59867	46
3.60233	40
3.60600	32
3.60967	27
3.61333	26
3.61700	28
3.62067	29
3.62433	25
3.62800	21
3.63167	19
3.63533	18
3.63900	19
3.64267	21
3.64633	23
3.65000	25
3.65367	26
3.65733	29
3.66100	30
3.66467	32
3.66833	33
3.67200	32
3.67567	30
3.67933	29
3.68300	28
3.68667	27
3.69033	23
3.69400	20
3.69767	18
3.70133	21
3.70500	26
3.70867	31
3.71233	35
3.71600	36
3.71967	35
3.72333	33
3.72700	32
3.73067	30
3.73433	26
3.73800	21
3.74167	16
3.74533	14
3.74900	17
3.75267	21
3.75633	25
3.76000	25
3.76367	21
3.76733	18
3.77100	20
3.77467	20
3.77833	18
3.78200	16
3.78567	13
3.78933	13
3.79300	17
3.79667	24
3.80033	32
3.80400	37
3.80767	39
3.81133	38
3.81500	36
3.81867	34
3.82233	32
3.82600	32
3.82967	33
3.83333	34
3.83700	31
3.84067	29
3.84433	30
3.84800	31
3.85167	30
3.85533	30
3.85900	32
3.86267	34
3.86633	30
3.87000	24
3.87367	24
3.87733	25
3.88100	24
3.88467	22
3.88833	19
3.89200	16
3.89567	13
3.89933	12
3.90300	13
3.90667	13
3.91033	10
3.91400	7
3.91767	7
3.92133	9
3.92500	13
3.92867	17
3.93233	18
3.93600	18
3.93967	20
3.94333	25
3.94700	29
3.95067	30
3.95433	29
3.95800	29
3.96167	27
3.96533	23
3.96900	21
3.97267	20
3.97633	23
3.98000	28
3.98367	33
3.98733	37
3.99100	38
3.99467	37
3.99833	36

[Chromatogram (Ch2)]
Interval(msec)	220
# of Points	1091
Start Time(min)	0.002
End Time(min)	3.998
R.Time (min)	Intensity
0.00167	1
0.00533	1
0.00900	1
0.01267	1
0.01633	1
0.02000	1
0.02367	1
0.02733	1
0.03100	2
0.03467	2
0.03833	2
0.04200	2
0.04567	3
0.04933	3
0.05300	3
0.05667	3
0.06033	3
0.06400	3
0.06767	3
0.07133	3
0.07500	3
0.07867	3
0.08233	3
0.08600	3
0.08967	2
0.09333	2
0.09700	2
0.10067	2
0.10433	1
0.10800	1
0.11167	1
0.11533	1
0.11900	1
0.12267	2
0.12633	2
0.13000	2
0.13367	2
0.13733	2
0.14100	3
0.14467	3
0.14833	3
0.15200	4
0.15567	4
0.15933	4
0.16300	4
0.16667	4
0.17033	4
0.17400	4
0.17767	4
0.18133	4
0.18500	4
0.18867	4
0.19233	4
0.19600	4
0.19967	4
0.20333	4
0.20700	4
0.21067	3
0.21433	3
0.21800	3
0.22167	2
0.22533	2
0.22900	2
0.23267	1
0.23633	1
0.24000	1
0.24367	1
0.24733	1
0.25100	0
0.25467	-0
0.25833	-1
0.26200	-1
0.26567	-1
0.26933	-2
0.27300	-2
0.27667	-2
0.28033	-2
0.28400	-1
0.28767	-1
0.29133	-1
0.29500	-1
0.29867	-0
0.30233	-0
0.30600	0
0.30967	0
0.31333	1
0.31700	1
0.32067	1
0.32433	1
0.32800	2
0.33167	2
0.33533	2
0.33900	3
0.34267	3
0.34633	3
0.35000	3
0.35367	3
0.35733	3
0.36100	3
0.36467	3
0.36833	3
0.37200	3
0.37567	3
0.37933	3
0.38300	3
0.38667	3
0.39033	3
0.39400	3
0.39767	2
0.40133	2
0.40500	2
0.40867	2
0.41233	2
0.41600	2
0.41967	2
0.42333	2
0.42700	2
0.43067	2
0.43433	2
0.43800	2
0.44167	2
0.44533	1
0.44900	1
0.45267	2
0.45633	2
0.46000	2
0.46367	2
0.46733	2
0.47100	2
0.47467	3
0.47833	3
0.48200	3
0.48567	3
0.48933	3
0.49300	3
0.49667	3
0.50033	4
0.50400	4
0.50767	4
0.51133	4
0.51500	4
0.51867	3
0.52233	3
0.52600	3
0.52967	3
0.53333	3
0.53700	2
0.54067	2
0.54433	1
0.54800	1
0.55167	1
0.55533	0
0.55900	-0
0.56267	-1
0.56633	-1
0.57000	-2
0.57367	-2
0.57733	-3
0.58100	-3
0.58467	-3
0.58833	-3
0.59200	-2
0.59567	-2
0.59933	-2
0.60300	-2
0.60667	-2
0.61033	-2
0.61400	-2
0.61767	-2
0.62133	-2
0.62500	-2
0.62867	-1
0.63233	-1
0.63600	-0
0.63967	0
0.64333	0
0.64700	0
0.65067	0
0.65433	0
0.65800	0
0.66167	1
0.66533	1
0.66900	1
0.67267	1
0.67633	1
0.68000	1
0.68367	2
0.68733	2
0.69100	2
0.69467	3
0.69833	3
0.70200	4
0.70567	4
0.70933	4
0.71300	4
0.71667	4
0.72033	4
0.72400	4
0.72767	4
0.73133	4
0.73500	4
0.73867	4
0.74233	3
0.74600	3
0.74967	3
0.75333	2
0.75700	3
0.76067	3
0.76433	3
0.76800	3
0.77167	3
0.77533	3
0.77900	4
0.78267	4
0.78633	3
0.79000	3
0.79367	3
0.79733	3
0.80100	4
0.80467	4
0.80833	4
0.81200	4
0.81567	4
0.81933	4
0.82300	4
0.82667	4
0.83033	4
0.83400	4
0.83767	4
0.84133	3
0.84500	3
0.84867	3
0.85233	3
0.85600	4
0.85967	4
0.86333	4
0.86700	4
0.87067	4
0.87433	4
0.87800	4
0.88167	4
0.88533	4
0.88900	3
0.89267	3
0.89633	3
0.90000	3
0.90367	2
0.90733	2
0.91100	2
0.91467	2
0.91833	2
0.92200	2
0.92567	2
0.92933	2
0.93300	2
0.93667	2
0.94033	2
0.94400	2
0.94767	1
0.95133	1
0.95500	1
0.95867	1
0.96233	1
0.96600	1
0.96967	1
0.97333	1
0.97700	1
0.98067	1
0.98433	1
0.98800	1
0.99167	1
0.99533	0
0.99900	0
1.00267	-0
1.00633	-0
1.01000	-0
1.01367	-0
1.01733	-0
1.02100	-0
1.02467	-0
1.02833	-0
1.03200	-0
1.03567	-0
1.03933	-0
1.04300	0
1.04667	0
1.05033	0
1.05400	1
1.05767	1
1.06133	1
1.06500	1
1.06867	1
1.07233	1
1.07600	1
1.07967	1
1.08333	1
1.08700	1
1.09067	1
1.09433	1
1.09800	1
1.10167	1
1.10533	1
1.10900	1
1.11267	1
1.11633	1
1.12000	0
1.12367	-0
1.12733	-0
1.13100	-0
1.13467	-0
1.13833	-0
1.14200	-0
1.14567	0
1.14933	0
1.15300	0
1.15667	1
1.16033	1
1.16400	1
1.16767	1
1.17133	1
1.17500	1
1.17867	1
1.18233	1
1.18600	1
1.18967	1
1.19333	1
1.19700	1
1.20067	1
1.20433	1
1.20800	0
1.21167	0
1.21533	0
1.21900	-0
1.22267	-1
1.22633	-1
1.23000	-2
1.23367	-2
1.23733	-3
1.24100	-4
1.24467	-4
1.24833	-5
1.25200	-5
1.25567	-6
1.25933	-6
1.26300	-6
1.26667	-6
1.27033	-5
1.27400	-5
1.27767	-4
1.28133	-4
1.28500	-3
1.28867	-2
1.29233	-1
1.29600	-1
1.29967	-0
1.30333	0
1.30700	1
1.31067	1
1.31433	2
1.31800	2
1.32167	3
1.32533	3
1.32900	3
1.33267	3
1.33633	3
1.34000	4
1.34367	4
1.34733	3
1.35100	3
1.35467	3
1.35833	2
1.36200	2
1.36567	2
1.36933	2
1.37300	2
1.37667	2
1.38033	2
1.38400	2
1.38767	2
1.39133	2
1.39500	2
1.39867	1
1.40233	1
1.40600	0
1.40967	-0
1.41333	-0
1.41700	-1
1.42067	-1
1.42433	-1
1.42800	-0
1.43167	-0
1.43533	-0
1.43900	0
1.44267	1
1.44633	1
1.45000	1
1.45367	2
1.45733	2
1.46100	2
1.46467	2
1.46833	2
1.47200	2
1.47567	2
1.47933	2
1.48300	2
1.48667	2
1.49033	2
1.49400	2
1.49767	2
1.50133	2
1.50500	2
1.50867	2
1.51233	2
1.51600	2
1.51967	2
1.52333	2
1.52700	2
1.53067	2
1.53433	2
1.53800	2
1.54167	2
1.54533	1
1.54900	1
1.55267	1
1.55633	1
1.56000	1
1.56367	1
1.56733	0
1.57100	0
1.57467	0
1.57833	0
1.58200	0
1.58567	0
1.58933	0
1.59300	-0
1.59667	-1
1.60033	-1
1.60400	-2
1.60767	-4
1.61133	-5
1.61500	-7
1.61867	-9
1.62233	-12
1.62600	-15
1.62967	-18
1.63333	-21
1.63700	-25
1.64067	-28
1.64433	-32
1.64800	-36
1.65167	-39
1.65533	-44
1.65900	-48
1.66267	-52
1.66633	-57
1.67000	-62
1.67367	-68
1.67733	-73
1.68100	-78
1.68467	-84
1.68833	-89
1.69200	-93
1.69567	-97
1.69933	-100
1.70300	-103
1.70667	-104
1.71033	-106
1.71400	-107
1.71767	-108
1.72133	-109
1.72500	-110
1.72867	-111
1.73233	-112
1.73600	-113
1.73967	-114
1.74333	-114
1.74700	-115
1.75067	-116
1.75433	-117
1.75800	-117
1.76167	-118
1.76533	-118
1.76900	-118
1.77267	-118
1.77633	-118
1.78000	-117
1.78367	-117
1.78733	-116
1.79100	-116
1.79467	-116
1.79833	-117
1.80200	-117
1.80567	-117
1.80933	-117
1.81300	-118
1.81667	-118
1.82033	-119
1.82400	-120
1.82767	-120
1.83133	-120
1.83500	-120
1.83867	-120
1.84233	-120
1.84600	-120
1.84967	-120
1.85333	-120
1.85700	-120
1.86067	-120
1.86433	-120
1.86800	-120
1.87167	-121
1.87533	-121
1.87900	-121
1.88267	-121
1.88633	-121
1.89000	-121
1.89367	-120
1.89733	-120
1.90100	-120
1.90467	-121
1.90833	-121
1.91200	-121
1.91567	-121
1.91933	-121
1.92300	-120
1.92667	-119
1.93033	-119
1.93400	-118
1.93767	-118
1.94133	-117
1.94500	-117
1.94867	-117
1.95233	-116
1.95600	-116
1.95967	-116
1.96333	-117
1.96700	-117
1.97067	-117
1.97433	-117
1.97800	-117
1.98167	-117
1.98533	-118
1.98900	-118
1.99267	-117
1.99633	-117
2.00000	-116
2.00367	-116
2.00733	-116
2.01100	-116
2.01467	-115
2.01833	-115
2.02200	-115
2.02567	-115
2.02933	-115
2.03300	-114
2.03667	-114
2.04033	-114
2.04400	-113
2.04767	-112
2.05133	-112
2.05500	-112
2.05867	-112
2.06233	-111
2.06600	-111
2.06967	-110
2.07333	-109
2.07700	-108
2.08067	-108
2.08433	-108
2.08800	-107
2.09167	-107
2.09533	-106
2.09900	-106
2.10267	-105
2.10633	-104
2.11000	-104
2.11367	-103
2.11733	-103
2.12100	-103
2.12467	-103
2.12833	-103
2.13200	-103
2.13567	-103
2.13933	-103
2.14300	-103
2.14667	-102
2.15033	-101
2.15400	-100
2.15767	-99
2.16133	-99
2.16500	-99
2.16867	-99
2.17233	-99
2.17600	-99
2.17967	-99
2.18333	-99
2.18700	-99
2.19067	-99
2.19433	-98
2.19800	-97
2.20167	-96
2.20533	-95
2.20900	-95
2.21267	-95
2.21633	-95
2.22000	-95
2.22367	-94
2.22733	-95
2.23100	-95
2.23467	-96
2.23833	-97
2.24200	-98
2.24567	-98
2.24933	-98
2.25300	-97
2.25667	-96
2.26033	-95
2.26400	-94
2.26767	-93
2.27133	-92
2.27500	-92
2.27867	-92
2.28233	-92
2.28600	-91
2.28967	-91
2.29333	-91
2.29700	-90
2.30067	-90
2.30433	-89
2.30800	-89
2.31167	-89
2.31533	-88
2.31900	-88
2.32267	-88
2.32633	-87
2.33000	-87
2.33367	-86
2.33733	-86
2.34100	-86
2.34467	-85
2.34833	-85
2.35200	-84
2.35567	-83
2.35933	-82
2.36300	-81
2.36667	-79
2.37033	-77
2.37400	-75
2.37767	-73
2.38133	-70
2.38500	-67
2.38867	-63
2.39233	-59
2.39600	-55
2.39967	-51
2.40333	-46
2.40700	-42
2.41067	-38
2.41433	-34
2.41800	-31
2.42167	-27
2.42533	-24
2.42900	-21
2.43267	-19
2.43633	-17
2.44000	-15
2.44367	-13
2.44733	-11
2.45100	-9
2.45467	-8
2.45833	-6
2.46200	-5
2.46567	-4
2.46933	-2
2.47300	-1
2.47667	0
2.48033	1
2.48400	2
2.48767	3
2.49133	3
2.49500	4
2.49867	4
2.50233	5
2.50600	5
2.50967	6
2.51333	8
2.51700	9
2.52067	11
2.52433	12
2.52800	12
2.53167	13
2.53533	13
2.53900	13
2.54267	13
2.54633	14
2.55000	14
2.55367	14
2.55733	14
2.56100	15
2.56467	15
2.56833	16
2.57200	16
2.57567	17
2.57933	17
2.58300	17
2.58667	17
2.59033	17
2.59400	17
2.59767	17
2.60133	16
2.60500	16
2.60867	15
2.61233	15
2.61600	15
2.61967	15
2.62333	16
2.62700	16
2.63067	17
2.63433	18
2.63800	18
2.64167	18
2.64533	19
2.64900	19
2.65267	19
2.65633	19
2.66000	20
2.66367	20
2.66733	21
2.67100	21
2.67467	21
2.67833	21
2.68200	21
2.68567	21
2.68933	20
2.69300	20
2.69667	20
2.70033	20
2.70400	20
2.70767	20
2.71133	20
2.71500	21
2.71867	21
2.72233	21
2.72600	22
2.72967	22
2.73333	22
2.73700	23
2.74067	23
2.74433	22
2.74800	22
2.75167	22
2.75533	22
2.75900	22
2.76267	22
2.76633	23
2.77000	23
2.77367	23
2.77733	24
2.78100	24
2.78467	25
2.78833	25
2.79200	25
2.79567	26
2.79933	26
2.80300	26
2.80667	27
2.81033	27
2.81400	27
2.81767	27
2.82133	27
2.82500	27
2.82867	27
2.83233	27
2.83600	27
2.83967	27
2.84333	27
2.84700	26
2.85067	26
2.85433	24
2.85800	21
2.86167	16
2.86533	9
2.86900	-2
2.87267	-15
2.87633	-33
2.88000	-54
2.88367	-79
2.88733	-108
2.89100	-141
2.89467	-177
2.89833	-216
2.90200	-259
2.90567	-304
2.90933	-350
2.91300	-399
2.91667	-448
2.92033	-498
2.92400	-548
2.92767	-598
2.93133	-649
2.93500	-698
2.93867	-747
2.94233	-796
2.94600	-846
2.94967	-901
2.95333	-961
2.95700	-1022
2.96067	-1072
2.96433	-1101
2.96800	-1105
2.97167	-1082
2.97533	-1036
2.97900	-974
2.98267	-901
2.98633	-821
2.99000	-740
2.99367	-661
2.99733	-584
3.00100	-513
3.00467	-448
3.00833	-389
3.01200	-337
3.01567	-290
3.01933	-249
3.02300	-213
3.02667	-182
3.03033	-154
3.03400	-131
3.03767	-111
3.04133	-93
3.04500	-78
3.04867	-65
3.05233	-54
3.05600	-45
3.05967	-36
3.06333	-29
3.06700	-23
3.07067	-18
3.07433	-13
3.07800	-9
3.08167	-6
3.08533	-3
3.08900	-1
3.09267	1
3.09633	3
3.10000	5
3.10367	6
3.10733	8
3.11100	9
3.11467	10
3.11833	11
3.12200	12
3.12567	12
3.12933	13
3.13300	14
3.13667	15
3.14033	15
3.14400	16
3.14767	16
3.15133	16
3.15500	17
3.15867	17
3.16233	17
3.16600	17
3.16967	17
3.17333	17
3.17700	18
3.18067	18
3.18433	18
3.18800	18
3.19167	19
3.19533	19
3.19900	19
3.20267	19
3.20633	19
3.21000	20
3.21367	20
3.21733	20
3.22100	21
3.22467	21
3.22833	21
3.23200	21
3.23567	21
3.23933	20
3.24300	20
3.24667	20
3.25033	20
3.25400	21
3.25767	21
3.26133	21
3.26500	21
3.26867	22
3.27233	22
3.27600	22
3.27967	22
3.28333	22
3.28700	23
3.29067	23
3.29433	23
3.29800	23
3.30167	23
3.30533	23
3.30900	24
3.31267	23
3.31633	23
3.32000	23
3.32367	23
3.32733	23
3.33100	23
3.33467	23
3.33833	23
3.34200	23
3.34567	23
3.34933	23
3.35300	23
3.35667	24
3.36033	24
3.36400	25
3.36767	26
3.37133	27
3.37500	27
3.37867	28
3.38233	28
3.38600	28
3.38967	29
3.39333	29
3.39700	29
3.40067	29
3.40433	29
3.40800	29
3.41167	29
3.41533	29
3.41900	28
3.42267	28
3.42633	28
3.43000	27
3.43367	27
3.43733	27
3.44100	27
3.44467	27
3.44833	27
3.45200	27
3.45567	27
3.45933	27
3.46300	27
3.46667	27
3.47033	27
3.47400	27
3.47767	27
3.48133	27
3.48500	27
3.48867	27
3.49233	27
3.49600	27
3.49967	27
3.50333	27
3.50700	27
3.51067	27
3.51433	27
3.51800	28
3.52167	28
3.52533	28
3.52900	28
3.53267	29
3.53633	29
3.54000	29
3.54367	29
3.54733	29
3.55100	28
3.55467	28
3.55833	28
3.56200	27
3.56567	27
3.56933	27
3.57300	27
3.57667	27
3.58033	27
3.58400	26
3.58767	26
3.59133	26
3.59500	26
3.59867	26
3.60233	26
3.60600	25
3.60967	25
3.61333	26
3.61700	26
3.62067	26
3.62433	26
3.62800	25
3.63167	25
3.63533	25
3.63900	25
3.64267	25
3.64633	25
3.65000	25
3.65367	25
3.65733	25
3.66100	25
3.66467	25
3.66833	25
3.67200	25
3.67567	25
3.67933	25
3.68300	25
3.68667	25
3.69033	25
3.69400	24
3.69767	24
3.70133	24
3.70500	23
3.70867	23
3.71233	23
3.71600	23
3.71967	23
3.72333	22
3.72700	22
3.73067	22
3.73433	22
3.73800	22
3.74167	22
3.74533	23
3.74900	23
3.75267	23
3.75633	23
3.76000	23
3.76367	23
3.76733	23
3.77100	23
3.77467	23
3.77833	23
3.78200	23
3.78567	23
3.78933	23
3.79300	23
3.79667	23
3.80033	23
3.80400	24
3.80767	24
3.81133	24
3.81500	24
3.81867	24
3.82233	24
3.82600	24
3.82967	24
3.83333	24
3.83700	24
3.84067	24
3.84433	24
3.84800	24
3.85167	24
3.85533	24
3.85900	24
3.86267	25
3.86633	25
3.87000	25
3.87367	25
3.87733	25
3.88100	25
3.88467	25
3.88833	26
3.89200	26
3.89567	26
3.89933	26
3.90300	26
3.90667	26
3.91033	27
3.91400	27
3.91767	27
3.92133	27
3.92500	27
3.92867	27
3.93233	27
3.93600	27
3.93967	27
3.94333	27
3.94700	27
3.95067	26
3.95433	26
3.95800	26
3.96167	26
3.96533	26
3.96900	25
3.97267	25
3.97633	25
3.98000	25
3.98367	25
3.98733	25
3.99100	25
3.99467	25
3.99833	25

[Chromatogram (Ch3)]
Interval(msec)	220
# of Points	1091
Start Time(min)	0.002
End Time(min)	3.998
R.Time (min)	Intensity
0.00167	1
0.00533	3
0.00900	5
0.01267	5
0.01633	7
0.02000	9
0.02367	10
0.02733	8
0.03100	8
0.03467	8
0.03833	9
0.04200	9
0.04567	8
0.04933	8
0.05300	8
0.05667	9
0.06033	10
0.06400	13
0.06767	16
0.07133	17
0.07500	15
0.07867	14
0.08233	11
0.08600	9
0.08967	9
0.09333	9
0.09700	8
0.10067	9
0.10433	9
0.10800	12
0.11167	13
0.11533	13
0.11900	13
0.12267	12
0.12633	10
0.13000	10
0.13367	11
0.13733	13
0.14100	12
0.14467	11
0.14833	13
0.15200	14
0.15567	15
0.15933	15
0.16300	15
0.16667	14
0.17033	13
0.17400	14
0.17767	15
0.18133	16
0.18500	17
0.18867	17
0.19233	18
0.19600	17
0.19967	17
0.20333	20
0.20700	24
0.21067	24
0.21433	21
0.21800	19
0.22167	16
0.22533	16
0.22900	18
0.23267	22
0.23633	24
0.24000	24
0.24367	22
0.24733	21
0.25100	21
0.25467	22
0.25833	21
0.26200	18
0.26567	18
0.26933	19
0.27300	19
0.27667	18
0.28033	20
0.28400	23
0.28767	22
0.29133	22
0.29500	24
0.29867	24
0.30233	23
0.30600	20
0.30967	19
0.31333	20
0.31700	22
0.32067	23
0.32433	26
0.32800	28
0.33167	29
0.33533	31
0.33900	29
0.34267	27
0.34633	25
0.35000	23
0.35367	24
0.35733	25
0.36100	26
0.36467	27
0.36833	28
0.37200	28
0.37567	27
0.37933	27
0.38300	25
0.38667	24
0.39033	22
0.39400	27
0.39767	28
0.40133	28
0.40500	27
0.40867	28
0.41233	28
0.41600	29
0.41967	30
0.42333	30
0.42700	33
0.43067	34
0.43433	32
0.43800	29
0.44167	28
0.44533	28
0.44900	26
0.45267	26
0.45633	27
0.46000	31
0.46367	32
0.46733	32
0.47100	32
0.47467	33
0.47833	34
0.48200	30
0.48567	29
0.48933	30
0.49300	28
0.49667	31
0.50033	33
0.50400	34
0.50767	33
0.51133	31
0.51500	28
0.51867	27
0.52233	25
0.52600	22
0.52967	22
0.53333	23
0.53700	25
0.54067	26
0.54433	28
0.54800	29
0.55167	28
0.55533	28
0.55900	27
0.56267	26
0.56633	26
0.57000	25
0.57367	23
0.57733	22
0.58100	23
0.58467	27
0.58833	30
0.59200	33
0.59567	33
0.59933	33
0.60300	31
0.60667	29
0.61033	30
0.61400	34
0.61767	34
0.62133	32
0.62500	31
0.62867	29
0.63233	27
0.63600	28
0.63967	30
0.64333	32
0.64700	34
0.65067	35
0.65433	35
0.65800	35
0.66167	33
0.66533	34
0.66900	34
0.67267	33
0.67633	34
0.68000	34
0.68367	32
0.68733	31
0.69100	31
0.69467	30
0.69833	31
0.70200	35
0.70567	38
0.70933	39
0.71300	39
0.71667	37
0.72033	36
0.72400	35
0.72767	33
0.73133	32
0.73500	32
0.73867	34
0.74233	35
0.74600	37
0.74967	36
0.75333	36
0.75700	37
0.76067	38
0.76433	37
0.76800	37
0.77167	33
0.77533	28
0.77900	28
0.78267	32
0.78633	37
0.79000	43
0.79367	44
0.79733	42
0.80100	41
0.80467	38
0.80833	37
0.81200	37
0.81567	36
0.81933	36
0.82300	38
0.82667	39
0.83033	37
0.83400	36
0.83767	35
0.84133	34
0.84500	32
0.84867	33
0.85233	36
0.85600	37
0.85967	38
0.86333	39
0.86700	40
0.87067	40
0.87433	41
0.87800	38
0.88167	36
0.88533	37
0.88900	35
0.89267	33
0.89633	31
0.90000	31
0.90367	31
0.90733	31
0.91100	30
0.91467	31
0.91833	34
0.92200	35
0.92567	36
0.92933	35
0.93300	37
0.93667	36
0.94033	35
0.94400	35
0.94767	36
0.95133	37
0.95500	37
0.95867	37
0.96233	37
0.96600	35
0.96967	36
0.97333	38
0.97700	38
0.98067	38
0.98433	38
0.98800	38
0.99167	39
0.99533	41
0.99900	44
1.00267	46
1.00633	45
1.01000	43
1.01367	43
1.01733	43
1.02100	43
1.02467	44
1.02833	44
1.03200	45
1.03567	45
1.03933	42
1.04300	38
1.04667	38
1.05033	37
1.05400	37
1.05767	41
1.06133	44
1.06500	43
1.06867	40
1.07233	38
1.07600	37
1.07967	39
1.08333	41
1.08700	43
1.09067	44
1.09433	44
1.09800	40
1.10167	37
1.10533	39
1.10900	39
1.11267	39
1.11633	38
1.12000	38
1.12367	35
1.12733	34
1.13100	36
1.13467	37
1.13833	39
1.14200	42
1.14567	43
1.14933	41
1.15300	39
1.15667	38
1.16033	37
1.16400	37
1.16767	37
1.17133	37
1.17500	36
1.17867	38
1.18233	40
1.18600	41
1.18967	42
1.19333	42
1.19700	41
1.20067	41
1.20433	42
1.20800	43
1.21167	43
1.21533	43
1.21900	43
1.22267	44
1.22633	42
1.23000	41
1.23367	39
1.23733	35
1.24100	35
1.24467	37
1.24833	39
1.25200	39
1.25567	39
1.25933	40
1.26300	42
1.26667	42
1.27033	42
1.27400	40
1.27767	38
1.28133	37
1.28500	39
1.28867	44
1.29233	44
1.29600	45
1.29967	43
1.30333	39
1.30700	38
1.31067	38
1.31433	38
1.31800	39
1.32167	38
1.32533	36
1.32900	35
1.33267	34
1.33633	35
1.34000	37
1.34367	37
1.34733	37
1.35100	36
1.35467	38
1.35833	39
1.36200	39
1.36567	39
1.36933	41
1.37300	40
1.37667	39
1.38033	37
1.38400	36
1.38767	34
1.39133	33
1.39500	35
1.39867	37
1.40233	38
1.40600	36
1.40967	33
1.41333	32
1.41700	34
1.42067	34
1.42433	32
1.42800	29
1.43167	30
1.43533	30
1.43900	32
1.44267	33
1.44633	32
1.45000	33
1.45367	34
1.45733	35
1.46100	35
1.46467	37
1.46833	38
1.47200	38
1.47567	37
1.47933	36
1.48300	34
1.48667	32
1.49033	33
1.49400	33
1.49767	35
1.50133	36
1.50500	38
1.50867	40
1.51233	40
1.51600	39
1.51967	40
1.52333	38
1.52700	36
1.53067	35
1.53433	37
1.53800	39
1.54167	43
1.54533	41
1.54900	39
1.55267	37
1.55633	38
1.56000	39
1.56367	38
1.56733	37
1.57100	37
1.57467	39
1.57833	40
1.58200	41
1.58567	43
1.58933	44
1.59300	45
1.59667	45
1.60033	44
1.60400	45
1.60767	46
1.61133	47
1.61500	46
1.61867	45
1.62233	45
1.62600	43
1.62967	42
1.63333	42
1.63700	41
1.64067	43
1.64433	47
1.64800	49
1.65167	50
1.65533	51
1.65900	50
1.66267	49
1.66633	49
1.67000	50
1.67367	52
1.67733	53
1.68100	52
1.68467	52
1.68833	51
1.69200	49
1.69567	50
1.69933	51
1.70300	53
1.70667	53
1.71033	54
1.71400	54
1.71767	52
1.72133	52
1.72500	54
1.72867	56
1.73233	55
1.73600	55
1.73967	56
1.74333	57
1.74700	58
1.75067	59
1.75433	61
1.75800	62
1.76167	62
1.76533	63
1.76900	66
1.77267	67
1.77633	69
1.78000	72
1.78367	70
1.78733	64
1.79100	60
1.79467	59
1.79833	58
1.80200	61
1.80567	65
1.80933	67
1.81300	66
1.81667	65
1.82033	66
1.82400	69
1.82767	72
1.83133	74
1.83500	73
1.83867	72
1.84233	71
1.84600	71
1.84967	71
1.85333	71
1.85700	69
1.86067	67
1.86433	69
1.86800	70
1.87167	71
1.87533	74
1.87900	76
1.88267	76
1.88633	76
1.89000	74
1.89367	76
1.89733	76
1.90100	74
1.90467	73
1.90833	75
1.91200	78
1.91567	81
1.91933	80
1.92300	79
1.92667	78
1.93033	80
1.93400	83
1.93767	86
1.94133	90
1.94500	91
1.94867	89
1.95233	86
1.95600	85
1.95967	87
1.96333	91
1.96700	92
1.97067	90
1.97433	88
1.97800	87
1.98167	86
1.98533	88
1.98900	88
1.99267	89
1.99633	89
2.00000	89
2.00367	92
2.00733	94
2.01100	96
2.01467	96
2.01833	96
2.02200	98
2.02567	101
2.02933	101
2.03300	99
2.03667	98
2.04033	99
2.04400	102
2.04767	103
2.05133	105
2.05500	107
2.05867	106
2.06233	108
2.06600	110
2.06967	112
2.07333	116
2.07700	116
2.08067	115
2.08433	113
2.08800	112
2.09167	113
2.09533	113
2.09900	112
2.10267	114
2.10633	116
2.11000	117
2.11367	116
2.11733	115
2.12100	114
2.12467	116
2.12833	118
2.13200	119
2.13567	122
2.13933	126
2.14300	127
2.14667	125
2.15033	128
2.15400	130
2.15767	130
2.16133	131
2.16500	129
2.16867	128
2.17233	129
2.17600	132
2.17967	135
2.18333	139
2.18700	140
2.19067	141
2.19433	140
2.19800	140
2.20167	139
2.20533	138
2.20900	139
2.21267	140
2.21633	142
2.22000	143
2.22367	145
2.22733	145
2.23100	147
2.23467	150
2.23833	152
2.24200	154
2.24567	154
2.24933	153
2.25300	150
2.25667	150
2.26033	151
2.26400	152
2.26767	154
2.27133	155
2.27500	154
2.27867	153
2.28233	155
2.28600	158
2.28967	160
2.29333	164
2.29700	168
2.30067	169
2.30433	169
2.30800	166
2.31167	165
2.31533	166
2.31900	168
2.32267	169
2.32633	168
2.33000	167
2.33367	167
2.33733	169
2.34100	172
2.34467	174
2.34833	176
2.35200	178
2.35567	177
2.35933	178
2.36300	179
2.36667	179
2.37033	183
2.37400	186
2.37767	186
2.38133	189
2.38500	191
2.38867	192
2.39233	189
2.39600	185
2.39967	184
2.40333	187
2.40700	190
2.41067	191
2.41433	195
2.41800	197
2.42167	197
2.42533	198
2.42900	197
2.43267	198
2.43633	200
2.44000	202
2.44367	210
2.44733	230
2.45100	252
2.45467	270
2.45833	278
2.46200	276
2.46567	272
2.46933	269
2.47300	265
2.47667	259
2.48033	251
2.48400	245
2.48767	236
2.49133	225
2.49500	215
2.49867	208
2.50233	205
2.50600	204
2.50967	203
2.51333	203
2.51700	205
2.52067	208
2.52433	208
2.52800	204
2.53167	198
2.53533	195
2.53900	190
2.54267	185
2.54633	179
2.55000	174
2.55367	173
2.55733	174
2.56100	172
2.56467	165
2.56833	160
2.57200	158
2.57567	158
2.57933	157
2.58300	155
2.58667	154
2.59033	152
2.59400	151
2.59767	151
2.60133	150
2.60500	145
2.60867	138
2.61233	124
2.61600	103
2.61967	78
2.62333	46
2.62700	9
2.63067	-28
2.63433	-59
2.63800	-87
2.64167	-110
2.64533	-127
2.64900	-141
2.65267	-151
2.65633	-155
2.66000	-158
2.66367	-158
2.66733	-155
2.67100	-150
2.67467	-142
2.67833	-131
2.68200	-119
2.68567	-110
2.68933	-101
2.69300	-92
2.69667	-83
2.70033	-73
2.70400	-64
2.70767	-55
2.71133	-42
2.71500	-22
2.71867	13
2.72233	62
2.72600	120
2.72967	181
2.73333	241
2.73700	300
2.74067	356
2.74433	410
2.74800	464
2.75167	517
2.75533	568
2.75900	615
2.76267	659
2.76633	696
2.77000	726
2.77367	753
2.77733	775
2.78100	797
2.78467	817
2.78833	836
2.79200	852
2.79567	867
2.79933	879
2.80300	890
2.80667	900
2.81033	906
2.81400	912
2.81767	919
2.82133	924
2.82500	930
2.82867	938
2.83233	953
2.83600	983
2.83967	1050
2.84333	1173
2.84700	1373
2.85067	1669
2.85433	2071
2.85800	2577
2.86167	3159
2.86533	3779
2.86900	4390
2.87267	4941
2.87633	5386
2.88000	5697
2.88367	5859
2.88733	5875
2.89100	5764
2.89467	5546
2.89833	5250
2.90200	4905
2.90567	4540
2.90933	4173
2.91300	3818
2.91667	3485
2.92033	3174
2.92400	2890
2.92767	2633
2.93133	2405
2.93500	2203
2.93867	2025
2.94233	1872
2.94600	1740
2.94967	1626
2.95333	1522
2.95700	1426
2.96067	1345
2.96433	1277
2.96800	1220
2.97167	1173
2.97533	1130
2.97900	1092
2.98267	1059
2.98633	1029
2.99000	1005
2.99367	985
2.99733	967
3.00100	953
3.00467	941
3.00833	928
3.01200	914
3.01567	904
3.01933	896
3.02300	888
3.02667	884
3.03033	881
3.03400	875
3.03767	872
3.04133	866
3.04500	859
3.04867	853
3.05233	849
3.05600	844
3.05967	842
3.06333	842
3.06700	840
3.07067	838
3.07433	835
3.07800	832
3.08167	830
3.08533	829
3.08900	827
3.09267	824
3.09633	823
3.10000	821
3.10367	819
3.10733	816
3.11100	812
3.11467	810
3.11833	809
3.12200	809
3.12567	808
3.12933	808
3.13300	806
3.13667	802
3.14033	802
3.14400	801
3.14767	801
3.15133	798
3.15500	796
3.15867	794
3.16233	794
3.16600	793
3.16967	792
3.17333	790
3.17700	789
3.18067	787
3.18433	786
3.18800	783
3.19167	780
3.19533	777
3.19900	774
3.20267	770
3.20633	768
3.21000	765
3.21367	762
3.21733	758
3.22100	756
3.22467	755
3.22833	754
3.23200	754
3.23567	752
3.23933	750
3.24300	747
3.24667	747
3.25033	746
3.25400	744
3.25767	741
3.26133	737
3.26500	733
3.26867	729
3.27233	723
3.27600	717
3.27967	715
3.28333	714
3.28700	711
3.29067	707
3.29433	701
3.29800	697
3.30167	692
3.30533	688
3.30900	685
3.31267	683
3.31633	680
3.32000	674
3.32367	669
3.32733	666
3.33100	663
3.33467	659
3.33833	654
3.34200	649
3.34567	648
3.34933	645
3.35300	639
3.35667	635
3.36033	629
3.36400	624
3.36767	622
3.37133	623
3.37500	621
3.37867	618
3.38233	614
3.38600	612
3.38967	612
3.39333	610
3.39700	607
3.40067	604
3.40433	601
3.40800	597
3.41167	594
3.41533	590
3.41900	587
3.42267	585
3.42633	581
3.43000	577
3.43367	574
3.43733	570
3.44100	564
3.44467	558
3.44833	552
3.45200	547
3.45567	545
3.45933	545
3.46300	543
3.46667	540
3.47033	539
3.47400	537
3.47767	534
3.48133	530
3.48500	524
3.48867	522
3.49233	519
3.49600	521
3.49967	519
3.50333	513
3.50700	511
3.51067	508
3.51433	504
3.51800	500
3.52167	496
3.52533	495
3.52900	492
3.53267	490
3.53633	488
3.54000	483
3.54367	479
3.54733	475
3.55100	470
3.55467	468
3.55833	467
3.56200	466
3.56567	466
3.56933	465
3.57300	462
3.57667	460
3.58033	457
3.58400	453
3.58767	450
3.59133	446
3.59500	443
3.59867	442
3.60233	439
3.60600	437
3.60967	433
3.61333	432
3.61700	431
3.62067	428
3.62433	424
3.62800	420
3.63167	417
3.63533	416
3.63900	413
3.64267	412
3.64633	411
3.65000	412
3.65367	413
3.65733	410
3.66100	408
3.66467	405
3.66833	401
3.67200	398
3.67567	397
3.67933	399
3.68300	397
3.68667	395
3.69033	394
3.69400	394
3.69767	394
3.70133	394
3.70500	391
3.70867	388
3.71233	386
3.71600	385
3.71967	384
3.72333	382
3.72700	381
3.73067	381
3.73433	379
3.73800	375
3.74167	371
3.74533	368
3.74900	365
3.75267	364
3.75633	363
3.76000	362
3.76367	361
3.76733	358
3.77100	356
3.77467	355
3.77833	352
3.78200	351
3.78567	350
3.78933	349
3.79300	349
3.79667	347
3.80033	345
3.80400	342
3.80767	340
3.81133	339
3.81500	339
3.81867	338
3.82233	339
3.82600	338
3.82967	336
3.83333	333
3.83700	332
3.84067	331
3.84433	331
3.84800	330
3.85167	328
3.85533	325
3.85900	323
3.86267	322
3.86633	319
3.87000	317
3.87367	316
3.87733	317
3.88100	317
3.88467	316
3.88833	316
3.89200	315
3.89567	312
3.89933	311
3.90300	308
3.90667	308
3.91033	308
3.91400	308
3.91767	306
3.92133	303
3.92500	299
3.92867	294
3.93233	290
3.93600	287
3.93967	288
3.94333	291
3.94700	291
3.95067	288
3.95433	287
3.95800	285
3.96167	283
3.96533	280
3.96900	276
3.97267	271
3.97633	272
3.98000	274
3.98367	273
3.98733	272
3.99100	271
3.99467	268
3.99833	263

[Status Trace (Column Oven Temperature)]
Interval(msec)	1000
# of Points	240
Start Time(min)	0.007
End Time(min)	3.991
Intensity Units	
Intensity Multiplier	1
R.Time (min)	Intensity
0.00740	35.01
0.02407	35.02
0.04073	35.00
0.05740	35.00
0.07407	34.99
0.09073	35.00
0.10740	35.00
0.12407	34.99
0.14073	34.99
0.15740	35.00
0.17407	34.99
0.19073	34.98
0.20740	34.97
0.22407	34.97
0.24073	34.98
0.25740	35.01
0.27407	35.02
0.29073	35.02
0.30740	35.02
0.32407	35.01
0.34073	35.00
0.35740	34.99
0.37407	34.99
0.39073	34.99
0.40740	34.99
0.42407	34.99
0.44073	34.99
0.45740	35.00
0.47407	34.99
0.49073	34.98
0.50740	34.97
0.52407	34.96
0.54073	34.97
0.55740	34.99
0.57407	35.01
0.59073	35.02
0.60740	35.04
0.62407	35.03
0.64073	35.03
0.65740	35.04
0.67407	35.03
0.69073	35.03
0.70740	35.01
0.72407	35.00
0.74073	35.00
0.75740	34.99
0.77407	34.98
0.79073	34.98
0.80740	34.98
0.82407	34.98
0.84073	34.96
0.85740	34.96
0.87407	34.96
0.89073	34.97
0.90740	34.97
0.92407	34.96
0.94073	34.96
0.95740	34.97
0.97407	34.97
0.99073	34.97
1.00740	34.98
1.02407	34.98
1.04073	34.98
1.05740	34.98
1.07407	34.97
1.09073	34.97
1.10740	34.98
1.12407	34.98
1.14073	34.97
1.15740	34.98
1.17407	34.98
1.19073	34.98
1.20740	34.98
1.22407	34.99
1.24073	35.02
1.25740	35.04
1.27407	35.04
1.29073	35.03
1.30740	35.01
1.32407	34.99
1.34073	34.99
1.35740	35.00
1.37407	35.00
1.39073	35.00
1.40740	35.00
1.42407	35.00
1.44073	35.00
1.45740	34.99
1.47407	34.98
1.49073	34.97
1.50740	34.97
1.52407	34.97
1.54073	34.97
1.55740	34.98
1.57407	34.98
1.59073	34.99
1.60740	35.03
1.62407	35.16
1.64073	35.34
1.65740	35.59
1.67407	35.94
1.69073	36.31
1.70740	36.65
1.72407	36.99
1.74073	37.33
1.75740	37.67
1.77407	37.99
1.79073	38.31
1.80740	38.64
1.82407	38.99
1.84073	39.30
1.85740	39.64
1.87407	39.97
1.89073	40.30
1.90740	40.64
1.92407	40.96
1.94073	41.29
1.95740	41.61
1.97407	41.94
1.99073	42.27
2.00740	42.61
2.02407	42.93
2.04073	43.25
2.05740	43.59
2.07407	43.89
2.09073	44.22
2.10740	44.54
2.12407	44.86
2.14073	45.18
2.15740	45.50
2.17407	45.84
2.19073	46.14
2.20740	46.47
2.22407	46.80
2.24073	47.19
2.25740	47.51
2.27407	47.84
2.29073	48.18
2.30740	48.50
2.32407	48.82
2.34073	49.16
2.35740	49.43
2.37407	49.60
2.39073	49.66
2.40740	49.65
2.42407	49.65
2.44073	49.66
2.45740	49.68
2.47407	49.68
2.49073	49.70
2.50740	49.72
2.52407	49.72
2.54073	49.75
2.55740	49.75
2.57407	49.76
2.59073	49.76
2.60740	49.79
2.62407	49.81
2.64073	49.81
2.65740	49.81
2.67407	49.82
2.69073	49.84
2.70740	49.85
2.72407	49.85
2.74073	49.86
2.75740	49.87
2.77407	49.87
2.79073	49.86
2.80740	49.86
2.82407	49.86
2.84073	49.87
2.85740	49.87
2.87407	49.87
2.89073	49.89
2.90740	49.90
2.92407	49.92
2.94073	49.93
2.95740	49.94
2.97407	49.94
2.99073	49.95
3.00740	49.98
3.02407	50.00
3.04073	50.02
3.05740	50.03
3.07407	50.04
3.09073	50.05
3.10740	50.05
3.12407	50.05
3.14073	50.05
3.15740	50.06
3.17407	50.07
3.19073	50.06
3.20740	50.07
3.22407	50.08
3.24073	50.09
3.25740	50.09
3.27407	50.09
3.29073	50.10
3.30740	50.10
3.32407	50.11
3.34073	50.11
3.35740	50.09
3.37407	50.07
3.39073	50.05
3.40740	50.05
3.42407	50.05
3.44073	50.05
3.45740	50.03
3.47407	50.03
3.49073	50.02
3.50740	50.02
3.52407	50.01
3.54073	49.99
3.55740	49.98
3.57407	49.99
3.59073	49.99
3.60740	49.99
3.62407	50.00
3.64073	50.01
3.65740	50.01
3.67407	50.01
3.69073	50.02
3.70740	50.03
3.72407	50.05
3.74073	50.06
3.75740	50.08
3.77407	50.08
3.79073	50.09
3.80740	50.09
3.82407	50.09
3.84073	50.08
3.85740	50.08
3.87407	50.07
3.89073	50.07
3.90740	50.06
3.92407	50.05
3.94073	50.05
3.95740	50.05
3.97407	50.06
3.99073	50.06

[Status Trace (Injection Unit Temperature)]
Interval(msec)	1000
# of Points	240
Start Time(min)	0.007
End Time(min)	3.991
Intensity Units	
Intensity Multiplier	1
R.Time (min)	Intensity
0.00740	99.98
0.02407	99.98
0.04073	99.98
0.05740	99.98
0.07407	99.98
0.09073	99.98
0.10740	99.98
0.12407	99.98
0.14073	99.98
0.15740	99.98
0.17407	99.98
0.19073	99.98
0.20740	99.98
0.22407	99.98
0.24073	99.99
0.25740	99.98
0.27407	99.99
0.29073	99.99
0.30740	99.98
0.32407	99.98
0.34073	99.99
0.35740	99.98
0.37407	99.99
0.39073	99.98
0.40740	99.98
0.42407	99.98
0.44073	99.98
0.45740	99.99
0.47407	99.99
0.49073	99.98
0.50740	99.98
0.52407	99.98
0.54073	99.98
0.55740	99.99
0.57407	99.99
0.59073	99.98
0.60740	99.98
0.62407	99.99
0.64073	99.98
0.65740	99.98
0.67407	99.98
0.69073	99.98
0.70740	99.98
0.72407	99.98
0.74073	99.98
0.75740	99.98
0.77407	99.98
0.79073	99.99
0.80740	99.98
0.82407	99.98
0.84073	99.98
0.85740	99.98
0.87407	99.98
0.89073	99.99
0.90740	99.98
0.92407	99.98
0.94073	99.98
0.95740	99.98
0.97407	99.98
0.99073	99.98
1.00740	99.98
1.02407	99.98
1.04073	99.98
1.05740	99.98
1.07407	99.98
1.09073	99.99
1.10740	99.99
1.12407	99.98
1.14073	99.98
1.15740	99.98
1.17407	99.99
1.19073	99.99
1.20740	99.99
1.22407	99.98
1.24073	99.99
1.25740	99.99
1.27407	99.99
1.29073	99.99
1.30740	99.99
1.32407	99.99
1.34073	99.99
1.35740	99.99
1.37407	99.99
1.39073	99.99
1.40740	99.98
1.42407	99.99
1.44073	99.99
1.45740	99.99
1.47407	99.99
1.49073	99.99
1.50740	99.98
1.52407	99.99
1.54073	99.98
1.55740	99.99
1.57407	99.99
1.59073	99.99
1.60740	99.99
1.62407	99.99
1.64073	99.99
1.65740	99.98
1.67407	99.98
1.69073	99.98
1.70740	99.99
1.72407	99.99
1.74073	99.98
1.75740	99.98
1.77407	99.99
1.79073	99.98
1.80740	99.98
1.82407	99.98
1.84073	99.98
1.85740	99.98
1.87407	99.98
1.89073	99.98
1.90740	99.98
1.92407	99.98
1.94073	99.98
1.95740	99.98
1.97407	99.98
1.99073	99.98
2.00740	99.98
2.02407	99.98
2.04073	99.98
2.05740	99.98
2.07407	99.98
2.09073	99.98
2.10740	99.98
2.12407	99.98
2.14073	99.98
2.15740	99.98
2.17407	99.98
2.19073	99.98
2.20740	99.97
2.22407	99.98
2.24073	99.97
2.25740	99.98
2.27407	99.98
2.29073	99.97
2.30740	99.98
2.32407	99.98
2.34073	99.98
2.35740	99.98
2.37407	99.97
2.39073	99.98
2.40740	99.97
2.42407	99.98
2.44073	99.97
2.45740	99.97
2.47407	99.97
2.49073	99.98
2.50740	99.98
2.52407	99.97
2.54073	99.98
2.55740	99.98
2.57407	99.98
2.59073	99.98
2.60740	99.98
2.62407	99.97
2.64073	99.98
2.65740	99.98
2.67407	99.98
2.69073	99.98
2.70740	99.98
2.72407	99.98
2.74073	99.99
2.75740	99.99
2.77407	99.98
2.79073	99.99
2.80740	99.99
2.82407	100.00
2.84073	100.00
2.85740	99.99
2.87407	99.99
2.89073	100.00
2.90740	100.00
2.92407	100.00
2.94073	100.00
2.95740	100.01
2.97407	100.00
2.99073	100.01
3.00740	100.01
3.02407	100.01
3.04073	100.01
3.05740	100.01
3.07407	100.01
3.09073	100.01
3.10740	100.01
3.12407	100.02
3.14073	100.02
3.15740	100.02
3.17407	100.02
3.19073	100.02
3.20740	100.02
3.22407	100.02
3.24073	100.02
3.25740	100.02
3.27407	100.03
3.29073	100.03
3.30740	100.03
3.32407	100.03
3.34073	100.03
3.35740	100.03
3.37407	100.04
3.39073	100.04
3.40740	100.04
3.42407	100.04
3.44073	100.04
3.45740	100.04
3.47407	100.04
3.49073	100.04
3.50740	100.04
3.52407	100.04
3.54073	100.05
3.55740	100.04
3.57407	100.04
3.59073	100.04
3.60740	100.04
3.62407	100.05
3.64073	100.04
3.65740	100.04
3.67407	100.05
3.69073	100.05
3.70740	100.05
3.72407	100.05
3.74073	100.05
3.75740	100.05
3.77407	100.05
3.79073	100.05
3.80740	100.05
3.82407	100.05
3.84073	100.05
3.85740	100.06
3.87407	100.05
3.89073	100.05
3.90740	100.05
3.92407	100.06
3.94073	100.05
3.95740	100.06
3.97407	100.06
3.99073	100.06

[Status Trace (Carrier Gas Pressure)]
Interval(msec)	1000
# of Points	240
Start Time(min)	0.007
End Time(min)	3.991
Intensity Units	
Intensity Multiplier	1
R.Time (min)	Intensity
0.00740	58.00
0.02407	55.52
0.04073	57.00
0.05740	59.15
0.07407	59.61
0.09073	58.10
0.10740	57.98
0.12407	58.01
0.14073	58.01
0.15740	58.00
0.17407	58.00
0.19073	58.00
0.20740	58.00
0.22407	58.00
0.24073	58.00
0.25740	58.00
0.27407	58.00
0.29073	58.00
0.30740	58.00
0.32407	58.00
0.34073	58.00
0.35740	58.00
0.37407	58.00
0.39073	58.00
0.40740	58.00
0.42407	58.00
0.44073	58.00
0.45740	58.00
0.47407	58.00
0.49073	58.00
0.50740	58.00
0.52407	58.00
0.54073	58.00
0.55740	58.00
0.57407	58.00
0.59073	58.00
0.60740	58.00
0.62407	58.00
0.64073	58.00
0.65740	58.00
0.67407	58.00
0.69073	58.00
0.70740	58.00
0.72407	58.00
0.74073	58.00
0.75740	58.00
0.77407	58.00
0.79073	58.00
0.80740	58.00
0.82407	58.00
0.84073	58.00
0.85740	58.00
0.87407	58.00
0.89073	58.00
0.90740	58.00
0.92407	58.00
0.94073	58.00
0.95740	58.00
0.97407	58.00
0.99073	58.00
1.00740	58.00
1.02407	58.00
1.04073	58.00
1.05740	58.00
1.07407	58.00
1.09073	58.00
1.10740	58.00
1.12407	58.00
1.14073	58.00
1.15740	58.00
1.17407	58.00
1.19073	58.00
1.20740	58.00
1.22407	58.00
1.24073	58.00
1.25740	58.00
1.27407	58.00
1.29073	58.00
1.30740	58.00
1.32407	58.00
1.34073	58.00
1.35740	58.00
1.37407	58.00
1.39073	58.00
1.40740	58.00
1.42407	58.00
1.44073	58.00
1.45740	58.00
1.47407	58.00
1.49073	58.00
1.50740	58.00
1.52407	58.00
1.54073	58.00
1.55740	58.00
1.57407	58.00
1.59073	58.00
1.60740	58.00
1.62407	58.00
1.64073	58.01
1.65740	58.00
1.67407	58.01
1.69073	58.00
1.70740	58.00
1.72407	58.00
1.74073	58.00
1.75740	58.00
1.77407	58.00
1.79073	58.00
1.80740	58.00
1.82407	58.00
1.84073	58.00
1.85740	58.00
1.87407	58.00
1.89073	58.00
1.90740	58.00
1.92407	58.00
1.94073	58.00
1.95740	58.00
1.97407	58.00
1.99073	58.00
2.00740	58.00
2.02407	58.00
2.04073	58.00
2.05740	58.00
2.07407	58.00
2.09073	58.00
2.10740	58.00
2.12407	58.00
2.14073	58.00
2.15740	58.00
2.17407	58.00
2.19073	58.00
2.20740	58.00
2.22407	58.00
2.24073	58.00
2.25740	58.00
2.27407	58.00
2.29073	58.00
2.30740	58.00
2.32407	58.00
2.34073	58.00
2.35740	58.00
2.37407	58.00
2.39073	57.99
2.40740	57.99
2.42407	58.00
2.44073	58.00
2.45740	58.00
2.47407	58.00
2.49073	58.00
2.50740	58.00
2.52407	57.98
2.54073	58.00
2.55740	58.00
2.57407	58.00
2.59073	58.00
2.60740	58.00
2.62407	58.00
2.64073	58.00
2.65740	58.00
2.67407	58.00
2.69073	58.00
2.70740	58.00
2.72407	58.00
2.74073	58.00
2.75740	58.00
2.77407	58.00
2.79073	58.00
2.80740	58.00
2.82407	58.00
2.84073	58.00
2.85740	58.00
2.87407	58.00
2.89073	58.00
2.90740	58.00
2.92407	58.00
2.94073	58.00
2.95740	58.00
2.97407	58.00
2.99073	58.00
3.00740	58.00
3.02407	58.00
3.04073	58.00
3.05740	58.00
3.07407	58.00
3.09073	58.00
3.10740	58.00
3.12407	58.00
3.14073	58.00
3.15740	58.00
3.17407	58.00
3.19073	58.00
3.20740	58.00
3.22407	58.00
3.24073	58.00
3.25740	58.00
3.27407	58.00
3.29073	58.00
3.30740	58.00
3.32407	58.00
3.34073	58.00
3.35740	58.00
3.37407	58.00
3.39073	58.00
3.40740	58.00
3.42407	58.00
3.44073	58.00
3.45740	58.00
3.47407	58.00
3.49073	58.00
3.50740	58.00
3.52407	58.00
3.54073	58.00
3.55740	58.00
3.57407	58.00
3.59073	58.00
3.60740	58.00
3.62407	58.00
3.64073	58.00
3.65740	58.00
3.67407	58.00
3.69073	58.00
3.70740	58.00
3.72407	58.00
3.74073	58.00
3.75740	58.00
3.77407	58.00
3.79073	58.00
3.80740	58.00
3.82407	58.00
3.84073	58.00
3.85740	58.00
3.87407	58.00
3.89073	58.00
3.90740	58.00
3.92407	58.00
3.94073	58.00
3.95740	58.00
3.97407	58.00
3.99073	58.00

[Status Trace (Carrier Gas Flow)]
Interval(msec)	1000
# of Points	240
Start Time(min)	0.007
End Time(min)	3.991
Intensity Units	
Intensity Multiplier	1
R.Time (min)	Intensity
0.00740	34.52
0.02407	34.54
0.04073	34.55
0.05740	34.55
0.07407	34.49
0.09073	34.51
0.10740	34.52
0.12407	34.52
0.14073	34.52
0.15740	34.51
0.17407	34.52
0.19073	34.52
0.20740	34.52
0.22407	34.52
0.24073	34.51
0.25740	34.52
0.27407	34.52
0.29073	34.52
0.30740	34.52
0.32407	34.52
0.34073	34.52
0.35740	34.52
0.37407	34.52
0.39073	34.52
0.40740	34.52
0.42407	34.52
0.44073	34.52
0.45740	34.52
0.47407	34.52
0.49073	34.52
0.50740	34.52
0.52407	34.52
0.54073	34.52
0.55740	34.52
0.57407	34.52
0.59073	34.52
0.60740	34.52
0.62407	34.52
0.64073	34.52
0.65740	34.52
0.67407	34.52
0.69073	34.52
0.70740	34.52
0.72407	34.52
0.74073	34.52
0.75740	34.52
0.77407	34.52
0.79073	34.52
0.80740	34.52
0.82407	34.52
0.84073	34.52
0.85740	34.52
0.87407	34.52
0.89073	34.52
0.90740	34.52
0.92407	34.52
0.94073	34.52
0.95740	34.52
0.97407	34.52
0.99073	34.52
1.00740	34.52
1.02407	34.52
1.04073	34.52
1.05740	34.52
1.07407	34.52
1.09073	34.52
1.10740	34.52
1.12407	34.52
1.14073	34.52
1.15740	34.52
1.17407	34.52
1.19073	34.52
1.20740	34.52
1.22407	34.52
1.24073	34.52
1.25740	34.52
1.27407	34.52
1.29073	34.52
1.30740	34.52
1.32407	34.52
1.34073	34.52
1.35740	34.52
1.37407	34.52
1.39073	34.52
1.40740	34.52
1.42407	34.52
1.44073	34.52
1.45740	34.52
1.47407	34.52
1.49073	34.52
1.50740	34.52
1.52407	34.52
1.54073	34.52
1.55740	34.52
1.57407	34.52
1.59073	34.52
1.60740	34.52
1.62407	34.51
1.64073	34.52
1.65740	34.52
1.67407	34.52
1.69073	34.52
1.70740	34.52
1.72407	34.52
1.74073	34.52
1.75740	34.52
1.77407	34.52
1.79073	34.52
1.80740	34.52
1.82407	34.52
1.84073	34.52
1.85740	34.52
1.87407	34.52
1.89073	34.51
1.90740	34.52
1.92407	34.52
1.94073	34.52
1.95740	34.51
1.97407	34.52
1.99073	34.52
2.00740	34.52
2.02407	34.52
2.04073	34.52
2.05740	34.53
2.07407	34.52
2.09073	34.52
2.10740	34.53
2.12407	34.52
2.14073	34.52
2.15740	34.51
2.17407	34.51
2.19073	34.52
2.20740	34.52
2.22407	34.52
2.24073	34.52
2.25740	34.52
2.27407	34.52
2.29073	34.52
2.30740	34.52
2.32407	34.52
2.34073	34.52
2.35740	34.52
2.37407	34.52
2.39073	34.51
2.40740	34.52
2.42407	34.52
2.44073	34.52
2.45740	34.52
2.47407	34.52
2.49073	34.52
2.50740	34.38
2.52407	34.49
2.54073	34.52
2.55740	34.52
2.57407	34.52
2.59073	34.52
2.60740	34.52
2.62407	34.52
2.64073	34.52
2.65740	34.52
2.67407	34.52
2.69073	34.52
2.70740	34.52
2.72407	34.52
2.74073	34.52
2.75740	34.52
2.77407	34.52
2.79073	34.52
2.80740	34.52
2.82407	34.52
2.84073	34.52
2.85740	34.52
2.87407	34.52
2.89073	34.52
2.90740	34.52
2.92407	34.52
2.94073	34.52
2.95740	34.52
2.97407	34.52
2.99073	34.52
3.00740	34.52
3.02407	34.52
3.04073	34.52
3.05740	34.52
3.07407	34.52
3.09073	34.52
3.10740	34.52
3.12407	34.52
3.14073	34.52
3.15740	34.52
3.17407	34.52
3.19073	34.52
3.20740	34.52
3.22407	34.52
3.24073	34.52
3.25740	34.52
3.27407	34.52
3.29073	34.52
3.30740	34.52
3.32407	34.52
3.34073	34.52
3.35740	34.52
3.37407	34.52
3.39073	34.52
3.40740	34.52
3.42407	34.52
3.44073	34.52
3.45740	34.52
3.47407	34.52
3.49073	34.52
3.50740	34.52
3.52407	34.52
3.54073	34.52
3.55740	34.52
3.57407	34.52
3.59073	34.52
3.60740	34.52
3.62407	34.52
3.64073	34.52
3.65740	34.52
3.67407	34.52
3.69073	34.52
3.70740	34.52
3.72407	34.52
3.74073	34.52
3.75740	34.52
3.77407	34.52
3.79073	34.52
3.80740	34.52
3.82407	34.52
3.84073	34.52
3.85740	34.52
3.87407	34.52
3.89073	34.52
3.90740	34.52
3.92407	34.52
3.94073	34.52
3.95740	34.52
3.97407	34.52
3.99073	34.52

[Status Trace (Column Flow)]
Interval(msec)	1000
# of Points	240
Start Time(min)	0.007
End Time(min)	3.991
Intensity Units	
Intensity Multiplier	1
R.Time (min)	Intensity
0.00740	5.55
0.02407	5.26
0.04073	5.43
0.05740	5.68
0.07407	5.74
0.09073	5.56
0.10740	5.54
0.12407	5.55
0.14073	5.55
0.15740	5.55
0.17407	5.55
0.19073	5.55
0.20740	5.55
0.22407	5.55
0.24073	5.55
0.25740	5.55
0.27407	5.55
0.29073	5.55
0.30740	5.55
0.32407	5.55
0.34073	5.55
0.35740	5.55
0.37407	5.55
0.39073	5.55
0.40740	5.55
0.42407	5.55
0.44073	5.55
0.45740	5.55
0.47407	5.55
0.49073	5.55
0.50740	5.55
0.52407	5.55
0.54073	5.55
0.55740	5.55
0.57407	5.55
0.59073	5.55
0.60740	5.55
0.62407	5.55
0.64073	5.55
0.65740	5.55
0.67407	5.55
0.69073	5.55
0.70740	5.55
0.72407	5.55
0.74073	5.55
0.75740	5.55
0.77407	5.55
0.79073	5.55
0.80740	5.55
0.82407	5.55
0.84073	5.55
0.85740	5.55
0.87407	5.55
0.89073	5.55
0.90740	5.55
0.92407	5.55
0.94073	5.55
0.95740	5.55
0.97407	5.55
0.99073	5.55
1.00740	5.55
1.02407	5.55
1.04073	5.55
1.05740	5.55
1.07407	5.55
1.09073	5.55
1.10740	5.55
1.12407	5.55
1.14073	5.55
1.15740	5.55
1.17407	5.55
1.19073	5.55
1.20740	5.55
1.22407	5.55
1.24073	5.55
1.25740	5.55
1.27407	5.55
1.29073	5.55
1.30740	5.55
1.32407	5.55
1.34073	5.55
1.35740	5.55
1.37407	5.55
1.39073	5.55
1.40740	5.55
1.42407	5.55
1.44073	5.55
1.45740	5.55
1.47407	5.55
1.49073	5.55
1.50740	5.55
1.52407	5.55
1.54073	5.55
1.55740	5.55
1.57407	5.55
1.59073	5.55
1.60740	5.55
1.62407	5.54
1.64073	5.54
1.65740	5.53
1.67407	5.52
1.69073	5.51
1.70740	5.49
1.72407	5.48
1.74073	5.47
1.75740	5.46
1.77407	5.45
1.79073	5.44
1.80740	5.43
1.82407	5.42
1.84073	5.41
1.85740	5.40
1.87407	5.39
1.89073	5.38
1.90740	5.37
1.92407	5.36
1.94073	5.35
1.95740	5.34
1.97407	5.33
1.99073	5.32
2.00740	5.31
2.02407	5.30
2.04073	5.29
2.05740	5.28
2.07407	5.28
2.09073	5.27
2.10740	5.26
2.12407	5.25
2.14073	5.24
2.15740	5.23
2.17407	5.22
2.19073	5.21
2.20740	5.20
2.22407	5.19
2.24073	5.18
2.25740	5.17
2.27407	5.16
2.29073	5.15
2.30740	5.14
2.32407	5.13
2.34073	5.12
2.35740	5.12
2.37407	5.11
2.39073	5.11
2.40740	5.11
2.42407	5.11
2.44073	5.11
2.45740	5.11
2.47407	5.11
2.49073	5.11
2.50740	5.11
2.52407	5.11
2.54073	5.11
2.55740	5.11
2.57407	5.11
2.59073	5.11
2.60740	5.11
2.62407	5.11
2.64073	5.11
2.65740	5.11
2.67407	5.11
2.69073	5.11
2.70740	5.11
2.72407	5.11
2.74073	5.11
2.75740	5.11
2.77407	5.10
2.79073	5.11
2.80740	5.11
2.82407	5.11
2.84073	5.11
2.85740	5.11
2.87407	5.10
2.89073	5.10
2.90740	5.10
2.92407	5.10
2.94073	5.10
2.95740	5.10
2.97407	5.10
2.99073	5.10
3.00740	5.10
3.02407	5.10
3.04073	5.10
3.05740	5.10
3.07407	5.10
3.09073	5.10
3.10740	5.10
3.12407	5.10
3.14073	5.10
3.15740	5.10
3.17407	5.10
3.19073	5.10
3.20740	5.10
3.22407	5.10
3.24073	5.10
3.25740	5.10
3.27407	5.10
3.29073	5.10
3.30740	5.10
3.32407	5.10
3.34073	5.10
3.35740	5.10
3.37407	5.10
3.39073	5.10
3.40740	5.10
3.42407	5.10
3.44073	5.10
3.45740	5.10
3.47407	5.10
3.49073	5.10
3.50740	5.10
3.52407	5.10
3.54073	5.10
3.55740	5.10
3.57407	5.10
3.59073	5.10
3.60740	5.10
3.62407	5.10
3.64073	5.10
3.65740	5.10
3.67407	5.10
3.69073	5.10
3.70740	5.10
3.72407	5.10
3.74073	5.10
3.75740	5.10
3.77407	5.10
3.79073	5.10
3.80740	5.10
3.82407	5.10
3.84073	5.10
3.85740	5.10
3.87407	5.10
3.89073	5.10
3.90740	5.10
3.92407	5.10
3.94073	5.10
3.95740	5.10
3.97407	5.10
3.99073	5.10

[Status Trace (Linear Velocity)]
Interval(msec)	1000
# of Points	240
Start Time(min)	0.007
End Time(min)	3.991
Intensity Units	
Intensity Multiplier	1
R.Time (min)	Intensity
0.00740	39.02
0.02407	37.39
0.04073	38.36
0.05740	39.78
0.07407	40.07
0.09073	39.09
0.10740	39.01
0.12407	39.03
0.14073	39.03
0.15740	39.03
0.17407	39.03
0.19073	39.03
0.20740	39.03
0.22407	39.03
0.24073	39.03
0.25740	39.02
0.27407	39.02
0.29073	39.02
0.30740	39.02
0.32407	39.02
0.34073	39.02
0.35740	39.02
0.37407	39.02
0.39073	39.02
0.40740	39.02
0.42407	39.02
0.44073	39.02
0.45740	39.02
0.47407	39.02
0.49073	39.02
0.50740	39.03
0.52407	39.03
0.54073	39.03
0.55740	39.02
0.57407	39.02
0.59073	39.02
0.60740	39.02
0.62407	39.02
0.64073	39.02
0.65740	39.02
0.67407	39.02
0.69073	39.02
0.70740	39.02
0.72407	39.02
0.74073	39.02
0.75740	39.02
0.77407	39.02
0.79073	39.03
0.80740	39.02
0.82407	39.02
0.84073	39.03
0.85740	39.03
0.87407	39.03
0.89073	39.03
0.90740	39.03
0.92407	39.03
0.94073	39.03
0.95740	39.03
0.97407	39.03
0.99073	39.03
1.00740	39.03
1.02407	39.02
1.04073	39.02
1.05740	39.02
1.07407	39.02
1.09073	39.03
1.10740	39.03
1.12407	39.03
1.14073	39.02
1.15740	39.03
1.17407	39.02
1.19073	39.02
1.20740	39.02
1.22407	39.02
1.24073	39.02
1.25740	39.02
1.27407	39.02
1.29073	39.02
1.30740	39.02
1.32407	39.02
1.34073	39.02
1.35740	39.02
1.37407	39.02
1.39073	39.02
1.40740	39.02
1.42407	39.02
1.44073	39.02
1.45740	39.02
1.47407	39.02
1.49073	39.03
1.50740	39.03
1.52407	39.03
1.54073	39.03
1.55740	39.02
1.57407	39.02
1.59073	39.02
1.60740	39.02
1.62407	39.01
1.64073	38.99
1.65740	38.97
1.67407	38.94
1.69073	38.90
1.70740	38.86
1.72407	38.83
1.74073	38.80
1.75740	38.77
1.77407	38.74
1.79073	38.71
1.80740	38.68
1.82407	38.64
1.84073	38.61
1.85740	38.58
1.87407	38.55
1.89073	38.52
1.90740	38.49
1.92407	38.46
1.94073	38.43
1.95740	38.40
1.97407	38.37
1.99073	38.34
2.00740	38.31
2.02407	38.28
2.04073	38.25
2.05740	38.22
2.07407	38.19
2.09073	38.16
2.10740	38.13
2.12407	38.10
2.14073	38.07
2.15740	38.04
2.17407	38.01
2.19073	37.98
2.20740	37.95
2.22407	37.92
2.24073	37.89
2.25740	37.86
2.27407	37.83
2.29073	37.80
2.30740	37.77
2.32407	37.74
2.34073	37.71
2.35740	37.69
2.37407	37.67
2.39073	37.66
2.40740	37.67
2.42407	37.67
2.44073	37.67
2.45740	37.67
2.47407	37.66
2.49073	37.66
2.50740	37.66
2.52407	37.65
2.54073	37.66
2.55740	37.66
2.57407	37.66
2.59073	37.66
2.60740	37.66
2.62407	37.65
2.64073	37.65
2.65740	37.65
2.67407	37.65
2.69073	37.65
2.70740	37.65
2.72407	37.65
2.74073	37.65
2.75740	37.65
2.77407	37.65
2.79073	37.65
2.80740	37.65
2.82407	37.65
2.84073	37.65
2.85740	37.65
2.87407	37.65
2.89073	37.65
2.90740	37.65
2.92407	37.65
2.94073	37.64
2.95740	37.64
2.97407	37.64
2.99073	37.64
3.00740	37.64
3.02407	37.64
3.04073	37.64
3.05740	37.64
3.07407	37.64
3.09073	37.63
3.10740	37.63
3.12407	37.63
3.14073	37.63
3.15740	37.63
3.17407	37.63
3.19073	37.63
3.20740	37.63
3.22407	37.63
3.24073	37.63
3.25740	37.63
3.27407	37.63
3.29073	37.63
3.30740	37.63
3.32407	37.63
3.34073	37.63
3.35740	37.63
3.37407	37.63
3.39073	37.63
3.40740	37.63
3.42407	37.63
3.44073	37.63
3.45740	37.63
3.47407	37.64
3.49073	37.64
3.50740	37.64
3.52407	37.64
3.54073	37.64
3.55740	37.64
3.57407	37.64
3.59073	37.64
3.60740	37.64
3.62407	37.64
3.64073	37.64
3.65740	37.64
3.67407	37.64
3.69073	37.64
3.70740	37.64
3.72407	37.63
3.74073	37.63
3.75740	37.63
3.77407	37.63
3.79073	37.63
3.80740	37.63
3.82407	37.63
3.84073	37.63
3.85740	37.63
3.87407	37.63
3.89073	37.63
3.90740	37.63
3.92407	37.63
3.94073	37.63
3.95740	37.63
3.97407	37.63
3.99073	37.63

