[Header]
Application Name	LabSolutions
Version	5.110
Data File Name	C:\Users\User\Desktop\GC Analyses\Jack\UIC Prairie Sampling\9.16.22\220916_020.gcd
Output Date	11/29/2022
Output Time	11:10:16 AM

[File Information]
Type	Data File
Generated	11/10/2022 3:46:22 PM
Generated by	System Administrator
Modified	11/10/2022 3:51:11 PM
Modified by	System Administrator

[Sample Information]
Operator Name	System Administrator
Acquired	11/10/2022 3:47:10 PM
Sample Type	1:Standard
Level	1
Sample Name	220916_UICPrairie
Sample ID	220916_UICPrairie
ISTD Amount1	1
ISTD Amount2	1
ISTD Amount3	1
ISTD Amount4	1
ISTD Amount5	1
ISTD Amount6	1
ISTD Amount7	1
ISTD Amount8	1
ISTD Amount9	1
ISTD Amount10	1
ISTD Amount11	1
ISTD Amount12	1
ISTD Amount13	1
ISTD Amount14	1
ISTD Amount15	1
ISTD Amount16	1
ISTD Amount17	1
ISTD Amount18	1
ISTD Amount19	1
ISTD Amount20	1
ISTD Amount21	1
ISTD Amount22	1
ISTD Amount23	1
ISTD Amount24	1
ISTD Amount25	1
ISTD Amount26	1
ISTD Amount27	1
ISTD Amount28	1
ISTD Amount29	1
ISTD Amount30	1
ISTD Amount31	1
ISTD Amount32	1
Sample Amount	1
Dilution Factor	1
Vial#	1
Injection Volume	1
Injection Count	1
Bar Code	

[Original Files]
Data File	C:\Users\User\Desktop\GC Analyses\Jack\UIC Prairie Sampling\9.16.22\220916_020.gcd
Method File	C:\LabSolutions\Data\GHG_4min_2022\ghg3_togas_w_acet_4 min_new_int.gcm
Batch File	
Report Format File	c:\LabSolutions\System\DEFAULT.lsr

[File Description]


[Configuration]
Instrument Name	C0B7VH3-Instrument1
Instrument #	1
Line #	1
# of Detectors	3
Detector ID	DET#1	DET#2	DET#3
Detector Name	FID	PTCD	ECD
# of Channels	1	1	1

[Peak Table(Ch1)]
# of Peaks	3
Peak#	R.Time	I.Time	F.Time	Area	Height	A/H	Conc.	Mark	ID#	Name	k'	Plate #	Plate Ht.	Tailing	Resolution	Sep.Factor	Area Ratio	Height Ratio	Conc. %	Norm Conc.
1	1.476	1.432	1.534	13749	6181	2.224	100.000	   	1	CO	0.000	8410	17.837	1.208	0.000	0.000	0	0	16.667	16.667
2	1.567	1.534	1.644	5006	2454	2.040	100.000	 V 	2	CH4	0.062	10732	13.977	1.188	1.468	0.000	0	0	16.667	16.667
3	1.996	1.949	2.242	1047393	509894	2.054	400.000	   	3	CO2	0.353	17634	8.506	1.217	7.111	5.680	0	0	66.667	66.667

[Peak Table(Ch2)]
# of Peaks	0

[Peak Table(Ch3)]
# of Peaks	5
Peak#	R.Time	I.Time	F.Time	Area	Height	A/H	Conc.	Mark	ID#	Name	k'	Plate #	Plate Ht.	Tailing	Resolution	Sep.Factor	Area Ratio	Height Ratio	Conc. %	Norm Conc.
1	0.816	0.647	1.208	278	15	18.123	0.000	   			0.000	500	299.887	1.682	0.000	0.000	0	0	0.000	0.000
2	2.458	2.444	2.506	183	87	2.106	0.000	   			2.014	27762	5.403	2.088	16.034	0.000	0	0	0.000	0.000
3	2.616	2.568	2.645	1049	335	3.131	0.000	   			2.207	2503	59.935	0.000	1.176	1.096	0	0	0.000	0.000
4	2.770	2.645	2.792	3644	484	7.526	0.088	 V 	1	N2O	2.396	91	1648.211	0.000	0.225	1.086	0	0	8.847	8.847
5	2.880	2.792	3.874	37544	5735	6.547	0.912	 V 	1	N2O	2.531	11639	12.888	0.000	0.173	1.056	0	0	91.153	91.153

[Compound Results(Ch1)]
# of IDs	6
ID#	Name	R.Time	Area	Height	Conc.	Curve	3rd	2nd	1st	Constant	Area Ratio	Height Ratio	Conc. %	Norm Conc.
1	CO	1.476	13749	6181	100.000	Linear	0.000000e+00	0.000000e+00	1.374888e+002	0.000000e+00	0	0	16.667	16.667
2	CH4	1.567	5006	2454	100.000	Linear	0.000000e+00	0.000000e+00	5.006389e+001	0.000000e+00	0	0	16.667	16.667
3	CO2	1.996	1047393	509894	400.000	Linear	0.000000e+00	0.000000e+00	2.618483e+003	0.000000e+00	0	0	66.667	66.667
4	Ethylene	0.000	0	0	0.000	Linear	0.000000e+00	0.000000e+00	0.000000e+00	0.000000e+00	0	0	0.000	0.000
5	Acetylene	0.000	0	0	0.000	Linear	0.000000e+00	0.000000e+00	0.000000e+00	0.000000e+00	0	0	0.000	0.000
6	Ethane	0.000	0	0	0.000	Linear	0.000000e+00	0.000000e+00	0.000000e+00	0.000000e+00	0	0	0.000	0.000

[Compound Results(Ch2)]
# of IDs	5
ID#	Name	R.Time	Area	Height	Conc.	Curve	3rd	2nd	1st	Constant	Area Ratio	Height Ratio	Conc. %	Norm Conc.
1	Hydrogen	0.000	0	0	0.000	Linear	0.000000e+00	0.000000e+00	0.000000e+00	0.000000e+00	0	0	0.000	0.000
2	Oxygen	0.000	0	0	0.000	Linear	0.000000e+00	0.000000e+00	0.000000e+00	0.000000e+00	0	0	0.000	0.000
3	Nitrogen	0.000	0	0	0.000	Linear	0.000000e+00	0.000000e+00	0.000000e+00	0.000000e+00	0	0	0.000	0.000
4	Methane	0.000	0	0	0.000	Linear	0.000000e+00	0.000000e+00	0.000000e+00	0.000000e+00	0	0	0.000	0.000
5	Carbon Monoxide	0.000	0	0	0.000	Linear	0.000000e+00	0.000000e+00	0.000000e+00	0.000000e+00	0	0	0.000	0.000

[Compound Results(Ch3)]
# of IDs	2
ID#	Name	R.Time	Area	Height	Conc.	Curve	3rd	2nd	1st	Constant	Area Ratio	Height Ratio	Conc. %	Norm Conc.
1	N2O	2.880	41188	6219	1.000	Linear	0.000000e+00	0.000000e+00	4.118780e+004	0.000000e+00	0	0	100.000	100.000
2	SF6	0.000	0	0	0.000	Linear	0.000000e+00	0.000000e+00	0.000000e+00	0.000000e+00	0	0	0.000	0.000

[Group Results(Ch1)]
# of Groups	0

[Group Results(Ch2)]
# of Groups	0

[Group Results(Ch3)]
# of Groups	0

[Chromatogram (Ch1)]
Interval(msec)	220
# of Points	1091
Start Time(min)	0.002
End Time(min)	3.998
R.Time (min)	Intensity
0.00167	7
0.00533	4
0.00900	1
0.01267	-1
0.01633	-1
0.02000	-2
0.02367	-4
0.02733	-7
0.03100	-7
0.03467	-2
0.03833	6
0.04200	16
0.04567	24
0.04933	25
0.05300	22
0.05667	16
0.06033	5
0.06400	-5
0.06767	-10
0.07133	-10
0.07500	-10
0.07867	-10
0.08233	-12
0.08600	-17
0.08967	-22
0.09333	-24
0.09700	-23
0.10067	-20
0.10433	-14
0.10800	-11
0.11167	-11
0.11533	-5
0.11900	2
0.12267	8
0.12633	8
0.13000	2
0.13367	-9
0.13733	-23
0.14100	-33
0.14467	-36
0.14833	-35
0.15200	-33
0.15567	-30
0.15933	-29
0.16300	-29
0.16667	-26
0.17033	-22
0.17400	-21
0.17767	-22
0.18133	-24
0.18500	-27
0.18867	-28
0.19233	-23
0.19600	-17
0.19967	-14
0.20333	-14
0.20700	-18
0.21067	-24
0.21433	-28
0.21800	-28
0.22167	-26
0.22533	-24
0.22900	-22
0.23267	-17
0.23633	-14
0.24000	-13
0.24367	-16
0.24733	-19
0.25100	-20
0.25467	-17
0.25833	-14
0.26200	-12
0.26567	-9
0.26933	-9
0.27300	-12
0.27667	-15
0.28033	-17
0.28400	-18
0.28767	-19
0.29133	-21
0.29500	-22
0.29867	-21
0.30233	-20
0.30600	-23
0.30967	-30
0.31333	-37
0.31700	-39
0.32067	-37
0.32433	-34
0.32800	-30
0.33167	-28
0.33533	-31
0.33900	-38
0.34267	-44
0.34633	-48
0.35000	-48
0.35367	-46
0.35733	-41
0.36100	-33
0.36467	-26
0.36833	-23
0.37200	-23
0.37567	-24
0.37933	-24
0.38300	-22
0.38667	-20
0.39033	-20
0.39400	-20
0.39767	-21
0.40133	-24
0.40500	-28
0.40867	-33
0.41233	-37
0.41600	-37
0.41967	-37
0.42333	-36
0.42700	-34
0.43067	-33
0.43433	-31
0.43800	-29
0.44167	-29
0.44533	-32
0.44900	-37
0.45267	-42
0.45633	-46
0.46000	-52
0.46367	-58
0.46733	-61
0.47100	-60
0.47467	-58
0.47833	-51
0.48200	-42
0.48567	-38
0.48933	-37
0.49300	-36
0.49667	-35
0.50033	-36
0.50400	-35
0.50767	-35
0.51133	-36
0.51500	-37
0.51867	-36
0.52233	-34
0.52600	-32
0.52967	-31
0.53333	-29
0.53700	-28
0.54067	-33
0.54433	-39
0.54800	-44
0.55167	-46
0.55533	-46
0.55900	-48
0.56267	-52
0.56633	-55
0.57000	-59
0.57367	-58
0.57733	-56
0.58100	-57
0.58467	-58
0.58833	-58
0.59200	-56
0.59567	-50
0.59933	-43
0.60300	-37
0.60667	-32
0.61033	-29
0.61400	-29
0.61767	-34
0.62133	-39
0.62500	-44
0.62867	-49
0.63233	-52
0.63600	-52
0.63967	-50
0.64333	-50
0.64700	-51
0.65067	-54
0.65433	-56
0.65800	-54
0.66167	-48
0.66533	-42
0.66900	-42
0.67267	-45
0.67633	-50
0.68000	-57
0.68367	-61
0.68733	-66
0.69100	-71
0.69467	-73
0.69833	-74
0.70200	-75
0.70567	-76
0.70933	-76
0.71300	-72
0.71667	-69
0.72033	-67
0.72400	-66
0.72767	-63
0.73133	-58
0.73500	-53
0.73867	-50
0.74233	-47
0.74600	-43
0.74967	-39
0.75333	-36
0.75700	-35
0.76067	-36
0.76433	-40
0.76800	-45
0.77167	-53
0.77533	-60
0.77900	-63
0.78267	-64
0.78633	-64
0.79000	-65
0.79367	-66
0.79733	-67
0.80100	-65
0.80467	-60
0.80833	-54
0.81200	-50
0.81567	-48
0.81933	-46
0.82300	-45
0.82667	-48
0.83033	-52
0.83400	-57
0.83767	-63
0.84133	-66
0.84500	-65
0.84867	-62
0.85233	-60
0.85600	-61
0.85967	-67
0.86333	-75
0.86700	-79
0.87067	-78
0.87433	-76
0.87800	-72
0.88167	-67
0.88533	-64
0.88900	-62
0.89267	-63
0.89633	-68
0.90000	-71
0.90367	-69
0.90733	-67
0.91100	-66
0.91467	-68
0.91833	-70
0.92200	-76
0.92567	-82
0.92933	-82
0.93300	-79
0.93667	-78
0.94033	-81
0.94400	-84
0.94767	-86
0.95133	-89
0.95500	-90
0.95867	-87
0.96233	-84
0.96600	-82
0.96967	-81
0.97333	-82
0.97700	-83
0.98067	-79
0.98433	-76
0.98800	-77
0.99167	-79
0.99533	-82
0.99900	-84
1.00267	-84
1.00633	-78
1.01000	-71
1.01367	-68
1.01733	-71
1.02100	-76
1.02467	-81
1.02833	-82
1.03200	-82
1.03567	-85
1.03933	-89
1.04300	-95
1.04667	-103
1.05033	-109
1.05400	-110
1.05767	-108
1.06133	-105
1.06500	-99
1.06867	-90
1.07233	-80
1.07600	-71
1.07967	-67
1.08333	-67
1.08700	-69
1.09067	-75
1.09433	-85
1.09800	-92
1.10167	-94
1.10533	-92
1.10900	-89
1.11267	-87
1.11633	-87
1.12000	-85
1.12367	-85
1.12733	-88
1.13100	-90
1.13467	-89
1.13833	-87
1.14200	-85
1.14567	-82
1.14933	-77
1.15300	-71
1.15667	-66
1.16033	-63
1.16400	-60
1.16767	-60
1.17133	-60
1.17500	-62
1.17867	-65
1.18233	-71
1.18600	-74
1.18967	-74
1.19333	-76
1.19700	-78
1.20067	-81
1.20433	-82
1.20800	-83
1.21167	-82
1.21533	-83
1.21900	-88
1.22267	-95
1.22633	-100
1.23000	-101
1.23367	-99
1.23733	-97
1.24100	-95
1.24467	-95
1.24833	-97
1.25200	-97
1.25567	-96
1.25933	-94
1.26300	-96
1.26667	-99
1.27033	-101
1.27400	-100
1.27767	-98
1.28133	-97
1.28500	-98
1.28867	-98
1.29233	-97
1.29600	-96
1.29967	-94
1.30333	-92
1.30700	-93
1.31067	-96
1.31433	-100
1.31800	-103
1.32167	-102
1.32533	-96
1.32900	-90
1.33267	-86
1.33633	-87
1.34000	-90
1.34367	-94
1.34733	-100
1.35100	-107
1.35467	-112
1.35833	-117
1.36200	-120
1.36567	-119
1.36933	-111
1.37300	-102
1.37667	-96
1.38033	-96
1.38400	-98
1.38767	-97
1.39133	-96
1.39500	-95
1.39867	-97
1.40233	-103
1.40600	-108
1.40967	-108
1.41333	-109
1.41700	-113
1.42067	-121
1.42433	-125
1.42800	-123
1.43167	-119
1.43533	-110
1.43900	-70
1.44267	72
1.44633	364
1.45000	865
1.45367	1669
1.45733	2732
1.46100	3851
1.46467	4827
1.46833	5550
1.47200	5971
1.47567	6057
1.47933	5780
1.48300	5167
1.48667	4331
1.49033	3428
1.49400	2593
1.49767	1897
1.50133	1355
1.50500	948
1.50867	651
1.51233	441
1.51600	295
1.51967	192
1.52333	116
1.52700	58
1.53067	14
1.53433	-15
1.53800	-13
1.54167	70
1.54533	300
1.54900	687
1.55267	1155
1.55633	1602
1.56000	1964
1.56367	2211
1.56733	2316
1.57100	2248
1.57467	2003
1.57833	1638
1.58200	1238
1.58567	870
1.58933	570
1.59300	345
1.59667	188
1.60033	85
1.60400	19
1.60767	-22
1.61133	-46
1.61500	-60
1.61867	-71
1.62233	-80
1.62600	-88
1.62967	-101
1.63333	-119
1.63700	-132
1.64067	-140
1.64433	-148
1.64800	-156
1.65167	-161
1.65533	-163
1.65900	-159
1.66267	-152
1.66633	-144
1.67000	-134
1.67367	-124
1.67733	-119
1.68100	-119
1.68467	-122
1.68833	-127
1.69200	-134
1.69567	-139
1.69933	-140
1.70300	-139
1.70667	-137
1.71033	-133
1.71400	-130
1.71767	-128
1.72133	-129
1.72500	-131
1.72867	-132
1.73233	-133
1.73600	-134
1.73967	-137
1.74333	-143
1.74700	-147
1.75067	-150
1.75433	-149
1.75800	-143
1.76167	-137
1.76533	-134
1.76900	-133
1.77267	-132
1.77633	-132
1.78000	-131
1.78367	-131
1.78733	-128
1.79100	-123
1.79467	-122
1.79833	-123
1.80200	-124
1.80567	-126
1.80933	-128
1.81300	-128
1.81667	-127
1.82033	-126
1.82400	-124
1.82767	-120
1.83133	-116
1.83500	-113
1.83867	-109
1.84233	-105
1.84600	-104
1.84967	-109
1.85333	-118
1.85700	-129
1.86067	-138
1.86433	-142
1.86800	-138
1.87167	-130
1.87533	-124
1.87900	-123
1.88267	-126
1.88633	-131
1.89000	-136
1.89367	-139
1.89733	-140
1.90100	-137
1.90467	-134
1.90833	-132
1.91200	-131
1.91567	-129
1.91933	-132
1.92300	-131
1.92667	-130
1.93033	-130
1.93400	-130
1.93767	-130
1.94133	-129
1.94500	-125
1.94867	-118
1.95233	-87
1.95600	88
1.95967	993
1.96333	4684
1.96700	16177
1.97067	43763
1.97433	95651
1.97800	173420
1.98167	267940
1.98533	362949
1.98900	442190
1.99267	493586
1.99633	509821
2.00000	489292
2.00367	437405
2.00733	365804
2.01100	288326
2.01467	216371
2.01833	156368
2.02200	110077
2.02567	76288
2.02933	52549
2.03300	36278
2.03667	25285
2.04033	17904
2.04400	12954
2.04767	9612
2.05133	7327
2.05500	5740
2.05867	4615
2.06233	3798
2.06600	3187
2.06967	2717
2.07333	2349
2.07700	2059
2.08067	1826
2.08433	1634
2.08800	1474
2.09167	1342
2.09533	1230
2.09900	1135
2.10267	1048
2.10633	966
2.11000	892
2.11367	830
2.11733	778
2.12100	732
2.12467	688
2.12833	649
2.13200	613
2.13567	577
2.13933	542
2.14300	511
2.14667	482
2.15033	456
2.15400	435
2.15767	420
2.16133	408
2.16500	399
2.16867	391
2.17233	381
2.17600	365
2.17967	342
2.18333	315
2.18700	286
2.19067	257
2.19433	237
2.19800	228
2.20167	222
2.20533	215
2.20900	206
2.21267	196
2.21633	189
2.22000	185
2.22367	178
2.22733	170
2.23100	164
2.23467	160
2.23833	157
2.24200	156
2.24567	156
2.24933	157
2.25300	159
2.25667	159
2.26033	161
2.26400	164
2.26767	166
2.27133	164
2.27500	155
2.27867	142
2.28233	127
2.28600	113
2.28967	104
2.29333	99
2.29700	96
2.30067	96
2.30433	97
2.30800	96
2.31167	96
2.31533	95
2.31900	92
2.32267	94
2.32633	94
2.33000	92
2.33367	89
2.33733	86
2.34100	80
2.34467	75
2.34833	70
2.35200	68
2.35567	65
2.35933	61
2.36300	58
2.36667	55
2.37033	55
2.37400	59
2.37767	66
2.38133	71
2.38500	74
2.38867	76
2.39233	75
2.39600	68
2.39967	56
2.40333	48
2.40700	43
2.41067	38
2.41433	33
2.41800	34
2.42167	40
2.42533	48
2.42900	56
2.43267	62
2.43633	65
2.44000	63
2.44367	59
2.44733	55
2.45100	52
2.45467	50
2.45833	50
2.46200	45
2.46567	43
2.46933	41
2.47300	43
2.47667	50
2.48033	59
2.48400	67
2.48767	69
2.49133	66
2.49500	61
2.49867	59
2.50233	61
2.50600	63
2.50967	65
2.51333	64
2.51700	63
2.52067	61
2.52433	59
2.52800	63
2.53167	69
2.53533	74
2.53900	75
2.54267	78
2.54633	82
2.55000	82
2.55367	79
2.55733	74
2.56100	67
2.56467	59
2.56833	50
2.57200	44
2.57567	39
2.57933	38
2.58300	41
2.58667	43
2.59033	46
2.59400	51
2.59767	58
2.60133	59
2.60500	56
2.60867	49
2.61233	42
2.61600	37
2.61967	36
2.62333	36
2.62700	36
2.63067	39
2.63433	46
2.63800	52
2.64167	57
2.64533	60
2.64900	57
2.65267	51
2.65633	44
2.66000	39
2.66367	38
2.66733	42
2.67100	48
2.67467	56
2.67833	62
2.68200	67
2.68567	69
2.68933	67
2.69300	59
2.69667	51
2.70033	47
2.70400	46
2.70767	45
2.71133	47
2.71500	52
2.71867	58
2.72233	60
2.72600	62
2.72967	65
2.73333	66
2.73700	65
2.74067	68
2.74433	72
2.74800	75
2.75167	73
2.75533	70
2.75900	69
2.76267	67
2.76633	65
2.77000	61
2.77367	61
2.77733	63
2.78100	64
2.78467	65
2.78833	67
2.79200	67
2.79567	65
2.79933	63
2.80300	64
2.80667	67
2.81033	67
2.81400	66
2.81767	64
2.82133	60
2.82500	56
2.82867	58
2.83233	62
2.83600	70
2.83967	76
2.84333	82
2.84700	84
2.85067	85
2.85433	83
2.85800	79
2.86167	74
2.86533	72
2.86900	72
2.87267	73
2.87633	75
2.88000	76
2.88367	77
2.88733	75
2.89100	76
2.89467	79
2.89833	82
2.90200	84
2.90567	82
2.90933	75
2.91300	67
2.91667	64
2.92033	67
2.92400	74
2.92767	83
2.93133	92
2.93500	97
2.93867	100
2.94233	98
2.94600	92
2.94967	87
2.95333	85
2.95700	87
2.96067	90
2.96433	91
2.96800	87
2.97167	84
2.97533	85
2.97900	88
2.98267	92
2.98633	94
2.99000	93
2.99367	92
2.99733	93
3.00100	100
3.00467	110
3.00833	118
3.01200	122
3.01567	123
3.01933	117
3.02300	103
3.02667	87
3.03033	75
3.03400	71
3.03767	71
3.04133	76
3.04500	82
3.04867	88
3.05233	92
3.05600	95
3.05967	97
3.06333	94
3.06700	89
3.07067	83
3.07433	80
3.07800	81
3.08167	86
3.08533	89
3.08900	88
3.09267	83
3.09633	81
3.10000	84
3.10367	88
3.10733	93
3.11100	97
3.11467	102
3.11833	102
3.12200	99
3.12567	98
3.12933	104
3.13300	111
3.13667	113
3.14033	113
3.14400	113
3.14767	114
3.15133	113
3.15500	114
3.15867	117
3.16233	114
3.16600	108
3.16967	101
3.17333	95
3.17700	90
3.18067	92
3.18433	96
3.18800	96
3.19167	94
3.19533	93
3.19900	93
3.20267	93
3.20633	94
3.21000	96
3.21367	101
3.21733	108
3.22100	116
3.22467	124
3.22833	126
3.23200	120
3.23567	110
3.23933	100
3.24300	94
3.24667	91
3.25033	92
3.25400	93
3.25767	92
3.26133	87
3.26500	81
3.26867	75
3.27233	77
3.27600	82
3.27967	87
3.28333	92
3.28700	95
3.29067	95
3.29433	94
3.29800	95
3.30167	98
3.30533	101
3.30900	101
3.31267	103
3.31633	107
3.32000	110
3.32367	110
3.32733	110
3.33100	112
3.33467	117
3.33833	122
3.34200	121
3.34567	113
3.34933	102
3.35300	92
3.35667	88
3.36033	88
3.36400	91
3.36767	93
3.37133	96
3.37500	97
3.37867	97
3.38233	95
3.38600	91
3.38967	91
3.39333	96
3.39700	102
3.40067	107
3.40433	109
3.40800	109
3.41167	109
3.41533	110
3.41900	112
3.42267	114
3.42633	113
3.43000	110
3.43367	106
3.43733	101
3.44100	98
3.44467	98
3.44833	98
3.45200	97
3.45567	94
3.45933	90
3.46300	91
3.46667	94
3.47033	97
3.47400	97
3.47767	96
3.48133	95
3.48500	97
3.48867	101
3.49233	106
3.49600	112
3.49967	115
3.50333	116
3.50700	114
3.51067	112
3.51433	112
3.51800	115
3.52167	117
3.52533	114
3.52900	107
3.53267	100
3.53633	98
3.54000	98
3.54367	99
3.54733	103
3.55100	107
3.55467	110
3.55833	111
3.56200	108
3.56567	104
3.56933	102
3.57300	104
3.57667	110
3.58033	116
3.58400	119
3.58767	121
3.59133	119
3.59500	111
3.59867	100
3.60233	91
3.60600	86
3.60967	87
3.61333	92
3.61700	96
3.62067	94
3.62433	90
3.62800	88
3.63167	89
3.63533	95
3.63900	101
3.64267	107
3.64633	112
3.65000	114
3.65367	114
3.65733	112
3.66100	110
3.66467	107
3.66833	105
3.67200	106
3.67567	107
3.67933	106
3.68300	103
3.68667	100
3.69033	99
3.69400	97
3.69767	91
3.70133	83
3.70500	77
3.70867	75
3.71233	79
3.71600	87
3.71967	93
3.72333	94
3.72700	93
3.73067	90
3.73433	89
3.73800	91
3.74167	92
3.74533	94
3.74900	95
3.75267	94
3.75633	90
3.76000	88
3.76367	88
3.76733	91
3.77100	95
3.77467	95
3.77833	92
3.78200	88
3.78567	87
3.78933	85
3.79300	83
3.79667	82
3.80033	80
3.80400	79
3.80767	83
3.81133	88
3.81500	91
3.81867	92
3.82233	93
3.82600	93
3.82967	93
3.83333	93
3.83700	96
3.84067	100
3.84433	103
3.84800	103
3.85167	101
3.85533	100
3.85900	100
3.86267	101
3.86633	101
3.87000	100
3.87367	96
3.87733	95
3.88100	97
3.88467	99
3.88833	98
3.89200	95
3.89567	89
3.89933	82
3.90300	77
3.90667	75
3.91033	75
3.91400	76
3.91767	79
3.92133	83
3.92500	89
3.92867	94
3.93233	96
3.93600	99
3.93967	105
3.94333	110
3.94700	111
3.95067	107
3.95433	101
3.95800	94
3.96167	91
3.96533	91
3.96900	90
3.97267	89
3.97633	89
3.98000	90
3.98367	91
3.98733	91
3.99100	89
3.99467	89
3.99833	87

[Chromatogram (Ch2)]
Interval(msec)	220
# of Points	1091
Start Time(min)	0.002
End Time(min)	3.998
R.Time (min)	Intensity
0.00167	-0
0.00533	-0
0.00900	0
0.01267	-0
0.01633	-0
0.02000	-0
0.02367	-0
0.02733	-0
0.03100	-0
0.03467	0
0.03833	0
0.04200	0
0.04567	0
0.04933	0
0.05300	-0
0.05667	-0
0.06033	-1
0.06400	-1
0.06767	-0
0.07133	-0
0.07500	-0
0.07867	-0
0.08233	-0
0.08600	-1
0.08967	-1
0.09333	-1
0.09700	-1
0.10067	-1
0.10433	-1
0.10800	-0
0.11167	-0
0.11533	0
0.11900	0
0.12267	0
0.12633	1
0.13000	1
0.13367	1
0.13733	1
0.14100	2
0.14467	2
0.14833	2
0.15200	3
0.15567	3
0.15933	3
0.16300	3
0.16667	3
0.17033	3
0.17400	3
0.17767	3
0.18133	3
0.18500	3
0.18867	3
0.19233	3
0.19600	2
0.19967	2
0.20333	2
0.20700	2
0.21067	1
0.21433	1
0.21800	1
0.22167	1
0.22533	1
0.22900	0
0.23267	0
0.23633	0
0.24000	0
0.24367	-0
0.24733	-0
0.25100	-0
0.25467	-0
0.25833	-0
0.26200	-0
0.26567	-0
0.26933	0
0.27300	0
0.27667	0
0.28033	0
0.28400	0
0.28767	0
0.29133	0
0.29500	0
0.29867	0
0.30233	0
0.30600	0
0.30967	0
0.31333	-0
0.31700	-0
0.32067	-1
0.32433	-1
0.32800	-1
0.33167	-1
0.33533	-1
0.33900	-1
0.34267	-1
0.34633	-1
0.35000	-1
0.35367	-2
0.35733	-2
0.36100	-2
0.36467	-2
0.36833	-2
0.37200	-2
0.37567	-2
0.37933	-2
0.38300	-2
0.38667	-2
0.39033	-2
0.39400	-2
0.39767	-2
0.40133	-2
0.40500	-2
0.40867	-2
0.41233	-2
0.41600	-2
0.41967	-2
0.42333	-3
0.42700	-3
0.43067	-3
0.43433	-3
0.43800	-3
0.44167	-3
0.44533	-4
0.44900	-4
0.45267	-3
0.45633	-3
0.46000	-3
0.46367	-3
0.46733	-2
0.47100	-2
0.47467	-2
0.47833	-1
0.48200	-1
0.48567	-1
0.48933	-1
0.49300	-1
0.49667	-1
0.50033	-0
0.50400	-0
0.50767	0
0.51133	0
0.51500	0
0.51867	0
0.52233	-0
0.52600	-0
0.52967	-0
0.53333	-0
0.53700	-0
0.54067	-1
0.54433	-1
0.54800	-2
0.55167	-2
0.55533	-2
0.55900	-2
0.56267	-3
0.56633	-3
0.57000	-3
0.57367	-4
0.57733	-4
0.58100	-4
0.58467	-4
0.58833	-5
0.59200	-4
0.59567	-4
0.59933	-4
0.60300	-3
0.60667	-3
0.61033	-3
0.61400	-3
0.61767	-2
0.62133	-2
0.62500	-1
0.62867	-1
0.63233	-1
0.63600	-0
0.63967	-0
0.64333	0
0.64700	0
0.65067	0
0.65433	0
0.65800	0
0.66167	0
0.66533	0
0.66900	0
0.67267	0
0.67633	0
0.68000	1
0.68367	1
0.68733	1
0.69100	1
0.69467	1
0.69833	1
0.70200	1
0.70567	1
0.70933	1
0.71300	1
0.71667	1
0.72033	1
0.72400	1
0.72767	0
0.73133	0
0.73500	-0
0.73867	-0
0.74233	-0
0.74600	-0
0.74967	-1
0.75333	-1
0.75700	-1
0.76067	-1
0.76433	-1
0.76800	-1
0.77167	-1
0.77533	-1
0.77900	-1
0.78267	-1
0.78633	-1
0.79000	-1
0.79367	-1
0.79733	-1
0.80100	-1
0.80467	-1
0.80833	-1
0.81200	-1
0.81567	-1
0.81933	-0
0.82300	-0
0.82667	-0
0.83033	0
0.83400	-0
0.83767	-0
0.84133	0
0.84500	0
0.84867	0
0.85233	0
0.85600	0
0.85967	0
0.86333	0
0.86700	0
0.87067	-0
0.87433	-0
0.87800	-1
0.88167	-1
0.88533	-1
0.88900	-1
0.89267	-2
0.89633	-2
0.90000	-2
0.90367	-2
0.90733	-2
0.91100	-3
0.91467	-3
0.91833	-3
0.92200	-3
0.92567	-3
0.92933	-3
0.93300	-2
0.93667	-2
0.94033	-2
0.94400	-2
0.94767	-2
0.95133	-2
0.95500	-2
0.95867	-2
0.96233	-2
0.96600	-2
0.96967	-2
0.97333	-2
0.97700	-2
0.98067	-1
0.98433	-1
0.98800	-1
0.99167	-1
0.99533	-1
0.99900	-1
1.00267	-0
1.00633	-0
1.01000	-0
1.01367	-0
1.01733	0
1.02100	0
1.02467	0
1.02833	0
1.03200	0
1.03567	0
1.03933	0
1.04300	-0
1.04667	-0
1.05033	-0
1.05400	-0
1.05767	-0
1.06133	-0
1.06500	-0
1.06867	-0
1.07233	-1
1.07600	-1
1.07967	-1
1.08333	-1
1.08700	-1
1.09067	-1
1.09433	-1
1.09800	-1
1.10167	-1
1.10533	-2
1.10900	-2
1.11267	-2
1.11633	-2
1.12000	-2
1.12367	-2
1.12733	-2
1.13100	-2
1.13467	-2
1.13833	-2
1.14200	-2
1.14567	-2
1.14933	-2
1.15300	-2
1.15667	-3
1.16033	-3
1.16400	-3
1.16767	-3
1.17133	-3
1.17500	-3
1.17867	-3
1.18233	-3
1.18600	-3
1.18967	-3
1.19333	-3
1.19700	-3
1.20067	-3
1.20433	-2
1.20800	-2
1.21167	-2
1.21533	-2
1.21900	-2
1.22267	-2
1.22633	-1
1.23000	-1
1.23367	-1
1.23733	-1
1.24100	-1
1.24467	-1
1.24833	-2
1.25200	-2
1.25567	-2
1.25933	-2
1.26300	-2
1.26667	-1
1.27033	-2
1.27400	-2
1.27767	-2
1.28133	-2
1.28500	-2
1.28867	-2
1.29233	-2
1.29600	-2
1.29967	-2
1.30333	-2
1.30700	-2
1.31067	-2
1.31433	-2
1.31800	-2
1.32167	-2
1.32533	-2
1.32900	-3
1.33267	-3
1.33633	-3
1.34000	-3
1.34367	-3
1.34733	-2
1.35100	-2
1.35467	-2
1.35833	-2
1.36200	-2
1.36567	-2
1.36933	-2
1.37300	-2
1.37667	-2
1.38033	-2
1.38400	-2
1.38767	-2
1.39133	-2
1.39500	-2
1.39867	-3
1.40233	-3
1.40600	-3
1.40967	-3
1.41333	-3
1.41700	-3
1.42067	-3
1.42433	-3
1.42800	-3
1.43167	-3
1.43533	-3
1.43900	-3
1.44267	-3
1.44633	-3
1.45000	-3
1.45367	-3
1.45733	-3
1.46100	-2
1.46467	-3
1.46833	-3
1.47200	-3
1.47567	-3
1.47933	-3
1.48300	-3
1.48667	-3
1.49033	-3
1.49400	-3
1.49767	-3
1.50133	-3
1.50500	-3
1.50867	-3
1.51233	-3
1.51600	-3
1.51967	-3
1.52333	-3
1.52700	-3
1.53067	-3
1.53433	-3
1.53800	-3
1.54167	-3
1.54533	-3
1.54900	-3
1.55267	-3
1.55633	-3
1.56000	-3
1.56367	-3
1.56733	-3
1.57100	-3
1.57467	-3
1.57833	-3
1.58200	-3
1.58567	-3
1.58933	-3
1.59300	-3
1.59667	-4
1.60033	-4
1.60400	-5
1.60767	-7
1.61133	-8
1.61500	-10
1.61867	-13
1.62233	-15
1.62600	-18
1.62967	-21
1.63333	-24
1.63700	-27
1.64067	-30
1.64433	-34
1.64800	-38
1.65167	-41
1.65533	-45
1.65900	-49
1.66267	-53
1.66633	-57
1.67000	-62
1.67367	-67
1.67733	-72
1.68100	-77
1.68467	-82
1.68833	-87
1.69200	-91
1.69567	-94
1.69933	-97
1.70300	-100
1.70667	-102
1.71033	-104
1.71400	-105
1.71767	-107
1.72133	-108
1.72500	-110
1.72867	-111
1.73233	-112
1.73600	-112
1.73967	-113
1.74333	-114
1.74700	-115
1.75067	-116
1.75433	-116
1.75800	-117
1.76167	-117
1.76533	-117
1.76900	-117
1.77267	-117
1.77633	-117
1.78000	-118
1.78367	-118
1.78733	-119
1.79100	-120
1.79467	-121
1.79833	-121
1.80200	-122
1.80567	-121
1.80933	-121
1.81300	-121
1.81667	-121
1.82033	-121
1.82400	-121
1.82767	-121
1.83133	-122
1.83500	-122
1.83867	-122
1.84233	-121
1.84600	-121
1.84967	-121
1.85333	-120
1.85700	-120
1.86067	-120
1.86433	-121
1.86800	-121
1.87167	-122
1.87533	-122
1.87900	-122
1.88267	-122
1.88633	-122
1.89000	-122
1.89367	-122
1.89733	-122
1.90100	-122
1.90467	-122
1.90833	-121
1.91200	-121
1.91567	-121
1.91933	-120
1.92300	-120
1.92667	-120
1.93033	-121
1.93400	-121
1.93767	-121
1.94133	-121
1.94500	-121
1.94867	-120
1.95233	-120
1.95600	-120
1.95967	-119
1.96333	-119
1.96700	-119
1.97067	-118
1.97433	-118
1.97800	-118
1.98167	-117
1.98533	-117
1.98900	-117
1.99267	-116
1.99633	-115
2.00000	-115
2.00367	-114
2.00733	-114
2.01100	-114
2.01467	-114
2.01833	-114
2.02200	-114
2.02567	-114
2.02933	-114
2.03300	-115
2.03667	-115
2.04033	-115
2.04400	-115
2.04767	-115
2.05133	-114
2.05500	-113
2.05867	-112
2.06233	-111
2.06600	-111
2.06967	-110
2.07333	-109
2.07700	-109
2.08067	-108
2.08433	-108
2.08800	-108
2.09167	-108
2.09533	-108
2.09900	-107
2.10267	-106
2.10633	-106
2.11000	-106
2.11367	-106
2.11733	-106
2.12100	-106
2.12467	-106
2.12833	-105
2.13200	-105
2.13567	-104
2.13933	-104
2.14300	-103
2.14667	-103
2.15033	-102
2.15400	-102
2.15767	-101
2.16133	-101
2.16500	-101
2.16867	-101
2.17233	-101
2.17600	-101
2.17967	-101
2.18333	-101
2.18700	-101
2.19067	-101
2.19433	-100
2.19800	-100
2.20167	-100
2.20533	-99
2.20900	-98
2.21267	-98
2.21633	-97
2.22000	-97
2.22367	-97
2.22733	-96
2.23100	-96
2.23467	-95
2.23833	-95
2.24200	-94
2.24567	-94
2.24933	-94
2.25300	-94
2.25667	-93
2.26033	-93
2.26400	-92
2.26767	-91
2.27133	-91
2.27500	-90
2.27867	-90
2.28233	-90
2.28600	-90
2.28967	-90
2.29333	-90
2.29700	-90
2.30067	-89
2.30433	-89
2.30800	-89
2.31167	-88
2.31533	-87
2.31900	-87
2.32267	-87
2.32633	-86
2.33000	-86
2.33367	-86
2.33733	-86
2.34100	-86
2.34467	-86
2.34833	-85
2.35200	-85
2.35567	-83
2.35933	-82
2.36300	-81
2.36667	-79
2.37033	-78
2.37400	-76
2.37767	-74
2.38133	-71
2.38500	-68
2.38867	-65
2.39233	-60
2.39600	-56
2.39967	-51
2.40333	-46
2.40700	-42
2.41067	-38
2.41433	-34
2.41800	-30
2.42167	-27
2.42533	-24
2.42900	-21
2.43267	-19
2.43633	-16
2.44000	-14
2.44367	-12
2.44733	-11
2.45100	-9
2.45467	-7
2.45833	-5
2.46200	-4
2.46567	-3
2.46933	-1
2.47300	-0
2.47667	1
2.48033	2
2.48400	3
2.48767	3
2.49133	3
2.49500	3
2.49867	3
2.50233	4
2.50600	5
2.50967	5
2.51333	6
2.51700	7
2.52067	8
2.52433	9
2.52800	10
2.53167	11
2.53533	12
2.53900	13
2.54267	13
2.54633	13
2.55000	13
2.55367	13
2.55733	13
2.56100	13
2.56467	13
2.56833	13
2.57200	13
2.57567	13
2.57933	13
2.58300	14
2.58667	14
2.59033	14
2.59400	15
2.59767	15
2.60133	15
2.60500	15
2.60867	15
2.61233	15
2.61600	15
2.61967	15
2.62333	15
2.62700	15
2.63067	15
2.63433	14
2.63800	14
2.64167	14
2.64533	14
2.64900	15
2.65267	15
2.65633	16
2.66000	17
2.66367	17
2.66733	18
2.67100	18
2.67467	19
2.67833	19
2.68200	20
2.68567	20
2.68933	20
2.69300	20
2.69667	21
2.70033	21
2.70400	22
2.70767	23
2.71133	23
2.71500	24
2.71867	24
2.72233	25
2.72600	25
2.72967	25
2.73333	25
2.73700	25
2.74067	24
2.74433	24
2.74800	24
2.75167	24
2.75533	24
2.75900	24
2.76267	24
2.76633	24
2.77000	24
2.77367	24
2.77733	25
2.78100	25
2.78467	25
2.78833	26
2.79200	26
2.79567	26
2.79933	26
2.80300	26
2.80667	26
2.81033	26
2.81400	26
2.81767	26
2.82133	26
2.82500	25
2.82867	25
2.83233	25
2.83600	25
2.83967	24
2.84333	23
2.84700	20
2.85067	16
2.85433	10
2.85800	0
2.86167	-12
2.86533	-29
2.86900	-49
2.87267	-73
2.87633	-101
2.88000	-133
2.88367	-169
2.88733	-208
2.89100	-249
2.89467	-293
2.89833	-339
2.90200	-387
2.90567	-436
2.90933	-486
2.91300	-536
2.91667	-586
2.92033	-636
2.92400	-686
2.92767	-735
2.93133	-784
2.93500	-834
2.93867	-887
2.94233	-946
2.94600	-1008
2.94967	-1061
2.95333	-1095
2.95700	-1103
2.96067	-1085
2.96433	-1043
2.96800	-983
2.97167	-911
2.97533	-832
2.97900	-750
2.98267	-670
2.98633	-593
2.99000	-521
2.99367	-455
2.99733	-395
3.00100	-341
3.00467	-293
3.00833	-251
3.01200	-214
3.01567	-182
3.01933	-154
3.02300	-130
3.02667	-109
3.03033	-91
3.03400	-76
3.03767	-63
3.04133	-52
3.04500	-43
3.04867	-35
3.05233	-28
3.05600	-23
3.05967	-18
3.06333	-13
3.06700	-10
3.07067	-6
3.07433	-4
3.07800	-1
3.08167	1
3.08533	2
3.08900	4
3.09267	5
3.09633	7
3.10000	8
3.10367	9
3.10733	10
3.11100	10
3.11467	11
3.11833	12
3.12200	12
3.12567	13
3.12933	13
3.13300	14
3.13667	14
3.14033	15
3.14400	15
3.14767	15
3.15133	16
3.15500	16
3.15867	16
3.16233	17
3.16600	17
3.16967	17
3.17333	17
3.17700	17
3.18067	18
3.18433	18
3.18800	18
3.19167	19
3.19533	19
3.19900	20
3.20267	20
3.20633	20
3.21000	21
3.21367	21
3.21733	21
3.22100	21
3.22467	21
3.22833	21
3.23200	21
3.23567	21
3.23933	22
3.24300	22
3.24667	22
3.25033	22
3.25400	23
3.25767	23
3.26133	24
3.26500	24
3.26867	24
3.27233	24
3.27600	24
3.27967	25
3.28333	25
3.28700	25
3.29067	25
3.29433	26
3.29800	26
3.30167	26
3.30533	26
3.30900	26
3.31267	26
3.31633	26
3.32000	27
3.32367	27
3.32733	27
3.33100	27
3.33467	27
3.33833	27
3.34200	27
3.34567	27
3.34933	27
3.35300	27
3.35667	27
3.36033	27
3.36400	26
3.36767	26
3.37133	26
3.37500	26
3.37867	26
3.38233	26
3.38600	26
3.38967	25
3.39333	25
3.39700	25
3.40067	25
3.40433	25
3.40800	25
3.41167	25
3.41533	25
3.41900	25
3.42267	25
3.42633	25
3.43000	26
3.43367	26
3.43733	26
3.44100	26
3.44467	26
3.44833	26
3.45200	26
3.45567	26
3.45933	26
3.46300	26
3.46667	26
3.47033	26
3.47400	26
3.47767	26
3.48133	26
3.48500	26
3.48867	26
3.49233	25
3.49600	25
3.49967	25
3.50333	25
3.50700	25
3.51067	24
3.51433	25
3.51800	25
3.52167	25
3.52533	25
3.52900	26
3.53267	26
3.53633	26
3.54000	27
3.54367	27
3.54733	27
3.55100	27
3.55467	27
3.55833	27
3.56200	27
3.56567	28
3.56933	28
3.57300	28
3.57667	28
3.58033	28
3.58400	28
3.58767	28
3.59133	28
3.59500	28
3.59867	28
3.60233	28
3.60600	28
3.60967	28
3.61333	28
3.61700	28
3.62067	28
3.62433	28
3.62800	28
3.63167	28
3.63533	27
3.63900	27
3.64267	27
3.64633	26
3.65000	26
3.65367	26
3.65733	26
3.66100	26
3.66467	26
3.66833	26
3.67200	26
3.67567	26
3.67933	26
3.68300	26
3.68667	27
3.69033	27
3.69400	27
3.69767	27
3.70133	27
3.70500	27
3.70867	27
3.71233	27
3.71600	27
3.71967	27
3.72333	27
3.72700	27
3.73067	27
3.73433	27
3.73800	27
3.74167	27
3.74533	27
3.74900	27
3.75267	27
3.75633	27
3.76000	28
3.76367	28
3.76733	28
3.77100	27
3.77467	27
3.77833	27
3.78200	27
3.78567	26
3.78933	26
3.79300	26
3.79667	26
3.80033	26
3.80400	26
3.80767	26
3.81133	26
3.81500	27
3.81867	27
3.82233	27
3.82600	27
3.82967	27
3.83333	27
3.83700	27
3.84067	27
3.84433	27
3.84800	27
3.85167	27
3.85533	27
3.85900	26
3.86267	27
3.86633	27
3.87000	27
3.87367	27
3.87733	27
3.88100	27
3.88467	27
3.88833	27
3.89200	27
3.89567	27
3.89933	27
3.90300	27
3.90667	27
3.91033	26
3.91400	26
3.91767	26
3.92133	26
3.92500	26
3.92867	26
3.93233	25
3.93600	25
3.93967	25
3.94333	25
3.94700	25
3.95067	25
3.95433	25
3.95800	25
3.96167	25
3.96533	25
3.96900	26
3.97267	26
3.97633	26
3.98000	26
3.98367	26
3.98733	27
3.99100	27
3.99467	26
3.99833	26

[Chromatogram (Ch3)]
Interval(msec)	220
# of Points	1091
Start Time(min)	0.002
End Time(min)	3.998
R.Time (min)	Intensity
0.00167	0
0.00533	-0
0.00900	-1
0.01267	-0
0.01633	-0
0.02000	-1
0.02367	-0
0.02733	0
0.03100	2
0.03467	2
0.03833	0
0.04200	-1
0.04567	-3
0.04933	-4
0.05300	-5
0.05667	-6
0.06033	-3
0.06400	1
0.06767	3
0.07133	5
0.07500	6
0.07867	5
0.08233	5
0.08600	6
0.08967	7
0.09333	8
0.09700	8
0.10067	5
0.10433	3
0.10800	4
0.11167	5
0.11533	3
0.11900	3
0.12267	6
0.12633	7
0.13000	8
0.13367	8
0.13733	7
0.14100	6
0.14467	8
0.14833	10
0.15200	10
0.15567	10
0.15933	9
0.16300	10
0.16667	11
0.17033	10
0.17400	11
0.17767	11
0.18133	11
0.18500	12
0.18867	12
0.19233	13
0.19600	13
0.19967	11
0.20333	10
0.20700	8
0.21067	7
0.21433	8
0.21800	10
0.22167	12
0.22533	11
0.22900	10
0.23267	10
0.23633	13
0.24000	16
0.24367	16
0.24733	14
0.25100	14
0.25467	15
0.25833	14
0.26200	12
0.26567	13
0.26933	14
0.27300	15
0.27667	18
0.28033	20
0.28400	23
0.28767	25
0.29133	24
0.29500	21
0.29867	19
0.30233	19
0.30600	18
0.30967	17
0.31333	15
0.31700	15
0.32067	17
0.32433	20
0.32800	22
0.33167	22
0.33533	19
0.33900	18
0.34267	17
0.34633	16
0.35000	17
0.35367	19
0.35733	19
0.36100	18
0.36467	19
0.36833	20
0.37200	19
0.37567	16
0.37933	14
0.38300	14
0.38667	15
0.39033	17
0.39400	16
0.39767	16
0.40133	17
0.40500	20
0.40867	22
0.41233	22
0.41600	20
0.41967	20
0.42333	20
0.42700	21
0.43067	22
0.43433	26
0.43800	29
0.44167	28
0.44533	28
0.44900	28
0.45267	28
0.45633	29
0.46000	32
0.46367	33
0.46733	34
0.47100	35
0.47467	34
0.47833	31
0.48200	30
0.48567	27
0.48933	25
0.49300	25
0.49667	26
0.50033	26
0.50400	26
0.50767	26
0.51133	28
0.51500	28
0.51867	28
0.52233	28
0.52600	27
0.52967	27
0.53333	28
0.53700	31
0.54067	33
0.54433	34
0.54800	34
0.55167	32
0.55533	28
0.55900	27
0.56267	28
0.56633	30
0.57000	32
0.57367	34
0.57733	35
0.58100	32
0.58467	30
0.58833	29
0.59200	28
0.59567	25
0.59933	25
0.60300	27
0.60667	28
0.61033	30
0.61400	30
0.61767	29
0.62133	27
0.62500	25
0.62867	26
0.63233	27
0.63600	29
0.63967	28
0.64333	26
0.64700	25
0.65067	26
0.65433	29
0.65800	32
0.66167	33
0.66533	33
0.66900	33
0.67267	34
0.67633	33
0.68000	34
0.68367	33
0.68733	36
0.69100	36
0.69467	35
0.69833	34
0.70200	32
0.70567	32
0.70933	33
0.71300	34
0.71667	36
0.72033	38
0.72400	39
0.72767	41
0.73133	41
0.73500	40
0.73867	39
0.74233	37
0.74600	37
0.74967	39
0.75333	39
0.75700	38
0.76067	38
0.76433	39
0.76800	39
0.77167	38
0.77533	38
0.77900	37
0.78267	37
0.78633	37
0.79000	37
0.79367	39
0.79733	40
0.80100	41
0.80467	41
0.80833	42
0.81200	44
0.81567	45
0.81933	44
0.82300	43
0.82667	41
0.83033	41
0.83400	41
0.83767	41
0.84133	42
0.84500	42
0.84867	42
0.85233	41
0.85600	41
0.85967	40
0.86333	39
0.86700	39
0.87067	39
0.87433	39
0.87800	38
0.88167	38
0.88533	38
0.88900	36
0.89267	34
0.89633	36
0.90000	38
0.90367	38
0.90733	40
0.91100	42
0.91467	45
0.91833	45
0.92200	45
0.92567	45
0.92933	43
0.93300	43
0.93667	43
0.94033	42
0.94400	42
0.94767	40
0.95133	38
0.95500	37
0.95867	38
0.96233	40
0.96600	40
0.96967	41
0.97333	43
0.97700	46
0.98067	46
0.98433	45
0.98800	46
0.99167	45
0.99533	44
0.99900	42
1.00267	41
1.00633	40
1.01000	41
1.01367	42
1.01733	42
1.02100	43
1.02467	45
1.02833	47
1.03200	47
1.03567	46
1.03933	46
1.04300	44
1.04667	44
1.05033	45
1.05400	44
1.05767	44
1.06133	46
1.06500	47
1.06867	46
1.07233	44
1.07600	43
1.07967	44
1.08333	44
1.08700	44
1.09067	44
1.09433	44
1.09800	42
1.10167	39
1.10533	38
1.10900	40
1.11267	42
1.11633	42
1.12000	43
1.12367	44
1.12733	45
1.13100	46
1.13467	46
1.13833	47
1.14200	45
1.14567	43
1.14933	43
1.15300	42
1.15667	42
1.16033	41
1.16400	42
1.16767	43
1.17133	44
1.17500	43
1.17867	44
1.18233	45
1.18600	44
1.18967	43
1.19333	42
1.19700	41
1.20067	41
1.20433	41
1.20800	40
1.21167	39
1.21533	39
1.21900	39
1.22267	41
1.22633	43
1.23000	44
1.23367	44
1.23733	43
1.24100	41
1.24467	39
1.24833	40
1.25200	43
1.25567	46
1.25933	44
1.26300	41
1.26667	39
1.27033	39
1.27400	40
1.27767	39
1.28133	40
1.28500	41
1.28867	44
1.29233	45
1.29600	45
1.29967	44
1.30333	43
1.30700	43
1.31067	44
1.31433	44
1.31800	44
1.32167	44
1.32533	43
1.32900	43
1.33267	44
1.33633	44
1.34000	46
1.34367	47
1.34733	46
1.35100	47
1.35467	48
1.35833	48
1.36200	47
1.36567	46
1.36933	47
1.37300	48
1.37667	48
1.38033	49
1.38400	48
1.38767	47
1.39133	47
1.39500	47
1.39867	46
1.40233	46
1.40600	45
1.40967	46
1.41333	46
1.41700	46
1.42067	47
1.42433	45
1.42800	44
1.43167	42
1.43533	40
1.43900	40
1.44267	40
1.44633	42
1.45000	42
1.45367	42
1.45733	42
1.46100	42
1.46467	42
1.46833	43
1.47200	43
1.47567	43
1.47933	44
1.48300	44
1.48667	42
1.49033	40
1.49400	42
1.49767	45
1.50133	45
1.50500	44
1.50867	45
1.51233	46
1.51600	46
1.51967	47
1.52333	48
1.52700	47
1.53067	46
1.53433	47
1.53800	46
1.54167	45
1.54533	46
1.54900	46
1.55267	47
1.55633	46
1.56000	47
1.56367	49
1.56733	49
1.57100	48
1.57467	49
1.57833	50
1.58200	47
1.58567	47
1.58933	47
1.59300	46
1.59667	46
1.60033	46
1.60400	46
1.60767	48
1.61133	47
1.61500	47
1.61867	47
1.62233	46
1.62600	46
1.62967	46
1.63333	48
1.63700	49
1.64067	49
1.64433	51
1.64800	52
1.65167	52
1.65533	52
1.65900	52
1.66267	52
1.66633	51
1.67000	51
1.67367	51
1.67733	50
1.68100	51
1.68467	53
1.68833	56
1.69200	58
1.69567	58
1.69933	59
1.70300	58
1.70667	58
1.71033	60
1.71400	61
1.71767	62
1.72133	61
1.72500	62
1.72867	63
1.73233	63
1.73600	64
1.73967	66
1.74333	65
1.74700	63
1.75067	63
1.75433	63
1.75800	64
1.76167	63
1.76533	62
1.76900	63
1.77267	65
1.77633	68
1.78000	68
1.78367	69
1.78733	70
1.79100	72
1.79467	71
1.79833	70
1.80200	69
1.80567	67
1.80933	65
1.81300	65
1.81667	66
1.82033	67
1.82400	68
1.82767	68
1.83133	70
1.83500	73
1.83867	73
1.84233	73
1.84600	71
1.84967	71
1.85333	73
1.85700	73
1.86067	72
1.86433	73
1.86800	74
1.87167	74
1.87533	72
1.87900	71
1.88267	71
1.88633	69
1.89000	68
1.89367	69
1.89733	69
1.90100	71
1.90467	73
1.90833	74
1.91200	75
1.91567	75
1.91933	72
1.92300	72
1.92667	73
1.93033	74
1.93400	75
1.93767	76
1.94133	75
1.94500	75
1.94867	76
1.95233	77
1.95600	78
1.95967	77
1.96333	76
1.96700	74
1.97067	76
1.97433	78
1.97800	79
1.98167	79
1.98533	79
1.98900	81
1.99267	83
1.99633	84
2.00000	86
2.00367	87
2.00733	87
2.01100	86
2.01467	88
2.01833	89
2.02200	87
2.02567	85
2.02933	86
2.03300	88
2.03667	90
2.04033	93
2.04400	95
2.04767	96
2.05133	97
2.05500	98
2.05867	102
2.06233	104
2.06600	105
2.06967	106
2.07333	106
2.07700	106
2.08067	106
2.08433	105
2.08800	105
2.09167	107
2.09533	109
2.09900	109
2.10267	108
2.10633	108
2.11000	111
2.11367	111
2.11733	111
2.12100	110
2.12467	110
2.12833	109
2.13200	110
2.13567	113
2.13933	116
2.14300	118
2.14667	120
2.15033	121
2.15400	122
2.15767	122
2.16133	122
2.16500	122
2.16867	121
2.17233	119
2.17600	120
2.17967	123
2.18333	125
2.18700	125
2.19067	125
2.19433	127
2.19800	128
2.20167	128
2.20533	127
2.20900	125
2.21267	124
2.21633	124
2.22000	124
2.22367	125
2.22733	127
2.23100	128
2.23467	130
2.23833	131
2.24200	131
2.24567	131
2.24933	133
2.25300	135
2.25667	135
2.26033	134
2.26400	133
2.26767	134
2.27133	136
2.27500	134
2.27867	135
2.28233	135
2.28600	134
2.28967	132
2.29333	132
2.29700	134
2.30067	136
2.30433	138
2.30800	140
2.31167	141
2.31533	141
2.31900	140
2.32267	139
2.32633	138
2.33000	139
2.33367	140
2.33733	139
2.34100	138
2.34467	138
2.34833	142
2.35200	144
2.35567	144
2.35933	145
2.36300	146
2.36667	145
2.37033	145
2.37400	144
2.37767	143
2.38133	142
2.38500	142
2.38867	142
2.39233	141
2.39600	144
2.39967	148
2.40333	152
2.40700	155
2.41067	156
2.41433	158
2.41800	160
2.42167	160
2.42533	158
2.42900	158
2.43267	158
2.43633	158
2.44000	157
2.44367	165
2.44733	191
2.45100	222
2.45467	247
2.45833	259
2.46200	259
2.46567	257
2.46933	258
2.47300	256
2.47667	251
2.48033	242
2.48400	232
2.48767	222
2.49133	214
2.49500	208
2.49867	202
2.50233	199
2.50600	196
2.50967	195
2.51333	195
2.51700	198
2.52067	202
2.52433	202
2.52800	199
2.53167	195
2.53533	190
2.53900	184
2.54267	178
2.54633	174
2.55000	169
2.55367	165
2.55733	161
2.56100	157
2.56467	157
2.56833	165
2.57200	182
2.57567	205
2.57933	233
2.58300	262
2.58667	293
2.59033	327
2.59400	364
2.59767	400
2.60133	432
2.60500	458
2.60867	479
2.61233	495
2.61600	503
2.61967	503
2.62333	498
2.62700	489
2.63067	475
2.63433	465
2.63800	459
2.64167	457
2.64533	456
2.64900	458
2.65267	462
2.65633	468
2.66000	474
2.66367	478
2.66733	485
2.67100	494
2.67467	505
2.67833	518
2.68200	530
2.68567	540
2.68933	549
2.69300	558
2.69667	569
2.70033	580
2.70400	587
2.70767	591
2.71133	598
2.71500	606
2.71867	614
2.72233	622
2.72600	628
2.72967	632
2.73333	636
2.73700	639
2.74067	643
2.74433	648
2.74800	652
2.75167	657
2.75533	661
2.75900	662
2.76267	662
2.76633	663
2.77000	664
2.77367	663
2.77733	663
2.78100	663
2.78467	663
2.78833	662
2.79200	660
2.79567	661
2.79933	664
2.80300	664
2.80667	665
2.81033	665
2.81400	664
2.81767	665
2.82133	668
2.82500	684
2.82867	721
2.83233	797
2.83600	931
2.83967	1150
2.84333	1475
2.84700	1913
2.85067	2456
2.85433	3078
2.85800	3737
2.86167	4382
2.86533	4963
2.86900	5434
2.87267	5756
2.87633	5917
2.88000	5923
2.88367	5792
2.88733	5558
2.89100	5245
2.89467	4885
2.89833	4502
2.90200	4118
2.90567	3747
2.90933	3394
2.91300	3067
2.91667	2768
2.92033	2498
2.92400	2256
2.92767	2044
2.93133	1859
2.93500	1695
2.93867	1552
2.94233	1427
2.94600	1319
2.94967	1225
2.95333	1142
2.95700	1072
2.96067	1011
2.96433	960
2.96800	917
2.97167	879
2.97533	845
2.97900	813
2.98267	786
2.98633	762
2.99000	744
2.99367	731
2.99733	717
3.00100	703
3.00467	692
3.00833	684
3.01200	678
3.01567	673
3.01933	668
3.02300	664
3.02667	659
3.03033	652
3.03400	650
3.03767	648
3.04133	647
3.04500	645
3.04867	642
3.05233	640
3.05600	639
3.05967	639
3.06333	639
3.06700	637
3.07067	634
3.07433	632
3.07800	632
3.08167	633
3.08533	630
3.08900	625
3.09267	623
3.09633	623
3.10000	624
3.10367	623
3.10733	622
3.11100	622
3.11467	623
3.11833	624
3.12200	621
3.12567	619
3.12933	618
3.13300	617
3.13667	615
3.14033	614
3.14400	613
3.14767	614
3.15133	616
3.15500	617
3.15867	615
3.16233	612
3.16600	608
3.16967	606
3.17333	605
3.17700	605
3.18067	605
3.18433	604
3.18800	603
3.19167	604
3.19533	604
3.19900	604
3.20267	603
3.20633	600
3.21000	598
3.21367	596
3.21733	596
3.22100	596
3.22467	597
3.22833	595
3.23200	593
3.23567	590
3.23933	590
3.24300	589
3.24667	587
3.25033	585
3.25400	584
3.25767	584
3.26133	583
3.26500	583
3.26867	581
3.27233	579
3.27600	577
3.27967	574
3.28333	571
3.28700	568
3.29067	564
3.29433	559
3.29800	556
3.30167	553
3.30533	548
3.30900	545
3.31267	542
3.31633	541
3.32000	540
3.32367	538
3.32733	536
3.33100	535
3.33467	533
3.33833	531
3.34200	527
3.34567	525
3.34933	523
3.35300	519
3.35667	517
3.36033	515
3.36400	512
3.36767	509
3.37133	507
3.37500	504
3.37867	501
3.38233	501
3.38600	498
3.38967	493
3.39333	489
3.39700	486
3.40067	484
3.40433	483
3.40800	480
3.41167	478
3.41533	477
3.41900	474
3.42267	468
3.42633	464
3.43000	462
3.43367	460
3.43733	458
3.44100	457
3.44467	454
3.44833	451
3.45200	448
3.45567	446
3.45933	443
3.46300	442
3.46667	440
3.47033	438
3.47400	437
3.47767	434
3.48133	433
3.48500	431
3.48867	429
3.49233	427
3.49600	424
3.49967	421
3.50333	419
3.50700	416
3.51067	415
3.51433	411
3.51800	409
3.52167	408
3.52533	405
3.52900	402
3.53267	398
3.53633	395
3.54000	393
3.54367	391
3.54733	390
3.55100	391
3.55467	391
3.55833	388
3.56200	385
3.56567	382
3.56933	381
3.57300	380
3.57667	377
3.58033	374
3.58400	372
3.58767	369
3.59133	367
3.59500	366
3.59867	364
3.60233	361
3.60600	359
3.60967	358
3.61333	356
3.61700	357
3.62067	357
3.62433	355
3.62800	355
3.63167	352
3.63533	349
3.63900	348
3.64267	349
3.64633	347
3.65000	346
3.65367	346
3.65733	345
3.66100	343
3.66467	340
3.66833	338
3.67200	336
3.67567	333
3.67933	331
3.68300	327
3.68667	324
3.69033	320
3.69400	319
3.69767	317
3.70133	317
3.70500	318
3.70867	317
3.71233	315
3.71600	312
3.71967	311
3.72333	311
3.72700	310
3.73067	308
3.73433	305
3.73800	305
3.74167	302
3.74533	300
3.74900	300
3.75267	300
3.75633	300
3.76000	300
3.76367	300
3.76733	300
3.77100	302
3.77467	302
3.77833	299
3.78200	297
3.78567	295
3.78933	292
3.79300	288
3.79667	285
3.80033	282
3.80400	280
3.80767	279
3.81133	279
3.81500	278
3.81867	276
3.82233	273
3.82600	271
3.82967	272
3.83333	271
3.83700	270
3.84067	270
3.84433	271
3.84800	270
3.85167	269
3.85533	269
3.85900	269
3.86267	267
3.86633	265
3.87000	263
3.87367	262
3.87733	261
3.88100	260
3.88467	260
3.88833	261
3.89200	260
3.89567	260
3.89933	259
3.90300	258
3.90667	258
3.91033	258
3.91400	255
3.91767	252
3.92133	250
3.92500	249
3.92867	249
3.93233	247
3.93600	247
3.93967	249
3.94333	248
3.94700	246
3.95067	244
3.95433	243
3.95800	244
3.96167	244
3.96533	244
3.96900	241
3.97267	238
3.97633	237
3.98000	236
3.98367	234
3.98733	232
3.99100	231
3.99467	230
3.99833	226

[Status Trace (Column Oven Temperature)]
Interval(msec)	1000
# of Points	240
Start Time(min)	0.013
End Time(min)	3.997
Intensity Units	
Intensity Multiplier	1
R.Time (min)	Intensity
0.01318	34.99
0.02985	34.99
0.04652	35.01
0.06318	35.01
0.07985	35.01
0.09652	35.02
0.11318	35.01
0.12985	35.01
0.14652	35.00
0.16318	34.99
0.17985	34.99
0.19652	34.98
0.21318	34.98
0.22985	34.98
0.24652	34.97
0.26318	34.98
0.27985	34.98
0.29652	34.99
0.31318	34.98
0.32985	34.98
0.34652	34.99
0.36318	34.99
0.37985	34.99
0.39652	34.99
0.41318	34.99
0.42985	35.00
0.44652	35.00
0.46318	35.00
0.47985	35.00
0.49652	35.00
0.51318	34.99
0.52985	34.99
0.54652	35.01
0.56318	35.03
0.57985	35.04
0.59652	35.04
0.61318	35.03
0.62985	35.02
0.64652	35.01
0.66318	35.00
0.67985	35.00
0.69652	34.99
0.71318	34.99
0.72985	34.99
0.74652	34.99
0.76318	34.99
0.77985	34.99
0.79652	34.99
0.81318	34.99
0.82985	34.98
0.84652	34.98
0.86318	34.97
0.87985	34.97
0.89652	34.97
0.91318	34.99
0.92985	35.00
0.94652	35.00
0.96318	35.01
0.97985	35.00
0.99652	35.00
1.01318	34.99
1.02985	34.98
1.04652	34.98
1.06318	34.98
1.07985	34.98
1.09652	34.98
1.11318	34.98
1.12985	34.98
1.14652	34.97
1.16318	34.97
1.17985	34.98
1.19652	34.99
1.21318	34.98
1.22985	34.97
1.24652	34.98
1.26318	34.98
1.27985	34.98
1.29652	34.98
1.31318	34.99
1.32985	34.99
1.34652	35.00
1.36318	34.99
1.37985	34.99
1.39652	35.00
1.41318	35.00
1.42985	35.00
1.44652	35.01
1.46318	35.00
1.47985	35.00
1.49652	35.00
1.51318	35.01
1.52985	35.01
1.54652	35.01
1.56318	35.01
1.57985	35.00
1.59652	35.02
1.61318	35.10
1.62985	35.24
1.64652	35.42
1.66318	35.70
1.67985	36.05
1.69652	36.42
1.71318	36.76
1.72985	37.10
1.74652	37.45
1.76318	37.76
1.77985	38.10
1.79652	38.44
1.81318	38.76
1.82985	39.10
1.84652	39.42
1.86318	39.77
1.87985	40.09
1.89652	40.43
1.91318	40.74
1.92985	41.08
1.94652	41.41
1.96318	41.74
1.97985	42.07
1.99652	42.39
2.01318	42.71
2.02985	43.06
2.04652	43.39
2.06318	43.71
2.07985	44.02
2.09652	44.34
2.11318	44.68
2.12985	45.01
2.14652	45.33
2.16318	45.67
2.17985	46.00
2.19652	46.33
2.21318	46.66
2.22985	46.98
2.24652	47.32
2.26318	47.63
2.27985	47.96
2.29652	48.29
2.31318	48.61
2.32985	48.94
2.34652	49.26
2.36318	49.48
2.37985	49.61
2.39652	49.63
2.41318	49.63
2.42985	49.65
2.44652	49.66
2.46318	49.67
2.47985	49.69
2.49652	49.71
2.51318	49.72
2.52985	49.72
2.54652	49.74
2.56318	49.75
2.57985	49.76
2.59652	49.78
2.61318	49.78
2.62985	49.81
2.64652	49.84
2.66318	49.85
2.67985	49.86
2.69652	49.86
2.71318	49.84
2.72985	49.85
2.74652	49.86
2.76318	49.86
2.77985	49.85
2.79652	49.86
2.81318	49.86
2.82985	49.86
2.84652	49.85
2.86318	49.86
2.87985	49.87
2.89652	49.89
2.91318	49.91
2.92985	49.92
2.94652	49.93
2.96318	49.96
2.97985	49.97
2.99652	49.98
3.01318	49.99
3.02985	49.99
3.04652	50.02
3.06318	50.03
3.07985	50.04
3.09652	50.05
3.11318	50.06
3.12985	50.05
3.14652	50.06
3.16318	50.07
3.17985	50.08
3.19652	50.09
3.21318	50.10
3.22985	50.11
3.24652	50.11
3.26318	50.10
3.27985	50.09
3.29652	50.07
3.31318	50.07
3.32985	50.07
3.34652	50.06
3.36318	50.07
3.37985	50.07
3.39652	50.08
3.41318	50.09
3.42985	50.08
3.44652	50.08
3.46318	50.08
3.47985	50.09
3.49652	50.10
3.51318	50.09
3.52985	50.08
3.54652	50.07
3.56318	50.07
3.57985	50.06
3.59652	50.06
3.61318	50.06
3.62985	50.06
3.64652	50.07
3.66318	50.08
3.67985	50.07
3.69652	50.06
3.71318	50.06
3.72985	50.06
3.74652	50.05
3.76318	50.05
3.77985	50.05
3.79652	50.05
3.81318	50.05
3.82985	50.05
3.84652	50.05
3.86318	50.05
3.87985	50.04
3.89652	50.05
3.91318	50.06
3.92985	50.06
3.94652	50.07
3.96318	50.07
3.97985	50.07
3.99652	50.07

[Status Trace (Injection Unit Temperature)]
Interval(msec)	1000
# of Points	240
Start Time(min)	0.013
End Time(min)	3.997
Intensity Units	
Intensity Multiplier	1
R.Time (min)	Intensity
0.01318	99.98
0.02985	99.98
0.04652	99.98
0.06318	99.99
0.07985	99.98
0.09652	99.99
0.11318	99.98
0.12985	99.98
0.14652	99.98
0.16318	99.98
0.17985	99.99
0.19652	99.99
0.21318	99.98
0.22985	99.99
0.24652	99.98
0.26318	99.98
0.27985	99.98
0.29652	99.98
0.31318	99.99
0.32985	99.99
0.34652	99.99
0.36318	99.98
0.37985	99.98
0.39652	99.99
0.41318	99.99
0.42985	99.99
0.44652	99.98
0.46318	99.98
0.47985	99.98
0.49652	99.98
0.51318	99.98
0.52985	99.98
0.54652	99.98
0.56318	99.98
0.57985	99.98
0.59652	99.98
0.61318	99.98
0.62985	99.98
0.64652	99.98
0.66318	99.98
0.67985	99.98
0.69652	99.98
0.71318	99.98
0.72985	99.98
0.74652	99.98
0.76318	99.98
0.77985	99.98
0.79652	99.98
0.81318	99.99
0.82985	99.98
0.84652	99.98
0.86318	99.99
0.87985	99.99
0.89652	99.99
0.91318	99.99
0.92985	99.98
0.94652	99.99
0.96318	99.98
0.97985	99.99
0.99652	99.98
1.01318	99.99
1.02985	99.99
1.04652	99.98
1.06318	99.99
1.07985	99.99
1.09652	99.99
1.11318	99.99
1.12985	99.99
1.14652	99.99
1.16318	99.99
1.17985	99.99
1.19652	99.99
1.21318	99.99
1.22985	99.99
1.24652	99.99
1.26318	99.99
1.27985	99.98
1.29652	99.99
1.31318	99.99
1.32985	99.99
1.34652	99.99
1.36318	99.99
1.37985	99.99
1.39652	99.98
1.41318	99.99
1.42985	99.99
1.44652	99.98
1.46318	99.99
1.47985	99.99
1.49652	99.99
1.51318	99.99
1.52985	99.99
1.54652	99.99
1.56318	99.99
1.57985	99.99
1.59652	99.99
1.61318	99.99
1.62985	99.99
1.64652	99.99
1.66318	99.98
1.67985	99.98
1.69652	99.99
1.71318	99.99
1.72985	99.98
1.74652	99.99
1.76318	99.99
1.77985	99.99
1.79652	99.99
1.81318	99.99
1.82985	99.98
1.84652	99.99
1.86318	99.98
1.87985	99.99
1.89652	99.99
1.91318	99.98
1.92985	99.98
1.94652	99.98
1.96318	99.98
1.97985	99.98
1.99652	99.98
2.01318	99.98
2.02985	99.98
2.04652	99.98
2.06318	99.98
2.07985	99.97
2.09652	99.97
2.11318	99.98
2.12985	99.97
2.14652	99.98
2.16318	99.97
2.17985	99.97
2.19652	99.98
2.21318	99.97
2.22985	99.97
2.24652	99.97
2.26318	99.97
2.27985	99.97
2.29652	99.97
2.31318	99.97
2.32985	99.97
2.34652	99.97
2.36318	99.97
2.37985	99.97
2.39652	99.97
2.41318	99.97
2.42985	99.97
2.44652	99.97
2.46318	99.97
2.47985	99.98
2.49652	99.97
2.51318	99.97
2.52985	99.98
2.54652	99.98
2.56318	99.98
2.57985	99.98
2.59652	99.98
2.61318	99.98
2.62985	99.98
2.64652	99.99
2.66318	99.99
2.67985	99.99
2.69652	99.99
2.71318	99.99
2.72985	99.99
2.74652	99.99
2.76318	99.99
2.77985	99.99
2.79652	100.00
2.81318	99.99
2.82985	100.00
2.84652	100.00
2.86318	100.00
2.87985	100.01
2.89652	100.01
2.91318	100.01
2.92985	100.01
2.94652	100.01
2.96318	100.01
2.97985	100.01
2.99652	100.01
3.01318	100.01
3.02985	100.02
3.04652	100.02
3.06318	100.02
3.07985	100.02
3.09652	100.02
3.11318	100.02
3.12985	100.02
3.14652	100.03
3.16318	100.02
3.17985	100.03
3.19652	100.03
3.21318	100.03
3.22985	100.03
3.24652	100.03
3.26318	100.04
3.27985	100.04
3.29652	100.04
3.31318	100.04
3.32985	100.04
3.34652	100.03
3.36318	100.04
3.37985	100.04
3.39652	100.04
3.41318	100.04
3.42985	100.04
3.44652	100.04
3.46318	100.04
3.47985	100.04
3.49652	100.05
3.51318	100.04
3.52985	100.05
3.54652	100.04
3.56318	100.04
3.57985	100.05
3.59652	100.04
3.61318	100.05
3.62985	100.05
3.64652	100.05
3.66318	100.05
3.67985	100.05
3.69652	100.05
3.71318	100.04
3.72985	100.05
3.74652	100.04
3.76318	100.05
3.77985	100.05
3.79652	100.05
3.81318	100.05
3.82985	100.04
3.84652	100.05
3.86318	100.05
3.87985	100.05
3.89652	100.05
3.91318	100.05
3.92985	100.04
3.94652	100.04
3.96318	100.04
3.97985	100.04
3.99652	100.04

[Status Trace (Carrier Gas Pressure)]
Interval(msec)	1000
# of Points	240
Start Time(min)	0.013
End Time(min)	3.997
Intensity Units	
Intensity Multiplier	1
R.Time (min)	Intensity
0.01318	57.97
0.02985	55.12
0.04652	57.53
0.06318	59.69
0.07985	58.93
0.09652	57.99
0.11318	57.99
0.12985	58.01
0.14652	58.01
0.16318	58.00
0.17985	58.00
0.19652	58.00
0.21318	58.00
0.22985	58.00
0.24652	58.00
0.26318	58.00
0.27985	58.00
0.29652	58.00
0.31318	58.00
0.32985	58.00
0.34652	58.00
0.36318	58.00
0.37985	58.00
0.39652	58.00
0.41318	58.00
0.42985	58.00
0.44652	58.00
0.46318	58.00
0.47985	58.00
0.49652	58.00
0.51318	58.00
0.52985	58.00
0.54652	58.00
0.56318	58.00
0.57985	58.00
0.59652	58.00
0.61318	58.00
0.62985	58.00
0.64652	58.00
0.66318	58.00
0.67985	58.00
0.69652	58.00
0.71318	58.00
0.72985	58.00
0.74652	58.00
0.76318	58.00
0.77985	58.00
0.79652	58.00
0.81318	58.00
0.82985	58.00
0.84652	58.00
0.86318	58.00
0.87985	58.00
0.89652	58.00
0.91318	58.00
0.92985	58.00
0.94652	58.00
0.96318	58.00
0.97985	58.00
0.99652	58.00
1.01318	58.00
1.02985	58.00
1.04652	58.00
1.06318	58.00
1.07985	58.00
1.09652	58.00
1.11318	58.00
1.12985	58.00
1.14652	58.00
1.16318	58.00
1.17985	58.00
1.19652	58.00
1.21318	58.00
1.22985	58.00
1.24652	58.00
1.26318	58.00
1.27985	58.00
1.29652	58.00
1.31318	58.00
1.32985	58.00
1.34652	58.00
1.36318	58.00
1.37985	58.00
1.39652	58.00
1.41318	58.00
1.42985	58.00
1.44652	58.00
1.46318	58.00
1.47985	58.00
1.49652	58.00
1.51318	58.00
1.52985	58.00
1.54652	58.00
1.56318	58.00
1.57985	58.00
1.59652	58.00
1.61318	58.00
1.62985	58.01
1.64652	58.00
1.66318	58.01
1.67985	58.01
1.69652	58.00
1.71318	58.00
1.72985	58.00
1.74652	58.00
1.76318	58.00
1.77985	58.00
1.79652	58.00
1.81318	58.00
1.82985	58.00
1.84652	58.00
1.86318	58.00
1.87985	58.00
1.89652	58.00
1.91318	58.00
1.92985	58.00
1.94652	58.00
1.96318	58.00
1.97985	58.00
1.99652	58.00
2.01318	58.00
2.02985	58.00
2.04652	58.00
2.06318	58.00
2.07985	58.00
2.09652	58.00
2.11318	58.00
2.12985	58.00
2.14652	58.00
2.16318	58.00
2.17985	58.00
2.19652	58.00
2.21318	58.00
2.22985	58.00
2.24652	58.00
2.26318	58.00
2.27985	58.00
2.29652	58.00
2.31318	58.00
2.32985	58.00
2.34652	58.00
2.36318	58.00
2.37985	57.99
2.39652	57.99
2.41318	58.00
2.42985	58.00
2.44652	58.00
2.46318	58.00
2.47985	58.00
2.49652	58.00
2.51318	57.99
2.52985	57.99
2.54652	58.00
2.56318	58.00
2.57985	58.00
2.59652	58.00
2.61318	58.00
2.62985	58.00
2.64652	58.00
2.66318	58.00
2.67985	58.00
2.69652	58.00
2.71318	58.00
2.72985	58.00
2.74652	58.00
2.76318	58.00
2.77985	58.00
2.79652	58.00
2.81318	58.00
2.82985	58.00
2.84652	58.00
2.86318	58.00
2.87985	58.00
2.89652	58.00
2.91318	58.00
2.92985	58.00
2.94652	58.00
2.96318	58.00
2.97985	58.00
2.99652	58.00
3.01318	58.00
3.02985	58.00
3.04652	58.00
3.06318	58.00
3.07985	58.00
3.09652	58.00
3.11318	58.00
3.12985	58.00
3.14652	58.00
3.16318	58.00
3.17985	58.00
3.19652	58.00
3.21318	58.00
3.22985	58.00
3.24652	58.00
3.26318	58.00
3.27985	58.00
3.29652	58.00
3.31318	58.00
3.32985	58.00
3.34652	58.00
3.36318	58.00
3.37985	58.00
3.39652	58.00
3.41318	58.00
3.42985	58.00
3.44652	58.00
3.46318	58.00
3.47985	58.00
3.49652	58.00
3.51318	58.00
3.52985	58.00
3.54652	58.00
3.56318	58.00
3.57985	58.00
3.59652	58.00
3.61318	58.00
3.62985	58.00
3.64652	58.00
3.66318	58.00
3.67985	58.00
3.69652	58.00
3.71318	58.00
3.72985	58.00
3.74652	58.00
3.76318	58.00
3.77985	58.00
3.79652	58.00
3.81318	58.00
3.82985	58.00
3.84652	58.00
3.86318	58.00
3.87985	58.00
3.89652	58.00
3.91318	58.00
3.92985	58.00
3.94652	58.00
3.96318	58.00
3.97985	58.00
3.99652	58.00

[Status Trace (Carrier Gas Flow)]
Interval(msec)	1000
# of Points	240
Start Time(min)	0.013
End Time(min)	3.997
Intensity Units	
Intensity Multiplier	1
R.Time (min)	Intensity
0.01318	34.62
0.02985	34.54
0.04652	34.54
0.06318	34.54
0.07985	34.49
0.09652	34.52
0.11318	34.52
0.12985	34.52
0.14652	34.52
0.16318	34.52
0.17985	34.52
0.19652	34.52
0.21318	34.52
0.22985	34.52
0.24652	34.52
0.26318	34.52
0.27985	34.52
0.29652	34.52
0.31318	34.52
0.32985	34.52
0.34652	34.52
0.36318	34.52
0.37985	34.52
0.39652	34.52
0.41318	34.52
0.42985	34.52
0.44652	34.52
0.46318	34.52
0.47985	34.52
0.49652	34.52
0.51318	34.52
0.52985	34.52
0.54652	34.52
0.56318	34.52
0.57985	34.52
0.59652	34.52
0.61318	34.52
0.62985	34.52
0.64652	34.52
0.66318	34.52
0.67985	34.52
0.69652	34.52
0.71318	34.52
0.72985	34.52
0.74652	34.52
0.76318	34.52
0.77985	34.52
0.79652	34.52
0.81318	34.52
0.82985	34.52
0.84652	34.52
0.86318	34.52
0.87985	34.52
0.89652	34.52
0.91318	34.52
0.92985	34.52
0.94652	34.52
0.96318	34.52
0.97985	34.52
0.99652	34.52
1.01318	34.52
1.02985	34.52
1.04652	34.52
1.06318	34.52
1.07985	34.52
1.09652	34.52
1.11318	34.52
1.12985	34.52
1.14652	34.52
1.16318	34.52
1.17985	34.52
1.19652	34.52
1.21318	34.52
1.22985	34.52
1.24652	34.52
1.26318	34.52
1.27985	34.52
1.29652	34.52
1.31318	34.52
1.32985	34.52
1.34652	34.52
1.36318	34.52
1.37985	34.52
1.39652	34.52
1.41318	34.52
1.42985	34.52
1.44652	34.52
1.46318	34.52
1.47985	34.52
1.49652	34.52
1.51318	34.52
1.52985	34.52
1.54652	34.52
1.56318	34.52
1.57985	34.51
1.59652	34.52
1.61318	34.52
1.62985	34.53
1.64652	34.52
1.66318	34.52
1.67985	34.52
1.69652	34.52
1.71318	34.52
1.72985	34.52
1.74652	34.51
1.76318	34.52
1.77985	34.52
1.79652	34.52
1.81318	34.51
1.82985	34.52
1.84652	34.52
1.86318	34.52
1.87985	34.52
1.89652	34.51
1.91318	34.52
1.92985	34.52
1.94652	34.52
1.96318	34.52
1.97985	34.53
1.99652	34.51
2.01318	34.52
2.02985	34.52
2.04652	34.52
2.06318	34.52
2.07985	34.52
2.09652	34.52
2.11318	34.51
2.12985	34.52
2.14652	34.51
2.16318	34.53
2.17985	34.52
2.19652	34.51
2.21318	34.52
2.22985	34.51
2.24652	34.52
2.26318	34.52
2.27985	34.52
2.29652	34.52
2.31318	34.52
2.32985	34.52
2.34652	34.51
2.36318	34.51
2.37985	34.51
2.39652	34.52
2.41318	34.52
2.42985	34.52
2.44652	34.52
2.46318	34.52
2.47985	34.52
2.49652	34.52
2.51318	34.52
2.52985	34.53
2.54652	34.51
2.56318	34.52
2.57985	34.53
2.59652	34.51
2.61318	34.52
2.62985	34.51
2.64652	34.51
2.66318	34.51
2.67985	34.52
2.69652	34.52
2.71318	34.52
2.72985	34.52
2.74652	34.52
2.76318	34.51
2.77985	34.52
2.79652	34.52
2.81318	34.52
2.82985	34.52
2.84652	34.52
2.86318	34.52
2.87985	34.52
2.89652	34.51
2.91318	34.51
2.92985	34.51
2.94652	34.52
2.96318	34.52
2.97985	34.52
2.99652	34.52
3.01318	34.52
3.02985	34.52
3.04652	34.51
3.06318	34.52
3.07985	34.51
3.09652	34.52
3.11318	34.52
3.12985	34.52
3.14652	34.52
3.16318	34.52
3.17985	34.52
3.19652	34.52
3.21318	34.52
3.22985	34.52
3.24652	34.52
3.26318	34.52
3.27985	34.52
3.29652	34.52
3.31318	34.52
3.32985	34.52
3.34652	34.52
3.36318	34.52
3.37985	34.52
3.39652	34.52
3.41318	34.52
3.42985	34.52
3.44652	34.52
3.46318	34.52
3.47985	34.52
3.49652	34.52
3.51318	34.52
3.52985	34.52
3.54652	34.52
3.56318	34.51
3.57985	34.51
3.59652	34.52
3.61318	34.52
3.62985	34.52
3.64652	34.52
3.66318	34.52
3.67985	34.51
3.69652	34.52
3.71318	34.52
3.72985	34.52
3.74652	34.51
3.76318	34.52
3.77985	34.52
3.79652	34.52
3.81318	34.51
3.82985	34.52
3.84652	34.52
3.86318	34.52
3.87985	34.52
3.89652	34.52
3.91318	34.52
3.92985	34.52
3.94652	34.52
3.96318	34.52
3.97985	34.52
3.99652	34.54

[Status Trace (Column Flow)]
Interval(msec)	1000
# of Points	240
Start Time(min)	0.013
End Time(min)	3.997
Intensity Units	
Intensity Multiplier	1
R.Time (min)	Intensity
0.01318	5.49
0.02985	5.16
0.04652	5.44
0.06318	5.69
0.07985	5.60
0.09652	5.49
0.11318	5.49
0.12985	5.49
0.14652	5.49
0.16318	5.49
0.17985	5.49
0.19652	5.49
0.21318	5.49
0.22985	5.49
0.24652	5.49
0.26318	5.49
0.27985	5.49
0.29652	5.49
0.31318	5.49
0.32985	5.49
0.34652	5.49
0.36318	5.49
0.37985	5.49
0.39652	5.49
0.41318	5.49
0.42985	5.49
0.44652	5.49
0.46318	5.49
0.47985	5.49
0.49652	5.49
0.51318	5.49
0.52985	5.49
0.54652	5.49
0.56318	5.49
0.57985	5.49
0.59652	5.49
0.61318	5.49
0.62985	5.49
0.64652	5.49
0.66318	5.49
0.67985	5.49
0.69652	5.49
0.71318	5.49
0.72985	5.49
0.74652	5.49
0.76318	5.49
0.77985	5.49
0.79652	5.49
0.81318	5.49
0.82985	5.49
0.84652	5.49
0.86318	5.49
0.87985	5.49
0.89652	5.49
0.91318	5.49
0.92985	5.49
0.94652	5.49
0.96318	5.49
0.97985	5.49
0.99652	5.49
1.01318	5.49
1.02985	5.49
1.04652	5.49
1.06318	5.49
1.07985	5.49
1.09652	5.49
1.11318	5.49
1.12985	5.49
1.14652	5.49
1.16318	5.49
1.17985	5.49
1.19652	5.49
1.21318	5.49
1.22985	5.49
1.24652	5.49
1.26318	5.49
1.27985	5.49
1.29652	5.49
1.31318	5.49
1.32985	5.49
1.34652	5.49
1.36318	5.49
1.37985	5.49
1.39652	5.49
1.41318	5.49
1.42985	5.49
1.44652	5.49
1.46318	5.49
1.47985	5.49
1.49652	5.49
1.51318	5.49
1.52985	5.49
1.54652	5.49
1.56318	5.49
1.57985	5.49
1.59652	5.49
1.61318	5.49
1.62985	5.49
1.64652	5.48
1.66318	5.47
1.67985	5.46
1.69652	5.45
1.71318	5.44
1.72985	5.43
1.74652	5.42
1.76318	5.41
1.77985	5.40
1.79652	5.39
1.81318	5.38
1.82985	5.37
1.84652	5.36
1.86318	5.35
1.87985	5.34
1.89652	5.33
1.91318	5.32
1.92985	5.31
1.94652	5.30
1.96318	5.29
1.97985	5.28
1.99652	5.27
2.01318	5.26
2.02985	5.25
2.04652	5.24
2.06318	5.23
2.07985	5.22
2.09652	5.21
2.11318	5.20
2.12985	5.19
2.14652	5.18
2.16318	5.17
2.17985	5.16
2.19652	5.15
2.21318	5.14
2.22985	5.14
2.24652	5.13
2.26318	5.12
2.27985	5.11
2.29652	5.10
2.31318	5.09
2.32985	5.08
2.34652	5.07
2.36318	5.07
2.37985	5.06
2.39652	5.06
2.41318	5.06
2.42985	5.06
2.44652	5.06
2.46318	5.06
2.47985	5.06
2.49652	5.06
2.51318	5.06
2.52985	5.06
2.54652	5.06
2.56318	5.06
2.57985	5.06
2.59652	5.06
2.61318	5.06
2.62985	5.06
2.64652	5.06
2.66318	5.06
2.67985	5.06
2.69652	5.06
2.71318	5.06
2.72985	5.06
2.74652	5.06
2.76318	5.06
2.77985	5.06
2.79652	5.06
2.81318	5.06
2.82985	5.06
2.84652	5.06
2.86318	5.06
2.87985	5.05
2.89652	5.05
2.91318	5.05
2.92985	5.05
2.94652	5.05
2.96318	5.05
2.97985	5.05
2.99652	5.05
3.01318	5.05
3.02985	5.05
3.04652	5.05
3.06318	5.05
3.07985	5.05
3.09652	5.05
3.11318	5.05
3.12985	5.05
3.14652	5.05
3.16318	5.05
3.17985	5.05
3.19652	5.05
3.21318	5.05
3.22985	5.05
3.24652	5.05
3.26318	5.05
3.27985	5.05
3.29652	5.05
3.31318	5.05
3.32985	5.05
3.34652	5.05
3.36318	5.05
3.37985	5.05
3.39652	5.05
3.41318	5.05
3.42985	5.05
3.44652	5.05
3.46318	5.05
3.47985	5.05
3.49652	5.05
3.51318	5.05
3.52985	5.05
3.54652	5.05
3.56318	5.05
3.57985	5.05
3.59652	5.05
3.61318	5.05
3.62985	5.05
3.64652	5.05
3.66318	5.05
3.67985	5.05
3.69652	5.05
3.71318	5.05
3.72985	5.05
3.74652	5.05
3.76318	5.05
3.77985	5.05
3.79652	5.05
3.81318	5.05
3.82985	5.05
3.84652	5.05
3.86318	5.05
3.87985	5.05
3.89652	5.05
3.91318	5.05
3.92985	5.05
3.94652	5.05
3.96318	5.05
3.97985	5.05
3.99652	5.05

[Status Trace (Linear Velocity)]
Interval(msec)	1000
# of Points	240
Start Time(min)	0.013
End Time(min)	3.997
Intensity Units	
Intensity Multiplier	1
R.Time (min)	Intensity
0.01318	38.99
0.02985	37.12
0.04652	38.70
0.06318	40.12
0.07985	39.62
0.09652	39.00
0.11318	39.00
0.12985	39.02
0.14652	39.02
0.16318	39.01
0.17985	39.01
0.19652	39.01
0.21318	39.01
0.22985	39.01
0.24652	39.01
0.26318	39.01
0.27985	39.01
0.29652	39.01
0.31318	39.01
0.32985	39.01
0.34652	39.01
0.36318	39.01
0.37985	39.01
0.39652	39.01
0.41318	39.01
0.42985	39.01
0.44652	39.01
0.46318	39.01
0.47985	39.01
0.49652	39.01
0.51318	39.01
0.52985	39.01
0.54652	39.01
0.56318	39.01
0.57985	39.01
0.59652	39.01
0.61318	39.01
0.62985	39.01
0.64652	39.01
0.66318	39.01
0.67985	39.01
0.69652	39.01
0.71318	39.01
0.72985	39.01
0.74652	39.01
0.76318	39.01
0.77985	39.01
0.79652	39.01
0.81318	39.01
0.82985	39.01
0.84652	39.01
0.86318	39.01
0.87985	39.01
0.89652	39.01
0.91318	39.01
0.92985	39.01
0.94652	39.01
0.96318	39.01
0.97985	39.01
0.99652	39.01
1.01318	39.01
1.02985	39.01
1.04652	39.01
1.06318	39.01
1.07985	39.01
1.09652	39.01
1.11318	39.01
1.12985	39.01
1.14652	39.01
1.16318	39.01
1.17985	39.01
1.19652	39.01
1.21318	39.01
1.22985	39.01
1.24652	39.01
1.26318	39.01
1.27985	39.01
1.29652	39.01
1.31318	39.01
1.32985	39.01
1.34652	39.01
1.36318	39.01
1.37985	39.01
1.39652	39.01
1.41318	39.01
1.42985	39.01
1.44652	39.01
1.46318	39.01
1.47985	39.01
1.49652	39.01
1.51318	39.01
1.52985	39.01
1.54652	39.01
1.56318	39.01
1.57985	39.01
1.59652	39.01
1.61318	39.00
1.62985	38.99
1.64652	38.97
1.66318	38.95
1.67985	38.91
1.69652	38.87
1.71318	38.84
1.72985	38.81
1.74652	38.78
1.76318	38.75
1.77985	38.71
1.79652	38.68
1.81318	38.65
1.82985	38.62
1.84652	38.59
1.86318	38.56
1.87985	38.53
1.89652	38.50
1.91318	38.47
1.92985	38.43
1.94652	38.40
1.96318	38.37
1.97985	38.34
1.99652	38.31
2.01318	38.28
2.02985	38.25
2.04652	38.22
2.06318	38.19
2.07985	38.16
2.09652	38.13
2.11318	38.10
2.12985	38.07
2.14652	38.04
2.16318	38.01
2.17985	37.98
2.19652	37.95
2.21318	37.92
2.22985	37.89
2.24652	37.87
2.26318	37.84
2.27985	37.81
2.29652	37.78
2.31318	37.75
2.32985	37.72
2.34652	37.69
2.36318	37.67
2.37985	37.66
2.39652	37.65
2.41318	37.66
2.42985	37.66
2.44652	37.65
2.46318	37.65
2.47985	37.65
2.49652	37.65
2.51318	37.65
2.52985	37.64
2.54652	37.65
2.56318	37.65
2.57985	37.65
2.59652	37.65
2.61318	37.65
2.62985	37.64
2.64652	37.64
2.66318	37.64
2.67985	37.64
2.69652	37.64
2.71318	37.64
2.72985	37.64
2.74652	37.64
2.76318	37.64
2.77985	37.64
2.79652	37.64
2.81318	37.64
2.82985	37.64
2.84652	37.64
2.86318	37.64
2.87985	37.64
2.89652	37.64
2.91318	37.63
2.92985	37.63
2.94652	37.63
2.96318	37.63
2.97985	37.63
2.99652	37.63
3.01318	37.63
3.02985	37.63
3.04652	37.62
3.06318	37.62
3.07985	37.62
3.09652	37.62
3.11318	37.62
3.12985	37.62
3.14652	37.62
3.16318	37.62
3.17985	37.62
3.19652	37.62
3.21318	37.62
3.22985	37.62
3.24652	37.62
3.26318	37.62
3.27985	37.62
3.29652	37.62
3.31318	37.62
3.32985	37.62
3.34652	37.62
3.36318	37.62
3.37985	37.62
3.39652	37.62
3.41318	37.62
3.42985	37.62
3.44652	37.62
3.46318	37.62
3.47985	37.62
3.49652	37.62
3.51318	37.62
3.52985	37.62
3.54652	37.62
3.56318	37.62
3.57985	37.62
3.59652	37.62
3.61318	37.62
3.62985	37.62
3.64652	37.62
3.66318	37.62
3.67985	37.62
3.69652	37.62
3.71318	37.62
3.72985	37.62
3.74652	37.62
3.76318	37.62
3.77985	37.62
3.79652	37.62
3.81318	37.62
3.82985	37.62
3.84652	37.62
3.86318	37.62
3.87985	37.62
3.89652	37.62
3.91318	37.62
3.92985	37.62
3.94652	37.62
3.96318	37.62
3.97985	37.62
3.99652	37.62

