[Header]
Application Name	LabSolutions
Version	5.110
Data File Name	C:\Users\User\Desktop\GC Analyses\Jack\UIC Prairie Sampling\9.16.22\220916_105.gcd
Output Date	11/29/2022
Output Time	11:10:22 AM

[File Information]
Type	Data File
Generated	11/28/2022 1:59:49 PM
Generated by	System Administrator
Modified	11/28/2022 2:04:07 PM
Modified by	System Administrator

[Sample Information]
Operator Name	System Administrator
Acquired	11/28/2022 2:00:07 PM
Sample Type	1:Standard
Level	1
Sample Name	220916_UICPrairie
Sample ID	220916_UICPrairie
ISTD Amount1	1
ISTD Amount2	1
ISTD Amount3	1
ISTD Amount4	1
ISTD Amount5	1
ISTD Amount6	1
ISTD Amount7	1
ISTD Amount8	1
ISTD Amount9	1
ISTD Amount10	1
ISTD Amount11	1
ISTD Amount12	1
ISTD Amount13	1
ISTD Amount14	1
ISTD Amount15	1
ISTD Amount16	1
ISTD Amount17	1
ISTD Amount18	1
ISTD Amount19	1
ISTD Amount20	1
ISTD Amount21	1
ISTD Amount22	1
ISTD Amount23	1
ISTD Amount24	1
ISTD Amount25	1
ISTD Amount26	1
ISTD Amount27	1
ISTD Amount28	1
ISTD Amount29	1
ISTD Amount30	1
ISTD Amount31	1
ISTD Amount32	1
Sample Amount	1
Dilution Factor	1
Vial#	1
Injection Volume	1
Injection Count	1
Bar Code	

[Original Files]
Data File	C:\Users\User\Desktop\GC Analyses\Jack\UIC Prairie Sampling\9.16.22\220916_105.gcd
Method File	C:\LabSolutions\Data\GHG_4min_2022\ghg3_togas_w_acet_4 min_new_int.gcm
Batch File	
Report Format File	c:\LabSolutions\System\DEFAULT.lsr

[File Description]


[Configuration]
Instrument Name	C0B7VH3-Instrument1
Instrument #	1
Line #	1
# of Detectors	3
Detector ID	DET#1	DET#2	DET#3
Detector Name	FID	PTCD	ECD
# of Channels	1	1	1

[Peak Table(Ch1)]
# of Peaks	3
Peak#	R.Time	I.Time	F.Time	Area	Height	A/H	Conc.	Mark	ID#	Name	k'	Plate #	Plate Ht.	Tailing	Resolution	Sep.Factor	Area Ratio	Height Ratio	Conc. %	Norm Conc.
1	1.479	1.439	1.542	17113	7811	2.191	100.000	   	1	CO	0.000	8766	17.111	1.219	0.000	0.000	0	0	16.667	16.667
2	1.571	1.542	1.641	5840	2876	2.031	100.000	 V 	2	CH4	0.062	10951	13.698	0.000	1.487	0.000	0	0	16.667	16.667
3	2.000	1.952	2.422	1160874	553637	2.097	400.000	   	3	CO2	0.352	17562	8.541	1.323	7.125	5.680	0	0	66.667	66.667

[Peak Table(Ch2)]
# of Peaks	0

[Peak Table(Ch3)]
# of Peaks	5
Peak#	R.Time	I.Time	F.Time	Area	Height	A/H	Conc.	Mark	ID#	Name	k'	Plate #	Plate Ht.	Tailing	Resolution	Sep.Factor	Area Ratio	Height Ratio	Conc. %	Norm Conc.
1	2.458	1.696	2.499	4634	328	14.118	0.000	   			0.000	139	1077.578	0.000	0.000	0.000	0	0	0.000	0.000
2	2.517	2.499	2.546	796	293	2.717	0.000	 V 			0.024	567	264.447	0.000	0.093	0.000	0	0	0.000	0.000
3	2.605	2.546	2.660	1684	320	5.253	0.000	 V 			0.060	1019	147.167	0.000	0.235	2.500	0	0	0.000	0.000
4	2.887	2.660	3.760	29459	5652	5.212	1.000	SV 	1	N2O	0.175	12854	11.669	1.791	1.319	2.925	0	0	50.000	50.000
5	3.261	3.166	3.500	363	41	8.856	1.000	T  	2	SF6	0.327	4395	34.132	1.389	2.505	1.872	0	0	50.000	50.000

[Compound Results(Ch1)]
# of IDs	6
ID#	Name	R.Time	Area	Height	Conc.	Curve	3rd	2nd	1st	Constant	Area Ratio	Height Ratio	Conc. %	Norm Conc.
1	CO	1.479	17113	7811	100.000	Linear	0.000000e+00	0.000000e+00	1.711329e+002	0.000000e+00	0	0	16.667	16.667
2	CH4	1.571	5840	2876	100.000	Linear	0.000000e+00	0.000000e+00	5.839946e+001	0.000000e+00	0	0	16.667	16.667
3	CO2	2.000	1160874	553637	400.000	Linear	0.000000e+00	0.000000e+00	2.902185e+003	0.000000e+00	0	0	66.667	66.667
4	Ethylene	0.000	0	0	0.000	Linear	0.000000e+00	0.000000e+00	0.000000e+00	0.000000e+00	0	0	0.000	0.000
5	Acetylene	0.000	0	0	0.000	Linear	0.000000e+00	0.000000e+00	0.000000e+00	0.000000e+00	0	0	0.000	0.000
6	Ethane	0.000	0	0	0.000	Linear	0.000000e+00	0.000000e+00	0.000000e+00	0.000000e+00	0	0	0.000	0.000

[Compound Results(Ch2)]
# of IDs	5
ID#	Name	R.Time	Area	Height	Conc.	Curve	3rd	2nd	1st	Constant	Area Ratio	Height Ratio	Conc. %	Norm Conc.
1	Hydrogen	0.000	0	0	0.000	Linear	0.000000e+00	0.000000e+00	0.000000e+00	0.000000e+00	0	0	0.000	0.000
2	Oxygen	0.000	0	0	0.000	Linear	0.000000e+00	0.000000e+00	0.000000e+00	0.000000e+00	0	0	0.000	0.000
3	Nitrogen	0.000	0	0	0.000	Linear	0.000000e+00	0.000000e+00	0.000000e+00	0.000000e+00	0	0	0.000	0.000
4	Methane	0.000	0	0	0.000	Linear	0.000000e+00	0.000000e+00	0.000000e+00	0.000000e+00	0	0	0.000	0.000
5	Carbon Monoxide	0.000	0	0	0.000	Linear	0.000000e+00	0.000000e+00	0.000000e+00	0.000000e+00	0	0	0.000	0.000

[Compound Results(Ch3)]
# of IDs	2
ID#	Name	R.Time	Area	Height	Conc.	Curve	3rd	2nd	1st	Constant	Area Ratio	Height Ratio	Conc. %	Norm Conc.
1	N2O	2.887	29459	5652	1.000	Linear	0.000000e+00	0.000000e+00	2.945947e+004	0.000000e+00	0	0	50.000	50.000
2	SF6	3.261	363	41	1.000	Linear	0.000000e+00	0.000000e+00	3.625108e+002	0.000000e+00	0	0	50.000	50.000

[Group Results(Ch1)]
# of Groups	0

[Group Results(Ch2)]
# of Groups	0

[Group Results(Ch3)]
# of Groups	0

[Chromatogram (Ch1)]
Interval(msec)	220
# of Points	1091
Start Time(min)	0.002
End Time(min)	3.998
R.Time (min)	Intensity
0.00167	-17
0.00533	-20
0.00900	-20
0.01267	-16
0.01633	-10
0.02000	-7
0.02367	-6
0.02733	-5
0.03100	-2
0.03467	2
0.03833	5
0.04200	4
0.04567	-1
0.04933	-6
0.05300	-11
0.05667	-14
0.06033	-15
0.06400	-16
0.06767	-13
0.07133	-9
0.07500	-5
0.07867	1
0.08233	6
0.08600	9
0.08967	12
0.09333	16
0.09700	19
0.10067	19
0.10433	15
0.10800	7
0.11167	-0
0.11533	-4
0.11900	-6
0.12267	-8
0.12633	-10
0.13000	-13
0.13367	-18
0.13733	-21
0.14100	-22
0.14467	-22
0.14833	-22
0.15200	-21
0.15567	-22
0.15933	-22
0.16300	-22
0.16667	-19
0.17033	-16
0.17400	-11
0.17767	-7
0.18133	-6
0.18500	-7
0.18867	-12
0.19233	-21
0.19600	-27
0.19967	-29
0.20333	-31
0.20700	-32
0.21067	-30
0.21433	-27
0.21800	-26
0.22167	-25
0.22533	-21
0.22900	-15
0.23267	-8
0.23633	-5
0.24000	-5
0.24367	-8
0.24733	-14
0.25100	-19
0.25467	-22
0.25833	-22
0.26200	-22
0.26567	-23
0.26933	-22
0.27300	-21
0.27667	-19
0.28033	-17
0.28400	-15
0.28767	-14
0.29133	-13
0.29500	-16
0.29867	-20
0.30233	-25
0.30600	-28
0.30967	-29
0.31333	-31
0.31700	-34
0.32067	-38
0.32433	-42
0.32800	-45
0.33167	-43
0.33533	-39
0.33900	-34
0.34267	-27
0.34633	-21
0.35000	-20
0.35367	-22
0.35733	-26
0.36100	-32
0.36467	-37
0.36833	-39
0.37200	-39
0.37567	-38
0.37933	-39
0.38300	-40
0.38667	-39
0.39033	-33
0.39400	-27
0.39767	-23
0.40133	-22
0.40500	-23
0.40867	-25
0.41233	-27
0.41600	-31
0.41967	-36
0.42333	-41
0.42700	-45
0.43067	-48
0.43433	-50
0.43800	-50
0.44167	-46
0.44533	-40
0.44900	-31
0.45267	-21
0.45633	-17
0.46000	-19
0.46367	-24
0.46733	-32
0.47100	-40
0.47467	-48
0.47833	-52
0.48200	-49
0.48567	-42
0.48933	-36
0.49300	-32
0.49667	-29
0.50033	-27
0.50400	-25
0.50767	-25
0.51133	-29
0.51500	-33
0.51867	-33
0.52233	-33
0.52600	-34
0.52967	-35
0.53333	-32
0.53700	-29
0.54067	-31
0.54433	-35
0.54800	-42
0.55167	-47
0.55533	-49
0.55900	-49
0.56267	-48
0.56633	-48
0.57000	-51
0.57367	-53
0.57733	-51
0.58100	-46
0.58467	-39
0.58833	-34
0.59200	-35
0.59567	-39
0.59933	-42
0.60300	-42
0.60667	-41
0.61033	-40
0.61400	-38
0.61767	-39
0.62133	-41
0.62500	-40
0.62867	-39
0.63233	-40
0.63600	-44
0.63967	-49
0.64333	-52
0.64700	-52
0.65067	-50
0.65433	-50
0.65800	-51
0.66167	-53
0.66533	-57
0.66900	-60
0.67267	-59
0.67633	-56
0.68000	-52
0.68367	-45
0.68733	-36
0.69100	-29
0.69467	-27
0.69833	-28
0.70200	-33
0.70567	-38
0.70933	-42
0.71300	-42
0.71667	-42
0.72033	-40
0.72400	-39
0.72767	-40
0.73133	-44
0.73500	-52
0.73867	-59
0.74233	-62
0.74600	-64
0.74967	-64
0.75333	-63
0.75700	-60
0.76067	-56
0.76433	-50
0.76800	-43
0.77167	-37
0.77533	-36
0.77900	-39
0.78267	-41
0.78633	-43
0.79000	-43
0.79367	-43
0.79733	-45
0.80100	-48
0.80467	-53
0.80833	-57
0.81200	-58
0.81567	-61
0.81933	-63
0.82300	-67
0.82667	-70
0.83033	-71
0.83400	-68
0.83767	-63
0.84133	-57
0.84500	-50
0.84867	-44
0.85233	-40
0.85600	-39
0.85967	-40
0.86333	-40
0.86700	-41
0.87067	-44
0.87433	-47
0.87800	-50
0.88167	-52
0.88533	-51
0.88900	-50
0.89267	-50
0.89633	-51
0.90000	-53
0.90367	-54
0.90733	-56
0.91100	-58
0.91467	-59
0.91833	-60
0.92200	-62
0.92567	-65
0.92933	-67
0.93300	-66
0.93667	-64
0.94033	-60
0.94400	-55
0.94767	-52
0.95133	-51
0.95500	-53
0.95867	-56
0.96233	-60
0.96600	-66
0.96967	-69
0.97333	-68
0.97700	-62
0.98067	-56
0.98433	-55
0.98800	-60
0.99167	-69
0.99533	-81
0.99900	-90
1.00267	-91
1.00633	-88
1.01000	-81
1.01367	-76
1.01733	-73
1.02100	-73
1.02467	-78
1.02833	-82
1.03200	-84
1.03567	-83
1.03933	-78
1.04300	-78
1.04667	-83
1.05033	-86
1.05400	-87
1.05767	-86
1.06133	-84
1.06500	-82
1.06867	-79
1.07233	-79
1.07600	-79
1.07967	-77
1.08333	-74
1.08700	-72
1.09067	-70
1.09433	-64
1.09800	-56
1.10167	-54
1.10533	-56
1.10900	-57
1.11267	-58
1.11633	-61
1.12000	-67
1.12367	-73
1.12733	-80
1.13100	-84
1.13467	-85
1.13833	-85
1.14200	-84
1.14567	-82
1.14933	-80
1.15300	-79
1.15667	-80
1.16033	-81
1.16400	-83
1.16767	-83
1.17133	-81
1.17500	-80
1.17867	-79
1.18233	-76
1.18600	-74
1.18967	-73
1.19333	-73
1.19700	-73
1.20067	-73
1.20433	-71
1.20800	-68
1.21167	-62
1.21533	-59
1.21900	-61
1.22267	-68
1.22633	-76
1.23000	-84
1.23367	-91
1.23733	-96
1.24100	-99
1.24467	-103
1.24833	-107
1.25200	-109
1.25567	-109
1.25933	-108
1.26300	-105
1.26667	-98
1.27033	-89
1.27400	-79
1.27767	-74
1.28133	-75
1.28500	-82
1.28867	-90
1.29233	-98
1.29600	-102
1.29967	-100
1.30333	-92
1.30700	-84
1.31067	-79
1.31433	-79
1.31800	-80
1.32167	-81
1.32533	-84
1.32900	-90
1.33267	-96
1.33633	-103
1.34000	-110
1.34367	-114
1.34733	-115
1.35100	-112
1.35467	-108
1.35833	-104
1.36200	-100
1.36567	-99
1.36933	-98
1.37300	-95
1.37667	-91
1.38033	-84
1.38400	-81
1.38767	-82
1.39133	-85
1.39500	-86
1.39867	-91
1.40233	-98
1.40600	-103
1.40967	-105
1.41333	-104
1.41700	-101
1.42067	-98
1.42433	-95
1.42800	-97
1.43167	-104
1.43533	-110
1.43900	-109
1.44267	-73
1.44633	72
1.45000	383
1.45367	913
1.45733	1809
1.46100	3086
1.46467	4507
1.46833	5802
1.47200	6813
1.47567	7468
1.47933	7703
1.48300	7457
1.48667	6750
1.49033	5723
1.49400	4573
1.49767	3483
1.50133	2560
1.50500	1836
1.50867	1295
1.51233	899
1.51600	615
1.51967	415
1.52333	278
1.52700	186
1.53067	124
1.53433	79
1.53800	48
1.54167	45
1.54533	121
1.54900	353
1.55267	771
1.55633	1305
1.56000	1840
1.56367	2290
1.56733	2611
1.57100	2769
1.57467	2729
1.57833	2480
1.58200	2076
1.58567	1611
1.58933	1172
1.59300	809
1.59667	532
1.60033	331
1.60400	190
1.60767	95
1.61133	34
1.61500	-4
1.61867	-28
1.62233	-47
1.62600	-65
1.62967	-80
1.63333	-91
1.63700	-99
1.64067	-106
1.64433	-109
1.64800	-108
1.65167	-108
1.65533	-111
1.65900	-117
1.66267	-120
1.66633	-120
1.67000	-119
1.67367	-117
1.67733	-115
1.68100	-110
1.68467	-105
1.68833	-102
1.69200	-101
1.69567	-106
1.69933	-112
1.70300	-116
1.70667	-115
1.71033	-111
1.71400	-108
1.71767	-109
1.72133	-112
1.72500	-113
1.72867	-113
1.73233	-111
1.73600	-105
1.73967	-100
1.74333	-99
1.74700	-98
1.75067	-98
1.75433	-99
1.75800	-97
1.76167	-93
1.76533	-90
1.76900	-90
1.77267	-94
1.77633	-100
1.78000	-108
1.78367	-116
1.78733	-125
1.79100	-131
1.79467	-132
1.79833	-130
1.80200	-129
1.80567	-127
1.80933	-125
1.81300	-122
1.81667	-116
1.82033	-109
1.82400	-103
1.82767	-100
1.83133	-100
1.83500	-103
1.83867	-107
1.84233	-111
1.84600	-115
1.84967	-117
1.85333	-116
1.85700	-112
1.86067	-109
1.86433	-106
1.86800	-102
1.87167	-97
1.87533	-93
1.87900	-94
1.88267	-97
1.88633	-103
1.89000	-106
1.89367	-107
1.89733	-106
1.90100	-102
1.90467	-97
1.90833	-92
1.91200	-88
1.91567	-88
1.91933	-89
1.92300	-91
1.92667	-92
1.93033	-93
1.93400	-93
1.93767	-94
1.94133	-95
1.94500	-98
1.94867	-98
1.95233	-94
1.95600	-81
1.95967	-1
1.96333	457
1.96700	2579
1.97067	10097
1.97433	30508
1.97800	73606
1.98167	145392
1.98533	241511
1.98900	347343
1.99267	444457
1.99633	516809
2.00000	553574
2.00367	550436
2.00733	509944
2.01100	441627
2.01467	359491
2.01833	277438
2.02200	205209
2.02567	147183
2.02933	103519
2.03300	72133
2.03667	50260
2.04033	35307
2.04400	25187
2.04767	18353
2.05133	13717
2.05500	10535
2.05867	8322
2.06233	6759
2.06600	5630
2.06967	4793
2.07333	4157
2.07700	3659
2.08067	3261
2.08433	2933
2.08800	2661
2.09167	2434
2.09533	2244
2.09900	2082
2.10267	1943
2.10633	1820
2.11000	1708
2.11367	1603
2.11733	1503
2.12100	1414
2.12467	1334
2.12833	1262
2.13200	1199
2.13567	1144
2.13933	1096
2.14300	1051
2.14667	1007
2.15033	964
2.15400	922
2.15767	882
2.16133	847
2.16500	819
2.16867	798
2.17233	779
2.17600	759
2.17967	734
2.18333	704
2.18700	670
2.19067	636
2.19433	606
2.19800	585
2.20167	568
2.20533	553
2.20900	540
2.21267	531
2.21633	524
2.22000	517
2.22367	506
2.22733	494
2.23100	482
2.23467	470
2.23833	461
2.24200	451
2.24567	441
2.24933	429
2.25300	417
2.25667	405
2.26033	395
2.26400	386
2.26767	381
2.27133	376
2.27500	370
2.27867	365
2.28233	364
2.28600	362
2.28967	354
2.29333	344
2.29700	333
2.30067	323
2.30433	314
2.30800	305
2.31167	301
2.31533	299
2.31900	297
2.32267	291
2.32633	285
2.33000	279
2.33367	274
2.33733	273
2.34100	276
2.34467	282
2.34833	289
2.35200	289
2.35567	281
2.35933	271
2.36300	264
2.36667	262
2.37033	259
2.37400	255
2.37767	250
2.38133	244
2.38500	235
2.38867	225
2.39233	216
2.39600	211
2.39967	211
2.40333	213
2.40700	217
2.41067	222
2.41433	225
2.41800	225
2.42167	222
2.42533	217
2.42900	213
2.43267	211
2.43633	213
2.44000	217
2.44367	220
2.44733	221
2.45100	220
2.45467	219
2.45833	218
2.46200	218
2.46567	215
2.46933	211
2.47300	205
2.47667	200
2.48033	194
2.48400	190
2.48767	192
2.49133	194
2.49500	194
2.49867	192
2.50233	190
2.50600	192
2.50967	195
2.51333	196
2.51700	194
2.52067	191
2.52433	188
2.52800	184
2.53167	179
2.53533	175
2.53900	172
2.54267	168
2.54633	165
2.55000	163
2.55367	164
2.55733	165
2.56100	163
2.56467	160
2.56833	156
2.57200	152
2.57567	149
2.57933	146
2.58300	142
2.58667	140
2.59033	142
2.59400	146
2.59767	150
2.60133	149
2.60500	142
2.60867	131
2.61233	123
2.61600	119
2.61967	119
2.62333	120
2.62700	122
2.63067	121
2.63433	120
2.63800	121
2.64167	124
2.64533	127
2.64900	129
2.65267	131
2.65633	133
2.66000	132
2.66367	131
2.66733	130
2.67100	129
2.67467	124
2.67833	115
2.68200	105
2.68567	98
2.68933	96
2.69300	98
2.69667	104
2.70033	111
2.70400	118
2.70767	123
2.71133	122
2.71500	117
2.71867	113
2.72233	113
2.72600	115
2.72967	116
2.73333	112
2.73700	108
2.74067	107
2.74433	108
2.74800	111
2.75167	113
2.75533	112
2.75900	107
2.76267	100
2.76633	93
2.77000	90
2.77367	91
2.77733	96
2.78100	101
2.78467	107
2.78833	110
2.79200	110
2.79567	108
2.79933	107
2.80300	107
2.80667	104
2.81033	101
2.81400	99
2.81767	97
2.82133	94
2.82500	89
2.82867	88
2.83233	92
2.83600	98
2.83967	102
2.84333	108
2.84700	112
2.85067	111
2.85433	110
2.85800	112
2.86167	114
2.86533	116
2.86900	113
2.87267	107
2.87633	101
2.88000	98
2.88367	97
2.88733	99
2.89100	101
2.89467	101
2.89833	98
2.90200	93
2.90567	88
2.90933	89
2.91300	93
2.91667	96
2.92033	94
2.92400	92
2.92767	91
2.93133	91
2.93500	90
2.93867	90
2.94233	91
2.94600	91
2.94967	90
2.95333	87
2.95700	85
2.96067	89
2.96433	91
2.96800	91
2.97167	88
2.97533	87
2.97900	86
2.98267	82
2.98633	80
2.99000	85
2.99367	95
2.99733	103
3.00100	106
3.00467	106
3.00833	107
3.01200	109
3.01567	107
3.01933	100
3.02300	89
3.02667	80
3.03033	74
3.03400	74
3.03767	75
3.04133	77
3.04500	78
3.04867	82
3.05233	87
3.05600	93
3.05967	96
3.06333	92
3.06700	87
3.07067	80
3.07433	73
3.07800	70
3.08167	74
3.08533	79
3.08900	81
3.09267	80
3.09633	78
3.10000	75
3.10367	72
3.10733	69
3.11100	67
3.11467	67
3.11833	67
3.12200	71
3.12567	75
3.12933	75
3.13300	75
3.13667	76
3.14033	74
3.14400	70
3.14767	67
3.15133	66
3.15500	66
3.15867	67
3.16233	65
3.16600	63
3.16967	62
3.17333	63
3.17700	60
3.18067	56
3.18433	55
3.18800	56
3.19167	57
3.19533	57
3.19900	58
3.20267	59
3.20633	60
3.21000	57
3.21367	55
3.21733	57
3.22100	63
3.22467	67
3.22833	67
3.23200	64
3.23567	62
3.23933	64
3.24300	64
3.24667	64
3.25033	61
3.25400	54
3.25767	46
3.26133	41
3.26500	41
3.26867	47
3.27233	53
3.27600	56
3.27967	57
3.28333	55
3.28700	49
3.29067	45
3.29433	44
3.29800	41
3.30167	40
3.30533	43
3.30900	49
3.31267	57
3.31633	65
3.32000	67
3.32367	61
3.32733	51
3.33100	41
3.33467	36
3.33833	34
3.34200	34
3.34567	35
3.34933	38
3.35300	45
3.35667	51
3.36033	52
3.36400	50
3.36767	48
3.37133	48
3.37500	44
3.37867	37
3.38233	32
3.38600	31
3.38967	34
3.39333	40
3.39700	46
3.40067	49
3.40433	50
3.40800	49
3.41167	47
3.41533	44
3.41900	39
3.42267	32
3.42633	27
3.43000	25
3.43367	28
3.43733	29
3.44100	31
3.44467	30
3.44833	29
3.45200	31
3.45567	33
3.45933	34
3.46300	36
3.46667	39
3.47033	40
3.47400	39
3.47767	37
3.48133	33
3.48500	28
3.48867	25
3.49233	25
3.49600	31
3.49967	40
3.50333	48
3.50700	51
3.51067	50
3.51433	49
3.51800	47
3.52167	42
3.52533	39
3.52900	36
3.53267	35
3.53633	34
3.54000	33
3.54367	34
3.54733	39
3.55100	42
3.55467	42
3.55833	41
3.56200	43
3.56567	48
3.56933	51
3.57300	47
3.57667	39
3.58033	33
3.58400	31
3.58767	30
3.59133	29
3.59500	29
3.59867	30
3.60233	30
3.60600	34
3.60967	39
3.61333	40
3.61700	38
3.62067	37
3.62433	39
3.62800	40
3.63167	36
3.63533	31
3.63900	27
3.64267	26
3.64633	25
3.65000	22
3.65367	17
3.65733	12
3.66100	12
3.66467	14
3.66833	14
3.67200	12
3.67567	7
3.67933	4
3.68300	8
3.68667	16
3.69033	21
3.69400	20
3.69767	17
3.70133	13
3.70500	11
3.70867	10
3.71233	14
3.71600	20
3.71967	27
3.72333	31
3.72700	35
3.73067	37
3.73433	36
3.73800	31
3.74167	26
3.74533	25
3.74900	27
3.75267	29
3.75633	25
3.76000	21
3.76367	18
3.76733	16
3.77100	13
3.77467	9
3.77833	6
3.78200	5
3.78567	8
3.78933	11
3.79300	11
3.79667	9
3.80033	9
3.80400	11
3.80767	15
3.81133	21
3.81500	27
3.81867	29
3.82233	28
3.82600	27
3.82967	30
3.83333	30
3.83700	27
3.84067	20
3.84433	15
3.84800	13
3.85167	12
3.85533	11
3.85900	13
3.86267	15
3.86633	16
3.87000	17
3.87367	17
3.87733	14
3.88100	14
3.88467	15
3.88833	11
3.89200	7
3.89567	7
3.89933	11
3.90300	18
3.90667	21
3.91033	19
3.91400	16
3.91767	15
3.92133	17
3.92500	22
3.92867	24
3.93233	25
3.93600	25
3.93967	24
3.94333	18
3.94700	12
3.95067	8
3.95433	9
3.95800	12
3.96167	14
3.96533	14
3.96900	10
3.97267	3
3.97633	1
3.98000	2
3.98367	6
3.98733	6
3.99100	4
3.99467	4
3.99833	8

[Chromatogram (Ch2)]
Interval(msec)	220
# of Points	1091
Start Time(min)	0.002
End Time(min)	3.998
R.Time (min)	Intensity
0.00167	0
0.00533	-0
0.00900	-0
0.01267	-1
0.01633	-1
0.02000	-1
0.02367	-1
0.02733	-1
0.03100	-1
0.03467	-1
0.03833	-1
0.04200	-0
0.04567	0
0.04933	0
0.05300	0
0.05667	0
0.06033	0
0.06400	0
0.06767	0
0.07133	0
0.07500	0
0.07867	0
0.08233	1
0.08600	1
0.08967	1
0.09333	1
0.09700	1
0.10067	2
0.10433	2
0.10800	2
0.11167	2
0.11533	2
0.11900	2
0.12267	2
0.12633	2
0.13000	2
0.13367	2
0.13733	2
0.14100	2
0.14467	2
0.14833	2
0.15200	2
0.15567	1
0.15933	1
0.16300	1
0.16667	1
0.17033	1
0.17400	1
0.17767	1
0.18133	0
0.18500	0
0.18867	0
0.19233	-0
0.19600	-0
0.19967	-0
0.20333	-1
0.20700	-1
0.21067	-1
0.21433	-1
0.21800	-1
0.22167	-1
0.22533	-1
0.22900	-1
0.23267	-1
0.23633	-1
0.24000	-1
0.24367	-1
0.24733	-1
0.25100	-1
0.25467	-1
0.25833	-1
0.26200	-1
0.26567	-1
0.26933	-1
0.27300	-1
0.27667	-1
0.28033	-1
0.28400	-1
0.28767	-1
0.29133	-1
0.29500	-1
0.29867	-1
0.30233	-1
0.30600	-2
0.30967	-2
0.31333	-2
0.31700	-2
0.32067	-2
0.32433	-2
0.32800	-2
0.33167	-2
0.33533	-2
0.33900	-2
0.34267	-2
0.34633	-2
0.35000	-2
0.35367	-2
0.35733	-2
0.36100	-2
0.36467	-2
0.36833	-1
0.37200	-1
0.37567	-1
0.37933	-1
0.38300	-1
0.38667	-1
0.39033	-1
0.39400	-1
0.39767	-1
0.40133	-1
0.40500	-0
0.40867	-0
0.41233	-0
0.41600	0
0.41967	0
0.42333	0
0.42700	0
0.43067	0
0.43433	0
0.43800	0
0.44167	0
0.44533	0
0.44900	0
0.45267	0
0.45633	0
0.46000	0
0.46367	0
0.46733	0
0.47100	0
0.47467	-0
0.47833	-0
0.48200	-1
0.48567	-1
0.48933	-1
0.49300	-1
0.49667	-1
0.50033	-1
0.50400	-1
0.50767	-1
0.51133	-1
0.51500	-0
0.51867	-0
0.52233	-0
0.52600	-0
0.52967	-0
0.53333	-0
0.53700	0
0.54067	0
0.54433	1
0.54800	1
0.55167	0
0.55533	0
0.55900	0
0.56267	0
0.56633	0
0.57000	0
0.57367	0
0.57733	-0
0.58100	-0
0.58467	-1
0.58833	-1
0.59200	-1
0.59567	-2
0.59933	-2
0.60300	-2
0.60667	-3
0.61033	-3
0.61400	-3
0.61767	-3
0.62133	-3
0.62500	-3
0.62867	-3
0.63233	-2
0.63600	-2
0.63967	-2
0.64333	-2
0.64700	-2
0.65067	-1
0.65433	-1
0.65800	-1
0.66167	-1
0.66533	-1
0.66900	-1
0.67267	-1
0.67633	-1
0.68000	-1
0.68367	-1
0.68733	-1
0.69100	-1
0.69467	-1
0.69833	-1
0.70200	-1
0.70567	-1
0.70933	-1
0.71300	-1
0.71667	-1
0.72033	-1
0.72400	-1
0.72767	-1
0.73133	-1
0.73500	-1
0.73867	-0
0.74233	-0
0.74600	-0
0.74967	-0
0.75333	-0
0.75700	-0
0.76067	-0
0.76433	-0
0.76800	-0
0.77167	0
0.77533	0
0.77900	0
0.78267	0
0.78633	0
0.79000	0
0.79367	0
0.79733	0
0.80100	0
0.80467	0
0.80833	0
0.81200	0
0.81567	0
0.81933	0
0.82300	-0
0.82667	-0
0.83033	-0
0.83400	-1
0.83767	-1
0.84133	-1
0.84500	-1
0.84867	-0
0.85233	-0
0.85600	-0
0.85967	-0
0.86333	0
0.86700	0
0.87067	0
0.87433	0
0.87800	0
0.88167	-0
0.88533	-0
0.88900	-1
0.89267	-1
0.89633	-1
0.90000	-1
0.90367	-1
0.90733	-1
0.91100	-1
0.91467	-1
0.91833	-1
0.92200	-1
0.92567	-1
0.92933	-1
0.93300	-1
0.93667	-1
0.94033	-1
0.94400	-1
0.94767	-1
0.95133	-1
0.95500	-1
0.95867	-1
0.96233	-1
0.96600	-1
0.96967	-1
0.97333	-1
0.97700	-1
0.98067	-1
0.98433	-1
0.98800	-1
0.99167	-1
0.99533	-1
0.99900	-1
1.00267	-2
1.00633	-2
1.01000	-2
1.01367	-2
1.01733	-2
1.02100	-2
1.02467	-2
1.02833	-1
1.03200	-1
1.03567	-1
1.03933	-1
1.04300	-0
1.04667	-0
1.05033	-0
1.05400	-0
1.05767	-0
1.06133	-0
1.06500	-0
1.06867	-0
1.07233	-0
1.07600	-0
1.07967	-0
1.08333	0
1.08700	0
1.09067	0
1.09433	0
1.09800	-0
1.10167	-0
1.10533	-1
1.10900	-1
1.11267	-1
1.11633	-2
1.12000	-2
1.12367	-2
1.12733	-2
1.13100	-2
1.13467	-2
1.13833	-3
1.14200	-2
1.14567	-2
1.14933	-2
1.15300	-2
1.15667	-2
1.16033	-1
1.16400	-1
1.16767	-1
1.17133	-1
1.17500	-1
1.17867	-1
1.18233	-1
1.18600	-1
1.18967	-1
1.19333	-1
1.19700	-1
1.20067	-1
1.20433	-0
1.20800	-0
1.21167	-0
1.21533	-0
1.21900	-0
1.22267	-0
1.22633	-1
1.23000	-1
1.23367	-1
1.23733	-1
1.24100	-1
1.24467	-1
1.24833	-1
1.25200	-1
1.25567	-1
1.25933	-1
1.26300	-1
1.26667	-1
1.27033	-1
1.27400	-2
1.27767	-2
1.28133	-2
1.28500	-2
1.28867	-2
1.29233	-2
1.29600	-2
1.29967	-2
1.30333	-2
1.30700	-2
1.31067	-2
1.31433	-1
1.31800	-1
1.32167	-1
1.32533	-1
1.32900	-0
1.33267	-0
1.33633	-0
1.34000	-0
1.34367	-0
1.34733	-0
1.35100	-0
1.35467	-0
1.35833	-0
1.36200	-0
1.36567	-0
1.36933	-0
1.37300	-0
1.37667	-0
1.38033	-0
1.38400	-0
1.38767	-0
1.39133	0
1.39500	-0
1.39867	-0
1.40233	-0
1.40600	-0
1.40967	-0
1.41333	-1
1.41700	-1
1.42067	-1
1.42433	-1
1.42800	-1
1.43167	-2
1.43533	-2
1.43900	-2
1.44267	-2
1.44633	-3
1.45000	-3
1.45367	-3
1.45733	-3
1.46100	-3
1.46467	-3
1.46833	-3
1.47200	-3
1.47567	-2
1.47933	-2
1.48300	-3
1.48667	-3
1.49033	-3
1.49400	-3
1.49767	-3
1.50133	-3
1.50500	-3
1.50867	-3
1.51233	-3
1.51600	-3
1.51967	-3
1.52333	-3
1.52700	-3
1.53067	-3
1.53433	-2
1.53800	-2
1.54167	-2
1.54533	-2
1.54900	-2
1.55267	-2
1.55633	-2
1.56000	-2
1.56367	-2
1.56733	-2
1.57100	-2
1.57467	-2
1.57833	-2
1.58200	-2
1.58567	-3
1.58933	-3
1.59300	-3
1.59667	-3
1.60033	-4
1.60400	-5
1.60767	-6
1.61133	-8
1.61500	-9
1.61867	-12
1.62233	-14
1.62600	-17
1.62967	-20
1.63333	-24
1.63700	-27
1.64067	-30
1.64433	-34
1.64800	-37
1.65167	-41
1.65533	-44
1.65900	-48
1.66267	-52
1.66633	-56
1.67000	-60
1.67367	-64
1.67733	-69
1.68100	-74
1.68467	-79
1.68833	-84
1.69200	-89
1.69567	-92
1.69933	-96
1.70300	-99
1.70667	-101
1.71033	-103
1.71400	-104
1.71767	-106
1.72133	-107
1.72500	-108
1.72867	-109
1.73233	-110
1.73600	-111
1.73967	-111
1.74333	-112
1.74700	-112
1.75067	-112
1.75433	-112
1.75800	-111
1.76167	-111
1.76533	-111
1.76900	-111
1.77267	-111
1.77633	-111
1.78000	-112
1.78367	-113
1.78733	-114
1.79100	-114
1.79467	-115
1.79833	-116
1.80200	-117
1.80567	-117
1.80933	-118
1.81300	-118
1.81667	-119
1.82033	-119
1.82400	-119
1.82767	-120
1.83133	-120
1.83500	-119
1.83867	-119
1.84233	-119
1.84600	-119
1.84967	-119
1.85333	-119
1.85700	-119
1.86067	-120
1.86433	-120
1.86800	-120
1.87167	-121
1.87533	-121
1.87900	-121
1.88267	-120
1.88633	-120
1.89000	-119
1.89367	-119
1.89733	-118
1.90100	-117
1.90467	-117
1.90833	-116
1.91200	-115
1.91567	-115
1.91933	-115
1.92300	-115
1.92667	-116
1.93033	-116
1.93400	-116
1.93767	-116
1.94133	-116
1.94500	-116
1.94867	-115
1.95233	-115
1.95600	-115
1.95967	-114
1.96333	-114
1.96700	-113
1.97067	-112
1.97433	-112
1.97800	-112
1.98167	-112
1.98533	-112
1.98900	-111
1.99267	-111
1.99633	-111
2.00000	-110
2.00367	-110
2.00733	-110
2.01100	-110
2.01467	-110
2.01833	-111
2.02200	-111
2.02567	-110
2.02933	-110
2.03300	-110
2.03667	-110
2.04033	-110
2.04400	-110
2.04767	-110
2.05133	-109
2.05500	-109
2.05867	-108
2.06233	-107
2.06600	-107
2.06967	-106
2.07333	-105
2.07700	-105
2.08067	-104
2.08433	-104
2.08800	-103
2.09167	-103
2.09533	-103
2.09900	-103
2.10267	-103
2.10633	-103
2.11000	-103
2.11367	-103
2.11733	-103
2.12100	-103
2.12467	-103
2.12833	-103
2.13200	-103
2.13567	-103
2.13933	-102
2.14300	-101
2.14667	-101
2.15033	-100
2.15400	-98
2.15767	-98
2.16133	-97
2.16500	-97
2.16867	-96
2.17233	-96
2.17600	-96
2.17967	-96
2.18333	-96
2.18700	-97
2.19067	-98
2.19433	-98
2.19800	-98
2.20167	-98
2.20533	-98
2.20900	-97
2.21267	-96
2.21633	-95
2.22000	-95
2.22367	-94
2.22733	-95
2.23100	-95
2.23467	-95
2.23833	-96
2.24200	-96
2.24567	-96
2.24933	-96
2.25300	-95
2.25667	-94
2.26033	-93
2.26400	-91
2.26767	-90
2.27133	-89
2.27500	-88
2.27867	-87
2.28233	-88
2.28600	-88
2.28967	-89
2.29333	-89
2.29700	-89
2.30067	-89
2.30433	-89
2.30800	-88
2.31167	-87
2.31533	-86
2.31900	-86
2.32267	-85
2.32633	-85
2.33000	-84
2.33367	-83
2.33733	-83
2.34100	-83
2.34467	-82
2.34833	-82
2.35200	-82
2.35567	-82
2.35933	-82
2.36300	-82
2.36667	-81
2.37033	-80
2.37400	-78
2.37767	-76
2.38133	-73
2.38500	-70
2.38867	-67
2.39233	-63
2.39600	-58
2.39967	-54
2.40333	-49
2.40700	-45
2.41067	-40
2.41433	-36
2.41800	-32
2.42167	-29
2.42533	-26
2.42900	-23
2.43267	-20
2.43633	-18
2.44000	-15
2.44367	-13
2.44733	-11
2.45100	-9
2.45467	-7
2.45833	-5
2.46200	-3
2.46567	-2
2.46933	-1
2.47300	0
2.47667	1
2.48033	2
2.48400	2
2.48767	3
2.49133	4
2.49500	5
2.49867	6
2.50233	7
2.50600	8
2.50967	9
2.51333	9
2.51700	10
2.52067	11
2.52433	12
2.52800	12
2.53167	12
2.53533	12
2.53900	12
2.54267	12
2.54633	12
2.55000	12
2.55367	13
2.55733	13
2.56100	14
2.56467	15
2.56833	15
2.57200	15
2.57567	16
2.57933	16
2.58300	16
2.58667	16
2.59033	16
2.59400	16
2.59767	16
2.60133	16
2.60500	16
2.60867	16
2.61233	17
2.61600	17
2.61967	17
2.62333	18
2.62700	18
2.63067	19
2.63433	19
2.63800	20
2.64167	20
2.64533	20
2.64900	20
2.65267	20
2.65633	20
2.66000	20
2.66367	20
2.66733	21
2.67100	21
2.67467	22
2.67833	23
2.68200	24
2.68567	24
2.68933	24
2.69300	24
2.69667	24
2.70033	24
2.70400	24
2.70767	23
2.71133	23
2.71500	23
2.71867	24
2.72233	24
2.72600	24
2.72967	24
2.73333	24
2.73700	24
2.74067	25
2.74433	25
2.74800	25
2.75167	26
2.75533	26
2.75900	26
2.76267	27
2.76633	27
2.77000	27
2.77367	27
2.77733	27
2.78100	27
2.78467	26
2.78833	26
2.79200	25
2.79567	24
2.79933	24
2.80300	24
2.80667	23
2.81033	23
2.81400	23
2.81767	23
2.82133	24
2.82500	24
2.82867	24
2.83233	24
2.83600	25
2.83967	25
2.84333	25
2.84700	25
2.85067	25
2.85433	24
2.85800	23
2.86167	19
2.86533	14
2.86900	7
2.87267	-4
2.87633	-18
2.88000	-36
2.88367	-57
2.88733	-83
2.89100	-113
2.89467	-146
2.89833	-183
2.90200	-223
2.90567	-266
2.90933	-311
2.91300	-359
2.91667	-408
2.92033	-459
2.92400	-510
2.92767	-561
2.93133	-613
2.93500	-665
2.93867	-717
2.94233	-768
2.94600	-819
2.94967	-872
2.95333	-930
2.95700	-993
2.96067	-1053
2.96433	-1100
2.96800	-1124
2.97167	-1121
2.97533	-1093
2.97900	-1042
2.98267	-976
2.98633	-900
2.99000	-818
2.99367	-736
2.99733	-656
3.00100	-579
3.00467	-508
3.00833	-443
3.01200	-384
3.01567	-331
3.01933	-284
3.02300	-243
3.02667	-207
3.03033	-175
3.03400	-148
3.03767	-124
3.04133	-104
3.04500	-87
3.04867	-72
3.05233	-59
3.05600	-48
3.05967	-39
3.06333	-31
3.06700	-24
3.07067	-19
3.07433	-14
3.07800	-9
3.08167	-6
3.08533	-3
3.08900	-0
3.09267	2
3.09633	4
3.10000	5
3.10367	7
3.10733	8
3.11100	9
3.11467	10
3.11833	11
3.12200	12
3.12567	13
3.12933	13
3.13300	14
3.13667	14
3.14033	15
3.14400	16
3.14767	16
3.15133	17
3.15500	17
3.15867	17
3.16233	18
3.16600	18
3.16967	18
3.17333	19
3.17700	19
3.18067	19
3.18433	19
3.18800	19
3.19167	20
3.19533	20
3.19900	20
3.20267	21
3.20633	21
3.21000	21
3.21367	21
3.21733	22
3.22100	22
3.22467	22
3.22833	22
3.23200	22
3.23567	22
3.23933	22
3.24300	22
3.24667	22
3.25033	22
3.25400	22
3.25767	22
3.26133	23
3.26500	23
3.26867	23
3.27233	23
3.27600	23
3.27967	23
3.28333	23
3.28700	23
3.29067	23
3.29433	24
3.29800	24
3.30167	24
3.30533	25
3.30900	25
3.31267	25
3.31633	25
3.32000	25
3.32367	26
3.32733	26
3.33100	26
3.33467	26
3.33833	27
3.34200	27
3.34567	27
3.34933	27
3.35300	27
3.35667	27
3.36033	27
3.36400	28
3.36767	28
3.37133	28
3.37500	29
3.37867	29
3.38233	29
3.38600	30
3.38967	30
3.39333	30
3.39700	30
3.40067	31
3.40433	31
3.40800	31
3.41167	31
3.41533	30
3.41900	30
3.42267	30
3.42633	30
3.43000	30
3.43367	30
3.43733	30
3.44100	30
3.44467	30
3.44833	30
3.45200	30
3.45567	30
3.45933	30
3.46300	30
3.46667	30
3.47033	29
3.47400	29
3.47767	29
3.48133	29
3.48500	29
3.48867	28
3.49233	28
3.49600	28
3.49967	28
3.50333	28
3.50700	28
3.51067	28
3.51433	28
3.51800	28
3.52167	28
3.52533	28
3.52900	28
3.53267	28
3.53633	28
3.54000	29
3.54367	29
3.54733	29
3.55100	29
3.55467	29
3.55833	29
3.56200	29
3.56567	29
3.56933	29
3.57300	29
3.57667	29
3.58033	29
3.58400	28
3.58767	28
3.59133	28
3.59500	28
3.59867	28
3.60233	28
3.60600	28
3.60967	27
3.61333	27
3.61700	27
3.62067	27
3.62433	27
3.62800	27
3.63167	27
3.63533	27
3.63900	27
3.64267	27
3.64633	27
3.65000	27
3.65367	27
3.65733	27
3.66100	27
3.66467	27
3.66833	27
3.67200	27
3.67567	27
3.67933	27
3.68300	27
3.68667	27
3.69033	27
3.69400	27
3.69767	27
3.70133	27
3.70500	27
3.70867	27
3.71233	28
3.71600	28
3.71967	28
3.72333	28
3.72700	28
3.73067	28
3.73433	27
3.73800	27
3.74167	27
3.74533	27
3.74900	27
3.75267	27
3.75633	27
3.76000	27
3.76367	28
3.76733	28
3.77100	28
3.77467	28
3.77833	28
3.78200	28
3.78567	28
3.78933	29
3.79300	29
3.79667	29
3.80033	29
3.80400	29
3.80767	29
3.81133	29
3.81500	29
3.81867	29
3.82233	28
3.82600	28
3.82967	28
3.83333	28
3.83700	28
3.84067	28
3.84433	28
3.84800	28
3.85167	28
3.85533	28
3.85900	28
3.86267	28
3.86633	28
3.87000	28
3.87367	28
3.87733	28
3.88100	28
3.88467	28
3.88833	28
3.89200	28
3.89567	28
3.89933	28
3.90300	28
3.90667	28
3.91033	28
3.91400	28
3.91767	28
3.92133	28
3.92500	28
3.92867	28
3.93233	28
3.93600	28
3.93967	28
3.94333	28
3.94700	28
3.95067	28
3.95433	28
3.95800	28
3.96167	28
3.96533	28
3.96900	28
3.97267	28
3.97633	28
3.98000	28
3.98367	28
3.98733	28
3.99100	28
3.99467	27
3.99833	27

[Chromatogram (Ch3)]
Interval(msec)	220
# of Points	1091
Start Time(min)	0.002
End Time(min)	3.998
R.Time (min)	Intensity
0.00167	1
0.00533	2
0.00900	-1
0.01267	-3
0.01633	-2
0.02000	-1
0.02367	-1
0.02733	-3
0.03100	-4
0.03467	-4
0.03833	-3
0.04200	-2
0.04567	-0
0.04933	2
0.05300	3
0.05667	1
0.06033	1
0.06400	3
0.06767	3
0.07133	3
0.07500	3
0.07867	2
0.08233	3
0.08600	2
0.08967	0
0.09333	1
0.09700	1
0.10067	2
0.10433	3
0.10800	3
0.11167	3
0.11533	3
0.11900	1
0.12267	3
0.12633	5
0.13000	6
0.13367	5
0.13733	2
0.14100	-1
0.14467	-4
0.14833	-5
0.15200	-5
0.15567	-4
0.15933	-3
0.16300	-1
0.16667	0
0.17033	3
0.17400	1
0.17767	-1
0.18133	-2
0.18500	-1
0.18867	-2
0.19233	-4
0.19600	-5
0.19967	-7
0.20333	-7
0.20700	-5
0.21067	0
0.21433	1
0.21800	2
0.22167	0
0.22533	-0
0.22900	0
0.23267	-1
0.23633	-3
0.24000	-5
0.24367	-7
0.24733	-6
0.25100	-4
0.25467	-2
0.25833	-2
0.26200	-1
0.26567	-1
0.26933	-1
0.27300	-1
0.27667	-3
0.28033	-5
0.28400	-5
0.28767	-3
0.29133	-2
0.29500	-1
0.29867	-2
0.30233	-2
0.30600	-2
0.30967	-5
0.31333	-4
0.31700	-3
0.32067	-3
0.32433	-5
0.32800	-7
0.33167	-7
0.33533	-7
0.33900	-6
0.34267	-4
0.34633	-4
0.35000	-3
0.35367	-1
0.35733	-1
0.36100	-3
0.36467	-4
0.36833	-4
0.37200	-5
0.37567	-7
0.37933	-7
0.38300	-4
0.38667	-2
0.39033	-0
0.39400	0
0.39767	-1
0.40133	-5
0.40500	-8
0.40867	-10
0.41233	-11
0.41600	-12
0.41967	-15
0.42333	-15
0.42700	-14
0.43067	-13
0.43433	-8
0.43800	-5
0.44167	-4
0.44533	-5
0.44900	-7
0.45267	-6
0.45633	-4
0.46000	-3
0.46367	-4
0.46733	-5
0.47100	-3
0.47467	-2
0.47833	-4
0.48200	-4
0.48567	-7
0.48933	-5
0.49300	-2
0.49667	-4
0.50033	-8
0.50400	-12
0.50767	-13
0.51133	-10
0.51500	-9
0.51867	-9
0.52233	-11
0.52600	-11
0.52967	-9
0.53333	-7
0.53700	-6
0.54067	-5
0.54433	-8
0.54800	-10
0.55167	-10
0.55533	-9
0.55900	-9
0.56267	-9
0.56633	-8
0.57000	-9
0.57367	-10
0.57733	-12
0.58100	-12
0.58467	-8
0.58833	-6
0.59200	-7
0.59567	-12
0.59933	-11
0.60300	-9
0.60667	-8
0.61033	-8
0.61400	-7
0.61767	-5
0.62133	-4
0.62500	-5
0.62867	-6
0.63233	-5
0.63600	-2
0.63967	-0
0.64333	-3
0.64700	-7
0.65067	-9
0.65433	-9
0.65800	-7
0.66167	-6
0.66533	-6
0.66900	-7
0.67267	-5
0.67633	-5
0.68000	-6
0.68367	-6
0.68733	-5
0.69100	-3
0.69467	-1
0.69833	-1
0.70200	-2
0.70567	-4
0.70933	-5
0.71300	-5
0.71667	-4
0.72033	-3
0.72400	-5
0.72767	-9
0.73133	-11
0.73500	-11
0.73867	-11
0.74233	-10
0.74600	-9
0.74967	-8
0.75333	-8
0.75700	-11
0.76067	-12
0.76433	-13
0.76800	-14
0.77167	-12
0.77533	-10
0.77900	-8
0.78267	-6
0.78633	-7
0.79000	-9
0.79367	-10
0.79733	-10
0.80100	-11
0.80467	-9
0.80833	-8
0.81200	-10
0.81567	-10
0.81933	-10
0.82300	-11
0.82667	-12
0.83033	-12
0.83400	-12
0.83767	-10
0.84133	-10
0.84500	-12
0.84867	-14
0.85233	-16
0.85600	-16
0.85967	-13
0.86333	-13
0.86700	-13
0.87067	-13
0.87433	-14
0.87800	-13
0.88167	-14
0.88533	-14
0.88900	-14
0.89267	-15
0.89633	-16
0.90000	-17
0.90367	-17
0.90733	-16
0.91100	-16
0.91467	-14
0.91833	-12
0.92200	-11
0.92567	-10
0.92933	-10
0.93300	-14
0.93667	-17
0.94033	-19
0.94400	-19
0.94767	-18
0.95133	-15
0.95500	-13
0.95867	-12
0.96233	-10
0.96600	-9
0.96967	-10
0.97333	-11
0.97700	-10
0.98067	-7
0.98433	-8
0.98800	-9
0.99167	-7
0.99533	-5
0.99900	-6
1.00267	-5
1.00633	-5
1.01000	-7
1.01367	-7
1.01733	-6
1.02100	-8
1.02467	-10
1.02833	-13
1.03200	-13
1.03567	-14
1.03933	-14
1.04300	-14
1.04667	-12
1.05033	-10
1.05400	-12
1.05767	-12
1.06133	-12
1.06500	-11
1.06867	-11
1.07233	-10
1.07600	-8
1.07967	-7
1.08333	-7
1.08700	-5
1.09067	-6
1.09433	-9
1.09800	-13
1.10167	-14
1.10533	-14
1.10900	-15
1.11267	-13
1.11633	-13
1.12000	-12
1.12367	-10
1.12733	-10
1.13100	-9
1.13467	-12
1.13833	-13
1.14200	-15
1.14567	-15
1.14933	-12
1.15300	-9
1.15667	-10
1.16033	-11
1.16400	-12
1.16767	-14
1.17133	-16
1.17500	-15
1.17867	-13
1.18233	-12
1.18600	-12
1.18967	-12
1.19333	-13
1.19700	-13
1.20067	-14
1.20433	-16
1.20800	-16
1.21167	-17
1.21533	-15
1.21900	-14
1.22267	-13
1.22633	-10
1.23000	-8
1.23367	-9
1.23733	-10
1.24100	-10
1.24467	-10
1.24833	-10
1.25200	-8
1.25567	-9
1.25933	-9
1.26300	-9
1.26667	-8
1.27033	-8
1.27400	-10
1.27767	-12
1.28133	-15
1.28500	-16
1.28867	-16
1.29233	-13
1.29600	-11
1.29967	-10
1.30333	-10
1.30700	-11
1.31067	-10
1.31433	-9
1.31800	-10
1.32167	-9
1.32533	-10
1.32900	-11
1.33267	-11
1.33633	-10
1.34000	-10
1.34367	-10
1.34733	-10
1.35100	-11
1.35467	-11
1.35833	-10
1.36200	-10
1.36567	-11
1.36933	-12
1.37300	-9
1.37667	-6
1.38033	-5
1.38400	-5
1.38767	-5
1.39133	-5
1.39500	-3
1.39867	-2
1.40233	-4
1.40600	-5
1.40967	-6
1.41333	-5
1.41700	-5
1.42067	-7
1.42433	-8
1.42800	-11
1.43167	-12
1.43533	-12
1.43900	-11
1.44267	-11
1.44633	-13
1.45000	-13
1.45367	-13
1.45733	-12
1.46100	-10
1.46467	-10
1.46833	-10
1.47200	-12
1.47567	-13
1.47933	-15
1.48300	-16
1.48667	-17
1.49033	-17
1.49400	-16
1.49767	-14
1.50133	-14
1.50500	-18
1.50867	-18
1.51233	-15
1.51600	-11
1.51967	-8
1.52333	-7
1.52700	-5
1.53067	-3
1.53433	-3
1.53800	-5
1.54167	-6
1.54533	-8
1.54900	-9
1.55267	-8
1.55633	-9
1.56000	-12
1.56367	-15
1.56733	-14
1.57100	-11
1.57467	-9
1.57833	-9
1.58200	-9
1.58567	-10
1.58933	-9
1.59300	-9
1.59667	-9
1.60033	-10
1.60400	-10
1.60767	-11
1.61133	-9
1.61500	-8
1.61867	-8
1.62233	-8
1.62600	-4
1.62967	1
1.63333	1
1.63700	1
1.64067	1
1.64433	2
1.64800	-1
1.65167	-3
1.65533	-4
1.65900	-5
1.66267	-5
1.66633	-4
1.67000	-2
1.67367	-1
1.67733	1
1.68100	2
1.68467	2
1.68833	-1
1.69200	-3
1.69567	-2
1.69933	-1
1.70300	2
1.70667	2
1.71033	2
1.71400	3
1.71767	4
1.72133	3
1.72500	3
1.72867	2
1.73233	1
1.73600	3
1.73967	6
1.74333	7
1.74700	6
1.75067	5
1.75433	6
1.75800	7
1.76167	10
1.76533	10
1.76900	10
1.77267	9
1.77633	9
1.78000	9
1.78367	9
1.78733	10
1.79100	11
1.79467	10
1.79833	10
1.80200	9
1.80567	8
1.80933	9
1.81300	12
1.81667	15
1.82033	15
1.82400	15
1.82767	16
1.83133	15
1.83500	14
1.83867	13
1.84233	15
1.84600	16
1.84967	16
1.85333	17
1.85700	18
1.86067	18
1.86433	17
1.86800	16
1.87167	18
1.87533	21
1.87900	23
1.88267	23
1.88633	24
1.89000	24
1.89367	24
1.89733	23
1.90100	24
1.90467	27
1.90833	28
1.91200	28
1.91567	29
1.91933	30
1.92300	33
1.92667	33
1.93033	34
1.93400	36
1.93767	38
1.94133	38
1.94500	38
1.94867	39
1.95233	41
1.95600	41
1.95967	42
1.96333	44
1.96700	46
1.97067	48
1.97433	49
1.97800	50
1.98167	50
1.98533	50
1.98900	52
1.99267	52
1.99633	51
2.00000	50
2.00367	53
2.00733	57
2.01100	59
2.01467	58
2.01833	58
2.02200	60
2.02567	60
2.02933	61
2.03300	64
2.03667	66
2.04033	65
2.04400	65
2.04767	67
2.05133	71
2.05500	73
2.05867	73
2.06233	74
2.06600	73
2.06967	71
2.07333	71
2.07700	73
2.08067	75
2.08433	79
2.08800	82
2.09167	83
2.09533	82
2.09900	81
2.10267	82
2.10633	85
2.11000	86
2.11367	87
2.11733	84
2.12100	85
2.12467	88
2.12833	91
2.13200	93
2.13567	94
2.13933	97
2.14300	101
2.14667	101
2.15033	100
2.15400	102
2.15767	105
2.16133	107
2.16500	107
2.16867	108
2.17233	108
2.17600	109
2.17967	111
2.18333	113
2.18700	116
2.19067	120
2.19433	121
2.19800	121
2.20167	120
2.20533	120
2.20900	122
2.21267	123
2.21633	127
2.22000	129
2.22367	131
2.22733	133
2.23100	134
2.23467	136
2.23833	137
2.24200	138
2.24567	139
2.24933	140
2.25300	141
2.25667	141
2.26033	141
2.26400	141
2.26767	143
2.27133	146
2.27500	149
2.27867	154
2.28233	158
2.28600	162
2.28967	162
2.29333	163
2.29700	165
2.30067	166
2.30433	169
2.30800	171
2.31167	171
2.31533	171
2.31900	170
2.32267	170
2.32633	170
2.33000	172
2.33367	173
2.33733	174
2.34100	177
2.34467	181
2.34833	184
2.35200	187
2.35567	190
2.35933	194
2.36300	195
2.36667	198
2.37033	197
2.37400	197
2.37767	199
2.38133	201
2.38500	203
2.38867	206
2.39233	207
2.39600	208
2.39967	208
2.40333	208
2.40700	206
2.41067	207
2.41433	210
2.41800	210
2.42167	212
2.42533	214
2.42900	215
2.43267	215
2.43633	215
2.44000	215
2.44367	230
2.44733	264
2.45100	303
2.45467	332
2.45833	342
2.46200	341
2.46567	338
2.46933	334
2.47300	327
2.47667	317
2.48033	305
2.48400	295
2.48767	289
2.49133	283
2.49500	279
2.49867	279
2.50233	284
2.50600	292
2.50967	299
2.51333	306
2.51700	308
2.52067	306
2.52433	301
2.52800	295
2.53167	291
2.53533	287
2.53900	283
2.54267	280
2.54633	277
2.55000	277
2.55367	280
2.55733	285
2.56100	288
2.56467	292
2.56833	296
2.57200	300
2.57567	306
2.57933	311
2.58300	315
2.58667	319
2.59033	323
2.59400	327
2.59767	332
2.60133	336
2.60500	337
2.60867	334
2.61233	326
2.61600	315
2.61967	301
2.62333	281
2.62700	257
2.63067	229
2.63433	199
2.63800	173
2.64167	149
2.64533	132
2.64900	121
2.65267	114
2.65633	112
2.66000	109
2.66367	110
2.66733	114
2.67100	118
2.67467	122
2.67833	126
2.68200	130
2.68567	138
2.68933	146
2.69300	154
2.69667	161
2.70033	168
2.70400	175
2.70767	183
2.71133	188
2.71500	192
2.71867	195
2.72233	200
2.72600	203
2.72967	207
2.73333	211
2.73700	215
2.74067	216
2.74433	218
2.74800	219
2.75167	218
2.75533	217
2.75900	218
2.76267	220
2.76633	220
2.77000	222
2.77367	223
2.77733	226
2.78100	230
2.78467	234
2.78833	237
2.79200	236
2.79567	235
2.79933	236
2.80300	240
2.80667	241
2.81033	241
2.81400	240
2.81767	241
2.82133	241
2.82500	241
2.82867	243
2.83233	251
2.83600	271
2.83967	316
2.84333	406
2.84700	566
2.85067	822
2.85433	1192
2.85800	1679
2.86167	2271
2.86533	2936
2.86900	3622
2.87267	4277
2.87633	4846
2.88000	5282
2.88367	5561
2.88733	5674
2.89100	5633
2.89467	5462
2.89833	5186
2.90200	4840
2.90567	4453
2.90933	4050
2.91300	3654
2.91667	3274
2.92033	2920
2.92400	2591
2.92767	2293
2.93133	2027
2.93500	1790
2.93867	1583
2.94233	1401
2.94600	1242
2.94967	1104
2.95333	985
2.95700	885
2.96067	798
2.96433	720
2.96800	650
2.97167	590
2.97533	543
2.97900	501
2.98267	464
2.98633	432
2.99000	409
2.99367	388
2.99733	370
3.00100	353
3.00467	335
3.00833	320
3.01200	309
3.01567	302
3.01933	296
3.02300	292
3.02667	285
3.03033	279
3.03400	276
3.03767	272
3.04133	270
3.04500	265
3.04867	263
3.05233	264
3.05600	262
3.05967	260
3.06333	257
3.06700	253
3.07067	248
3.07433	247
3.07800	248
3.08167	250
3.08533	251
3.08900	249
3.09267	248
3.09633	249
3.10000	249
3.10367	249
3.10733	247
3.11100	246
3.11467	244
3.11833	244
3.12200	244
3.12567	244
3.12933	243
3.13300	242
3.13667	244
3.14033	244
3.14400	245
3.14767	245
3.15133	243
3.15500	241
3.15867	240
3.16233	241
3.16600	242
3.16967	243
3.17333	244
3.17700	243
3.18067	242
3.18433	245
3.18800	246
3.19167	245
3.19533	243
3.19900	242
3.20267	242
3.20633	243
3.21000	245
3.21367	246
3.21733	246
3.22100	246
3.22467	248
3.22833	249
3.23200	248
3.23567	248
3.23933	246
3.24300	247
3.24667	246
3.25033	244
3.25400	243
3.25767	244
3.26133	243
3.26500	240
3.26867	237
3.27233	231
3.27600	228
3.27967	225
3.28333	225
3.28700	225
3.29067	223
3.29433	223
3.29800	224
3.30167	223
3.30533	222
3.30900	221
3.31267	218
3.31633	216
3.32000	213
3.32367	211
3.32733	209
3.33100	203
3.33467	200
3.33833	195
3.34200	191
3.34567	185
3.34933	180
3.35300	177
3.35667	176
3.36033	177
3.36400	176
3.36767	172
3.37133	168
3.37500	168
3.37867	166
3.38233	162
3.38600	158
3.38967	156
3.39333	155
3.39700	152
3.40067	149
3.40433	148
3.40800	147
3.41167	144
3.41533	141
3.41900	139
3.42267	136
3.42633	134
3.43000	133
3.43367	134
3.43733	133
3.44100	132
3.44467	131
3.44833	126
3.45200	123
3.45567	122
3.45933	121
3.46300	120
3.46667	117
3.47033	116
3.47400	114
3.47767	111
3.48133	109
3.48500	108
3.48867	109
3.49233	107
3.49600	107
3.49967	101
3.50333	97
3.50700	97
3.51067	97
3.51433	97
3.51800	95
3.52167	90
3.52533	86
3.52900	86
3.53267	87
3.53633	85
3.54000	82
3.54367	82
3.54733	82
3.55100	81
3.55467	80
3.55833	77
3.56200	77
3.56567	77
3.56933	76
3.57300	74
3.57667	73
3.58033	73
3.58400	75
3.58767	74
3.59133	73
3.59500	72
3.59867	69
3.60233	67
3.60600	66
3.60967	64
3.61333	63
3.61700	63
3.62067	63
3.62433	64
3.62800	63
3.63167	63
3.63533	61
3.63900	59
3.64267	55
3.64633	52
3.65000	53
3.65367	54
3.65733	55
3.66100	58
3.66467	55
3.66833	54
3.67200	54
3.67567	51
3.67933	50
3.68300	51
3.68667	50
3.69033	50
3.69400	50
3.69767	50
3.70133	49
3.70500	49
3.70867	48
3.71233	46
3.71600	42
3.71967	40
3.72333	39
3.72700	42
3.73067	44
3.73433	45
3.73800	44
3.74167	44
3.74533	43
3.74900	43
3.75267	41
3.75633	41
3.76000	40
3.76367	36
3.76733	33
3.77100	34
3.77467	36
3.77833	39
3.78200	37
3.78567	34
3.78933	31
3.79300	28
3.79667	26
3.80033	26
3.80400	29
3.80767	30
3.81133	30
3.81500	30
3.81867	29
3.82233	28
3.82600	24
3.82967	24
3.83333	25
3.83700	26
3.84067	29
3.84433	30
3.84800	30
3.85167	31
3.85533	32
3.85900	31
3.86267	30
3.86633	27
3.87000	23
3.87367	22
3.87733	22
3.88100	24
3.88467	23
3.88833	21
3.89200	19
3.89567	19
3.89933	19
3.90300	20
3.90667	18
3.91033	15
3.91400	14
3.91767	14
3.92133	15
3.92500	17
3.92867	18
3.93233	16
3.93600	13
3.93967	14
3.94333	13
3.94700	12
3.95067	11
3.95433	11
3.95800	10
3.96167	8
3.96533	9
3.96900	9
3.97267	11
3.97633	13
3.98000	10
3.98367	8
3.98733	7
3.99100	6
3.99467	5
3.99833	5

[Status Trace (Column Oven Temperature)]
Interval(msec)	1000
# of Points	240
Start Time(min)	0.013
End Time(min)	3.997
Intensity Units	
Intensity Multiplier	1
R.Time (min)	Intensity
0.01325	35.01
0.02992	35.01
0.04658	35.00
0.06325	35.00
0.07992	35.00
0.09658	34.99
0.11325	34.99
0.12992	35.00
0.14658	35.00
0.16325	35.00
0.17992	34.99
0.19658	34.98
0.21325	34.98
0.22992	34.98
0.24658	34.99
0.26325	34.99
0.27992	35.00
0.29658	34.99
0.31325	34.99
0.32992	35.00
0.34658	35.00
0.36325	35.00
0.37992	35.00
0.39658	35.00
0.41325	35.00
0.42992	34.98
0.44658	34.98
0.46325	34.98
0.47992	35.00
0.49658	35.00
0.51325	34.99
0.52992	34.99
0.54658	34.99
0.56325	34.99
0.57992	34.99
0.59658	35.00
0.61325	35.01
0.62992	35.00
0.64658	34.99
0.66325	35.00
0.67992	35.01
0.69658	35.01
0.71325	35.01
0.72992	35.00
0.74658	35.00
0.76325	35.00
0.77992	35.00
0.79658	35.01
0.81325	35.00
0.82992	35.00
0.84658	35.00
0.86325	35.00
0.87992	35.01
0.89658	34.99
0.91325	35.00
0.92992	34.99
0.94658	34.98
0.96325	34.99
0.97992	34.99
0.99658	35.00
1.01325	35.00
1.02992	34.99
1.04658	34.99
1.06325	34.98
1.07992	34.99
1.09658	34.99
1.11325	35.00
1.12992	35.00
1.14658	35.00
1.16325	35.01
1.17992	35.01
1.19658	35.01
1.21325	35.00
1.22992	35.00
1.24658	35.00
1.26325	34.99
1.27992	35.00
1.29658	35.00
1.31325	35.00
1.32992	34.99
1.34658	34.99
1.36325	34.99
1.37992	34.99
1.39658	34.99
1.41325	34.98
1.42992	34.99
1.44658	35.00
1.46325	34.99
1.47992	34.99
1.49658	35.00
1.51325	34.99
1.52992	35.00
1.54658	35.00
1.56325	35.01
1.57992	35.01
1.59658	35.03
1.61325	35.10
1.62992	35.24
1.64658	35.44
1.66325	35.70
1.67992	36.05
1.69658	36.43
1.71325	36.77
1.72992	37.12
1.74658	37.43
1.76325	37.74
1.77992	38.07
1.79658	38.40
1.81325	38.75
1.82992	39.09
1.84658	39.40
1.86325	39.74
1.87992	40.07
1.89658	40.38
1.91325	40.69
1.92992	41.03
1.94658	41.37
1.96325	41.68
1.97992	42.00
1.99658	42.33
2.01325	42.66
2.02992	42.99
2.04658	43.32
2.06325	43.65
2.07992	43.97
2.09658	44.29
2.11325	44.61
2.12992	44.95
2.14658	45.27
2.16325	45.57
2.17992	45.90
2.19658	46.26
2.21325	46.56
2.22992	46.93
2.24658	47.26
2.26325	47.56
2.27992	47.90
2.29658	48.26
2.31325	48.59
2.32992	48.90
2.34658	49.23
2.36325	49.51
2.37992	49.69
2.39658	49.73
2.41325	49.72
2.42992	49.74
2.44658	49.74
2.46325	49.74
2.47992	49.76
2.49658	49.77
2.51325	49.77
2.52992	49.78
2.54658	49.81
2.56325	49.80
2.57992	49.83
2.59658	49.83
2.61325	49.84
2.62992	49.83
2.64658	49.85
2.66325	49.86
2.67992	49.85
2.69658	49.86
2.71325	49.87
2.72992	49.86
2.74658	49.85
2.76325	49.84
2.77992	49.86
2.79658	49.87
2.81325	49.88
2.82992	49.89
2.84658	49.90
2.86325	49.90
2.87992	49.91
2.89658	49.92
2.91325	49.93
2.92992	49.95
2.94658	49.96
2.96325	49.98
2.97992	49.99
2.99658	50.00
3.01325	50.01
3.02992	50.01
3.04658	50.01
3.06325	50.01
3.07992	50.03
3.09658	50.04
3.11325	50.05
3.12992	50.05
3.14658	50.06
3.16325	50.07
3.17992	50.07
3.19658	50.07
3.21325	50.08
3.22992	50.08
3.24658	50.09
3.26325	50.09
3.27992	50.11
3.29658	50.11
3.31325	50.11
3.32992	50.10
3.34658	50.10
3.36325	50.08
3.37992	50.06
3.39658	50.04
3.41325	50.03
3.42992	50.03
3.44658	50.02
3.46325	50.02
3.47992	50.02
3.49658	50.02
3.51325	50.02
3.52992	50.02
3.54658	50.01
3.56325	50.01
3.57992	50.00
3.59658	50.01
3.61325	50.03
3.62992	50.03
3.64658	50.03
3.66325	50.04
3.67992	50.04
3.69658	50.04
3.71325	50.04
3.72992	50.05
3.74658	50.05
3.76325	50.05
3.77992	50.05
3.79658	50.05
3.81325	50.04
3.82992	50.04
3.84658	50.04
3.86325	50.05
3.87992	50.05
3.89658	50.05
3.91325	50.05
3.92992	50.05
3.94658	50.05
3.96325	50.05
3.97992	50.05
3.99658	50.06

[Status Trace (Injection Unit Temperature)]
Interval(msec)	1000
# of Points	240
Start Time(min)	0.013
End Time(min)	3.997
Intensity Units	
Intensity Multiplier	1
R.Time (min)	Intensity
0.01325	100.00
0.02992	100.00
0.04658	99.99
0.06325	99.99
0.07992	100.00
0.09658	99.99
0.11325	99.99
0.12992	99.99
0.14658	99.99
0.16325	100.00
0.17992	99.99
0.19658	100.00
0.21325	100.00
0.22992	99.99
0.24658	100.00
0.26325	99.99
0.27992	100.00
0.29658	99.99
0.31325	100.00
0.32992	99.99
0.34658	100.00
0.36325	99.99
0.37992	99.99
0.39658	99.99
0.41325	99.99
0.42992	99.99
0.44658	99.99
0.46325	99.99
0.47992	100.00
0.49658	99.99
0.51325	99.99
0.52992	99.99
0.54658	99.99
0.56325	99.99
0.57992	99.99
0.59658	99.99
0.61325	99.99
0.62992	99.99
0.64658	99.99
0.66325	99.99
0.67992	99.99
0.69658	99.99
0.71325	99.99
0.72992	99.99
0.74658	99.99
0.76325	99.99
0.77992	99.99
0.79658	99.99
0.81325	99.99
0.82992	99.99
0.84658	99.99
0.86325	99.99
0.87992	99.99
0.89658	99.99
0.91325	99.99
0.92992	99.99
0.94658	99.99
0.96325	100.00
0.97992	99.99
0.99658	99.99
1.01325	99.99
1.02992	99.99
1.04658	99.99
1.06325	99.99
1.07992	99.99
1.09658	99.99
1.11325	99.99
1.12992	99.99
1.14658	99.99
1.16325	99.99
1.17992	99.99
1.19658	99.99
1.21325	99.99
1.22992	99.99
1.24658	99.99
1.26325	99.99
1.27992	99.99
1.29658	99.99
1.31325	99.99
1.32992	99.99
1.34658	99.99
1.36325	99.99
1.37992	99.99
1.39658	99.99
1.41325	99.99
1.42992	99.99
1.44658	99.99
1.46325	99.99
1.47992	99.99
1.49658	99.99
1.51325	99.99
1.52992	99.99
1.54658	99.99
1.56325	99.99
1.57992	99.99
1.59658	99.99
1.61325	99.99
1.62992	99.99
1.64658	99.99
1.66325	99.99
1.67992	99.99
1.69658	100.00
1.71325	99.99
1.72992	99.99
1.74658	99.99
1.76325	99.99
1.77992	99.99
1.79658	99.99
1.81325	99.99
1.82992	99.99
1.84658	99.99
1.86325	99.99
1.87992	99.99
1.89658	99.99
1.91325	99.99
1.92992	99.99
1.94658	99.98
1.96325	99.98
1.97992	99.98
1.99658	99.98
2.01325	99.98
2.02992	99.98
2.04658	99.98
2.06325	99.98
2.07992	99.98
2.09658	99.98
2.11325	99.98
2.12992	99.98
2.14658	99.98
2.16325	99.97
2.17992	99.98
2.19658	99.98
2.21325	99.98
2.22992	99.98
2.24658	99.98
2.26325	99.97
2.27992	99.98
2.29658	99.97
2.31325	99.98
2.32992	99.97
2.34658	99.98
2.36325	99.97
2.37992	99.98
2.39658	99.98
2.41325	99.98
2.42992	99.97
2.44658	99.98
2.46325	99.98
2.47992	99.98
2.49658	99.98
2.51325	99.98
2.52992	99.98
2.54658	99.98
2.56325	99.99
2.57992	99.98
2.59658	99.99
2.61325	99.99
2.62992	99.99
2.64658	99.99
2.66325	99.99
2.67992	99.99
2.69658	99.99
2.71325	100.00
2.72992	100.00
2.74658	100.00
2.76325	100.00
2.77992	100.00
2.79658	100.00
2.81325	100.00
2.82992	100.00
2.84658	100.00
2.86325	100.01
2.87992	100.01
2.89658	100.01
2.91325	100.01
2.92992	100.02
2.94658	100.01
2.96325	100.01
2.97992	100.01
2.99658	100.02
3.01325	100.02
3.02992	100.02
3.04658	100.02
3.06325	100.02
3.07992	100.02
3.09658	100.02
3.11325	100.03
3.12992	100.02
3.14658	100.03
3.16325	100.03
3.17992	100.03
3.19658	100.03
3.21325	100.03
3.22992	100.03
3.24658	100.03
3.26325	100.04
3.27992	100.03
3.29658	100.04
3.31325	100.03
3.32992	100.04
3.34658	100.04
3.36325	100.04
3.37992	100.04
3.39658	100.04
3.41325	100.04
3.42992	100.04
3.44658	100.05
3.46325	100.05
3.47992	100.05
3.49658	100.05
3.51325	100.05
3.52992	100.05
3.54658	100.05
3.56325	100.05
3.57992	100.05
3.59658	100.05
3.61325	100.05
3.62992	100.05
3.64658	100.05
3.66325	100.05
3.67992	100.05
3.69658	100.05
3.71325	100.05
3.72992	100.05
3.74658	100.05
3.76325	100.05
3.77992	100.05
3.79658	100.05
3.81325	100.05
3.82992	100.05
3.84658	100.05
3.86325	100.05
3.87992	100.05
3.89658	100.05
3.91325	100.05
3.92992	100.05
3.94658	100.05
3.96325	100.05
3.97992	100.05
3.99658	100.05

[Status Trace (Carrier Gas Pressure)]
Interval(msec)	1000
# of Points	240
Start Time(min)	0.013
End Time(min)	3.997
Intensity Units	
Intensity Multiplier	1
R.Time (min)	Intensity
0.01325	57.89
0.02992	55.31
0.04658	57.74
0.06325	59.75
0.07992	58.83
0.09658	57.99
0.11325	57.99
0.12992	58.01
0.14658	58.01
0.16325	58.00
0.17992	58.00
0.19658	58.00
0.21325	58.00
0.22992	58.00
0.24658	58.00
0.26325	58.00
0.27992	58.00
0.29658	58.00
0.31325	58.00
0.32992	58.00
0.34658	58.00
0.36325	58.00
0.37992	58.00
0.39658	58.00
0.41325	58.00
0.42992	58.00
0.44658	58.00
0.46325	58.00
0.47992	58.00
0.49658	58.00
0.51325	58.00
0.52992	58.00
0.54658	58.00
0.56325	58.00
0.57992	58.00
0.59658	58.00
0.61325	58.00
0.62992	58.00
0.64658	58.00
0.66325	58.00
0.67992	58.00
0.69658	58.00
0.71325	58.00
0.72992	58.00
0.74658	58.00
0.76325	58.00
0.77992	58.00
0.79658	58.00
0.81325	58.00
0.82992	58.00
0.84658	58.00
0.86325	58.00
0.87992	58.00
0.89658	58.00
0.91325	58.00
0.92992	58.00
0.94658	58.00
0.96325	58.00
0.97992	58.00
0.99658	58.00
1.01325	58.00
1.02992	58.00
1.04658	58.00
1.06325	58.00
1.07992	58.00
1.09658	58.00
1.11325	58.00
1.12992	58.00
1.14658	58.00
1.16325	58.00
1.17992	58.00
1.19658	58.00
1.21325	58.00
1.22992	58.00
1.24658	58.00
1.26325	58.00
1.27992	58.00
1.29658	58.00
1.31325	58.00
1.32992	58.00
1.34658	58.00
1.36325	58.00
1.37992	58.00
1.39658	58.00
1.41325	58.00
1.42992	58.00
1.44658	58.00
1.46325	58.00
1.47992	58.00
1.49658	58.00
1.51325	58.00
1.52992	58.00
1.54658	58.00
1.56325	58.00
1.57992	58.00
1.59658	58.00
1.61325	58.00
1.62992	58.01
1.64658	58.00
1.66325	58.00
1.67992	58.01
1.69658	58.00
1.71325	58.00
1.72992	58.00
1.74658	58.00
1.76325	58.00
1.77992	58.00
1.79658	58.00
1.81325	58.00
1.82992	58.00
1.84658	58.00
1.86325	58.00
1.87992	58.00
1.89658	58.00
1.91325	58.00
1.92992	58.00
1.94658	58.00
1.96325	58.00
1.97992	58.00
1.99658	58.00
2.01325	58.00
2.02992	58.00
2.04658	58.00
2.06325	58.00
2.07992	58.00
2.09658	58.00
2.11325	58.00
2.12992	58.00
2.14658	58.00
2.16325	58.00
2.17992	58.00
2.19658	58.00
2.21325	58.00
2.22992	58.00
2.24658	58.00
2.26325	58.00
2.27992	58.00
2.29658	58.00
2.31325	58.00
2.32992	58.00
2.34658	58.00
2.36325	58.00
2.37992	57.99
2.39658	57.99
2.41325	58.00
2.42992	58.00
2.44658	58.00
2.46325	58.00
2.47992	58.00
2.49658	58.00
2.51325	57.99
2.52992	57.99
2.54658	58.00
2.56325	58.00
2.57992	58.00
2.59658	58.00
2.61325	58.00
2.62992	58.00
2.64658	58.00
2.66325	58.00
2.67992	58.00
2.69658	58.00
2.71325	58.00
2.72992	58.00
2.74658	58.00
2.76325	58.00
2.77992	58.00
2.79658	58.00
2.81325	58.00
2.82992	58.00
2.84658	58.00
2.86325	58.00
2.87992	58.00
2.89658	58.00
2.91325	58.00
2.92992	58.00
2.94658	58.00
2.96325	58.00
2.97992	58.00
2.99658	58.00
3.01325	58.00
3.02992	58.00
3.04658	58.00
3.06325	58.00
3.07992	58.00
3.09658	58.00
3.11325	58.00
3.12992	58.00
3.14658	58.00
3.16325	58.00
3.17992	58.00
3.19658	58.00
3.21325	58.00
3.22992	58.00
3.24658	58.00
3.26325	58.00
3.27992	58.00
3.29658	58.00
3.31325	58.00
3.32992	58.00
3.34658	58.00
3.36325	58.00
3.37992	58.00
3.39658	58.00
3.41325	58.00
3.42992	58.00
3.44658	58.00
3.46325	58.00
3.47992	58.00
3.49658	58.00
3.51325	58.00
3.52992	58.00
3.54658	58.00
3.56325	58.00
3.57992	58.00
3.59658	58.00
3.61325	58.00
3.62992	58.00
3.64658	58.00
3.66325	58.00
3.67992	58.00
3.69658	58.00
3.71325	58.00
3.72992	58.00
3.74658	58.00
3.76325	58.00
3.77992	58.00
3.79658	58.00
3.81325	58.00
3.82992	58.00
3.84658	58.00
3.86325	58.00
3.87992	58.00
3.89658	58.00
3.91325	58.00
3.92992	58.00
3.94658	58.00
3.96325	58.00
3.97992	58.00
3.99658	58.00

[Status Trace (Carrier Gas Flow)]
Interval(msec)	1000
# of Points	240
Start Time(min)	0.013
End Time(min)	3.997
Intensity Units	
Intensity Multiplier	1
R.Time (min)	Intensity
0.01325	34.66
0.02992	34.54
0.04658	34.53
0.06325	34.54
0.07992	34.51
0.09658	34.52
0.11325	34.52
0.12992	34.52
0.14658	34.52
0.16325	34.52
0.17992	34.52
0.19658	34.52
0.21325	34.52
0.22992	34.52
0.24658	34.52
0.26325	34.52
0.27992	34.52
0.29658	34.52
0.31325	34.52
0.32992	34.52
0.34658	34.51
0.36325	34.52
0.37992	34.52
0.39658	34.52
0.41325	34.52
0.42992	34.52
0.44658	34.52
0.46325	34.52
0.47992	34.52
0.49658	34.52
0.51325	34.52
0.52992	34.52
0.54658	34.52
0.56325	34.52
0.57992	34.52
0.59658	34.52
0.61325	34.52
0.62992	34.52
0.64658	34.52
0.66325	34.52
0.67992	34.52
0.69658	34.52
0.71325	34.52
0.72992	34.52
0.74658	34.52
0.76325	34.52
0.77992	34.52
0.79658	34.52
0.81325	34.52
0.82992	34.52
0.84658	34.52
0.86325	34.52
0.87992	34.52
0.89658	34.52
0.91325	34.52
0.92992	34.52
0.94658	34.52
0.96325	34.52
0.97992	34.52
0.99658	34.52
1.01325	34.52
1.02992	34.52
1.04658	34.52
1.06325	34.52
1.07992	34.52
1.09658	34.52
1.11325	34.52
1.12992	34.52
1.14658	34.52
1.16325	34.52
1.17992	34.52
1.19658	34.52
1.21325	34.52
1.22992	34.52
1.24658	34.52
1.26325	34.52
1.27992	34.52
1.29658	34.52
1.31325	34.52
1.32992	34.52
1.34658	34.52
1.36325	34.52
1.37992	34.52
1.39658	34.52
1.41325	34.52
1.42992	34.52
1.44658	34.52
1.46325	34.52
1.47992	34.52
1.49658	34.52
1.51325	34.52
1.52992	34.52
1.54658	34.52
1.56325	34.52
1.57992	34.52
1.59658	34.52
1.61325	34.52
1.62992	34.52
1.64658	34.52
1.66325	34.52
1.67992	34.52
1.69658	34.52
1.71325	34.52
1.72992	34.52
1.74658	34.52
1.76325	34.52
1.77992	34.52
1.79658	34.52
1.81325	34.52
1.82992	34.52
1.84658	34.52
1.86325	34.52
1.87992	34.52
1.89658	34.52
1.91325	34.52
1.92992	34.52
1.94658	34.52
1.96325	34.52
1.97992	34.52
1.99658	34.52
2.01325	34.52
2.02992	34.52
2.04658	34.52
2.06325	34.52
2.07992	34.52
2.09658	34.52
2.11325	34.52
2.12992	34.52
2.14658	34.52
2.16325	34.52
2.17992	34.52
2.19658	34.52
2.21325	34.52
2.22992	34.52
2.24658	34.52
2.26325	34.52
2.27992	34.52
2.29658	34.52
2.31325	34.52
2.32992	34.52
2.34658	34.52
2.36325	34.52
2.37992	34.52
2.39658	34.52
2.41325	34.52
2.42992	34.52
2.44658	34.52
2.46325	34.52
2.47992	34.52
2.49658	34.52
2.51325	34.52
2.52992	34.52
2.54658	34.52
2.56325	34.52
2.57992	34.52
2.59658	34.52
2.61325	34.52
2.62992	34.52
2.64658	34.52
2.66325	34.52
2.67992	34.52
2.69658	34.52
2.71325	34.52
2.72992	34.52
2.74658	34.52
2.76325	34.52
2.77992	34.52
2.79658	34.52
2.81325	34.52
2.82992	34.52
2.84658	34.52
2.86325	34.52
2.87992	34.52
2.89658	34.52
2.91325	34.52
2.92992	34.52
2.94658	34.52
2.96325	34.52
2.97992	34.52
2.99658	34.52
3.01325	34.52
3.02992	34.52
3.04658	34.52
3.06325	34.52
3.07992	34.52
3.09658	34.52
3.11325	34.52
3.12992	34.52
3.14658	34.52
3.16325	34.52
3.17992	34.52
3.19658	34.52
3.21325	34.52
3.22992	34.52
3.24658	34.52
3.26325	34.52
3.27992	34.52
3.29658	34.52
3.31325	34.52
3.32992	34.52
3.34658	34.52
3.36325	34.52
3.37992	34.52
3.39658	34.52
3.41325	34.52
3.42992	34.52
3.44658	34.52
3.46325	34.52
3.47992	34.52
3.49658	34.52
3.51325	34.52
3.52992	34.52
3.54658	34.52
3.56325	34.52
3.57992	34.52
3.59658	34.52
3.61325	34.52
3.62992	34.52
3.64658	34.52
3.66325	34.52
3.67992	34.52
3.69658	34.52
3.71325	34.52
3.72992	34.52
3.74658	34.52
3.76325	34.52
3.77992	34.52
3.79658	34.52
3.81325	34.52
3.82992	34.52
3.84658	34.52
3.86325	34.52
3.87992	34.52
3.89658	34.52
3.91325	34.52
3.92992	34.52
3.94658	34.52
3.96325	34.52
3.97992	34.52
3.99658	34.52

[Status Trace (Column Flow)]
Interval(msec)	1000
# of Points	240
Start Time(min)	0.013
End Time(min)	3.997
Intensity Units	
Intensity Multiplier	1
R.Time (min)	Intensity
0.01325	5.48
0.02992	5.18
0.04658	5.46
0.06325	5.70
0.07992	5.59
0.09658	5.49
0.11325	5.49
0.12992	5.50
0.14658	5.49
0.16325	5.49
0.17992	5.49
0.19658	5.49
0.21325	5.49
0.22992	5.49
0.24658	5.49
0.26325	5.49
0.27992	5.49
0.29658	5.49
0.31325	5.49
0.32992	5.49
0.34658	5.49
0.36325	5.49
0.37992	5.49
0.39658	5.49
0.41325	5.49
0.42992	5.49
0.44658	5.49
0.46325	5.49
0.47992	5.49
0.49658	5.49
0.51325	5.49
0.52992	5.49
0.54658	5.49
0.56325	5.49
0.57992	5.49
0.59658	5.49
0.61325	5.49
0.62992	5.49
0.64658	5.49
0.66325	5.49
0.67992	5.49
0.69658	5.49
0.71325	5.49
0.72992	5.49
0.74658	5.49
0.76325	5.49
0.77992	5.49
0.79658	5.49
0.81325	5.49
0.82992	5.49
0.84658	5.49
0.86325	5.49
0.87992	5.49
0.89658	5.49
0.91325	5.49
0.92992	5.49
0.94658	5.49
0.96325	5.49
0.97992	5.49
0.99658	5.49
1.01325	5.49
1.02992	5.49
1.04658	5.49
1.06325	5.49
1.07992	5.49
1.09658	5.49
1.11325	5.49
1.12992	5.49
1.14658	5.49
1.16325	5.49
1.17992	5.49
1.19658	5.49
1.21325	5.49
1.22992	5.49
1.24658	5.49
1.26325	5.49
1.27992	5.49
1.29658	5.49
1.31325	5.49
1.32992	5.49
1.34658	5.49
1.36325	5.49
1.37992	5.49
1.39658	5.49
1.41325	5.49
1.42992	5.49
1.44658	5.49
1.46325	5.49
1.47992	5.49
1.49658	5.49
1.51325	5.49
1.52992	5.49
1.54658	5.49
1.56325	5.49
1.57992	5.49
1.59658	5.49
1.61325	5.49
1.62992	5.49
1.64658	5.48
1.66325	5.47
1.67992	5.46
1.69658	5.45
1.71325	5.44
1.72992	5.43
1.74658	5.42
1.76325	5.41
1.77992	5.40
1.79658	5.39
1.81325	5.38
1.82992	5.37
1.84658	5.36
1.86325	5.35
1.87992	5.34
1.89658	5.33
1.91325	5.32
1.92992	5.31
1.94658	5.30
1.96325	5.29
1.97992	5.28
1.99658	5.27
2.01325	5.26
2.02992	5.25
2.04658	5.24
2.06325	5.23
2.07992	5.22
2.09658	5.21
2.11325	5.20
2.12992	5.20
2.14658	5.19
2.16325	5.18
2.17992	5.17
2.19658	5.16
2.21325	5.15
2.22992	5.14
2.24658	5.13
2.26325	5.12
2.27992	5.11
2.29658	5.10
2.31325	5.09
2.32992	5.08
2.34658	5.07
2.36325	5.07
2.37992	5.06
2.39658	5.06
2.41325	5.06
2.42992	5.06
2.44658	5.06
2.46325	5.06
2.47992	5.06
2.49658	5.06
2.51325	5.06
2.52992	5.06
2.54658	5.06
2.56325	5.06
2.57992	5.06
2.59658	5.06
2.61325	5.06
2.62992	5.06
2.64658	5.06
2.66325	5.06
2.67992	5.06
2.69658	5.06
2.71325	5.06
2.72992	5.06
2.74658	5.06
2.76325	5.06
2.77992	5.06
2.79658	5.06
2.81325	5.06
2.82992	5.06
2.84658	5.06
2.86325	5.06
2.87992	5.06
2.89658	5.05
2.91325	5.05
2.92992	5.05
2.94658	5.05
2.96325	5.05
2.97992	5.05
2.99658	5.05
3.01325	5.05
3.02992	5.05
3.04658	5.05
3.06325	5.05
3.07992	5.05
3.09658	5.05
3.11325	5.05
3.12992	5.05
3.14658	5.05
3.16325	5.05
3.17992	5.05
3.19658	5.05
3.21325	5.05
3.22992	5.05
3.24658	5.05
3.26325	5.05
3.27992	5.05
3.29658	5.05
3.31325	5.05
3.32992	5.05
3.34658	5.05
3.36325	5.05
3.37992	5.05
3.39658	5.05
3.41325	5.05
3.42992	5.05
3.44658	5.05
3.46325	5.05
3.47992	5.05
3.49658	5.05
3.51325	5.05
3.52992	5.05
3.54658	5.05
3.56325	5.05
3.57992	5.05
3.59658	5.05
3.61325	5.05
3.62992	5.05
3.64658	5.05
3.66325	5.05
3.67992	5.05
3.69658	5.05
3.71325	5.05
3.72992	5.05
3.74658	5.05
3.76325	5.05
3.77992	5.05
3.79658	5.05
3.81325	5.05
3.82992	5.05
3.84658	5.05
3.86325	5.05
3.87992	5.05
3.89658	5.05
3.91325	5.05
3.92992	5.05
3.94658	5.05
3.96325	5.05
3.97992	5.05
3.99658	5.05

[Status Trace (Linear Velocity)]
Interval(msec)	1000
# of Points	240
Start Time(min)	0.013
End Time(min)	3.997
Intensity Units	
Intensity Multiplier	1
R.Time (min)	Intensity
0.01325	38.94
0.02992	37.25
0.04658	38.84
0.06325	40.15
0.07992	39.56
0.09658	39.00
0.11325	39.01
0.12992	39.02
0.14658	39.02
0.16325	39.01
0.17992	39.01
0.19658	39.01
0.21325	39.01
0.22992	39.01
0.24658	39.01
0.26325	39.01
0.27992	39.01
0.29658	39.01
0.31325	39.01
0.32992	39.01
0.34658	39.01
0.36325	39.01
0.37992	39.01
0.39658	39.01
0.41325	39.01
0.42992	39.01
0.44658	39.01
0.46325	39.01
0.47992	39.01
0.49658	39.01
0.51325	39.01
0.52992	39.01
0.54658	39.01
0.56325	39.01
0.57992	39.01
0.59658	39.01
0.61325	39.01
0.62992	39.01
0.64658	39.01
0.66325	39.01
0.67992	39.01
0.69658	39.01
0.71325	39.01
0.72992	39.01
0.74658	39.01
0.76325	39.01
0.77992	39.01
0.79658	39.01
0.81325	39.01
0.82992	39.01
0.84658	39.01
0.86325	39.01
0.87992	39.01
0.89658	39.01
0.91325	39.01
0.92992	39.01
0.94658	39.01
0.96325	39.01
0.97992	39.01
0.99658	39.01
1.01325	39.01
1.02992	39.01
1.04658	39.01
1.06325	39.01
1.07992	39.01
1.09658	39.01
1.11325	39.01
1.12992	39.01
1.14658	39.01
1.16325	39.01
1.17992	39.01
1.19658	39.01
1.21325	39.01
1.22992	39.01
1.24658	39.01
1.26325	39.01
1.27992	39.01
1.29658	39.01
1.31325	39.01
1.32992	39.01
1.34658	39.01
1.36325	39.01
1.37992	39.01
1.39658	39.01
1.41325	39.01
1.42992	39.01
1.44658	39.01
1.46325	39.01
1.47992	39.01
1.49658	39.01
1.51325	39.01
1.52992	39.01
1.54658	39.01
1.56325	39.01
1.57992	39.01
1.59658	39.01
1.61325	39.00
1.62992	38.99
1.64658	38.97
1.66325	38.95
1.67992	38.91
1.69658	38.88
1.71325	38.84
1.72992	38.81
1.74658	38.78
1.76325	38.75
1.77992	38.72
1.79658	38.69
1.81325	38.65
1.82992	38.62
1.84658	38.59
1.86325	38.56
1.87992	38.53
1.89658	38.50
1.91325	38.47
1.92992	38.44
1.94658	38.41
1.96325	38.38
1.97992	38.35
1.99658	38.32
2.01325	38.29
2.02992	38.26
2.04658	38.23
2.06325	38.20
2.07992	38.17
2.09658	38.14
2.11325	38.11
2.12992	38.08
2.14658	38.05
2.16325	38.02
2.17992	37.99
2.19658	37.96
2.21325	37.93
2.22992	37.90
2.24658	37.87
2.26325	37.84
2.27992	37.81
2.29658	37.78
2.31325	37.75
2.32992	37.72
2.34658	37.70
2.36325	37.67
2.37992	37.65
2.39658	37.64
2.41325	37.65
2.42992	37.65
2.44658	37.65
2.46325	37.65
2.47992	37.65
2.49658	37.65
2.51325	37.64
2.52992	37.64
2.54658	37.64
2.56325	37.64
2.57992	37.64
2.59658	37.64
2.61325	37.64
2.62992	37.64
2.64658	37.64
2.66325	37.64
2.67992	37.64
2.69658	37.64
2.71325	37.64
2.72992	37.64
2.74658	37.64
2.76325	37.64
2.77992	37.64
2.79658	37.64
2.81325	37.64
2.82992	37.64
2.84658	37.64
2.86325	37.63
2.87992	37.63
2.89658	37.63
2.91325	37.63
2.92992	37.63
2.94658	37.63
2.96325	37.63
2.97992	37.63
2.99658	37.63
3.01325	37.63
3.02992	37.63
3.04658	37.63
3.06325	37.62
3.07992	37.62
3.09658	37.62
3.11325	37.62
3.12992	37.62
3.14658	37.62
3.16325	37.62
3.17992	37.62
3.19658	37.62
3.21325	37.62
3.22992	37.62
3.24658	37.62
3.26325	37.62
3.27992	37.62
3.29658	37.62
3.31325	37.62
3.32992	37.62
3.34658	37.62
3.36325	37.62
3.37992	37.62
3.39658	37.62
3.41325	37.62
3.42992	37.62
3.44658	37.62
3.46325	37.62
3.47992	37.62
3.49658	37.63
3.51325	37.62
3.52992	37.62
3.54658	37.62
3.56325	37.63
3.57992	37.63
3.59658	37.63
3.61325	37.62
3.62992	37.62
3.64658	37.62
3.66325	37.62
3.67992	37.62
3.69658	37.62
3.71325	37.62
3.72992	37.62
3.74658	37.62
3.76325	37.62
3.77992	37.62
3.79658	37.62
3.81325	37.62
3.82992	37.62
3.84658	37.62
3.86325	37.62
3.87992	37.62
3.89658	37.62
3.91325	37.62
3.92992	37.62
3.94658	37.62
3.96325	37.62
3.97992	37.62
3.99658	37.62

