[Header]
Application Name	LabSolutions
Version	5.110
Data File Name	C:\Users\User\Desktop\Junior\UIC Prairie Sampling\6.2.23\06022023_015.gcd
Output Date	6/12/2023
Output Time	11:47:09 AM

[File Information]
Type	Data File
Generated	6/5/2023 3:35:10 PM
Generated by	System Administrator
Modified	6/5/2023 3:42:34 PM
Modified by	System Administrator

[Sample Information]
Operator Name	System Administrator
Acquired	6/5/2023 3:38:32 PM
Sample Type	0:Unknown
Level	0
Sample Name	015
Sample ID	015
ISTD Amount1	1
ISTD Amount2	1
ISTD Amount3	1
ISTD Amount4	1
ISTD Amount5	1
ISTD Amount6	1
ISTD Amount7	1
ISTD Amount8	1
ISTD Amount9	1
ISTD Amount10	1
ISTD Amount11	1
ISTD Amount12	1
ISTD Amount13	1
ISTD Amount14	1
ISTD Amount15	1
ISTD Amount16	1
ISTD Amount17	1
ISTD Amount18	1
ISTD Amount19	1
ISTD Amount20	1
ISTD Amount21	1
ISTD Amount22	1
ISTD Amount23	1
ISTD Amount24	1
ISTD Amount25	1
ISTD Amount26	1
ISTD Amount27	1
ISTD Amount28	1
ISTD Amount29	1
ISTD Amount30	1
ISTD Amount31	1
ISTD Amount32	1
Sample Amount	1
Dilution Factor	1
Vial#	14
Injection Volume	1
Injection Count	1
Bar Code	

[Original Files]
Data File	C:\Users\User\Desktop\Junior\UIC Prairie Sampling\6.2.23\06022023_015.gcd
Method File	C:\LabSolutions\Data\GHG_4min_2022\ghg3_togas_w_acet_4 min_new_int.gcm
Batch File	C:\LabSolutions\Data\AutoSamplerTesting\06022023.gcb
Report Format File	c:\LabSolutions\System\DEFAULT.lsr

[File Description]


[Configuration]
Instrument Name	C0B7VH3-Instrument1
Instrument #	1
Line #	1
# of Detectors	3
Detector ID	DET#1	DET#2	DET#3
Detector Name	FID	PTCD	ECD
# of Channels	1	1	1

[Peak Table(Ch1)]
# of Peaks	3
Peak#	R.Time	I.Time	F.Time	Area	Height	A/H	Conc.	Mark	ID#	Name	k'	Plate #	Plate Ht.	Tailing	Resolution	Sep.Factor	Area Ratio	Height Ratio	Conc. %	Norm Conc.
1	1.490	1.472	1.520	319	172	1.862	0.000	   	1	CO	0.000	10203	14.701	0.000	0.000	0.000	0	0	0.000	0.000
2	1.564	1.520	1.659	19555	9738	2.008	95.334	 V 	2	CH4	0.049	11379	13.182	1.134	1.247	0.000	0	0	19.956	19.956
3	1.989	1.934	2.455	1984121	955664	2.076	382.376	   	3	CO2	0.335	17428	8.607	1.231	7.154	6.800	0	0	80.044	80.044

[Peak Table(Ch2)]
# of Peaks	0

[Peak Table(Ch3)]
# of Peaks	3
Peak#	R.Time	I.Time	F.Time	Area	Height	A/H	Conc.	Mark	ID#	Name	k'	Plate #	Plate Ht.	Tailing	Resolution	Sep.Factor	Area Ratio	Height Ratio	Conc. %	Norm Conc.
1	2.499	2.396	2.510	2227	730	3.051	0.000	   			0.000	149	1005.617	0.000	0.000	0.000	0	0	0.000	0.000
2	2.554	2.510	2.799	11235	787	14.280	0.000	 V 			0.022	19	7725.266	0.000	0.035	0.000	0	0	0.000	0.000
3	2.891	2.799	3.995	71673	13844	5.177	1.060	 V 	1	N2O	0.157	12141	12.355	1.758	0.278	7.133	0	0	100.000	100.000

[Compound Results(Ch1)]
# of IDs	6
ID#	Name	R.Time	Area	Height	Conc.	Curve	3rd	2nd	1st	Constant	Area Ratio	Height Ratio	Conc. %	Norm Conc.
1	CO	1.490	319	172	0.000	Linear	0.000000e+00	0.000000e+00	0.000000e+00	0.000000e+00	0	0	0.000	0.000
2	CH4	1.564	19555	9738	95.334	Linear	0.000000e+00	0.000000e+00	2.051179e+002	0.000000e+00	0	0	19.956	19.956
3	CO2	1.989	1984121	955664	382.376	Linear	0.000000e+00	0.000000e+00	5.188919e+003	0.000000e+00	0	0	80.044	80.044
4	Ethylene	0.000	0	0	0.000	Linear	0.000000e+00	0.000000e+00	0.000000e+00	0.000000e+00	0	0	0.000	0.000
5	Acetylene	0.000	0	0	0.000	Linear	0.000000e+00	0.000000e+00	0.000000e+00	0.000000e+00	0	0	0.000	0.000
6	Ethane	0.000	0	0	0.000	Linear	0.000000e+00	0.000000e+00	0.000000e+00	0.000000e+00	0	0	0.000	0.000

[Compound Results(Ch2)]
# of IDs	5
ID#	Name	R.Time	Area	Height	Conc.	Curve	3rd	2nd	1st	Constant	Area Ratio	Height Ratio	Conc. %	Norm Conc.
1	Hydrogen	0.000	0	0	0.000	Linear	0.000000e+00	0.000000e+00	0.000000e+00	0.000000e+00	0	0	0.000	0.000
2	Oxygen	0.000	0	0	0.000	Linear	0.000000e+00	0.000000e+00	0.000000e+00	0.000000e+00	0	0	0.000	0.000
3	Nitrogen	0.000	0	0	0.000	Linear	0.000000e+00	0.000000e+00	0.000000e+00	0.000000e+00	0	0	0.000	0.000
4	Methane	0.000	0	0	0.000	Linear	0.000000e+00	0.000000e+00	0.000000e+00	0.000000e+00	0	0	0.000	0.000
5	Carbon Monoxide	0.000	0	0	0.000	Linear	0.000000e+00	0.000000e+00	0.000000e+00	0.000000e+00	0	0	0.000	0.000

[Compound Results(Ch3)]
# of IDs	2
ID#	Name	R.Time	Area	Height	Conc.	Curve	3rd	2nd	1st	Constant	Area Ratio	Height Ratio	Conc. %	Norm Conc.
1	N2O	2.891	71673	13844	1.060	Linear	0.000000e+00	0.000000e+00	6.759880e+004	0.000000e+00	0	0	100.000	100.000
2	SF6	0.000	0	0	0.000	Linear	0.000000e+00	0.000000e+00	0.000000e+00	0.000000e+00	0	0	0.000	0.000

[Group Results(Ch1)]
# of Groups	0

[Group Results(Ch2)]
# of Groups	0

[Group Results(Ch3)]
# of Groups	0

[Chromatogram (Ch1)]
Interval(msec)	220
# of Points	1091
Start Time(min)	0.002
End Time(min)	3.998
R.Time (min)	Intensity
0.00167	30
0.00533	30
0.00900	31
0.01267	32
0.01633	36
0.02000	36
0.02367	29
0.02733	19
0.03100	9
0.03467	2
0.03833	0
0.04200	-1
0.04567	-2
0.04933	-3
0.05300	-6
0.05667	-6
0.06033	-0
0.06400	5
0.06767	8
0.07133	11
0.07500	14
0.07867	16
0.08233	16
0.08600	13
0.08967	8
0.09333	7
0.09700	10
0.10067	11
0.10433	10
0.10800	6
0.11167	7
0.11533	13
0.11900	20
0.12267	26
0.12633	29
0.13000	28
0.13367	24
0.13733	18
0.14100	12
0.14467	4
0.14833	-3
0.15200	-7
0.15567	-14
0.15933	-20
0.16300	-21
0.16667	-18
0.17033	-15
0.17400	-11
0.17767	0
0.18133	13
0.18500	23
0.18867	28
0.19233	29
0.19600	26
0.19967	20
0.20333	11
0.20700	4
0.21067	1
0.21433	0
0.21800	1
0.22167	2
0.22533	2
0.22900	-0
0.23267	-6
0.23633	-12
0.24000	-15
0.24367	-16
0.24733	-16
0.25100	-17
0.25467	-20
0.25833	-24
0.26200	-24
0.26567	-17
0.26933	-8
0.27300	-0
0.27667	6
0.28033	10
0.28400	15
0.28767	16
0.29133	14
0.29500	6
0.29867	-3
0.30233	-8
0.30600	-11
0.30967	-14
0.31333	-12
0.31700	-9
0.32067	-5
0.32433	-5
0.32800	-11
0.33167	-19
0.33533	-27
0.33900	-31
0.34267	-27
0.34633	-20
0.35000	-11
0.35367	-2
0.35733	7
0.36100	13
0.36467	15
0.36833	13
0.37200	11
0.37567	10
0.37933	7
0.38300	-1
0.38667	-10
0.39033	-16
0.39400	-18
0.39767	-19
0.40133	-21
0.40500	-25
0.40867	-30
0.41233	-34
0.41600	-37
0.41967	-37
0.42333	-36
0.42700	-33
0.43067	-30
0.43433	-25
0.43800	-18
0.44167	-12
0.44533	-9
0.44900	-9
0.45267	-9
0.45633	-9
0.46000	-10
0.46367	-12
0.46733	-12
0.47100	-10
0.47467	-5
0.47833	-3
0.48200	-2
0.48567	-1
0.48933	1
0.49300	4
0.49667	10
0.50033	16
0.50400	19
0.50767	18
0.51133	16
0.51500	13
0.51867	10
0.52233	6
0.52600	3
0.52967	-2
0.53333	-11
0.53700	-18
0.54067	-22
0.54433	-20
0.54800	-18
0.55167	-16
0.55533	-11
0.55900	-7
0.56267	-8
0.56633	-13
0.57000	-19
0.57367	-23
0.57733	-29
0.58100	-38
0.58467	-46
0.58833	-48
0.59200	-45
0.59567	-45
0.59933	-45
0.60300	-45
0.60667	-46
0.61033	-41
0.61400	-30
0.61767	-19
0.62133	-13
0.62500	-11
0.62867	-15
0.63233	-21
0.63600	-23
0.63967	-22
0.64333	-16
0.64700	-9
0.65067	-7
0.65433	-13
0.65800	-24
0.66167	-32
0.66533	-37
0.66900	-36
0.67267	-31
0.67633	-26
0.68000	-22
0.68367	-19
0.68733	-17
0.69100	-19
0.69467	-20
0.69833	-22
0.70200	-26
0.70567	-30
0.70933	-32
0.71300	-33
0.71667	-31
0.72033	-26
0.72400	-17
0.72767	-9
0.73133	-4
0.73500	-0
0.73867	1
0.74233	-2
0.74600	-3
0.74967	-3
0.75333	-6
0.75700	-7
0.76067	-8
0.76433	-12
0.76800	-18
0.77167	-26
0.77533	-36
0.77900	-47
0.78267	-55
0.78633	-59
0.79000	-62
0.79367	-63
0.79733	-61
0.80100	-56
0.80467	-50
0.80833	-43
0.81200	-38
0.81567	-35
0.81933	-35
0.82300	-35
0.82667	-34
0.83033	-32
0.83400	-30
0.83767	-26
0.84133	-23
0.84500	-22
0.84867	-24
0.85233	-27
0.85600	-29
0.85967	-31
0.86333	-33
0.86700	-31
0.87067	-24
0.87433	-13
0.87800	-3
0.88167	0
0.88533	-4
0.88900	-12
0.89267	-21
0.89633	-30
0.90000	-39
0.90367	-46
0.90733	-51
0.91100	-53
0.91467	-54
0.91833	-55
0.92200	-58
0.92567	-59
0.92933	-57
0.93300	-53
0.93667	-49
0.94033	-44
0.94400	-39
0.94767	-35
0.95133	-35
0.95500	-37
0.95867	-39
0.96233	-41
0.96600	-42
0.96967	-43
0.97333	-44
0.97700	-42
0.98067	-37
0.98433	-29
0.98800	-24
0.99167	-24
0.99533	-27
0.99900	-31
1.00267	-37
1.00633	-42
1.01000	-46
1.01367	-53
1.01733	-61
1.02100	-67
1.02467	-70
1.02833	-66
1.03200	-60
1.03567	-54
1.03933	-46
1.04300	-36
1.04667	-27
1.05033	-23
1.05400	-23
1.05767	-27
1.06133	-33
1.06500	-41
1.06867	-50
1.07233	-56
1.07600	-59
1.07967	-57
1.08333	-53
1.08700	-49
1.09067	-46
1.09433	-44
1.09800	-44
1.10167	-45
1.10533	-48
1.10900	-51
1.11267	-54
1.11633	-58
1.12000	-63
1.12367	-65
1.12733	-62
1.13100	-58
1.13467	-56
1.13833	-59
1.14200	-63
1.14567	-64
1.14933	-58
1.15300	-51
1.15667	-48
1.16033	-47
1.16400	-49
1.16767	-49
1.17133	-48
1.17500	-45
1.17867	-42
1.18233	-39
1.18600	-40
1.18967	-40
1.19333	-42
1.19700	-46
1.20067	-52
1.20433	-59
1.20800	-66
1.21167	-71
1.21533	-74
1.21900	-77
1.22267	-78
1.22633	-78
1.23000	-74
1.23367	-70
1.23733	-68
1.24100	-64
1.24467	-60
1.24833	-57
1.25200	-56
1.25567	-56
1.25933	-58
1.26300	-60
1.26667	-62
1.27033	-64
1.27400	-66
1.27767	-65
1.28133	-65
1.28500	-65
1.28867	-61
1.29233	-56
1.29600	-53
1.29967	-53
1.30333	-57
1.30700	-61
1.31067	-62
1.31433	-64
1.31800	-67
1.32167	-66
1.32533	-62
1.32900	-59
1.33267	-57
1.33633	-60
1.34000	-63
1.34367	-66
1.34733	-69
1.35100	-72
1.35467	-75
1.35833	-77
1.36200	-79
1.36567	-83
1.36933	-89
1.37300	-90
1.37667	-87
1.38033	-80
1.38400	-72
1.38767	-66
1.39133	-66
1.39500	-68
1.39867	-73
1.40233	-77
1.40600	-81
1.40967	-85
1.41333	-88
1.41700	-90
1.42067	-86
1.42433	-78
1.42800	-73
1.43167	-66
1.43533	-49
1.43900	-16
1.44267	1
1.44633	-30
1.45000	-93
1.45367	-160
1.45733	-222
1.46100	-267
1.46467	-286
1.46833	-270
1.47200	-224
1.47567	-166
1.47933	-111
1.48300	-72
1.48667	-50
1.49033	-42
1.49400	-45
1.49767	-57
1.50133	-76
1.50500	-96
1.50867	-115
1.51233	-130
1.51600	-140
1.51967	-143
1.52333	-139
1.52700	-124
1.53067	-64
1.53433	183
1.53800	889
1.54167	2243
1.54533	4076
1.54900	5984
1.55267	7630
1.55633	8847
1.56000	9536
1.56367	9567
1.56733	8859
1.57100	7546
1.57467	5951
1.57833	4404
1.58200	3101
1.58567	2101
1.58933	1377
1.59300	877
1.59667	544
1.60033	324
1.60400	182
1.60767	90
1.61133	29
1.61500	-14
1.61867	-44
1.62233	-64
1.62600	-73
1.62967	-75
1.63333	-77
1.63700	-81
1.64067	-88
1.64433	-96
1.64800	-104
1.65167	-109
1.65533	-113
1.65900	-116
1.66267	-116
1.66633	-116
1.67000	-113
1.67367	-106
1.67733	-97
1.68100	-91
1.68467	-89
1.68833	-92
1.69200	-94
1.69567	-93
1.69933	-94
1.70300	-102
1.70667	-114
1.71033	-127
1.71400	-136
1.71767	-139
1.72133	-138
1.72500	-134
1.72867	-132
1.73233	-129
1.73600	-128
1.73967	-129
1.74333	-131
1.74700	-132
1.75067	-129
1.75433	-125
1.75800	-121
1.76167	-115
1.76533	-110
1.76900	-107
1.77267	-109
1.77633	-110
1.78000	-108
1.78367	-106
1.78733	-105
1.79100	-104
1.79467	-104
1.79833	-107
1.80200	-109
1.80567	-107
1.80933	-108
1.81300	-110
1.81667	-111
1.82033	-110
1.82400	-112
1.82767	-115
1.83133	-118
1.83500	-123
1.83867	-128
1.84233	-134
1.84600	-139
1.84967	-139
1.85333	-135
1.85700	-128
1.86067	-119
1.86433	-110
1.86800	-102
1.87167	-98
1.87533	-100
1.87900	-108
1.88267	-119
1.88633	-130
1.89000	-139
1.89367	-144
1.89733	-145
1.90100	-144
1.90467	-143
1.90833	-139
1.91200	-138
1.91567	-137
1.91933	-137
1.92300	-139
1.92667	-139
1.93033	-136
1.93400	-132
1.93767	-125
1.94133	-115
1.94500	-72
1.94867	186
1.95233	1627
1.95600	7870
1.95967	28290
1.96333	79374
1.96700	177959
1.97067	326956
1.97433	507487
1.97800	687278
1.98167	835082
1.98533	928554
1.98900	955571
1.99267	914949
1.99633	817786
2.00000	685221
2.00367	541938
2.00733	408417
2.01100	296542
2.01467	209817
2.01833	146240
2.02200	101397
2.02567	70557
2.02933	49669
2.03300	35616
2.03667	26155
2.04033	19743
2.04400	15344
2.04767	12270
2.05133	10077
2.05500	8472
2.05867	7267
2.06233	6339
2.06600	5608
2.06967	5016
2.07333	4527
2.07700	4121
2.08067	3781
2.08433	3493
2.08800	3240
2.09167	3016
2.09533	2816
2.09900	2635
2.10267	2472
2.10633	2327
2.11000	2199
2.11367	2084
2.11733	1979
2.12100	1883
2.12467	1793
2.12833	1707
2.13200	1629
2.13567	1560
2.13933	1500
2.14300	1447
2.14667	1397
2.15033	1343
2.15400	1287
2.15767	1230
2.16133	1174
2.16500	1124
2.16867	1080
2.17233	1041
2.17600	1005
2.17967	969
2.18333	936
2.18700	906
2.19067	879
2.19433	854
2.19800	832
2.20167	808
2.20533	785
2.20900	764
2.21267	742
2.21633	721
2.22000	701
2.22367	684
2.22733	674
2.23100	670
2.23467	663
2.23833	650
2.24200	632
2.24567	611
2.24933	590
2.25300	571
2.25667	557
2.26033	544
2.26400	533
2.26767	520
2.27133	507
2.27500	496
2.27867	487
2.28233	480
2.28600	475
2.28967	470
2.29333	465
2.29700	455
2.30067	444
2.30433	430
2.30800	414
2.31167	397
2.31533	389
2.31900	387
2.32267	386
2.32633	382
2.33000	374
2.33367	368
2.33733	363
2.34100	355
2.34467	344
2.34833	335
2.35200	329
2.35567	325
2.35933	320
2.36300	317
2.36667	313
2.37033	307
2.37400	300
2.37767	294
2.38133	288
2.38500	288
2.38867	289
2.39233	287
2.39600	282
2.39967	274
2.40333	265
2.40700	256
2.41067	251
2.41433	247
2.41800	243
2.42167	239
2.42533	236
2.42900	233
2.43267	232
2.43633	236
2.44000	238
2.44367	242
2.44733	244
2.45100	240
2.45467	233
2.45833	224
2.46200	214
2.46567	207
2.46933	206
2.47300	205
2.47667	202
2.48033	200
2.48400	199
2.48767	198
2.49133	195
2.49500	191
2.49867	187
2.50233	183
2.50600	177
2.50967	174
2.51333	174
2.51700	175
2.52067	172
2.52433	167
2.52800	159
2.53167	149
2.53533	141
2.53900	135
2.54267	132
2.54633	133
2.55000	136
2.55367	138
2.55733	143
2.56100	149
2.56467	155
2.56833	160
2.57200	166
2.57567	171
2.57933	171
2.58300	167
2.58667	164
2.59033	162
2.59400	156
2.59767	148
2.60133	140
2.60500	137
2.60867	138
2.61233	141
2.61600	141
2.61967	136
2.62333	129
2.62700	122
2.63067	117
2.63433	116
2.63800	117
2.64167	119
2.64533	124
2.64900	132
2.65267	139
2.65633	144
2.66000	146
2.66367	145
2.66733	142
2.67100	138
2.67467	138
2.67833	139
2.68200	141
2.68567	142
2.68933	141
2.69300	139
2.69667	138
2.70033	136
2.70400	131
2.70767	124
2.71133	118
2.71500	112
2.71867	108
2.72233	106
2.72600	107
2.72967	109
2.73333	111
2.73700	114
2.74067	117
2.74433	118
2.74800	115
2.75167	109
2.75533	103
2.75900	102
2.76267	109
2.76633	120
2.77000	128
2.77367	129
2.77733	127
2.78100	124
2.78467	120
2.78833	116
2.79200	113
2.79567	112
2.79933	112
2.80300	114
2.80667	116
2.81033	118
2.81400	117
2.81767	115
2.82133	112
2.82500	111
2.82867	114
2.83233	118
2.83600	119
2.83967	119
2.84333	116
2.84700	110
2.85067	106
2.85433	106
2.85800	106
2.86167	102
2.86533	100
2.86900	100
2.87267	104
2.87633	108
2.88000	113
2.88367	120
2.88733	125
2.89100	129
2.89467	126
2.89833	120
2.90200	113
2.90567	107
2.90933	101
2.91300	98
2.91667	93
2.92033	93
2.92400	96
2.92767	101
2.93133	104
2.93500	107
2.93867	111
2.94233	117
2.94600	123
2.94967	124
2.95333	121
2.95700	115
2.96067	107
2.96433	101
2.96800	101
2.97167	104
2.97533	104
2.97900	99
2.98267	95
2.98633	94
2.99000	94
2.99367	96
2.99733	98
3.00100	100
3.00467	102
3.00833	104
3.01200	109
3.01567	119
3.01933	129
3.02300	128
3.02667	116
3.03033	99
3.03400	84
3.03767	76
3.04133	72
3.04500	71
3.04867	70
3.05233	72
3.05600	76
3.05967	79
3.06333	80
3.06700	81
3.07067	81
3.07433	79
3.07800	77
3.08167	76
3.08533	76
3.08900	78
3.09267	81
3.09633	83
3.10000	87
3.10367	91
3.10733	96
3.11100	102
3.11467	106
3.11833	109
3.12200	110
3.12567	109
3.12933	106
3.13300	106
3.13667	108
3.14033	107
3.14400	105
3.14767	102
3.15133	98
3.15500	95
3.15867	94
3.16233	94
3.16600	95
3.16967	96
3.17333	97
3.17700	97
3.18067	96
3.18433	96
3.18800	93
3.19167	90
3.19533	86
3.19900	83
3.20267	81
3.20633	81
3.21000	82
3.21367	86
3.21733	92
3.22100	97
3.22467	100
3.22833	101
3.23200	101
3.23567	100
3.23933	100
3.24300	100
3.24667	99
3.25033	97
3.25400	96
3.25767	93
3.26133	87
3.26500	81
3.26867	78
3.27233	77
3.27600	78
3.27967	82
3.28333	87
3.28700	92
3.29067	95
3.29433	93
3.29800	86
3.30167	80
3.30533	79
3.30900	80
3.31267	83
3.31633	85
3.32000	86
3.32367	86
3.32733	85
3.33100	86
3.33467	89
3.33833	89
3.34200	86
3.34567	82
3.34933	79
3.35300	77
3.35667	78
3.36033	77
3.36400	74
3.36767	70
3.37133	66
3.37500	66
3.37867	69
3.38233	75
3.38600	80
3.38967	82
3.39333	82
3.39700	82
3.40067	80
3.40433	78
3.40800	76
3.41167	74
3.41533	72
3.41900	72
3.42267	73
3.42633	76
3.43000	82
3.43367	87
3.43733	91
3.44100	90
3.44467	87
3.44833	84
3.45200	79
3.45567	74
3.45933	69
3.46300	66
3.46667	65
3.47033	63
3.47400	56
3.47767	49
3.48133	46
3.48500	43
3.48867	44
3.49233	48
3.49600	52
3.49967	59
3.50333	64
3.50700	67
3.51067	66
3.51433	64
3.51800	64
3.52167	64
3.52533	66
3.52900	69
3.53267	69
3.53633	68
3.54000	64
3.54367	59
3.54733	53
3.55100	51
3.55467	53
3.55833	57
3.56200	58
3.56567	56
3.56933	54
3.57300	53
3.57667	53
3.58033	51
3.58400	48
3.58767	46
3.59133	44
3.59500	41
3.59867	37
3.60233	37
3.60600	39
3.60967	41
3.61333	44
3.61700	48
3.62067	52
3.62433	58
3.62800	64
3.63167	67
3.63533	63
3.63900	54
3.64267	43
3.64633	35
3.65000	34
3.65367	39
3.65733	44
3.66100	47
3.66467	48
3.66833	48
3.67200	49
3.67567	53
3.67933	57
3.68300	59
3.68667	55
3.69033	52
3.69400	50
3.69767	45
3.70133	41
3.70500	45
3.70867	51
3.71233	56
3.71600	60
3.71967	57
3.72333	47
3.72700	34
3.73067	24
3.73433	20
3.73800	21
3.74167	25
3.74533	31
3.74900	35
3.75267	40
3.75633	44
3.76000	46
3.76367	46
3.76733	48
3.77100	53
3.77467	57
3.77833	60
3.78200	58
3.78567	56
3.78933	55
3.79300	57
3.79667	59
3.80033	58
3.80400	50
3.80767	40
3.81133	32
3.81500	26
3.81867	24
3.82233	30
3.82600	36
3.82967	39
3.83333	38
3.83700	35
3.84067	30
3.84433	27
3.84800	27
3.85167	30
3.85533	33
3.85900	37
3.86267	39
3.86633	40
3.87000	39
3.87367	40
3.87733	44
3.88100	47
3.88467	47
3.88833	46
3.89200	45
3.89567	43
3.89933	39
3.90300	35
3.90667	34
3.91033	34
3.91400	38
3.91767	43
3.92133	50
3.92500	56
3.92867	62
3.93233	64
3.93600	61
3.93967	54
3.94333	51
3.94700	54
3.95067	60
3.95433	70
3.95800	80
3.96167	85
3.96533	86
3.96900	83
3.97267	77
3.97633	71
3.98000	66
3.98367	62
3.98733	58
3.99100	58
3.99467	60
3.99833	64

[Chromatogram (Ch2)]
Interval(msec)	220
# of Points	1091
Start Time(min)	0.002
End Time(min)	3.998
R.Time (min)	Intensity
0.00167	0
0.00533	1
0.00900	1
0.01267	1
0.01633	0
0.02000	0
0.02367	1
0.02733	1
0.03100	1
0.03467	1
0.03833	1
0.04200	2
0.04567	2
0.04933	2
0.05300	2
0.05667	2
0.06033	2
0.06400	2
0.06767	1
0.07133	1
0.07500	1
0.07867	1
0.08233	1
0.08600	1
0.08967	1
0.09333	1
0.09700	1
0.10067	0
0.10433	0
0.10800	0
0.11167	-0
0.11533	0
0.11900	0
0.12267	0
0.12633	1
0.13000	1
0.13367	2
0.13733	2
0.14100	3
0.14467	3
0.14833	3
0.15200	3
0.15567	3
0.15933	3
0.16300	3
0.16667	3
0.17033	3
0.17400	3
0.17767	2
0.18133	2
0.18500	1
0.18867	1
0.19233	1
0.19600	0
0.19967	0
0.20333	0
0.20700	0
0.21067	0
0.21433	0
0.21800	0
0.22167	-0
0.22533	-0
0.22900	-1
0.23267	-1
0.23633	-1
0.24000	-1
0.24367	-0
0.24733	-0
0.25100	0
0.25467	0
0.25833	0
0.26200	0
0.26567	0
0.26933	0
0.27300	0
0.27667	0
0.28033	0
0.28400	0
0.28767	0
0.29133	0
0.29500	0
0.29867	0
0.30233	0
0.30600	0
0.30967	1
0.31333	1
0.31700	1
0.32067	1
0.32433	1
0.32800	1
0.33167	1
0.33533	1
0.33900	1
0.34267	1
0.34633	1
0.35000	1
0.35367	1
0.35733	1
0.36100	1
0.36467	1
0.36833	1
0.37200	1
0.37567	1
0.37933	0
0.38300	0
0.38667	-0
0.39033	-0
0.39400	-0
0.39767	0
0.40133	0
0.40500	0
0.40867	0
0.41233	0
0.41600	0
0.41967	0
0.42333	0
0.42700	0
0.43067	0
0.43433	0
0.43800	0
0.44167	0
0.44533	-0
0.44900	-0
0.45267	-1
0.45633	-1
0.46000	-1
0.46367	-1
0.46733	-2
0.47100	-2
0.47467	-2
0.47833	-2
0.48200	-3
0.48567	-3
0.48933	-3
0.49300	-3
0.49667	-3
0.50033	-3
0.50400	-3
0.50767	-3
0.51133	-4
0.51500	-4
0.51867	-4
0.52233	-4
0.52600	-4
0.52967	-4
0.53333	-4
0.53700	-3
0.54067	-3
0.54433	-3
0.54800	-2
0.55167	-2
0.55533	-2
0.55900	-1
0.56267	-1
0.56633	-1
0.57000	-1
0.57367	-1
0.57733	-1
0.58100	-1
0.58467	-0
0.58833	-0
0.59200	-0
0.59567	0
0.59933	0
0.60300	0
0.60667	0
0.61033	0
0.61400	0
0.61767	0
0.62133	0
0.62500	0
0.62867	0
0.63233	0
0.63600	0
0.63967	-0
0.64333	-0
0.64700	-1
0.65067	-1
0.65433	-1
0.65800	-1
0.66167	-2
0.66533	-2
0.66900	-2
0.67267	-2
0.67633	-2
0.68000	-2
0.68367	-2
0.68733	-2
0.69100	-2
0.69467	-2
0.69833	-2
0.70200	-2
0.70567	-1
0.70933	-1
0.71300	-1
0.71667	-1
0.72033	-1
0.72400	-1
0.72767	-1
0.73133	-2
0.73500	-2
0.73867	-2
0.74233	-2
0.74600	-2
0.74967	-1
0.75333	-1
0.75700	-2
0.76067	-2
0.76433	-2
0.76800	-2
0.77167	-2
0.77533	-2
0.77900	-2
0.78267	-2
0.78633	-2
0.79000	-2
0.79367	-2
0.79733	-2
0.80100	-1
0.80467	-1
0.80833	-1
0.81200	-1
0.81567	-1
0.81933	-0
0.82300	-0
0.82667	-0
0.83033	0
0.83400	0
0.83767	0
0.84133	0
0.84500	0
0.84867	0
0.85233	1
0.85600	1
0.85967	1
0.86333	1
0.86700	0
0.87067	0
0.87433	0
0.87800	0
0.88167	-0
0.88533	-0
0.88900	-1
0.89267	-1
0.89633	-1
0.90000	-1
0.90367	-1
0.90733	-1
0.91100	-1
0.91467	-1
0.91833	-1
0.92200	-1
0.92567	-1
0.92933	-1
0.93300	-1
0.93667	-1
0.94033	-1
0.94400	-1
0.94767	-1
0.95133	-1
0.95500	-1
0.95867	-1
0.96233	-1
0.96600	-1
0.96967	-2
0.97333	-2
0.97700	-2
0.98067	-2
0.98433	-2
0.98800	-2
0.99167	-2
0.99533	-2
0.99900	-2
1.00267	-3
1.00633	-3
1.01000	-3
1.01367	-3
1.01733	-2
1.02100	-2
1.02467	-2
1.02833	-1
1.03200	-1
1.03567	-0
1.03933	-0
1.04300	0
1.04667	0
1.05033	0
1.05400	0
1.05767	0
1.06133	0
1.06500	0
1.06867	0
1.07233	-0
1.07600	-1
1.07967	-1
1.08333	-1
1.08700	-1
1.09067	-1
1.09433	-1
1.09800	-1
1.10167	-1
1.10533	-1
1.10900	-2
1.11267	-2
1.11633	-2
1.12000	-1
1.12367	-1
1.12733	-1
1.13100	-1
1.13467	-0
1.13833	-0
1.14200	0
1.14567	0
1.14933	-0
1.15300	-0
1.15667	-1
1.16033	-1
1.16400	-1
1.16767	-2
1.17133	-2
1.17500	-3
1.17867	-3
1.18233	-3
1.18600	-3
1.18967	-3
1.19333	-3
1.19700	-3
1.20067	-3
1.20433	-3
1.20800	-3
1.21167	-3
1.21533	-3
1.21900	-3
1.22267	-3
1.22633	-3
1.23000	-3
1.23367	-3
1.23733	-3
1.24100	-3
1.24467	-3
1.24833	-4
1.25200	-4
1.25567	-4
1.25933	-4
1.26300	-4
1.26667	-4
1.27033	-5
1.27400	-5
1.27767	-4
1.28133	-4
1.28500	-4
1.28867	-4
1.29233	-3
1.29600	-3
1.29967	-3
1.30333	-3
1.30700	-3
1.31067	-3
1.31433	-3
1.31800	-4
1.32167	-4
1.32533	-5
1.32900	-5
1.33267	-5
1.33633	-5
1.34000	-6
1.34367	-6
1.34733	-6
1.35100	-6
1.35467	-6
1.35833	-6
1.36200	-6
1.36567	-6
1.36933	-5
1.37300	-5
1.37667	-5
1.38033	-4
1.38400	-4
1.38767	-4
1.39133	-4
1.39500	-3
1.39867	-4
1.40233	-4
1.40600	-4
1.40967	-4
1.41333	-4
1.41700	-4
1.42067	-4
1.42433	-4
1.42800	-4
1.43167	-4
1.43533	-5
1.43900	-5
1.44267	-5
1.44633	-5
1.45000	-4
1.45367	-4
1.45733	-4
1.46100	-4
1.46467	-4
1.46833	-4
1.47200	-4
1.47567	-4
1.47933	-4
1.48300	-4
1.48667	-4
1.49033	-4
1.49400	-4
1.49767	-4
1.50133	-3
1.50500	-3
1.50867	-3
1.51233	-3
1.51600	-3
1.51967	-3
1.52333	-3
1.52700	-3
1.53067	-2
1.53433	-2
1.53800	-2
1.54167	-2
1.54533	-2
1.54900	-2
1.55267	-2
1.55633	-2
1.56000	-3
1.56367	-3
1.56733	-3
1.57100	-3
1.57467	-4
1.57833	-4
1.58200	-4
1.58567	-4
1.58933	-4
1.59300	-4
1.59667	-4
1.60033	-5
1.60400	-6
1.60767	-7
1.61133	-9
1.61500	-10
1.61867	-12
1.62233	-14
1.62600	-17
1.62967	-20
1.63333	-24
1.63700	-27
1.64067	-30
1.64433	-34
1.64800	-37
1.65167	-40
1.65533	-44
1.65900	-47
1.66267	-50
1.66633	-54
1.67000	-57
1.67367	-61
1.67733	-65
1.68100	-69
1.68467	-73
1.68833	-78
1.69200	-82
1.69567	-85
1.69933	-88
1.70300	-90
1.70667	-92
1.71033	-94
1.71400	-95
1.71767	-97
1.72133	-97
1.72500	-98
1.72867	-99
1.73233	-100
1.73600	-100
1.73967	-101
1.74333	-101
1.74700	-101
1.75067	-102
1.75433	-102
1.75800	-102
1.76167	-102
1.76533	-103
1.76900	-103
1.77267	-103
1.77633	-103
1.78000	-103
1.78367	-103
1.78733	-104
1.79100	-104
1.79467	-105
1.79833	-105
1.80200	-105
1.80567	-105
1.80933	-105
1.81300	-104
1.81667	-104
1.82033	-104
1.82400	-104
1.82767	-104
1.83133	-104
1.83500	-104
1.83867	-105
1.84233	-104
1.84600	-104
1.84967	-104
1.85333	-104
1.85700	-103
1.86067	-104
1.86433	-104
1.86800	-104
1.87167	-105
1.87533	-105
1.87900	-105
1.88267	-104
1.88633	-104
1.89000	-104
1.89367	-104
1.89733	-104
1.90100	-104
1.90467	-104
1.90833	-104
1.91200	-103
1.91567	-103
1.91933	-103
1.92300	-102
1.92667	-102
1.93033	-101
1.93400	-101
1.93767	-101
1.94133	-100
1.94500	-100
1.94867	-100
1.95233	-99
1.95600	-99
1.95967	-99
1.96333	-99
1.96700	-99
1.97067	-99
1.97433	-99
1.97800	-98
1.98167	-98
1.98533	-98
1.98900	-98
1.99267	-98
1.99633	-98
2.00000	-98
2.00367	-97
2.00733	-97
2.01100	-96
2.01467	-95
2.01833	-95
2.02200	-94
2.02567	-94
2.02933	-93
2.03300	-93
2.03667	-93
2.04033	-93
2.04400	-93
2.04767	-93
2.05133	-93
2.05500	-93
2.05867	-93
2.06233	-93
2.06600	-93
2.06967	-92
2.07333	-92
2.07700	-92
2.08067	-92
2.08433	-92
2.08800	-91
2.09167	-91
2.09533	-90
2.09900	-90
2.10267	-89
2.10633	-89
2.11000	-88
2.11367	-88
2.11733	-87
2.12100	-87
2.12467	-87
2.12833	-86
2.13200	-86
2.13567	-86
2.13933	-86
2.14300	-86
2.14667	-86
2.15033	-85
2.15400	-85
2.15767	-85
2.16133	-85
2.16500	-86
2.16867	-87
2.17233	-88
2.17600	-89
2.17967	-90
2.18333	-90
2.18700	-90
2.19067	-90
2.19433	-89
2.19800	-88
2.20167	-87
2.20533	-86
2.20900	-85
2.21267	-84
2.21633	-82
2.22000	-81
2.22367	-81
2.22733	-80
2.23100	-80
2.23467	-80
2.23833	-80
2.24200	-80
2.24567	-81
2.24933	-81
2.25300	-81
2.25667	-80
2.26033	-80
2.26400	-79
2.26767	-79
2.27133	-79
2.27500	-78
2.27867	-78
2.28233	-78
2.28600	-77
2.28967	-77
2.29333	-77
2.29700	-77
2.30067	-76
2.30433	-76
2.30800	-75
2.31167	-75
2.31533	-74
2.31900	-73
2.32267	-73
2.32633	-72
2.33000	-72
2.33367	-71
2.33733	-70
2.34100	-69
2.34467	-69
2.34833	-68
2.35200	-67
2.35567	-66
2.35933	-66
2.36300	-65
2.36667	-64
2.37033	-62
2.37400	-61
2.37767	-59
2.38133	-56
2.38500	-53
2.38867	-50
2.39233	-46
2.39600	-42
2.39967	-38
2.40333	-34
2.40700	-29
2.41067	-25
2.41433	-20
2.41800	-17
2.42167	-14
2.42533	-11
2.42900	-9
2.43267	-7
2.43633	-5
2.44000	-3
2.44367	-1
2.44733	1
2.45100	2
2.45467	4
2.45833	5
2.46200	6
2.46567	7
2.46933	8
2.47300	10
2.47667	11
2.48033	12
2.48400	13
2.48767	14
2.49133	14
2.49500	14
2.49867	15
2.50233	15
2.50600	15
2.50967	15
2.51333	14
2.51700	14
2.52067	13
2.52433	12
2.52800	11
2.53167	11
2.53533	11
2.53900	11
2.54267	11
2.54633	11
2.55000	12
2.55367	12
2.55733	12
2.56100	12
2.56467	12
2.56833	13
2.57200	14
2.57567	14
2.57933	15
2.58300	16
2.58667	17
2.59033	17
2.59400	18
2.59767	19
2.60133	19
2.60500	20
2.60867	20
2.61233	21
2.61600	21
2.61967	21
2.62333	22
2.62700	22
2.63067	22
2.63433	22
2.63800	22
2.64167	22
2.64533	22
2.64900	22
2.65267	22
2.65633	22
2.66000	22
2.66367	22
2.66733	22
2.67100	23
2.67467	23
2.67833	24
2.68200	24
2.68567	24
2.68933	24
2.69300	24
2.69667	24
2.70033	24
2.70400	24
2.70767	24
2.71133	25
2.71500	25
2.71867	25
2.72233	25
2.72600	25
2.72967	25
2.73333	26
2.73700	26
2.74067	27
2.74433	27
2.74800	27
2.75167	28
2.75533	28
2.75900	27
2.76267	27
2.76633	27
2.77000	26
2.77367	26
2.77733	26
2.78100	26
2.78467	26
2.78833	26
2.79200	26
2.79567	26
2.79933	26
2.80300	26
2.80667	26
2.81033	26
2.81400	26
2.81767	26
2.82133	26
2.82500	26
2.82867	26
2.83233	26
2.83600	26
2.83967	26
2.84333	26
2.84700	27
2.85067	27
2.85433	27
2.85800	26
2.86167	24
2.86533	21
2.86900	15
2.87267	6
2.87633	-8
2.88000	-26
2.88367	-50
2.88733	-80
2.89100	-115
2.89467	-158
2.89833	-206
2.90200	-261
2.90567	-321
2.90933	-387
2.91300	-457
2.91667	-533
2.92033	-612
2.92400	-696
2.92767	-782
2.93133	-871
2.93500	-963
2.93867	-1056
2.94233	-1152
2.94600	-1249
2.94967	-1347
2.95333	-1437
2.95700	-1507
2.96067	-1545
2.96433	-1545
2.96800	-1510
2.97167	-1444
2.97533	-1356
2.97900	-1253
2.98267	-1143
2.98633	-1030
2.99000	-920
2.99367	-816
2.99733	-718
3.00100	-628
3.00467	-547
3.00833	-474
3.01200	-410
3.01567	-353
3.01933	-303
3.02300	-260
3.02667	-222
3.03033	-190
3.03400	-161
3.03767	-137
3.04133	-116
3.04500	-97
3.04867	-82
3.05233	-68
3.05600	-57
3.05967	-47
3.06333	-39
3.06700	-32
3.07067	-26
3.07433	-21
3.07800	-17
3.08167	-13
3.08533	-9
3.08900	-6
3.09267	-4
3.09633	-2
3.10000	0
3.10367	2
3.10733	3
3.11100	5
3.11467	6
3.11833	7
3.12200	7
3.12567	8
3.12933	9
3.13300	10
3.13667	10
3.14033	11
3.14400	11
3.14767	12
3.15133	13
3.15500	13
3.15867	14
3.16233	15
3.16600	16
3.16967	17
3.17333	17
3.17700	18
3.18067	18
3.18433	19
3.18800	19
3.19167	19
3.19533	19
3.19900	19
3.20267	20
3.20633	20
3.21000	20
3.21367	20
3.21733	20
3.22100	20
3.22467	20
3.22833	20
3.23200	20
3.23567	20
3.23933	20
3.24300	21
3.24667	21
3.25033	21
3.25400	21
3.25767	22
3.26133	22
3.26500	22
3.26867	22
3.27233	22
3.27600	23
3.27967	23
3.28333	23
3.28700	23
3.29067	23
3.29433	23
3.29800	23
3.30167	23
3.30533	23
3.30900	23
3.31267	24
3.31633	24
3.32000	24
3.32367	25
3.32733	25
3.33100	25
3.33467	26
3.33833	26
3.34200	26
3.34567	26
3.34933	27
3.35300	27
3.35667	27
3.36033	28
3.36400	28
3.36767	28
3.37133	28
3.37500	28
3.37867	28
3.38233	28
3.38600	28
3.38967	28
3.39333	27
3.39700	27
3.40067	27
3.40433	27
3.40800	27
3.41167	27
3.41533	27
3.41900	27
3.42267	28
3.42633	28
3.43000	28
3.43367	28
3.43733	28
3.44100	28
3.44467	28
3.44833	28
3.45200	28
3.45567	28
3.45933	28
3.46300	28
3.46667	28
3.47033	28
3.47400	28
3.47767	28
3.48133	28
3.48500	28
3.48867	28
3.49233	28
3.49600	28
3.49967	28
3.50333	28
3.50700	28
3.51067	28
3.51433	29
3.51800	29
3.52167	29
3.52533	29
3.52900	29
3.53267	28
3.53633	28
3.54000	28
3.54367	28
3.54733	27
3.55100	27
3.55467	27
3.55833	26
3.56200	26
3.56567	26
3.56933	26
3.57300	26
3.57667	26
3.58033	26
3.58400	26
3.58767	26
3.59133	26
3.59500	26
3.59867	26
3.60233	26
3.60600	26
3.60967	26
3.61333	26
3.61700	27
3.62067	27
3.62433	27
3.62800	27
3.63167	27
3.63533	27
3.63900	27
3.64267	27
3.64633	26
3.65000	26
3.65367	26
3.65733	26
3.66100	26
3.66467	26
3.66833	25
3.67200	26
3.67567	26
3.67933	26
3.68300	26
3.68667	26
3.69033	26
3.69400	26
3.69767	27
3.70133	27
3.70500	27
3.70867	27
3.71233	27
3.71600	27
3.71967	27
3.72333	27
3.72700	27
3.73067	26
3.73433	26
3.73800	26
3.74167	26
3.74533	26
3.74900	26
3.75267	26
3.75633	26
3.76000	26
3.76367	26
3.76733	27
3.77100	27
3.77467	27
3.77833	27
3.78200	27
3.78567	27
3.78933	27
3.79300	28
3.79667	28
3.80033	28
3.80400	28
3.80767	28
3.81133	28
3.81500	28
3.81867	27
3.82233	27
3.82600	27
3.82967	27
3.83333	26
3.83700	26
3.84067	26
3.84433	26
3.84800	26
3.85167	26
3.85533	26
3.85900	27
3.86267	27
3.86633	27
3.87000	27
3.87367	27
3.87733	27
3.88100	26
3.88467	26
3.88833	26
3.89200	26
3.89567	26
3.89933	26
3.90300	27
3.90667	27
3.91033	27
3.91400	27
3.91767	27
3.92133	27
3.92500	27
3.92867	27
3.93233	27
3.93600	27
3.93967	27
3.94333	27
3.94700	28
3.95067	28
3.95433	28
3.95800	28
3.96167	28
3.96533	28
3.96900	28
3.97267	28
3.97633	28
3.98000	28
3.98367	27
3.98733	27
3.99100	27
3.99467	27
3.99833	27

[Chromatogram (Ch3)]
Interval(msec)	220
# of Points	1091
Start Time(min)	0.002
End Time(min)	3.998
R.Time (min)	Intensity
0.00167	0
0.00533	1
0.00900	-1
0.01267	-3
0.01633	-4
0.02000	-7
0.02367	-8
0.02733	-7
0.03100	-5
0.03467	-3
0.03833	-3
0.04200	-2
0.04567	-4
0.04933	-6
0.05300	-6
0.05667	-5
0.06033	-4
0.06400	-2
0.06767	-1
0.07133	-0
0.07500	1
0.07867	2
0.08233	2
0.08600	2
0.08967	1
0.09333	1
0.09700	-0
0.10067	-0
0.10433	2
0.10800	4
0.11167	3
0.11533	3
0.11900	3
0.12267	3
0.12633	3
0.13000	4
0.13367	3
0.13733	3
0.14100	2
0.14467	1
0.14833	0
0.15200	0
0.15567	-1
0.15933	-4
0.16300	-3
0.16667	-3
0.17033	-2
0.17400	-0
0.17767	-1
0.18133	-1
0.18500	-1
0.18867	-0
0.19233	1
0.19600	1
0.19967	-1
0.20333	-2
0.20700	-3
0.21067	-2
0.21433	-1
0.21800	1
0.22167	3
0.22533	7
0.22900	10
0.23267	10
0.23633	9
0.24000	9
0.24367	10
0.24733	10
0.25100	9
0.25467	9
0.25833	9
0.26200	8
0.26567	7
0.26933	8
0.27300	8
0.27667	6
0.28033	6
0.28400	6
0.28767	7
0.29133	8
0.29500	6
0.29867	3
0.30233	0
0.30600	1
0.30967	3
0.31333	5
0.31700	7
0.32067	8
0.32433	9
0.32800	10
0.33167	10
0.33533	11
0.33900	11
0.34267	12
0.34633	13
0.35000	12
0.35367	9
0.35733	7
0.36100	8
0.36467	9
0.36833	11
0.37200	11
0.37567	10
0.37933	10
0.38300	10
0.38667	9
0.39033	9
0.39400	8
0.39767	9
0.40133	10
0.40500	10
0.40867	9
0.41233	9
0.41600	8
0.41967	6
0.42333	3
0.42700	3
0.43067	4
0.43433	5
0.43800	6
0.44167	8
0.44533	8
0.44900	6
0.45267	7
0.45633	6
0.46000	5
0.46367	5
0.46733	7
0.47100	8
0.47467	8
0.47833	8
0.48200	9
0.48567	9
0.48933	10
0.49300	11
0.49667	10
0.50033	10
0.50400	11
0.50767	10
0.51133	9
0.51500	7
0.51867	7
0.52233	8
0.52600	10
0.52967	12
0.53333	14
0.53700	13
0.54067	11
0.54433	10
0.54800	9
0.55167	8
0.55533	9
0.55900	11
0.56267	13
0.56633	13
0.57000	13
0.57367	12
0.57733	11
0.58100	10
0.58467	10
0.58833	10
0.59200	9
0.59567	9
0.59933	8
0.60300	10
0.60667	13
0.61033	13
0.61400	13
0.61767	13
0.62133	12
0.62500	10
0.62867	10
0.63233	11
0.63600	12
0.63967	13
0.64333	14
0.64700	15
0.65067	15
0.65433	14
0.65800	13
0.66167	12
0.66533	13
0.66900	16
0.67267	18
0.67633	17
0.68000	17
0.68367	18
0.68733	18
0.69100	18
0.69467	15
0.69833	14
0.70200	13
0.70567	13
0.70933	12
0.71300	12
0.71667	11
0.72033	9
0.72400	10
0.72767	11
0.73133	12
0.73500	13
0.73867	14
0.74233	14
0.74600	15
0.74967	15
0.75333	13
0.75700	14
0.76067	15
0.76433	18
0.76800	17
0.77167	17
0.77533	15
0.77900	14
0.78267	15
0.78633	15
0.79000	16
0.79367	13
0.79733	11
0.80100	11
0.80467	14
0.80833	16
0.81200	18
0.81567	17
0.81933	19
0.82300	19
0.82667	18
0.83033	16
0.83400	16
0.83767	16
0.84133	14
0.84500	14
0.84867	15
0.85233	16
0.85600	17
0.85967	18
0.86333	18
0.86700	17
0.87067	17
0.87433	18
0.87800	18
0.88167	17
0.88533	16
0.88900	15
0.89267	15
0.89633	14
0.90000	13
0.90367	13
0.90733	12
0.91100	9
0.91467	10
0.91833	14
0.92200	14
0.92567	12
0.92933	13
0.93300	12
0.93667	13
0.94033	14
0.94400	15
0.94767	14
0.95133	14
0.95500	15
0.95867	16
0.96233	15
0.96600	16
0.96967	15
0.97333	14
0.97700	14
0.98067	13
0.98433	12
0.98800	13
0.99167	13
0.99533	13
0.99900	14
1.00267	15
1.00633	16
1.01000	18
1.01367	19
1.01733	17
1.02100	15
1.02467	14
1.02833	13
1.03200	11
1.03567	10
1.03933	10
1.04300	13
1.04667	14
1.05033	14
1.05400	13
1.05767	12
1.06133	12
1.06500	12
1.06867	13
1.07233	14
1.07600	14
1.07967	14
1.08333	13
1.08700	11
1.09067	11
1.09433	13
1.09800	16
1.10167	17
1.10533	17
1.10900	17
1.11267	17
1.11633	17
1.12000	17
1.12367	18
1.12733	17
1.13100	15
1.13467	14
1.13833	15
1.14200	14
1.14567	13
1.14933	13
1.15300	12
1.15667	11
1.16033	12
1.16400	13
1.16767	15
1.17133	18
1.17500	18
1.17867	16
1.18233	14
1.18600	16
1.18967	17
1.19333	17
1.19700	16
1.20067	14
1.20433	14
1.20800	14
1.21167	14
1.21533	12
1.21900	11
1.22267	11
1.22633	15
1.23000	18
1.23367	19
1.23733	20
1.24100	21
1.24467	19
1.24833	16
1.25200	13
1.25567	12
1.25933	14
1.26300	15
1.26667	16
1.27033	16
1.27400	16
1.27767	18
1.28133	19
1.28500	20
1.28867	18
1.29233	19
1.29600	19
1.29967	21
1.30333	22
1.30700	22
1.31067	20
1.31433	18
1.31800	16
1.32167	15
1.32533	16
1.32900	14
1.33267	14
1.33633	16
1.34000	19
1.34367	21
1.34733	22
1.35100	22
1.35467	22
1.35833	20
1.36200	18
1.36567	18
1.36933	21
1.37300	22
1.37667	24
1.38033	23
1.38400	21
1.38767	20
1.39133	18
1.39500	16
1.39867	16
1.40233	16
1.40600	13
1.40967	13
1.41333	15
1.41700	16
1.42067	17
1.42433	19
1.42800	21
1.43167	22
1.43533	21
1.43900	20
1.44267	20
1.44633	20
1.45000	19
1.45367	18
1.45733	17
1.46100	17
1.46467	17
1.46833	17
1.47200	18
1.47567	18
1.47933	18
1.48300	17
1.48667	17
1.49033	16
1.49400	15
1.49767	16
1.50133	16
1.50500	15
1.50867	15
1.51233	15
1.51600	17
1.51967	20
1.52333	20
1.52700	20
1.53067	17
1.53433	14
1.53800	13
1.54167	13
1.54533	13
1.54900	13
1.55267	16
1.55633	19
1.56000	18
1.56367	16
1.56733	15
1.57100	16
1.57467	16
1.57833	17
1.58200	16
1.58567	17
1.58933	15
1.59300	12
1.59667	11
1.60033	12
1.60400	13
1.60767	14
1.61133	13
1.61500	13
1.61867	14
1.62233	18
1.62600	20
1.62967	21
1.63333	21
1.63700	23
1.64067	22
1.64433	21
1.64800	18
1.65167	18
1.65533	20
1.65900	21
1.66267	21
1.66633	22
1.67000	22
1.67367	24
1.67733	26
1.68100	28
1.68467	28
1.68833	26
1.69200	26
1.69567	26
1.69933	27
1.70300	29
1.70667	29
1.71033	29
1.71400	29
1.71767	29
1.72133	32
1.72500	33
1.72867	34
1.73233	33
1.73600	33
1.73967	33
1.74333	34
1.74700	37
1.75067	39
1.75433	42
1.75800	43
1.76167	45
1.76533	43
1.76900	41
1.77267	41
1.77633	41
1.78000	41
1.78367	41
1.78733	40
1.79100	40
1.79467	38
1.79833	39
1.80200	41
1.80567	42
1.80933	43
1.81300	46
1.81667	48
1.82033	51
1.82400	52
1.82767	52
1.83133	54
1.83500	55
1.83867	55
1.84233	55
1.84600	57
1.84967	56
1.85333	54
1.85700	53
1.86067	54
1.86433	54
1.86800	54
1.87167	54
1.87533	53
1.87900	54
1.88267	55
1.88633	57
1.89000	58
1.89367	61
1.89733	61
1.90100	60
1.90467	60
1.90833	61
1.91200	63
1.91567	64
1.91933	66
1.92300	68
1.92667	69
1.93033	69
1.93400	70
1.93767	72
1.94133	72
1.94500	73
1.94867	74
1.95233	75
1.95600	76
1.95967	76
1.96333	76
1.96700	76
1.97067	77
1.97433	78
1.97800	81
1.98167	83
1.98533	83
1.98900	86
1.99267	88
1.99633	91
2.00000	93
2.00367	93
2.00733	92
2.01100	92
2.01467	91
2.01833	90
2.02200	92
2.02567	94
2.02933	99
2.03300	99
2.03667	97
2.04033	97
2.04400	100
2.04767	102
2.05133	101
2.05500	100
2.05867	97
2.06233	97
2.06600	99
2.06967	102
2.07333	103
2.07700	104
2.08067	104
2.08433	105
2.08800	105
2.09167	103
2.09533	104
2.09900	109
2.10267	113
2.10633	116
2.11000	115
2.11367	116
2.11733	117
2.12100	117
2.12467	119
2.12833	119
2.13200	119
2.13567	120
2.13933	121
2.14300	124
2.14667	125
2.15033	124
2.15400	122
2.15767	121
2.16133	122
2.16500	123
2.16867	125
2.17233	127
2.17600	130
2.17967	133
2.18333	135
2.18700	136
2.19067	137
2.19433	137
2.19800	137
2.20167	134
2.20533	132
2.20900	130
2.21267	130
2.21633	131
2.22000	131
2.22367	132
2.22733	134
2.23100	136
2.23467	138
2.23833	140
2.24200	142
2.24567	145
2.24933	145
2.25300	143
2.25667	142
2.26033	142
2.26400	142
2.26767	143
2.27133	142
2.27500	143
2.27867	146
2.28233	149
2.28600	151
2.28967	154
2.29333	155
2.29700	155
2.30067	154
2.30433	152
2.30800	151
2.31167	151
2.31533	153
2.31900	153
2.32267	153
2.32633	153
2.33000	154
2.33367	153
2.33733	150
2.34100	149
2.34467	150
2.34833	151
2.35200	153
2.35567	156
2.35933	158
2.36300	160
2.36667	162
2.37033	162
2.37400	160
2.37767	157
2.38133	154
2.38500	154
2.38867	154
2.39233	157
2.39600	159
2.39967	161
2.40333	164
2.40700	166
2.41067	166
2.41433	165
2.41800	166
2.42167	167
2.42533	170
2.42900	171
2.43267	170
2.43633	170
2.44000	173
2.44367	216
2.44733	312
2.45100	419
2.45467	513
2.45833	591
2.46200	654
2.46567	698
2.46933	730
2.47300	757
2.47667	781
2.48033	808
2.48400	838
2.48767	864
2.49133	883
2.49500	894
2.49867	895
2.50233	889
2.50600	884
2.50967	883
2.51333	885
2.51700	887
2.52067	890
2.52433	894
2.52800	899
2.53167	906
2.53533	916
2.53900	928
2.54267	941
2.54633	951
2.55000	954
2.55367	955
2.55733	950
2.56100	941
2.56467	929
2.56833	916
2.57200	902
2.57567	891
2.57933	882
2.58300	872
2.58667	864
2.59033	856
2.59400	850
2.59767	848
2.60133	846
2.60500	845
2.60867	845
2.61233	844
2.61600	843
2.61967	841
2.62333	838
2.62700	833
2.63067	830
2.63433	828
2.63800	824
2.64167	820
2.64533	819
2.64900	821
2.65267	823
2.65633	823
2.66000	824
2.66367	826
2.66733	824
2.67100	821
2.67467	820
2.67833	821
2.68200	820
2.68567	816
2.68933	810
2.69300	803
2.69667	797
2.70033	792
2.70400	785
2.70767	778
2.71133	772
2.71500	766
2.71867	761
2.72233	755
2.72600	749
2.72967	743
2.73333	736
2.73700	731
2.74067	730
2.74433	729
2.74800	730
2.75167	730
2.75533	731
2.75900	731
2.76267	731
2.76633	730
2.77000	728
2.77367	727
2.77733	728
2.78100	730
2.78467	731
2.78833	733
2.79200	732
2.79567	730
2.79933	730
2.80300	731
2.80667	732
2.81033	732
2.81400	733
2.81767	734
2.82133	734
2.82500	736
2.82867	741
2.83233	756
2.83600	793
2.83967	885
2.84333	1072
2.84700	1414
2.85067	1974
2.85433	2797
2.85800	3902
2.86167	5267
2.86533	6826
2.86900	8479
2.87267	10101
2.87633	11557
2.88000	12735
2.88367	13555
2.88733	13985
2.89100	14033
2.89467	13745
2.89833	13194
2.90200	12450
2.90567	11583
2.90933	10658
2.91300	9719
2.91667	8805
2.92033	7940
2.92400	7134
2.92767	6394
2.93133	5724
2.93500	5121
2.93867	4584
2.94233	4106
2.94600	3683
2.94967	3313
2.95333	2989
2.95700	2701
2.96067	2447
2.96433	2224
2.96800	2032
2.97167	1864
2.97533	1716
2.97900	1587
2.98267	1474
2.98633	1375
2.99000	1292
2.99367	1219
2.99733	1156
3.00100	1098
3.00467	1047
3.00833	1002
3.01200	964
3.01567	931
3.01933	900
3.02300	874
3.02667	851
3.03033	829
3.03400	811
3.03767	796
3.04133	781
3.04500	765
3.04867	753
3.05233	743
3.05600	732
3.05967	721
3.06333	712
3.06700	707
3.07067	702
3.07433	697
3.07800	691
3.08167	685
3.08533	680
3.08900	675
3.09267	670
3.09633	667
3.10000	663
3.10367	659
3.10733	655
3.11100	651
3.11467	645
3.11833	642
3.12200	641
3.12567	637
3.12933	631
3.13300	628
3.13667	626
3.14033	624
3.14400	622
3.14767	621
3.15133	618
3.15500	617
3.15867	615
3.16233	615
3.16600	612
3.16967	610
3.17333	606
3.17700	603
3.18067	599
3.18433	597
3.18800	594
3.19167	591
3.19533	588
3.19900	586
3.20267	585
3.20633	581
3.21000	576
3.21367	574
3.21733	571
3.22100	571
3.22467	569
3.22833	567
3.23200	564
3.23567	561
3.23933	558
3.24300	558
3.24667	557
3.25033	557
3.25400	556
3.25767	554
3.26133	550
3.26500	546
3.26867	541
3.27233	538
3.27600	538
3.27967	538
3.28333	540
3.28700	538
3.29067	533
3.29433	531
3.29800	532
3.30167	531
3.30533	527
3.30900	523
3.31267	522
3.31633	520
3.32000	518
3.32367	517
3.32733	517
3.33100	517
3.33467	515
3.33833	513
3.34200	509
3.34567	505
3.34933	503
3.35300	502
3.35667	500
3.36033	499
3.36400	498
3.36767	497
3.37133	496
3.37500	494
3.37867	491
3.38233	488
3.38600	486
3.38967	484
3.39333	482
3.39700	479
3.40067	477
3.40433	477
3.40800	475
3.41167	475
3.41533	476
3.41900	474
3.42267	472
3.42633	470
3.43000	467
3.43367	463
3.43733	459
3.44100	455
3.44467	454
3.44833	456
3.45200	457
3.45567	455
3.45933	452
3.46300	449
3.46667	446
3.47033	444
3.47400	443
3.47767	442
3.48133	444
3.48500	445
3.48867	445
3.49233	447
3.49600	448
3.49967	448
3.50333	447
3.50700	445
3.51067	442
3.51433	439
3.51800	438
3.52167	435
3.52533	433
3.52900	435
3.53267	437
3.53633	435
3.54000	433
3.54367	434
3.54733	433
3.55100	432
3.55467	430
3.55833	429
3.56200	428
3.56567	428
3.56933	428
3.57300	426
3.57667	422
3.58033	421
3.58400	420
3.58767	419
3.59133	418
3.59500	417
3.59867	414
3.60233	413
3.60600	411
3.60967	411
3.61333	410
3.61700	410
3.62067	409
3.62433	407
3.62800	406
3.63167	406
3.63533	406
3.63900	404
3.64267	404
3.64633	402
3.65000	401
3.65367	400
3.65733	399
3.66100	397
3.66467	396
3.66833	396
3.67200	395
3.67567	394
3.67933	392
3.68300	388
3.68667	387
3.69033	386
3.69400	385
3.69767	387
3.70133	388
3.70500	390
3.70867	389
3.71233	388
3.71600	386
3.71967	384
3.72333	383
3.72700	380
3.73067	375
3.73433	372
3.73800	370
3.74167	372
3.74533	372
3.74900	373
3.75267	373
3.75633	371
3.76000	370
3.76367	366
3.76733	362
3.77100	359
3.77467	358
3.77833	357
3.78200	354
3.78567	353
3.78933	350
3.79300	346
3.79667	342
3.80033	341
3.80400	340
3.80767	338
3.81133	335
3.81500	333
3.81867	333
3.82233	334
3.82600	333
3.82967	331
3.83333	332
3.83700	333
3.84067	333
3.84433	330
3.84800	328
3.85167	325
3.85533	326
3.85900	326
3.86267	323
3.86633	321
3.87000	319
3.87367	315
3.87733	311
3.88100	307
3.88467	305
3.88833	304
3.89200	303
3.89567	303
3.89933	301
3.90300	300
3.90667	299
3.91033	296
3.91400	294
3.91767	292
3.92133	289
3.92500	288
3.92867	285
3.93233	284
3.93600	282
3.93967	279
3.94333	278
3.94700	278
3.95067	277
3.95433	276
3.95800	275
3.96167	275
3.96533	274
3.96900	273
3.97267	272
3.97633	269
3.98000	264
3.98367	261
3.98733	259
3.99100	258
3.99467	256
3.99833	253

[Status Trace (Column Oven Temperature)]
Interval(msec)	1000
# of Points	240
Start Time(min)	0.013
End Time(min)	3.996
Intensity Units	
Intensity Multiplier	1
R.Time (min)	Intensity
0.01267	35.06
0.02933	35.04
0.04600	35.05
0.06267	35.06
0.07933	35.08
0.09600	35.09
0.11267	35.09
0.12933	35.08
0.14600	35.06
0.16267	35.05
0.17933	35.04
0.19600	35.04
0.21267	35.05
0.22933	35.05
0.24600	35.06
0.26267	35.04
0.27933	35.05
0.29600	35.04
0.31267	35.02
0.32933	35.02
0.34600	35.01
0.36267	35.01
0.37933	35.00
0.39600	35.01
0.41267	35.00
0.42933	35.00
0.44600	35.00
0.46267	35.00
0.47933	35.02
0.49600	35.04
0.51267	35.05
0.52933	35.05
0.54600	35.04
0.56267	35.04
0.57933	35.04
0.59600	35.03
0.61267	35.02
0.62933	35.01
0.64600	35.01
0.66267	35.02
0.67933	35.02
0.69600	35.02
0.71267	35.02
0.72933	35.02
0.74600	35.02
0.76267	35.03
0.77933	35.02
0.79600	35.02
0.81267	35.02
0.82933	35.02
0.84600	35.01
0.86267	35.01
0.87933	35.02
0.89600	35.01
0.91267	35.01
0.92933	35.01
0.94600	35.01
0.96267	35.01
0.97933	35.01
0.99600	35.02
1.01267	35.02
1.02933	35.00
1.04600	34.98
1.06267	34.98
1.07933	34.98
1.09600	34.98
1.11267	34.97
1.12933	34.97
1.14600	34.96
1.16267	34.96
1.17933	34.97
1.19600	34.97
1.21267	34.97
1.22933	34.97
1.24600	34.98
1.26267	34.99
1.27933	34.98
1.29600	34.98
1.31267	34.99
1.32933	35.00
1.34600	35.02
1.36267	35.02
1.37933	35.01
1.39600	35.01
1.41267	35.01
1.42933	35.01
1.44600	35.02
1.46267	35.02
1.47933	35.02
1.49600	35.02
1.51267	35.02
1.52933	35.02
1.54600	35.02
1.56267	35.02
1.57933	35.03
1.59600	35.04
1.61267	35.10
1.62933	35.25
1.64600	35.45
1.66267	35.70
1.67933	36.03
1.69600	36.39
1.71267	36.74
1.72933	37.08
1.74600	37.41
1.76267	37.75
1.77933	38.07
1.79600	38.41
1.81267	38.74
1.82933	39.07
1.84600	39.39
1.86267	39.71
1.87933	40.05
1.89600	40.38
1.91267	40.71
1.92933	41.03
1.94600	41.35
1.96267	41.68
1.97933	42.01
1.99600	42.34
2.01267	42.65
2.02933	42.96
2.04600	43.30
2.06267	43.60
2.07933	43.94
2.09600	44.27
2.11267	44.58
2.12933	44.91
2.14600	45.23
2.16267	45.56
2.17933	45.94
2.19600	46.29
2.21267	46.61
2.22933	46.92
2.24600	47.26
2.26267	47.59
2.27933	47.91
2.29600	48.24
2.31267	48.56
2.32933	48.91
2.34600	49.19
2.36267	49.48
2.37933	49.67
2.39600	49.72
2.41267	49.71
2.42933	49.72
2.44600	49.72
2.46267	49.73
2.47933	49.73
2.49600	49.73
2.51267	49.76
2.52933	49.78
2.54600	49.78
2.56267	49.81
2.57933	49.81
2.59600	49.81
2.61267	49.81
2.62933	49.82
2.64600	49.83
2.66267	49.84
2.67933	49.84
2.69600	49.84
2.71267	49.85
2.72933	49.85
2.74600	49.84
2.76267	49.86
2.77933	49.88
2.79600	49.88
2.81267	49.88
2.82933	49.88
2.84600	49.89
2.86267	49.89
2.87933	49.89
2.89600	49.90
2.91267	49.91
2.92933	49.92
2.94600	49.93
2.96267	49.95
2.97933	49.96
2.99600	49.98
3.01267	49.99
3.02933	50.00
3.04600	50.01
3.06267	50.01
3.07933	50.02
3.09600	50.03
3.11267	50.04
3.12933	50.06
3.14600	50.07
3.16267	50.06
3.17933	50.06
3.19600	50.06
3.21267	50.07
3.22933	50.08
3.24600	50.09
3.26267	50.10
3.27933	50.10
3.29600	50.11
3.31267	50.11
3.32933	50.10
3.34600	50.09
3.36267	50.08
3.37933	50.08
3.39600	50.07
3.41267	50.06
3.42933	50.05
3.44600	50.04
3.46267	50.03
3.47933	50.03
3.49600	50.02
3.51267	50.02
3.52933	50.03
3.54600	50.03
3.56267	50.04
3.57933	50.05
3.59600	50.06
3.61267	50.07
3.62933	50.07
3.64600	50.07
3.66267	50.08
3.67933	50.08
3.69600	50.07
3.71267	50.08
3.72933	50.08
3.74600	50.08
3.76267	50.08
3.77933	50.07
3.79600	50.07
3.81267	50.07
3.82933	50.08
3.84600	50.08
3.86267	50.09
3.87933	50.09
3.89600	50.10
3.91267	50.09
3.92933	50.08
3.94600	50.07
3.96267	50.07
3.97933	50.07
3.99600	50.07

[Status Trace (Injection Unit Temperature)]
Interval(msec)	1000
# of Points	240
Start Time(min)	0.013
End Time(min)	3.996
Intensity Units	
Intensity Multiplier	1
R.Time (min)	Intensity
0.01267	99.98
0.02933	99.98
0.04600	99.98
0.06267	99.98
0.07933	99.98
0.09600	99.98
0.11267	99.99
0.12933	99.99
0.14600	99.99
0.16267	99.99
0.17933	99.98
0.19600	99.99
0.21267	99.99
0.22933	99.99
0.24600	99.99
0.26267	99.99
0.27933	99.99
0.29600	99.98
0.31267	99.98
0.32933	99.98
0.34600	99.99
0.36267	99.98
0.37933	99.99
0.39600	99.98
0.41267	99.99
0.42933	99.99
0.44600	99.99
0.46267	99.98
0.47933	99.98
0.49600	99.98
0.51267	99.98
0.52933	99.98
0.54600	99.98
0.56267	99.99
0.57933	99.98
0.59600	99.98
0.61267	99.99
0.62933	99.98
0.64600	99.98
0.66267	99.98
0.67933	99.99
0.69600	99.98
0.71267	99.99
0.72933	99.99
0.74600	99.99
0.76267	99.98
0.77933	99.99
0.79600	99.99
0.81267	99.98
0.82933	99.99
0.84600	99.99
0.86267	99.99
0.87933	99.99
0.89600	99.99
0.91267	99.99
0.92933	99.99
0.94600	99.99
0.96267	99.98
0.97933	99.99
0.99600	99.99
1.01267	99.99
1.02933	99.99
1.04600	99.99
1.06267	99.99
1.07933	99.98
1.09600	99.99
1.11267	99.99
1.12933	99.99
1.14600	99.99
1.16267	99.99
1.17933	99.99
1.19600	99.99
1.21267	99.99
1.22933	99.99
1.24600	99.99
1.26267	99.99
1.27933	99.99
1.29600	99.99
1.31267	99.99
1.32933	99.99
1.34600	99.99
1.36267	99.99
1.37933	99.99
1.39600	99.99
1.41267	99.99
1.42933	99.99
1.44600	99.99
1.46267	99.99
1.47933	99.99
1.49600	99.99
1.51267	99.99
1.52933	99.99
1.54600	99.99
1.56267	99.99
1.57933	99.99
1.59600	99.99
1.61267	99.99
1.62933	99.99
1.64600	99.99
1.66267	99.99
1.67933	99.99
1.69600	99.99
1.71267	99.99
1.72933	99.99
1.74600	99.99
1.76267	99.99
1.77933	99.99
1.79600	99.99
1.81267	99.98
1.82933	99.99
1.84600	99.99
1.86267	99.98
1.87933	99.98
1.89600	99.98
1.91267	99.98
1.92933	99.98
1.94600	99.98
1.96267	99.98
1.97933	99.98
1.99600	99.98
2.01267	99.98
2.02933	99.98
2.04600	99.98
2.06267	99.98
2.07933	99.97
2.09600	99.97
2.11267	99.97
2.12933	99.97
2.14600	99.98
2.16267	99.97
2.17933	99.97
2.19600	99.97
2.21267	99.97
2.22933	99.97
2.24600	99.97
2.26267	99.97
2.27933	99.97
2.29600	99.97
2.31267	99.97
2.32933	99.97
2.34600	99.97
2.36267	99.96
2.37933	99.96
2.39600	99.96
2.41267	99.97
2.42933	99.96
2.44600	99.96
2.46267	99.97
2.47933	99.96
2.49600	99.97
2.51267	99.96
2.52933	99.97
2.54600	99.97
2.56267	99.97
2.57933	99.97
2.59600	99.97
2.61267	99.97
2.62933	99.97
2.64600	99.97
2.66267	99.97
2.67933	99.98
2.69600	99.98
2.71267	99.98
2.72933	99.98
2.74600	99.98
2.76267	99.98
2.77933	99.98
2.79600	99.99
2.81267	99.99
2.82933	99.99
2.84600	99.99
2.86267	99.99
2.87933	99.99
2.89600	100.00
2.91267	100.00
2.92933	100.00
2.94600	100.00
2.96267	100.00
2.97933	100.00
2.99600	100.00
3.01267	100.01
3.02933	100.01
3.04600	100.01
3.06267	100.01
3.07933	100.02
3.09600	100.02
3.11267	100.02
3.12933	100.02
3.14600	100.02
3.16267	100.02
3.17933	100.02
3.19600	100.02
3.21267	100.03
3.22933	100.03
3.24600	100.03
3.26267	100.03
3.27933	100.03
3.29600	100.03
3.31267	100.03
3.32933	100.04
3.34600	100.04
3.36267	100.04
3.37933	100.03
3.39600	100.04
3.41267	100.04
3.42933	100.04
3.44600	100.04
3.46267	100.04
3.47933	100.04
3.49600	100.04
3.51267	100.04
3.52933	100.04
3.54600	100.05
3.56267	100.04
3.57933	100.05
3.59600	100.05
3.61267	100.05
3.62933	100.05
3.64600	100.05
3.66267	100.05
3.67933	100.05
3.69600	100.05
3.71267	100.05
3.72933	100.05
3.74600	100.05
3.76267	100.05
3.77933	100.05
3.79600	100.05
3.81267	100.05
3.82933	100.05
3.84600	100.05
3.86267	100.05
3.87933	100.05
3.89600	100.05
3.91267	100.05
3.92933	100.05
3.94600	100.05
3.96267	100.05
3.97933	100.05
3.99600	100.05

[Status Trace (Carrier Gas Pressure)]
Interval(msec)	1000
# of Points	240
Start Time(min)	0.013
End Time(min)	3.996
Intensity Units	
Intensity Multiplier	1
R.Time (min)	Intensity
0.01267	57.97
0.02933	55.18
0.04600	57.78
0.06267	59.79
0.07933	58.69
0.09600	57.99
0.11267	58.00
0.12933	58.01
0.14600	58.01
0.16267	58.00
0.17933	58.00
0.19600	58.00
0.21267	58.00
0.22933	58.00
0.24600	58.00
0.26267	58.00
0.27933	58.00
0.29600	58.00
0.31267	58.00
0.32933	58.00
0.34600	58.00
0.36267	58.00
0.37933	58.00
0.39600	58.00
0.41267	58.00
0.42933	58.00
0.44600	58.00
0.46267	58.00
0.47933	58.00
0.49600	58.00
0.51267	58.00
0.52933	58.00
0.54600	58.00
0.56267	58.00
0.57933	58.00
0.59600	58.00
0.61267	58.00
0.62933	58.00
0.64600	58.00
0.66267	58.00
0.67933	58.00
0.69600	58.00
0.71267	58.00
0.72933	58.00
0.74600	58.00
0.76267	58.00
0.77933	58.00
0.79600	58.00
0.81267	58.00
0.82933	58.00
0.84600	58.00
0.86267	58.00
0.87933	58.00
0.89600	58.00
0.91267	58.00
0.92933	58.00
0.94600	58.00
0.96267	58.00
0.97933	58.00
0.99600	58.00
1.01267	58.00
1.02933	58.00
1.04600	58.00
1.06267	58.00
1.07933	58.00
1.09600	58.00
1.11267	58.00
1.12933	58.00
1.14600	58.00
1.16267	58.00
1.17933	58.00
1.19600	58.00
1.21267	58.00
1.22933	58.00
1.24600	58.00
1.26267	58.00
1.27933	58.00
1.29600	58.00
1.31267	58.00
1.32933	58.00
1.34600	58.00
1.36267	58.00
1.37933	58.00
1.39600	58.00
1.41267	58.00
1.42933	58.00
1.44600	58.00
1.46267	58.00
1.47933	58.00
1.49600	58.00
1.51267	58.00
1.52933	58.00
1.54600	58.00
1.56267	58.00
1.57933	58.00
1.59600	58.00
1.61267	58.00
1.62933	58.00
1.64600	58.00
1.66267	58.00
1.67933	58.01
1.69600	58.00
1.71267	58.00
1.72933	58.00
1.74600	58.00
1.76267	58.00
1.77933	58.00
1.79600	58.00
1.81267	58.00
1.82933	58.00
1.84600	58.00
1.86267	58.00
1.87933	58.00
1.89600	58.00
1.91267	58.00
1.92933	58.00
1.94600	58.00
1.96267	58.00
1.97933	58.00
1.99600	58.00
2.01267	58.00
2.02933	58.00
2.04600	58.00
2.06267	58.00
2.07933	58.00
2.09600	58.00
2.11267	58.00
2.12933	58.00
2.14600	58.00
2.16267	58.00
2.17933	58.00
2.19600	58.00
2.21267	58.00
2.22933	58.00
2.24600	58.00
2.26267	58.00
2.27933	58.00
2.29600	58.00
2.31267	58.00
2.32933	58.00
2.34600	58.00
2.36267	58.00
2.37933	58.00
2.39600	57.99
2.41267	57.99
2.42933	58.00
2.44600	58.00
2.46267	58.00
2.47933	58.00
2.49600	58.00
2.51267	57.99
2.52933	57.99
2.54600	58.00
2.56267	58.00
2.57933	58.00
2.59600	58.00
2.61267	58.00
2.62933	58.00
2.64600	58.00
2.66267	58.00
2.67933	58.00
2.69600	58.00
2.71267	58.00
2.72933	58.00
2.74600	58.00
2.76267	58.00
2.77933	58.00
2.79600	58.00
2.81267	58.00
2.82933	58.00
2.84600	58.00
2.86267	58.00
2.87933	58.00
2.89600	58.00
2.91267	58.00
2.92933	58.00
2.94600	58.00
2.96267	58.00
2.97933	58.00
2.99600	58.00
3.01267	58.00
3.02933	58.00
3.04600	58.00
3.06267	58.00
3.07933	58.00
3.09600	58.00
3.11267	58.00
3.12933	58.00
3.14600	58.00
3.16267	58.00
3.17933	58.00
3.19600	58.00
3.21267	58.00
3.22933	58.00
3.24600	58.00
3.26267	58.00
3.27933	58.00
3.29600	58.00
3.31267	58.00
3.32933	58.00
3.34600	58.00
3.36267	58.00
3.37933	58.00
3.39600	58.00
3.41267	58.00
3.42933	58.00
3.44600	58.00
3.46267	58.00
3.47933	58.00
3.49600	58.00
3.51267	58.00
3.52933	58.00
3.54600	58.00
3.56267	58.00
3.57933	58.00
3.59600	58.00
3.61267	58.00
3.62933	58.00
3.64600	58.00
3.66267	58.00
3.67933	58.00
3.69600	58.00
3.71267	58.00
3.72933	58.00
3.74600	58.00
3.76267	58.00
3.77933	58.00
3.79600	58.00
3.81267	58.00
3.82933	58.00
3.84600	58.00
3.86267	58.00
3.87933	58.00
3.89600	58.00
3.91267	58.00
3.92933	58.00
3.94600	58.00
3.96267	58.00
3.97933	58.00
3.99600	58.00

[Status Trace (Carrier Gas Flow)]
Interval(msec)	1000
# of Points	240
Start Time(min)	0.013
End Time(min)	3.996
Intensity Units	
Intensity Multiplier	1
R.Time (min)	Intensity
0.01267	34.63
0.02933	34.54
0.04600	34.55
0.06267	34.52
0.07933	34.51
0.09600	34.53
0.11267	34.52
0.12933	34.52
0.14600	34.52
0.16267	34.51
0.17933	34.52
0.19600	34.52
0.21267	34.52
0.22933	34.51
0.24600	34.52
0.26267	34.52
0.27933	34.51
0.29600	34.51
0.31267	34.51
0.32933	34.52
0.34600	34.52
0.36267	34.52
0.37933	34.52
0.39600	34.52
0.41267	34.52
0.42933	34.52
0.44600	34.51
0.46267	34.52
0.47933	34.52
0.49600	34.51
0.51267	34.52
0.52933	34.52
0.54600	34.52
0.56267	34.52
0.57933	34.52
0.59600	34.52
0.61267	34.52
0.62933	34.52
0.64600	34.52
0.66267	34.52
0.67933	34.52
0.69600	34.52
0.71267	34.52
0.72933	34.52
0.74600	34.51
0.76267	34.52
0.77933	34.53
0.79600	34.52
0.81267	34.52
0.82933	34.52
0.84600	34.52
0.86267	34.52
0.87933	34.52
0.89600	34.52
0.91267	34.52
0.92933	34.52
0.94600	34.52
0.96267	34.52
0.97933	34.52
0.99600	34.51
1.01267	34.52
1.02933	34.52
1.04600	34.53
1.06267	34.52
1.07933	34.52
1.09600	34.52
1.11267	34.52
1.12933	34.52
1.14600	34.51
1.16267	34.52
1.17933	34.51
1.19600	34.52
1.21267	34.51
1.22933	34.52
1.24600	34.52
1.26267	34.52
1.27933	34.51
1.29600	34.52
1.31267	34.52
1.32933	34.52
1.34600	34.52
1.36267	34.52
1.37933	34.52
1.39600	34.51
1.41267	34.52
1.42933	34.52
1.44600	34.51
1.46267	34.51
1.47933	34.51
1.49600	34.53
1.51267	34.52
1.52933	34.51
1.54600	34.52
1.56267	34.51
1.57933	34.52
1.59600	34.52
1.61267	34.52
1.62933	34.52
1.64600	34.52
1.66267	34.52
1.67933	34.52
1.69600	34.51
1.71267	34.52
1.72933	34.52
1.74600	34.52
1.76267	34.51
1.77933	34.51
1.79600	34.52
1.81267	34.52
1.82933	34.51
1.84600	34.52
1.86267	34.52
1.87933	34.52
1.89600	34.51
1.91267	34.52
1.92933	34.53
1.94600	34.52
1.96267	34.51
1.97933	34.51
1.99600	34.53
2.01267	34.51
2.02933	34.52
2.04600	34.53
2.06267	34.52
2.07933	34.53
2.09600	34.52
2.11267	34.53
2.12933	34.52
2.14600	34.51
2.16267	34.52
2.17933	34.52
2.19600	34.52
2.21267	34.51
2.22933	34.52
2.24600	34.52
2.26267	34.52
2.27933	34.52
2.29600	34.52
2.31267	34.52
2.32933	34.52
2.34600	34.52
2.36267	34.52
2.37933	34.52
2.39600	34.51
2.41267	34.51
2.42933	34.53
2.44600	34.52
2.46267	34.51
2.47933	34.51
2.49600	34.52
2.51267	34.51
2.52933	34.52
2.54600	34.52
2.56267	34.52
2.57933	34.52
2.59600	34.52
2.61267	34.52
2.62933	34.52
2.64600	34.51
2.66267	34.51
2.67933	34.52
2.69600	34.52
2.71267	34.52
2.72933	34.52
2.74600	34.52
2.76267	34.52
2.77933	34.51
2.79600	34.52
2.81267	34.52
2.82933	34.52
2.84600	34.52
2.86267	34.52
2.87933	34.52
2.89600	34.52
2.91267	34.52
2.92933	34.52
2.94600	34.51
2.96267	34.52
2.97933	34.52
2.99600	34.51
3.01267	34.52
3.02933	34.52
3.04600	34.52
3.06267	34.51
3.07933	34.52
3.09600	34.52
3.11267	34.52
3.12933	34.52
3.14600	34.52
3.16267	34.52
3.17933	34.52
3.19600	34.52
3.21267	34.52
3.22933	34.52
3.24600	34.52
3.26267	34.52
3.27933	34.52
3.29600	34.51
3.31267	34.51
3.32933	34.52
3.34600	34.52
3.36267	34.52
3.37933	34.52
3.39600	34.52
3.41267	34.52
3.42933	34.52
3.44600	34.52
3.46267	34.52
3.47933	34.52
3.49600	34.52
3.51267	34.52
3.52933	34.52
3.54600	34.52
3.56267	34.52
3.57933	34.52
3.59600	34.52
3.61267	34.52
3.62933	34.52
3.64600	34.52
3.66267	34.52
3.67933	34.52
3.69600	34.52
3.71267	34.52
3.72933	34.52
3.74600	34.52
3.76267	34.52
3.77933	34.52
3.79600	34.51
3.81267	34.52
3.82933	34.52
3.84600	34.52
3.86267	34.52
3.87933	34.52
3.89600	34.52
3.91267	34.52
3.92933	34.52
3.94600	34.52
3.96267	34.52
3.97933	34.52
3.99600	34.52

[Status Trace (Column Flow)]
Interval(msec)	1000
# of Points	240
Start Time(min)	0.013
End Time(min)	3.996
Intensity Units	
Intensity Multiplier	1
R.Time (min)	Intensity
0.01267	5.51
0.02933	5.19
0.04600	5.49
0.06267	5.72
0.07933	5.59
0.09600	5.51
0.11267	5.51
0.12933	5.51
0.14600	5.51
0.16267	5.51
0.17933	5.51
0.19600	5.51
0.21267	5.51
0.22933	5.51
0.24600	5.51
0.26267	5.51
0.27933	5.51
0.29600	5.51
0.31267	5.51
0.32933	5.51
0.34600	5.51
0.36267	5.51
0.37933	5.51
0.39600	5.51
0.41267	5.51
0.42933	5.51
0.44600	5.51
0.46267	5.51
0.47933	5.51
0.49600	5.51
0.51267	5.51
0.52933	5.51
0.54600	5.51
0.56267	5.51
0.57933	5.51
0.59600	5.51
0.61267	5.51
0.62933	5.51
0.64600	5.51
0.66267	5.51
0.67933	5.51
0.69600	5.51
0.71267	5.51
0.72933	5.51
0.74600	5.51
0.76267	5.51
0.77933	5.51
0.79600	5.51
0.81267	5.51
0.82933	5.51
0.84600	5.51
0.86267	5.51
0.87933	5.51
0.89600	5.51
0.91267	5.51
0.92933	5.51
0.94600	5.51
0.96267	5.51
0.97933	5.51
0.99600	5.51
1.01267	5.51
1.02933	5.51
1.04600	5.51
1.06267	5.51
1.07933	5.51
1.09600	5.51
1.11267	5.51
1.12933	5.51
1.14600	5.51
1.16267	5.51
1.17933	5.51
1.19600	5.51
1.21267	5.51
1.22933	5.51
1.24600	5.51
1.26267	5.51
1.27933	5.51
1.29600	5.51
1.31267	5.51
1.32933	5.51
1.34600	5.51
1.36267	5.51
1.37933	5.51
1.39600	5.51
1.41267	5.51
1.42933	5.51
1.44600	5.51
1.46267	5.51
1.47933	5.51
1.49600	5.51
1.51267	5.51
1.52933	5.51
1.54600	5.51
1.56267	5.51
1.57933	5.51
1.59600	5.51
1.61267	5.51
1.62933	5.51
1.64600	5.50
1.66267	5.49
1.67933	5.48
1.69600	5.47
1.71267	5.46
1.72933	5.45
1.74600	5.44
1.76267	5.43
1.77933	5.42
1.79600	5.41
1.81267	5.40
1.82933	5.39
1.84600	5.38
1.86267	5.37
1.87933	5.36
1.89600	5.35
1.91267	5.34
1.92933	5.33
1.94600	5.32
1.96267	5.31
1.97933	5.30
1.99600	5.29
2.01267	5.28
2.02933	5.27
2.04600	5.26
2.06267	5.25
2.07933	5.24
2.09600	5.23
2.11267	5.22
2.12933	5.21
2.14600	5.20
2.16267	5.20
2.17933	5.18
2.19600	5.17
2.21267	5.16
2.22933	5.16
2.24600	5.15
2.26267	5.14
2.27933	5.13
2.29600	5.12
2.31267	5.11
2.32933	5.10
2.34600	5.09
2.36267	5.08
2.37933	5.08
2.39600	5.08
2.41267	5.08
2.42933	5.08
2.44600	5.08
2.46267	5.08
2.47933	5.08
2.49600	5.08
2.51267	5.08
2.52933	5.07
2.54600	5.08
2.56267	5.08
2.57933	5.08
2.59600	5.08
2.61267	5.08
2.62933	5.08
2.64600	5.07
2.66267	5.07
2.67933	5.07
2.69600	5.07
2.71267	5.07
2.72933	5.07
2.74600	5.07
2.76267	5.07
2.77933	5.07
2.79600	5.07
2.81267	5.07
2.82933	5.07
2.84600	5.07
2.86267	5.07
2.87933	5.07
2.89600	5.07
2.91267	5.07
2.92933	5.07
2.94600	5.07
2.96267	5.07
2.97933	5.07
2.99600	5.07
3.01267	5.07
3.02933	5.07
3.04600	5.07
3.06267	5.07
3.07933	5.07
3.09600	5.07
3.11267	5.07
3.12933	5.07
3.14600	5.07
3.16267	5.07
3.17933	5.07
3.19600	5.07
3.21267	5.07
3.22933	5.07
3.24600	5.07
3.26267	5.07
3.27933	5.07
3.29600	5.07
3.31267	5.07
3.32933	5.07
3.34600	5.07
3.36267	5.07
3.37933	5.07
3.39600	5.07
3.41267	5.07
3.42933	5.07
3.44600	5.07
3.46267	5.07
3.47933	5.07
3.49600	5.07
3.51267	5.07
3.52933	5.07
3.54600	5.07
3.56267	5.07
3.57933	5.07
3.59600	5.07
3.61267	5.07
3.62933	5.07
3.64600	5.07
3.66267	5.07
3.67933	5.07
3.69600	5.07
3.71267	5.07
3.72933	5.07
3.74600	5.07
3.76267	5.07
3.77933	5.07
3.79600	5.07
3.81267	5.07
3.82933	5.07
3.84600	5.07
3.86267	5.07
3.87933	5.07
3.89600	5.07
3.91267	5.07
3.92933	5.07
3.94600	5.07
3.96267	5.07
3.97933	5.07
3.99600	5.07

[Status Trace (Linear Velocity)]
Interval(msec)	1000
# of Points	240
Start Time(min)	0.013
End Time(min)	3.996
Intensity Units	
Intensity Multiplier	1
R.Time (min)	Intensity
0.01267	38.99
0.02933	37.16
0.04600	38.86
0.06267	40.18
0.07933	39.46
0.09600	39.00
0.11267	39.00
0.12933	39.01
0.14600	39.01
0.16267	39.01
0.17933	39.01
0.19600	39.01
0.21267	39.01
0.22933	39.01
0.24600	39.01
0.26267	39.01
0.27933	39.01
0.29600	39.01
0.31267	39.01
0.32933	39.01
0.34600	39.01
0.36267	39.01
0.37933	39.01
0.39600	39.01
0.41267	39.01
0.42933	39.02
0.44600	39.02
0.46267	39.01
0.47933	39.01
0.49600	39.01
0.51267	39.01
0.52933	39.01
0.54600	39.01
0.56267	39.01
0.57933	39.01
0.59600	39.01
0.61267	39.01
0.62933	39.01
0.64600	39.01
0.66267	39.01
0.67933	39.01
0.69600	39.01
0.71267	39.01
0.72933	39.01
0.74600	39.01
0.76267	39.01
0.77933	39.01
0.79600	39.01
0.81267	39.01
0.82933	39.01
0.84600	39.01
0.86267	39.01
0.87933	39.01
0.89600	39.01
0.91267	39.01
0.92933	39.01
0.94600	39.01
0.96267	39.01
0.97933	39.01
0.99600	39.01
1.01267	39.01
1.02933	39.01
1.04600	39.02
1.06267	39.02
1.07933	39.02
1.09600	39.02
1.11267	39.02
1.12933	39.02
1.14600	39.02
1.16267	39.02
1.17933	39.02
1.19600	39.02
1.21267	39.02
1.22933	39.02
1.24600	39.02
1.26267	39.02
1.27933	39.02
1.29600	39.02
1.31267	39.02
1.32933	39.01
1.34600	39.01
1.36267	39.01
1.37933	39.01
1.39600	39.01
1.41267	39.01
1.42933	39.01
1.44600	39.01
1.46267	39.01
1.47933	39.01
1.49600	39.01
1.51267	39.01
1.52933	39.01
1.54600	39.01
1.56267	39.01
1.57933	39.01
1.59600	39.01
1.61267	39.01
1.62933	38.99
1.64600	38.97
1.66267	38.95
1.67933	38.92
1.69600	38.88
1.71267	38.85
1.72933	38.82
1.74600	38.78
1.76267	38.75
1.77933	38.72
1.79600	38.69
1.81267	38.66
1.82933	38.63
1.84600	38.60
1.86267	38.57
1.87933	38.54
1.89600	38.50
1.91267	38.47
1.92933	38.44
1.94600	38.41
1.96267	38.38
1.97933	38.35
1.99600	38.32
2.01267	38.29
2.02933	38.27
2.04600	38.23
2.06267	38.21
2.07933	38.18
2.09600	38.14
2.11267	38.12
2.12933	38.09
2.14600	38.06
2.16267	38.03
2.17933	37.99
2.19600	37.96
2.21267	37.93
2.22933	37.91
2.24600	37.87
2.26267	37.84
2.27933	37.82
2.29600	37.79
2.31267	37.76
2.32933	37.73
2.34600	37.70
2.36267	37.68
2.37933	37.66
2.39600	37.65
2.41267	37.65
2.42933	37.66
2.44600	37.65
2.46267	37.65
2.47933	37.65
2.49600	37.65
2.51267	37.65
2.52933	37.64
2.54600	37.65
2.56267	37.65
2.57933	37.65
2.59600	37.65
2.61267	37.65
2.62933	37.65
2.64600	37.65
2.66267	37.64
2.67933	37.64
2.69600	37.64
2.71267	37.64
2.72933	37.64
2.74600	37.64
2.76267	37.64
2.77933	37.64
2.79600	37.64
2.81267	37.64
2.82933	37.64
2.84600	37.64
2.86267	37.64
2.87933	37.64
2.89600	37.64
2.91267	37.64
2.92933	37.64
2.94600	37.64
2.96267	37.63
2.97933	37.63
2.99600	37.63
3.01267	37.63
3.02933	37.63
3.04600	37.63
3.06267	37.63
3.07933	37.63
3.09600	37.63
3.11267	37.63
3.12933	37.63
3.14600	37.62
3.16267	37.62
3.17933	37.63
3.19600	37.62
3.21267	37.62
3.22933	37.62
3.24600	37.62
3.26267	37.62
3.27933	37.62
3.29600	37.62
3.31267	37.62
3.32933	37.62
3.34600	37.62
3.36267	37.62
3.37933	37.62
3.39600	37.62
3.41267	37.62
3.42933	37.63
3.44600	37.63
3.46267	37.63
3.47933	37.63
3.49600	37.63
3.51267	37.63
3.52933	37.63
3.54600	37.63
3.56267	37.63
3.57933	37.63
3.59600	37.62
3.61267	37.62
3.62933	37.62
3.64600	37.62
3.66267	37.62
3.67933	37.62
3.69600	37.62
3.71267	37.62
3.72933	37.62
3.74600	37.62
3.76267	37.62
3.77933	37.62
3.79600	37.62
3.81267	37.62
3.82933	37.62
3.84600	37.62
3.86267	37.62
3.87933	37.62
3.89600	37.62
3.91267	37.62
3.92933	37.62
3.94600	37.62
3.96267	37.62
3.97933	37.62
3.99600	37.62

