[Header]
Application Name	LabSolutions
Version	5.110
Data File Name	C:\Users\User\Desktop\Junior\UIC Prairie Sampling\6.2.23\06022023_070.gcd
Output Date	6/12/2023
Output Time	11:47:13 AM

[File Information]
Type	Data File
Generated	6/6/2023 5:25:02 PM
Generated by	System Administrator
Modified	6/6/2023 5:32:20 PM
Modified by	System Administrator

[Sample Information]
Operator Name	System Administrator
Acquired	6/6/2023 5:28:19 PM
Sample Type	0:Unknown
Level	0
Sample Name	070
Sample ID	070
ISTD Amount1	1
ISTD Amount2	1
ISTD Amount3	1
ISTD Amount4	1
ISTD Amount5	1
ISTD Amount6	1
ISTD Amount7	1
ISTD Amount8	1
ISTD Amount9	1
ISTD Amount10	1
ISTD Amount11	1
ISTD Amount12	1
ISTD Amount13	1
ISTD Amount14	1
ISTD Amount15	1
ISTD Amount16	1
ISTD Amount17	1
ISTD Amount18	1
ISTD Amount19	1
ISTD Amount20	1
ISTD Amount21	1
ISTD Amount22	1
ISTD Amount23	1
ISTD Amount24	1
ISTD Amount25	1
ISTD Amount26	1
ISTD Amount27	1
ISTD Amount28	1
ISTD Amount29	1
ISTD Amount30	1
ISTD Amount31	1
ISTD Amount32	1
Sample Amount	1
Dilution Factor	1
Vial#	69
Injection Volume	1
Injection Count	1
Bar Code	

[Original Files]
Data File	C:\Users\User\Desktop\Junior\UIC Prairie Sampling\6.2.23\06022023_070.gcd
Method File	C:\LabSolutions\Data\GHG_4min_2022\ghg3_togas_w_acet_4 min_new_int.gcm
Batch File	C:\LabSolutions\Data\AutoSamplerTesting\06022023.gcb
Report Format File	c:\LabSolutions\System\DEFAULT.lsr

[File Description]


[Configuration]
Instrument Name	C0B7VH3-Instrument1
Instrument #	1
Line #	1
# of Detectors	3
Detector ID	DET#1	DET#2	DET#3
Detector Name	FID	PTCD	ECD
# of Channels	1	1	1

[Peak Table(Ch1)]
# of Peaks	3
Peak#	R.Time	I.Time	F.Time	Area	Height	A/H	Conc.	Mark	ID#	Name	k'	Plate #	Plate Ht.	Tailing	Resolution	Sep.Factor	Area Ratio	Height Ratio	Conc. %	Norm Conc.
1	1.472	1.432	1.527	4176	2023	2.064	0.000	   	1	CO	0.000	9461	15.854	1.244	0.000	0.000	0	0	0.000	0.000
2	1.560	1.527	1.633	4270	2154	1.982	20.819	 V 	2	CH4	0.060	11642	12.885	1.296	1.487	0.000	0	0	3.504	3.504
3	1.989	1.941	2.491	2975086	1436124	2.072	573.354	   	3	CO2	0.351	17544	8.550	1.240	7.277	5.875	0	0	96.496	96.496

[Peak Table(Ch2)]
# of Peaks	0

[Peak Table(Ch3)]
# of Peaks	5
Peak#	R.Time	I.Time	F.Time	Area	Height	A/H	Conc.	Mark	ID#	Name	k'	Plate #	Plate Ht.	Tailing	Resolution	Sep.Factor	Area Ratio	Height Ratio	Conc. %	Norm Conc.
1	2.066	1.802	2.370	530	27	19.306	0.000	   			0.000	422	355.182	1.085	0.000	0.000	0	0	0.000	0.000
2	2.458	2.433	2.510	786	295	2.669	0.000	   			0.190	13601	11.029	0.000	1.613	0.000	0	0	0.000	0.000
3	2.528	2.510	2.579	357	126	2.834	0.000	 V 			0.224	5267	28.479	0.000	0.623	1.178	0	0	0.000	0.000
4	2.620	2.579	2.682	335	94	3.551	0.000	 V 			0.268	9570	15.674	0.000	0.744	1.198	0	0	0.000	0.000
5	2.887	2.726	3.995	34361	4606	7.460	0.508	   	1	N2O	0.398	12626	11.880	8.892	2.550	1.483	0	0	100.000	100.000

[Compound Results(Ch1)]
# of IDs	6
ID#	Name	R.Time	Area	Height	Conc.	Curve	3rd	2nd	1st	Constant	Area Ratio	Height Ratio	Conc. %	Norm Conc.
1	CO	1.472	4176	2023	0.000	Linear	0.000000e+00	0.000000e+00	0.000000e+00	0.000000e+00	0	0	0.000	0.000
2	CH4	1.560	4270	2154	20.819	Linear	0.000000e+00	0.000000e+00	2.051179e+002	0.000000e+00	0	0	3.504	3.504
3	CO2	1.989	2975086	1436124	573.354	Linear	0.000000e+00	0.000000e+00	5.188919e+003	0.000000e+00	0	0	96.496	96.496
4	Ethylene	0.000	0	0	0.000	Linear	0.000000e+00	0.000000e+00	0.000000e+00	0.000000e+00	0	0	0.000	0.000
5	Acetylene	0.000	0	0	0.000	Linear	0.000000e+00	0.000000e+00	0.000000e+00	0.000000e+00	0	0	0.000	0.000
6	Ethane	0.000	0	0	0.000	Linear	0.000000e+00	0.000000e+00	0.000000e+00	0.000000e+00	0	0	0.000	0.000

[Compound Results(Ch2)]
# of IDs	5
ID#	Name	R.Time	Area	Height	Conc.	Curve	3rd	2nd	1st	Constant	Area Ratio	Height Ratio	Conc. %	Norm Conc.
1	Hydrogen	0.000	0	0	0.000	Linear	0.000000e+00	0.000000e+00	0.000000e+00	0.000000e+00	0	0	0.000	0.000
2	Oxygen	0.000	0	0	0.000	Linear	0.000000e+00	0.000000e+00	0.000000e+00	0.000000e+00	0	0	0.000	0.000
3	Nitrogen	0.000	0	0	0.000	Linear	0.000000e+00	0.000000e+00	0.000000e+00	0.000000e+00	0	0	0.000	0.000
4	Methane	0.000	0	0	0.000	Linear	0.000000e+00	0.000000e+00	0.000000e+00	0.000000e+00	0	0	0.000	0.000
5	Carbon Monoxide	0.000	0	0	0.000	Linear	0.000000e+00	0.000000e+00	0.000000e+00	0.000000e+00	0	0	0.000	0.000

[Compound Results(Ch3)]
# of IDs	2
ID#	Name	R.Time	Area	Height	Conc.	Curve	3rd	2nd	1st	Constant	Area Ratio	Height Ratio	Conc. %	Norm Conc.
1	N2O	2.887	34361	4606	0.508	Linear	0.000000e+00	0.000000e+00	6.759880e+004	0.000000e+00	0	0	100.000	100.000
2	SF6	0.000	0	0	0.000	Linear	0.000000e+00	0.000000e+00	0.000000e+00	0.000000e+00	0	0	0.000	0.000

[Group Results(Ch1)]
# of Groups	0

[Group Results(Ch2)]
# of Groups	0

[Group Results(Ch3)]
# of Groups	0

[Chromatogram (Ch1)]
Interval(msec)	220
# of Points	1091
Start Time(min)	0.002
End Time(min)	3.998
R.Time (min)	Intensity
0.00167	11
0.00533	11
0.00900	16
0.01267	21
0.01633	21
0.02000	13
0.02367	4
0.02733	-3
0.03100	-6
0.03467	-7
0.03833	-5
0.04200	-3
0.04567	-3
0.04933	-7
0.05300	-9
0.05667	-6
0.06033	-2
0.06400	0
0.06767	3
0.07133	7
0.07500	10
0.07867	13
0.08233	19
0.08600	24
0.08967	27
0.09333	30
0.09700	33
0.10067	32
0.10433	24
0.10800	12
0.11167	4
0.11533	0
0.11900	1
0.12267	4
0.12633	6
0.13000	4
0.13367	4
0.13733	4
0.14100	3
0.14467	3
0.14833	6
0.15200	13
0.15567	23
0.15933	31
0.16300	36
0.16667	41
0.17033	42
0.17400	35
0.17767	24
0.18133	13
0.18500	7
0.18867	7
0.19233	8
0.19600	10
0.19967	13
0.20333	17
0.20700	19
0.21067	19
0.21433	16
0.21800	12
0.22167	7
0.22533	1
0.22900	-3
0.23267	-0
0.23633	7
0.24000	12
0.24367	13
0.24733	13
0.25100	14
0.25467	15
0.25833	13
0.26200	15
0.26567	21
0.26933	27
0.27300	30
0.27667	30
0.28033	28
0.28400	24
0.28767	21
0.29133	21
0.29500	21
0.29867	19
0.30233	16
0.30600	14
0.30967	12
0.31333	13
0.31700	14
0.32067	14
0.32433	13
0.32800	10
0.33167	5
0.33533	2
0.33900	2
0.34267	3
0.34633	4
0.35000	4
0.35367	3
0.35733	4
0.36100	9
0.36467	13
0.36833	18
0.37200	26
0.37567	30
0.37933	25
0.38300	16
0.38667	11
0.39033	10
0.39400	13
0.39767	17
0.40133	16
0.40500	10
0.40867	2
0.41233	-8
0.41600	-18
0.41967	-22
0.42333	-18
0.42700	-9
0.43067	-1
0.43433	5
0.43800	7
0.44167	7
0.44533	4
0.44900	0
0.45267	-3
0.45633	-3
0.46000	-3
0.46367	-4
0.46733	-4
0.47100	-2
0.47467	3
0.47833	7
0.48200	13
0.48567	16
0.48933	13
0.49300	6
0.49667	-0
0.50033	-3
0.50400	-2
0.50767	1
0.51133	8
0.51500	17
0.51867	23
0.52233	24
0.52600	23
0.52967	22
0.53333	21
0.53700	20
0.54067	17
0.54433	13
0.54800	8
0.55167	4
0.55533	1
0.55900	-2
0.56267	-0
0.56633	3
0.57000	1
0.57367	-4
0.57733	-10
0.58100	-12
0.58467	-10
0.58833	-8
0.59200	-9
0.59567	-9
0.59933	-11
0.60300	-14
0.60667	-16
0.61033	-16
0.61400	-16
0.61767	-16
0.62133	-12
0.62500	-8
0.62867	-4
0.63233	-0
0.63600	6
0.63967	8
0.64333	7
0.64700	4
0.65067	4
0.65433	5
0.65800	5
0.66167	5
0.66533	4
0.66900	-0
0.67267	-2
0.67633	3
0.68000	8
0.68367	12
0.68733	13
0.69100	15
0.69467	18
0.69833	20
0.70200	17
0.70567	12
0.70933	9
0.71300	7
0.71667	9
0.72033	13
0.72400	17
0.72767	23
0.73133	25
0.73500	24
0.73867	20
0.74233	13
0.74600	5
0.74967	-7
0.75333	-19
0.75700	-29
0.76067	-33
0.76433	-30
0.76800	-21
0.77167	-7
0.77533	5
0.77900	12
0.78267	14
0.78633	7
0.79000	-4
0.79367	-13
0.79733	-15
0.80100	-15
0.80467	-15
0.80833	-14
0.81200	-10
0.81567	-5
0.81933	2
0.82300	7
0.82667	7
0.83033	4
0.83400	-1
0.83767	-7
0.84133	-11
0.84500	-15
0.84867	-18
0.85233	-21
0.85600	-24
0.85967	-25
0.86333	-24
0.86700	-21
0.87067	-15
0.87433	-10
0.87800	-7
0.88167	-6
0.88533	-6
0.88900	-4
0.89267	1
0.89633	6
0.90000	11
0.90367	12
0.90733	10
0.91100	10
0.91467	12
0.91833	13
0.92200	10
0.92567	6
0.92933	-0
0.93300	-5
0.93667	-8
0.94033	-8
0.94400	-9
0.94767	-9
0.95133	-13
0.95500	-17
0.95867	-19
0.96233	-19
0.96600	-19
0.96967	-21
0.97333	-24
0.97700	-26
0.98067	-24
0.98433	-20
0.98800	-17
0.99167	-15
0.99533	-11
0.99900	-6
1.00267	-2
1.00633	2
1.01000	2
1.01367	-2
1.01733	-6
1.02100	-5
1.02467	-2
1.02833	2
1.03200	5
1.03567	7
1.03933	6
1.04300	1
1.04667	-5
1.05033	-10
1.05400	-13
1.05767	-16
1.06133	-19
1.06500	-21
1.06867	-22
1.07233	-23
1.07600	-21
1.07967	-20
1.08333	-23
1.08700	-29
1.09067	-33
1.09433	-35
1.09800	-34
1.10167	-34
1.10533	-32
1.10900	-28
1.11267	-23
1.11633	-20
1.12000	-15
1.12367	-10
1.12733	-5
1.13100	-2
1.13467	-2
1.13833	-6
1.14200	-9
1.14567	-11
1.14933	-12
1.15300	-11
1.15667	-9
1.16033	-7
1.16400	-4
1.16767	-1
1.17133	-1
1.17500	-4
1.17867	-6
1.18233	-8
1.18600	-12
1.18967	-18
1.19333	-24
1.19700	-27
1.20067	-23
1.20433	-17
1.20800	-13
1.21167	-11
1.21533	-13
1.21900	-18
1.22267	-21
1.22633	-24
1.23000	-30
1.23367	-35
1.23733	-36
1.24100	-33
1.24467	-29
1.24833	-27
1.25200	-27
1.25567	-26
1.25933	-25
1.26300	-24
1.26667	-21
1.27033	-17
1.27400	-15
1.27767	-16
1.28133	-17
1.28500	-18
1.28867	-17
1.29233	-13
1.29600	-12
1.29967	-12
1.30333	-18
1.30700	-25
1.31067	-31
1.31433	-36
1.31800	-38
1.32167	-38
1.32533	-39
1.32900	-39
1.33267	-38
1.33633	-32
1.34000	-23
1.34367	-15
1.34733	-12
1.35100	-13
1.35467	-15
1.35833	-16
1.36200	-13
1.36567	-8
1.36933	-2
1.37300	-2
1.37667	-8
1.38033	-17
1.38400	-29
1.38767	-37
1.39133	-42
1.39500	-44
1.39867	-47
1.40233	-50
1.40600	-51
1.40967	-51
1.41333	-52
1.41700	-53
1.42067	-56
1.42433	-59
1.42800	-59
1.43167	-56
1.43533	-39
1.43900	-7
1.44267	30
1.44633	123
1.45000	356
1.45367	714
1.45733	1105
1.46100	1454
1.46467	1731
1.46833	1914
1.47200	1969
1.47567	1874
1.47933	1648
1.48300	1348
1.48667	1039
1.49033	766
1.49400	548
1.49767	384
1.50133	264
1.50500	178
1.50867	115
1.51233	71
1.51600	36
1.51967	8
1.52333	-11
1.52700	-21
1.53067	-18
1.53433	25
1.53800	172
1.54167	468
1.54533	879
1.54900	1311
1.55267	1681
1.55633	1953
1.56000	2104
1.56367	2104
1.56733	1937
1.57100	1635
1.57467	1272
1.57833	925
1.58200	638
1.58567	421
1.58933	268
1.59300	164
1.59667	95
1.60033	50
1.60400	22
1.60767	5
1.61133	-4
1.61500	-10
1.61867	-16
1.62233	-21
1.62600	-27
1.62967	-37
1.63333	-48
1.63700	-56
1.64067	-60
1.64433	-62
1.64800	-60
1.65167	-52
1.65533	-43
1.65900	-40
1.66267	-46
1.66633	-56
1.67000	-62
1.67367	-61
1.67733	-55
1.68100	-47
1.68467	-41
1.68833	-36
1.69200	-37
1.69567	-43
1.69933	-51
1.70300	-57
1.70667	-61
1.71033	-63
1.71400	-59
1.71767	-53
1.72133	-47
1.72500	-48
1.72867	-54
1.73233	-63
1.73600	-72
1.73967	-71
1.74333	-63
1.74700	-60
1.75067	-61
1.75433	-63
1.75800	-67
1.76167	-71
1.76533	-69
1.76900	-61
1.77267	-52
1.77633	-48
1.78000	-51
1.78367	-59
1.78733	-64
1.79100	-67
1.79467	-68
1.79833	-66
1.80200	-59
1.80567	-54
1.80933	-54
1.81300	-54
1.81667	-54
1.82033	-60
1.82400	-68
1.82767	-73
1.83133	-74
1.83500	-75
1.83867	-76
1.84233	-74
1.84600	-68
1.84967	-61
1.85333	-57
1.85700	-55
1.86067	-55
1.86433	-54
1.86800	-52
1.87167	-50
1.87533	-46
1.87900	-42
1.88267	-38
1.88633	-38
1.89000	-43
1.89367	-49
1.89733	-52
1.90100	-51
1.90467	-49
1.90833	-52
1.91200	-59
1.91567	-64
1.91933	-63
1.92300	-56
1.92667	-48
1.93033	-42
1.93400	-37
1.93767	-33
1.94133	-27
1.94500	8
1.94867	288
1.95233	2026
1.95600	10052
1.95967	37827
1.96333	110883
1.96700	257531
1.97067	484294
1.97433	761507
1.97800	1037172
1.98167	1261692
1.98533	1400241
1.98900	1436137
1.99267	1370937
1.99633	1223302
2.00000	1024894
2.00367	811470
2.00733	612563
2.01100	445587
2.01467	315815
2.01833	220429
2.02200	153002
2.02567	106555
2.02933	75052
2.03300	53836
2.03667	39552
2.04033	29879
2.04400	23249
2.04767	18624
2.05133	15320
2.05500	12903
2.05867	11092
2.06233	9698
2.06600	8599
2.06967	7711
2.07333	6985
2.07700	6384
2.08067	5874
2.08433	5431
2.08800	5042
2.09167	4700
2.09533	4401
2.09900	4135
2.10267	3898
2.10633	3684
2.11000	3488
2.11367	3312
2.11733	3153
2.12100	3004
2.12467	2867
2.12833	2740
2.13200	2622
2.13567	2511
2.13933	2406
2.14300	2306
2.14667	2214
2.15033	2129
2.15400	2051
2.15767	1982
2.16133	1921
2.16500	1862
2.16867	1807
2.17233	1753
2.17600	1699
2.17967	1644
2.18333	1588
2.18700	1536
2.19067	1488
2.19433	1449
2.19800	1415
2.20167	1385
2.20533	1358
2.20900	1329
2.21267	1297
2.21633	1263
2.22000	1228
2.22367	1192
2.22733	1156
2.23100	1126
2.23467	1101
2.23833	1081
2.24200	1065
2.24567	1047
2.24933	1028
2.25300	1007
2.25667	985
2.26033	966
2.26400	947
2.26767	931
2.27133	914
2.27500	895
2.27867	875
2.28233	857
2.28600	843
2.28967	832
2.29333	823
2.29700	814
2.30067	800
2.30433	782
2.30800	763
2.31167	745
2.31533	729
2.31900	712
2.32267	699
2.32633	691
2.33000	684
2.33367	675
2.33733	663
2.34100	650
2.34467	638
2.34833	629
2.35200	624
2.35567	619
2.35933	616
2.36300	614
2.36667	615
2.37033	616
2.37400	614
2.37767	607
2.38133	598
2.38500	588
2.38867	578
2.39233	567
2.39600	558
2.39967	549
2.40333	541
2.40700	531
2.41067	518
2.41433	504
2.41800	497
2.42167	496
2.42533	498
2.42900	503
2.43267	508
2.43633	511
2.44000	509
2.44367	503
2.44733	497
2.45100	489
2.45467	481
2.45833	474
2.46200	468
2.46567	461
2.46933	454
2.47300	451
2.47667	447
2.48033	441
2.48400	435
2.48767	433
2.49133	434
2.49500	434
2.49867	434
2.50233	436
2.50600	438
2.50967	440
2.51333	446
2.51700	454
2.52067	458
2.52433	456
2.52800	448
2.53167	439
2.53533	432
2.53900	426
2.54267	422
2.54633	416
2.55000	406
2.55367	396
2.55733	387
2.56100	382
2.56467	379
2.56833	375
2.57200	371
2.57567	369
2.57933	368
2.58300	371
2.58667	375
2.59033	377
2.59400	376
2.59767	371
2.60133	364
2.60500	360
2.60867	358
2.61233	360
2.61600	366
2.61967	370
2.62333	370
2.62700	368
2.63067	367
2.63433	367
2.63800	369
2.64167	368
2.64533	368
2.64900	367
2.65267	362
2.65633	358
2.66000	356
2.66367	356
2.66733	357
2.67100	355
2.67467	354
2.67833	354
2.68200	359
2.68567	365
2.68933	370
2.69300	372
2.69667	372
2.70033	369
2.70400	366
2.70767	358
2.71133	349
2.71500	347
2.71867	353
2.72233	360
2.72600	363
2.72967	362
2.73333	361
2.73700	360
2.74067	355
2.74433	348
2.74800	340
2.75167	336
2.75533	335
2.75900	336
2.76267	337
2.76633	343
2.77000	347
2.77367	352
2.77733	360
2.78100	366
2.78467	365
2.78833	360
2.79200	351
2.79567	343
2.79933	340
2.80300	341
2.80667	342
2.81033	343
2.81400	347
2.81767	356
2.82133	362
2.82500	362
2.82867	357
2.83233	353
2.83600	357
2.83967	362
2.84333	360
2.84700	356
2.85067	355
2.85433	354
2.85800	356
2.86167	365
2.86533	372
2.86900	372
2.87267	365
2.87633	355
2.88000	346
2.88367	341
2.88733	338
2.89100	340
2.89467	346
2.89833	355
2.90200	359
2.90567	357
2.90933	352
2.91300	346
2.91667	340
2.92033	336
2.92400	338
2.92767	348
2.93133	364
2.93500	379
2.93867	388
2.94233	387
2.94600	379
2.94967	370
2.95333	363
2.95700	359
2.96067	358
2.96433	355
2.96800	349
2.97167	343
2.97533	342
2.97900	346
2.98267	353
2.98633	364
2.99000	376
2.99367	387
2.99733	394
3.00100	399
3.00467	403
3.00833	405
3.01200	400
3.01567	393
3.01933	381
3.02300	367
3.02667	355
3.03033	348
3.03400	348
3.03767	351
3.04133	351
3.04500	347
3.04867	341
3.05233	335
3.05600	335
3.05967	341
3.06333	346
3.06700	351
3.07067	354
3.07433	357
3.07800	363
3.08167	370
3.08533	376
3.08900	376
3.09267	376
3.09633	375
3.10000	372
3.10367	367
3.10733	362
3.11100	357
3.11467	356
3.11833	357
3.12200	359
3.12567	357
3.12933	353
3.13300	351
3.13667	352
3.14033	354
3.14400	358
3.14767	363
3.15133	367
3.15500	371
3.15867	371
3.16233	369
3.16600	369
3.16967	369
3.17333	366
3.17700	363
3.18067	358
3.18433	349
3.18800	339
3.19167	331
3.19533	329
3.19900	333
3.20267	340
3.20633	344
3.21000	339
3.21367	332
3.21733	327
3.22100	324
3.22467	322
3.22833	322
3.23200	327
3.23567	337
3.23933	349
3.24300	358
3.24667	360
3.25033	359
3.25400	354
3.25767	350
3.26133	350
3.26500	355
3.26867	363
3.27233	369
3.27600	372
3.27967	368
3.28333	360
3.28700	348
3.29067	336
3.29433	327
3.29800	321
3.30167	324
3.30533	333
3.30900	340
3.31267	342
3.31633	337
3.32000	331
3.32367	329
3.32733	333
3.33100	340
3.33467	345
3.33833	348
3.34200	351
3.34567	348
3.34933	339
3.35300	328
3.35667	323
3.36033	321
3.36400	318
3.36767	317
3.37133	316
3.37500	315
3.37867	317
3.38233	320
3.38600	326
3.38967	330
3.39333	330
3.39700	332
3.40067	334
3.40433	334
3.40800	330
3.41167	324
3.41533	320
3.41900	320
3.42267	321
3.42633	320
3.43000	322
3.43367	328
3.43733	337
3.44100	345
3.44467	346
3.44833	340
3.45200	332
3.45567	325
3.45933	323
3.46300	323
3.46667	323
3.47033	324
3.47400	325
3.47767	326
3.48133	326
3.48500	320
3.48867	313
3.49233	308
3.49600	304
3.49967	301
3.50333	299
3.50700	295
3.51067	289
3.51433	288
3.51800	293
3.52167	298
3.52533	301
3.52900	299
3.53267	298
3.53633	300
3.54000	308
3.54367	316
3.54733	319
3.55100	317
3.55467	311
3.55833	310
3.56200	310
3.56567	308
3.56933	304
3.57300	300
3.57667	302
3.58033	309
3.58400	315
3.58767	318
3.59133	315
3.59500	311
3.59867	305
3.60233	300
3.60600	298
3.60967	299
3.61333	300
3.61700	300
3.62067	299
3.62433	296
3.62800	291
3.63167	286
3.63533	283
3.63900	283
3.64267	285
3.64633	287
3.65000	289
3.65367	292
3.65733	296
3.66100	300
3.66467	300
3.66833	301
3.67200	299
3.67567	292
3.67933	284
3.68300	280
3.68667	281
3.69033	290
3.69400	299
3.69767	301
3.70133	302
3.70500	303
3.70867	300
3.71233	295
3.71600	291
3.71967	288
3.72333	286
3.72700	286
3.73067	288
3.73433	294
3.73800	298
3.74167	303
3.74533	306
3.74900	305
3.75267	299
3.75633	289
3.76000	280
3.76367	273
3.76733	268
3.77100	267
3.77467	270
3.77833	272
3.78200	274
3.78567	278
3.78933	281
3.79300	282
3.79667	283
3.80033	287
3.80400	298
3.80767	310
3.81133	314
3.81500	309
3.81867	302
3.82233	292
3.82600	277
3.82967	259
3.83333	241
3.83700	227
3.84067	217
3.84433	213
3.84800	213
3.85167	219
3.85533	231
3.85900	246
3.86267	262
3.86633	278
3.87000	288
3.87367	288
3.87733	281
3.88100	272
3.88467	264
3.88833	256
3.89200	249
3.89567	246
3.89933	244
3.90300	242
3.90667	242
3.91033	243
3.91400	245
3.91767	248
3.92133	252
3.92500	257
3.92867	260
3.93233	261
3.93600	265
3.93967	272
3.94333	276
3.94700	273
3.95067	268
3.95433	261
3.95800	258
3.96167	258
3.96533	261
3.96900	264
3.97267	268
3.97633	271
3.98000	272
3.98367	270
3.98733	265
3.99100	259
3.99467	255
3.99833	254

[Chromatogram (Ch2)]
Interval(msec)	220
# of Points	1091
Start Time(min)	0.002
End Time(min)	3.998
R.Time (min)	Intensity
0.00167	1
0.00533	1
0.00900	1
0.01267	2
0.01633	2
0.02000	2
0.02367	2
0.02733	2
0.03100	3
0.03467	3
0.03833	3
0.04200	3
0.04567	4
0.04933	4
0.05300	3
0.05667	3
0.06033	3
0.06400	3
0.06767	3
0.07133	4
0.07500	4
0.07867	4
0.08233	4
0.08600	4
0.08967	4
0.09333	5
0.09700	5
0.10067	5
0.10433	5
0.10800	5
0.11167	5
0.11533	4
0.11900	4
0.12267	4
0.12633	4
0.13000	4
0.13367	3
0.13733	3
0.14100	3
0.14467	3
0.14833	3
0.15200	3
0.15567	2
0.15933	2
0.16300	2
0.16667	2
0.17033	2
0.17400	2
0.17767	2
0.18133	1
0.18500	1
0.18867	1
0.19233	0
0.19600	-0
0.19967	-0
0.20333	-1
0.20700	-1
0.21067	-1
0.21433	-1
0.21800	-1
0.22167	-1
0.22533	-1
0.22900	-1
0.23267	-1
0.23633	-1
0.24000	-0
0.24367	-0
0.24733	0
0.25100	-0
0.25467	-0
0.25833	-1
0.26200	-1
0.26567	-1
0.26933	-1
0.27300	-1
0.27667	-0
0.28033	0
0.28400	1
0.28767	1
0.29133	1
0.29500	1
0.29867	1
0.30233	1
0.30600	0
0.30967	-0
0.31333	-0
0.31700	-0
0.32067	-0
0.32433	-0
0.32800	-0
0.33167	-0
0.33533	-0
0.33900	-0
0.34267	-0
0.34633	0
0.35000	0
0.35367	0
0.35733	1
0.36100	1
0.36467	1
0.36833	1
0.37200	2
0.37567	2
0.37933	2
0.38300	2
0.38667	2
0.39033	2
0.39400	2
0.39767	2
0.40133	3
0.40500	3
0.40867	3
0.41233	3
0.41600	3
0.41967	3
0.42333	2
0.42700	2
0.43067	2
0.43433	1
0.43800	1
0.44167	1
0.44533	1
0.44900	0
0.45267	-0
0.45633	-0
0.46000	-0
0.46367	-0
0.46733	-1
0.47100	-1
0.47467	-1
0.47833	-1
0.48200	-1
0.48567	-1
0.48933	-1
0.49300	-1
0.49667	-1
0.50033	-1
0.50400	-1
0.50767	-0
0.51133	-0
0.51500	0
0.51867	0
0.52233	0
0.52600	0
0.52967	0
0.53333	1
0.53700	1
0.54067	1
0.54433	1
0.54800	1
0.55167	1
0.55533	1
0.55900	1
0.56267	1
0.56633	0
0.57000	0
0.57367	0
0.57733	0
0.58100	0
0.58467	1
0.58833	1
0.59200	1
0.59567	1
0.59933	0
0.60300	0
0.60667	0
0.61033	0
0.61400	0
0.61767	0
0.62133	0
0.62500	0
0.62867	0
0.63233	0
0.63600	0
0.63967	1
0.64333	1
0.64700	1
0.65067	1
0.65433	2
0.65800	2
0.66167	2
0.66533	2
0.66900	2
0.67267	2
0.67633	2
0.68000	2
0.68367	1
0.68733	1
0.69100	1
0.69467	0
0.69833	0
0.70200	0
0.70567	0
0.70933	0
0.71300	0
0.71667	0
0.72033	0
0.72400	0
0.72767	1
0.73133	1
0.73500	1
0.73867	1
0.74233	1
0.74600	1
0.74967	1
0.75333	1
0.75700	1
0.76067	1
0.76433	1
0.76800	1
0.77167	1
0.77533	0
0.77900	0
0.78267	0
0.78633	1
0.79000	1
0.79367	1
0.79733	2
0.80100	2
0.80467	1
0.80833	1
0.81200	1
0.81567	1
0.81933	1
0.82300	0
0.82667	0
0.83033	-0
0.83400	-0
0.83767	-0
0.84133	-0
0.84500	-0
0.84867	-0
0.85233	-0
0.85600	-0
0.85967	-0
0.86333	-0
0.86700	-0
0.87067	0
0.87433	0
0.87800	1
0.88167	1
0.88533	1
0.88900	1
0.89267	1
0.89633	1
0.90000	1
0.90367	1
0.90733	1
0.91100	1
0.91467	1
0.91833	1
0.92200	1
0.92567	1
0.92933	1
0.93300	1
0.93667	1
0.94033	1
0.94400	1
0.94767	1
0.95133	0
0.95500	0
0.95867	-0
0.96233	-0
0.96600	-1
0.96967	-1
0.97333	-1
0.97700	-1
0.98067	-1
0.98433	-1
0.98800	-1
0.99167	-1
0.99533	-1
0.99900	-1
1.00267	-1
1.00633	-1
1.01000	-1
1.01367	-1
1.01733	-1
1.02100	-1
1.02467	-0
1.02833	-0
1.03200	0
1.03567	0
1.03933	0
1.04300	0
1.04667	0
1.05033	-0
1.05400	-0
1.05767	-0
1.06133	-0
1.06500	0
1.06867	0
1.07233	0
1.07600	0
1.07967	-0
1.08333	-0
1.08700	-1
1.09067	-1
1.09433	-1
1.09800	-2
1.10167	-2
1.10533	-1
1.10900	-1
1.11267	-0
1.11633	0
1.12000	0
1.12367	0
1.12733	0
1.13100	0
1.13467	0
1.13833	1
1.14200	1
1.14567	1
1.14933	1
1.15300	1
1.15667	1
1.16033	1
1.16400	1
1.16767	0
1.17133	0
1.17500	-0
1.17867	-1
1.18233	-1
1.18600	-1
1.18967	-1
1.19333	-1
1.19700	-1
1.20067	-2
1.20433	-2
1.20800	-3
1.21167	-4
1.21533	-4
1.21900	-4
1.22267	-4
1.22633	-4
1.23000	-4
1.23367	-4
1.23733	-4
1.24100	-4
1.24467	-5
1.24833	-5
1.25200	-5
1.25567	-5
1.25933	-5
1.26300	-5
1.26667	-5
1.27033	-5
1.27400	-4
1.27767	-4
1.28133	-3
1.28500	-3
1.28867	-3
1.29233	-2
1.29600	-2
1.29967	-2
1.30333	-2
1.30700	-2
1.31067	-2
1.31433	-2
1.31800	-2
1.32167	-2
1.32533	-2
1.32900	-2
1.33267	-2
1.33633	-2
1.34000	-2
1.34367	-2
1.34733	-2
1.35100	-2
1.35467	-2
1.35833	-1
1.36200	-1
1.36567	-1
1.36933	-1
1.37300	-1
1.37667	-1
1.38033	-1
1.38400	-1
1.38767	-1
1.39133	-1
1.39500	-1
1.39867	-1
1.40233	-1
1.40600	-1
1.40967	-1
1.41333	-1
1.41700	-1
1.42067	-1
1.42433	-0
1.42800	-0
1.43167	-0
1.43533	-0
1.43900	-1
1.44267	-1
1.44633	-2
1.45000	-2
1.45367	-2
1.45733	-2
1.46100	-2
1.46467	-2
1.46833	-2
1.47200	-2
1.47567	-2
1.47933	-2
1.48300	-2
1.48667	-2
1.49033	-2
1.49400	-3
1.49767	-3
1.50133	-4
1.50500	-4
1.50867	-4
1.51233	-4
1.51600	-3
1.51967	-3
1.52333	-3
1.52700	-3
1.53067	-3
1.53433	-3
1.53800	-3
1.54167	-2
1.54533	-2
1.54900	-1
1.55267	-0
1.55633	-0
1.56000	-0
1.56367	0
1.56733	0
1.57100	0
1.57467	-0
1.57833	-0
1.58200	-0
1.58567	-1
1.58933	-1
1.59300	-1
1.59667	-2
1.60033	-3
1.60400	-5
1.60767	-6
1.61133	-8
1.61500	-10
1.61867	-12
1.62233	-15
1.62600	-17
1.62967	-19
1.63333	-22
1.63700	-26
1.64067	-29
1.64433	-32
1.64800	-36
1.65167	-40
1.65533	-43
1.65900	-47
1.66267	-51
1.66633	-55
1.67000	-59
1.67367	-64
1.67733	-69
1.68100	-73
1.68467	-78
1.68833	-82
1.69200	-86
1.69567	-89
1.69933	-91
1.70300	-93
1.70667	-94
1.71033	-96
1.71400	-97
1.71767	-98
1.72133	-98
1.72500	-99
1.72867	-100
1.73233	-101
1.73600	-101
1.73967	-101
1.74333	-101
1.74700	-101
1.75067	-102
1.75433	-102
1.75800	-103
1.76167	-104
1.76533	-104
1.76900	-104
1.77267	-104
1.77633	-104
1.78000	-104
1.78367	-104
1.78733	-103
1.79100	-103
1.79467	-103
1.79833	-103
1.80200	-102
1.80567	-102
1.80933	-103
1.81300	-103
1.81667	-104
1.82033	-104
1.82400	-105
1.82767	-105
1.83133	-105
1.83500	-105
1.83867	-104
1.84233	-104
1.84600	-103
1.84967	-103
1.85333	-102
1.85700	-101
1.86067	-101
1.86433	-100
1.86800	-100
1.87167	-100
1.87533	-100
1.87900	-100
1.88267	-100
1.88633	-100
1.89000	-100
1.89367	-100
1.89733	-101
1.90100	-102
1.90467	-102
1.90833	-103
1.91200	-103
1.91567	-103
1.91933	-103
1.92300	-104
1.92667	-104
1.93033	-104
1.93400	-103
1.93767	-103
1.94133	-102
1.94500	-102
1.94867	-102
1.95233	-102
1.95600	-102
1.95967	-102
1.96333	-102
1.96700	-102
1.97067	-102
1.97433	-102
1.97800	-103
1.98167	-103
1.98533	-103
1.98900	-103
1.99267	-103
1.99633	-103
2.00000	-102
2.00367	-102
2.00733	-102
2.01100	-102
2.01467	-102
2.01833	-102
2.02200	-101
2.02567	-100
2.02933	-98
2.03300	-97
2.03667	-96
2.04033	-95
2.04400	-95
2.04767	-95
2.05133	-95
2.05500	-96
2.05867	-96
2.06233	-96
2.06600	-96
2.06967	-97
2.07333	-98
2.07700	-98
2.08067	-98
2.08433	-98
2.08800	-98
2.09167	-97
2.09533	-97
2.09900	-96
2.10267	-95
2.10633	-95
2.11000	-94
2.11367	-94
2.11733	-94
2.12100	-93
2.12467	-93
2.12833	-92
2.13200	-92
2.13567	-92
2.13933	-91
2.14300	-91
2.14667	-90
2.15033	-89
2.15400	-89
2.15767	-89
2.16133	-89
2.16500	-89
2.16867	-88
2.17233	-88
2.17600	-88
2.17967	-88
2.18333	-88
2.18700	-88
2.19067	-88
2.19433	-88
2.19800	-88
2.20167	-88
2.20533	-88
2.20900	-88
2.21267	-88
2.21633	-87
2.22000	-87
2.22367	-87
2.22733	-87
2.23100	-87
2.23467	-87
2.23833	-86
2.24200	-86
2.24567	-86
2.24933	-86
2.25300	-85
2.25667	-84
2.26033	-83
2.26400	-83
2.26767	-83
2.27133	-82
2.27500	-82
2.27867	-82
2.28233	-81
2.28600	-81
2.28967	-81
2.29333	-81
2.29700	-81
2.30067	-80
2.30433	-80
2.30800	-80
2.31167	-80
2.31533	-81
2.31900	-82
2.32267	-82
2.32633	-82
2.33000	-82
2.33367	-81
2.33733	-81
2.34100	-80
2.34467	-79
2.34833	-79
2.35200	-78
2.35567	-77
2.35933	-77
2.36300	-76
2.36667	-75
2.37033	-73
2.37400	-71
2.37767	-68
2.38133	-65
2.38500	-62
2.38867	-58
2.39233	-53
2.39600	-47
2.39967	-41
2.40333	-35
2.40700	-29
2.41067	-25
2.41433	-21
2.41800	-17
2.42167	-15
2.42533	-14
2.42900	-13
2.43267	-12
2.43633	-11
2.44000	-10
2.44367	-8
2.44733	-6
2.45100	-5
2.45467	-4
2.45833	-3
2.46200	-2
2.46567	-2
2.46933	-1
2.47300	-0
2.47667	1
2.48033	3
2.48400	4
2.48767	5
2.49133	5
2.49500	6
2.49867	7
2.50233	8
2.50600	8
2.50967	8
2.51333	8
2.51700	8
2.52067	8
2.52433	7
2.52800	6
2.53167	5
2.53533	4
2.53900	3
2.54267	2
2.54633	2
2.55000	2
2.55367	3
2.55733	4
2.56100	5
2.56467	6
2.56833	7
2.57200	7
2.57567	7
2.57933	7
2.58300	7
2.58667	7
2.59033	6
2.59400	6
2.59767	6
2.60133	6
2.60500	6
2.60867	6
2.61233	6
2.61600	6
2.61967	6
2.62333	6
2.62700	6
2.63067	7
2.63433	8
2.63800	9
2.64167	9
2.64533	10
2.64900	10
2.65267	9
2.65633	9
2.66000	9
2.66367	9
2.66733	9
2.67100	10
2.67467	10
2.67833	10
2.68200	11
2.68567	11
2.68933	12
2.69300	13
2.69667	14
2.70033	14
2.70400	14
2.70767	14
2.71133	14
2.71500	15
2.71867	15
2.72233	15
2.72600	15
2.72967	15
2.73333	16
2.73700	16
2.74067	16
2.74433	16
2.74800	16
2.75167	16
2.75533	15
2.75900	15
2.76267	15
2.76633	15
2.77000	15
2.77367	15
2.77733	15
2.78100	15
2.78467	15
2.78833	15
2.79200	16
2.79567	16
2.79933	16
2.80300	16
2.80667	16
2.81033	17
2.81400	17
2.81767	17
2.82133	17
2.82500	18
2.82867	18
2.83233	18
2.83600	18
2.83967	18
2.84333	18
2.84700	18
2.85067	18
2.85433	18
2.85800	18
2.86167	16
2.86533	13
2.86900	7
2.87267	-2
2.87633	-14
2.88000	-30
2.88367	-51
2.88733	-77
2.89100	-109
2.89467	-145
2.89833	-186
2.90200	-231
2.90567	-281
2.90933	-335
2.91300	-392
2.91667	-452
2.92033	-513
2.92400	-574
2.92767	-636
2.93133	-697
2.93500	-756
2.93867	-813
2.94233	-866
2.94600	-918
2.94967	-972
2.95333	-1027
2.95700	-1075
2.96067	-1106
2.96433	-1114
2.96800	-1097
2.97167	-1057
2.97533	-998
2.97900	-927
2.98267	-850
2.98633	-769
2.99000	-689
2.99367	-612
2.99733	-540
3.00100	-473
3.00467	-413
3.00833	-358
3.01200	-310
3.01567	-268
3.01933	-230
3.02300	-198
3.02667	-170
3.03033	-146
3.03400	-125
3.03767	-107
3.04133	-92
3.04500	-79
3.04867	-67
3.05233	-57
3.05600	-48
3.05967	-41
3.06333	-34
3.06700	-29
3.07067	-24
3.07433	-21
3.07800	-17
3.08167	-14
3.08533	-12
3.08900	-10
3.09267	-8
3.09633	-6
3.10000	-5
3.10367	-4
3.10733	-2
3.11100	-1
3.11467	-1
3.11833	0
3.12200	1
3.12567	2
3.12933	4
3.13300	4
3.13667	5
3.14033	6
3.14400	7
3.14767	8
3.15133	9
3.15500	9
3.15867	10
3.16233	9
3.16600	9
3.16967	9
3.17333	9
3.17700	9
3.18067	9
3.18433	10
3.18800	10
3.19167	9
3.19533	9
3.19900	9
3.20267	9
3.20633	9
3.21000	9
3.21367	9
3.21733	10
3.22100	10
3.22467	10
3.22833	11
3.23200	11
3.23567	11
3.23933	11
3.24300	11
3.24667	11
3.25033	11
3.25400	11
3.25767	11
3.26133	11
3.26500	11
3.26867	11
3.27233	11
3.27600	12
3.27967	12
3.28333	12
3.28700	12
3.29067	12
3.29433	12
3.29800	12
3.30167	12
3.30533	12
3.30900	12
3.31267	12
3.31633	12
3.32000	13
3.32367	13
3.32733	13
3.33100	13
3.33467	13
3.33833	13
3.34200	12
3.34567	12
3.34933	12
3.35300	12
3.35667	12
3.36033	12
3.36400	12
3.36767	12
3.37133	13
3.37500	13
3.37867	13
3.38233	14
3.38600	14
3.38967	14
3.39333	15
3.39700	15
3.40067	15
3.40433	16
3.40800	16
3.41167	16
3.41533	16
3.41900	16
3.42267	17
3.42633	17
3.43000	17
3.43367	17
3.43733	17
3.44100	17
3.44467	17
3.44833	18
3.45200	18
3.45567	18
3.45933	18
3.46300	18
3.46667	17
3.47033	17
3.47400	17
3.47767	16
3.48133	16
3.48500	16
3.48867	16
3.49233	16
3.49600	16
3.49967	16
3.50333	17
3.50700	17
3.51067	17
3.51433	17
3.51800	17
3.52167	17
3.52533	17
3.52900	17
3.53267	17
3.53633	17
3.54000	17
3.54367	17
3.54733	17
3.55100	16
3.55467	16
3.55833	17
3.56200	17
3.56567	16
3.56933	16
3.57300	16
3.57667	16
3.58033	16
3.58400	15
3.58767	15
3.59133	15
3.59500	15
3.59867	15
3.60233	15
3.60600	15
3.60967	15
3.61333	15
3.61700	16
3.62067	17
3.62433	17
3.62800	17
3.63167	17
3.63533	17
3.63900	16
3.64267	16
3.64633	15
3.65000	15
3.65367	15
3.65733	15
3.66100	15
3.66467	15
3.66833	15
3.67200	15
3.67567	15
3.67933	15
3.68300	15
3.68667	15
3.69033	15
3.69400	15
3.69767	15
3.70133	15
3.70500	15
3.70867	15
3.71233	15
3.71600	15
3.71967	16
3.72333	16
3.72700	17
3.73067	18
3.73433	18
3.73800	19
3.74167	19
3.74533	18
3.74900	18
3.75267	18
3.75633	17
3.76000	17
3.76367	17
3.76733	17
3.77100	17
3.77467	17
3.77833	16
3.78200	16
3.78567	16
3.78933	16
3.79300	15
3.79667	16
3.80033	16
3.80400	16
3.80767	16
3.81133	16
3.81500	15
3.81867	15
3.82233	14
3.82600	14
3.82967	14
3.83333	14
3.83700	14
3.84067	14
3.84433	14
3.84800	14
3.85167	14
3.85533	14
3.85900	14
3.86267	15
3.86633	15
3.87000	15
3.87367	15
3.87733	15
3.88100	16
3.88467	15
3.88833	15
3.89200	15
3.89567	15
3.89933	14
3.90300	14
3.90667	14
3.91033	14
3.91400	14
3.91767	14
3.92133	14
3.92500	14
3.92867	14
3.93233	14
3.93600	14
3.93967	14
3.94333	15
3.94700	15
3.95067	15
3.95433	15
3.95800	15
3.96167	15
3.96533	15
3.96900	15
3.97267	15
3.97633	15
3.98000	15
3.98367	15
3.98733	15
3.99100	14
3.99467	15
3.99833	15

[Chromatogram (Ch3)]
Interval(msec)	220
# of Points	1091
Start Time(min)	0.002
End Time(min)	3.998
R.Time (min)	Intensity
0.00167	-1
0.00533	-2
0.00900	-2
0.01267	-4
0.01633	-5
0.02000	-5
0.02367	-3
0.02733	-2
0.03100	-2
0.03467	-1
0.03833	-0
0.04200	0
0.04567	-1
0.04933	-1
0.05300	-2
0.05667	-2
0.06033	-3
0.06400	-4
0.06767	-5
0.07133	-6
0.07500	-5
0.07867	-6
0.08233	-6
0.08600	-6
0.08967	-4
0.09333	-4
0.09700	-4
0.10067	-2
0.10433	-2
0.10800	-4
0.11167	-4
0.11533	-4
0.11900	-2
0.12267	-2
0.12633	-3
0.13000	-4
0.13367	-6
0.13733	-6
0.14100	-7
0.14467	-7
0.14833	-8
0.15200	-8
0.15567	-7
0.15933	-4
0.16300	-2
0.16667	-2
0.17033	-2
0.17400	-1
0.17767	-1
0.18133	0
0.18500	-0
0.18867	-1
0.19233	-1
0.19600	-0
0.19967	0
0.20333	0
0.20700	-0
0.21067	0
0.21433	2
0.21800	3
0.22167	3
0.22533	1
0.22900	-0
0.23267	-1
0.23633	-1
0.24000	-3
0.24367	-4
0.24733	-4
0.25100	-2
0.25467	0
0.25833	1
0.26200	0
0.26567	-0
0.26933	-1
0.27300	-3
0.27667	-3
0.28033	-2
0.28400	-1
0.28767	-0
0.29133	0
0.29500	0
0.29867	1
0.30233	-0
0.30600	-2
0.30967	-2
0.31333	-1
0.31700	1
0.32067	1
0.32433	0
0.32800	0
0.33167	-0
0.33533	-1
0.33900	-1
0.34267	-1
0.34633	0
0.35000	4
0.35367	5
0.35733	5
0.36100	5
0.36467	3
0.36833	3
0.37200	5
0.37567	5
0.37933	5
0.38300	4
0.38667	4
0.39033	4
0.39400	5
0.39767	4
0.40133	1
0.40500	-3
0.40867	-2
0.41233	-0
0.41600	2
0.41967	4
0.42333	2
0.42700	2
0.43067	3
0.43433	3
0.43800	3
0.44167	2
0.44533	1
0.44900	1
0.45267	2
0.45633	2
0.46000	3
0.46367	4
0.46733	5
0.47100	6
0.47467	5
0.47833	4
0.48200	2
0.48567	1
0.48933	-0
0.49300	2
0.49667	3
0.50033	1
0.50400	-0
0.50767	1
0.51133	2
0.51500	4
0.51867	5
0.52233	5
0.52600	4
0.52967	7
0.53333	9
0.53700	7
0.54067	6
0.54433	6
0.54800	5
0.55167	3
0.55533	3
0.55900	4
0.56267	5
0.56633	5
0.57000	6
0.57367	6
0.57733	7
0.58100	11
0.58467	12
0.58833	13
0.59200	12
0.59567	10
0.59933	10
0.60300	9
0.60667	8
0.61033	10
0.61400	11
0.61767	12
0.62133	11
0.62500	11
0.62867	12
0.63233	10
0.63600	10
0.63967	9
0.64333	9
0.64700	9
0.65067	11
0.65433	10
0.65800	10
0.66167	11
0.66533	10
0.66900	10
0.67267	10
0.67633	9
0.68000	9
0.68367	9
0.68733	7
0.69100	7
0.69467	8
0.69833	9
0.70200	11
0.70567	13
0.70933	15
0.71300	15
0.71667	13
0.72033	12
0.72400	13
0.72767	13
0.73133	12
0.73500	12
0.73867	13
0.74233	14
0.74600	14
0.74967	14
0.75333	13
0.75700	12
0.76067	12
0.76433	11
0.76800	11
0.77167	11
0.77533	12
0.77900	11
0.78267	9
0.78633	9
0.79000	10
0.79367	10
0.79733	12
0.80100	13
0.80467	14
0.80833	14
0.81200	15
0.81567	15
0.81933	16
0.82300	17
0.82667	16
0.83033	16
0.83400	17
0.83767	16
0.84133	15
0.84500	14
0.84867	16
0.85233	19
0.85600	20
0.85967	19
0.86333	18
0.86700	18
0.87067	17
0.87433	17
0.87800	16
0.88167	16
0.88533	16
0.88900	18
0.89267	19
0.89633	19
0.90000	20
0.90367	19
0.90733	16
0.91100	15
0.91467	17
0.91833	20
0.92200	19
0.92567	18
0.92933	17
0.93300	16
0.93667	15
0.94033	14
0.94400	15
0.94767	16
0.95133	17
0.95500	18
0.95867	20
0.96233	21
0.96600	21
0.96967	19
0.97333	19
0.97700	19
0.98067	20
0.98433	20
0.98800	20
0.99167	20
0.99533	21
0.99900	20
1.00267	18
1.00633	17
1.01000	15
1.01367	15
1.01733	15
1.02100	17
1.02467	18
1.02833	18
1.03200	19
1.03567	18
1.03933	18
1.04300	19
1.04667	20
1.05033	20
1.05400	22
1.05767	24
1.06133	24
1.06500	23
1.06867	21
1.07233	20
1.07600	20
1.07967	20
1.08333	22
1.08700	21
1.09067	20
1.09433	19
1.09800	19
1.10167	20
1.10533	21
1.10900	21
1.11267	22
1.11633	23
1.12000	22
1.12367	22
1.12733	21
1.13100	21
1.13467	21
1.13833	18
1.14200	15
1.14567	15
1.14933	17
1.15300	20
1.15667	21
1.16033	22
1.16400	21
1.16767	19
1.17133	18
1.17500	21
1.17867	23
1.18233	25
1.18600	26
1.18967	26
1.19333	27
1.19700	26
1.20067	26
1.20433	24
1.20800	24
1.21167	24
1.21533	25
1.21900	25
1.22267	24
1.22633	23
1.23000	25
1.23367	26
1.23733	26
1.24100	26
1.24467	27
1.24833	27
1.25200	25
1.25567	25
1.25933	21
1.26300	20
1.26667	22
1.27033	24
1.27400	26
1.27767	28
1.28133	26
1.28500	25
1.28867	26
1.29233	26
1.29600	26
1.29967	28
1.30333	28
1.30700	26
1.31067	25
1.31433	26
1.31800	24
1.32167	22
1.32533	19
1.32900	21
1.33267	24
1.33633	26
1.34000	27
1.34367	31
1.34733	31
1.35100	31
1.35467	32
1.35833	33
1.36200	32
1.36567	33
1.36933	34
1.37300	35
1.37667	35
1.38033	34
1.38400	32
1.38767	30
1.39133	30
1.39500	31
1.39867	32
1.40233	33
1.40600	32
1.40967	32
1.41333	32
1.41700	33
1.42067	33
1.42433	29
1.42800	28
1.43167	27
1.43533	27
1.43900	26
1.44267	27
1.44633	27
1.45000	28
1.45367	28
1.45733	29
1.46100	28
1.46467	28
1.46833	28
1.47200	28
1.47567	26
1.47933	26
1.48300	28
1.48667	29
1.49033	29
1.49400	30
1.49767	30
1.50133	29
1.50500	30
1.50867	30
1.51233	30
1.51600	28
1.51967	26
1.52333	25
1.52700	26
1.53067	26
1.53433	25
1.53800	25
1.54167	27
1.54533	30
1.54900	33
1.55267	35
1.55633	35
1.56000	34
1.56367	33
1.56733	32
1.57100	32
1.57467	32
1.57833	33
1.58200	31
1.58567	29
1.58933	27
1.59300	28
1.59667	29
1.60033	30
1.60400	31
1.60767	32
1.61133	32
1.61500	32
1.61867	33
1.62233	34
1.62600	34
1.62967	34
1.63333	34
1.63700	32
1.64067	31
1.64433	31
1.64800	31
1.65167	31
1.65533	32
1.65900	32
1.66267	32
1.66633	33
1.67000	34
1.67367	33
1.67733	34
1.68100	37
1.68467	40
1.68833	41
1.69200	41
1.69567	41
1.69933	40
1.70300	40
1.70667	40
1.71033	41
1.71400	45
1.71767	45
1.72133	44
1.72500	43
1.72867	42
1.73233	40
1.73600	40
1.73967	40
1.74333	39
1.74700	39
1.75067	41
1.75433	43
1.75800	45
1.76167	47
1.76533	49
1.76900	48
1.77267	46
1.77633	46
1.78000	48
1.78367	47
1.78733	46
1.79100	47
1.79467	47
1.79833	48
1.80200	50
1.80567	52
1.80933	54
1.81300	55
1.81667	56
1.82033	57
1.82400	58
1.82767	58
1.83133	58
1.83500	57
1.83867	58
1.84233	59
1.84600	60
1.84967	63
1.85333	63
1.85700	62
1.86067	63
1.86433	62
1.86800	61
1.87167	62
1.87533	64
1.87900	66
1.88267	68
1.88633	70
1.89000	71
1.89367	71
1.89733	72
1.90100	73
1.90467	74
1.90833	74
1.91200	76
1.91567	78
1.91933	79
1.92300	77
1.92667	76
1.93033	77
1.93400	79
1.93767	81
1.94133	84
1.94500	87
1.94867	88
1.95233	87
1.95600	87
1.95967	87
1.96333	87
1.96700	89
1.97067	92
1.97433	92
1.97800	91
1.98167	92
1.98533	94
1.98900	95
1.99267	96
1.99633	98
2.00000	100
2.00367	100
2.00733	101
2.01100	101
2.01467	103
2.01833	106
2.02200	107
2.02567	108
2.02933	110
2.03300	109
2.03667	109
2.04033	109
2.04400	109
2.04767	110
2.05133	110
2.05500	112
2.05867	113
2.06233	114
2.06600	115
2.06967	115
2.07333	114
2.07700	112
2.08067	112
2.08433	114
2.08800	116
2.09167	115
2.09533	115
2.09900	115
2.10267	115
2.10633	114
2.11000	116
2.11367	119
2.11733	120
2.12100	120
2.12467	120
2.12833	120
2.13200	120
2.13567	119
2.13933	119
2.14300	119
2.14667	118
2.15033	120
2.15400	119
2.15767	119
2.16133	118
2.16500	119
2.16867	120
2.17233	121
2.17600	122
2.17967	124
2.18333	125
2.18700	125
2.19067	125
2.19433	126
2.19800	126
2.20167	126
2.20533	127
2.20900	127
2.21267	128
2.21633	129
2.22000	129
2.22367	130
2.22733	131
2.23100	133
2.23467	134
2.23833	135
2.24200	134
2.24567	135
2.24933	134
2.25300	134
2.25667	132
2.26033	131
2.26400	129
2.26767	129
2.27133	130
2.27500	130
2.27867	133
2.28233	135
2.28600	135
2.28967	137
2.29333	139
2.29700	141
2.30067	140
2.30433	137
2.30800	135
2.31167	135
2.31533	136
2.31900	137
2.32267	137
2.32633	137
2.33000	135
2.33367	135
2.33733	137
2.34100	138
2.34467	139
2.34833	137
2.35200	137
2.35567	137
2.35933	138
2.36300	137
2.36667	135
2.37033	131
2.37400	128
2.37767	128
2.38133	130
2.38500	132
2.38867	133
2.39233	137
2.39600	139
2.39967	140
2.40333	142
2.40700	143
2.41067	145
2.41433	144
2.41800	143
2.42167	143
2.42533	144
2.42900	145
2.43267	146
2.43633	146
2.44000	150
2.44367	192
2.44733	273
2.45100	349
2.45467	407
2.45833	435
2.46200	434
2.46567	418
2.46933	401
2.47300	388
2.47667	378
2.48033	362
2.48400	341
2.48767	317
2.49133	293
2.49500	272
2.49867	254
2.50233	244
2.50600	237
2.50967	235
2.51333	237
2.51700	242
2.52067	248
2.52433	253
2.52800	254
2.53167	251
2.53533	244
2.53900	235
2.54267	225
2.54633	214
2.55000	201
2.55367	189
2.55733	181
2.56100	174
2.56467	168
2.56833	163
2.57200	160
2.57567	157
2.57933	156
2.58300	155
2.58667	156
2.59033	160
2.59400	166
2.59767	171
2.60133	176
2.60500	181
2.60867	187
2.61233	194
2.61600	202
2.61967	205
2.62333	203
2.62700	199
2.63067	194
2.63433	189
2.63800	183
2.64167	177
2.64533	170
2.64900	160
2.65267	150
2.65633	141
2.66000	133
2.66367	127
2.66733	120
2.67100	115
2.67467	110
2.67833	103
2.68200	98
2.68567	98
2.68933	97
2.69300	96
2.69667	93
2.70033	93
2.70400	96
2.70767	98
2.71133	97
2.71500	95
2.71867	96
2.72233	98
2.72600	99
2.72967	102
2.73333	102
2.73700	104
2.74067	107
2.74433	108
2.74800	107
2.75167	109
2.75533	111
2.75900	111
2.76267	111
2.76633	111
2.77000	113
2.77367	114
2.77733	116
2.78100	119
2.78467	122
2.78833	124
2.79200	128
2.79567	130
2.79933	134
2.80300	136
2.80667	137
2.81033	140
2.81400	143
2.81767	148
2.82133	153
2.82500	158
2.82867	162
2.83233	167
2.83600	181
2.83967	214
2.84333	282
2.84700	404
2.85067	603
2.85433	900
2.85800	1297
2.86167	1788
2.86533	2345
2.86900	2932
2.87267	3499
2.87633	3996
2.88000	4377
2.88367	4625
2.88733	4731
2.89100	4705
2.89467	4570
2.89833	4361
2.90200	4102
2.90567	3811
2.90933	3503
2.91300	3193
2.91667	2888
2.92033	2601
2.92400	2337
2.92767	2104
2.93133	1899
2.93500	1722
2.93867	1566
2.94233	1434
2.94600	1320
2.94967	1225
2.95333	1142
2.95700	1068
2.96067	1001
2.96433	941
2.96800	889
2.97167	845
2.97533	808
2.97900	778
2.98267	753
2.98633	731
2.99000	709
2.99367	690
2.99733	674
3.00100	659
3.00467	646
3.00833	636
3.01200	627
3.01567	619
3.01933	614
3.02300	608
3.02667	602
3.03033	596
3.03400	592
3.03767	586
3.04133	580
3.04500	576
3.04867	573
3.05233	574
3.05600	575
3.05967	573
3.06333	570
3.06700	568
3.07067	565
3.07433	562
3.07800	558
3.08167	553
3.08533	551
3.08900	550
3.09267	551
3.09633	554
3.10000	555
3.10367	557
3.10733	557
3.11100	556
3.11467	557
3.11833	559
3.12200	560
3.12567	558
3.12933	558
3.13300	558
3.13667	559
3.14033	560
3.14400	559
3.14767	559
3.15133	562
3.15500	564
3.15867	565
3.16233	567
3.16600	569
3.16967	571
3.17333	571
3.17700	573
3.18067	575
3.18433	578
3.18800	581
3.19167	581
3.19533	580
3.19900	582
3.20267	583
3.20633	584
3.21000	583
3.21367	586
3.21733	591
3.22100	595
3.22467	597
3.22833	599
3.23200	599
3.23567	599
3.23933	598
3.24300	599
3.24667	600
3.25033	601
3.25400	600
3.25767	598
3.26133	597
3.26500	597
3.26867	597
3.27233	599
3.27600	599
3.27967	598
3.28333	598
3.28700	597
3.29067	595
3.29433	590
3.29800	589
3.30167	590
3.30533	589
3.30900	590
3.31267	590
3.31633	588
3.32000	588
3.32367	586
3.32733	581
3.33100	580
3.33467	579
3.33833	578
3.34200	577
3.34567	573
3.34933	571
3.35300	568
3.35667	566
3.36033	562
3.36400	557
3.36767	553
3.37133	550
3.37500	548
3.37867	545
3.38233	544
3.38600	542
3.38967	542
3.39333	542
3.39700	541
3.40067	539
3.40433	540
3.40800	541
3.41167	537
3.41533	535
3.41900	532
3.42267	530
3.42633	529
3.43000	526
3.43367	522
3.43733	520
3.44100	518
3.44467	517
3.44833	520
3.45200	523
3.45567	525
3.45933	524
3.46300	523
3.46667	520
3.47033	518
3.47400	517
3.47767	515
3.48133	512
3.48500	511
3.48867	508
3.49233	506
3.49600	507
3.49967	508
3.50333	507
3.50700	503
3.51067	502
3.51433	501
3.51800	500
3.52167	500
3.52533	498
3.52900	496
3.53267	494
3.53633	492
3.54000	491
3.54367	491
3.54733	491
3.55100	491
3.55467	490
3.55833	487
3.56200	484
3.56567	483
3.56933	481
3.57300	480
3.57667	478
3.58033	478
3.58400	477
3.58767	475
3.59133	472
3.59500	469
3.59867	466
3.60233	463
3.60600	462
3.60967	464
3.61333	465
3.61700	464
3.62067	461
3.62433	459
3.62800	457
3.63167	454
3.63533	453
3.63900	450
3.64267	449
3.64633	449
3.65000	448
3.65367	448
3.65733	445
3.66100	444
3.66467	444
3.66833	442
3.67200	440
3.67567	436
3.67933	432
3.68300	430
3.68667	429
3.69033	428
3.69400	427
3.69767	427
3.70133	427
3.70500	427
3.70867	425
3.71233	424
3.71600	421
3.71967	421
3.72333	417
3.72700	416
3.73067	415
3.73433	414
3.73800	411
3.74167	407
3.74533	405
3.74900	404
3.75267	404
3.75633	403
3.76000	400
3.76367	397
3.76733	396
3.77100	396
3.77467	395
3.77833	393
3.78200	390
3.78567	386
3.78933	384
3.79300	384
3.79667	382
3.80033	378
3.80400	376
3.80767	374
3.81133	372
3.81500	372
3.81867	372
3.82233	372
3.82600	372
3.82967	372
3.83333	371
3.83700	368
3.84067	366
3.84433	363
3.84800	360
3.85167	359
3.85533	361
3.85900	360
3.86267	355
3.86633	351
3.87000	349
3.87367	347
3.87733	349
3.88100	349
3.88467	350
3.88833	350
3.89200	347
3.89567	345
3.89933	344
3.90300	344
3.90667	344
3.91033	344
3.91400	344
3.91767	343
3.92133	341
3.92500	338
3.92867	333
3.93233	329
3.93600	328
3.93967	328
3.94333	328
3.94700	325
3.95067	324
3.95433	324
3.95800	323
3.96167	321
3.96533	320
3.96900	318
3.97267	316
3.97633	313
3.98000	312
3.98367	312
3.98733	311
3.99100	310
3.99467	307
3.99833	304

[Status Trace (Column Oven Temperature)]
Interval(msec)	1000
# of Points	240
Start Time(min)	0.015
End Time(min)	3.998
Intensity Units	
Intensity Multiplier	1
R.Time (min)	Intensity
0.01452	35.06
0.03118	35.06
0.04785	35.04
0.06452	35.03
0.08118	35.02
0.09785	35.01
0.11452	35.01
0.13118	35.01
0.14785	35.00
0.16452	35.00
0.18118	35.01
0.19785	35.02
0.21452	35.02
0.23118	35.02
0.24785	35.03
0.26452	35.03
0.28118	35.02
0.29785	35.02
0.31452	35.02
0.33118	35.02
0.34785	35.01
0.36452	35.01
0.38118	35.00
0.39785	35.00
0.41452	35.00
0.43118	35.01
0.44785	35.02
0.46452	35.02
0.48118	35.03
0.49785	35.03
0.51452	35.03
0.53118	35.04
0.54785	35.04
0.56452	35.05
0.58118	35.05
0.59785	35.05
0.61452	35.04
0.63118	35.03
0.64785	35.03
0.66452	35.03
0.68118	35.02
0.69785	35.01
0.71452	35.01
0.73118	35.01
0.74785	35.01
0.76452	35.02
0.78118	35.01
0.79785	35.01
0.81452	35.01
0.83118	35.02
0.84785	35.01
0.86452	35.01
0.88118	35.01
0.89785	35.00
0.91452	34.99
0.93118	34.99
0.94785	34.99
0.96452	35.01
0.98118	35.01
0.99785	35.01
1.01452	35.01
1.03118	35.00
1.04785	35.01
1.06452	35.01
1.08118	35.01
1.09785	35.01
1.11452	35.00
1.13118	34.99
1.14785	34.99
1.16452	34.99
1.18118	35.00
1.19785	35.00
1.21452	35.00
1.23118	35.00
1.24785	35.00
1.26452	35.00
1.28118	35.01
1.29785	35.01
1.31452	35.02
1.33118	35.01
1.34785	35.00
1.36452	35.00
1.38118	35.00
1.39785	35.00
1.41452	34.99
1.43118	34.98
1.44785	34.98
1.46452	34.99
1.48118	34.99
1.49785	35.01
1.51452	35.01
1.53118	35.01
1.54785	34.99
1.56452	34.99
1.58118	34.99
1.59785	35.02
1.61452	35.10
1.63118	35.25
1.64785	35.45
1.66452	35.72
1.68118	36.08
1.69785	36.44
1.71452	36.78
1.73118	37.12
1.74785	37.44
1.76452	37.78
1.78118	38.13
1.79785	38.46
1.81452	38.80
1.83118	39.12
1.84785	39.45
1.86452	39.77
1.88118	40.10
1.89785	40.42
1.91452	40.76
1.93118	41.08
1.94785	41.40
1.96452	41.75
1.98118	42.08
1.99785	42.38
2.01452	42.71
2.03118	43.04
2.04785	43.35
2.06452	43.67
2.08118	43.99
2.09785	44.30
2.11452	44.63
2.13118	44.98
2.14785	45.29
2.16452	45.61
2.18118	45.93
2.19785	46.29
2.21452	46.62
2.23118	46.96
2.24785	47.30
2.26452	47.62
2.28118	47.95
2.29785	48.26
2.31452	48.62
2.33118	48.96
2.34785	49.24
2.36452	49.51
2.38118	49.66
2.39785	49.70
2.41452	49.68
2.43118	49.70
2.44785	49.69
2.46452	49.71
2.48118	49.72
2.49785	49.72
2.51452	49.72
2.53118	49.73
2.54785	49.74
2.56452	49.75
2.58118	49.76
2.59785	49.78
2.61452	49.79
2.63118	49.81
2.64785	49.82
2.66452	49.83
2.68118	49.84
2.69785	49.85
2.71452	49.85
2.73118	49.84
2.74785	49.86
2.76452	49.88
2.78118	49.88
2.79785	49.88
2.81452	49.87
2.83118	49.86
2.84785	49.86
2.86452	49.86
2.88118	49.86
2.89785	49.88
2.91452	49.89
2.93118	49.91
2.94785	49.93
2.96452	49.94
2.98118	49.94
2.99785	49.95
3.01452	49.96
3.03118	49.97
3.04785	49.98
3.06452	49.99
3.08118	50.00
3.09785	50.01
3.11452	50.02
3.13118	50.02
3.14785	50.03
3.16452	50.03
3.18118	50.04
3.19785	50.05
3.21452	50.06
3.23118	50.07
3.24785	50.08
3.26452	50.08
3.28118	50.07
3.29785	50.08
3.31452	50.08
3.33118	50.10
3.34785	50.10
3.36452	50.11
3.38118	50.09
3.39785	50.09
3.41452	50.09
3.43118	50.09
3.44785	50.09
3.46452	50.08
3.48118	50.07
3.49785	50.07
3.51452	50.07
3.53118	50.07
3.54785	50.07
3.56452	50.06
3.58118	50.06
3.59785	50.05
3.61452	50.06
3.63118	50.06
3.64785	50.05
3.66452	50.06
3.68118	50.07
3.69785	50.07
3.71452	50.07
3.73118	50.06
3.74785	50.06
3.76452	50.06
3.78118	50.05
3.79785	50.06
3.81452	50.07
3.83118	50.07
3.84785	50.07
3.86452	50.08
3.88118	50.07
3.89785	50.08
3.91452	50.09
3.93118	50.09
3.94785	50.09
3.96452	50.09
3.98118	50.09
3.99785	50.09

[Status Trace (Injection Unit Temperature)]
Interval(msec)	1000
# of Points	240
Start Time(min)	0.015
End Time(min)	3.998
Intensity Units	
Intensity Multiplier	1
R.Time (min)	Intensity
0.01452	99.97
0.03118	99.98
0.04785	99.98
0.06452	99.98
0.08118	99.97
0.09785	99.98
0.11452	99.98
0.13118	99.98
0.14785	99.98
0.16452	99.98
0.18118	99.98
0.19785	99.98
0.21452	99.98
0.23118	99.98
0.24785	99.98
0.26452	99.98
0.28118	99.98
0.29785	99.99
0.31452	99.99
0.33118	99.98
0.34785	99.98
0.36452	99.99
0.38118	99.98
0.39785	99.99
0.41452	99.98
0.43118	99.99
0.44785	99.99
0.46452	99.99
0.48118	99.99
0.49785	99.99
0.51452	99.98
0.53118	99.99
0.54785	99.99
0.56452	99.99
0.58118	99.99
0.59785	99.98
0.61452	99.99
0.63118	99.98
0.64785	99.99
0.66452	99.98
0.68118	99.98
0.69785	99.99
0.71452	99.99
0.73118	99.98
0.74785	99.99
0.76452	99.98
0.78118	99.99
0.79785	99.99
0.81452	99.99
0.83118	99.98
0.84785	99.99
0.86452	99.99
0.88118	99.99
0.89785	99.99
0.91452	99.99
0.93118	99.98
0.94785	99.98
0.96452	99.99
0.98118	99.99
0.99785	99.99
1.01452	99.99
1.03118	99.99
1.04785	99.98
1.06452	99.98
1.08118	99.98
1.09785	99.99
1.11452	99.99
1.13118	99.99
1.14785	99.99
1.16452	99.99
1.18118	99.99
1.19785	99.99
1.21452	99.99
1.23118	99.99
1.24785	99.99
1.26452	99.99
1.28118	99.99
1.29785	99.99
1.31452	99.99
1.33118	99.99
1.34785	99.99
1.36452	99.99
1.38118	99.99
1.39785	99.99
1.41452	99.99
1.43118	99.99
1.44785	99.99
1.46452	99.99
1.48118	99.99
1.49785	99.99
1.51452	99.99
1.53118	99.99
1.54785	99.99
1.56452	99.99
1.58118	99.99
1.59785	99.99
1.61452	99.99
1.63118	99.99
1.64785	99.99
1.66452	99.99
1.68118	99.99
1.69785	99.99
1.71452	99.99
1.73118	99.99
1.74785	99.99
1.76452	99.99
1.78118	99.99
1.79785	99.99
1.81452	99.98
1.83118	99.99
1.84785	99.99
1.86452	99.99
1.88118	99.99
1.89785	99.99
1.91452	99.98
1.93118	99.99
1.94785	99.98
1.96452	99.99
1.98118	99.98
1.99785	99.98
2.01452	99.98
2.03118	99.98
2.04785	99.98
2.06452	99.98
2.08118	99.98
2.09785	99.98
2.11452	99.98
2.13118	99.98
2.14785	99.98
2.16452	99.97
2.18118	99.98
2.19785	99.98
2.21452	99.98
2.23118	99.98
2.24785	99.98
2.26452	99.97
2.28118	99.98
2.29785	99.98
2.31452	99.98
2.33118	99.98
2.34785	99.98
2.36452	99.98
2.38118	99.98
2.39785	99.97
2.41452	99.98
2.43118	99.98
2.44785	99.98
2.46452	99.98
2.48118	99.98
2.49785	99.98
2.51452	99.98
2.53118	99.98
2.54785	99.98
2.56452	99.98
2.58118	99.98
2.59785	99.98
2.61452	99.98
2.63118	99.99
2.64785	99.98
2.66452	99.99
2.68118	99.99
2.69785	99.99
2.71452	99.99
2.73118	99.99
2.74785	100.00
2.76452	100.00
2.78118	100.00
2.79785	100.00
2.81452	100.00
2.83118	100.00
2.84785	100.00
2.86452	100.00
2.88118	100.01
2.89785	100.01
2.91452	100.01
2.93118	100.01
2.94785	100.01
2.96452	100.01
2.98118	100.01
2.99785	100.01
3.01452	100.01
3.03118	100.01
3.04785	100.01
3.06452	100.02
3.08118	100.01
3.09785	100.02
3.11452	100.02
3.13118	100.02
3.14785	100.02
3.16452	100.02
3.18118	100.02
3.19785	100.02
3.21452	100.02
3.23118	100.02
3.24785	100.02
3.26452	100.03
3.28118	100.02
3.29785	100.03
3.31452	100.02
3.33118	100.03
3.34785	100.03
3.36452	100.03
3.38118	100.03
3.39785	100.03
3.41452	100.03
3.43118	100.03
3.44785	100.03
3.46452	100.03
3.48118	100.03
3.49785	100.04
3.51452	100.03
3.53118	100.03
3.54785	100.04
3.56452	100.03
3.58118	100.04
3.59785	100.03
3.61452	100.04
3.63118	100.04
3.64785	100.04
3.66452	100.04
3.68118	100.04
3.69785	100.04
3.71452	100.04
3.73118	100.04
3.74785	100.04
3.76452	100.04
3.78118	100.05
3.79785	100.04
3.81452	100.04
3.83118	100.04
3.84785	100.04
3.86452	100.04
3.88118	100.05
3.89785	100.05
3.91452	100.05
3.93118	100.05
3.94785	100.05
3.96452	100.05
3.98118	100.05
3.99785	100.05

[Status Trace (Carrier Gas Pressure)]
Interval(msec)	1000
# of Points	240
Start Time(min)	0.015
End Time(min)	3.998
Intensity Units	
Intensity Multiplier	1
R.Time (min)	Intensity
0.01452	57.35
0.03118	55.66
0.04785	58.02
0.06452	59.87
0.08118	58.52
0.09785	57.98
0.11452	58.00
0.13118	58.01
0.14785	58.01
0.16452	58.01
0.18118	58.00
0.19785	58.00
0.21452	58.00
0.23118	58.00
0.24785	58.00
0.26452	58.00
0.28118	58.00
0.29785	58.00
0.31452	58.00
0.33118	58.00
0.34785	58.00
0.36452	58.00
0.38118	58.00
0.39785	58.00
0.41452	58.00
0.43118	58.00
0.44785	58.00
0.46452	58.00
0.48118	58.00
0.49785	58.00
0.51452	58.00
0.53118	58.00
0.54785	58.00
0.56452	58.00
0.58118	58.00
0.59785	58.00
0.61452	58.00
0.63118	58.00
0.64785	58.00
0.66452	58.00
0.68118	58.00
0.69785	58.00
0.71452	58.00
0.73118	58.00
0.74785	58.00
0.76452	58.00
0.78118	58.00
0.79785	58.00
0.81452	58.00
0.83118	58.00
0.84785	58.00
0.86452	58.00
0.88118	58.00
0.89785	58.00
0.91452	58.00
0.93118	58.00
0.94785	58.00
0.96452	58.00
0.98118	58.00
0.99785	58.00
1.01452	58.00
1.03118	58.00
1.04785	58.00
1.06452	58.00
1.08118	58.00
1.09785	58.00
1.11452	58.00
1.13118	58.00
1.14785	58.00
1.16452	58.00
1.18118	58.00
1.19785	58.00
1.21452	58.00
1.23118	58.00
1.24785	58.00
1.26452	58.00
1.28118	58.00
1.29785	58.00
1.31452	58.00
1.33118	58.00
1.34785	58.00
1.36452	58.00
1.38118	58.00
1.39785	58.00
1.41452	58.00
1.43118	58.00
1.44785	58.00
1.46452	58.00
1.48118	58.00
1.49785	58.00
1.51452	58.00
1.53118	58.00
1.54785	58.00
1.56452	58.00
1.58118	58.00
1.59785	58.00
1.61452	58.00
1.63118	58.00
1.64785	58.00
1.66452	58.00
1.68118	58.01
1.69785	58.00
1.71452	58.00
1.73118	58.00
1.74785	58.00
1.76452	58.00
1.78118	58.00
1.79785	58.00
1.81452	58.00
1.83118	58.00
1.84785	58.00
1.86452	58.00
1.88118	58.00
1.89785	58.00
1.91452	58.00
1.93118	58.00
1.94785	58.00
1.96452	58.00
1.98118	58.00
1.99785	58.00
2.01452	58.00
2.03118	58.00
2.04785	58.00
2.06452	58.00
2.08118	58.00
2.09785	58.00
2.11452	58.00
2.13118	58.00
2.14785	58.00
2.16452	58.00
2.18118	58.00
2.19785	58.00
2.21452	58.00
2.23118	58.00
2.24785	58.00
2.26452	58.00
2.28118	58.00
2.29785	58.00
2.31452	58.00
2.33118	58.00
2.34785	58.00
2.36452	58.00
2.38118	58.00
2.39785	57.99
2.41452	58.00
2.43118	58.00
2.44785	58.00
2.46452	58.00
2.48118	58.00
2.49785	58.00
2.51452	57.99
2.53118	57.99
2.54785	58.00
2.56452	58.00
2.58118	58.00
2.59785	58.00
2.61452	58.00
2.63118	58.00
2.64785	58.00
2.66452	58.00
2.68118	58.00
2.69785	58.00
2.71452	58.00
2.73118	58.00
2.74785	58.00
2.76452	58.00
2.78118	58.00
2.79785	58.00
2.81452	58.00
2.83118	58.00
2.84785	58.00
2.86452	58.00
2.88118	58.00
2.89785	58.00
2.91452	58.00
2.93118	58.00
2.94785	58.00
2.96452	58.00
2.98118	58.00
2.99785	58.00
3.01452	58.00
3.03118	58.00
3.04785	58.00
3.06452	58.00
3.08118	58.00
3.09785	58.00
3.11452	58.00
3.13118	58.00
3.14785	58.00
3.16452	58.00
3.18118	58.00
3.19785	58.00
3.21452	58.00
3.23118	58.00
3.24785	58.00
3.26452	58.00
3.28118	58.00
3.29785	58.00
3.31452	58.00
3.33118	58.00
3.34785	58.00
3.36452	58.00
3.38118	58.00
3.39785	58.00
3.41452	58.00
3.43118	58.00
3.44785	58.00
3.46452	58.00
3.48118	58.00
3.49785	58.00
3.51452	58.00
3.53118	58.00
3.54785	58.00
3.56452	58.00
3.58118	58.00
3.59785	58.00
3.61452	58.00
3.63118	58.00
3.64785	58.00
3.66452	58.00
3.68118	58.00
3.69785	58.00
3.71452	58.00
3.73118	58.00
3.74785	58.00
3.76452	58.00
3.78118	58.00
3.79785	58.00
3.81452	58.00
3.83118	58.00
3.84785	58.00
3.86452	58.00
3.88118	58.00
3.89785	58.00
3.91452	58.00
3.93118	58.00
3.94785	58.00
3.96452	58.00
3.98118	58.00
3.99785	58.00

[Status Trace (Carrier Gas Flow)]
Interval(msec)	1000
# of Points	240
Start Time(min)	0.015
End Time(min)	3.998
Intensity Units	
Intensity Multiplier	1
R.Time (min)	Intensity
0.01452	33.98
0.03118	34.54
0.04785	34.55
0.06452	34.51
0.08118	34.51
0.09785	34.52
0.11452	34.52
0.13118	34.52
0.14785	34.52
0.16452	34.52
0.18118	34.52
0.19785	34.52
0.21452	34.52
0.23118	34.51
0.24785	34.52
0.26452	34.52
0.28118	34.52
0.29785	34.52
0.31452	34.52
0.33118	34.52
0.34785	34.52
0.36452	34.52
0.38118	34.52
0.39785	34.52
0.41452	34.51
0.43118	34.52
0.44785	34.52
0.46452	34.52
0.48118	34.52
0.49785	34.51
0.51452	34.53
0.53118	34.52
0.54785	34.52
0.56452	34.52
0.58118	34.52
0.59785	34.51
0.61452	34.53
0.63118	34.52
0.64785	34.52
0.66452	34.52
0.68118	34.53
0.69785	34.52
0.71452	34.52
0.73118	34.51
0.74785	34.52
0.76452	34.52
0.78118	34.52
0.79785	34.52
0.81452	34.52
0.83118	34.52
0.84785	34.51
0.86452	34.52
0.88118	34.52
0.89785	34.52
0.91452	34.52
0.93118	34.51
0.94785	34.52
0.96452	34.53
0.98118	34.51
0.99785	34.52
1.01452	34.52
1.03118	34.52
1.04785	34.52
1.06452	34.52
1.08118	34.53
1.09785	34.52
1.11452	34.52
1.13118	34.52
1.14785	34.52
1.16452	34.52
1.18118	34.52
1.19785	34.52
1.21452	34.51
1.23118	34.51
1.24785	34.52
1.26452	34.52
1.28118	34.52
1.29785	34.52
1.31452	34.52
1.33118	34.52
1.34785	34.52
1.36452	34.52
1.38118	34.52
1.39785	34.52
1.41452	34.52
1.43118	34.52
1.44785	34.52
1.46452	34.52
1.48118	34.52
1.49785	34.52
1.51452	34.52
1.53118	34.52
1.54785	34.52
1.56452	34.52
1.58118	34.52
1.59785	34.52
1.61452	34.52
1.63118	34.52
1.64785	34.51
1.66452	34.52
1.68118	34.52
1.69785	34.52
1.71452	34.52
1.73118	34.52
1.74785	34.52
1.76452	34.52
1.78118	34.52
1.79785	34.52
1.81452	34.52
1.83118	34.52
1.84785	34.52
1.86452	34.52
1.88118	34.53
1.89785	34.52
1.91452	34.52
1.93118	34.52
1.94785	34.52
1.96452	34.51
1.98118	34.52
1.99785	34.52
2.01452	34.52
2.03118	34.51
2.04785	34.52
2.06452	34.52
2.08118	34.52
2.09785	34.52
2.11452	34.52
2.13118	34.51
2.14785	34.52
2.16452	34.52
2.18118	34.52
2.19785	34.51
2.21452	34.52
2.23118	34.52
2.24785	34.53
2.26452	34.51
2.28118	34.52
2.29785	34.51
2.31452	34.53
2.33118	34.51
2.34785	34.53
2.36452	34.53
2.38118	34.52
2.39785	34.52
2.41452	34.52
2.43118	34.52
2.44785	34.51
2.46452	34.52
2.48118	34.53
2.49785	34.51
2.51452	34.52
2.53118	34.52
2.54785	34.52
2.56452	34.51
2.58118	34.52
2.59785	34.52
2.61452	34.52
2.63118	34.51
2.64785	34.52
2.66452	34.52
2.68118	34.52
2.69785	34.52
2.71452	34.52
2.73118	34.52
2.74785	34.52
2.76452	34.52
2.78118	34.52
2.79785	34.51
2.81452	34.52
2.83118	34.52
2.84785	34.52
2.86452	34.51
2.88118	34.52
2.89785	34.52
2.91452	34.52
2.93118	34.52
2.94785	34.52
2.96452	34.52
2.98118	34.52
2.99785	34.52
3.01452	34.52
3.03118	34.52
3.04785	34.52
3.06452	34.52
3.08118	34.52
3.09785	34.52
3.11452	34.52
3.13118	34.52
3.14785	34.52
3.16452	34.52
3.18118	34.52
3.19785	34.52
3.21452	34.52
3.23118	34.52
3.24785	34.52
3.26452	34.52
3.28118	34.52
3.29785	34.52
3.31452	34.52
3.33118	34.52
3.34785	34.51
3.36452	34.52
3.38118	34.52
3.39785	34.52
3.41452	34.52
3.43118	34.52
3.44785	34.52
3.46452	34.51
3.48118	34.52
3.49785	34.52
3.51452	34.52
3.53118	34.52
3.54785	34.52
3.56452	34.52
3.58118	34.52
3.59785	34.52
3.61452	34.52
3.63118	34.52
3.64785	34.52
3.66452	34.52
3.68118	34.52
3.69785	34.51
3.71452	34.52
3.73118	34.52
3.74785	34.51
3.76452	34.51
3.78118	34.52
3.79785	34.52
3.81452	34.52
3.83118	34.52
3.84785	34.52
3.86452	34.52
3.88118	34.52
3.89785	34.52
3.91452	34.52
3.93118	34.52
3.94785	34.51
3.96452	34.52
3.98118	34.52
3.99785	34.51

[Status Trace (Column Flow)]
Interval(msec)	1000
# of Points	240
Start Time(min)	0.015
End Time(min)	3.998
Intensity Units	
Intensity Multiplier	1
R.Time (min)	Intensity
0.01452	5.42
0.03118	5.22
0.04785	5.50
0.06452	5.71
0.08118	5.56
0.09785	5.49
0.11452	5.49
0.13118	5.50
0.14785	5.50
0.16452	5.50
0.18118	5.50
0.19785	5.50
0.21452	5.49
0.23118	5.49
0.24785	5.49
0.26452	5.49
0.28118	5.49
0.29785	5.49
0.31452	5.49
0.33118	5.49
0.34785	5.49
0.36452	5.49
0.38118	5.50
0.39785	5.50
0.41452	5.50
0.43118	5.50
0.44785	5.49
0.46452	5.49
0.48118	5.49
0.49785	5.49
0.51452	5.49
0.53118	5.49
0.54785	5.49
0.56452	5.49
0.58118	5.49
0.59785	5.49
0.61452	5.49
0.63118	5.49
0.64785	5.49
0.66452	5.49
0.68118	5.49
0.69785	5.49
0.71452	5.49
0.73118	5.49
0.74785	5.49
0.76452	5.49
0.78118	5.49
0.79785	5.49
0.81452	5.49
0.83118	5.49
0.84785	5.49
0.86452	5.49
0.88118	5.49
0.89785	5.49
0.91452	5.50
0.93118	5.50
0.94785	5.50
0.96452	5.49
0.98118	5.49
0.99785	5.49
1.01452	5.49
1.03118	5.49
1.04785	5.49
1.06452	5.49
1.08118	5.49
1.09785	5.49
1.11452	5.50
1.13118	5.50
1.14785	5.50
1.16452	5.50
1.18118	5.50
1.19785	5.50
1.21452	5.50
1.23118	5.50
1.24785	5.49
1.26452	5.50
1.28118	5.49
1.29785	5.49
1.31452	5.49
1.33118	5.49
1.34785	5.49
1.36452	5.50
1.38118	5.49
1.39785	5.49
1.41452	5.50
1.43118	5.50
1.44785	5.50
1.46452	5.50
1.48118	5.50
1.49785	5.49
1.51452	5.49
1.53118	5.49
1.54785	5.50
1.56452	5.50
1.58118	5.50
1.59785	5.49
1.61452	5.49
1.63118	5.49
1.64785	5.48
1.66452	5.47
1.68118	5.46
1.69785	5.45
1.71452	5.44
1.73118	5.43
1.74785	5.42
1.76452	5.41
1.78118	5.40
1.79785	5.39
1.81452	5.38
1.83118	5.37
1.84785	5.36
1.86452	5.35
1.88118	5.34
1.89785	5.33
1.91452	5.32
1.93118	5.31
1.94785	5.30
1.96452	5.29
1.98118	5.28
1.99785	5.27
2.01452	5.26
2.03118	5.25
2.04785	5.24
2.06452	5.23
2.08118	5.22
2.09785	5.21
2.11452	5.21
2.13118	5.20
2.14785	5.19
2.16452	5.18
2.18118	5.17
2.19785	5.16
2.21452	5.15
2.23118	5.14
2.24785	5.13
2.26452	5.12
2.28118	5.11
2.29785	5.10
2.31452	5.09
2.33118	5.08
2.34785	5.07
2.36452	5.07
2.38118	5.06
2.39785	5.06
2.41452	5.06
2.43118	5.06
2.44785	5.06
2.46452	5.06
2.48118	5.06
2.49785	5.06
2.51452	5.06
2.53118	5.06
2.54785	5.06
2.56452	5.06
2.58118	5.06
2.59785	5.06
2.61452	5.06
2.63118	5.06
2.64785	5.06
2.66452	5.06
2.68118	5.06
2.69785	5.06
2.71452	5.06
2.73118	5.06
2.74785	5.06
2.76452	5.06
2.78118	5.06
2.79785	5.06
2.81452	5.06
2.83118	5.06
2.84785	5.06
2.86452	5.06
2.88118	5.06
2.89785	5.06
2.91452	5.06
2.93118	5.06
2.94785	5.06
2.96452	5.06
2.98118	5.06
2.99785	5.06
3.01452	5.06
3.03118	5.05
3.04785	5.05
3.06452	5.05
3.08118	5.05
3.09785	5.05
3.11452	5.05
3.13118	5.05
3.14785	5.05
3.16452	5.05
3.18118	5.05
3.19785	5.05
3.21452	5.05
3.23118	5.05
3.24785	5.05
3.26452	5.05
3.28118	5.05
3.29785	5.05
3.31452	5.05
3.33118	5.05
3.34785	5.05
3.36452	5.05
3.38118	5.05
3.39785	5.05
3.41452	5.05
3.43118	5.05
3.44785	5.05
3.46452	5.05
3.48118	5.05
3.49785	5.05
3.51452	5.05
3.53118	5.05
3.54785	5.05
3.56452	5.05
3.58118	5.05
3.59785	5.05
3.61452	5.05
3.63118	5.05
3.64785	5.05
3.66452	5.05
3.68118	5.05
3.69785	5.05
3.71452	5.05
3.73118	5.05
3.74785	5.05
3.76452	5.05
3.78118	5.05
3.79785	5.05
3.81452	5.05
3.83118	5.05
3.84785	5.05
3.86452	5.05
3.88118	5.05
3.89785	5.05
3.91452	5.05
3.93118	5.05
3.94785	5.05
3.96452	5.05
3.98118	5.05
3.99785	5.05

[Status Trace (Linear Velocity)]
Interval(msec)	1000
# of Points	240
Start Time(min)	0.015
End Time(min)	3.998
Intensity Units	
Intensity Multiplier	1
R.Time (min)	Intensity
0.01452	38.58
0.03118	37.47
0.04785	39.02
0.06452	40.23
0.08118	39.35
0.09785	39.00
0.11452	39.01
0.13118	39.01
0.14785	39.02
0.16452	39.01
0.18118	39.01
0.19785	39.01
0.21452	39.01
0.23118	39.01
0.24785	39.01
0.26452	39.01
0.28118	39.01
0.29785	39.01
0.31452	39.01
0.33118	39.01
0.34785	39.01
0.36452	39.01
0.38118	39.01
0.39785	39.01
0.41452	39.01
0.43118	39.01
0.44785	39.01
0.46452	39.01
0.48118	39.01
0.49785	39.01
0.51452	39.01
0.53118	39.01
0.54785	39.01
0.56452	39.01
0.58118	39.01
0.59785	39.01
0.61452	39.01
0.63118	39.01
0.64785	39.01
0.66452	39.01
0.68118	39.01
0.69785	39.01
0.71452	39.01
0.73118	39.01
0.74785	39.01
0.76452	39.01
0.78118	39.01
0.79785	39.01
0.81452	39.01
0.83118	39.01
0.84785	39.01
0.86452	39.01
0.88118	39.01
0.89785	39.01
0.91452	39.01
0.93118	39.01
0.94785	39.01
0.96452	39.01
0.98118	39.01
0.99785	39.01
1.01452	39.01
1.03118	39.01
1.04785	39.01
1.06452	39.01
1.08118	39.01
1.09785	39.01
1.11452	39.01
1.13118	39.01
1.14785	39.01
1.16452	39.01
1.18118	39.01
1.19785	39.01
1.21452	39.01
1.23118	39.01
1.24785	39.01
1.26452	39.01
1.28118	39.01
1.29785	39.01
1.31452	39.01
1.33118	39.01
1.34785	39.01
1.36452	39.01
1.38118	39.01
1.39785	39.01
1.41452	39.01
1.43118	39.01
1.44785	39.01
1.46452	39.01
1.48118	39.01
1.49785	39.01
1.51452	39.01
1.53118	39.01
1.54785	39.01
1.56452	39.01
1.58118	39.01
1.59785	39.01
1.61452	39.00
1.63118	38.99
1.64785	38.97
1.66452	38.94
1.68118	38.91
1.69785	38.87
1.71452	38.84
1.73118	38.81
1.74785	38.78
1.76452	38.75
1.78118	38.71
1.79785	38.68
1.81452	38.65
1.83118	38.62
1.84785	38.59
1.86452	38.56
1.88118	38.53
1.89785	38.50
1.91452	38.46
1.93118	38.43
1.94785	38.41
1.96452	38.37
1.98118	38.34
1.99785	38.31
2.01452	38.28
2.03118	38.25
2.04785	38.23
2.06452	38.20
2.08118	38.17
2.09785	38.14
2.11452	38.11
2.13118	38.08
2.14785	38.05
2.16452	38.02
2.18118	37.99
2.19785	37.96
2.21452	37.93
2.23118	37.90
2.24785	37.87
2.26452	37.84
2.28118	37.81
2.29785	37.78
2.31452	37.75
2.33118	37.72
2.34785	37.69
2.36452	37.67
2.38118	37.65
2.39785	37.65
2.41452	37.65
2.43118	37.65
2.44785	37.65
2.46452	37.65
2.48118	37.65
2.49785	37.65
2.51452	37.65
2.53118	37.64
2.54785	37.65
2.56452	37.65
2.58118	37.65
2.59785	37.65
2.61452	37.64
2.63118	37.64
2.64785	37.64
2.66452	37.64
2.68118	37.64
2.69785	37.64
2.71452	37.64
2.73118	37.64
2.74785	37.64
2.76452	37.64
2.78118	37.64
2.79785	37.64
2.81452	37.64
2.83118	37.64
2.84785	37.64
2.86452	37.64
2.88118	37.64
2.89785	37.64
2.91452	37.64
2.93118	37.63
2.94785	37.63
2.96452	37.63
2.98118	37.63
2.99785	37.63
3.01452	37.63
3.03118	37.63
3.04785	37.63
3.06452	37.63
3.08118	37.63
3.09785	37.63
3.11452	37.63
3.13118	37.62
3.14785	37.62
3.16452	37.62
3.18118	37.62
3.19785	37.62
3.21452	37.62
3.23118	37.62
3.24785	37.62
3.26452	37.62
3.28118	37.62
3.29785	37.62
3.31452	37.62
3.33118	37.62
3.34785	37.62
3.36452	37.62
3.38118	37.62
3.39785	37.62
3.41452	37.62
3.43118	37.62
3.44785	37.62
3.46452	37.62
3.48118	37.62
3.49785	37.62
3.51452	37.62
3.53118	37.62
3.54785	37.62
3.56452	37.62
3.58118	37.62
3.59785	37.62
3.61452	37.62
3.63118	37.62
3.64785	37.62
3.66452	37.62
3.68118	37.62
3.69785	37.62
3.71452	37.62
3.73118	37.62
3.74785	37.62
3.76452	37.62
3.78118	37.62
3.79785	37.62
3.81452	37.62
3.83118	37.62
3.84785	37.62
3.86452	37.62
3.88118	37.62
3.89785	37.62
3.91452	37.62
3.93118	37.62
3.94785	37.62
3.96452	37.62
3.98118	37.62
3.99785	37.62

