[Header]
Application Name	LabSolutions
Version	5.110
Data File Name	C:\Users\User\Desktop\Junior\UIC Prairie Sampling\6.2.23\06022023_036.gcd
Output Date	6/12/2023
Output Time	11:47:11 AM

[File Information]
Type	Data File
Generated	6/6/2023 1:09:43 PM
Generated by	System Administrator
Modified	6/6/2023 1:17:09 PM
Modified by	System Administrator

[Sample Information]
Operator Name	System Administrator
Acquired	6/6/2023 1:13:07 PM
Sample Type	0:Unknown
Level	0
Sample Name	036
Sample ID	036
ISTD Amount1	1
ISTD Amount2	1
ISTD Amount3	1
ISTD Amount4	1
ISTD Amount5	1
ISTD Amount6	1
ISTD Amount7	1
ISTD Amount8	1
ISTD Amount9	1
ISTD Amount10	1
ISTD Amount11	1
ISTD Amount12	1
ISTD Amount13	1
ISTD Amount14	1
ISTD Amount15	1
ISTD Amount16	1
ISTD Amount17	1
ISTD Amount18	1
ISTD Amount19	1
ISTD Amount20	1
ISTD Amount21	1
ISTD Amount22	1
ISTD Amount23	1
ISTD Amount24	1
ISTD Amount25	1
ISTD Amount26	1
ISTD Amount27	1
ISTD Amount28	1
ISTD Amount29	1
ISTD Amount30	1
ISTD Amount31	1
ISTD Amount32	1
Sample Amount	1
Dilution Factor	1
Vial#	35
Injection Volume	1
Injection Count	1
Bar Code	

[Original Files]
Data File	C:\Users\User\Desktop\Junior\UIC Prairie Sampling\6.2.23\06022023_036.gcd
Method File	C:\LabSolutions\Data\GHG_4min_2022\ghg3_togas_w_acet_4 min_new_int.gcm
Batch File	C:\LabSolutions\Data\AutoSamplerTesting\06022023.gcb
Report Format File	c:\LabSolutions\System\DEFAULT.lsr

[File Description]


[Configuration]
Instrument Name	C0B7VH3-Instrument1
Instrument #	1
Line #	1
# of Detectors	3
Detector ID	DET#1	DET#2	DET#3
Detector Name	FID	PTCD	ECD
# of Channels	1	1	1

[Peak Table(Ch1)]
# of Peaks	3
Peak#	R.Time	I.Time	F.Time	Area	Height	A/H	Conc.	Mark	ID#	Name	k'	Plate #	Plate Ht.	Tailing	Resolution	Sep.Factor	Area Ratio	Height Ratio	Conc. %	Norm Conc.
1	1.472	1.417	1.527	4625	2272	2.035	0.000	   	1	CO	0.000	9652	15.541	1.168	0.000	0.000	0	0	0.000	0.000
2	1.564	1.527	1.619	4246	2180	1.948	20.699	 V 	2	CH4	0.062	11771	12.743	1.121	1.559	0.000	0	0	7.014	7.014
3	1.989	1.945	2.425	1423836	692347	2.057	274.399	   	3	CO2	0.351	17151	8.746	1.239	7.185	5.640	0	0	92.986	92.986

[Peak Table(Ch2)]
# of Peaks	0

[Peak Table(Ch3)]
# of Peaks	4
Peak#	R.Time	I.Time	F.Time	Area	Height	A/H	Conc.	Mark	ID#	Name	k'	Plate #	Plate Ht.	Tailing	Resolution	Sep.Factor	Area Ratio	Height Ratio	Conc. %	Norm Conc.
1	2.495	2.403	2.532	3130	706	4.433	0.000	   			0.000	743	201.924	0.000	0.000	0.000	0	0	0.000	0.000
2	2.557	2.532	2.656	4435	699	6.347	0.000	 V 			0.025	109	1377.807	0.000	0.093	0.000	0	0	0.000	0.000
3	2.686	2.656	2.774	3399	528	6.433	0.000	 V 			0.076	128	1169.425	0.000	0.133	3.059	0	0	0.000	0.000
4	2.887	2.774	3.690	31006	5024	6.171	0.459	 V 	1	N2O	0.157	11636	12.891	0.000	0.382	2.058	0	0	100.000	100.000

[Compound Results(Ch1)]
# of IDs	6
ID#	Name	R.Time	Area	Height	Conc.	Curve	3rd	2nd	1st	Constant	Area Ratio	Height Ratio	Conc. %	Norm Conc.
1	CO	1.472	4625	2272	0.000	Linear	0.000000e+00	0.000000e+00	0.000000e+00	0.000000e+00	0	0	0.000	0.000
2	CH4	1.564	4246	2180	20.699	Linear	0.000000e+00	0.000000e+00	2.051179e+002	0.000000e+00	0	0	7.014	7.014
3	CO2	1.989	1423836	692347	274.399	Linear	0.000000e+00	0.000000e+00	5.188919e+003	0.000000e+00	0	0	92.986	92.986
4	Ethylene	0.000	0	0	0.000	Linear	0.000000e+00	0.000000e+00	0.000000e+00	0.000000e+00	0	0	0.000	0.000
5	Acetylene	0.000	0	0	0.000	Linear	0.000000e+00	0.000000e+00	0.000000e+00	0.000000e+00	0	0	0.000	0.000
6	Ethane	0.000	0	0	0.000	Linear	0.000000e+00	0.000000e+00	0.000000e+00	0.000000e+00	0	0	0.000	0.000

[Compound Results(Ch2)]
# of IDs	5
ID#	Name	R.Time	Area	Height	Conc.	Curve	3rd	2nd	1st	Constant	Area Ratio	Height Ratio	Conc. %	Norm Conc.
1	Hydrogen	0.000	0	0	0.000	Linear	0.000000e+00	0.000000e+00	0.000000e+00	0.000000e+00	0	0	0.000	0.000
2	Oxygen	0.000	0	0	0.000	Linear	0.000000e+00	0.000000e+00	0.000000e+00	0.000000e+00	0	0	0.000	0.000
3	Nitrogen	0.000	0	0	0.000	Linear	0.000000e+00	0.000000e+00	0.000000e+00	0.000000e+00	0	0	0.000	0.000
4	Methane	0.000	0	0	0.000	Linear	0.000000e+00	0.000000e+00	0.000000e+00	0.000000e+00	0	0	0.000	0.000
5	Carbon Monoxide	0.000	0	0	0.000	Linear	0.000000e+00	0.000000e+00	0.000000e+00	0.000000e+00	0	0	0.000	0.000

[Compound Results(Ch3)]
# of IDs	2
ID#	Name	R.Time	Area	Height	Conc.	Curve	3rd	2nd	1st	Constant	Area Ratio	Height Ratio	Conc. %	Norm Conc.
1	N2O	2.887	31006	5024	0.459	Linear	0.000000e+00	0.000000e+00	6.759880e+004	0.000000e+00	0	0	100.000	100.000
2	SF6	0.000	0	0	0.000	Linear	0.000000e+00	0.000000e+00	0.000000e+00	0.000000e+00	0	0	0.000	0.000

[Group Results(Ch1)]
# of Groups	0

[Group Results(Ch2)]
# of Groups	0

[Group Results(Ch3)]
# of Groups	0

[Chromatogram (Ch1)]
Interval(msec)	220
# of Points	1091
Start Time(min)	0.002
End Time(min)	3.998
R.Time (min)	Intensity
0.00167	-9
0.00533	-12
0.00900	-14
0.01267	-14
0.01633	-13
0.02000	-10
0.02367	-8
0.02733	-4
0.03100	1
0.03467	3
0.03833	3
0.04200	3
0.04567	5
0.04933	10
0.05300	14
0.05667	17
0.06033	21
0.06400	25
0.06767	27
0.07133	28
0.07500	26
0.07867	23
0.08233	18
0.08600	11
0.08967	6
0.09333	5
0.09700	4
0.10067	2
0.10433	-1
0.10800	-5
0.11167	-5
0.11533	-6
0.11900	-5
0.12267	-1
0.12633	5
0.13000	7
0.13367	6
0.13733	2
0.14100	-5
0.14467	-14
0.14833	-22
0.15200	-22
0.15567	-14
0.15933	-7
0.16300	-4
0.16667	-3
0.17033	-4
0.17400	-6
0.17767	-7
0.18133	-4
0.18500	1
0.18867	5
0.19233	5
0.19600	3
0.19967	-1
0.20333	-1
0.20700	-1
0.21067	-3
0.21433	-6
0.21800	-8
0.22167	-7
0.22533	-2
0.22900	4
0.23267	10
0.23633	14
0.24000	16
0.24367	15
0.24733	9
0.25100	3
0.25467	1
0.25833	2
0.26200	2
0.26567	4
0.26933	3
0.27300	-0
0.27667	-6
0.28033	-12
0.28400	-18
0.28767	-23
0.29133	-22
0.29500	-16
0.29867	-9
0.30233	-3
0.30600	1
0.30967	1
0.31333	1
0.31700	-1
0.32067	-2
0.32433	-3
0.32800	-3
0.33167	1
0.33533	9
0.33900	22
0.34267	33
0.34633	37
0.35000	31
0.35367	19
0.35733	5
0.36100	-8
0.36467	-14
0.36833	-16
0.37200	-18
0.37567	-20
0.37933	-21
0.38300	-23
0.38667	-23
0.39033	-21
0.39400	-15
0.39767	-9
0.40133	-6
0.40500	-6
0.40867	-1
0.41233	6
0.41600	11
0.41967	12
0.42333	10
0.42700	6
0.43067	0
0.43433	-5
0.43800	-13
0.44167	-21
0.44533	-26
0.44900	-25
0.45267	-24
0.45633	-23
0.46000	-20
0.46367	-15
0.46733	-15
0.47100	-18
0.47467	-22
0.47833	-22
0.48200	-18
0.48567	-12
0.48933	-6
0.49300	-2
0.49667	1
0.50033	3
0.50400	5
0.50767	6
0.51133	6
0.51500	5
0.51867	3
0.52233	-4
0.52600	-10
0.52967	-12
0.53333	-10
0.53700	-8
0.54067	-14
0.54433	-23
0.54800	-27
0.55167	-27
0.55533	-23
0.55900	-20
0.56267	-20
0.56633	-22
0.57000	-26
0.57367	-29
0.57733	-29
0.58100	-26
0.58467	-21
0.58833	-18
0.59200	-18
0.59567	-20
0.59933	-21
0.60300	-24
0.60667	-25
0.61033	-21
0.61400	-12
0.61767	0
0.62133	7
0.62500	7
0.62867	7
0.63233	6
0.63600	2
0.63967	-5
0.64333	-13
0.64700	-19
0.65067	-23
0.65433	-23
0.65800	-21
0.66167	-18
0.66533	-14
0.66900	-12
0.67267	-10
0.67633	-8
0.68000	-5
0.68367	1
0.68733	5
0.69100	8
0.69467	12
0.69833	13
0.70200	9
0.70567	6
0.70933	1
0.71300	-7
0.71667	-13
0.72033	-14
0.72400	-9
0.72767	-6
0.73133	-5
0.73500	-4
0.73867	-5
0.74233	-7
0.74600	-10
0.74967	-9
0.75333	-6
0.75700	-2
0.76067	1
0.76433	1
0.76800	2
0.77167	0
0.77533	-6
0.77900	-15
0.78267	-19
0.78633	-20
0.79000	-20
0.79367	-21
0.79733	-23
0.80100	-22
0.80467	-16
0.80833	-9
0.81200	-5
0.81567	-5
0.81933	-9
0.82300	-16
0.82667	-23
0.83033	-29
0.83400	-32
0.83767	-34
0.84133	-33
0.84500	-33
0.84867	-32
0.85233	-30
0.85600	-29
0.85967	-26
0.86333	-23
0.86700	-18
0.87067	-14
0.87433	-9
0.87800	-2
0.88167	5
0.88533	11
0.88900	12
0.89267	9
0.89633	-1
0.90000	-15
0.90367	-27
0.90733	-34
0.91100	-40
0.91467	-43
0.91833	-39
0.92200	-30
0.92567	-21
0.92933	-17
0.93300	-16
0.93667	-21
0.94033	-27
0.94400	-30
0.94767	-28
0.95133	-26
0.95500	-26
0.95867	-27
0.96233	-32
0.96600	-36
0.96967	-36
0.97333	-31
0.97700	-27
0.98067	-24
0.98433	-24
0.98800	-25
0.99167	-26
0.99533	-23
0.99900	-19
1.00267	-16
1.00633	-13
1.01000	-11
1.01367	-11
1.01733	-14
1.02100	-18
1.02467	-23
1.02833	-27
1.03200	-31
1.03567	-35
1.03933	-38
1.04300	-39
1.04667	-37
1.05033	-33
1.05400	-29
1.05767	-24
1.06133	-21
1.06500	-20
1.06867	-20
1.07233	-19
1.07600	-22
1.07967	-31
1.08333	-41
1.08700	-48
1.09067	-48
1.09433	-43
1.09800	-37
1.10167	-32
1.10533	-30
1.10900	-27
1.11267	-26
1.11633	-27
1.12000	-29
1.12367	-31
1.12733	-31
1.13100	-26
1.13467	-20
1.13833	-15
1.14200	-15
1.14567	-18
1.14933	-23
1.15300	-30
1.15667	-35
1.16033	-38
1.16400	-41
1.16767	-42
1.17133	-41
1.17500	-39
1.17867	-38
1.18233	-35
1.18600	-32
1.18967	-32
1.19333	-29
1.19700	-22
1.20067	-15
1.20433	-17
1.20800	-24
1.21167	-33
1.21533	-38
1.21900	-42
1.22267	-45
1.22633	-46
1.23000	-43
1.23367	-37
1.23733	-33
1.24100	-34
1.24467	-38
1.24833	-42
1.25200	-44
1.25567	-42
1.25933	-39
1.26300	-42
1.26667	-48
1.27033	-52
1.27400	-52
1.27767	-48
1.28133	-42
1.28500	-37
1.28867	-31
1.29233	-26
1.29600	-23
1.29967	-19
1.30333	-15
1.30700	-16
1.31067	-21
1.31433	-31
1.31800	-39
1.32167	-46
1.32533	-51
1.32900	-58
1.33267	-61
1.33633	-60
1.34000	-57
1.34367	-53
1.34733	-48
1.35100	-44
1.35467	-43
1.35833	-44
1.36200	-46
1.36567	-48
1.36933	-51
1.37300	-54
1.37667	-57
1.38033	-57
1.38400	-57
1.38767	-52
1.39133	-42
1.39500	-40
1.39867	-45
1.40233	-51
1.40600	-55
1.40967	-58
1.41333	-58
1.41700	-51
1.42067	-41
1.42433	-33
1.42800	-31
1.43167	-30
1.43533	-18
1.43900	7
1.44267	42
1.44633	151
1.45000	422
1.45367	832
1.45733	1273
1.46100	1664
1.46467	1970
1.46833	2168
1.47200	2219
1.47567	2102
1.47933	1841
1.48300	1497
1.48667	1143
1.49033	834
1.49400	586
1.49767	396
1.50133	254
1.50500	153
1.50867	81
1.51233	31
1.51600	-2
1.51967	-20
1.52333	-30
1.52700	-36
1.53067	-31
1.53433	15
1.53800	163
1.54167	454
1.54533	860
1.54900	1288
1.55267	1664
1.55633	1947
1.56000	2111
1.56367	2122
1.56733	1962
1.57100	1662
1.57467	1293
1.57833	936
1.58200	638
1.58567	415
1.58933	259
1.59300	154
1.59667	81
1.60033	31
1.60400	-4
1.60767	-28
1.61133	-45
1.61500	-54
1.61867	-60
1.62233	-66
1.62600	-69
1.62967	-68
1.63333	-62
1.63700	-55
1.64067	-50
1.64433	-48
1.64800	-50
1.65167	-55
1.65533	-64
1.65900	-75
1.66267	-84
1.66633	-91
1.67000	-97
1.67367	-100
1.67733	-102
1.68100	-101
1.68467	-96
1.68833	-87
1.69200	-76
1.69567	-66
1.69933	-59
1.70300	-57
1.70667	-59
1.71033	-64
1.71400	-75
1.71767	-88
1.72133	-101
1.72500	-107
1.72867	-107
1.73233	-102
1.73600	-98
1.73967	-96
1.74333	-94
1.74700	-92
1.75067	-88
1.75433	-83
1.75800	-73
1.76167	-64
1.76533	-61
1.76900	-64
1.77267	-70
1.77633	-74
1.78000	-77
1.78367	-81
1.78733	-86
1.79100	-88
1.79467	-88
1.79833	-89
1.80200	-92
1.80567	-91
1.80933	-87
1.81300	-84
1.81667	-83
1.82033	-82
1.82400	-83
1.82767	-85
1.83133	-85
1.83500	-84
1.83867	-85
1.84233	-86
1.84600	-86
1.84967	-87
1.85333	-89
1.85700	-90
1.86067	-91
1.86433	-91
1.86800	-88
1.87167	-85
1.87533	-85
1.87900	-87
1.88267	-88
1.88633	-87
1.89000	-84
1.89367	-83
1.89733	-84
1.90100	-85
1.90467	-83
1.90833	-79
1.91200	-73
1.91567	-68
1.91933	-67
1.92300	-68
1.92667	-67
1.93033	-66
1.93400	-66
1.93767	-69
1.94133	-73
1.94500	-56
1.94867	104
1.95233	1036
1.95600	5140
1.95967	18709
1.96333	52992
1.96700	120150
1.97067	223693
1.97433	352104
1.97800	483436
1.98167	594542
1.98533	667713
1.98900	692317
1.99267	666128
1.99633	596824
2.00000	500316
2.00367	395376
2.00733	297523
2.01100	215671
2.01467	152369
2.01833	106062
2.02200	73462
2.02567	51084
2.02933	35953
2.03300	25784
2.03667	18941
2.04033	14302
2.04400	11120
2.04767	8897
2.05133	7307
2.05500	6136
2.05867	5253
2.06233	4573
2.06600	4038
2.06967	3608
2.07333	3258
2.07700	2969
2.08067	2725
2.08433	2515
2.08800	2332
2.09167	2174
2.09533	2039
2.09900	1924
2.10267	1820
2.10633	1724
2.11000	1632
2.11367	1542
2.11733	1457
2.12100	1377
2.12467	1303
2.12833	1237
2.13200	1176
2.13567	1125
2.13933	1081
2.14300	1039
2.14667	998
2.15033	961
2.15400	925
2.15767	892
2.16133	863
2.16500	837
2.16867	811
2.17233	788
2.17600	765
2.17967	742
2.18333	720
2.18700	703
2.19067	693
2.19433	681
2.19800	662
2.20167	639
2.20533	615
2.20900	589
2.21267	563
2.21633	538
2.22000	520
2.22367	506
2.22733	494
2.23100	486
2.23467	478
2.23833	469
2.24200	460
2.24567	454
2.24933	449
2.25300	440
2.25667	431
2.26033	421
2.26400	413
2.26767	407
2.27133	404
2.27500	406
2.27867	407
2.28233	403
2.28600	395
2.28967	383
2.29333	369
2.29700	355
2.30067	345
2.30433	337
2.30800	330
2.31167	325
2.31533	319
2.31900	311
2.32267	300
2.32633	290
2.33000	284
2.33367	285
2.33733	291
2.34100	297
2.34467	296
2.34833	291
2.35200	287
2.35567	287
2.35933	288
2.36300	286
2.36667	280
2.37033	270
2.37400	258
2.37767	247
2.38133	243
2.38500	246
2.38867	253
2.39233	261
2.39600	264
2.39967	262
2.40333	260
2.40700	256
2.41067	251
2.41433	246
2.41800	237
2.42167	229
2.42533	228
2.42900	230
2.43267	235
2.43633	237
2.44000	233
2.44367	227
2.44733	224
2.45100	223
2.45467	222
2.45833	222
2.46200	222
2.46567	220
2.46933	213
2.47300	208
2.47667	205
2.48033	203
2.48400	202
2.48767	205
2.49133	209
2.49500	212
2.49867	218
2.50233	225
2.50600	233
2.50967	241
2.51333	246
2.51700	247
2.52067	244
2.52433	239
2.52800	235
2.53167	232
2.53533	230
2.53900	228
2.54267	227
2.54633	229
2.55000	233
2.55367	237
2.55733	240
2.56100	240
2.56467	238
2.56833	230
2.57200	219
2.57567	208
2.57933	202
2.58300	199
2.58667	201
2.59033	208
2.59400	216
2.59767	218
2.60133	219
2.60500	216
2.60867	211
2.61233	206
2.61600	203
2.61967	201
2.62333	201
2.62700	201
2.63067	203
2.63433	207
2.63800	211
2.64167	216
2.64533	222
2.64900	231
2.65267	239
2.65633	245
2.66000	249
2.66367	252
2.66733	249
2.67100	242
2.67467	234
2.67833	231
2.68200	234
2.68567	238
2.68933	241
2.69300	238
2.69667	229
2.70033	218
2.70400	212
2.70767	210
2.71133	211
2.71500	212
2.71867	212
2.72233	211
2.72600	212
2.72967	218
2.73333	226
2.73700	232
2.74067	233
2.74433	232
2.74800	228
2.75167	225
2.75533	228
2.75900	235
2.76267	242
2.76633	247
2.77000	251
2.77367	253
2.77733	254
2.78100	255
2.78467	256
2.78833	258
2.79200	259
2.79567	261
2.79933	266
2.80300	273
2.80667	277
2.81033	273
2.81400	265
2.81767	258
2.82133	254
2.82500	255
2.82867	259
2.83233	264
2.83600	268
2.83967	270
2.84333	271
2.84700	270
2.85067	268
2.85433	263
2.85800	259
2.86167	260
2.86533	265
2.86900	272
2.87267	278
2.87633	281
2.88000	280
2.88367	276
2.88733	271
2.89100	266
2.89467	259
2.89833	253
2.90200	249
2.90567	249
2.90933	253
2.91300	257
2.91667	258
2.92033	258
2.92400	262
2.92767	267
2.93133	269
2.93500	271
2.93867	274
2.94233	279
2.94600	282
2.94967	280
2.95333	277
2.95700	278
2.96067	280
2.96433	283
2.96800	288
2.97167	292
2.97533	293
2.97900	292
2.98267	291
2.98633	290
2.99000	290
2.99367	289
2.99733	287
3.00100	288
3.00467	289
3.00833	293
3.01200	302
3.01567	308
3.01933	309
3.02300	309
3.02667	310
3.03033	308
3.03400	301
3.03767	292
3.04133	285
3.04500	282
3.04867	282
3.05233	284
3.05600	291
3.05967	294
3.06333	293
3.06700	290
3.07067	288
3.07433	284
3.07800	284
3.08167	286
3.08533	290
3.08900	293
3.09267	294
3.09633	295
3.10000	298
3.10367	306
3.10733	312
3.11100	311
3.11467	303
3.11833	294
3.12200	290
3.12567	291
3.12933	296
3.13300	302
3.13667	310
3.14033	318
3.14400	324
3.14767	326
3.15133	325
3.15500	322
3.15867	316
3.16233	310
3.16600	303
3.16967	292
3.17333	283
3.17700	280
3.18067	280
3.18433	283
3.18800	288
3.19167	293
3.19533	299
3.19900	303
3.20267	301
3.20633	296
3.21000	285
3.21367	273
3.21733	265
3.22100	266
3.22467	276
3.22833	286
3.23200	296
3.23567	302
3.23933	302
3.24300	298
3.24667	293
3.25033	292
3.25400	289
3.25767	289
3.26133	294
3.26500	300
3.26867	303
3.27233	302
3.27600	299
3.27967	294
3.28333	293
3.28700	294
3.29067	295
3.29433	294
3.29800	289
3.30167	282
3.30533	277
3.30900	275
3.31267	275
3.31633	276
3.32000	277
3.32367	278
3.32733	278
3.33100	275
3.33467	272
3.33833	270
3.34200	269
3.34567	266
3.34933	259
3.35300	255
3.35667	256
3.36033	260
3.36400	266
3.36767	272
3.37133	278
3.37500	286
3.37867	292
3.38233	295
3.38600	295
3.38967	294
3.39333	297
3.39700	301
3.40067	306
3.40433	308
3.40800	301
3.41167	287
3.41533	274
3.41900	266
3.42267	266
3.42633	269
3.43000	272
3.43367	272
3.43733	268
3.44100	265
3.44467	264
3.44833	267
3.45200	273
3.45567	281
3.45933	291
3.46300	296
3.46667	295
3.47033	290
3.47400	285
3.47767	284
3.48133	287
3.48500	289
3.48867	290
3.49233	290
3.49600	284
3.49967	275
3.50333	268
3.50700	265
3.51067	265
3.51433	265
3.51800	265
3.52167	258
3.52533	246
3.52900	234
3.53267	226
3.53633	224
3.54000	231
3.54367	242
3.54733	253
3.55100	259
3.55467	259
3.55833	255
3.56200	252
3.56567	247
3.56933	242
3.57300	240
3.57667	240
3.58033	240
3.58400	240
3.58767	241
3.59133	241
3.59500	243
3.59867	244
3.60233	243
3.60600	241
3.60967	242
3.61333	245
3.61700	248
3.62067	252
3.62433	255
3.62800	256
3.63167	256
3.63533	253
3.63900	251
3.64267	249
3.64633	252
3.65000	256
3.65367	259
3.65733	261
3.66100	259
3.66467	253
3.66833	243
3.67200	234
3.67567	226
3.67933	223
3.68300	223
3.68667	223
3.69033	226
3.69400	231
3.69767	236
3.70133	240
3.70500	244
3.70867	247
3.71233	247
3.71600	248
3.71967	249
3.72333	245
3.72700	239
3.73067	238
3.73433	242
3.73800	250
3.74167	256
3.74533	259
3.74900	259
3.75267	252
3.75633	242
3.76000	233
3.76367	224
3.76733	215
3.77100	211
3.77467	210
3.77833	212
3.78200	215
3.78567	220
3.78933	225
3.79300	230
3.79667	233
3.80033	234
3.80400	235
3.80767	234
3.81133	231
3.81500	230
3.81867	228
3.82233	228
3.82600	228
3.82967	228
3.83333	230
3.83700	230
3.84067	226
3.84433	219
3.84800	211
3.85167	204
3.85533	200
3.85900	202
3.86267	209
3.86633	215
3.87000	217
3.87367	218
3.87733	220
3.88100	221
3.88467	225
3.88833	231
3.89200	234
3.89567	234
3.89933	234
3.90300	234
3.90667	231
3.91033	226
3.91400	217
3.91767	203
3.92133	190
3.92500	177
3.92867	166
3.93233	161
3.93600	164
3.93967	172
3.94333	182
3.94700	193
3.95067	202
3.95433	210
3.95800	217
3.96167	222
3.96533	222
3.96900	218
3.97267	212
3.97633	210
3.98000	214
3.98367	226
3.98733	237
3.99100	240
3.99467	237
3.99833	229

[Chromatogram (Ch2)]
Interval(msec)	220
# of Points	1091
Start Time(min)	0.002
End Time(min)	3.998
R.Time (min)	Intensity
0.00167	-1
0.00533	-1
0.00900	-1
0.01267	-1
0.01633	-2
0.02000	-2
0.02367	-2
0.02733	-2
0.03100	-2
0.03467	-2
0.03833	-2
0.04200	-2
0.04567	-2
0.04933	-2
0.05300	-2
0.05667	-2
0.06033	-3
0.06400	-3
0.06767	-2
0.07133	-2
0.07500	-2
0.07867	-2
0.08233	-2
0.08600	-2
0.08967	-2
0.09333	-1
0.09700	-1
0.10067	-0
0.10433	-0
0.10800	0
0.11167	0
0.11533	0
0.11900	1
0.12267	1
0.12633	1
0.13000	1
0.13367	1
0.13733	1
0.14100	0
0.14467	0
0.14833	-0
0.15200	-0
0.15567	-0
0.15933	-1
0.16300	-1
0.16667	-1
0.17033	-2
0.17400	-2
0.17767	-2
0.18133	-2
0.18500	-1
0.18867	-1
0.19233	-2
0.19600	-2
0.19967	-2
0.20333	-2
0.20700	-3
0.21067	-3
0.21433	-3
0.21800	-3
0.22167	-3
0.22533	-2
0.22900	-2
0.23267	-2
0.23633	-2
0.24000	-1
0.24367	-1
0.24733	-1
0.25100	-1
0.25467	-1
0.25833	-0
0.26200	-0
0.26567	-0
0.26933	0
0.27300	-0
0.27667	-0
0.28033	-0
0.28400	-1
0.28767	-1
0.29133	-2
0.29500	-2
0.29867	-3
0.30233	-3
0.30600	-4
0.30967	-3
0.31333	-3
0.31700	-3
0.32067	-3
0.32433	-3
0.32800	-2
0.33167	-2
0.33533	-2
0.33900	-1
0.34267	-1
0.34633	-1
0.35000	-0
0.35367	-0
0.35733	-0
0.36100	-1
0.36467	-1
0.36833	-1
0.37200	-1
0.37567	-1
0.37933	-1
0.38300	-1
0.38667	-1
0.39033	-0
0.39400	-0
0.39767	-0
0.40133	-0
0.40500	-1
0.40867	-1
0.41233	-1
0.41600	-1
0.41967	-1
0.42333	-1
0.42700	-1
0.43067	-1
0.43433	-2
0.43800	-2
0.44167	-2
0.44533	-2
0.44900	-2
0.45267	-2
0.45633	-2
0.46000	-2
0.46367	-2
0.46733	-1
0.47100	-1
0.47467	-1
0.47833	-1
0.48200	-1
0.48567	-0
0.48933	-0
0.49300	-1
0.49667	-1
0.50033	-1
0.50400	-1
0.50767	-1
0.51133	-1
0.51500	-0
0.51867	-0
0.52233	-0
0.52600	-1
0.52967	-1
0.53333	-1
0.53700	-2
0.54067	-2
0.54433	-1
0.54800	-1
0.55167	-1
0.55533	-0
0.55900	-0
0.56267	-0
0.56633	-0
0.57000	-0
0.57367	-0
0.57733	-0
0.58100	-0
0.58467	-0
0.58833	-0
0.59200	-0
0.59567	-0
0.59933	-0
0.60300	-0
0.60667	-0
0.61033	-0
0.61400	0
0.61767	0
0.62133	0
0.62500	-0
0.62867	-1
0.63233	-1
0.63600	-1
0.63967	-2
0.64333	-2
0.64700	-2
0.65067	-1
0.65433	-1
0.65800	-1
0.66167	-1
0.66533	-1
0.66900	-1
0.67267	-1
0.67633	-1
0.68000	-1
0.68367	-1
0.68733	-1
0.69100	-1
0.69467	-2
0.69833	-2
0.70200	-2
0.70567	-2
0.70933	-2
0.71300	-2
0.71667	-3
0.72033	-3
0.72400	-3
0.72767	-3
0.73133	-3
0.73500	-3
0.73867	-2
0.74233	-2
0.74600	-2
0.74967	-2
0.75333	-2
0.75700	-2
0.76067	-1
0.76433	-2
0.76800	-2
0.77167	-1
0.77533	-1
0.77900	-1
0.78267	-1
0.78633	-1
0.79000	-2
0.79367	-2
0.79733	-2
0.80100	-2
0.80467	-2
0.80833	-2
0.81200	-2
0.81567	-2
0.81933	-2
0.82300	-2
0.82667	-2
0.83033	-2
0.83400	-3
0.83767	-3
0.84133	-3
0.84500	-3
0.84867	-3
0.85233	-4
0.85600	-4
0.85967	-4
0.86333	-4
0.86700	-4
0.87067	-3
0.87433	-3
0.87800	-3
0.88167	-3
0.88533	-3
0.88900	-3
0.89267	-3
0.89633	-3
0.90000	-2
0.90367	-2
0.90733	-2
0.91100	-2
0.91467	-2
0.91833	-2
0.92200	-2
0.92567	-2
0.92933	-3
0.93300	-3
0.93667	-3
0.94033	-3
0.94400	-3
0.94767	-3
0.95133	-3
0.95500	-2
0.95867	-2
0.96233	-2
0.96600	-2
0.96967	-1
0.97333	-1
0.97700	-1
0.98067	-1
0.98433	-1
0.98800	-1
0.99167	-1
0.99533	-2
0.99900	-2
1.00267	-2
1.00633	-2
1.01000	-2
1.01367	-2
1.01733	-2
1.02100	-2
1.02467	-1
1.02833	-1
1.03200	-1
1.03567	-1
1.03933	-1
1.04300	-1
1.04667	-1
1.05033	-1
1.05400	-1
1.05767	-1
1.06133	-2
1.06500	-2
1.06867	-2
1.07233	-2
1.07600	-2
1.07967	-2
1.08333	-2
1.08700	-3
1.09067	-3
1.09433	-3
1.09800	-3
1.10167	-3
1.10533	-3
1.10900	-3
1.11267	-3
1.11633	-3
1.12000	-3
1.12367	-3
1.12733	-3
1.13100	-3
1.13467	-3
1.13833	-3
1.14200	-3
1.14567	-3
1.14933	-2
1.15300	-2
1.15667	-2
1.16033	-2
1.16400	-2
1.16767	-2
1.17133	-2
1.17500	-2
1.17867	-2
1.18233	-2
1.18600	-2
1.18967	-2
1.19333	-2
1.19700	-2
1.20067	-2
1.20433	-2
1.20800	-2
1.21167	-2
1.21533	-2
1.21900	-2
1.22267	-2
1.22633	-2
1.23000	-2
1.23367	-2
1.23733	-2
1.24100	-3
1.24467	-3
1.24833	-3
1.25200	-3
1.25567	-3
1.25933	-3
1.26300	-3
1.26667	-3
1.27033	-2
1.27400	-2
1.27767	-2
1.28133	-2
1.28500	-2
1.28867	-2
1.29233	-2
1.29600	-2
1.29967	-2
1.30333	-2
1.30700	-2
1.31067	-2
1.31433	-1
1.31800	-1
1.32167	-1
1.32533	-1
1.32900	-1
1.33267	-2
1.33633	-2
1.34000	-2
1.34367	-2
1.34733	-3
1.35100	-3
1.35467	-4
1.35833	-4
1.36200	-5
1.36567	-5
1.36933	-6
1.37300	-6
1.37667	-6
1.38033	-6
1.38400	-6
1.38767	-6
1.39133	-6
1.39500	-7
1.39867	-7
1.40233	-7
1.40600	-7
1.40967	-7
1.41333	-7
1.41700	-7
1.42067	-6
1.42433	-6
1.42800	-6
1.43167	-5
1.43533	-5
1.43900	-4
1.44267	-4
1.44633	-3
1.45000	-3
1.45367	-3
1.45733	-3
1.46100	-3
1.46467	-3
1.46833	-3
1.47200	-3
1.47567	-2
1.47933	-2
1.48300	-2
1.48667	-2
1.49033	-2
1.49400	-3
1.49767	-3
1.50133	-3
1.50500	-3
1.50867	-3
1.51233	-3
1.51600	-3
1.51967	-2
1.52333	-2
1.52700	-2
1.53067	-3
1.53433	-3
1.53800	-3
1.54167	-3
1.54533	-3
1.54900	-3
1.55267	-4
1.55633	-4
1.56000	-4
1.56367	-4
1.56733	-4
1.57100	-4
1.57467	-5
1.57833	-5
1.58200	-5
1.58567	-5
1.58933	-5
1.59300	-5
1.59667	-6
1.60033	-6
1.60400	-7
1.60767	-9
1.61133	-11
1.61500	-12
1.61867	-15
1.62233	-17
1.62600	-20
1.62967	-23
1.63333	-26
1.63700	-30
1.64067	-33
1.64433	-36
1.64800	-39
1.65167	-43
1.65533	-46
1.65900	-49
1.66267	-52
1.66633	-56
1.67000	-60
1.67367	-64
1.67733	-68
1.68100	-72
1.68467	-76
1.68833	-80
1.69200	-84
1.69567	-87
1.69933	-90
1.70300	-93
1.70667	-94
1.71033	-96
1.71400	-97
1.71767	-98
1.72133	-98
1.72500	-99
1.72867	-99
1.73233	-99
1.73600	-100
1.73967	-100
1.74333	-100
1.74700	-100
1.75067	-100
1.75433	-101
1.75800	-101
1.76167	-101
1.76533	-101
1.76900	-101
1.77267	-101
1.77633	-101
1.78000	-102
1.78367	-102
1.78733	-103
1.79100	-104
1.79467	-104
1.79833	-105
1.80200	-105
1.80567	-105
1.80933	-105
1.81300	-105
1.81667	-105
1.82033	-105
1.82400	-105
1.82767	-105
1.83133	-105
1.83500	-105
1.83867	-105
1.84233	-105
1.84600	-106
1.84967	-106
1.85333	-106
1.85700	-106
1.86067	-106
1.86433	-105
1.86800	-104
1.87167	-104
1.87533	-103
1.87900	-103
1.88267	-103
1.88633	-103
1.89000	-103
1.89367	-103
1.89733	-103
1.90100	-103
1.90467	-102
1.90833	-102
1.91200	-102
1.91567	-102
1.91933	-102
1.92300	-102
1.92667	-102
1.93033	-102
1.93400	-102
1.93767	-103
1.94133	-103
1.94500	-103
1.94867	-103
1.95233	-102
1.95600	-102
1.95967	-102
1.96333	-101
1.96700	-101
1.97067	-101
1.97433	-100
1.97800	-100
1.98167	-100
1.98533	-99
1.98900	-99
1.99267	-98
1.99633	-98
2.00000	-98
2.00367	-98
2.00733	-99
2.01100	-99
2.01467	-98
2.01833	-98
2.02200	-97
2.02567	-97
2.02933	-96
2.03300	-96
2.03667	-96
2.04033	-96
2.04400	-96
2.04767	-95
2.05133	-95
2.05500	-95
2.05867	-94
2.06233	-94
2.06600	-94
2.06967	-94
2.07333	-94
2.07700	-93
2.08067	-93
2.08433	-92
2.08800	-92
2.09167	-91
2.09533	-91
2.09900	-90
2.10267	-89
2.10633	-89
2.11000	-89
2.11367	-89
2.11733	-89
2.12100	-89
2.12467	-89
2.12833	-89
2.13200	-88
2.13567	-88
2.13933	-88
2.14300	-87
2.14667	-87
2.15033	-87
2.15400	-86
2.15767	-86
2.16133	-85
2.16500	-84
2.16867	-84
2.17233	-84
2.17600	-85
2.17967	-85
2.18333	-85
2.18700	-85
2.19067	-85
2.19433	-85
2.19800	-85
2.20167	-85
2.20533	-85
2.20900	-84
2.21267	-83
2.21633	-82
2.22000	-81
2.22367	-80
2.22733	-80
2.23100	-79
2.23467	-79
2.23833	-79
2.24200	-78
2.24567	-78
2.24933	-78
2.25300	-78
2.25667	-78
2.26033	-78
2.26400	-78
2.26767	-78
2.27133	-78
2.27500	-78
2.27867	-78
2.28233	-78
2.28600	-78
2.28967	-78
2.29333	-77
2.29700	-77
2.30067	-76
2.30433	-75
2.30800	-75
2.31167	-75
2.31533	-74
2.31900	-74
2.32267	-74
2.32633	-74
2.33000	-73
2.33367	-73
2.33733	-72
2.34100	-71
2.34467	-71
2.34833	-70
2.35200	-68
2.35567	-67
2.35933	-66
2.36300	-65
2.36667	-64
2.37033	-63
2.37400	-61
2.37767	-59
2.38133	-56
2.38500	-53
2.38867	-49
2.39233	-45
2.39600	-41
2.39967	-37
2.40333	-33
2.40700	-29
2.41067	-24
2.41433	-21
2.41800	-17
2.42167	-14
2.42533	-11
2.42900	-8
2.43267	-5
2.43633	-3
2.44000	-0
2.44367	2
2.44733	4
2.45100	5
2.45467	6
2.45833	7
2.46200	8
2.46567	8
2.46933	9
2.47300	10
2.47667	11
2.48033	12
2.48400	12
2.48767	13
2.49133	13
2.49500	14
2.49867	13
2.50233	13
2.50600	13
2.50967	13
2.51333	13
2.51700	12
2.52067	12
2.52433	11
2.52800	10
2.53167	9
2.53533	8
2.53900	8
2.54267	7
2.54633	8
2.55000	8
2.55367	8
2.55733	9
2.56100	10
2.56467	11
2.56833	11
2.57200	12
2.57567	13
2.57933	14
2.58300	15
2.58667	15
2.59033	16
2.59400	16
2.59767	17
2.60133	17
2.60500	18
2.60867	18
2.61233	18
2.61600	18
2.61967	18
2.62333	18
2.62700	18
2.63067	19
2.63433	19
2.63800	20
2.64167	20
2.64533	20
2.64900	21
2.65267	21
2.65633	22
2.66000	22
2.66367	22
2.66733	22
2.67100	22
2.67467	22
2.67833	22
2.68200	23
2.68567	23
2.68933	23
2.69300	23
2.69667	23
2.70033	23
2.70400	23
2.70767	23
2.71133	23
2.71500	24
2.71867	24
2.72233	24
2.72600	24
2.72967	25
2.73333	25
2.73700	25
2.74067	25
2.74433	25
2.74800	26
2.75167	26
2.75533	27
2.75900	27
2.76267	27
2.76633	28
2.77000	28
2.77367	28
2.77733	29
2.78100	29
2.78467	29
2.78833	29
2.79200	29
2.79567	28
2.79933	28
2.80300	28
2.80667	27
2.81033	27
2.81400	27
2.81767	27
2.82133	27
2.82500	26
2.82867	26
2.83233	26
2.83600	26
2.83967	26
2.84333	26
2.84700	27
2.85067	27
2.85433	27
2.85800	26
2.86167	25
2.86533	22
2.86900	17
2.87267	10
2.87633	-1
2.88000	-17
2.88367	-37
2.88733	-62
2.89100	-93
2.89467	-129
2.89833	-169
2.90200	-215
2.90567	-264
2.90933	-318
2.91300	-374
2.91667	-433
2.92033	-494
2.92400	-556
2.92767	-617
2.93133	-678
2.93500	-738
2.93867	-795
2.94233	-849
2.94600	-901
2.94967	-955
2.95333	-1010
2.95700	-1060
2.96067	-1095
2.96433	-1107
2.96800	-1094
2.97167	-1057
2.97533	-1002
2.97900	-932
2.98267	-855
2.98633	-775
2.99000	-694
2.99367	-616
2.99733	-543
3.00100	-476
3.00467	-414
3.00833	-359
3.01200	-309
3.01567	-266
3.01933	-227
3.02300	-194
3.02667	-165
3.03033	-140
3.03400	-118
3.03767	-99
3.04133	-83
3.04500	-69
3.04867	-56
3.05233	-46
3.05600	-37
3.05967	-30
3.06333	-23
3.06700	-18
3.07067	-13
3.07433	-9
3.07800	-5
3.08167	-2
3.08533	0
3.08900	3
3.09267	5
3.09633	7
3.10000	8
3.10367	9
3.10733	10
3.11100	11
3.11467	12
3.11833	13
3.12200	14
3.12567	15
3.12933	16
3.13300	16
3.13667	16
3.14033	17
3.14400	17
3.14767	17
3.15133	17
3.15500	18
3.15867	18
3.16233	19
3.16600	19
3.16967	19
3.17333	19
3.17700	20
3.18067	20
3.18433	20
3.18800	20
3.19167	20
3.19533	21
3.19900	21
3.20267	21
3.20633	21
3.21000	21
3.21367	21
3.21733	21
3.22100	22
3.22467	22
3.22833	22
3.23200	22
3.23567	23
3.23933	23
3.24300	23
3.24667	23
3.25033	23
3.25400	23
3.25767	22
3.26133	22
3.26500	22
3.26867	22
3.27233	22
3.27600	22
3.27967	23
3.28333	23
3.28700	23
3.29067	23
3.29433	23
3.29800	23
3.30167	23
3.30533	24
3.30900	24
3.31267	24
3.31633	24
3.32000	24
3.32367	24
3.32733	24
3.33100	24
3.33467	24
3.33833	24
3.34200	25
3.34567	25
3.34933	25
3.35300	26
3.35667	26
3.36033	26
3.36400	26
3.36767	26
3.37133	26
3.37500	26
3.37867	26
3.38233	26
3.38600	26
3.38967	27
3.39333	27
3.39700	27
3.40067	27
3.40433	27
3.40800	27
3.41167	27
3.41533	27
3.41900	27
3.42267	28
3.42633	28
3.43000	28
3.43367	28
3.43733	28
3.44100	28
3.44467	28
3.44833	28
3.45200	29
3.45567	29
3.45933	29
3.46300	29
3.46667	29
3.47033	29
3.47400	29
3.47767	29
3.48133	28
3.48500	28
3.48867	28
3.49233	28
3.49600	28
3.49967	28
3.50333	28
3.50700	28
3.51067	27
3.51433	27
3.51800	27
3.52167	27
3.52533	27
3.52900	27
3.53267	27
3.53633	27
3.54000	27
3.54367	27
3.54733	26
3.55100	26
3.55467	26
3.55833	26
3.56200	26
3.56567	26
3.56933	26
3.57300	26
3.57667	26
3.58033	26
3.58400	27
3.58767	27
3.59133	27
3.59500	27
3.59867	27
3.60233	27
3.60600	27
3.60967	27
3.61333	27
3.61700	27
3.62067	27
3.62433	28
3.62800	28
3.63167	28
3.63533	28
3.63900	28
3.64267	28
3.64633	28
3.65000	28
3.65367	28
3.65733	29
3.66100	29
3.66467	29
3.66833	29
3.67200	29
3.67567	29
3.67933	28
3.68300	28
3.68667	28
3.69033	28
3.69400	28
3.69767	28
3.70133	28
3.70500	28
3.70867	28
3.71233	28
3.71600	28
3.71967	28
3.72333	28
3.72700	28
3.73067	27
3.73433	27
3.73800	27
3.74167	27
3.74533	27
3.74900	28
3.75267	28
3.75633	28
3.76000	28
3.76367	27
3.76733	27
3.77100	27
3.77467	27
3.77833	27
3.78200	27
3.78567	27
3.78933	27
3.79300	27
3.79667	27
3.80033	27
3.80400	27
3.80767	27
3.81133	27
3.81500	27
3.81867	27
3.82233	27
3.82600	28
3.82967	28
3.83333	28
3.83700	28
3.84067	28
3.84433	29
3.84800	28
3.85167	29
3.85533	29
3.85900	28
3.86267	28
3.86633	28
3.87000	28
3.87367	28
3.87733	28
3.88100	27
3.88467	27
3.88833	27
3.89200	28
3.89567	28
3.89933	28
3.90300	28
3.90667	28
3.91033	28
3.91400	28
3.91767	28
3.92133	28
3.92500	28
3.92867	28
3.93233	28
3.93600	28
3.93967	28
3.94333	28
3.94700	28
3.95067	27
3.95433	27
3.95800	27
3.96167	28
3.96533	28
3.96900	28
3.97267	28
3.97633	28
3.98000	28
3.98367	28
3.98733	28
3.99100	28
3.99467	28
3.99833	28

[Chromatogram (Ch3)]
Interval(msec)	220
# of Points	1091
Start Time(min)	0.002
End Time(min)	3.998
R.Time (min)	Intensity
0.00167	1
0.00533	4
0.00900	6
0.01267	8
0.01633	9
0.02000	8
0.02367	7
0.02733	7
0.03100	8
0.03467	8
0.03833	8
0.04200	8
0.04567	10
0.04933	9
0.05300	9
0.05667	9
0.06033	8
0.06400	8
0.06767	9
0.07133	9
0.07500	9
0.07867	9
0.08233	10
0.08600	12
0.08967	12
0.09333	12
0.09700	11
0.10067	10
0.10433	9
0.10800	8
0.11167	8
0.11533	9
0.11900	10
0.12267	12
0.12633	12
0.13000	9
0.13367	9
0.13733	10
0.14100	12
0.14467	13
0.14833	15
0.15200	16
0.15567	17
0.15933	16
0.16300	14
0.16667	12
0.17033	12
0.17400	11
0.17767	11
0.18133	13
0.18500	16
0.18867	17
0.19233	15
0.19600	14
0.19967	15
0.20333	15
0.20700	14
0.21067	13
0.21433	13
0.21800	14
0.22167	14
0.22533	15
0.22900	13
0.23267	13
0.23633	13
0.24000	12
0.24367	11
0.24733	11
0.25100	12
0.25467	12
0.25833	13
0.26200	14
0.26567	12
0.26933	11
0.27300	9
0.27667	7
0.28033	8
0.28400	7
0.28767	8
0.29133	8
0.29500	9
0.29867	9
0.30233	10
0.30600	11
0.30967	10
0.31333	9
0.31700	10
0.32067	10
0.32433	8
0.32800	6
0.33167	6
0.33533	7
0.33900	7
0.34267	7
0.34633	7
0.35000	7
0.35367	7
0.35733	7
0.36100	7
0.36467	8
0.36833	11
0.37200	14
0.37567	16
0.37933	18
0.38300	17
0.38667	14
0.39033	13
0.39400	14
0.39767	13
0.40133	13
0.40500	12
0.40867	10
0.41233	8
0.41600	7
0.41967	9
0.42333	9
0.42700	10
0.43067	12
0.43433	13
0.43800	13
0.44167	11
0.44533	9
0.44900	8
0.45267	9
0.45633	9
0.46000	10
0.46367	11
0.46733	14
0.47100	12
0.47467	9
0.47833	7
0.48200	6
0.48567	8
0.48933	8
0.49300	10
0.49667	9
0.50033	8
0.50400	8
0.50767	9
0.51133	9
0.51500	6
0.51867	4
0.52233	3
0.52600	5
0.52967	8
0.53333	13
0.53700	16
0.54067	16
0.54433	15
0.54800	14
0.55167	14
0.55533	13
0.55900	11
0.56267	9
0.56633	8
0.57000	7
0.57367	6
0.57733	8
0.58100	8
0.58467	7
0.58833	7
0.59200	8
0.59567	7
0.59933	6
0.60300	8
0.60667	10
0.61033	11
0.61400	12
0.61767	13
0.62133	14
0.62500	15
0.62867	12
0.63233	10
0.63600	10
0.63967	10
0.64333	11
0.64700	10
0.65067	10
0.65433	11
0.65800	15
0.66167	14
0.66533	15
0.66900	17
0.67267	16
0.67633	16
0.68000	15
0.68367	14
0.68733	13
0.69100	13
0.69467	13
0.69833	13
0.70200	13
0.70567	12
0.70933	11
0.71300	12
0.71667	12
0.72033	13
0.72400	15
0.72767	15
0.73133	15
0.73500	14
0.73867	15
0.74233	15
0.74600	11
0.74967	11
0.75333	12
0.75700	14
0.76067	16
0.76433	18
0.76800	19
0.77167	17
0.77533	15
0.77900	14
0.78267	13
0.78633	13
0.79000	12
0.79367	10
0.79733	11
0.80100	11
0.80467	14
0.80833	16
0.81200	17
0.81567	18
0.81933	17
0.82300	16
0.82667	15
0.83033	14
0.83400	13
0.83767	11
0.84133	10
0.84500	9
0.84867	10
0.85233	11
0.85600	9
0.85967	8
0.86333	6
0.86700	7
0.87067	8
0.87433	11
0.87800	11
0.88167	11
0.88533	11
0.88900	14
0.89267	15
0.89633	16
0.90000	16
0.90367	14
0.90733	13
0.91100	14
0.91467	14
0.91833	16
0.92200	18
0.92567	18
0.92933	19
0.93300	20
0.93667	20
0.94033	20
0.94400	19
0.94767	19
0.95133	22
0.95500	20
0.95867	20
0.96233	18
0.96600	17
0.96967	15
0.97333	15
0.97700	16
0.98067	17
0.98433	16
0.98800	12
0.99167	10
0.99533	9
0.99900	9
1.00267	9
1.00633	10
1.01000	10
1.01367	10
1.01733	11
1.02100	13
1.02467	14
1.02833	15
1.03200	14
1.03567	13
1.03933	13
1.04300	13
1.04667	13
1.05033	14
1.05400	13
1.05767	12
1.06133	12
1.06500	11
1.06867	12
1.07233	12
1.07600	14
1.07967	16
1.08333	17
1.08700	18
1.09067	17
1.09433	15
1.09800	13
1.10167	12
1.10533	12
1.10900	11
1.11267	12
1.11633	11
1.12000	11
1.12367	11
1.12733	11
1.13100	10
1.13467	11
1.13833	10
1.14200	9
1.14567	8
1.14933	7
1.15300	7
1.15667	7
1.16033	8
1.16400	9
1.16767	11
1.17133	13
1.17500	14
1.17867	14
1.18233	12
1.18600	12
1.18967	12
1.19333	12
1.19700	13
1.20067	14
1.20433	14
1.20800	15
1.21167	13
1.21533	12
1.21900	10
1.22267	11
1.22633	13
1.23000	14
1.23367	17
1.23733	16
1.24100	15
1.24467	14
1.24833	14
1.25200	14
1.25567	14
1.25933	15
1.26300	16
1.26667	17
1.27033	18
1.27400	18
1.27767	18
1.28133	16
1.28500	14
1.28867	13
1.29233	11
1.29600	11
1.29967	13
1.30333	12
1.30700	12
1.31067	13
1.31433	14
1.31800	12
1.32167	11
1.32533	10
1.32900	10
1.33267	11
1.33633	12
1.34000	15
1.34367	17
1.34733	19
1.35100	20
1.35467	20
1.35833	21
1.36200	23
1.36567	24
1.36933	21
1.37300	20
1.37667	19
1.38033	19
1.38400	18
1.38767	18
1.39133	19
1.39500	19
1.39867	19
1.40233	18
1.40600	15
1.40967	13
1.41333	12
1.41700	14
1.42067	16
1.42433	16
1.42800	15
1.43167	16
1.43533	17
1.43900	20
1.44267	20
1.44633	19
1.45000	17
1.45367	17
1.45733	17
1.46100	17
1.46467	16
1.46833	16
1.47200	18
1.47567	20
1.47933	22
1.48300	24
1.48667	24
1.49033	23
1.49400	22
1.49767	21
1.50133	19
1.50500	17
1.50867	16
1.51233	17
1.51600	17
1.51967	16
1.52333	16
1.52700	18
1.53067	18
1.53433	18
1.53800	17
1.54167	16
1.54533	15
1.54900	13
1.55267	11
1.55633	12
1.56000	13
1.56367	13
1.56733	13
1.57100	13
1.57467	13
1.57833	14
1.58200	15
1.58567	16
1.58933	20
1.59300	23
1.59667	24
1.60033	24
1.60400	25
1.60767	22
1.61133	20
1.61500	21
1.61867	19
1.62233	18
1.62600	19
1.62967	22
1.63333	23
1.63700	23
1.64067	22
1.64433	22
1.64800	23
1.65167	26
1.65533	27
1.65900	26
1.66267	24
1.66633	24
1.67000	24
1.67367	26
1.67733	29
1.68100	29
1.68467	28
1.68833	27
1.69200	26
1.69567	26
1.69933	27
1.70300	29
1.70667	28
1.71033	28
1.71400	30
1.71767	31
1.72133	33
1.72500	35
1.72867	35
1.73233	33
1.73600	33
1.73967	34
1.74333	34
1.74700	32
1.75067	32
1.75433	33
1.75800	35
1.76167	35
1.76533	35
1.76900	36
1.77267	37
1.77633	38
1.78000	40
1.78367	43
1.78733	43
1.79100	44
1.79467	45
1.79833	45
1.80200	43
1.80567	43
1.80933	44
1.81300	44
1.81667	45
1.82033	47
1.82400	47
1.82767	47
1.83133	48
1.83500	50
1.83867	53
1.84233	54
1.84600	54
1.84967	54
1.85333	54
1.85700	53
1.86067	54
1.86433	53
1.86800	52
1.87167	51
1.87533	51
1.87900	50
1.88267	50
1.88633	51
1.89000	53
1.89367	55
1.89733	56
1.90100	55
1.90467	54
1.90833	53
1.91200	55
1.91567	58
1.91933	60
1.92300	62
1.92667	62
1.93033	62
1.93400	61
1.93767	61
1.94133	62
1.94500	62
1.94867	61
1.95233	61
1.95600	61
1.95967	62
1.96333	64
1.96700	63
1.97067	66
1.97433	68
1.97800	69
1.98167	70
1.98533	70
1.98900	70
1.99267	70
1.99633	71
2.00000	72
2.00367	71
2.00733	72
2.01100	73
2.01467	73
2.01833	73
2.02200	73
2.02567	72
2.02933	71
2.03300	71
2.03667	72
2.04033	73
2.04400	76
2.04767	77
2.05133	78
2.05500	79
2.05867	79
2.06233	79
2.06600	81
2.06967	83
2.07333	85
2.07700	87
2.08067	88
2.08433	88
2.08800	89
2.09167	90
2.09533	90
2.09900	89
2.10267	88
2.10633	87
2.11000	89
2.11367	92
2.11733	95
2.12100	96
2.12467	98
2.12833	98
2.13200	97
2.13567	97
2.13933	96
2.14300	96
2.14667	96
2.15033	97
2.15400	97
2.15767	99
2.16133	99
2.16500	99
2.16867	98
2.17233	99
2.17600	102
2.17967	103
2.18333	103
2.18700	104
2.19067	104
2.19433	104
2.19800	104
2.20167	105
2.20533	104
2.20900	102
2.21267	102
2.21633	104
2.22000	107
2.22367	108
2.22733	107
2.23100	106
2.23467	106
2.23833	106
2.24200	107
2.24567	109
2.24933	110
2.25300	112
2.25667	113
2.26033	114
2.26400	114
2.26767	113
2.27133	113
2.27500	112
2.27867	112
2.28233	112
2.28600	113
2.28967	114
2.29333	114
2.29700	116
2.30067	116
2.30433	115
2.30800	115
2.31167	115
2.31533	117
2.31900	119
2.32267	121
2.32633	121
2.33000	122
2.33367	125
2.33733	125
2.34100	122
2.34467	120
2.34833	120
2.35200	122
2.35567	122
2.35933	125
2.36300	126
2.36667	127
2.37033	125
2.37400	121
2.37767	118
2.38133	115
2.38500	112
2.38867	111
2.39233	111
2.39600	111
2.39967	113
2.40333	116
2.40700	119
2.41067	123
2.41433	126
2.41800	131
2.42167	133
2.42533	133
2.42900	134
2.43267	134
2.43633	134
2.44000	136
2.44367	182
2.44733	289
2.45100	413
2.45467	518
2.45833	601
2.46200	661
2.46567	702
2.46933	727
2.47300	747
2.47667	763
2.48033	779
2.48400	798
2.48767	818
2.49133	832
2.49500	838
2.49867	836
2.50233	827
2.50600	815
2.50967	806
2.51333	801
2.51700	797
2.52067	794
2.52433	793
2.52800	793
2.53167	794
2.53533	799
2.53900	807
2.54267	815
2.54633	825
2.55000	833
2.55367	840
2.55733	842
2.56100	838
2.56467	828
2.56833	813
2.57200	797
2.57567	780
2.57933	764
2.58300	749
2.58667	736
2.59033	725
2.59400	715
2.59767	708
2.60133	703
2.60500	700
2.60867	701
2.61233	703
2.61600	700
2.61967	697
2.62333	692
2.62700	689
2.63067	686
2.63433	683
2.63800	681
2.64167	678
2.64533	673
2.64900	669
2.65267	668
2.65633	669
2.66000	671
2.66367	673
2.66733	676
2.67100	680
2.67467	685
2.67833	690
2.68200	694
2.68567	695
2.68933	693
2.69300	691
2.69667	690
2.70033	690
2.70400	687
2.70767	681
2.71133	676
2.71500	670
2.71867	661
2.72233	655
2.72600	649
2.72967	643
2.73333	636
2.73700	631
2.74067	627
2.74433	621
2.74800	616
2.75167	613
2.75533	608
2.75900	606
2.76267	604
2.76633	604
2.77000	602
2.77367	600
2.77733	602
2.78100	604
2.78467	607
2.78833	611
2.79200	614
2.79567	618
2.79933	620
2.80300	624
2.80667	627
2.81033	629
2.81400	632
2.81767	636
2.82133	641
2.82500	646
2.82867	651
2.83233	659
2.83600	675
2.83967	707
2.84333	770
2.84700	882
2.85067	1068
2.85433	1350
2.85800	1733
2.86167	2213
2.86533	2764
2.86900	3350
2.87267	3922
2.87633	4431
2.88000	4834
2.88367	5101
2.88733	5227
2.89100	5218
2.89467	5091
2.89833	4874
2.90200	4594
2.90567	4275
2.90933	3943
2.91300	3613
2.91667	3293
2.92033	2994
2.92400	2717
2.92767	2466
2.93133	2242
2.93500	2042
2.93867	1865
2.94233	1710
2.94600	1573
2.94967	1453
2.95333	1349
2.95700	1258
2.96067	1180
2.96433	1114
2.96800	1058
2.97167	1008
2.97533	964
2.97900	927
2.98267	894
2.98633	866
2.99000	839
2.99367	815
2.99733	794
3.00100	775
3.00467	758
3.00833	745
3.01200	736
3.01567	726
3.01933	718
3.02300	710
3.02667	702
3.03033	696
3.03400	688
3.03767	681
3.04133	676
3.04500	671
3.04867	665
3.05233	659
3.05600	653
3.05967	649
3.06333	645
3.06700	640
3.07067	638
3.07433	635
3.07800	631
3.08167	626
3.08533	620
3.08900	615
3.09267	612
3.09633	609
3.10000	606
3.10367	602
3.10733	600
3.11100	597
3.11467	596
3.11833	595
3.12200	592
3.12567	589
3.12933	586
3.13300	582
3.13667	579
3.14033	578
3.14400	577
3.14767	576
3.15133	574
3.15500	574
3.15867	573
3.16233	570
3.16600	565
3.16967	560
3.17333	556
3.17700	555
3.18067	554
3.18433	553
3.18800	551
3.19167	549
3.19533	545
3.19900	542
3.20267	542
3.20633	541
3.21000	539
3.21367	536
3.21733	533
3.22100	531
3.22467	528
3.22833	525
3.23200	522
3.23567	520
3.23933	520
3.24300	520
3.24667	519
3.25033	518
3.25400	516
3.25767	512
3.26133	508
3.26500	504
3.26867	501
3.27233	499
3.27600	497
3.27967	495
3.28333	493
3.28700	492
3.29067	490
3.29433	488
3.29800	488
3.30167	487
3.30533	486
3.30900	484
3.31267	482
3.31633	481
3.32000	481
3.32367	478
3.32733	473
3.33100	469
3.33467	465
3.33833	462
3.34200	460
3.34567	457
3.34933	453
3.35300	450
3.35667	450
3.36033	451
3.36400	451
3.36767	450
3.37133	449
3.37500	448
3.37867	444
3.38233	440
3.38600	438
3.38967	437
3.39333	434
3.39700	433
3.40067	432
3.40433	428
3.40800	425
3.41167	422
3.41533	420
3.41900	416
3.42267	414
3.42633	413
3.43000	413
3.43367	413
3.43733	412
3.44100	411
3.44467	408
3.44833	404
3.45200	400
3.45567	398
3.45933	399
3.46300	398
3.46667	395
3.47033	394
3.47400	393
3.47767	392
3.48133	391
3.48500	392
3.48867	393
3.49233	392
3.49600	391
3.49967	389
3.50333	386
3.50700	385
3.51067	384
3.51433	384
3.51800	382
3.52167	383
3.52533	383
3.52900	382
3.53267	382
3.53633	381
3.54000	381
3.54367	379
3.54733	378
3.55100	377
3.55467	373
3.55833	372
3.56200	373
3.56567	375
3.56933	376
3.57300	377
3.57667	375
3.58033	373
3.58400	371
3.58767	372
3.59133	373
3.59500	372
3.59867	370
3.60233	368
3.60600	367
3.60967	365
3.61333	364
3.61700	362
3.62067	362
3.62433	361
3.62800	359
3.63167	358
3.63533	356
3.63900	355
3.64267	355
3.64633	355
3.65000	355
3.65367	353
3.65733	350
3.66100	349
3.66467	350
3.66833	350
3.67200	350
3.67567	350
3.67933	348
3.68300	347
3.68667	347
3.69033	347
3.69400	346
3.69767	345
3.70133	344
3.70500	345
3.70867	344
3.71233	343
3.71600	344
3.71967	345
3.72333	343
3.72700	342
3.73067	340
3.73433	340
3.73800	341
3.74167	343
3.74533	344
3.74900	344
3.75267	341
3.75633	338
3.76000	337
3.76367	336
3.76733	334
3.77100	332
3.77467	330
3.77833	328
3.78200	328
3.78567	327
3.78933	327
3.79300	324
3.79667	323
3.80033	322
3.80400	323
3.80767	322
3.81133	321
3.81500	320
3.81867	317
3.82233	317
3.82600	316
3.82967	314
3.83333	313
3.83700	313
3.84067	311
3.84433	310
3.84800	308
3.85167	306
3.85533	304
3.85900	303
3.86267	303
3.86633	302
3.87000	299
3.87367	299
3.87733	301
3.88100	303
3.88467	305
3.88833	305
3.89200	303
3.89567	299
3.89933	295
3.90300	293
3.90667	293
3.91033	290
3.91400	288
3.91767	287
3.92133	287
3.92500	289
3.92867	291
3.93233	291
3.93600	288
3.93967	288
3.94333	287
3.94700	286
3.95067	284
3.95433	284
3.95800	285
3.96167	284
3.96533	283
3.96900	281
3.97267	278
3.97633	276
3.98000	278
3.98367	279
3.98733	279
3.99100	279
3.99467	279
3.99833	276

[Status Trace (Column Oven Temperature)]
Interval(msec)	1000
# of Points	240
Start Time(min)	0.002
End Time(min)	3.985
Intensity Units	
Intensity Multiplier	1
R.Time (min)	Intensity
0.00170	35.03
0.01837	35.03
0.03503	35.03
0.05170	35.02
0.06837	35.03
0.08503	35.03
0.10170	35.03
0.11837	35.02
0.13503	35.02
0.15170	35.01
0.16837	35.02
0.18503	35.03
0.20170	35.03
0.21837	35.03
0.23503	35.03
0.25170	35.02
0.26837	35.03
0.28503	35.03
0.30170	35.04
0.31837	35.03
0.33503	35.03
0.35170	35.02
0.36837	35.02
0.38503	35.01
0.40170	35.02
0.41837	35.02
0.43503	35.02
0.45170	35.03
0.46837	35.03
0.48503	35.03
0.50170	35.04
0.51837	35.04
0.53503	35.04
0.55170	35.03
0.56837	35.02
0.58503	35.01
0.60170	35.01
0.61837	35.00
0.63503	35.00
0.65170	35.01
0.66837	35.01
0.68503	35.01
0.70170	35.01
0.71837	35.02
0.73503	35.03
0.75170	35.01
0.76837	35.01
0.78503	35.01
0.80170	35.01
0.81837	35.01
0.83503	35.01
0.85170	35.01
0.86837	35.02
0.88503	35.02
0.90170	35.02
0.91837	35.02
0.93503	35.02
0.95170	35.02
0.96837	35.01
0.98503	35.00
1.00170	35.00
1.01837	35.00
1.03503	35.01
1.05170	35.01
1.06837	35.01
1.08503	35.01
1.10170	35.01
1.11837	35.01
1.13503	35.01
1.15170	35.00
1.16837	34.99
1.18503	34.98
1.20170	34.99
1.21837	34.99
1.23503	34.99
1.25170	34.99
1.26837	34.98
1.28503	34.97
1.30170	34.97
1.31837	34.96
1.33503	34.97
1.35170	34.98
1.36837	34.99
1.38503	35.01
1.40170	35.02
1.41837	35.02
1.43503	35.02
1.45170	35.02
1.46837	35.01
1.48503	35.01
1.50170	35.01
1.51837	35.01
1.53503	35.01
1.55170	35.01
1.56837	35.01
1.58503	35.01
1.60170	35.05
1.61837	35.15
1.63503	35.31
1.65170	35.51
1.66837	35.80
1.68503	36.16
1.70170	36.52
1.71837	36.86
1.73503	37.20
1.75170	37.52
1.76837	37.85
1.78503	38.19
1.80170	38.52
1.81837	38.85
1.83503	39.18
1.85170	39.53
1.86837	39.85
1.88503	40.18
1.90170	40.51
1.91837	40.83
1.93503	41.16
1.95170	41.48
1.96837	41.81
1.98503	42.12
2.00170	42.45
2.01837	42.78
2.03503	43.10
2.05170	43.43
2.06837	43.76
2.08503	44.08
2.10170	44.38
2.11837	44.71
2.13503	45.04
2.15170	45.36
2.16837	45.67
2.18503	46.02
2.20170	46.37
2.21837	46.69
2.23503	47.02
2.25170	47.36
2.26837	47.68
2.28503	48.04
2.30170	48.34
2.31837	48.69
2.33503	49.01
2.35170	49.30
2.36837	49.56
2.38503	49.69
2.40170	49.70
2.41837	49.70
2.43503	49.69
2.45170	49.70
2.46837	49.71
2.48503	49.72
2.50170	49.73
2.51837	49.74
2.53503	49.77
2.55170	49.78
2.56837	49.78
2.58503	49.79
2.60170	49.79
2.61837	49.81
2.63503	49.81
2.65170	49.81
2.66837	49.82
2.68503	49.83
2.70170	49.84
2.71837	49.85
2.73503	49.85
2.75170	49.85
2.76837	49.85
2.78503	49.85
2.80170	49.87
2.81837	49.87
2.83503	49.87
2.85170	49.88
2.86837	49.88
2.88503	49.89
2.90170	49.89
2.91837	49.89
2.93503	49.90
2.95170	49.91
2.96837	49.92
2.98503	49.93
3.00170	49.94
3.01837	49.97
3.03503	49.98
3.05170	49.98
3.06837	49.99
3.08503	50.00
3.10170	50.01
3.11837	50.01
3.13503	50.01
3.15170	50.03
3.16837	50.04
3.18503	50.04
3.20170	50.05
3.21837	50.05
3.23503	50.06
3.25170	50.07
3.26837	50.08
3.28503	50.09
3.30170	50.09
3.31837	50.10
3.33503	50.11
3.35170	50.10
3.36837	50.09
3.38503	50.09
3.40170	50.09
3.41837	50.09
3.43503	50.08
3.45170	50.07
3.46837	50.07
3.48503	50.06
3.50170	50.06
3.51837	50.06
3.53503	50.06
3.55170	50.07
3.56837	50.07
3.58503	50.07
3.60170	50.08
3.61837	50.07
3.63503	50.07
3.65170	50.06
3.66837	50.06
3.68503	50.06
3.70170	50.06
3.71837	50.06
3.73503	50.06
3.75170	50.07
3.76837	50.07
3.78503	50.07
3.80170	50.07
3.81837	50.07
3.83503	50.07
3.85170	50.06
3.86837	50.07
3.88503	50.07
3.90170	50.06
3.91837	50.07
3.93503	50.06
3.95170	50.06
3.96837	50.06
3.98503	50.05

[Status Trace (Injection Unit Temperature)]
Interval(msec)	1000
# of Points	240
Start Time(min)	0.002
End Time(min)	3.985
Intensity Units	
Intensity Multiplier	1
R.Time (min)	Intensity
0.00170	99.97
0.01837	99.98
0.03503	99.98
0.05170	99.97
0.06837	99.98
0.08503	99.97
0.10170	99.98
0.11837	99.97
0.13503	99.97
0.15170	99.98
0.16837	99.97
0.18503	99.98
0.20170	99.97
0.21837	99.98
0.23503	99.97
0.25170	99.98
0.26837	99.98
0.28503	99.97
0.30170	99.98
0.31837	99.97
0.33503	99.97
0.35170	99.98
0.36837	99.98
0.38503	99.98
0.40170	99.98
0.41837	99.98
0.43503	99.98
0.45170	99.98
0.46837	99.98
0.48503	99.98
0.50170	99.98
0.51837	99.98
0.53503	99.98
0.55170	99.98
0.56837	99.98
0.58503	99.98
0.60170	99.98
0.61837	99.98
0.63503	99.99
0.65170	99.98
0.66837	99.98
0.68503	99.99
0.70170	99.99
0.71837	99.98
0.73503	99.99
0.75170	99.99
0.76837	99.98
0.78503	99.98
0.80170	99.99
0.81837	99.98
0.83503	99.99
0.85170	99.98
0.86837	99.99
0.88503	99.99
0.90170	99.99
0.91837	99.99
0.93503	99.99
0.95170	99.99
0.96837	99.99
0.98503	99.99
1.00170	99.99
1.01837	99.99
1.03503	99.98
1.05170	99.98
1.06837	99.98
1.08503	99.98
1.10170	99.99
1.11837	99.98
1.13503	99.98
1.15170	99.99
1.16837	99.98
1.18503	99.98
1.20170	99.98
1.21837	99.98
1.23503	99.98
1.25170	99.99
1.26837	99.99
1.28503	99.98
1.30170	99.99
1.31837	99.98
1.33503	99.99
1.35170	99.98
1.36837	99.99
1.38503	99.99
1.40170	99.99
1.41837	99.99
1.43503	99.98
1.45170	99.99
1.46837	99.99
1.48503	99.99
1.50170	99.98
1.51837	99.99
1.53503	99.98
1.55170	99.99
1.56837	99.98
1.58503	99.99
1.60170	99.99
1.61837	99.99
1.63503	99.99
1.65170	99.99
1.66837	99.99
1.68503	99.99
1.70170	99.99
1.71837	99.99
1.73503	99.98
1.75170	99.99
1.76837	99.99
1.78503	99.99
1.80170	99.98
1.81837	99.99
1.83503	99.99
1.85170	99.99
1.86837	99.98
1.88503	99.98
1.90170	99.98
1.91837	99.98
1.93503	99.98
1.95170	99.98
1.96837	99.98
1.98503	99.98
2.00170	99.98
2.01837	99.98
2.03503	99.98
2.05170	99.98
2.06837	99.98
2.08503	99.98
2.10170	99.97
2.11837	99.97
2.13503	99.97
2.15170	99.97
2.16837	99.97
2.18503	99.97
2.20170	99.97
2.21837	99.97
2.23503	99.97
2.25170	99.97
2.26837	99.97
2.28503	99.97
2.30170	99.97
2.31837	99.97
2.33503	99.97
2.35170	99.98
2.36837	99.97
2.38503	99.98
2.40170	99.97
2.41837	99.98
2.43503	99.98
2.45170	99.97
2.46837	99.98
2.48503	99.98
2.50170	99.98
2.51837	99.98
2.53503	99.98
2.55170	99.98
2.56837	99.98
2.58503	99.98
2.60170	99.98
2.61837	99.99
2.63503	99.99
2.65170	99.99
2.66837	99.99
2.68503	99.99
2.70170	99.99
2.71837	99.99
2.73503	99.99
2.75170	99.99
2.76837	99.99
2.78503	99.99
2.80170	99.99
2.81837	99.99
2.83503	100.00
2.85170	100.00
2.86837	100.00
2.88503	100.00
2.90170	100.00
2.91837	100.00
2.93503	100.00
2.95170	100.01
2.96837	100.01
2.98503	100.01
3.00170	100.01
3.01837	100.01
3.03503	100.01
3.05170	100.01
3.06837	100.01
3.08503	100.02
3.10170	100.02
3.11837	100.02
3.13503	100.01
3.15170	100.02
3.16837	100.02
3.18503	100.02
3.20170	100.02
3.21837	100.02
3.23503	100.03
3.25170	100.02
3.26837	100.03
3.28503	100.03
3.30170	100.03
3.31837	100.03
3.33503	100.03
3.35170	100.03
3.36837	100.03
3.38503	100.03
3.40170	100.03
3.41837	100.04
3.43503	100.03
3.45170	100.03
3.46837	100.04
3.48503	100.03
3.50170	100.04
3.51837	100.04
3.53503	100.04
3.55170	100.04
3.56837	100.04
3.58503	100.04
3.60170	100.04
3.61837	100.04
3.63503	100.05
3.65170	100.05
3.66837	100.05
3.68503	100.05
3.70170	100.05
3.71837	100.05
3.73503	100.05
3.75170	100.05
3.76837	100.05
3.78503	100.05
3.80170	100.05
3.81837	100.05
3.83503	100.05
3.85170	100.05
3.86837	100.05
3.88503	100.05
3.90170	100.05
3.91837	100.05
3.93503	100.05
3.95170	100.05
3.96837	100.05
3.98503	100.05

[Status Trace (Carrier Gas Pressure)]
Interval(msec)	1000
# of Points	240
Start Time(min)	0.002
End Time(min)	3.985
Intensity Units	
Intensity Multiplier	1
R.Time (min)	Intensity
0.00170	58.00
0.01837	56.41
0.03503	56.30
0.05170	58.52
0.06837	59.83
0.08503	58.25
0.10170	57.98
0.11837	58.00
0.13503	58.01
0.15170	58.01
0.16837	58.00
0.18503	58.00
0.20170	58.00
0.21837	58.00
0.23503	58.00
0.25170	58.00
0.26837	58.00
0.28503	58.00
0.30170	58.00
0.31837	58.00
0.33503	58.00
0.35170	58.00
0.36837	58.00
0.38503	58.00
0.40170	58.00
0.41837	58.00
0.43503	58.00
0.45170	58.00
0.46837	58.00
0.48503	58.00
0.50170	58.00
0.51837	58.00
0.53503	58.00
0.55170	58.00
0.56837	58.00
0.58503	58.00
0.60170	58.00
0.61837	58.00
0.63503	58.00
0.65170	58.00
0.66837	58.00
0.68503	58.00
0.70170	58.00
0.71837	58.00
0.73503	58.00
0.75170	58.00
0.76837	58.00
0.78503	58.00
0.80170	58.00
0.81837	58.00
0.83503	58.00
0.85170	58.00
0.86837	58.00
0.88503	58.00
0.90170	58.00
0.91837	58.00
0.93503	58.00
0.95170	58.00
0.96837	58.00
0.98503	58.00
1.00170	58.00
1.01837	58.00
1.03503	58.00
1.05170	58.00
1.06837	58.00
1.08503	58.00
1.10170	58.00
1.11837	58.00
1.13503	58.00
1.15170	58.00
1.16837	58.00
1.18503	58.00
1.20170	58.00
1.21837	58.00
1.23503	58.00
1.25170	58.00
1.26837	58.00
1.28503	58.00
1.30170	58.00
1.31837	58.00
1.33503	58.00
1.35170	58.00
1.36837	58.00
1.38503	58.00
1.40170	58.00
1.41837	58.00
1.43503	58.00
1.45170	58.00
1.46837	58.00
1.48503	58.00
1.50170	58.00
1.51837	58.00
1.53503	58.00
1.55170	58.00
1.56837	58.00
1.58503	58.00
1.60170	58.00
1.61837	58.00
1.63503	58.00
1.65170	58.00
1.66837	58.00
1.68503	58.01
1.70170	58.00
1.71837	58.00
1.73503	58.00
1.75170	58.00
1.76837	58.00
1.78503	58.00
1.80170	58.00
1.81837	58.00
1.83503	58.00
1.85170	58.00
1.86837	58.00
1.88503	58.00
1.90170	58.00
1.91837	58.00
1.93503	58.00
1.95170	58.00
1.96837	58.00
1.98503	58.00
2.00170	58.00
2.01837	58.00
2.03503	58.00
2.05170	58.00
2.06837	58.00
2.08503	58.00
2.10170	58.00
2.11837	58.00
2.13503	58.00
2.15170	58.00
2.16837	58.00
2.18503	58.00
2.20170	58.00
2.21837	58.00
2.23503	58.00
2.25170	58.00
2.26837	58.00
2.28503	58.00
2.30170	58.00
2.31837	58.00
2.33503	58.00
2.35170	58.00
2.36837	58.00
2.38503	57.99
2.40170	57.99
2.41837	58.00
2.43503	58.00
2.45170	58.00
2.46837	58.00
2.48503	58.00
2.50170	58.00
2.51837	58.01
2.53503	57.99
2.55170	58.00
2.56837	58.00
2.58503	58.00
2.60170	58.00
2.61837	58.00
2.63503	58.00
2.65170	58.00
2.66837	58.00
2.68503	58.00
2.70170	58.00
2.71837	58.00
2.73503	58.00
2.75170	58.00
2.76837	58.00
2.78503	58.00
2.80170	58.00
2.81837	58.00
2.83503	58.00
2.85170	58.00
2.86837	58.00
2.88503	58.00
2.90170	58.00
2.91837	58.00
2.93503	58.00
2.95170	58.00
2.96837	58.00
2.98503	58.00
3.00170	58.00
3.01837	58.00
3.03503	58.00
3.05170	58.00
3.06837	58.00
3.08503	58.00
3.10170	58.00
3.11837	58.00
3.13503	58.00
3.15170	58.00
3.16837	58.00
3.18503	58.00
3.20170	58.00
3.21837	58.00
3.23503	58.00
3.25170	58.00
3.26837	58.00
3.28503	58.00
3.30170	58.00
3.31837	58.00
3.33503	58.00
3.35170	58.00
3.36837	58.00
3.38503	58.00
3.40170	58.00
3.41837	58.00
3.43503	58.00
3.45170	58.00
3.46837	58.00
3.48503	58.00
3.50170	58.00
3.51837	58.00
3.53503	58.00
3.55170	58.00
3.56837	58.00
3.58503	58.00
3.60170	58.00
3.61837	58.00
3.63503	58.00
3.65170	58.00
3.66837	58.00
3.68503	58.00
3.70170	58.00
3.71837	58.00
3.73503	58.00
3.75170	58.00
3.76837	58.00
3.78503	58.00
3.80170	58.00
3.81837	58.00
3.83503	58.00
3.85170	58.00
3.86837	58.00
3.88503	58.00
3.90170	58.00
3.91837	58.00
3.93503	58.00
3.95170	58.00
3.96837	58.00
3.98503	58.00

[Status Trace (Carrier Gas Flow)]
Interval(msec)	1000
# of Points	240
Start Time(min)	0.002
End Time(min)	3.985
Intensity Units	
Intensity Multiplier	1
R.Time (min)	Intensity
0.00170	34.52
0.01837	34.41
0.03503	34.55
0.05170	34.55
0.06837	34.49
0.08503	34.51
0.10170	34.52
0.11837	34.52
0.13503	34.51
0.15170	34.52
0.16837	34.52
0.18503	34.52
0.20170	34.52
0.21837	34.52
0.23503	34.52
0.25170	34.52
0.26837	34.52
0.28503	34.52
0.30170	34.52
0.31837	34.52
0.33503	34.52
0.35170	34.52
0.36837	34.52
0.38503	34.52
0.40170	34.52
0.41837	34.51
0.43503	34.52
0.45170	34.52
0.46837	34.52
0.48503	34.52
0.50170	34.52
0.51837	34.52
0.53503	34.53
0.55170	34.52
0.56837	34.51
0.58503	34.52
0.60170	34.52
0.61837	34.52
0.63503	34.52
0.65170	34.52
0.66837	34.52
0.68503	34.52
0.70170	34.52
0.71837	34.52
0.73503	34.52
0.75170	34.52
0.76837	34.52
0.78503	34.52
0.80170	34.52
0.81837	34.52
0.83503	34.52
0.85170	34.52
0.86837	34.52
0.88503	34.51
0.90170	34.52
0.91837	34.52
0.93503	34.52
0.95170	34.52
0.96837	34.52
0.98503	34.52
1.00170	34.52
1.01837	34.52
1.03503	34.52
1.05170	34.52
1.06837	34.52
1.08503	34.51
1.10170	34.52
1.11837	34.52
1.13503	34.52
1.15170	34.52
1.16837	34.52
1.18503	34.52
1.20170	34.52
1.21837	34.52
1.23503	34.52
1.25170	34.51
1.26837	34.52
1.28503	34.52
1.30170	34.52
1.31837	34.51
1.33503	34.52
1.35170	34.52
1.36837	34.52
1.38503	34.52
1.40170	34.52
1.41837	34.52
1.43503	34.52
1.45170	34.51
1.46837	34.52
1.48503	34.53
1.50170	34.52
1.51837	34.52
1.53503	34.52
1.55170	34.52
1.56837	34.52
1.58503	34.52
1.60170	34.52
1.61837	34.52
1.63503	34.52
1.65170	34.52
1.66837	34.52
1.68503	34.52
1.70170	34.52
1.71837	34.51
1.73503	34.51
1.75170	34.51
1.76837	34.52
1.78503	34.52
1.80170	34.51
1.81837	34.51
1.83503	34.51
1.85170	34.52
1.86837	34.52
1.88503	34.51
1.90170	34.52
1.91837	34.52
1.93503	34.52
1.95170	34.52
1.96837	34.52
1.98503	34.52
2.00170	34.52
2.01837	34.52
2.03503	34.52
2.05170	34.52
2.06837	34.51
2.08503	34.52
2.10170	34.52
2.11837	34.51
2.13503	34.51
2.15170	34.52
2.16837	34.52
2.18503	34.52
2.20170	34.52
2.21837	34.52
2.23503	34.52
2.25170	34.52
2.26837	34.52
2.28503	34.52
2.30170	34.52
2.31837	34.52
2.33503	34.52
2.35170	34.52
2.36837	34.52
2.38503	34.52
2.40170	34.52
2.41837	34.51
2.43503	34.52
2.45170	34.52
2.46837	34.52
2.48503	34.52
2.50170	34.52
2.51837	34.52
2.53503	34.51
2.55170	34.52
2.56837	34.52
2.58503	34.52
2.60170	34.52
2.61837	34.52
2.63503	34.52
2.65170	34.52
2.66837	34.52
2.68503	34.52
2.70170	34.52
2.71837	34.51
2.73503	34.52
2.75170	34.52
2.76837	34.51
2.78503	34.51
2.80170	34.52
2.81837	34.52
2.83503	34.52
2.85170	34.52
2.86837	34.51
2.88503	34.52
2.90170	34.52
2.91837	34.52
2.93503	34.52
2.95170	34.51
2.96837	34.52
2.98503	34.52
3.00170	34.52
3.01837	34.52
3.03503	34.52
3.05170	34.52
3.06837	34.52
3.08503	34.52
3.10170	34.52
3.11837	34.52
3.13503	34.52
3.15170	34.52
3.16837	34.52
3.18503	34.52
3.20170	34.52
3.21837	34.51
3.23503	34.52
3.25170	34.52
3.26837	34.52
3.28503	34.52
3.30170	34.52
3.31837	34.52
3.33503	34.52
3.35170	34.52
3.36837	34.52
3.38503	34.52
3.40170	34.52
3.41837	34.51
3.43503	34.53
3.45170	34.51
3.46837	34.52
3.48503	34.52
3.50170	34.52
3.51837	34.52
3.53503	34.52
3.55170	34.52
3.56837	34.52
3.58503	34.52
3.60170	34.52
3.61837	34.52
3.63503	34.52
3.65170	34.52
3.66837	34.53
3.68503	34.52
3.70170	34.51
3.71837	34.52
3.73503	34.52
3.75170	34.52
3.76837	34.52
3.78503	34.52
3.80170	34.52
3.81837	34.52
3.83503	34.52
3.85170	34.52
3.86837	34.52
3.88503	34.52
3.90170	34.52
3.91837	34.52
3.93503	34.52
3.95170	34.52
3.96837	34.51
3.98503	34.53

[Status Trace (Column Flow)]
Interval(msec)	1000
# of Points	240
Start Time(min)	0.002
End Time(min)	3.985
Intensity Units	
Intensity Multiplier	1
R.Time (min)	Intensity
0.00170	5.50
0.01837	5.32
0.03503	5.30
0.05170	5.56
0.06837	5.71
0.08503	5.53
0.10170	5.50
0.11837	5.50
0.13503	5.50
0.15170	5.50
0.16837	5.50
0.18503	5.50
0.20170	5.50
0.21837	5.50
0.23503	5.50
0.25170	5.50
0.26837	5.50
0.28503	5.50
0.30170	5.50
0.31837	5.50
0.33503	5.50
0.35170	5.50
0.36837	5.50
0.38503	5.50
0.40170	5.50
0.41837	5.50
0.43503	5.50
0.45170	5.50
0.46837	5.50
0.48503	5.50
0.50170	5.50
0.51837	5.50
0.53503	5.50
0.55170	5.50
0.56837	5.50
0.58503	5.50
0.60170	5.50
0.61837	5.50
0.63503	5.50
0.65170	5.50
0.66837	5.50
0.68503	5.50
0.70170	5.50
0.71837	5.50
0.73503	5.50
0.75170	5.50
0.76837	5.50
0.78503	5.50
0.80170	5.50
0.81837	5.50
0.83503	5.50
0.85170	5.50
0.86837	5.50
0.88503	5.50
0.90170	5.50
0.91837	5.50
0.93503	5.50
0.95170	5.50
0.96837	5.50
0.98503	5.50
1.00170	5.50
1.01837	5.50
1.03503	5.50
1.05170	5.50
1.06837	5.50
1.08503	5.50
1.10170	5.50
1.11837	5.50
1.13503	5.50
1.15170	5.50
1.16837	5.50
1.18503	5.50
1.20170	5.50
1.21837	5.50
1.23503	5.50
1.25170	5.50
1.26837	5.50
1.28503	5.50
1.30170	5.50
1.31837	5.50
1.33503	5.50
1.35170	5.50
1.36837	5.50
1.38503	5.50
1.40170	5.50
1.41837	5.50
1.43503	5.50
1.45170	5.50
1.46837	5.50
1.48503	5.50
1.50170	5.50
1.51837	5.50
1.53503	5.50
1.55170	5.50
1.56837	5.50
1.58503	5.50
1.60170	5.50
1.61837	5.50
1.63503	5.49
1.65170	5.49
1.66837	5.48
1.68503	5.47
1.70170	5.45
1.71837	5.44
1.73503	5.43
1.75170	5.42
1.76837	5.41
1.78503	5.40
1.80170	5.39
1.81837	5.38
1.83503	5.37
1.85170	5.36
1.86837	5.35
1.88503	5.34
1.90170	5.33
1.91837	5.32
1.93503	5.31
1.95170	5.30
1.96837	5.29
1.98503	5.28
2.00170	5.27
2.01837	5.26
2.03503	5.26
2.05170	5.25
2.06837	5.24
2.08503	5.23
2.10170	5.22
2.11837	5.21
2.13503	5.20
2.15170	5.19
2.16837	5.18
2.18503	5.17
2.20170	5.16
2.21837	5.15
2.23503	5.14
2.25170	5.13
2.26837	5.12
2.28503	5.11
2.30170	5.10
2.31837	5.09
2.33503	5.09
2.35170	5.08
2.36837	5.07
2.38503	5.07
2.40170	5.07
2.41837	5.07
2.43503	5.07
2.45170	5.07
2.46837	5.07
2.48503	5.07
2.50170	5.07
2.51837	5.07
2.53503	5.07
2.55170	5.07
2.56837	5.07
2.58503	5.06
2.60170	5.06
2.61837	5.06
2.63503	5.06
2.65170	5.06
2.66837	5.06
2.68503	5.06
2.70170	5.06
2.71837	5.06
2.73503	5.06
2.75170	5.06
2.76837	5.06
2.78503	5.06
2.80170	5.06
2.81837	5.06
2.83503	5.06
2.85170	5.06
2.86837	5.06
2.88503	5.06
2.90170	5.06
2.91837	5.06
2.93503	5.06
2.95170	5.06
2.96837	5.06
2.98503	5.06
3.00170	5.06
3.01837	5.06
3.03503	5.06
3.05170	5.06
3.06837	5.06
3.08503	5.06
3.10170	5.06
3.11837	5.06
3.13503	5.06
3.15170	5.06
3.16837	5.06
3.18503	5.06
3.20170	5.06
3.21837	5.06
3.23503	5.06
3.25170	5.06
3.26837	5.06
3.28503	5.06
3.30170	5.06
3.31837	5.06
3.33503	5.06
3.35170	5.06
3.36837	5.06
3.38503	5.06
3.40170	5.06
3.41837	5.06
3.43503	5.06
3.45170	5.06
3.46837	5.06
3.48503	5.06
3.50170	5.06
3.51837	5.06
3.53503	5.06
3.55170	5.06
3.56837	5.06
3.58503	5.06
3.60170	5.06
3.61837	5.06
3.63503	5.06
3.65170	5.06
3.66837	5.06
3.68503	5.06
3.70170	5.06
3.71837	5.06
3.73503	5.06
3.75170	5.06
3.76837	5.06
3.78503	5.06
3.80170	5.06
3.81837	5.06
3.83503	5.06
3.85170	5.06
3.86837	5.06
3.88503	5.06
3.90170	5.06
3.91837	5.06
3.93503	5.06
3.95170	5.06
3.96837	5.06
3.98503	5.06

[Status Trace (Linear Velocity)]
Interval(msec)	1000
# of Points	240
Start Time(min)	0.002
End Time(min)	3.985
Intensity Units	
Intensity Multiplier	1
R.Time (min)	Intensity
0.00170	39.01
0.01837	37.97
0.03503	37.90
0.05170	39.35
0.06837	40.21
0.08503	39.18
0.10170	38.99
0.11837	39.01
0.13503	39.02
0.15170	39.01
0.16837	39.01
0.18503	39.01
0.20170	39.01
0.21837	39.01
0.23503	39.01
0.25170	39.01
0.26837	39.01
0.28503	39.01
0.30170	39.01
0.31837	39.01
0.33503	39.01
0.35170	39.01
0.36837	39.01
0.38503	39.01
0.40170	39.01
0.41837	39.01
0.43503	39.01
0.45170	39.01
0.46837	39.01
0.48503	39.01
0.50170	39.01
0.51837	39.01
0.53503	39.01
0.55170	39.01
0.56837	39.01
0.58503	39.01
0.60170	39.01
0.61837	39.01
0.63503	39.01
0.65170	39.01
0.66837	39.01
0.68503	39.01
0.70170	39.01
0.71837	39.01
0.73503	39.01
0.75170	39.01
0.76837	39.01
0.78503	39.01
0.80170	39.01
0.81837	39.01
0.83503	39.01
0.85170	39.01
0.86837	39.01
0.88503	39.01
0.90170	39.01
0.91837	39.01
0.93503	39.01
0.95170	39.01
0.96837	39.01
0.98503	39.01
1.00170	39.01
1.01837	39.01
1.03503	39.01
1.05170	39.01
1.06837	39.01
1.08503	39.01
1.10170	39.01
1.11837	39.01
1.13503	39.01
1.15170	39.01
1.16837	39.01
1.18503	39.01
1.20170	39.01
1.21837	39.01
1.23503	39.01
1.25170	39.01
1.26837	39.01
1.28503	39.01
1.30170	39.01
1.31837	39.02
1.33503	39.02
1.35170	39.01
1.36837	39.01
1.38503	39.01
1.40170	39.01
1.41837	39.01
1.43503	39.01
1.45170	39.01
1.46837	39.01
1.48503	39.01
1.50170	39.01
1.51837	39.01
1.53503	39.01
1.55170	39.01
1.56837	39.01
1.58503	39.01
1.60170	39.01
1.61837	39.00
1.63503	38.98
1.65170	38.97
1.66837	38.94
1.68503	38.90
1.70170	38.87
1.71837	38.83
1.73503	38.80
1.75170	38.77
1.76837	38.74
1.78503	38.71
1.80170	38.68
1.81837	38.65
1.83503	38.61
1.85170	38.58
1.86837	38.55
1.88503	38.52
1.90170	38.49
1.91837	38.46
1.93503	38.43
1.95170	38.40
1.96837	38.37
1.98503	38.34
2.00170	38.31
2.01837	38.28
2.03503	38.25
2.05170	38.22
2.06837	38.19
2.08503	38.16
2.10170	38.13
2.11837	38.10
2.13503	38.07
2.15170	38.04
2.16837	38.02
2.18503	37.98
2.20170	37.95
2.21837	37.92
2.23503	37.89
2.25170	37.86
2.26837	37.83
2.28503	37.80
2.30170	37.77
2.31837	37.74
2.33503	37.72
2.35170	37.69
2.36837	37.67
2.38503	37.65
2.40170	37.65
2.41837	37.65
2.43503	37.65
2.45170	37.65
2.46837	37.65
2.48503	37.65
2.50170	37.65
2.51837	37.66
2.53503	37.65
2.55170	37.65
2.56837	37.65
2.58503	37.65
2.60170	37.65
2.61837	37.64
2.63503	37.64
2.65170	37.64
2.66837	37.64
2.68503	37.64
2.70170	37.64
2.71837	37.64
2.73503	37.64
2.75170	37.64
2.76837	37.64
2.78503	37.64
2.80170	37.64
2.81837	37.64
2.83503	37.64
2.85170	37.64
2.86837	37.64
2.88503	37.64
2.90170	37.64
2.91837	37.64
2.93503	37.64
2.95170	37.64
2.96837	37.63
2.98503	37.63
3.00170	37.63
3.01837	37.63
3.03503	37.63
3.05170	37.63
3.06837	37.63
3.08503	37.63
3.10170	37.63
3.11837	37.63
3.13503	37.63
3.15170	37.63
3.16837	37.62
3.18503	37.62
3.20170	37.62
3.21837	37.62
3.23503	37.62
3.25170	37.62
3.26837	37.62
3.28503	37.62
3.30170	37.62
3.31837	37.62
3.33503	37.62
3.35170	37.62
3.36837	37.62
3.38503	37.62
3.40170	37.62
3.41837	37.62
3.43503	37.62
3.45170	37.62
3.46837	37.62
3.48503	37.62
3.50170	37.62
3.51837	37.62
3.53503	37.62
3.55170	37.62
3.56837	37.62
3.58503	37.62
3.60170	37.62
3.61837	37.62
3.63503	37.62
3.65170	37.62
3.66837	37.62
3.68503	37.62
3.70170	37.62
3.71837	37.62
3.73503	37.62
3.75170	37.62
3.76837	37.62
3.78503	37.62
3.80170	37.62
3.81837	37.62
3.83503	37.62
3.85170	37.62
3.86837	37.62
3.88503	37.62
3.90170	37.62
3.91837	37.62
3.93503	37.62
3.95170	37.62
3.96837	37.62
3.98503	37.62

