[Header]
Application Name	LabSolutions
Version	5.110
Data File Name	C:\Users\User\Desktop\Junior\UIC Prairie Sampling\6.2.23\06022023_089.gcd
Output Date	6/12/2023
Output Time	11:47:15 AM

[File Information]
Type	Data File
Generated	6/6/2023 7:45:36 PM
Generated by	System Administrator
Modified	6/6/2023 7:52:58 PM
Modified by	System Administrator

[Sample Information]
Operator Name	System Administrator
Acquired	6/6/2023 7:48:57 PM
Sample Type	0:Unknown
Level	0
Sample Name	089
Sample ID	089
ISTD Amount1	1
ISTD Amount2	1
ISTD Amount3	1
ISTD Amount4	1
ISTD Amount5	1
ISTD Amount6	1
ISTD Amount7	1
ISTD Amount8	1
ISTD Amount9	1
ISTD Amount10	1
ISTD Amount11	1
ISTD Amount12	1
ISTD Amount13	1
ISTD Amount14	1
ISTD Amount15	1
ISTD Amount16	1
ISTD Amount17	1
ISTD Amount18	1
ISTD Amount19	1
ISTD Amount20	1
ISTD Amount21	1
ISTD Amount22	1
ISTD Amount23	1
ISTD Amount24	1
ISTD Amount25	1
ISTD Amount26	1
ISTD Amount27	1
ISTD Amount28	1
ISTD Amount29	1
ISTD Amount30	1
ISTD Amount31	1
ISTD Amount32	1
Sample Amount	1
Dilution Factor	1
Vial#	88
Injection Volume	1
Injection Count	1
Bar Code	

[Original Files]
Data File	C:\Users\User\Desktop\Junior\UIC Prairie Sampling\6.2.23\06022023_089.gcd
Method File	C:\LabSolutions\Data\GHG_4min_2022\ghg3_togas_w_acet_4 min_new_int.gcm
Batch File	C:\LabSolutions\Data\AutoSamplerTesting\06022023.gcb
Report Format File	c:\LabSolutions\System\DEFAULT.lsr

[File Description]


[Configuration]
Instrument Name	C0B7VH3-Instrument1
Instrument #	1
Line #	1
# of Detectors	3
Detector ID	DET#1	DET#2	DET#3
Detector Name	FID	PTCD	ECD
# of Channels	1	1	1

[Peak Table(Ch1)]
# of Peaks	3
Peak#	R.Time	I.Time	F.Time	Area	Height	A/H	Conc.	Mark	ID#	Name	k'	Plate #	Plate Ht.	Tailing	Resolution	Sep.Factor	Area Ratio	Height Ratio	Conc. %	Norm Conc.
1	1.472	1.432	1.527	3670	1825	2.011	0.000	   	1	CO	0.000	9820	15.275	1.176	0.000	0.000	0	0	0.000	0.000
2	1.560	1.527	1.615	3986	2053	1.942	19.432	 V 	2	CH4	0.060	11642	12.885	1.222	1.501	0.000	0	0	3.153	3.153
3	1.989	1.941	2.572	3096835	1489756	2.079	596.817	   	3	CO2	0.351	17632	8.507	1.214	7.287	5.875	0	0	96.847	96.847

[Peak Table(Ch2)]
# of Peaks	0

[Peak Table(Ch3)]
# of Peaks	5
Peak#	R.Time	I.Time	F.Time	Area	Height	A/H	Conc.	Mark	ID#	Name	k'	Plate #	Plate Ht.	Tailing	Resolution	Sep.Factor	Area Ratio	Height Ratio	Conc. %	Norm Conc.
1	2.462	2.440	2.469	389	319	1.220	0.000	   			0.000	13540	11.078	0.000	0.000	0.000	0	0	0.000	0.000
2	2.517	2.469	2.524	1673	699	2.395	0.000	 V 			0.022	184	815.973	0.000	0.133	0.000	0	0	0.000	0.000
3	2.576	2.524	2.667	5831	789	7.388	0.000	 V 			0.046	459	326.837	0.000	0.096	2.067	0	0	0.000	0.000
4	2.722	2.667	2.829	5354	607	8.818	0.000	 V 			0.106	171	877.871	0.000	0.223	2.290	0	0	0.000	0.000
5	2.887	2.829	3.980	36952	5042	7.328	0.547	 V 	1	N2O	0.173	11593	12.939	0.000	0.351	1.634	0	0	100.000	100.000

[Compound Results(Ch1)]
# of IDs	6
ID#	Name	R.Time	Area	Height	Conc.	Curve	3rd	2nd	1st	Constant	Area Ratio	Height Ratio	Conc. %	Norm Conc.
1	CO	1.472	3670	1825	0.000	Linear	0.000000e+00	0.000000e+00	0.000000e+00	0.000000e+00	0	0	0.000	0.000
2	CH4	1.560	3986	2053	19.432	Linear	0.000000e+00	0.000000e+00	2.051179e+002	0.000000e+00	0	0	3.153	3.153
3	CO2	1.989	3096835	1489756	596.817	Linear	0.000000e+00	0.000000e+00	5.188919e+003	0.000000e+00	0	0	96.847	96.847
4	Ethylene	0.000	0	0	0.000	Linear	0.000000e+00	0.000000e+00	0.000000e+00	0.000000e+00	0	0	0.000	0.000
5	Acetylene	0.000	0	0	0.000	Linear	0.000000e+00	0.000000e+00	0.000000e+00	0.000000e+00	0	0	0.000	0.000
6	Ethane	0.000	0	0	0.000	Linear	0.000000e+00	0.000000e+00	0.000000e+00	0.000000e+00	0	0	0.000	0.000

[Compound Results(Ch2)]
# of IDs	5
ID#	Name	R.Time	Area	Height	Conc.	Curve	3rd	2nd	1st	Constant	Area Ratio	Height Ratio	Conc. %	Norm Conc.
1	Hydrogen	0.000	0	0	0.000	Linear	0.000000e+00	0.000000e+00	0.000000e+00	0.000000e+00	0	0	0.000	0.000
2	Oxygen	0.000	0	0	0.000	Linear	0.000000e+00	0.000000e+00	0.000000e+00	0.000000e+00	0	0	0.000	0.000
3	Nitrogen	0.000	0	0	0.000	Linear	0.000000e+00	0.000000e+00	0.000000e+00	0.000000e+00	0	0	0.000	0.000
4	Methane	0.000	0	0	0.000	Linear	0.000000e+00	0.000000e+00	0.000000e+00	0.000000e+00	0	0	0.000	0.000
5	Carbon Monoxide	0.000	0	0	0.000	Linear	0.000000e+00	0.000000e+00	0.000000e+00	0.000000e+00	0	0	0.000	0.000

[Compound Results(Ch3)]
# of IDs	2
ID#	Name	R.Time	Area	Height	Conc.	Curve	3rd	2nd	1st	Constant	Area Ratio	Height Ratio	Conc. %	Norm Conc.
1	N2O	2.887	36952	5042	0.547	Linear	0.000000e+00	0.000000e+00	6.759880e+004	0.000000e+00	0	0	100.000	100.000
2	SF6	0.000	0	0	0.000	Linear	0.000000e+00	0.000000e+00	0.000000e+00	0.000000e+00	0	0	0.000	0.000

[Group Results(Ch1)]
# of Groups	0

[Group Results(Ch2)]
# of Groups	0

[Group Results(Ch3)]
# of Groups	0

[Chromatogram (Ch1)]
Interval(msec)	220
# of Points	1091
Start Time(min)	0.002
End Time(min)	3.998
R.Time (min)	Intensity
0.00167	19
0.00533	28
0.00900	33
0.01267	33
0.01633	34
0.02000	36
0.02367	41
0.02733	43
0.03100	38
0.03467	29
0.03833	19
0.04200	9
0.04567	4
0.04933	3
0.05300	1
0.05667	-2
0.06033	-2
0.06400	1
0.06767	5
0.07133	11
0.07500	19
0.07867	26
0.08233	29
0.08600	26
0.08967	20
0.09333	15
0.09700	10
0.10067	8
0.10433	9
0.10800	14
0.11167	22
0.11533	27
0.11900	29
0.12267	28
0.12633	25
0.13000	21
0.13367	20
0.13733	21
0.14100	24
0.14467	27
0.14833	27
0.15200	25
0.15567	21
0.15933	18
0.16300	13
0.16667	8
0.17033	4
0.17400	4
0.17767	10
0.18133	20
0.18500	30
0.18867	33
0.19233	28
0.19600	19
0.19967	13
0.20333	12
0.20700	12
0.21067	12
0.21433	12
0.21800	12
0.22167	14
0.22533	15
0.22900	16
0.23267	16
0.23633	15
0.24000	14
0.24367	12
0.24733	9
0.25100	5
0.25467	1
0.25833	-4
0.26200	-5
0.26567	1
0.26933	11
0.27300	20
0.27667	27
0.28033	30
0.28400	32
0.28767	30
0.29133	23
0.29500	17
0.29867	16
0.30233	14
0.30600	8
0.30967	2
0.31333	-0
0.31700	0
0.32067	1
0.32433	-1
0.32800	-1
0.33167	1
0.33533	3
0.33900	3
0.34267	2
0.34633	4
0.35000	6
0.35367	8
0.35733	8
0.36100	7
0.36467	4
0.36833	3
0.37200	4
0.37567	7
0.37933	13
0.38300	17
0.38667	17
0.39033	12
0.39400	4
0.39767	-4
0.40133	-10
0.40500	-14
0.40867	-14
0.41233	-10
0.41600	-5
0.41967	1
0.42333	7
0.42700	12
0.43067	14
0.43433	13
0.43800	10
0.44167	9
0.44533	9
0.44900	9
0.45267	7
0.45633	7
0.46000	6
0.46367	2
0.46733	-1
0.47100	-5
0.47467	-6
0.47833	-3
0.48200	5
0.48567	14
0.48933	19
0.49300	23
0.49667	23
0.50033	21
0.50400	17
0.50767	14
0.51133	13
0.51500	15
0.51867	18
0.52233	17
0.52600	12
0.52967	7
0.53333	4
0.53700	1
0.54067	1
0.54433	3
0.54800	3
0.55167	0
0.55533	-2
0.55900	-4
0.56267	-7
0.56633	-9
0.57000	-8
0.57367	-5
0.57733	-2
0.58100	-1
0.58467	1
0.58833	1
0.59200	-1
0.59567	-6
0.59933	-10
0.60300	-13
0.60667	-12
0.61033	-12
0.61400	-13
0.61767	-12
0.62133	-11
0.62500	-10
0.62867	-5
0.63233	1
0.63600	6
0.63967	8
0.64333	11
0.64700	13
0.65067	11
0.65433	7
0.65800	2
0.66167	2
0.66533	8
0.66900	12
0.67267	12
0.67633	6
0.68000	-1
0.68367	-7
0.68733	-11
0.69100	-16
0.69467	-18
0.69833	-14
0.70200	-9
0.70567	-8
0.70933	-9
0.71300	-10
0.71667	-8
0.72033	-7
0.72400	-9
0.72767	-10
0.73133	-7
0.73500	-4
0.73867	-1
0.74233	3
0.74600	7
0.74967	9
0.75333	11
0.75700	14
0.76067	12
0.76433	4
0.76800	-6
0.77167	-17
0.77533	-24
0.77900	-25
0.78267	-22
0.78633	-16
0.79000	-12
0.79367	-9
0.79733	-4
0.80100	2
0.80467	9
0.80833	17
0.81200	23
0.81567	25
0.81933	23
0.82300	13
0.82667	-8
0.83033	-31
0.83400	-47
0.83767	-52
0.84133	-51
0.84500	-46
0.84867	-40
0.85233	-33
0.85600	-26
0.85967	-19
0.86333	-14
0.86700	-14
0.87067	-15
0.87433	-14
0.87800	-6
0.88167	1
0.88533	5
0.88900	7
0.89267	4
0.89633	-1
0.90000	-8
0.90367	-17
0.90733	-27
0.91100	-36
0.91467	-42
0.91833	-46
0.92200	-45
0.92567	-43
0.92933	-39
0.93300	-32
0.93667	-25
0.94033	-18
0.94400	-11
0.94767	-4
0.95133	-0
0.95500	-3
0.95867	-7
0.96233	-12
0.96600	-17
0.96967	-21
0.97333	-26
0.97700	-33
0.98067	-37
0.98433	-42
0.98800	-42
0.99167	-39
0.99533	-33
0.99900	-29
1.00267	-27
1.00633	-26
1.01000	-28
1.01367	-32
1.01733	-34
1.02100	-33
1.02467	-33
1.02833	-34
1.03200	-36
1.03567	-39
1.03933	-39
1.04300	-36
1.04667	-30
1.05033	-23
1.05400	-20
1.05767	-23
1.06133	-30
1.06500	-36
1.06867	-37
1.07233	-34
1.07600	-31
1.07967	-29
1.08333	-29
1.08700	-27
1.09067	-25
1.09433	-22
1.09800	-21
1.10167	-28
1.10533	-38
1.10900	-45
1.11267	-49
1.11633	-53
1.12000	-53
1.12367	-50
1.12733	-45
1.13100	-41
1.13467	-40
1.13833	-40
1.14200	-39
1.14567	-40
1.14933	-42
1.15300	-41
1.15667	-40
1.16033	-40
1.16400	-38
1.16767	-38
1.17133	-39
1.17500	-40
1.17867	-42
1.18233	-44
1.18600	-43
1.18967	-40
1.19333	-35
1.19700	-31
1.20067	-29
1.20433	-31
1.20800	-33
1.21167	-31
1.21533	-26
1.21900	-15
1.22267	-8
1.22633	-10
1.23000	-16
1.23367	-21
1.23733	-22
1.24100	-25
1.24467	-33
1.24833	-42
1.25200	-48
1.25567	-50
1.25933	-49
1.26300	-48
1.26667	-42
1.27033	-34
1.27400	-27
1.27767	-24
1.28133	-26
1.28500	-30
1.28867	-38
1.29233	-48
1.29600	-54
1.29967	-56
1.30333	-52
1.30700	-46
1.31067	-40
1.31433	-41
1.31800	-46
1.32167	-49
1.32533	-49
1.32900	-50
1.33267	-54
1.33633	-56
1.34000	-57
1.34367	-57
1.34733	-55
1.35100	-53
1.35467	-50
1.35833	-47
1.36200	-46
1.36567	-43
1.36933	-35
1.37300	-27
1.37667	-21
1.38033	-19
1.38400	-17
1.38767	-18
1.39133	-22
1.39500	-27
1.39867	-30
1.40233	-35
1.40600	-44
1.40967	-50
1.41333	-52
1.41700	-52
1.42067	-52
1.42433	-51
1.42800	-48
1.43167	-41
1.43533	-26
1.43900	-0
1.44267	28
1.44633	109
1.45000	324
1.45367	649
1.45733	998
1.46100	1311
1.46467	1561
1.46833	1728
1.47200	1781
1.47567	1698
1.47933	1489
1.48300	1207
1.48667	916
1.49033	658
1.49400	453
1.49767	297
1.50133	184
1.50500	106
1.50867	58
1.51233	31
1.51600	13
1.51967	1
1.52333	-7
1.52700	-13
1.53067	-8
1.53433	41
1.53800	191
1.54167	481
1.54533	872
1.54900	1276
1.55267	1620
1.55633	1870
1.56000	2004
1.56367	1990
1.56733	1817
1.57100	1523
1.57467	1178
1.57833	849
1.58200	577
1.58567	371
1.58933	225
1.59300	122
1.59667	50
1.60033	6
1.60400	-18
1.60767	-33
1.61133	-45
1.61500	-52
1.61867	-57
1.62233	-58
1.62600	-58
1.62967	-57
1.63333	-56
1.63700	-56
1.64067	-56
1.64433	-55
1.64800	-52
1.65167	-54
1.65533	-61
1.65900	-69
1.66267	-75
1.66633	-79
1.67000	-81
1.67367	-83
1.67733	-85
1.68100	-87
1.68467	-88
1.68833	-89
1.69200	-89
1.69567	-86
1.69933	-81
1.70300	-77
1.70667	-73
1.71033	-68
1.71400	-63
1.71767	-62
1.72133	-64
1.72500	-63
1.72867	-58
1.73233	-51
1.73600	-49
1.73967	-53
1.74333	-61
1.74700	-69
1.75067	-75
1.75433	-80
1.75800	-86
1.76167	-92
1.76533	-98
1.76900	-102
1.77267	-103
1.77633	-102
1.78000	-100
1.78367	-97
1.78733	-92
1.79100	-90
1.79467	-92
1.79833	-92
1.80200	-89
1.80567	-85
1.80933	-79
1.81300	-74
1.81667	-75
1.82033	-78
1.82400	-82
1.82767	-83
1.83133	-83
1.83500	-83
1.83867	-82
1.84233	-78
1.84600	-75
1.84967	-75
1.85333	-79
1.85700	-85
1.86067	-91
1.86433	-94
1.86800	-94
1.87167	-91
1.87533	-87
1.87900	-82
1.88267	-77
1.88633	-73
1.89000	-71
1.89367	-71
1.89733	-73
1.90100	-74
1.90467	-74
1.90833	-73
1.91200	-73
1.91567	-72
1.91933	-75
1.92300	-76
1.92667	-72
1.93033	-67
1.93400	-63
1.93767	-63
1.94133	-57
1.94500	-3
1.94867	389
1.95233	2702
1.95600	12943
1.95967	47036
1.96333	133392
1.96700	299974
1.97067	548229
1.97433	841405
1.97800	1123390
1.98167	1344111
1.98533	1470903
1.98900	1489731
1.99267	1405346
1.99633	1240053
2.00000	1028465
2.00367	807247
2.00733	605191
2.01100	438029
2.01467	309487
2.01833	215718
2.02200	149772
2.02567	104488
2.02933	73830
2.03300	53194
2.03667	39283
2.04033	29839
2.04400	23346
2.04767	18805
2.05133	15560
2.05500	13176
2.05867	11378
2.06233	9987
2.06600	8881
2.06967	7983
2.07333	7237
2.07700	6612
2.08067	6084
2.08433	5628
2.08800	5231
2.09167	4887
2.09533	4583
2.09900	4312
2.10267	4067
2.10633	3843
2.11000	3642
2.11367	3460
2.11733	3293
2.12100	3141
2.12467	3001
2.12833	2869
2.13200	2744
2.13567	2632
2.13933	2533
2.14300	2440
2.14667	2349
2.15033	2265
2.15400	2189
2.15767	2116
2.16133	2045
2.16500	1976
2.16867	1912
2.17233	1853
2.17600	1796
2.17967	1741
2.18333	1688
2.18700	1635
2.19067	1585
2.19433	1535
2.19800	1487
2.20167	1447
2.20533	1414
2.20900	1381
2.21267	1350
2.21633	1321
2.22000	1292
2.22367	1262
2.22733	1228
2.23100	1192
2.23467	1162
2.23833	1135
2.24200	1109
2.24567	1083
2.24933	1058
2.25300	1033
2.25667	1005
2.26033	979
2.26400	956
2.26767	936
2.27133	917
2.27500	899
2.27867	881
2.28233	866
2.28600	855
2.28967	845
2.29333	836
2.29700	828
2.30067	824
2.30433	817
2.30800	806
2.31167	792
2.31533	778
2.31900	767
2.32267	754
2.32633	739
2.33000	721
2.33367	701
2.33733	684
2.34100	672
2.34467	663
2.34833	655
2.35200	648
2.35567	643
2.35933	635
2.36300	624
2.36667	613
2.37033	606
2.37400	601
2.37767	596
2.38133	592
2.38500	590
2.38867	588
2.39233	584
2.39600	575
2.39967	565
2.40333	559
2.40700	554
2.41067	545
2.41433	535
2.41800	527
2.42167	521
2.42533	514
2.42900	505
2.43267	499
2.43633	497
2.44000	496
2.44367	497
2.44733	498
2.45100	497
2.45467	492
2.45833	486
2.46200	477
2.46567	470
2.46933	468
2.47300	471
2.47667	477
2.48033	476
2.48400	465
2.48767	451
2.49133	442
2.49500	435
2.49867	427
2.50233	420
2.50600	416
2.50967	416
2.51333	420
2.51700	423
2.52067	425
2.52433	428
2.52800	433
2.53167	435
2.53533	432
2.53900	426
2.54267	415
2.54633	402
2.55000	388
2.55367	377
2.55733	370
2.56100	366
2.56467	363
2.56833	362
2.57200	364
2.57567	367
2.57933	373
2.58300	378
2.58667	380
2.59033	377
2.59400	373
2.59767	372
2.60133	369
2.60500	363
2.60867	358
2.61233	357
2.61600	357
2.61967	357
2.62333	356
2.62700	353
2.63067	350
2.63433	349
2.63800	351
2.64167	356
2.64533	364
2.64900	367
2.65267	367
2.65633	364
2.66000	359
2.66367	354
2.66733	351
2.67100	345
2.67467	340
2.67833	337
2.68200	332
2.68567	326
2.68933	321
2.69300	320
2.69667	320
2.70033	319
2.70400	319
2.70767	320
2.71133	321
2.71500	322
2.71867	324
2.72233	329
2.72600	337
2.72967	345
2.73333	347
2.73700	343
2.74067	335
2.74433	329
2.74800	328
2.75167	326
2.75533	326
2.75900	329
2.76267	332
2.76633	332
2.77000	331
2.77367	330
2.77733	331
2.78100	334
2.78467	335
2.78833	328
2.79200	318
2.79567	310
2.79933	307
2.80300	308
2.80667	310
2.81033	314
2.81400	319
2.81767	325
2.82133	330
2.82500	333
2.82867	333
2.83233	333
2.83600	335
2.83967	332
2.84333	324
2.84700	318
2.85067	316
2.85433	314
2.85800	315
2.86167	319
2.86533	320
2.86900	316
2.87267	311
2.87633	305
2.88000	299
2.88367	293
2.88733	294
2.89100	296
2.89467	299
2.89833	305
2.90200	315
2.90567	322
2.90933	322
2.91300	319
2.91667	315
2.92033	312
2.92400	311
2.92767	314
2.93133	318
2.93500	321
2.93867	322
2.94233	326
2.94600	330
2.94967	331
2.95333	332
2.95700	331
2.96067	329
2.96433	325
2.96800	324
2.97167	323
2.97533	323
2.97900	327
2.98267	334
2.98633	343
2.99000	346
2.99367	343
2.99733	338
3.00100	336
3.00467	335
3.00833	335
3.01200	334
3.01567	332
3.01933	330
3.02300	329
3.02667	327
3.03033	326
3.03400	327
3.03767	328
3.04133	329
3.04500	332
3.04867	337
3.05233	342
3.05600	346
3.05967	346
3.06333	341
3.06700	334
3.07067	327
3.07433	317
3.07800	308
3.08167	302
3.08533	301
3.08900	300
3.09267	299
3.09633	300
3.10000	300
3.10367	303
3.10733	308
3.11100	311
3.11467	313
3.11833	316
3.12200	322
3.12567	327
3.12933	331
3.13300	334
3.13667	339
3.14033	341
3.14400	340
3.14767	337
3.15133	333
3.15500	329
3.15867	325
3.16233	323
3.16600	325
3.16967	332
3.17333	337
3.17700	337
3.18067	333
3.18433	325
3.18800	317
3.19167	312
3.19533	307
3.19900	299
3.20267	294
3.20633	293
3.21000	297
3.21367	299
3.21733	299
3.22100	297
3.22467	298
3.22833	301
3.23200	305
3.23567	309
3.23933	313
3.24300	316
3.24667	319
3.25033	319
3.25400	318
3.25767	320
3.26133	323
3.26500	323
3.26867	319
3.27233	312
3.27600	305
3.27967	300
3.28333	299
3.28700	302
3.29067	307
3.29433	309
3.29800	309
3.30167	309
3.30533	310
3.30900	312
3.31267	314
3.31633	313
3.32000	312
3.32367	312
3.32733	313
3.33100	314
3.33467	314
3.33833	313
3.34200	309
3.34567	306
3.34933	303
3.35300	300
3.35667	299
3.36033	298
3.36400	299
3.36767	300
3.37133	303
3.37500	306
3.37867	308
3.38233	310
3.38600	311
3.38967	310
3.39333	310
3.39700	308
3.40067	306
3.40433	304
3.40800	306
3.41167	307
3.41533	307
3.41900	305
3.42267	301
3.42633	296
3.43000	292
3.43367	290
3.43733	292
3.44100	295
3.44467	297
3.44833	302
3.45200	311
3.45567	318
3.45933	318
3.46300	309
3.46667	301
3.47033	293
3.47400	284
3.47767	274
3.48133	263
3.48500	257
3.48867	257
3.49233	261
3.49600	266
3.49967	272
3.50333	275
3.50700	275
3.51067	275
3.51433	279
3.51800	283
3.52167	283
3.52533	281
3.52900	279
3.53267	280
3.53633	283
3.54000	288
3.54367	296
3.54733	301
3.55100	302
3.55467	301
3.55833	298
3.56200	293
3.56567	287
3.56933	283
3.57300	282
3.57667	284
3.58033	288
3.58400	288
3.58767	284
3.59133	279
3.59500	274
3.59867	270
3.60233	269
3.60600	269
3.60967	270
3.61333	272
3.61700	275
3.62067	278
3.62433	281
3.62800	284
3.63167	291
3.63533	297
3.63900	297
3.64267	293
3.64633	286
3.65000	279
3.65367	276
3.65733	275
3.66100	276
3.66467	277
3.66833	275
3.67200	273
3.67567	273
3.67933	271
3.68300	267
3.68667	262
3.69033	260
3.69400	260
3.69767	260
3.70133	263
3.70500	268
3.70867	272
3.71233	272
3.71600	272
3.71967	274
3.72333	278
3.72700	279
3.73067	275
3.73433	269
3.73800	264
3.74167	263
3.74533	265
3.74900	267
3.75267	267
3.75633	265
3.76000	260
3.76367	255
3.76733	252
3.77100	251
3.77467	254
3.77833	258
3.78200	264
3.78567	268
3.78933	273
3.79300	278
3.79667	278
3.80033	277
3.80400	276
3.80767	274
3.81133	269
3.81500	260
3.81867	252
3.82233	246
3.82600	240
3.82967	235
3.83333	231
3.83700	229
3.84067	228
3.84433	228
3.84800	230
3.85167	236
3.85533	246
3.85900	255
3.86267	261
3.86633	265
3.87000	268
3.87367	272
3.87733	274
3.88100	275
3.88467	274
3.88833	274
3.89200	271
3.89567	263
3.89933	253
3.90300	242
3.90667	237
3.91033	238
3.91400	241
3.91767	242
3.92133	241
3.92500	240
3.92867	238
3.93233	235
3.93600	233
3.93967	235
3.94333	242
3.94700	252
3.95067	264
3.95433	270
3.95800	270
3.96167	265
3.96533	257
3.96900	248
3.97267	241
3.97633	239
3.98000	243
3.98367	250
3.98733	255
3.99100	257
3.99467	254
3.99833	248

[Chromatogram (Ch2)]
Interval(msec)	220
# of Points	1091
Start Time(min)	0.002
End Time(min)	3.998
R.Time (min)	Intensity
0.00167	-1
0.00533	-1
0.00900	-1
0.01267	-1
0.01633	-1
0.02000	-2
0.02367	-2
0.02733	-1
0.03100	-1
0.03467	-1
0.03833	-1
0.04200	-1
0.04567	-1
0.04933	-1
0.05300	-1
0.05667	-0
0.06033	-0
0.06400	-0
0.06767	-0
0.07133	-1
0.07500	-1
0.07867	-1
0.08233	-2
0.08600	-2
0.08967	-1
0.09333	-1
0.09700	-1
0.10067	-1
0.10433	-1
0.10800	-1
0.11167	-1
0.11533	-2
0.11900	-2
0.12267	-2
0.12633	-2
0.13000	-2
0.13367	-2
0.13733	-2
0.14100	-2
0.14467	-1
0.14833	-1
0.15200	-1
0.15567	-1
0.15933	-1
0.16300	-0
0.16667	-0
0.17033	-0
0.17400	-0
0.17767	0
0.18133	0
0.18500	0
0.18867	0
0.19233	0
0.19600	0
0.19967	0
0.20333	0
0.20700	0
0.21067	0
0.21433	-0
0.21800	-0
0.22167	-0
0.22533	-0
0.22900	-0
0.23267	-0
0.23633	-1
0.24000	-1
0.24367	-1
0.24733	-1
0.25100	-1
0.25467	-1
0.25833	-0
0.26200	-0
0.26567	0
0.26933	0
0.27300	0
0.27667	0
0.28033	1
0.28400	1
0.28767	0
0.29133	0
0.29500	0
0.29867	0
0.30233	0
0.30600	0
0.30967	-0
0.31333	-0
0.31700	-1
0.32067	-1
0.32433	-1
0.32800	-1
0.33167	-1
0.33533	-1
0.33900	-1
0.34267	-1
0.34633	-1
0.35000	-1
0.35367	-1
0.35733	-1
0.36100	-1
0.36467	-1
0.36833	-1
0.37200	-1
0.37567	-1
0.37933	-1
0.38300	-1
0.38667	-1
0.39033	-1
0.39400	-1
0.39767	-1
0.40133	-2
0.40500	-2
0.40867	-2
0.41233	-2
0.41600	-2
0.41967	-2
0.42333	-2
0.42700	-2
0.43067	-2
0.43433	-3
0.43800	-3
0.44167	-3
0.44533	-3
0.44900	-3
0.45267	-3
0.45633	-3
0.46000	-3
0.46367	-2
0.46733	-2
0.47100	-2
0.47467	-2
0.47833	-2
0.48200	-2
0.48567	-2
0.48933	-2
0.49300	-3
0.49667	-3
0.50033	-2
0.50400	-2
0.50767	-2
0.51133	-2
0.51500	-2
0.51867	-1
0.52233	-1
0.52600	-0
0.52967	0
0.53333	0
0.53700	0
0.54067	-0
0.54433	-0
0.54800	-0
0.55167	0
0.55533	0
0.55900	-0
0.56267	-0
0.56633	-0
0.57000	-1
0.57367	-1
0.57733	-1
0.58100	-1
0.58467	-1
0.58833	-0
0.59200	0
0.59567	1
0.59933	1
0.60300	2
0.60667	2
0.61033	2
0.61400	2
0.61767	1
0.62133	1
0.62500	1
0.62867	2
0.63233	2
0.63600	2
0.63967	2
0.64333	2
0.64700	2
0.65067	1
0.65433	1
0.65800	0
0.66167	-1
0.66533	-1
0.66900	-1
0.67267	-2
0.67633	-2
0.68000	-2
0.68367	-3
0.68733	-3
0.69100	-3
0.69467	-3
0.69833	-3
0.70200	-3
0.70567	-3
0.70933	-3
0.71300	-3
0.71667	-3
0.72033	-3
0.72400	-2
0.72767	-2
0.73133	-2
0.73500	-2
0.73867	-2
0.74233	-2
0.74600	-2
0.74967	-1
0.75333	-1
0.75700	-1
0.76067	-1
0.76433	-1
0.76800	-1
0.77167	-1
0.77533	-1
0.77900	-1
0.78267	-2
0.78633	-2
0.79000	-2
0.79367	-2
0.79733	-2
0.80100	-2
0.80467	-2
0.80833	-2
0.81200	-2
0.81567	-2
0.81933	-2
0.82300	-2
0.82667	-2
0.83033	-1
0.83400	-1
0.83767	-1
0.84133	-1
0.84500	-1
0.84867	-1
0.85233	-1
0.85600	-1
0.85967	-1
0.86333	-1
0.86700	-1
0.87067	-1
0.87433	-1
0.87800	-1
0.88167	-1
0.88533	-1
0.88900	-1
0.89267	-1
0.89633	-1
0.90000	-1
0.90367	-1
0.90733	-1
0.91100	-1
0.91467	-1
0.91833	-2
0.92200	-2
0.92567	-2
0.92933	-2
0.93300	-2
0.93667	-2
0.94033	-2
0.94400	-2
0.94767	-2
0.95133	-2
0.95500	-2
0.95867	-2
0.96233	-2
0.96600	-2
0.96967	-2
0.97333	-2
0.97700	-2
0.98067	-2
0.98433	-2
0.98800	-2
0.99167	-2
0.99533	-2
0.99900	-2
1.00267	-2
1.00633	-2
1.01000	-2
1.01367	-2
1.01733	-2
1.02100	-3
1.02467	-2
1.02833	-2
1.03200	-2
1.03567	-2
1.03933	-2
1.04300	-2
1.04667	-1
1.05033	-1
1.05400	-1
1.05767	-0
1.06133	-0
1.06500	0
1.06867	1
1.07233	1
1.07600	1
1.07967	0
1.08333	-0
1.08700	-1
1.09067	-1
1.09433	-1
1.09800	-1
1.10167	-1
1.10533	-1
1.10900	-1
1.11267	-1
1.11633	-2
1.12000	-2
1.12367	-2
1.12733	-1
1.13100	-1
1.13467	-1
1.13833	-1
1.14200	-1
1.14567	-2
1.14933	-2
1.15300	-3
1.15667	-4
1.16033	-4
1.16400	-4
1.16767	-4
1.17133	-4
1.17500	-4
1.17867	-4
1.18233	-4
1.18600	-5
1.18967	-5
1.19333	-5
1.19700	-5
1.20067	-5
1.20433	-5
1.20800	-4
1.21167	-4
1.21533	-4
1.21900	-3
1.22267	-3
1.22633	-3
1.23000	-3
1.23367	-3
1.23733	-3
1.24100	-3
1.24467	-3
1.24833	-3
1.25200	-2
1.25567	-2
1.25933	-2
1.26300	-2
1.26667	-2
1.27033	-2
1.27400	-2
1.27767	-2
1.28133	-1
1.28500	-1
1.28867	-0
1.29233	-0
1.29600	-1
1.29967	-1
1.30333	-1
1.30700	-1
1.31067	-1
1.31433	-2
1.31800	-2
1.32167	-3
1.32533	-4
1.32900	-5
1.33267	-6
1.33633	-7
1.34000	-7
1.34367	-7
1.34733	-7
1.35100	-6
1.35467	-5
1.35833	-5
1.36200	-5
1.36567	-6
1.36933	-6
1.37300	-6
1.37667	-7
1.38033	-7
1.38400	-6
1.38767	-6
1.39133	-5
1.39500	-5
1.39867	-4
1.40233	-4
1.40600	-3
1.40967	-3
1.41333	-3
1.41700	-3
1.42067	-3
1.42433	-3
1.42800	-3
1.43167	-3
1.43533	-3
1.43900	-3
1.44267	-4
1.44633	-4
1.45000	-4
1.45367	-3
1.45733	-3
1.46100	-2
1.46467	-2
1.46833	-2
1.47200	-2
1.47567	-2
1.47933	-3
1.48300	-3
1.48667	-3
1.49033	-3
1.49400	-3
1.49767	-2
1.50133	-2
1.50500	-2
1.50867	-2
1.51233	-3
1.51600	-3
1.51967	-3
1.52333	-4
1.52700	-4
1.53067	-4
1.53433	-5
1.53800	-5
1.54167	-5
1.54533	-4
1.54900	-4
1.55267	-4
1.55633	-4
1.56000	-3
1.56367	-3
1.56733	-3
1.57100	-2
1.57467	-2
1.57833	-2
1.58200	-2
1.58567	-2
1.58933	-3
1.59300	-3
1.59667	-4
1.60033	-5
1.60400	-6
1.60767	-7
1.61133	-9
1.61500	-11
1.61867	-13
1.62233	-16
1.62600	-19
1.62967	-22
1.63333	-26
1.63700	-29
1.64067	-33
1.64433	-36
1.64800	-40
1.65167	-43
1.65533	-47
1.65900	-50
1.66267	-54
1.66633	-57
1.67000	-61
1.67367	-65
1.67733	-70
1.68100	-74
1.68467	-78
1.68833	-82
1.69200	-86
1.69567	-89
1.69933	-91
1.70300	-93
1.70667	-95
1.71033	-96
1.71400	-97
1.71767	-98
1.72133	-99
1.72500	-100
1.72867	-101
1.73233	-102
1.73600	-103
1.73967	-104
1.74333	-104
1.74700	-105
1.75067	-104
1.75433	-104
1.75800	-104
1.76167	-103
1.76533	-103
1.76900	-103
1.77267	-104
1.77633	-104
1.78000	-105
1.78367	-105
1.78733	-106
1.79100	-106
1.79467	-106
1.79833	-106
1.80200	-107
1.80567	-107
1.80933	-107
1.81300	-107
1.81667	-106
1.82033	-106
1.82400	-104
1.82767	-103
1.83133	-102
1.83500	-102
1.83867	-101
1.84233	-101
1.84600	-101
1.84967	-101
1.85333	-102
1.85700	-103
1.86067	-104
1.86433	-105
1.86800	-106
1.87167	-106
1.87533	-107
1.87900	-107
1.88267	-107
1.88633	-107
1.89000	-107
1.89367	-107
1.89733	-107
1.90100	-107
1.90467	-107
1.90833	-106
1.91200	-106
1.91567	-105
1.91933	-104
1.92300	-104
1.92667	-104
1.93033	-103
1.93400	-103
1.93767	-103
1.94133	-103
1.94500	-103
1.94867	-102
1.95233	-102
1.95600	-102
1.95967	-101
1.96333	-101
1.96700	-101
1.97067	-101
1.97433	-100
1.97800	-100
1.98167	-100
1.98533	-101
1.98900	-101
1.99267	-100
1.99633	-100
2.00000	-100
2.00367	-100
2.00733	-100
2.01100	-100
2.01467	-100
2.01833	-100
2.02200	-100
2.02567	-99
2.02933	-99
2.03300	-99
2.03667	-98
2.04033	-98
2.04400	-98
2.04767	-98
2.05133	-98
2.05500	-97
2.05867	-97
2.06233	-96
2.06600	-95
2.06967	-94
2.07333	-94
2.07700	-94
2.08067	-94
2.08433	-94
2.08800	-94
2.09167	-94
2.09533	-93
2.09900	-93
2.10267	-92
2.10633	-92
2.11000	-91
2.11367	-91
2.11733	-91
2.12100	-91
2.12467	-91
2.12833	-91
2.13200	-91
2.13567	-90
2.13933	-90
2.14300	-89
2.14667	-89
2.15033	-89
2.15400	-89
2.15767	-88
2.16133	-87
2.16500	-87
2.16867	-87
2.17233	-86
2.17600	-86
2.17967	-87
2.18333	-87
2.18700	-87
2.19067	-87
2.19433	-86
2.19800	-86
2.20167	-86
2.20533	-86
2.20900	-86
2.21267	-86
2.21633	-86
2.22000	-86
2.22367	-86
2.22733	-87
2.23100	-88
2.23467	-89
2.23833	-89
2.24200	-89
2.24567	-88
2.24933	-87
2.25300	-86
2.25667	-85
2.26033	-84
2.26400	-83
2.26767	-82
2.27133	-81
2.27500	-80
2.27867	-80
2.28233	-79
2.28600	-78
2.28967	-78
2.29333	-77
2.29700	-77
2.30067	-77
2.30433	-77
2.30800	-76
2.31167	-76
2.31533	-76
2.31900	-75
2.32267	-75
2.32633	-75
2.33000	-74
2.33367	-74
2.33733	-74
2.34100	-74
2.34467	-74
2.34833	-74
2.35200	-73
2.35567	-72
2.35933	-71
2.36300	-70
2.36667	-68
2.37033	-66
2.37400	-63
2.37767	-60
2.38133	-57
2.38500	-53
2.38867	-49
2.39233	-45
2.39600	-41
2.39967	-37
2.40333	-33
2.40700	-29
2.41067	-26
2.41433	-22
2.41800	-19
2.42167	-17
2.42533	-14
2.42900	-12
2.43267	-10
2.43633	-8
2.44000	-7
2.44367	-6
2.44733	-5
2.45100	-3
2.45467	-2
2.45833	-0
2.46200	1
2.46567	2
2.46933	3
2.47300	3
2.47667	3
2.48033	4
2.48400	4
2.48767	4
2.49133	5
2.49500	5
2.49867	6
2.50233	6
2.50600	6
2.50967	6
2.51333	6
2.51700	5
2.52067	5
2.52433	4
2.52800	3
2.53167	3
2.53533	2
2.53900	2
2.54267	2
2.54633	3
2.55000	3
2.55367	4
2.55733	5
2.56100	6
2.56467	7
2.56833	8
2.57200	8
2.57567	9
2.57933	9
2.58300	9
2.58667	9
2.59033	9
2.59400	9
2.59767	9
2.60133	9
2.60500	9
2.60867	9
2.61233	9
2.61600	9
2.61967	10
2.62333	10
2.62700	10
2.63067	11
2.63433	11
2.63800	12
2.64167	13
2.64533	13
2.64900	14
2.65267	14
2.65633	15
2.66000	15
2.66367	15
2.66733	16
2.67100	16
2.67467	17
2.67833	17
2.68200	18
2.68567	18
2.68933	18
2.69300	19
2.69667	19
2.70033	19
2.70400	19
2.70767	19
2.71133	19
2.71500	19
2.71867	19
2.72233	20
2.72600	20
2.72967	20
2.73333	20
2.73700	20
2.74067	20
2.74433	21
2.74800	21
2.75167	21
2.75533	22
2.75900	22
2.76267	22
2.76633	23
2.77000	23
2.77367	24
2.77733	24
2.78100	25
2.78467	25
2.78833	26
2.79200	26
2.79567	26
2.79933	26
2.80300	26
2.80667	25
2.81033	25
2.81400	24
2.81767	23
2.82133	23
2.82500	23
2.82867	22
2.83233	22
2.83600	23
2.83967	23
2.84333	23
2.84700	23
2.85067	23
2.85433	23
2.85800	23
2.86167	21
2.86533	18
2.86900	12
2.87267	4
2.87633	-9
2.88000	-26
2.88367	-47
2.88733	-74
2.89100	-106
2.89467	-144
2.89833	-186
2.90200	-233
2.90567	-284
2.90933	-338
2.91300	-395
2.91667	-455
2.92033	-515
2.92400	-577
2.92767	-639
2.93133	-699
2.93500	-758
2.93867	-814
2.94233	-866
2.94600	-918
2.94967	-972
2.95333	-1026
2.95700	-1071
2.96067	-1097
2.96433	-1099
2.96800	-1076
2.97167	-1031
2.97533	-970
2.97900	-898
2.98267	-820
2.98633	-739
2.99000	-660
2.99367	-585
2.99733	-514
3.00100	-449
3.00467	-390
3.00833	-338
3.01200	-291
3.01567	-250
3.01933	-214
3.02300	-182
3.02667	-155
3.03033	-131
3.03400	-111
3.03767	-93
3.04133	-78
3.04500	-65
3.04867	-53
3.05233	-44
3.05600	-35
3.05967	-28
3.06333	-22
3.06700	-17
3.07067	-13
3.07433	-9
3.07800	-6
3.08167	-3
3.08533	-1
3.08900	1
3.09267	2
3.09633	3
3.10000	4
3.10367	5
3.10733	6
3.11100	7
3.11467	7
3.11833	8
3.12200	9
3.12567	9
3.12933	9
3.13300	10
3.13667	10
3.14033	10
3.14400	11
3.14767	11
3.15133	12
3.15500	12
3.15867	13
3.16233	13
3.16600	13
3.16967	14
3.17333	14
3.17700	15
3.18067	15
3.18433	15
3.18800	15
3.19167	16
3.19533	16
3.19900	16
3.20267	16
3.20633	17
3.21000	17
3.21367	17
3.21733	18
3.22100	18
3.22467	18
3.22833	18
3.23200	18
3.23567	19
3.23933	19
3.24300	19
3.24667	19
3.25033	19
3.25400	20
3.25767	20
3.26133	20
3.26500	20
3.26867	21
3.27233	21
3.27600	21
3.27967	20
3.28333	20
3.28700	20
3.29067	20
3.29433	20
3.29800	20
3.30167	20
3.30533	20
3.30900	20
3.31267	20
3.31633	20
3.32000	20
3.32367	20
3.32733	21
3.33100	21
3.33467	21
3.33833	21
3.34200	21
3.34567	21
3.34933	21
3.35300	21
3.35667	21
3.36033	21
3.36400	21
3.36767	21
3.37133	22
3.37500	22
3.37867	22
3.38233	22
3.38600	22
3.38967	22
3.39333	22
3.39700	22
3.40067	22
3.40433	22
3.40800	23
3.41167	23
3.41533	23
3.41900	23
3.42267	22
3.42633	22
3.43000	22
3.43367	22
3.43733	22
3.44100	22
3.44467	23
3.44833	23
3.45200	23
3.45567	23
3.45933	23
3.46300	23
3.46667	23
3.47033	23
3.47400	23
3.47767	23
3.48133	23
3.48500	23
3.48867	23
3.49233	23
3.49600	23
3.49967	23
3.50333	23
3.50700	23
3.51067	23
3.51433	23
3.51800	24
3.52167	24
3.52533	24
3.52900	23
3.53267	23
3.53633	23
3.54000	23
3.54367	23
3.54733	23
3.55100	23
3.55467	24
3.55833	24
3.56200	24
3.56567	24
3.56933	24
3.57300	24
3.57667	24
3.58033	24
3.58400	24
3.58767	24
3.59133	24
3.59500	24
3.59867	24
3.60233	24
3.60600	24
3.60967	24
3.61333	23
3.61700	23
3.62067	23
3.62433	23
3.62800	23
3.63167	23
3.63533	23
3.63900	23
3.64267	23
3.64633	23
3.65000	23
3.65367	23
3.65733	23
3.66100	23
3.66467	23
3.66833	23
3.67200	23
3.67567	23
3.67933	23
3.68300	23
3.68667	23
3.69033	23
3.69400	23
3.69767	23
3.70133	24
3.70500	24
3.70867	24
3.71233	24
3.71600	25
3.71967	25
3.72333	25
3.72700	25
3.73067	25
3.73433	25
3.73800	25
3.74167	25
3.74533	25
3.74900	25
3.75267	25
3.75633	25
3.76000	25
3.76367	25
3.76733	25
3.77100	25
3.77467	25
3.77833	25
3.78200	25
3.78567	25
3.78933	25
3.79300	25
3.79667	25
3.80033	25
3.80400	25
3.80767	25
3.81133	25
3.81500	25
3.81867	25
3.82233	25
3.82600	25
3.82967	25
3.83333	25
3.83700	25
3.84067	24
3.84433	24
3.84800	24
3.85167	24
3.85533	23
3.85900	23
3.86267	23
3.86633	23
3.87000	22
3.87367	22
3.87733	22
3.88100	22
3.88467	22
3.88833	22
3.89200	22
3.89567	22
3.89933	22
3.90300	22
3.90667	22
3.91033	22
3.91400	22
3.91767	22
3.92133	22
3.92500	22
3.92867	23
3.93233	23
3.93600	23
3.93967	23
3.94333	24
3.94700	24
3.95067	24
3.95433	24
3.95800	24
3.96167	24
3.96533	24
3.96900	23
3.97267	24
3.97633	24
3.98000	24
3.98367	24
3.98733	24
3.99100	24
3.99467	24
3.99833	24

[Chromatogram (Ch3)]
Interval(msec)	220
# of Points	1091
Start Time(min)	0.002
End Time(min)	3.998
R.Time (min)	Intensity
0.00167	1
0.00533	1
0.00900	2
0.01267	2
0.01633	2
0.02000	3
0.02367	3
0.02733	4
0.03100	6
0.03467	9
0.03833	8
0.04200	5
0.04567	4
0.04933	7
0.05300	7
0.05667	7
0.06033	7
0.06400	5
0.06767	2
0.07133	1
0.07500	1
0.07867	-0
0.08233	-2
0.08600	-1
0.08967	2
0.09333	4
0.09700	5
0.10067	5
0.10433	4
0.10800	3
0.11167	5
0.11533	6
0.11900	6
0.12267	4
0.12633	4
0.13000	4
0.13367	3
0.13733	2
0.14100	1
0.14467	1
0.14833	4
0.15200	7
0.15567	7
0.15933	8
0.16300	9
0.16667	8
0.17033	7
0.17400	7
0.17767	7
0.18133	7
0.18500	8
0.18867	9
0.19233	9
0.19600	9
0.19967	9
0.20333	8
0.20700	8
0.21067	9
0.21433	9
0.21800	8
0.22167	10
0.22533	10
0.22900	8
0.23267	7
0.23633	6
0.24000	8
0.24367	11
0.24733	12
0.25100	10
0.25467	8
0.25833	7
0.26200	7
0.26567	7
0.26933	8
0.27300	6
0.27667	4
0.28033	5
0.28400	6
0.28767	7
0.29133	7
0.29500	7
0.29867	6
0.30233	7
0.30600	7
0.30967	9
0.31333	10
0.31700	9
0.32067	7
0.32433	7
0.32800	7
0.33167	8
0.33533	11
0.33900	13
0.34267	11
0.34633	10
0.35000	9
0.35367	9
0.35733	11
0.36100	11
0.36467	10
0.36833	11
0.37200	13
0.37567	13
0.37933	12
0.38300	13
0.38667	14
0.39033	14
0.39400	13
0.39767	10
0.40133	9
0.40500	8
0.40867	6
0.41233	6
0.41600	7
0.41967	8
0.42333	9
0.42700	11
0.43067	12
0.43433	11
0.43800	11
0.44167	10
0.44533	9
0.44900	10
0.45267	12
0.45633	12
0.46000	12
0.46367	12
0.46733	14
0.47100	16
0.47467	17
0.47833	17
0.48200	17
0.48567	15
0.48933	12
0.49300	11
0.49667	10
0.50033	9
0.50400	9
0.50767	10
0.51133	11
0.51500	13
0.51867	14
0.52233	14
0.52600	13
0.52967	11
0.53333	10
0.53700	11
0.54067	13
0.54433	13
0.54800	12
0.55167	12
0.55533	14
0.55900	15
0.56267	14
0.56633	13
0.57000	12
0.57367	12
0.57733	11
0.58100	11
0.58467	13
0.58833	12
0.59200	13
0.59567	14
0.59933	13
0.60300	11
0.60667	9
0.61033	9
0.61400	13
0.61767	17
0.62133	17
0.62500	16
0.62867	14
0.63233	12
0.63600	10
0.63967	11
0.64333	13
0.64700	12
0.65067	13
0.65433	14
0.65800	13
0.66167	14
0.66533	15
0.66900	15
0.67267	15
0.67633	14
0.68000	13
0.68367	12
0.68733	13
0.69100	15
0.69467	17
0.69833	17
0.70200	16
0.70567	17
0.70933	19
0.71300	20
0.71667	20
0.72033	20
0.72400	20
0.72767	20
0.73133	18
0.73500	17
0.73867	16
0.74233	15
0.74600	15
0.74967	17
0.75333	17
0.75700	20
0.76067	21
0.76433	19
0.76800	18
0.77167	18
0.77533	18
0.77900	17
0.78267	17
0.78633	16
0.79000	16
0.79367	16
0.79733	16
0.80100	15
0.80467	15
0.80833	15
0.81200	18
0.81567	20
0.81933	17
0.82300	15
0.82667	16
0.83033	17
0.83400	16
0.83767	15
0.84133	17
0.84500	19
0.84867	17
0.85233	16
0.85600	18
0.85967	18
0.86333	17
0.86700	14
0.87067	14
0.87433	14
0.87800	16
0.88167	16
0.88533	16
0.88900	17
0.89267	19
0.89633	20
0.90000	20
0.90367	20
0.90733	20
0.91100	18
0.91467	17
0.91833	17
0.92200	16
0.92567	18
0.92933	20
0.93300	21
0.93667	20
0.94033	19
0.94400	17
0.94767	17
0.95133	19
0.95500	21
0.95867	22
0.96233	23
0.96600	23
0.96967	23
0.97333	21
0.97700	19
0.98067	18
0.98433	16
0.98800	15
0.99167	15
0.99533	15
0.99900	15
1.00267	16
1.00633	17
1.01000	17
1.01367	17
1.01733	18
1.02100	20
1.02467	21
1.02833	22
1.03200	20
1.03567	20
1.03933	21
1.04300	20
1.04667	18
1.05033	17
1.05400	16
1.05767	16
1.06133	15
1.06500	16
1.06867	17
1.07233	17
1.07600	18
1.07967	18
1.08333	19
1.08700	21
1.09067	23
1.09433	23
1.09800	23
1.10167	24
1.10533	22
1.10900	20
1.11267	20
1.11633	20
1.12000	21
1.12367	21
1.12733	21
1.13100	20
1.13467	18
1.13833	18
1.14200	18
1.14567	18
1.14933	19
1.15300	19
1.15667	20
1.16033	22
1.16400	21
1.16767	21
1.17133	21
1.17500	19
1.17867	19
1.18233	21
1.18600	21
1.18967	21
1.19333	19
1.19700	18
1.20067	17
1.20433	17
1.20800	19
1.21167	22
1.21533	22
1.21900	21
1.22267	22
1.22633	23
1.23000	21
1.23367	18
1.23733	17
1.24100	18
1.24467	18
1.24833	17
1.25200	18
1.25567	19
1.25933	20
1.26300	21
1.26667	22
1.27033	23
1.27400	23
1.27767	22
1.28133	23
1.28500	24
1.28867	25
1.29233	24
1.29600	25
1.29967	28
1.30333	28
1.30700	26
1.31067	26
1.31433	28
1.31800	27
1.32167	25
1.32533	24
1.32900	25
1.33267	25
1.33633	26
1.34000	27
1.34367	28
1.34733	28
1.35100	28
1.35467	28
1.35833	28
1.36200	28
1.36567	28
1.36933	28
1.37300	27
1.37667	27
1.38033	28
1.38400	29
1.38767	29
1.39133	29
1.39500	28
1.39867	27
1.40233	27
1.40600	26
1.40967	24
1.41333	24
1.41700	25
1.42067	26
1.42433	26
1.42800	28
1.43167	29
1.43533	28
1.43900	28
1.44267	28
1.44633	28
1.45000	28
1.45367	27
1.45733	28
1.46100	28
1.46467	28
1.46833	30
1.47200	29
1.47567	27
1.47933	25
1.48300	23
1.48667	23
1.49033	24
1.49400	25
1.49767	25
1.50133	25
1.50500	25
1.50867	24
1.51233	23
1.51600	25
1.51967	28
1.52333	29
1.52700	29
1.53067	29
1.53433	29
1.53800	28
1.54167	29
1.54533	29
1.54900	27
1.55267	27
1.55633	28
1.56000	28
1.56367	28
1.56733	28
1.57100	29
1.57467	29
1.57833	32
1.58200	36
1.58567	37
1.58933	37
1.59300	37
1.59667	35
1.60033	34
1.60400	35
1.60767	38
1.61133	38
1.61500	36
1.61867	35
1.62233	35
1.62600	33
1.62967	31
1.63333	30
1.63700	30
1.64067	32
1.64433	32
1.64800	32
1.65167	31
1.65533	33
1.65900	33
1.66267	37
1.66633	39
1.67000	38
1.67367	38
1.67733	38
1.68100	37
1.68467	37
1.68833	36
1.69200	37
1.69567	38
1.69933	40
1.70300	41
1.70667	41
1.71033	39
1.71400	37
1.71767	39
1.72133	42
1.72500	45
1.72867	45
1.73233	45
1.73600	47
1.73967	48
1.74333	46
1.74700	45
1.75067	43
1.75433	41
1.75800	39
1.76167	39
1.76533	40
1.76900	40
1.77267	41
1.77633	42
1.78000	46
1.78367	49
1.78733	50
1.79100	48
1.79467	46
1.79833	46
1.80200	48
1.80567	50
1.80933	51
1.81300	50
1.81667	51
1.82033	50
1.82400	50
1.82767	49
1.83133	50
1.83500	52
1.83867	53
1.84233	54
1.84600	56
1.84967	58
1.85333	59
1.85700	60
1.86067	60
1.86433	61
1.86800	61
1.87167	60
1.87533	60
1.87900	61
1.88267	60
1.88633	60
1.89000	61
1.89367	62
1.89733	63
1.90100	63
1.90467	63
1.90833	65
1.91200	67
1.91567	68
1.91933	68
1.92300	69
1.92667	70
1.93033	72
1.93400	73
1.93767	75
1.94133	75
1.94500	76
1.94867	77
1.95233	78
1.95600	81
1.95967	85
1.96333	88
1.96700	87
1.97067	86
1.97433	86
1.97800	85
1.98167	84
1.98533	82
1.98900	85
1.99267	88
1.99633	89
2.00000	91
2.00367	91
2.00733	91
2.01100	89
2.01467	90
2.01833	91
2.02200	95
2.02567	98
2.02933	99
2.03300	97
2.03667	97
2.04033	99
2.04400	99
2.04767	99
2.05133	98
2.05500	95
2.05867	95
2.06233	99
2.06600	102
2.06967	103
2.07333	105
2.07700	107
2.08067	108
2.08433	108
2.08800	108
2.09167	110
2.09533	113
2.09900	114
2.10267	114
2.10633	114
2.11000	114
2.11367	116
2.11733	118
2.12100	118
2.12467	119
2.12833	120
2.13200	121
2.13567	121
2.13933	122
2.14300	122
2.14667	122
2.15033	123
2.15400	125
2.15767	125
2.16133	126
2.16500	128
2.16867	129
2.17233	127
2.17600	126
2.17967	125
2.18333	125
2.18700	126
2.19067	128
2.19433	130
2.19800	132
2.20167	133
2.20533	135
2.20900	138
2.21267	138
2.21633	137
2.22000	137
2.22367	137
2.22733	140
2.23100	142
2.23467	142
2.23833	145
2.24200	147
2.24567	148
2.24933	149
2.25300	150
2.25667	151
2.26033	150
2.26400	148
2.26767	147
2.27133	145
2.27500	145
2.27867	146
2.28233	149
2.28600	151
2.28967	154
2.29333	154
2.29700	152
2.30067	152
2.30433	151
2.30800	149
2.31167	145
2.31533	143
2.31900	143
2.32267	147
2.32633	150
2.33000	151
2.33367	149
2.33733	146
2.34100	145
2.34467	146
2.34833	150
2.35200	153
2.35567	152
2.35933	150
2.36300	149
2.36667	148
2.37033	146
2.37400	145
2.37767	146
2.38133	148
2.38500	146
2.38867	145
2.39233	147
2.39600	151
2.39967	152
2.40333	152
2.40700	153
2.41067	154
2.41433	156
2.41800	157
2.42167	158
2.42533	156
2.42900	154
2.43267	152
2.43633	151
2.44000	154
2.44367	199
2.44733	290
2.45100	376
2.45467	440
2.45833	474
2.46200	476
2.46567	460
2.46933	442
2.47300	443
2.47667	465
2.48033	492
2.48400	519
2.48767	549
2.49133	591
2.49500	644
2.49867	703
2.50233	758
2.50600	804
2.50967	836
2.51333	856
2.51700	864
2.52067	863
2.52433	860
2.52800	859
2.53167	862
2.53533	866
2.53900	871
2.54267	878
2.54633	887
2.55000	897
2.55367	907
2.55733	920
2.56100	931
2.56467	943
2.56833	954
2.57200	960
2.57567	962
2.57933	960
2.58300	951
2.58667	939
2.59033	925
2.59400	911
2.59767	894
2.60133	879
2.60500	864
2.60867	848
2.61233	834
2.61600	824
2.61967	816
2.62333	807
2.62700	798
2.63067	790
2.63433	781
2.63800	772
2.64167	765
2.64533	760
2.64900	755
2.65267	750
2.65633	747
2.66000	747
2.66367	748
2.66733	748
2.67100	748
2.67467	750
2.67833	754
2.68200	758
2.68567	762
2.68933	766
2.69300	771
2.69667	776
2.70033	781
2.70400	787
2.70767	792
2.71133	795
2.71500	797
2.71867	800
2.72233	801
2.72600	801
2.72967	799
2.73333	796
2.73700	795
2.74067	791
2.74433	787
2.74800	781
2.75167	776
2.75533	769
2.75900	761
2.76267	755
2.76633	748
2.77000	740
2.77367	732
2.77733	725
2.78100	722
2.78467	719
2.78833	715
2.79200	708
2.79567	703
2.79933	699
2.80300	697
2.80667	694
2.81033	691
2.81400	690
2.81767	693
2.82133	693
2.82500	690
2.82867	689
2.83233	694
2.83600	710
2.83967	742
2.84333	803
2.84700	921
2.85067	1119
2.85433	1412
2.85800	1808
2.86167	2297
2.86533	2853
2.86900	3439
2.87267	4008
2.87633	4510
2.88000	4898
2.88367	5150
2.88733	5259
2.89100	5233
2.89467	5091
2.89833	4864
2.90200	4580
2.90567	4262
2.90933	3928
2.91300	3595
2.91667	3278
2.92033	2981
2.92400	2709
2.92767	2461
2.93133	2241
2.93500	2047
2.93867	1875
2.94233	1721
2.94600	1588
2.94967	1474
2.95333	1373
2.95700	1284
2.96067	1207
2.96433	1138
2.96800	1078
2.97167	1028
2.97533	985
2.97900	948
2.98267	917
2.98633	890
2.99000	866
2.99367	843
2.99733	823
3.00100	806
3.00467	791
3.00833	781
3.01200	771
3.01567	763
3.01933	757
3.02300	751
3.02667	747
3.03033	741
3.03400	735
3.03767	730
3.04133	727
3.04500	723
3.04867	721
3.05233	721
3.05600	720
3.05967	718
3.06333	717
3.06700	716
3.07067	715
3.07433	713
3.07800	711
3.08167	708
3.08533	706
3.08900	706
3.09267	708
3.09633	710
3.10000	709
3.10367	707
3.10733	705
3.11100	704
3.11467	705
3.11833	706
3.12200	705
3.12567	704
3.12933	704
3.13300	702
3.13667	701
3.14033	701
3.14400	700
3.14767	696
3.15133	693
3.15500	694
3.15867	694
3.16233	694
3.16600	694
3.16967	693
3.17333	693
3.17700	693
3.18067	691
3.18433	689
3.18800	687
3.19167	687
3.19533	685
3.19900	682
3.20267	679
3.20633	678
3.21000	676
3.21367	673
3.21733	674
3.22100	676
3.22467	677
3.22833	674
3.23200	673
3.23567	675
3.23933	677
3.24300	676
3.24667	675
3.25033	674
3.25400	672
3.25767	670
3.26133	669
3.26500	667
3.26867	665
3.27233	665
3.27600	665
3.27967	664
3.28333	662
3.28700	660
3.29067	660
3.29433	657
3.29800	656
3.30167	654
3.30533	653
3.30900	650
3.31267	647
3.31633	645
3.32000	645
3.32367	644
3.32733	643
3.33100	641
3.33467	639
3.33833	639
3.34200	638
3.34567	636
3.34933	635
3.35300	634
3.35667	631
3.36033	629
3.36400	625
3.36767	620
3.37133	617
3.37500	613
3.37867	610
3.38233	610
3.38600	609
3.38967	607
3.39333	606
3.39700	605
3.40067	603
3.40433	600
3.40800	596
3.41167	594
3.41533	594
3.41900	593
3.42267	590
3.42633	585
3.43000	581
3.43367	577
3.43733	574
3.44100	571
3.44467	569
3.44833	567
3.45200	568
3.45567	569
3.45933	570
3.46300	569
3.46667	566
3.47033	565
3.47400	564
3.47767	561
3.48133	559
3.48500	557
3.48867	555
3.49233	555
3.49600	555
3.49967	552
3.50333	549
3.50700	547
3.51067	546
3.51433	547
3.51800	546
3.52167	542
3.52533	538
3.52900	538
3.53267	537
3.53633	537
3.54000	535
3.54367	533
3.54733	529
3.55100	527
3.55467	525
3.55833	523
3.56200	521
3.56567	521
3.56933	521
3.57300	520
3.57667	520
3.58033	518
3.58400	514
3.58767	512
3.59133	510
3.59500	509
3.59867	509
3.60233	508
3.60600	508
3.60967	505
3.61333	505
3.61700	504
3.62067	500
3.62433	497
3.62800	497
3.63167	496
3.63533	493
3.63900	492
3.64267	492
3.64633	491
3.65000	488
3.65367	487
3.65733	486
3.66100	484
3.66467	482
3.66833	480
3.67200	480
3.67567	481
3.67933	481
3.68300	478
3.68667	476
3.69033	476
3.69400	477
3.69767	479
3.70133	480
3.70500	480
3.70867	479
3.71233	477
3.71600	476
3.71967	473
3.72333	470
3.72700	466
3.73067	466
3.73433	464
3.73800	464
3.74167	462
3.74533	458
3.74900	455
3.75267	454
3.75633	456
3.76000	458
3.76367	459
3.76733	457
3.77100	456
3.77467	453
3.77833	450
3.78200	448
3.78567	445
3.78933	444
3.79300	444
3.79667	442
3.80033	440
3.80400	438
3.80767	436
3.81133	437
3.81500	438
3.81867	438
3.82233	438
3.82600	437
3.82967	436
3.83333	434
3.83700	431
3.84067	430
3.84433	427
3.84800	426
3.85167	425
3.85533	425
3.85900	425
3.86267	424
3.86633	422
3.87000	420
3.87367	419
3.87733	417
3.88100	415
3.88467	413
3.88833	413
3.89200	413
3.89567	413
3.89933	412
3.90300	411
3.90667	411
3.91033	408
3.91400	403
3.91767	401
3.92133	400
3.92500	398
3.92867	395
3.93233	393
3.93600	391
3.93967	391
3.94333	391
3.94700	389
3.95067	386
3.95433	386
3.95800	386
3.96167	386
3.96533	385
3.96900	383
3.97267	379
3.97633	375
3.98000	372
3.98367	370
3.98733	369
3.99100	366
3.99467	363
3.99833	360

[Status Trace (Column Oven Temperature)]
Interval(msec)	1000
# of Points	240
Start Time(min)	0.012
End Time(min)	3.995
Intensity Units	
Intensity Multiplier	1
R.Time (min)	Intensity
0.01155	35.05
0.02822	35.05
0.04488	35.05
0.06155	35.04
0.07822	35.06
0.09488	35.06
0.11155	35.07
0.12822	35.07
0.14488	35.06
0.16155	35.06
0.17822	35.06
0.19488	35.05
0.21155	35.05
0.22822	35.04
0.24488	35.04
0.26155	35.03
0.27822	35.03
0.29488	35.03
0.31155	35.04
0.32822	35.03
0.34488	35.03
0.36155	35.02
0.37822	35.04
0.39488	35.04
0.41155	35.04
0.42822	35.04
0.44488	35.04
0.46155	35.02
0.47822	35.02
0.49488	35.02
0.51155	35.02
0.52822	35.02
0.54488	35.02
0.56155	35.02
0.57822	35.02
0.59488	35.00
0.61155	34.99
0.62822	34.98
0.64488	34.99
0.66155	34.99
0.67822	35.00
0.69488	35.01
0.71155	35.01
0.72822	35.02
0.74488	35.02
0.76155	35.02
0.77822	35.02
0.79488	35.02
0.81155	35.02
0.82822	35.02
0.84488	35.02
0.86155	35.01
0.87822	35.00
0.89488	35.00
0.91155	35.00
0.92822	35.00
0.94488	35.00
0.96155	35.01
0.97822	35.00
0.99488	35.00
1.01155	35.00
1.02822	34.99
1.04488	34.99
1.06155	34.99
1.07822	34.99
1.09488	34.98
1.11155	34.97
1.12822	34.98
1.14488	34.99
1.16155	34.99
1.17822	35.00
1.19488	35.00
1.21155	35.01
1.22822	35.01
1.24488	35.01
1.26155	35.01
1.27822	35.01
1.29488	35.02
1.31155	35.01
1.32822	35.02
1.34488	35.01
1.36155	35.01
1.37822	35.02
1.39488	35.02
1.41155	35.01
1.42822	35.01
1.44488	35.02
1.46155	35.02
1.47822	35.00
1.49488	35.00
1.51155	34.99
1.52822	35.00
1.54488	35.01
1.56155	34.99
1.57822	34.99
1.59488	35.00
1.61155	35.08
1.62822	35.23
1.64488	35.43
1.66155	35.69
1.67822	36.02
1.69488	36.38
1.71155	36.73
1.72822	37.08
1.74488	37.41
1.76155	37.72
1.77822	38.06
1.79488	38.41
1.81155	38.74
1.82822	39.04
1.84488	39.36
1.86155	39.71
1.87822	40.04
1.89488	40.38
1.91155	40.70
1.92822	41.03
1.94488	41.36
1.96155	41.67
1.97822	42.00
1.99488	42.32
2.01155	42.66
2.02822	42.98
2.04488	43.31
2.06155	43.63
2.07822	43.96
2.09488	44.28
2.11155	44.59
2.12822	44.93
2.14488	45.25
2.16155	45.56
2.17822	45.89
2.19488	46.23
2.21155	46.54
2.22822	46.92
2.24488	47.26
2.26155	47.57
2.27822	47.89
2.29488	48.21
2.31155	48.55
2.32822	48.86
2.34488	49.22
2.36155	49.46
2.37822	49.63
2.39488	49.66
2.41155	49.65
2.42822	49.64
2.44488	49.65
2.46155	49.65
2.47822	49.68
2.49488	49.69
2.51155	49.71
2.52822	49.74
2.54488	49.75
2.56155	49.76
2.57822	49.76
2.59488	49.78
2.61155	49.80
2.62822	49.81
2.64488	49.81
2.66155	49.83
2.67822	49.82
2.69488	49.83
2.71155	49.85
2.72822	49.85
2.74488	49.86
2.76155	49.86
2.77822	49.85
2.79488	49.85
2.81155	49.87
2.82822	49.88
2.84488	49.89
2.86155	49.89
2.87822	49.90
2.89488	49.91
2.91155	49.92
2.92822	49.94
2.94488	49.95
2.96155	49.95
2.97822	49.96
2.99488	49.96
3.01155	49.97
3.02822	49.98
3.04488	49.98
3.06155	49.97
3.07822	49.98
3.09488	49.99
3.11155	50.00
3.12822	50.01
3.14488	50.03
3.16155	50.04
3.17822	50.05
3.19488	50.06
3.21155	50.07
3.22822	50.07
3.24488	50.07
3.26155	50.07
3.27822	50.08
3.29488	50.08
3.31155	50.08
3.32822	50.09
3.34488	50.10
3.36155	50.09
3.37822	50.10
3.39488	50.09
3.41155	50.09
3.42822	50.09
3.44488	50.09
3.46155	50.09
3.47822	50.09
3.49488	50.09
3.51155	50.09
3.52822	50.09
3.54488	50.10
3.56155	50.09
3.57822	50.09
3.59488	50.08
3.61155	50.09
3.62822	50.09
3.64488	50.09
3.66155	50.10
3.67822	50.10
3.69488	50.10
3.71155	50.10
3.72822	50.09
3.74488	50.07
3.76155	50.06
3.77822	50.05
3.79488	50.04
3.81155	50.03
3.82822	50.03
3.84488	50.02
3.86155	50.03
3.87822	50.03
3.89488	50.04
3.91155	50.05
3.92822	50.04
3.94488	50.04
3.96155	50.04
3.97822	50.03
3.99488	50.04

[Status Trace (Injection Unit Temperature)]
Interval(msec)	1000
# of Points	240
Start Time(min)	0.012
End Time(min)	3.995
Intensity Units	
Intensity Multiplier	1
R.Time (min)	Intensity
0.01155	99.98
0.02822	99.98
0.04488	99.98
0.06155	99.98
0.07822	99.98
0.09488	99.98
0.11155	99.98
0.12822	99.99
0.14488	99.99
0.16155	99.98
0.17822	99.99
0.19488	99.99
0.21155	99.99
0.22822	99.98
0.24488	99.99
0.26155	99.99
0.27822	99.99
0.29488	99.99
0.31155	99.99
0.32822	99.99
0.34488	99.99
0.36155	99.99
0.37822	99.99
0.39488	99.99
0.41155	99.99
0.42822	99.99
0.44488	99.99
0.46155	99.98
0.47822	99.99
0.49488	99.99
0.51155	99.99
0.52822	99.99
0.54488	99.99
0.56155	99.99
0.57822	99.99
0.59488	99.98
0.61155	99.99
0.62822	99.99
0.64488	99.99
0.66155	99.99
0.67822	99.99
0.69488	99.99
0.71155	99.99
0.72822	99.99
0.74488	99.99
0.76155	99.99
0.77822	99.99
0.79488	99.99
0.81155	99.99
0.82822	99.99
0.84488	99.99
0.86155	99.99
0.87822	99.99
0.89488	99.99
0.91155	99.99
0.92822	99.99
0.94488	99.99
0.96155	99.99
0.97822	99.99
0.99488	99.99
1.01155	99.99
1.02822	99.99
1.04488	99.99
1.06155	99.99
1.07822	99.99
1.09488	99.99
1.11155	99.99
1.12822	99.99
1.14488	99.99
1.16155	99.99
1.17822	99.99
1.19488	99.99
1.21155	99.99
1.22822	99.99
1.24488	99.99
1.26155	99.99
1.27822	99.99
1.29488	99.98
1.31155	99.99
1.32822	99.99
1.34488	99.99
1.36155	99.98
1.37822	99.99
1.39488	99.99
1.41155	99.99
1.42822	99.99
1.44488	99.98
1.46155	99.99
1.47822	99.99
1.49488	99.99
1.51155	99.98
1.52822	99.99
1.54488	99.99
1.56155	99.99
1.57822	99.99
1.59488	99.99
1.61155	99.99
1.62822	99.99
1.64488	99.99
1.66155	99.99
1.67822	99.99
1.69488	99.99
1.71155	99.98
1.72822	99.99
1.74488	99.99
1.76155	99.99
1.77822	99.99
1.79488	99.99
1.81155	99.99
1.82822	99.99
1.84488	99.99
1.86155	99.99
1.87822	99.99
1.89488	99.99
1.91155	99.98
1.92822	99.98
1.94488	99.98
1.96155	99.98
1.97822	99.98
1.99488	99.98
2.01155	99.98
2.02822	99.98
2.04488	99.98
2.06155	99.98
2.07822	99.97
2.09488	99.98
2.11155	99.98
2.12822	99.97
2.14488	99.98
2.16155	99.97
2.17822	99.97
2.19488	99.98
2.21155	99.98
2.22822	99.97
2.24488	99.97
2.26155	99.97
2.27822	99.97
2.29488	99.97
2.31155	99.97
2.32822	99.97
2.34488	99.97
2.36155	99.97
2.37822	99.97
2.39488	99.97
2.41155	99.97
2.42822	99.97
2.44488	99.97
2.46155	99.97
2.47822	99.97
2.49488	99.98
2.51155	99.98
2.52822	99.97
2.54488	99.97
2.56155	99.98
2.57822	99.97
2.59488	99.98
2.61155	99.98
2.62822	99.98
2.64488	99.98
2.66155	99.99
2.67822	99.99
2.69488	99.99
2.71155	99.99
2.72822	99.99
2.74488	100.00
2.76155	99.99
2.77822	100.00
2.79488	100.00
2.81155	100.00
2.82822	100.00
2.84488	100.00
2.86155	100.00
2.87822	100.00
2.89488	100.00
2.91155	100.00
2.92822	100.00
2.94488	100.01
2.96155	100.00
2.97822	100.01
2.99488	100.01
3.01155	100.01
3.02822	100.01
3.04488	100.01
3.06155	100.01
3.07822	100.01
3.09488	100.01
3.11155	100.02
3.12822	100.01
3.14488	100.02
3.16155	100.02
3.17822	100.02
3.19488	100.02
3.21155	100.02
3.22822	100.02
3.24488	100.03
3.26155	100.03
3.27822	100.03
3.29488	100.03
3.31155	100.03
3.32822	100.02
3.34488	100.03
3.36155	100.03
3.37822	100.03
3.39488	100.03
3.41155	100.03
3.42822	100.03
3.44488	100.03
3.46155	100.04
3.47822	100.04
3.49488	100.04
3.51155	100.04
3.52822	100.04
3.54488	100.04
3.56155	100.04
3.57822	100.04
3.59488	100.04
3.61155	100.04
3.62822	100.04
3.64488	100.04
3.66155	100.04
3.67822	100.04
3.69488	100.04
3.71155	100.04
3.72822	100.04
3.74488	100.04
3.76155	100.04
3.77822	100.04
3.79488	100.05
3.81155	100.04
3.82822	100.04
3.84488	100.04
3.86155	100.05
3.87822	100.05
3.89488	100.05
3.91155	100.05
3.92822	100.04
3.94488	100.05
3.96155	100.04
3.97822	100.04
3.99488	100.04

[Status Trace (Carrier Gas Pressure)]
Interval(msec)	1000
# of Points	240
Start Time(min)	0.012
End Time(min)	3.995
Intensity Units	
Intensity Multiplier	1
R.Time (min)	Intensity
0.01155	58.00
0.02822	55.02
0.04488	57.67
0.06155	59.74
0.07822	58.89
0.09488	57.99
0.11155	58.00
0.12822	58.01
0.14488	58.01
0.16155	58.00
0.17822	58.00
0.19488	58.00
0.21155	58.00
0.22822	58.00
0.24488	58.00
0.26155	58.00
0.27822	58.00
0.29488	58.00
0.31155	58.00
0.32822	58.00
0.34488	58.00
0.36155	58.00
0.37822	58.00
0.39488	58.00
0.41155	58.00
0.42822	58.00
0.44488	58.00
0.46155	58.00
0.47822	58.00
0.49488	58.00
0.51155	58.00
0.52822	58.00
0.54488	58.00
0.56155	58.00
0.57822	58.00
0.59488	58.00
0.61155	58.00
0.62822	58.00
0.64488	58.00
0.66155	58.00
0.67822	58.00
0.69488	58.00
0.71155	58.00
0.72822	58.00
0.74488	58.00
0.76155	58.00
0.77822	58.00
0.79488	58.00
0.81155	58.00
0.82822	58.00
0.84488	58.00
0.86155	58.00
0.87822	58.00
0.89488	58.00
0.91155	58.00
0.92822	58.00
0.94488	58.00
0.96155	58.00
0.97822	58.00
0.99488	58.00
1.01155	58.00
1.02822	58.00
1.04488	58.00
1.06155	58.00
1.07822	58.00
1.09488	58.00
1.11155	58.00
1.12822	58.00
1.14488	58.00
1.16155	58.00
1.17822	58.00
1.19488	58.00
1.21155	58.00
1.22822	58.00
1.24488	58.00
1.26155	58.00
1.27822	58.00
1.29488	58.00
1.31155	58.00
1.32822	58.00
1.34488	58.00
1.36155	58.00
1.37822	58.00
1.39488	58.00
1.41155	58.00
1.42822	58.00
1.44488	58.00
1.46155	58.00
1.47822	58.00
1.49488	58.00
1.51155	58.00
1.52822	58.00
1.54488	58.00
1.56155	58.00
1.57822	58.00
1.59488	58.00
1.61155	58.00
1.62822	58.00
1.64488	58.00
1.66155	58.00
1.67822	58.01
1.69488	58.00
1.71155	58.00
1.72822	58.00
1.74488	58.00
1.76155	58.00
1.77822	58.00
1.79488	58.00
1.81155	58.00
1.82822	58.00
1.84488	58.00
1.86155	58.00
1.87822	58.00
1.89488	58.00
1.91155	58.00
1.92822	58.00
1.94488	58.00
1.96155	58.00
1.97822	58.00
1.99488	58.00
2.01155	58.00
2.02822	58.00
2.04488	58.00
2.06155	58.00
2.07822	58.00
2.09488	58.00
2.11155	58.00
2.12822	58.00
2.14488	58.00
2.16155	58.00
2.17822	58.00
2.19488	58.00
2.21155	58.00
2.22822	58.00
2.24488	58.00
2.26155	58.00
2.27822	58.00
2.29488	58.00
2.31155	58.00
2.32822	58.00
2.34488	58.00
2.36155	58.00
2.37822	58.00
2.39488	57.99
2.41155	58.00
2.42822	58.00
2.44488	58.00
2.46155	58.00
2.47822	58.00
2.49488	58.00
2.51155	57.99
2.52822	57.99
2.54488	58.00
2.56155	58.00
2.57822	58.00
2.59488	58.00
2.61155	58.00
2.62822	58.00
2.64488	58.00
2.66155	58.00
2.67822	58.00
2.69488	58.00
2.71155	58.00
2.72822	58.00
2.74488	58.00
2.76155	58.00
2.77822	58.00
2.79488	58.00
2.81155	58.00
2.82822	58.00
2.84488	58.00
2.86155	58.00
2.87822	58.00
2.89488	58.00
2.91155	58.00
2.92822	58.00
2.94488	58.00
2.96155	58.00
2.97822	58.00
2.99488	58.00
3.01155	58.00
3.02822	58.00
3.04488	58.00
3.06155	58.00
3.07822	58.00
3.09488	58.00
3.11155	58.00
3.12822	58.00
3.14488	58.00
3.16155	58.00
3.17822	58.00
3.19488	58.00
3.21155	58.00
3.22822	58.00
3.24488	58.00
3.26155	58.00
3.27822	58.00
3.29488	58.00
3.31155	58.00
3.32822	58.00
3.34488	58.00
3.36155	58.00
3.37822	58.00
3.39488	58.00
3.41155	58.00
3.42822	58.00
3.44488	58.00
3.46155	58.00
3.47822	58.00
3.49488	58.00
3.51155	58.00
3.52822	58.00
3.54488	58.00
3.56155	58.00
3.57822	58.00
3.59488	58.00
3.61155	58.00
3.62822	58.00
3.64488	58.00
3.66155	58.00
3.67822	58.00
3.69488	58.00
3.71155	58.00
3.72822	58.00
3.74488	58.00
3.76155	58.00
3.77822	58.00
3.79488	58.00
3.81155	58.00
3.82822	58.00
3.84488	58.00
3.86155	58.00
3.87822	58.00
3.89488	58.00
3.91155	58.00
3.92822	58.00
3.94488	58.00
3.96155	58.00
3.97822	58.00
3.99488	58.00

[Status Trace (Carrier Gas Flow)]
Interval(msec)	1000
# of Points	240
Start Time(min)	0.012
End Time(min)	3.995
Intensity Units	
Intensity Multiplier	1
R.Time (min)	Intensity
0.01155	34.53
0.02822	34.54
0.04488	34.55
0.06155	34.53
0.07822	34.49
0.09488	34.52
0.11155	34.52
0.12822	34.52
0.14488	34.52
0.16155	34.52
0.17822	34.52
0.19488	34.52
0.21155	34.52
0.22822	34.52
0.24488	34.52
0.26155	34.51
0.27822	34.52
0.29488	34.52
0.31155	34.52
0.32822	34.52
0.34488	34.52
0.36155	34.52
0.37822	34.52
0.39488	34.52
0.41155	34.52
0.42822	34.51
0.44488	34.52
0.46155	34.51
0.47822	34.52
0.49488	34.52
0.51155	34.52
0.52822	34.52
0.54488	34.52
0.56155	34.52
0.57822	34.52
0.59488	34.52
0.61155	34.52
0.62822	34.52
0.64488	34.53
0.66155	34.52
0.67822	34.51
0.69488	34.52
0.71155	34.52
0.72822	34.52
0.74488	34.52
0.76155	34.52
0.77822	34.52
0.79488	34.51
0.81155	34.52
0.82822	34.52
0.84488	34.52
0.86155	34.52
0.87822	34.52
0.89488	34.52
0.91155	34.52
0.92822	34.52
0.94488	34.52
0.96155	34.52
0.97822	34.52
0.99488	34.52
1.01155	34.52
1.02822	34.51
1.04488	34.51
1.06155	34.52
1.07822	34.52
1.09488	34.52
1.11155	34.51
1.12822	34.52
1.14488	34.52
1.16155	34.52
1.17822	34.52
1.19488	34.52
1.21155	34.52
1.22822	34.52
1.24488	34.52
1.26155	34.52
1.27822	34.52
1.29488	34.52
1.31155	34.52
1.32822	34.52
1.34488	34.52
1.36155	34.52
1.37822	34.52
1.39488	34.52
1.41155	34.51
1.42822	34.52
1.44488	34.52
1.46155	34.52
1.47822	34.52
1.49488	34.52
1.51155	34.52
1.52822	34.52
1.54488	34.52
1.56155	34.52
1.57822	34.52
1.59488	34.51
1.61155	34.52
1.62822	34.52
1.64488	34.51
1.66155	34.52
1.67822	34.52
1.69488	34.52
1.71155	34.52
1.72822	34.51
1.74488	34.52
1.76155	34.52
1.77822	34.51
1.79488	34.52
1.81155	34.51
1.82822	34.53
1.84488	34.53
1.86155	34.52
1.87822	34.51
1.89488	34.52
1.91155	34.52
1.92822	34.52
1.94488	34.52
1.96155	34.52
1.97822	34.53
1.99488	34.52
2.01155	34.52
2.02822	34.52
2.04488	34.52
2.06155	34.52
2.07822	34.53
2.09488	34.52
2.11155	34.52
2.12822	34.52
2.14488	34.52
2.16155	34.52
2.17822	34.52
2.19488	34.52
2.21155	34.52
2.22822	34.51
2.24488	34.52
2.26155	34.52
2.27822	34.52
2.29488	34.52
2.31155	34.51
2.32822	34.52
2.34488	34.52
2.36155	34.52
2.37822	34.52
2.39488	34.52
2.41155	34.51
2.42822	34.52
2.44488	34.52
2.46155	34.52
2.47822	34.52
2.49488	34.52
2.51155	34.52
2.52822	34.52
2.54488	34.52
2.56155	34.52
2.57822	34.52
2.59488	34.52
2.61155	34.52
2.62822	34.52
2.64488	34.51
2.66155	34.52
2.67822	34.52
2.69488	34.52
2.71155	34.52
2.72822	34.52
2.74488	34.52
2.76155	34.52
2.77822	34.52
2.79488	34.52
2.81155	34.52
2.82822	34.52
2.84488	34.52
2.86155	34.52
2.87822	34.52
2.89488	34.52
2.91155	34.52
2.92822	34.52
2.94488	34.51
2.96155	34.52
2.97822	34.51
2.99488	34.52
3.01155	34.51
3.02822	34.52
3.04488	34.52
3.06155	34.52
3.07822	34.52
3.09488	34.52
3.11155	34.51
3.12822	34.52
3.14488	34.53
3.16155	34.51
3.17822	34.52
3.19488	34.52
3.21155	34.52
3.22822	34.52
3.24488	34.52
3.26155	34.52
3.27822	34.51
3.29488	34.52
3.31155	34.52
3.32822	34.51
3.34488	34.52
3.36155	34.52
3.37822	34.52
3.39488	34.51
3.41155	34.52
3.42822	34.52
3.44488	34.52
3.46155	34.51
3.47822	34.52
3.49488	34.52
3.51155	34.52
3.52822	34.52
3.54488	34.52
3.56155	34.52
3.57822	34.51
3.59488	34.53
3.61155	34.52
3.62822	34.51
3.64488	34.52
3.66155	34.52
3.67822	34.52
3.69488	34.52
3.71155	34.52
3.72822	34.52
3.74488	34.52
3.76155	34.52
3.77822	34.52
3.79488	34.52
3.81155	34.52
3.82822	34.52
3.84488	34.52
3.86155	34.51
3.87822	34.52
3.89488	34.52
3.91155	34.51
3.92822	34.52
3.94488	34.52
3.96155	34.52
3.97822	34.52
3.99488	34.53

[Status Trace (Column Flow)]
Interval(msec)	1000
# of Points	240
Start Time(min)	0.012
End Time(min)	3.995
Intensity Units	
Intensity Multiplier	1
R.Time (min)	Intensity
0.01155	5.49
0.02822	5.15
0.04488	5.45
0.06155	5.70
0.07822	5.60
0.09488	5.49
0.11155	5.49
0.12822	5.49
0.14488	5.49
0.16155	5.49
0.17822	5.49
0.19488	5.49
0.21155	5.49
0.22822	5.49
0.24488	5.49
0.26155	5.49
0.27822	5.49
0.29488	5.49
0.31155	5.49
0.32822	5.49
0.34488	5.49
0.36155	5.49
0.37822	5.49
0.39488	5.49
0.41155	5.49
0.42822	5.49
0.44488	5.49
0.46155	5.49
0.47822	5.49
0.49488	5.49
0.51155	5.49
0.52822	5.49
0.54488	5.49
0.56155	5.49
0.57822	5.49
0.59488	5.49
0.61155	5.49
0.62822	5.49
0.64488	5.49
0.66155	5.49
0.67822	5.49
0.69488	5.49
0.71155	5.49
0.72822	5.49
0.74488	5.49
0.76155	5.49
0.77822	5.49
0.79488	5.49
0.81155	5.49
0.82822	5.49
0.84488	5.49
0.86155	5.49
0.87822	5.49
0.89488	5.49
0.91155	5.49
0.92822	5.49
0.94488	5.49
0.96155	5.49
0.97822	5.49
0.99488	5.49
1.01155	5.49
1.02822	5.49
1.04488	5.49
1.06155	5.49
1.07822	5.49
1.09488	5.49
1.11155	5.49
1.12822	5.49
1.14488	5.49
1.16155	5.49
1.17822	5.49
1.19488	5.49
1.21155	5.49
1.22822	5.49
1.24488	5.49
1.26155	5.49
1.27822	5.49
1.29488	5.49
1.31155	5.49
1.32822	5.49
1.34488	5.49
1.36155	5.49
1.37822	5.49
1.39488	5.49
1.41155	5.49
1.42822	5.49
1.44488	5.49
1.46155	5.49
1.47822	5.49
1.49488	5.49
1.51155	5.49
1.52822	5.49
1.54488	5.49
1.56155	5.49
1.57822	5.49
1.59488	5.49
1.61155	5.49
1.62822	5.49
1.64488	5.48
1.66155	5.47
1.67822	5.46
1.69488	5.45
1.71155	5.44
1.72822	5.43
1.74488	5.42
1.76155	5.41
1.77822	5.40
1.79488	5.39
1.81155	5.38
1.82822	5.37
1.84488	5.36
1.86155	5.35
1.87822	5.34
1.89488	5.33
1.91155	5.32
1.92822	5.31
1.94488	5.30
1.96155	5.29
1.97822	5.28
1.99488	5.27
2.01155	5.26
2.02822	5.25
2.04488	5.24
2.06155	5.23
2.07822	5.22
2.09488	5.21
2.11155	5.21
2.12822	5.20
2.14488	5.19
2.16155	5.18
2.17822	5.17
2.19488	5.16
2.21155	5.15
2.22822	5.14
2.24488	5.13
2.26155	5.12
2.27822	5.11
2.29488	5.10
2.31155	5.09
2.32822	5.08
2.34488	5.07
2.36155	5.07
2.37822	5.06
2.39488	5.06
2.41155	5.06
2.42822	5.06
2.44488	5.06
2.46155	5.06
2.47822	5.06
2.49488	5.06
2.51155	5.06
2.52822	5.06
2.54488	5.06
2.56155	5.06
2.57822	5.06
2.59488	5.06
2.61155	5.06
2.62822	5.06
2.64488	5.06
2.66155	5.06
2.67822	5.06
2.69488	5.06
2.71155	5.06
2.72822	5.06
2.74488	5.06
2.76155	5.06
2.77822	5.06
2.79488	5.06
2.81155	5.06
2.82822	5.06
2.84488	5.06
2.86155	5.06
2.87822	5.06
2.89488	5.06
2.91155	5.06
2.92822	5.05
2.94488	5.05
2.96155	5.05
2.97822	5.05
2.99488	5.05
3.01155	5.05
3.02822	5.05
3.04488	5.05
3.06155	5.05
3.07822	5.05
3.09488	5.05
3.11155	5.05
3.12822	5.05
3.14488	5.05
3.16155	5.05
3.17822	5.05
3.19488	5.05
3.21155	5.05
3.22822	5.05
3.24488	5.05
3.26155	5.05
3.27822	5.05
3.29488	5.05
3.31155	5.05
3.32822	5.05
3.34488	5.05
3.36155	5.05
3.37822	5.05
3.39488	5.05
3.41155	5.05
3.42822	5.05
3.44488	5.05
3.46155	5.05
3.47822	5.05
3.49488	5.05
3.51155	5.05
3.52822	5.05
3.54488	5.05
3.56155	5.05
3.57822	5.05
3.59488	5.05
3.61155	5.05
3.62822	5.05
3.64488	5.05
3.66155	5.05
3.67822	5.05
3.69488	5.05
3.71155	5.05
3.72822	5.05
3.74488	5.05
3.76155	5.05
3.77822	5.05
3.79488	5.05
3.81155	5.05
3.82822	5.05
3.84488	5.05
3.86155	5.05
3.87822	5.05
3.89488	5.05
3.91155	5.05
3.92822	5.05
3.94488	5.05
3.96155	5.05
3.97822	5.05
3.99488	5.05

[Status Trace (Linear Velocity)]
Interval(msec)	1000
# of Points	240
Start Time(min)	0.012
End Time(min)	3.995
Intensity Units	
Intensity Multiplier	1
R.Time (min)	Intensity
0.01155	39.00
0.02822	37.05
0.04488	38.79
0.06155	40.15
0.07822	39.59
0.09488	39.00
0.11155	39.00
0.12822	39.01
0.14488	39.01
0.16155	39.01
0.17822	39.01
0.19488	39.01
0.21155	39.01
0.22822	39.01
0.24488	39.01
0.26155	39.01
0.27822	39.01
0.29488	39.01
0.31155	39.01
0.32822	39.01
0.34488	39.01
0.36155	39.01
0.37822	39.01
0.39488	39.01
0.41155	39.01
0.42822	39.01
0.44488	39.01
0.46155	39.01
0.47822	39.01
0.49488	39.01
0.51155	39.01
0.52822	39.01
0.54488	39.01
0.56155	39.01
0.57822	39.01
0.59488	39.01
0.61155	39.01
0.62822	39.01
0.64488	39.01
0.66155	39.01
0.67822	39.01
0.69488	39.01
0.71155	39.01
0.72822	39.01
0.74488	39.01
0.76155	39.01
0.77822	39.01
0.79488	39.01
0.81155	39.01
0.82822	39.01
0.84488	39.01
0.86155	39.01
0.87822	39.01
0.89488	39.01
0.91155	39.01
0.92822	39.01
0.94488	39.01
0.96155	39.01
0.97822	39.01
0.99488	39.01
1.01155	39.01
1.02822	39.01
1.04488	39.01
1.06155	39.01
1.07822	39.01
1.09488	39.01
1.11155	39.01
1.12822	39.01
1.14488	39.01
1.16155	39.01
1.17822	39.01
1.19488	39.01
1.21155	39.01
1.22822	39.01
1.24488	39.01
1.26155	39.01
1.27822	39.01
1.29488	39.01
1.31155	39.01
1.32822	39.01
1.34488	39.01
1.36155	39.01
1.37822	39.01
1.39488	39.01
1.41155	39.01
1.42822	39.01
1.44488	39.01
1.46155	39.01
1.47822	39.01
1.49488	39.01
1.51155	39.01
1.52822	39.01
1.54488	39.01
1.56155	39.01
1.57822	39.01
1.59488	39.01
1.61155	39.00
1.62822	38.99
1.64488	38.97
1.66155	38.95
1.67822	38.92
1.69488	38.88
1.71155	38.85
1.72822	38.81
1.74488	38.78
1.76155	38.75
1.77822	38.72
1.79488	38.69
1.81155	38.65
1.82822	38.62
1.84488	38.60
1.86155	38.56
1.87822	38.53
1.89488	38.50
1.91155	38.47
1.92822	38.44
1.94488	38.41
1.96155	38.38
1.97822	38.35
1.99488	38.32
2.01155	38.29
2.02822	38.26
2.04488	38.23
2.06155	38.20
2.07822	38.17
2.09488	38.14
2.11155	38.11
2.12822	38.08
2.14488	38.05
2.16155	38.02
2.17822	37.99
2.19488	37.96
2.21155	37.93
2.22822	37.90
2.24488	37.87
2.26155	37.84
2.27822	37.81
2.29488	37.79
2.31155	37.76
2.32822	37.73
2.34488	37.70
2.36155	37.67
2.37822	37.66
2.39488	37.65
2.41155	37.66
2.42822	37.66
2.44488	37.66
2.46155	37.66
2.47822	37.65
2.49488	37.65
2.51155	37.65
2.52822	37.64
2.54488	37.65
2.56155	37.65
2.57822	37.65
2.59488	37.65
2.61155	37.64
2.62822	37.64
2.64488	37.64
2.66155	37.64
2.67822	37.64
2.69488	37.64
2.71155	37.64
2.72822	37.64
2.74488	37.64
2.76155	37.64
2.77822	37.64
2.79488	37.64
2.81155	37.64
2.82822	37.64
2.84488	37.64
2.86155	37.64
2.87822	37.64
2.89488	37.63
2.91155	37.63
2.92822	37.63
2.94488	37.63
2.96155	37.63
2.97822	37.63
2.99488	37.63
3.01155	37.63
3.02822	37.63
3.04488	37.63
3.06155	37.63
3.07822	37.63
3.09488	37.63
3.11155	37.63
3.12822	37.63
3.14488	37.62
3.16155	37.62
3.17822	37.62
3.19488	37.62
3.21155	37.62
3.22822	37.62
3.24488	37.62
3.26155	37.62
3.27822	37.62
3.29488	37.62
3.31155	37.62
3.32822	37.62
3.34488	37.62
3.36155	37.62
3.37822	37.62
3.39488	37.62
3.41155	37.62
3.42822	37.62
3.44488	37.62
3.46155	37.62
3.47822	37.62
3.49488	37.62
3.51155	37.62
3.52822	37.62
3.54488	37.62
3.56155	37.62
3.57822	37.62
3.59488	37.62
3.61155	37.62
3.62822	37.62
3.64488	37.62
3.66155	37.62
3.67822	37.62
3.69488	37.62
3.71155	37.62
3.72822	37.62
3.74488	37.62
3.76155	37.62
3.77822	37.62
3.79488	37.62
3.81155	37.62
3.82822	37.62
3.84488	37.62
3.86155	37.62
3.87822	37.62
3.89488	37.62
3.91155	37.62
3.92822	37.62
3.94488	37.62
3.96155	37.62
3.97822	37.62
3.99488	37.62

