[Header]
Application Name	LabSolutions
Version	5.110
Data File Name	C:\Users\User\Desktop\Junior\UIC Prairie Sampling\6.2.23\06022023_018.gcd
Output Date	6/12/2023
Output Time	11:47:09 AM

[File Information]
Type	Data File
Generated	6/5/2023 3:57:32 PM
Generated by	System Administrator
Modified	6/5/2023 4:04:51 PM
Modified by	System Administrator

[Sample Information]
Operator Name	System Administrator
Acquired	6/5/2023 4:00:50 PM
Sample Type	0:Unknown
Level	0
Sample Name	018
Sample ID	018
ISTD Amount1	1
ISTD Amount2	1
ISTD Amount3	1
ISTD Amount4	1
ISTD Amount5	1
ISTD Amount6	1
ISTD Amount7	1
ISTD Amount8	1
ISTD Amount9	1
ISTD Amount10	1
ISTD Amount11	1
ISTD Amount12	1
ISTD Amount13	1
ISTD Amount14	1
ISTD Amount15	1
ISTD Amount16	1
ISTD Amount17	1
ISTD Amount18	1
ISTD Amount19	1
ISTD Amount20	1
ISTD Amount21	1
ISTD Amount22	1
ISTD Amount23	1
ISTD Amount24	1
ISTD Amount25	1
ISTD Amount26	1
ISTD Amount27	1
ISTD Amount28	1
ISTD Amount29	1
ISTD Amount30	1
ISTD Amount31	1
ISTD Amount32	1
Sample Amount	1
Dilution Factor	1
Vial#	17
Injection Volume	1
Injection Count	1
Bar Code	

[Original Files]
Data File	C:\Users\User\Desktop\Junior\UIC Prairie Sampling\6.2.23\06022023_018.gcd
Method File	C:\LabSolutions\Data\GHG_4min_2022\ghg3_togas_w_acet_4 min_new_int.gcm
Batch File	C:\LabSolutions\Data\AutoSamplerTesting\06022023.gcb
Report Format File	c:\LabSolutions\System\DEFAULT.lsr

[File Description]


[Configuration]
Instrument Name	C0B7VH3-Instrument1
Instrument #	1
Line #	1
# of Detectors	3
Detector ID	DET#1	DET#2	DET#3
Detector Name	FID	PTCD	ECD
# of Channels	1	1	1

[Peak Table(Ch1)]
# of Peaks	3
Peak#	R.Time	I.Time	F.Time	Area	Height	A/H	Conc.	Mark	ID#	Name	k'	Plate #	Plate Ht.	Tailing	Resolution	Sep.Factor	Area Ratio	Height Ratio	Conc. %	Norm Conc.
1	1.472	1.432	1.523	4498	2213	2.032	0.000	   	1	CO	0.000	9529	15.741	1.129	0.000	0.000	0	0	0.000	0.000
2	1.564	1.531	1.611	4392	2285	1.922	21.414	   	2	CH4	0.062	11874	12.633	1.100	1.557	0.000	0	0	9.580	9.580
3	1.989	1.941	2.345	1048742	508430	2.063	202.112	   	3	CO2	0.351	17495	8.574	1.266	7.237	5.640	0	0	90.420	90.420

[Peak Table(Ch2)]
# of Peaks	0

[Peak Table(Ch3)]
# of Peaks	4
Peak#	R.Time	I.Time	F.Time	Area	Height	A/H	Conc.	Mark	ID#	Name	k'	Plate #	Plate Ht.	Tailing	Resolution	Sep.Factor	Area Ratio	Height Ratio	Conc. %	Norm Conc.
1	2.458	2.436	2.491	537	261	2.056	0.000	   			0.000	21423	7.002	0.000	0.000	0.000	0	0	0.000	0.000
2	2.568	2.491	2.656	5847	748	7.817	0.000	 V 			0.045	13	11451.883	0.000	0.076	0.000	0	0	0.000	0.000
3	2.686	2.656	2.829	5698	634	8.991	0.000	 V 			0.092	16	9136.489	0.000	0.043	2.067	0	0	0.000	0.000
4	2.891	2.829	3.646	30395	5002	6.076	0.450	 V 	1	N2O	0.176	11401	13.156	0.000	0.149	1.903	0	0	100.000	100.000

[Compound Results(Ch1)]
# of IDs	6
ID#	Name	R.Time	Area	Height	Conc.	Curve	3rd	2nd	1st	Constant	Area Ratio	Height Ratio	Conc. %	Norm Conc.
1	CO	1.472	4498	2213	0.000	Linear	0.000000e+00	0.000000e+00	0.000000e+00	0.000000e+00	0	0	0.000	0.000
2	CH4	1.564	4392	2285	21.414	Linear	0.000000e+00	0.000000e+00	2.051179e+002	0.000000e+00	0	0	9.580	9.580
3	CO2	1.989	1048742	508430	202.112	Linear	0.000000e+00	0.000000e+00	5.188919e+003	0.000000e+00	0	0	90.420	90.420
4	Ethylene	0.000	0	0	0.000	Linear	0.000000e+00	0.000000e+00	0.000000e+00	0.000000e+00	0	0	0.000	0.000
5	Acetylene	0.000	0	0	0.000	Linear	0.000000e+00	0.000000e+00	0.000000e+00	0.000000e+00	0	0	0.000	0.000
6	Ethane	0.000	0	0	0.000	Linear	0.000000e+00	0.000000e+00	0.000000e+00	0.000000e+00	0	0	0.000	0.000

[Compound Results(Ch2)]
# of IDs	5
ID#	Name	R.Time	Area	Height	Conc.	Curve	3rd	2nd	1st	Constant	Area Ratio	Height Ratio	Conc. %	Norm Conc.
1	Hydrogen	0.000	0	0	0.000	Linear	0.000000e+00	0.000000e+00	0.000000e+00	0.000000e+00	0	0	0.000	0.000
2	Oxygen	0.000	0	0	0.000	Linear	0.000000e+00	0.000000e+00	0.000000e+00	0.000000e+00	0	0	0.000	0.000
3	Nitrogen	0.000	0	0	0.000	Linear	0.000000e+00	0.000000e+00	0.000000e+00	0.000000e+00	0	0	0.000	0.000
4	Methane	0.000	0	0	0.000	Linear	0.000000e+00	0.000000e+00	0.000000e+00	0.000000e+00	0	0	0.000	0.000
5	Carbon Monoxide	0.000	0	0	0.000	Linear	0.000000e+00	0.000000e+00	0.000000e+00	0.000000e+00	0	0	0.000	0.000

[Compound Results(Ch3)]
# of IDs	2
ID#	Name	R.Time	Area	Height	Conc.	Curve	3rd	2nd	1st	Constant	Area Ratio	Height Ratio	Conc. %	Norm Conc.
1	N2O	2.891	30395	5002	0.450	Linear	0.000000e+00	0.000000e+00	6.759880e+004	0.000000e+00	0	0	100.000	100.000
2	SF6	0.000	0	0	0.000	Linear	0.000000e+00	0.000000e+00	0.000000e+00	0.000000e+00	0	0	0.000	0.000

[Group Results(Ch1)]
# of Groups	0

[Group Results(Ch2)]
# of Groups	0

[Group Results(Ch3)]
# of Groups	0

[Chromatogram (Ch1)]
Interval(msec)	220
# of Points	1091
Start Time(min)	0.002
End Time(min)	3.998
R.Time (min)	Intensity
0.00167	-10
0.00533	-10
0.00900	-8
0.01267	-7
0.01633	-6
0.02000	-5
0.02367	-1
0.02733	3
0.03100	6
0.03467	5
0.03833	2
0.04200	0
0.04567	1
0.04933	4
0.05300	9
0.05667	11
0.06033	5
0.06400	-5
0.06767	-11
0.07133	-13
0.07500	-12
0.07867	-13
0.08233	-12
0.08600	-8
0.08967	-3
0.09333	2
0.09700	4
0.10067	2
0.10433	0
0.10800	-2
0.11167	-6
0.11533	-11
0.11900	-17
0.12267	-23
0.12633	-28
0.13000	-34
0.13367	-38
0.13733	-38
0.14100	-36
0.14467	-30
0.14833	-21
0.15200	-11
0.15567	-6
0.15933	-6
0.16300	-11
0.16667	-16
0.17033	-20
0.17400	-22
0.17767	-24
0.18133	-25
0.18500	-24
0.18867	-22
0.19233	-18
0.19600	-13
0.19967	-7
0.20333	-1
0.20700	3
0.21067	7
0.21433	6
0.21800	-2
0.22167	-10
0.22533	-13
0.22900	-13
0.23267	-12
0.23633	-10
0.24000	-6
0.24367	0
0.24733	4
0.25100	-0
0.25467	-9
0.25833	-21
0.26200	-32
0.26567	-37
0.26933	-34
0.27300	-26
0.27667	-20
0.28033	-17
0.28400	-19
0.28767	-21
0.29133	-22
0.29500	-23
0.29867	-24
0.30233	-26
0.30600	-29
0.30967	-31
0.31333	-28
0.31700	-23
0.32067	-15
0.32433	-7
0.32800	-3
0.33167	-4
0.33533	-11
0.33900	-18
0.34267	-24
0.34633	-27
0.35000	-28
0.35367	-26
0.35733	-23
0.36100	-20
0.36467	-17
0.36833	-16
0.37200	-17
0.37567	-16
0.37933	-13
0.38300	-12
0.38667	-15
0.39033	-19
0.39400	-22
0.39767	-24
0.40133	-25
0.40500	-25
0.40867	-25
0.41233	-26
0.41600	-31
0.41967	-36
0.42333	-39
0.42700	-40
0.43067	-39
0.43433	-36
0.43800	-30
0.44167	-22
0.44533	-14
0.44900	-10
0.45267	-9
0.45633	-9
0.46000	-10
0.46367	-11
0.46733	-10
0.47100	-3
0.47467	4
0.47833	6
0.48200	4
0.48567	-2
0.48933	-10
0.49300	-18
0.49667	-23
0.50033	-25
0.50400	-26
0.50767	-30
0.51133	-35
0.51500	-40
0.51867	-42
0.52233	-41
0.52600	-34
0.52967	-28
0.53333	-27
0.53700	-28
0.54067	-28
0.54433	-30
0.54800	-34
0.55167	-37
0.55533	-39
0.55900	-39
0.56267	-41
0.56633	-41
0.57000	-39
0.57367	-34
0.57733	-28
0.58100	-22
0.58467	-18
0.58833	-17
0.59200	-21
0.59567	-27
0.59933	-33
0.60300	-35
0.60667	-36
0.61033	-34
0.61400	-30
0.61767	-27
0.62133	-26
0.62500	-27
0.62867	-28
0.63233	-25
0.63600	-19
0.63967	-17
0.64333	-20
0.64700	-28
0.65067	-37
0.65433	-44
0.65800	-48
0.66167	-50
0.66533	-49
0.66900	-42
0.67267	-35
0.67633	-28
0.68000	-23
0.68367	-23
0.68733	-29
0.69100	-35
0.69467	-39
0.69833	-39
0.70200	-35
0.70567	-31
0.70933	-29
0.71300	-30
0.71667	-33
0.72033	-37
0.72400	-40
0.72767	-40
0.73133	-40
0.73500	-41
0.73867	-41
0.74233	-43
0.74600	-42
0.74967	-37
0.75333	-33
0.75700	-31
0.76067	-33
0.76433	-34
0.76800	-33
0.77167	-31
0.77533	-31
0.77900	-30
0.78267	-29
0.78633	-30
0.79000	-34
0.79367	-40
0.79733	-49
0.80100	-56
0.80467	-59
0.80833	-58
0.81200	-56
0.81567	-54
0.81933	-56
0.82300	-61
0.82667	-64
0.83033	-67
0.83400	-68
0.83767	-67
0.84133	-65
0.84500	-63
0.84867	-58
0.85233	-52
0.85600	-49
0.85967	-50
0.86333	-54
0.86700	-55
0.87067	-53
0.87433	-49
0.87800	-48
0.88167	-50
0.88533	-54
0.88900	-52
0.89267	-45
0.89633	-36
0.90000	-33
0.90367	-35
0.90733	-38
0.91100	-42
0.91467	-48
0.91833	-53
0.92200	-54
0.92567	-55
0.92933	-55
0.93300	-51
0.93667	-47
0.94033	-47
0.94400	-52
0.94767	-56
0.95133	-57
0.95500	-57
0.95867	-56
0.96233	-54
0.96600	-48
0.96967	-41
0.97333	-35
0.97700	-30
0.98067	-29
0.98433	-30
0.98800	-35
0.99167	-41
0.99533	-43
0.99900	-42
1.00267	-41
1.00633	-42
1.01000	-44
1.01367	-46
1.01733	-48
1.02100	-52
1.02467	-56
1.02833	-60
1.03200	-64
1.03567	-69
1.03933	-73
1.04300	-75
1.04667	-74
1.05033	-75
1.05400	-76
1.05767	-75
1.06133	-73
1.06500	-73
1.06867	-71
1.07233	-66
1.07600	-58
1.07967	-53
1.08333	-50
1.08700	-49
1.09067	-48
1.09433	-49
1.09800	-50
1.10167	-52
1.10533	-54
1.10900	-56
1.11267	-58
1.11633	-58
1.12000	-58
1.12367	-59
1.12733	-62
1.13100	-60
1.13467	-59
1.13833	-59
1.14200	-60
1.14567	-57
1.14933	-51
1.15300	-45
1.15667	-41
1.16033	-43
1.16400	-48
1.16767	-52
1.17133	-51
1.17500	-47
1.17867	-44
1.18233	-45
1.18600	-48
1.18967	-52
1.19333	-55
1.19700	-59
1.20067	-65
1.20433	-71
1.20800	-75
1.21167	-73
1.21533	-68
1.21900	-66
1.22267	-66
1.22633	-68
1.23000	-70
1.23367	-71
1.23733	-70
1.24100	-68
1.24467	-66
1.24833	-65
1.25200	-61
1.25567	-57
1.25933	-53
1.26300	-50
1.26667	-50
1.27033	-51
1.27400	-52
1.27767	-56
1.28133	-62
1.28500	-70
1.28867	-79
1.29233	-87
1.29600	-92
1.29967	-93
1.30333	-93
1.30700	-87
1.31067	-77
1.31433	-70
1.31800	-64
1.32167	-62
1.32533	-64
1.32900	-70
1.33267	-79
1.33633	-87
1.34000	-94
1.34367	-98
1.34733	-98
1.35100	-96
1.35467	-95
1.35833	-93
1.36200	-91
1.36567	-89
1.36933	-85
1.37300	-78
1.37667	-71
1.38033	-69
1.38400	-73
1.38767	-78
1.39133	-83
1.39500	-85
1.39867	-86
1.40233	-85
1.40600	-84
1.40967	-84
1.41333	-84
1.41700	-85
1.42067	-87
1.42433	-91
1.42800	-93
1.43167	-86
1.43533	-65
1.43900	-24
1.44267	32
1.44633	148
1.45000	409
1.45367	798
1.45733	1221
1.46100	1596
1.46467	1887
1.46833	2076
1.47200	2132
1.47567	2030
1.47933	1783
1.48300	1450
1.48667	1103
1.49033	791
1.49400	536
1.49767	344
1.50133	207
1.50500	111
1.50867	42
1.51233	-4
1.51600	-35
1.51967	-58
1.52333	-76
1.52700	-85
1.53067	-81
1.53433	-31
1.53800	123
1.54167	427
1.54533	855
1.54900	1311
1.55267	1711
1.55633	2013
1.56000	2188
1.56367	2205
1.56733	2044
1.57100	1738
1.57467	1359
1.57833	985
1.58200	666
1.58567	420
1.58933	243
1.59300	122
1.59667	40
1.60033	-14
1.60400	-49
1.60767	-70
1.61133	-79
1.61500	-82
1.61867	-84
1.62233	-85
1.62600	-88
1.62967	-90
1.63333	-93
1.63700	-99
1.64067	-105
1.64433	-112
1.64800	-117
1.65167	-120
1.65533	-122
1.65900	-126
1.66267	-132
1.66633	-139
1.67000	-145
1.67367	-147
1.67733	-144
1.68100	-139
1.68467	-135
1.68833	-132
1.69200	-131
1.69567	-132
1.69933	-134
1.70300	-131
1.70667	-128
1.71033	-127
1.71400	-128
1.71767	-125
1.72133	-118
1.72500	-111
1.72867	-108
1.73233	-106
1.73600	-106
1.73967	-107
1.74333	-108
1.74700	-109
1.75067	-113
1.75433	-116
1.75800	-118
1.76167	-118
1.76533	-121
1.76900	-124
1.77267	-126
1.77633	-128
1.78000	-130
1.78367	-132
1.78733	-131
1.79100	-130
1.79467	-130
1.79833	-129
1.80200	-127
1.80567	-124
1.80933	-122
1.81300	-121
1.81667	-121
1.82033	-121
1.82400	-121
1.82767	-120
1.83133	-119
1.83500	-119
1.83867	-121
1.84233	-123
1.84600	-126
1.84967	-127
1.85333	-126
1.85700	-122
1.86067	-120
1.86433	-122
1.86800	-125
1.87167	-124
1.87533	-121
1.87900	-117
1.88267	-118
1.88633	-122
1.89000	-127
1.89367	-131
1.89733	-133
1.90100	-136
1.90467	-137
1.90833	-136
1.91200	-134
1.91567	-130
1.91933	-127
1.92300	-126
1.92667	-128
1.93033	-133
1.93400	-135
1.93767	-133
1.94133	-127
1.94500	-108
1.94867	1
1.95233	602
1.95600	3248
1.95967	12118
1.96333	34869
1.96700	80279
1.97067	152159
1.97433	243964
1.97800	340644
1.98167	425206
1.98533	484009
1.98900	508338
1.99267	495198
1.99633	448797
2.00000	380054
2.00367	302932
2.00733	229567
2.01100	167343
2.01467	118733
2.01833	82914
2.02200	57558
2.02567	40077
2.02933	28213
2.03300	20219
2.03667	14833
2.04033	11184
2.04400	8684
2.04767	6939
2.05133	5696
2.05500	4782
2.05867	4091
2.06233	3557
2.06600	3138
2.06967	2802
2.07333	2526
2.07700	2297
2.08067	2104
2.08433	1937
2.08800	1797
2.09167	1675
2.09533	1571
2.09900	1476
2.10267	1390
2.10633	1310
2.11000	1236
2.11367	1171
2.11733	1110
2.12100	1050
2.12467	992
2.12833	937
2.13200	888
2.13567	845
2.13933	807
2.14300	772
2.14667	742
2.15033	712
2.15400	682
2.15767	651
2.16133	620
2.16500	593
2.16867	569
2.17233	548
2.17600	528
2.17967	506
2.18333	486
2.18700	471
2.19067	459
2.19433	444
2.19800	426
2.20167	412
2.20533	401
2.20900	392
2.21267	383
2.21633	375
2.22000	369
2.22367	361
2.22733	353
2.23100	346
2.23467	338
2.23833	327
2.24200	316
2.24567	303
2.24933	290
2.25300	277
2.25667	267
2.26033	262
2.26400	257
2.26767	248
2.27133	237
2.27500	226
2.27867	218
2.28233	209
2.28600	204
2.28967	199
2.29333	194
2.29700	192
2.30067	190
2.30433	189
2.30800	192
2.31167	195
2.31533	194
2.31900	189
2.32267	188
2.32633	187
2.33000	185
2.33367	183
2.33733	178
2.34100	172
2.34467	166
2.34833	164
2.35200	164
2.35567	164
2.35933	163
2.36300	161
2.36667	158
2.37033	152
2.37400	146
2.37767	142
2.38133	140
2.38500	137
2.38867	129
2.39233	122
2.39600	116
2.39967	111
2.40333	109
2.40700	107
2.41067	106
2.41433	108
2.41800	112
2.42167	118
2.42533	124
2.42900	128
2.43267	129
2.43633	127
2.44000	125
2.44367	126
2.44733	127
2.45100	128
2.45467	128
2.45833	127
2.46200	119
2.46567	107
2.46933	91
2.47300	76
2.47667	66
2.48033	59
2.48400	57
2.48767	60
2.49133	65
2.49500	72
2.49867	80
2.50233	86
2.50600	87
2.50967	87
2.51333	85
2.51700	83
2.52067	83
2.52433	86
2.52800	90
2.53167	92
2.53533	89
2.53900	85
2.54267	82
2.54633	84
2.55000	86
2.55367	84
2.55733	80
2.56100	73
2.56467	70
2.56833	71
2.57200	77
2.57567	82
2.57933	85
2.58300	85
2.58667	85
2.59033	85
2.59400	85
2.59767	82
2.60133	78
2.60500	79
2.60867	81
2.61233	81
2.61600	78
2.61967	71
2.62333	65
2.62700	60
2.63067	55
2.63433	46
2.63800	38
2.64167	33
2.64533	34
2.64900	40
2.65267	48
2.65633	55
2.66000	59
2.66367	60
2.66733	60
2.67100	64
2.67467	69
2.67833	71
2.68200	71
2.68567	68
2.68933	67
2.69300	70
2.69667	74
2.70033	76
2.70400	76
2.70767	76
2.71133	75
2.71500	75
2.71867	75
2.72233	73
2.72600	68
2.72967	62
2.73333	59
2.73700	59
2.74067	58
2.74433	59
2.74800	62
2.75167	67
2.75533	70
2.75900	72
2.76267	75
2.76633	76
2.77000	76
2.77367	75
2.77733	74
2.78100	70
2.78467	66
2.78833	63
2.79200	64
2.79567	68
2.79933	71
2.80300	74
2.80667	76
2.81033	77
2.81400	76
2.81767	72
2.82133	67
2.82500	64
2.82867	63
2.83233	66
2.83600	74
2.83967	83
2.84333	90
2.84700	91
2.85067	88
2.85433	81
2.85800	72
2.86167	63
2.86533	61
2.86900	64
2.87267	70
2.87633	74
2.88000	76
2.88367	74
2.88733	70
2.89100	64
2.89467	60
2.89833	58
2.90200	59
2.90567	62
2.90933	66
2.91300	69
2.91667	70
2.92033	69
2.92400	69
2.92767	70
2.93133	76
2.93500	82
2.93867	85
2.94233	85
2.94600	84
2.94967	86
2.95333	88
2.95700	89
2.96067	86
2.96433	84
2.96800	84
2.97167	87
2.97533	85
2.97900	80
2.98267	77
2.98633	77
2.99000	77
2.99367	77
2.99733	79
3.00100	85
3.00467	93
3.00833	101
3.01200	107
3.01567	109
3.01933	106
3.02300	98
3.02667	91
3.03033	84
3.03400	78
3.03767	77
3.04133	82
3.04500	89
3.04867	89
3.05233	86
3.05600	82
3.05967	76
3.06333	71
3.06700	66
3.07067	66
3.07433	69
3.07800	75
3.08167	82
3.08533	86
3.08900	85
3.09267	79
3.09633	72
3.10000	64
3.10367	62
3.10733	63
3.11100	66
3.11467	67
3.11833	66
3.12200	65
3.12567	68
3.12933	71
3.13300	72
3.13667	71
3.14033	68
3.14400	66
3.14767	64
3.15133	59
3.15500	52
3.15867	45
3.16233	40
3.16600	44
3.16967	52
3.17333	63
3.17700	72
3.18067	76
3.18433	73
3.18800	70
3.19167	69
3.19533	69
3.19900	71
3.20267	72
3.20633	76
3.21000	80
3.21367	82
3.21733	81
3.22100	80
3.22467	75
3.22833	69
3.23200	65
3.23567	64
3.23933	62
3.24300	61
3.24667	62
3.25033	62
3.25400	59
3.25767	55
3.26133	54
3.26500	58
3.26867	62
3.27233	63
3.27600	63
3.27967	65
3.28333	67
3.28700	68
3.29067	68
3.29433	68
3.29800	67
3.30167	68
3.30533	73
3.30900	79
3.31267	82
3.31633	80
3.32000	77
3.32367	73
3.32733	71
3.33100	70
3.33467	68
3.33833	63
3.34200	57
3.34567	51
3.34933	46
3.35300	44
3.35667	44
3.36033	46
3.36400	51
3.36767	54
3.37133	55
3.37500	56
3.37867	58
3.38233	58
3.38600	58
3.38967	63
3.39333	68
3.39700	68
3.40067	66
3.40433	71
3.40800	76
3.41167	75
3.41533	70
3.41900	62
3.42267	54
3.42633	45
3.43000	37
3.43367	32
3.43733	33
3.44100	34
3.44467	35
3.44833	37
3.45200	40
3.45567	45
3.45933	52
3.46300	60
3.46667	66
3.47033	68
3.47400	62
3.47767	53
3.48133	44
3.48500	38
3.48867	33
3.49233	28
3.49600	27
3.49967	31
3.50333	37
3.50700	45
3.51067	51
3.51433	56
3.51800	57
3.52167	56
3.52533	52
3.52900	48
3.53267	44
3.53633	40
3.54000	35
3.54367	26
3.54733	22
3.55100	21
3.55467	23
3.55833	27
3.56200	32
3.56567	35
3.56933	36
3.57300	36
3.57667	37
3.58033	39
3.58400	43
3.58767	48
3.59133	52
3.59500	55
3.59867	54
3.60233	48
3.60600	42
3.60967	36
3.61333	32
3.61700	30
3.62067	32
3.62433	32
3.62800	32
3.63167	32
3.63533	32
3.63900	32
3.64267	30
3.64633	25
3.65000	21
3.65367	21
3.65733	25
3.66100	29
3.66467	29
3.66833	27
3.67200	28
3.67567	31
3.67933	34
3.68300	35
3.68667	31
3.69033	24
3.69400	20
3.69767	21
3.70133	25
3.70500	28
3.70867	25
3.71233	21
3.71600	16
3.71967	11
3.72333	10
3.72700	14
3.73067	20
3.73433	27
3.73800	30
3.74167	30
3.74533	30
3.74900	29
3.75267	29
3.75633	25
3.76000	20
3.76367	17
3.76733	18
3.77100	23
3.77467	31
3.77833	37
3.78200	36
3.78567	31
3.78933	26
3.79300	24
3.79667	24
3.80033	25
3.80400	27
3.80767	27
3.81133	25
3.81500	23
3.81867	22
3.82233	20
3.82600	15
3.82967	10
3.83333	12
3.83700	18
3.84067	22
3.84433	22
3.84800	20
3.85167	18
3.85533	20
3.85900	23
3.86267	22
3.86633	17
3.87000	11
3.87367	7
3.87733	7
3.88100	12
3.88467	16
3.88833	19
3.89200	21
3.89567	21
3.89933	20
3.90300	18
3.90667	17
3.91033	20
3.91400	25
3.91767	28
3.92133	27
3.92500	22
3.92867	16
3.93233	12
3.93600	11
3.93967	11
3.94333	11
3.94700	12
3.95067	14
3.95433	17
3.95800	20
3.96167	23
3.96533	26
3.96900	30
3.97267	35
3.97633	40
3.98000	40
3.98367	36
3.98733	33
3.99100	32
3.99467	33
3.99833	34

[Chromatogram (Ch2)]
Interval(msec)	220
# of Points	1091
Start Time(min)	0.002
End Time(min)	3.998
R.Time (min)	Intensity
0.00167	0
0.00533	0
0.00900	0
0.01267	1
0.01633	1
0.02000	0
0.02367	0
0.02733	0
0.03100	0
0.03467	0
0.03833	0
0.04200	0
0.04567	-0
0.04933	-0
0.05300	-0
0.05667	-0
0.06033	-0
0.06400	-0
0.06767	-0
0.07133	-0
0.07500	0
0.07867	0
0.08233	1
0.08600	1
0.08967	1
0.09333	1
0.09700	1
0.10067	1
0.10433	2
0.10800	2
0.11167	2
0.11533	2
0.11900	2
0.12267	2
0.12633	2
0.13000	2
0.13367	2
0.13733	2
0.14100	2
0.14467	2
0.14833	2
0.15200	2
0.15567	2
0.15933	2
0.16300	1
0.16667	1
0.17033	0
0.17400	0
0.17767	0
0.18133	-0
0.18500	-0
0.18867	-1
0.19233	-1
0.19600	-1
0.19967	-1
0.20333	-1
0.20700	-1
0.21067	-1
0.21433	-1
0.21800	-0
0.22167	-0
0.22533	-0
0.22900	-0
0.23267	-0
0.23633	0
0.24000	0
0.24367	1
0.24733	1
0.25100	1
0.25467	0
0.25833	0
0.26200	0
0.26567	-0
0.26933	-0
0.27300	-0
0.27667	-0
0.28033	-0
0.28400	-0
0.28767	-0
0.29133	-0
0.29500	-1
0.29867	-1
0.30233	-2
0.30600	-2
0.30967	-2
0.31333	-3
0.31700	-3
0.32067	-3
0.32433	-3
0.32800	-3
0.33167	-3
0.33533	-3
0.33900	-3
0.34267	-3
0.34633	-3
0.35000	-2
0.35367	-2
0.35733	-2
0.36100	-1
0.36467	-1
0.36833	-1
0.37200	-1
0.37567	-1
0.37933	-1
0.38300	-1
0.38667	-1
0.39033	-1
0.39400	-1
0.39767	-0
0.40133	-0
0.40500	-0
0.40867	-0
0.41233	-0
0.41600	-1
0.41967	-0
0.42333	-0
0.42700	-0
0.43067	-0
0.43433	0
0.43800	0
0.44167	0
0.44533	0
0.44900	0
0.45267	1
0.45633	1
0.46000	1
0.46367	1
0.46733	1
0.47100	2
0.47467	2
0.47833	2
0.48200	2
0.48567	1
0.48933	1
0.49300	1
0.49667	1
0.50033	1
0.50400	1
0.50767	1
0.51133	0
0.51500	0
0.51867	-0
0.52233	-0
0.52600	-0
0.52967	-0
0.53333	-1
0.53700	-1
0.54067	-1
0.54433	-1
0.54800	-1
0.55167	-1
0.55533	-1
0.55900	-1
0.56267	-1
0.56633	-2
0.57000	-2
0.57367	-2
0.57733	-2
0.58100	-3
0.58467	-3
0.58833	-3
0.59200	-3
0.59567	-3
0.59933	-3
0.60300	-3
0.60667	-3
0.61033	-3
0.61400	-2
0.61767	-2
0.62133	-2
0.62500	-2
0.62867	-2
0.63233	-2
0.63600	-2
0.63967	-2
0.64333	-1
0.64700	-1
0.65067	-1
0.65433	-1
0.65800	-1
0.66167	-1
0.66533	-1
0.66900	-1
0.67267	-1
0.67633	-1
0.68000	-2
0.68367	-2
0.68733	-2
0.69100	-2
0.69467	-2
0.69833	-2
0.70200	-2
0.70567	-2
0.70933	-2
0.71300	-2
0.71667	-2
0.72033	-3
0.72400	-3
0.72767	-3
0.73133	-2
0.73500	-2
0.73867	-2
0.74233	-2
0.74600	-2
0.74967	-2
0.75333	-2
0.75700	-1
0.76067	-1
0.76433	-1
0.76800	-0
0.77167	-0
0.77533	0
0.77900	0
0.78267	-0
0.78633	-0
0.79000	-1
0.79367	-1
0.79733	-1
0.80100	-1
0.80467	-0
0.80833	-1
0.81200	-1
0.81567	-1
0.81933	-1
0.82300	-1
0.82667	-1
0.83033	-1
0.83400	-1
0.83767	-1
0.84133	-1
0.84500	-1
0.84867	-1
0.85233	-1
0.85600	-1
0.85967	-1
0.86333	-2
0.86700	-3
0.87067	-3
0.87433	-3
0.87800	-3
0.88167	-3
0.88533	-3
0.88900	-3
0.89267	-3
0.89633	-2
0.90000	-2
0.90367	-2
0.90733	-1
0.91100	-1
0.91467	-1
0.91833	-0
0.92200	-0
0.92567	-0
0.92933	-1
0.93300	-1
0.93667	-1
0.94033	-1
0.94400	-1
0.94767	-2
0.95133	-2
0.95500	-2
0.95867	-2
0.96233	-2
0.96600	-2
0.96967	-2
0.97333	-2
0.97700	-3
0.98067	-3
0.98433	-3
0.98800	-3
0.99167	-3
0.99533	-3
0.99900	-3
1.00267	-3
1.00633	-3
1.01000	-3
1.01367	-3
1.01733	-3
1.02100	-3
1.02467	-3
1.02833	-3
1.03200	-3
1.03567	-4
1.03933	-4
1.04300	-4
1.04667	-4
1.05033	-3
1.05400	-3
1.05767	-3
1.06133	-3
1.06500	-3
1.06867	-3
1.07233	-3
1.07600	-3
1.07967	-2
1.08333	-2
1.08700	-2
1.09067	-2
1.09433	-1
1.09800	-1
1.10167	-1
1.10533	-1
1.10900	-1
1.11267	-1
1.11633	-1
1.12000	-1
1.12367	-1
1.12733	-2
1.13100	-2
1.13467	-2
1.13833	-2
1.14200	-1
1.14567	-1
1.14933	-1
1.15300	-1
1.15667	-1
1.16033	-1
1.16400	-0
1.16767	0
1.17133	0
1.17500	0
1.17867	0
1.18233	0
1.18600	0
1.18967	-0
1.19333	-0
1.19700	-0
1.20067	-0
1.20433	-0
1.20800	-0
1.21167	-1
1.21533	-1
1.21900	-1
1.22267	-2
1.22633	-2
1.23000	-3
1.23367	-3
1.23733	-4
1.24100	-4
1.24467	-4
1.24833	-4
1.25200	-4
1.25567	-5
1.25933	-5
1.26300	-5
1.26667	-5
1.27033	-5
1.27400	-5
1.27767	-5
1.28133	-5
1.28500	-4
1.28867	-4
1.29233	-4
1.29600	-4
1.29967	-4
1.30333	-4
1.30700	-4
1.31067	-4
1.31433	-4
1.31800	-4
1.32167	-4
1.32533	-3
1.32900	-3
1.33267	-3
1.33633	-3
1.34000	-2
1.34367	-2
1.34733	-2
1.35100	-2
1.35467	-1
1.35833	-1
1.36200	-1
1.36567	-0
1.36933	0
1.37300	0
1.37667	0
1.38033	0
1.38400	0
1.38767	0
1.39133	0
1.39500	0
1.39867	0
1.40233	-0
1.40600	-0
1.40967	-0
1.41333	-0
1.41700	-0
1.42067	-0
1.42433	-0
1.42800	-0
1.43167	-0
1.43533	-1
1.43900	-1
1.44267	-1
1.44633	-1
1.45000	-2
1.45367	-2
1.45733	-2
1.46100	-2
1.46467	-2
1.46833	-2
1.47200	-3
1.47567	-3
1.47933	-4
1.48300	-4
1.48667	-5
1.49033	-5
1.49400	-5
1.49767	-5
1.50133	-5
1.50500	-5
1.50867	-5
1.51233	-6
1.51600	-6
1.51967	-6
1.52333	-5
1.52700	-5
1.53067	-5
1.53433	-5
1.53800	-4
1.54167	-4
1.54533	-4
1.54900	-4
1.55267	-3
1.55633	-4
1.56000	-4
1.56367	-3
1.56733	-3
1.57100	-3
1.57467	-3
1.57833	-3
1.58200	-3
1.58567	-3
1.58933	-4
1.59300	-4
1.59667	-4
1.60033	-5
1.60400	-6
1.60767	-7
1.61133	-8
1.61500	-10
1.61867	-12
1.62233	-14
1.62600	-17
1.62967	-20
1.63333	-22
1.63700	-25
1.64067	-28
1.64433	-31
1.64800	-35
1.65167	-38
1.65533	-42
1.65900	-45
1.66267	-49
1.66633	-53
1.67000	-58
1.67367	-62
1.67733	-67
1.68100	-72
1.68467	-77
1.68833	-81
1.69200	-85
1.69567	-88
1.69933	-91
1.70300	-93
1.70667	-95
1.71033	-96
1.71400	-98
1.71767	-99
1.72133	-100
1.72500	-100
1.72867	-101
1.73233	-101
1.73600	-101
1.73967	-101
1.74333	-101
1.74700	-102
1.75067	-102
1.75433	-102
1.75800	-102
1.76167	-101
1.76533	-101
1.76900	-102
1.77267	-102
1.77633	-103
1.78000	-103
1.78367	-104
1.78733	-105
1.79100	-105
1.79467	-106
1.79833	-106
1.80200	-106
1.80567	-106
1.80933	-105
1.81300	-105
1.81667	-104
1.82033	-104
1.82400	-104
1.82767	-104
1.83133	-104
1.83500	-104
1.83867	-105
1.84233	-105
1.84600	-105
1.84967	-105
1.85333	-105
1.85700	-105
1.86067	-105
1.86433	-105
1.86800	-105
1.87167	-105
1.87533	-105
1.87900	-105
1.88267	-105
1.88633	-105
1.89000	-105
1.89367	-106
1.89733	-106
1.90100	-106
1.90467	-106
1.90833	-106
1.91200	-105
1.91567	-105
1.91933	-105
1.92300	-105
1.92667	-105
1.93033	-105
1.93400	-104
1.93767	-104
1.94133	-104
1.94500	-103
1.94867	-103
1.95233	-103
1.95600	-102
1.95967	-102
1.96333	-101
1.96700	-101
1.97067	-101
1.97433	-100
1.97800	-100
1.98167	-99
1.98533	-99
1.98900	-99
1.99267	-99
1.99633	-98
2.00000	-98
2.00367	-98
2.00733	-97
2.01100	-97
2.01467	-97
2.01833	-97
2.02200	-96
2.02567	-96
2.02933	-96
2.03300	-95
2.03667	-95
2.04033	-95
2.04400	-94
2.04767	-94
2.05133	-94
2.05500	-93
2.05867	-93
2.06233	-93
2.06600	-92
2.06967	-93
2.07333	-93
2.07700	-94
2.08067	-94
2.08433	-94
2.08800	-94
2.09167	-94
2.09533	-93
2.09900	-92
2.10267	-91
2.10633	-90
2.11000	-89
2.11367	-89
2.11733	-89
2.12100	-88
2.12467	-88
2.12833	-89
2.13200	-89
2.13567	-90
2.13933	-90
2.14300	-90
2.14667	-90
2.15033	-90
2.15400	-89
2.15767	-89
2.16133	-88
2.16500	-88
2.16867	-87
2.17233	-87
2.17600	-86
2.17967	-85
2.18333	-85
2.18700	-84
2.19067	-83
2.19433	-84
2.19800	-84
2.20167	-84
2.20533	-85
2.20900	-85
2.21267	-84
2.21633	-84
2.22000	-83
2.22367	-82
2.22733	-81
2.23100	-81
2.23467	-81
2.23833	-81
2.24200	-81
2.24567	-81
2.24933	-81
2.25300	-80
2.25667	-80
2.26033	-79
2.26400	-79
2.26767	-79
2.27133	-79
2.27500	-79
2.27867	-79
2.28233	-78
2.28600	-78
2.28967	-77
2.29333	-76
2.29700	-76
2.30067	-75
2.30433	-74
2.30800	-73
2.31167	-73
2.31533	-74
2.31900	-74
2.32267	-74
2.32633	-74
2.33000	-74
2.33367	-74
2.33733	-73
2.34100	-73
2.34467	-72
2.34833	-72
2.35200	-71
2.35567	-70
2.35933	-68
2.36300	-66
2.36667	-64
2.37033	-62
2.37400	-59
2.37767	-56
2.38133	-53
2.38500	-49
2.38867	-45
2.39233	-41
2.39600	-37
2.39967	-33
2.40333	-28
2.40700	-24
2.41067	-20
2.41433	-16
2.41800	-13
2.42167	-10
2.42533	-8
2.42900	-6
2.43267	-4
2.43633	-3
2.44000	-1
2.44367	1
2.44733	2
2.45100	4
2.45467	5
2.45833	6
2.46200	6
2.46567	7
2.46933	7
2.47300	8
2.47667	8
2.48033	9
2.48400	9
2.48767	10
2.49133	10
2.49500	11
2.49867	11
2.50233	12
2.50600	12
2.50967	12
2.51333	12
2.51700	12
2.52067	12
2.52433	11
2.52800	11
2.53167	11
2.53533	11
2.53900	11
2.54267	12
2.54633	12
2.55000	11
2.55367	11
2.55733	11
2.56100	12
2.56467	12
2.56833	13
2.57200	13
2.57567	13
2.57933	14
2.58300	14
2.58667	14
2.59033	14
2.59400	15
2.59767	15
2.60133	15
2.60500	16
2.60867	16
2.61233	16
2.61600	16
2.61967	17
2.62333	17
2.62700	17
2.63067	17
2.63433	18
2.63800	18
2.64167	19
2.64533	19
2.64900	19
2.65267	19
2.65633	19
2.66000	19
2.66367	19
2.66733	20
2.67100	20
2.67467	21
2.67833	21
2.68200	22
2.68567	23
2.68933	23
2.69300	23
2.69667	23
2.70033	23
2.70400	23
2.70767	23
2.71133	23
2.71500	23
2.71867	23
2.72233	23
2.72600	23
2.72967	23
2.73333	23
2.73700	23
2.74067	23
2.74433	24
2.74800	24
2.75167	25
2.75533	26
2.75900	26
2.76267	27
2.76633	28
2.77000	28
2.77367	29
2.77733	29
2.78100	29
2.78467	29
2.78833	29
2.79200	29
2.79567	28
2.79933	28
2.80300	27
2.80667	27
2.81033	27
2.81400	27
2.81767	26
2.82133	26
2.82500	26
2.82867	25
2.83233	25
2.83600	25
2.83967	25
2.84333	25
2.84700	25
2.85067	25
2.85433	25
2.85800	25
2.86167	24
2.86533	21
2.86900	16
2.87267	9
2.87633	-3
2.88000	-18
2.88367	-39
2.88733	-65
2.89100	-96
2.89467	-132
2.89833	-173
2.90200	-219
2.90567	-268
2.90933	-322
2.91300	-378
2.91667	-437
2.92033	-498
2.92400	-560
2.92767	-622
2.93133	-683
2.93500	-743
2.93867	-801
2.94233	-855
2.94600	-907
2.94967	-961
2.95333	-1017
2.95700	-1068
2.96067	-1102
2.96433	-1113
2.96800	-1099
2.97167	-1061
2.97533	-1004
2.97900	-935
2.98267	-857
2.98633	-776
2.99000	-696
2.99367	-618
2.99733	-545
3.00100	-477
3.00467	-415
3.00833	-360
3.01200	-310
3.01567	-267
3.01933	-228
3.02300	-195
3.02667	-166
3.03033	-140
3.03400	-118
3.03767	-100
3.04133	-83
3.04500	-70
3.04867	-58
3.05233	-47
3.05600	-39
3.05967	-31
3.06333	-25
3.06700	-19
3.07067	-14
3.07433	-10
3.07800	-7
3.08167	-4
3.08533	-1
3.08900	1
3.09267	3
3.09633	5
3.10000	7
3.10367	9
3.10733	10
3.11100	11
3.11467	12
3.11833	13
3.12200	14
3.12567	15
3.12933	15
3.13300	16
3.13667	16
3.14033	16
3.14400	16
3.14767	17
3.15133	17
3.15500	18
3.15867	18
3.16233	19
3.16600	20
3.16967	20
3.17333	20
3.17700	20
3.18067	20
3.18433	20
3.18800	20
3.19167	20
3.19533	20
3.19900	20
3.20267	20
3.20633	20
3.21000	20
3.21367	20
3.21733	20
3.22100	21
3.22467	21
3.22833	21
3.23200	21
3.23567	22
3.23933	22
3.24300	22
3.24667	22
3.25033	22
3.25400	22
3.25767	22
3.26133	22
3.26500	22
3.26867	22
3.27233	22
3.27600	23
3.27967	23
3.28333	23
3.28700	24
3.29067	24
3.29433	24
3.29800	25
3.30167	25
3.30533	25
3.30900	25
3.31267	25
3.31633	24
3.32000	24
3.32367	24
3.32733	24
3.33100	24
3.33467	24
3.33833	24
3.34200	24
3.34567	24
3.34933	24
3.35300	24
3.35667	24
3.36033	25
3.36400	25
3.36767	25
3.37133	25
3.37500	25
3.37867	26
3.38233	26
3.38600	26
3.38967	26
3.39333	27
3.39700	27
3.40067	27
3.40433	27
3.40800	27
3.41167	27
3.41533	27
3.41900	27
3.42267	26
3.42633	26
3.43000	26
3.43367	26
3.43733	25
3.44100	25
3.44467	25
3.44833	24
3.45200	24
3.45567	24
3.45933	24
3.46300	25
3.46667	25
3.47033	26
3.47400	26
3.47767	26
3.48133	26
3.48500	27
3.48867	27
3.49233	27
3.49600	28
3.49967	28
3.50333	28
3.50700	29
3.51067	29
3.51433	29
3.51800	29
3.52167	29
3.52533	29
3.52900	29
3.53267	29
3.53633	29
3.54000	28
3.54367	28
3.54733	29
3.55100	29
3.55467	29
3.55833	29
3.56200	29
3.56567	29
3.56933	29
3.57300	29
3.57667	29
3.58033	29
3.58400	29
3.58767	29
3.59133	29
3.59500	29
3.59867	29
3.60233	29
3.60600	29
3.60967	29
3.61333	28
3.61700	28
3.62067	28
3.62433	28
3.62800	28
3.63167	28
3.63533	29
3.63900	29
3.64267	29
3.64633	29
3.65000	29
3.65367	29
3.65733	29
3.66100	29
3.66467	29
3.66833	28
3.67200	28
3.67567	28
3.67933	28
3.68300	28
3.68667	28
3.69033	28
3.69400	28
3.69767	28
3.70133	28
3.70500	28
3.70867	28
3.71233	29
3.71600	29
3.71967	29
3.72333	29
3.72700	29
3.73067	28
3.73433	28
3.73800	28
3.74167	28
3.74533	28
3.74900	28
3.75267	28
3.75633	28
3.76000	28
3.76367	28
3.76733	28
3.77100	27
3.77467	27
3.77833	27
3.78200	27
3.78567	27
3.78933	26
3.79300	26
3.79667	26
3.80033	26
3.80400	26
3.80767	26
3.81133	26
3.81500	25
3.81867	25
3.82233	25
3.82600	26
3.82967	25
3.83333	25
3.83700	25
3.84067	25
3.84433	25
3.84800	25
3.85167	25
3.85533	25
3.85900	25
3.86267	25
3.86633	25
3.87000	25
3.87367	25
3.87733	25
3.88100	25
3.88467	26
3.88833	26
3.89200	26
3.89567	26
3.89933	27
3.90300	27
3.90667	27
3.91033	27
3.91400	27
3.91767	28
3.92133	28
3.92500	28
3.92867	28
3.93233	28
3.93600	28
3.93967	28
3.94333	28
3.94700	28
3.95067	28
3.95433	27
3.95800	27
3.96167	28
3.96533	27
3.96900	28
3.97267	28
3.97633	28
3.98000	28
3.98367	28
3.98733	28
3.99100	28
3.99467	28
3.99833	28

[Chromatogram (Ch3)]
Interval(msec)	220
# of Points	1091
Start Time(min)	0.002
End Time(min)	3.998
R.Time (min)	Intensity
0.00167	0
0.00533	-0
0.00900	-2
0.01267	-3
0.01633	-4
0.02000	-3
0.02367	-2
0.02733	-1
0.03100	-2
0.03467	-4
0.03833	-5
0.04200	-4
0.04567	-4
0.04933	-4
0.05300	-5
0.05667	-6
0.06033	-5
0.06400	-5
0.06767	-5
0.07133	-4
0.07500	-3
0.07867	-4
0.08233	-4
0.08600	-2
0.08967	-1
0.09333	-2
0.09700	-1
0.10067	1
0.10433	1
0.10800	1
0.11167	2
0.11533	2
0.11900	0
0.12267	-2
0.12633	-1
0.13000	2
0.13367	5
0.13733	6
0.14100	5
0.14467	4
0.14833	2
0.15200	1
0.15567	0
0.15933	-2
0.16300	-1
0.16667	0
0.17033	4
0.17400	5
0.17767	6
0.18133	7
0.18500	8
0.18867	10
0.19233	10
0.19600	7
0.19967	5
0.20333	4
0.20700	2
0.21067	3
0.21433	4
0.21800	5
0.22167	5
0.22533	4
0.22900	5
0.23267	5
0.23633	4
0.24000	5
0.24367	6
0.24733	5
0.25100	4
0.25467	4
0.25833	5
0.26200	7
0.26567	9
0.26933	12
0.27300	14
0.27667	13
0.28033	11
0.28400	10
0.28767	11
0.29133	12
0.29500	10
0.29867	8
0.30233	6
0.30600	4
0.30967	2
0.31333	1
0.31700	2
0.32067	2
0.32433	2
0.32800	2
0.33167	1
0.33533	2
0.33900	5
0.34267	7
0.34633	8
0.35000	8
0.35367	5
0.35733	4
0.36100	5
0.36467	5
0.36833	6
0.37200	9
0.37567	11
0.37933	9
0.38300	8
0.38667	9
0.39033	9
0.39400	11
0.39767	9
0.40133	7
0.40500	6
0.40867	4
0.41233	3
0.41600	3
0.41967	1
0.42333	2
0.42700	5
0.43067	8
0.43433	8
0.43800	7
0.44167	5
0.44533	7
0.44900	9
0.45267	11
0.45633	11
0.46000	10
0.46367	11
0.46733	11
0.47100	10
0.47467	11
0.47833	10
0.48200	8
0.48567	8
0.48933	8
0.49300	7
0.49667	8
0.50033	8
0.50400	9
0.50767	10
0.51133	10
0.51500	10
0.51867	11
0.52233	13
0.52600	13
0.52967	12
0.53333	9
0.53700	6
0.54067	8
0.54433	9
0.54800	10
0.55167	12
0.55533	12
0.55900	12
0.56267	11
0.56633	10
0.57000	12
0.57367	12
0.57733	12
0.58100	12
0.58467	11
0.58833	11
0.59200	11
0.59567	10
0.59933	10
0.60300	11
0.60667	11
0.61033	12
0.61400	14
0.61767	12
0.62133	9
0.62500	6
0.62867	6
0.63233	7
0.63600	7
0.63967	5
0.64333	5
0.64700	8
0.65067	9
0.65433	10
0.65800	13
0.66167	14
0.66533	12
0.66900	13
0.67267	14
0.67633	14
0.68000	12
0.68367	9
0.68733	8
0.69100	10
0.69467	11
0.69833	13
0.70200	12
0.70567	11
0.70933	11
0.71300	11
0.71667	12
0.72033	15
0.72400	17
0.72767	18
0.73133	16
0.73500	15
0.73867	13
0.74233	12
0.74600	13
0.74967	13
0.75333	13
0.75700	11
0.76067	10
0.76433	11
0.76800	12
0.77167	13
0.77533	14
0.77900	14
0.78267	14
0.78633	15
0.79000	16
0.79367	16
0.79733	15
0.80100	15
0.80467	18
0.80833	18
0.81200	16
0.81567	13
0.81933	12
0.82300	11
0.82667	13
0.83033	13
0.83400	12
0.83767	10
0.84133	10
0.84500	10
0.84867	9
0.85233	8
0.85600	6
0.85967	7
0.86333	9
0.86700	12
0.87067	15
0.87433	16
0.87800	16
0.88167	16
0.88533	15
0.88900	15
0.89267	14
0.89633	11
0.90000	10
0.90367	9
0.90733	11
0.91100	13
0.91467	14
0.91833	14
0.92200	13
0.92567	12
0.92933	13
0.93300	14
0.93667	13
0.94033	12
0.94400	13
0.94767	12
0.95133	10
0.95500	9
0.95867	8
0.96233	7
0.96600	10
0.96967	13
0.97333	13
0.97700	13
0.98067	12
0.98433	12
0.98800	11
0.99167	12
0.99533	14
0.99900	16
1.00267	17
1.00633	17
1.01000	17
1.01367	15
1.01733	14
1.02100	15
1.02467	16
1.02833	16
1.03200	15
1.03567	15
1.03933	14
1.04300	14
1.04667	15
1.05033	12
1.05400	12
1.05767	11
1.06133	12
1.06500	14
1.06867	15
1.07233	14
1.07600	12
1.07967	12
1.08333	13
1.08700	15
1.09067	17
1.09433	19
1.09800	19
1.10167	19
1.10533	17
1.10900	15
1.11267	14
1.11633	14
1.12000	14
1.12367	17
1.12733	17
1.13100	17
1.13467	17
1.13833	16
1.14200	14
1.14567	14
1.14933	13
1.15300	13
1.15667	13
1.16033	11
1.16400	12
1.16767	14
1.17133	12
1.17500	12
1.17867	13
1.18233	12
1.18600	12
1.18967	13
1.19333	13
1.19700	13
1.20067	14
1.20433	15
1.20800	15
1.21167	14
1.21533	12
1.21900	11
1.22267	11
1.22633	13
1.23000	12
1.23367	11
1.23733	11
1.24100	12
1.24467	15
1.24833	20
1.25200	20
1.25567	20
1.25933	20
1.26300	18
1.26667	15
1.27033	13
1.27400	13
1.27767	14
1.28133	13
1.28500	13
1.28867	15
1.29233	18
1.29600	19
1.29967	19
1.30333	20
1.30700	20
1.31067	21
1.31433	21
1.31800	20
1.32167	20
1.32533	18
1.32900	14
1.33267	11
1.33633	10
1.34000	8
1.34367	6
1.34733	6
1.35100	8
1.35467	9
1.35833	9
1.36200	9
1.36567	9
1.36933	9
1.37300	10
1.37667	11
1.38033	12
1.38400	12
1.38767	12
1.39133	11
1.39500	11
1.39867	11
1.40233	12
1.40600	14
1.40967	14
1.41333	15
1.41700	15
1.42067	15
1.42433	16
1.42800	15
1.43167	12
1.43533	13
1.43900	12
1.44267	12
1.44633	13
1.45000	12
1.45367	12
1.45733	14
1.46100	16
1.46467	17
1.46833	18
1.47200	18
1.47567	18
1.47933	18
1.48300	17
1.48667	17
1.49033	17
1.49400	18
1.49767	20
1.50133	21
1.50500	20
1.50867	20
1.51233	19
1.51600	19
1.51967	19
1.52333	20
1.52700	19
1.53067	19
1.53433	18
1.53800	16
1.54167	14
1.54533	13
1.54900	14
1.55267	14
1.55633	15
1.56000	16
1.56367	19
1.56733	20
1.57100	19
1.57467	18
1.57833	17
1.58200	17
1.58567	15
1.58933	13
1.59300	14
1.59667	16
1.60033	16
1.60400	17
1.60767	18
1.61133	20
1.61500	21
1.61867	22
1.62233	22
1.62600	22
1.62967	23
1.63333	25
1.63700	26
1.64067	25
1.64433	24
1.64800	23
1.65167	23
1.65533	22
1.65900	23
1.66267	25
1.66633	24
1.67000	25
1.67367	26
1.67733	28
1.68100	30
1.68467	31
1.68833	30
1.69200	30
1.69567	32
1.69933	32
1.70300	32
1.70667	31
1.71033	33
1.71400	36
1.71767	36
1.72133	33
1.72500	32
1.72867	34
1.73233	36
1.73600	38
1.73967	38
1.74333	38
1.74700	39
1.75067	42
1.75433	42
1.75800	41
1.76167	39
1.76533	40
1.76900	41
1.77267	42
1.77633	42
1.78000	41
1.78367	40
1.78733	41
1.79100	43
1.79467	43
1.79833	42
1.80200	42
1.80567	42
1.80933	42
1.81300	44
1.81667	47
1.82033	47
1.82400	48
1.82767	49
1.83133	49
1.83500	48
1.83867	48
1.84233	48
1.84600	49
1.84967	50
1.85333	51
1.85700	53
1.86067	54
1.86433	53
1.86800	53
1.87167	54
1.87533	57
1.87900	59
1.88267	59
1.88633	56
1.89000	55
1.89367	57
1.89733	58
1.90100	61
1.90467	63
1.90833	62
1.91200	64
1.91567	67
1.91933	67
1.92300	67
1.92667	69
1.93033	71
1.93400	72
1.93767	70
1.94133	70
1.94500	70
1.94867	71
1.95233	72
1.95600	71
1.95967	73
1.96333	75
1.96700	78
1.97067	80
1.97433	81
1.97800	83
1.98167	84
1.98533	87
1.98900	87
1.99267	87
1.99633	86
2.00000	87
2.00367	90
2.00733	92
2.01100	94
2.01467	97
2.01833	99
2.02200	100
2.02567	100
2.02933	97
2.03300	97
2.03667	97
2.04033	97
2.04400	98
2.04767	97
2.05133	98
2.05500	101
2.05867	102
2.06233	102
2.06600	103
2.06967	106
2.07333	110
2.07700	114
2.08067	114
2.08433	114
2.08800	115
2.09167	113
2.09533	113
2.09900	113
2.10267	113
2.10633	112
2.11000	111
2.11367	110
2.11733	112
2.12100	113
2.12467	114
2.12833	114
2.13200	117
2.13567	120
2.13933	121
2.14300	121
2.14667	123
2.15033	125
2.15400	127
2.15767	128
2.16133	130
2.16500	130
2.16867	128
2.17233	127
2.17600	127
2.17967	128
2.18333	132
2.18700	133
2.19067	133
2.19433	133
2.19800	134
2.20167	133
2.20533	133
2.20900	133
2.21267	132
2.21633	131
2.22000	132
2.22367	136
2.22733	137
2.23100	138
2.23467	139
2.23833	139
2.24200	138
2.24567	137
2.24933	135
2.25300	135
2.25667	137
2.26033	139
2.26400	141
2.26767	145
2.27133	147
2.27500	147
2.27867	148
2.28233	148
2.28600	146
2.28967	145
2.29333	148
2.29700	151
2.30067	150
2.30433	149
2.30800	149
2.31167	149
2.31533	149
2.31900	149
2.32267	150
2.32633	152
2.33000	154
2.33367	155
2.33733	155
2.34100	157
2.34467	158
2.34833	158
2.35200	159
2.35567	158
2.35933	158
2.36300	158
2.36667	158
2.37033	156
2.37400	156
2.37767	154
2.38133	153
2.38500	150
2.38867	148
2.39233	149
2.39600	154
2.39967	160
2.40333	162
2.40700	163
2.41067	166
2.41433	166
2.41800	166
2.42167	166
2.42533	165
2.42900	165
2.43267	165
2.43633	165
2.44000	170
2.44367	212
2.44733	290
2.45100	367
2.45467	418
2.45833	431
2.46200	422
2.46567	409
2.46933	398
2.47300	384
2.47667	362
2.48033	334
2.48400	303
2.48767	280
2.49133	278
2.49500	306
2.49867	362
2.50233	433
2.50600	502
2.50967	559
2.51333	605
2.51700	642
2.52067	669
2.52433	693
2.52800	715
2.53167	739
2.53533	765
2.53900	790
2.54267	816
2.54633	842
2.55000	867
2.55367	891
2.55733	913
2.56100	928
2.56467	936
2.56833	939
2.57200	938
2.57567	932
2.57933	922
2.58300	910
2.58667	898
2.59033	884
2.59400	872
2.59767	862
2.60133	854
2.60500	851
2.60867	847
2.61233	843
2.61600	838
2.61967	836
2.62333	835
2.62700	834
2.63067	831
2.63433	830
2.63800	829
2.64167	831
2.64533	831
2.64900	831
2.65267	830
2.65633	831
2.66000	833
2.66367	835
2.66733	835
2.67100	837
2.67467	839
2.67833	841
2.68200	844
2.68567	848
2.68933	849
2.69300	848
2.69667	844
2.70033	839
2.70400	835
2.70767	828
2.71133	821
2.71500	816
2.71867	809
2.72233	799
2.72600	791
2.72967	785
2.73333	778
2.73700	772
2.74067	766
2.74433	758
2.74800	752
2.75167	747
2.75533	743
2.75900	739
2.76267	736
2.76633	733
2.77000	731
2.77367	732
2.77733	730
2.78100	729
2.78467	730
2.78833	729
2.79200	730
2.79567	729
2.79933	726
2.80300	725
2.80667	725
2.81033	726
2.81400	725
2.81767	724
2.82133	724
2.82500	725
2.82867	725
2.83233	726
2.83600	736
2.83967	761
2.84333	813
2.84700	912
2.85067	1081
2.85433	1339
2.85800	1700
2.86167	2162
2.86533	2701
2.86900	3278
2.87267	3851
2.87633	4370
2.88000	4791
2.88367	5085
2.88733	5239
2.89100	5258
2.89467	5156
2.89833	4961
2.90200	4697
2.90567	4392
2.90933	4068
2.91300	3741
2.91667	3427
2.92033	3132
2.92400	2858
2.92767	2608
2.93133	2384
2.93500	2185
2.93867	2009
2.94233	1859
2.94600	1727
2.94967	1611
2.95333	1510
2.95700	1424
2.96067	1349
2.96433	1285
2.96800	1230
2.97167	1180
2.97533	1138
2.97900	1100
2.98267	1065
2.98633	1035
2.99000	1008
2.99367	986
2.99733	965
3.00100	945
3.00467	929
3.00833	914
3.01200	899
3.01567	885
3.01933	872
3.02300	860
3.02667	847
3.03033	834
3.03400	821
3.03767	807
3.04133	794
3.04500	785
3.04867	776
3.05233	767
3.05600	760
3.05967	753
3.06333	747
3.06700	741
3.07067	735
3.07433	726
3.07800	718
3.08167	711
3.08533	708
3.08900	704
3.09267	700
3.09633	693
3.10000	689
3.10367	683
3.10733	681
3.11100	678
3.11467	676
3.11833	673
3.12200	670
3.12567	666
3.12933	663
3.13300	659
3.13667	653
3.14033	650
3.14400	647
3.14767	645
3.15133	643
3.15500	642
3.15867	640
3.16233	636
3.16600	632
3.16967	630
3.17333	628
3.17700	626
3.18067	624
3.18433	621
3.18800	618
3.19167	617
3.19533	616
3.19900	614
3.20267	610
3.20633	607
3.21000	606
3.21367	606
3.21733	604
3.22100	602
3.22467	600
3.22833	599
3.23200	597
3.23567	593
3.23933	587
3.24300	584
3.24667	584
3.25033	584
3.25400	582
3.25767	578
3.26133	575
3.26500	572
3.26867	570
3.27233	569
3.27600	566
3.27967	563
3.28333	560
3.28700	558
3.29067	556
3.29433	555
3.29800	553
3.30167	549
3.30533	543
3.30900	539
3.31267	537
3.31633	536
3.32000	535
3.32367	533
3.32733	531
3.33100	531
3.33467	529
3.33833	526
3.34200	522
3.34567	517
3.34933	517
3.35300	518
3.35667	518
3.36033	516
3.36400	513
3.36767	512
3.37133	511
3.37500	508
3.37867	504
3.38233	502
3.38600	500
3.38967	497
3.39333	495
3.39700	495
3.40067	493
3.40433	487
3.40800	481
3.41167	478
3.41533	476
3.41900	477
3.42267	476
3.42633	478
3.43000	477
3.43367	474
3.43733	472
3.44100	472
3.44467	473
3.44833	473
3.45200	471
3.45567	469
3.45933	465
3.46300	462
3.46667	461
3.47033	459
3.47400	457
3.47767	457
3.48133	455
3.48500	455
3.48867	455
3.49233	453
3.49600	450
3.49967	448
3.50333	449
3.50700	450
3.51067	449
3.51433	446
3.51800	443
3.52167	443
3.52533	442
3.52900	441
3.53267	440
3.53633	438
3.54000	439
3.54367	439
3.54733	436
3.55100	432
3.55467	428
3.55833	426
3.56200	423
3.56567	421
3.56933	422
3.57300	423
3.57667	424
3.58033	423
3.58400	420
3.58767	420
3.59133	422
3.59500	423
3.59867	423
3.60233	421
3.60600	417
3.60967	413
3.61333	409
3.61700	408
3.62067	406
3.62433	404
3.62800	403
3.63167	403
3.63533	404
3.63900	406
3.64267	406
3.64633	405
3.65000	404
3.65367	401
3.65733	399
3.66100	400
3.66467	399
3.66833	397
3.67200	396
3.67567	396
3.67933	396
3.68300	397
3.68667	396
3.69033	395
3.69400	394
3.69767	393
3.70133	391
3.70500	392
3.70867	394
3.71233	394
3.71600	392
3.71967	388
3.72333	383
3.72700	379
3.73067	377
3.73433	376
3.73800	374
3.74167	373
3.74533	371
3.74900	368
3.75267	366
3.75633	365
3.76000	364
3.76367	366
3.76733	366
3.77100	367
3.77467	365
3.77833	362
3.78200	359
3.78567	356
3.78933	354
3.79300	352
3.79667	350
3.80033	348
3.80400	346
3.80767	345
3.81133	342
3.81500	340
3.81867	339
3.82233	338
3.82600	338
3.82967	338
3.83333	336
3.83700	334
3.84067	334
3.84433	333
3.84800	330
3.85167	328
3.85533	325
3.85900	324
3.86267	323
3.86633	321
3.87000	321
3.87367	320
3.87733	319
3.88100	319
3.88467	316
3.88833	313
3.89200	312
3.89567	311
3.89933	310
3.90300	310
3.90667	308
3.91033	304
3.91400	301
3.91767	298
3.92133	297
3.92500	294
3.92867	290
3.93233	289
3.93600	289
3.93967	290
3.94333	289
3.94700	286
3.95067	283
3.95433	283
3.95800	283
3.96167	281
3.96533	277
3.96900	275
3.97267	276
3.97633	276
3.98000	273
3.98367	267
3.98733	262
3.99100	259
3.99467	258
3.99833	256

[Status Trace (Column Oven Temperature)]
Interval(msec)	1000
# of Points	240
Start Time(min)	0.001
End Time(min)	3.984
Intensity Units	
Intensity Multiplier	1
R.Time (min)	Intensity
0.00117	35.07
0.01783	35.06
0.03450	35.06
0.05117	35.06
0.06783	35.05
0.08450	35.04
0.10117	35.04
0.11783	35.04
0.13450	35.03
0.15117	35.02
0.16783	35.02
0.18450	35.01
0.20117	35.01
0.21783	35.02
0.23450	35.00
0.25117	34.99
0.26783	34.99
0.28450	34.98
0.30117	34.99
0.31783	35.00
0.33450	35.01
0.35117	35.02
0.36783	35.01
0.38450	35.02
0.40117	35.02
0.41783	35.02
0.43450	35.02
0.45117	35.00
0.46783	34.98
0.48450	34.98
0.50117	34.98
0.51783	34.99
0.53450	34.99
0.55117	34.99
0.56783	35.00
0.58450	35.01
0.60117	35.01
0.61783	35.01
0.63450	35.00
0.65117	35.01
0.66783	35.01
0.68450	35.02
0.70117	35.02
0.71783	35.03
0.73450	35.02
0.75117	35.01
0.76783	35.00
0.78450	34.99
0.80117	34.99
0.81783	34.99
0.83450	34.99
0.85117	34.99
0.86783	35.01
0.88450	35.01
0.90117	35.01
0.91783	35.01
0.93450	35.00
0.95117	35.01
0.96783	35.00
0.98450	35.01
1.00117	35.02
1.01783	35.02
1.03450	35.03
1.05117	35.04
1.06783	35.03
1.08450	35.03
1.10117	35.02
1.11783	35.02
1.13450	35.02
1.15117	35.00
1.16783	34.99
1.18450	34.98
1.20117	34.97
1.21783	34.98
1.23450	34.99
1.25117	35.00
1.26783	35.01
1.28450	35.01
1.30117	35.03
1.31783	35.02
1.33450	35.03
1.35117	35.01
1.36783	35.00
1.38450	34.98
1.40117	34.97
1.41783	34.97
1.43450	34.97
1.45117	34.97
1.46783	34.98
1.48450	34.99
1.50117	35.00
1.51783	35.02
1.53450	35.02
1.55117	35.01
1.56783	35.01
1.58450	35.01
1.60117	35.05
1.61783	35.12
1.63450	35.28
1.65117	35.49
1.66783	35.77
1.68450	36.14
1.70117	36.50
1.71783	36.84
1.73450	37.18
1.75117	37.52
1.76783	37.85
1.78450	38.20
1.80117	38.52
1.81783	38.83
1.83450	39.17
1.85117	39.49
1.86783	39.81
1.88450	40.14
1.90117	40.46
1.91783	40.80
1.93450	41.12
1.95117	41.45
1.96783	41.76
1.98450	42.09
2.00117	42.42
2.01783	42.75
2.03450	43.07
2.05117	43.40
2.06783	43.73
2.08450	44.07
2.10117	44.36
2.11783	44.69
2.13450	45.02
2.15117	45.35
2.16783	45.68
2.18450	45.99
2.20117	46.35
2.21783	46.66
2.23450	47.01
2.25117	47.33
2.26783	47.68
2.28450	48.01
2.30117	48.33
2.31783	48.70
2.33450	49.02
2.35117	49.32
2.36783	49.54
2.38450	49.64
2.40117	49.66
2.41783	49.65
2.43450	49.67
2.45117	49.66
2.46783	49.68
2.48450	49.68
2.50117	49.69
2.51783	49.72
2.53450	49.70
2.55117	49.73
2.56783	49.74
2.58450	49.76
2.60117	49.77
2.61783	49.79
2.63450	49.80
2.65117	49.83
2.66783	49.84
2.68450	49.85
2.70117	49.85
2.71783	49.88
2.73450	49.90
2.75117	49.88
2.76783	49.85
2.78450	49.84
2.80117	49.86
2.81783	49.87
2.83450	49.88
2.85117	49.89
2.86783	49.88
2.88450	49.89
2.90117	49.89
2.91783	49.90
2.93450	49.90
2.95117	49.91
2.96783	49.91
2.98450	49.94
3.00117	49.97
3.01783	49.99
3.03450	50.01
3.05117	50.04
3.06783	50.04
3.08450	50.05
3.10117	50.05
3.11783	50.05
3.13450	50.06
3.15117	50.06
3.16783	50.07
3.18450	50.08
3.20117	50.10
3.21783	50.10
3.23450	50.09
3.25117	50.09
3.26783	50.09
3.28450	50.09
3.30117	50.09
3.31783	50.09
3.33450	50.09
3.35117	50.10
3.36783	50.10
3.38450	50.10
3.40117	50.09
3.41783	50.09
3.43450	50.10
3.45117	50.12
3.46783	50.11
3.48450	50.10
3.50117	50.09
3.51783	50.08
3.53450	50.08
3.55117	50.07
3.56783	50.06
3.58450	50.06
3.60117	50.05
3.61783	50.05
3.63450	50.04
3.65117	50.04
3.66783	50.03
3.68450	50.02
3.70117	50.01
3.71783	50.01
3.73450	50.01
3.75117	50.01
3.76783	50.01
3.78450	50.03
3.80117	50.04
3.81783	50.05
3.83450	50.05
3.85117	50.07
3.86783	50.08
3.88450	50.09
3.90117	50.08
3.91783	50.08
3.93450	50.08
3.95117	50.08
3.96783	50.08
3.98450	50.08

[Status Trace (Injection Unit Temperature)]
Interval(msec)	1000
# of Points	240
Start Time(min)	0.001
End Time(min)	3.984
Intensity Units	
Intensity Multiplier	1
R.Time (min)	Intensity
0.00117	99.98
0.01783	99.98
0.03450	99.98
0.05117	99.98
0.06783	99.98
0.08450	99.98
0.10117	99.98
0.11783	99.98
0.13450	99.98
0.15117	99.98
0.16783	99.98
0.18450	99.98
0.20117	99.98
0.21783	99.98
0.23450	99.98
0.25117	99.98
0.26783	99.98
0.28450	99.98
0.30117	99.98
0.31783	99.98
0.33450	99.98
0.35117	99.98
0.36783	99.98
0.38450	99.99
0.40117	99.98
0.41783	99.98
0.43450	99.99
0.45117	99.98
0.46783	99.98
0.48450	99.98
0.50117	99.99
0.51783	99.98
0.53450	99.99
0.55117	99.99
0.56783	99.99
0.58450	99.99
0.60117	99.98
0.61783	99.98
0.63450	99.99
0.65117	99.99
0.66783	99.98
0.68450	99.99
0.70117	99.99
0.71783	99.99
0.73450	99.99
0.75117	99.99
0.76783	99.99
0.78450	99.99
0.80117	99.99
0.81783	99.99
0.83450	99.98
0.85117	99.98
0.86783	99.98
0.88450	99.99
0.90117	99.99
0.91783	99.99
0.93450	99.99
0.95117	99.99
0.96783	99.99
0.98450	99.99
1.00117	99.99
1.01783	99.99
1.03450	99.99
1.05117	99.99
1.06783	99.98
1.08450	99.99
1.10117	99.99
1.11783	99.99
1.13450	99.99
1.15117	99.99
1.16783	99.99
1.18450	99.99
1.20117	99.99
1.21783	99.99
1.23450	99.99
1.25117	99.99
1.26783	99.99
1.28450	99.99
1.30117	99.99
1.31783	99.99
1.33450	99.98
1.35117	99.99
1.36783	99.99
1.38450	99.99
1.40117	99.99
1.41783	99.99
1.43450	99.99
1.45117	99.99
1.46783	99.99
1.48450	99.99
1.50117	99.98
1.51783	99.99
1.53450	99.99
1.55117	99.99
1.56783	99.99
1.58450	99.99
1.60117	99.99
1.61783	99.99
1.63450	99.99
1.65117	99.99
1.66783	99.99
1.68450	99.99
1.70117	99.99
1.71783	99.99
1.73450	99.99
1.75117	99.99
1.76783	99.99
1.78450	99.99
1.80117	99.98
1.81783	99.99
1.83450	99.99
1.85117	99.98
1.86783	99.99
1.88450	99.99
1.90117	99.98
1.91783	99.98
1.93450	99.98
1.95117	99.98
1.96783	99.98
1.98450	99.98
2.00117	99.98
2.01783	99.98
2.03450	99.98
2.05117	99.98
2.06783	99.98
2.08450	99.98
2.10117	99.97
2.11783	99.98
2.13450	99.97
2.15117	99.97
2.16783	99.97
2.18450	99.97
2.20117	99.97
2.21783	99.97
2.23450	99.97
2.25117	99.97
2.26783	99.97
2.28450	99.97
2.30117	99.97
2.31783	99.96
2.33450	99.97
2.35117	99.97
2.36783	99.97
2.38450	99.96
2.40117	99.97
2.41783	99.97
2.43450	99.96
2.45117	99.97
2.46783	99.97
2.48450	99.97
2.50117	99.97
2.51783	99.97
2.53450	99.97
2.55117	99.97
2.56783	99.97
2.58450	99.97
2.60117	99.97
2.61783	99.97
2.63450	99.97
2.65117	99.98
2.66783	99.98
2.68450	99.98
2.70117	99.98
2.71783	99.98
2.73450	99.98
2.75117	99.98
2.76783	99.99
2.78450	99.99
2.80117	99.99
2.81783	99.99
2.83450	99.99
2.85117	99.99
2.86783	99.99
2.88450	100.00
2.90117	99.99
2.91783	100.00
2.93450	100.00
2.95117	100.00
2.96783	100.00
2.98450	100.00
3.00117	100.00
3.01783	100.00
3.03450	100.00
3.05117	100.00
3.06783	100.01
3.08450	100.01
3.10117	100.01
3.11783	100.01
3.13450	100.01
3.15117	100.02
3.16783	100.01
3.18450	100.02
3.20117	100.01
3.21783	100.02
3.23450	100.02
3.25117	100.02
3.26783	100.02
3.28450	100.02
3.30117	100.02
3.31783	100.02
3.33450	100.02
3.35117	100.03
3.36783	100.03
3.38450	100.03
3.40117	100.03
3.41783	100.03
3.43450	100.03
3.45117	100.03
3.46783	100.04
3.48450	100.04
3.50117	100.03
3.51783	100.04
3.53450	100.04
3.55117	100.04
3.56783	100.04
3.58450	100.05
3.60117	100.05
3.61783	100.05
3.63450	100.05
3.65117	100.05
3.66783	100.05
3.68450	100.05
3.70117	100.05
3.71783	100.05
3.73450	100.05
3.75117	100.05
3.76783	100.06
3.78450	100.06
3.80117	100.06
3.81783	100.06
3.83450	100.06
3.85117	100.06
3.86783	100.06
3.88450	100.06
3.90117	100.06
3.91783	100.06
3.93450	100.06
3.95117	100.06
3.96783	100.06
3.98450	100.06

[Status Trace (Carrier Gas Pressure)]
Interval(msec)	1000
# of Points	240
Start Time(min)	0.001
End Time(min)	3.984
Intensity Units	
Intensity Multiplier	1
R.Time (min)	Intensity
0.00117	58.00
0.01783	56.52
0.03450	56.22
0.05117	58.45
0.06783	59.86
0.08450	58.29
0.10117	57.97
0.11783	58.00
0.13450	58.01
0.15117	58.01
0.16783	58.01
0.18450	58.00
0.20117	58.00
0.21783	58.00
0.23450	58.00
0.25117	58.00
0.26783	58.00
0.28450	58.00
0.30117	58.00
0.31783	58.00
0.33450	58.00
0.35117	58.00
0.36783	58.00
0.38450	58.00
0.40117	58.00
0.41783	58.00
0.43450	58.00
0.45117	58.00
0.46783	58.00
0.48450	58.00
0.50117	58.00
0.51783	58.00
0.53450	58.00
0.55117	58.00
0.56783	58.00
0.58450	58.00
0.60117	58.00
0.61783	58.00
0.63450	58.00
0.65117	58.00
0.66783	58.00
0.68450	58.00
0.70117	58.00
0.71783	58.00
0.73450	58.00
0.75117	58.00
0.76783	58.00
0.78450	58.00
0.80117	58.00
0.81783	58.00
0.83450	58.00
0.85117	58.00
0.86783	58.00
0.88450	58.00
0.90117	58.00
0.91783	58.00
0.93450	58.00
0.95117	58.00
0.96783	58.00
0.98450	58.00
1.00117	58.00
1.01783	58.00
1.03450	58.00
1.05117	58.00
1.06783	58.00
1.08450	58.00
1.10117	58.00
1.11783	58.00
1.13450	58.00
1.15117	58.00
1.16783	58.00
1.18450	58.00
1.20117	58.00
1.21783	58.00
1.23450	58.00
1.25117	58.00
1.26783	58.00
1.28450	58.00
1.30117	58.00
1.31783	58.00
1.33450	58.00
1.35117	58.00
1.36783	58.00
1.38450	58.00
1.40117	58.00
1.41783	58.00
1.43450	58.00
1.45117	58.00
1.46783	58.00
1.48450	58.00
1.50117	58.00
1.51783	58.00
1.53450	58.00
1.55117	58.00
1.56783	58.00
1.58450	58.00
1.60117	58.00
1.61783	58.00
1.63450	58.00
1.65117	58.00
1.66783	58.01
1.68450	58.01
1.70117	58.00
1.71783	58.00
1.73450	58.00
1.75117	58.00
1.76783	58.00
1.78450	58.00
1.80117	58.00
1.81783	58.00
1.83450	58.00
1.85117	58.00
1.86783	58.00
1.88450	58.00
1.90117	58.00
1.91783	58.00
1.93450	58.00
1.95117	58.00
1.96783	58.00
1.98450	58.00
2.00117	58.00
2.01783	58.00
2.03450	58.00
2.05117	58.00
2.06783	58.00
2.08450	58.00
2.10117	58.00
2.11783	58.00
2.13450	58.00
2.15117	58.00
2.16783	58.00
2.18450	58.00
2.20117	58.00
2.21783	58.00
2.23450	58.00
2.25117	58.00
2.26783	58.00
2.28450	58.00
2.30117	58.00
2.31783	58.00
2.33450	58.00
2.35117	58.00
2.36783	58.00
2.38450	57.99
2.40117	57.99
2.41783	58.00
2.43450	58.00
2.45117	58.00
2.46783	58.00
2.48450	58.00
2.50117	58.00
2.51783	57.99
2.53450	57.99
2.55117	58.00
2.56783	58.00
2.58450	58.00
2.60117	58.00
2.61783	58.00
2.63450	58.00
2.65117	58.00
2.66783	58.00
2.68450	58.00
2.70117	58.00
2.71783	58.00
2.73450	58.00
2.75117	58.00
2.76783	58.00
2.78450	58.00
2.80117	58.00
2.81783	58.00
2.83450	58.00
2.85117	58.00
2.86783	58.00
2.88450	58.00
2.90117	58.00
2.91783	58.00
2.93450	58.00
2.95117	58.00
2.96783	58.00
2.98450	58.00
3.00117	58.00
3.01783	58.00
3.03450	58.00
3.05117	58.00
3.06783	58.00
3.08450	58.00
3.10117	58.00
3.11783	58.00
3.13450	58.00
3.15117	58.00
3.16783	58.00
3.18450	58.00
3.20117	58.00
3.21783	58.00
3.23450	58.00
3.25117	58.00
3.26783	58.00
3.28450	58.00
3.30117	58.00
3.31783	58.00
3.33450	58.00
3.35117	58.00
3.36783	58.00
3.38450	58.00
3.40117	58.00
3.41783	58.00
3.43450	58.00
3.45117	58.00
3.46783	58.00
3.48450	58.00
3.50117	58.00
3.51783	58.00
3.53450	58.00
3.55117	58.00
3.56783	58.00
3.58450	58.00
3.60117	58.00
3.61783	58.00
3.63450	58.00
3.65117	58.00
3.66783	58.00
3.68450	58.00
3.70117	58.00
3.71783	58.00
3.73450	58.00
3.75117	58.00
3.76783	58.00
3.78450	58.00
3.80117	58.00
3.81783	58.00
3.83450	58.00
3.85117	58.00
3.86783	58.00
3.88450	58.00
3.90117	58.00
3.91783	58.00
3.93450	58.00
3.95117	58.00
3.96783	58.00
3.98450	58.00

[Status Trace (Carrier Gas Flow)]
Interval(msec)	1000
# of Points	240
Start Time(min)	0.001
End Time(min)	3.984
Intensity Units	
Intensity Multiplier	1
R.Time (min)	Intensity
0.00117	34.52
0.01783	34.18
0.03450	34.53
0.05117	34.56
0.06783	34.49
0.08450	34.51
0.10117	34.52
0.11783	34.52
0.13450	34.52
0.15117	34.53
0.16783	34.52
0.18450	34.52
0.20117	34.52
0.21783	34.52
0.23450	34.52
0.25117	34.51
0.26783	34.52
0.28450	34.52
0.30117	34.52
0.31783	34.52
0.33450	34.52
0.35117	34.52
0.36783	34.52
0.38450	34.52
0.40117	34.52
0.41783	34.52
0.43450	34.52
0.45117	34.52
0.46783	34.52
0.48450	34.52
0.50117	34.52
0.51783	34.52
0.53450	34.52
0.55117	34.52
0.56783	34.52
0.58450	34.52
0.60117	34.52
0.61783	34.52
0.63450	34.52
0.65117	34.51
0.66783	34.52
0.68450	34.52
0.70117	34.52
0.71783	34.52
0.73450	34.52
0.75117	34.52
0.76783	34.51
0.78450	34.52
0.80117	34.51
0.81783	34.51
0.83450	34.52
0.85117	34.52
0.86783	34.52
0.88450	34.52
0.90117	34.52
0.91783	34.52
0.93450	34.51
0.95117	34.52
0.96783	34.52
0.98450	34.52
1.00117	34.52
1.01783	34.52
1.03450	34.51
1.05117	34.51
1.06783	34.52
1.08450	34.52
1.10117	34.52
1.11783	34.52
1.13450	34.52
1.15117	34.52
1.16783	34.51
1.18450	34.51
1.20117	34.52
1.21783	34.52
1.23450	34.52
1.25117	34.51
1.26783	34.52
1.28450	34.52
1.30117	34.53
1.31783	34.52
1.33450	34.51
1.35117	34.52
1.36783	34.53
1.38450	34.52
1.40117	34.51
1.41783	34.52
1.43450	34.53
1.45117	34.52
1.46783	34.51
1.48450	34.52
1.50117	34.53
1.51783	34.51
1.53450	34.52
1.55117	34.51
1.56783	34.52
1.58450	34.52
1.60117	34.52
1.61783	34.53
1.63450	34.51
1.65117	34.52
1.66783	34.52
1.68450	34.52
1.70117	34.52
1.71783	34.53
1.73450	34.52
1.75117	34.52
1.76783	34.52
1.78450	34.51
1.80117	34.52
1.81783	34.52
1.83450	34.52
1.85117	34.52
1.86783	34.52
1.88450	34.53
1.90117	34.51
1.91783	34.52
1.93450	34.52
1.95117	34.52
1.96783	34.52
1.98450	34.52
2.00117	34.52
2.01783	34.52
2.03450	34.52
2.05117	34.52
2.06783	34.52
2.08450	34.52
2.10117	34.52
2.11783	34.53
2.13450	34.52
2.15117	34.52
2.16783	34.52
2.18450	34.52
2.20117	34.53
2.21783	34.52
2.23450	34.52
2.25117	34.52
2.26783	34.52
2.28450	34.51
2.30117	34.52
2.31783	34.52
2.33450	34.52
2.35117	34.51
2.36783	34.52
2.38450	34.52
2.40117	34.51
2.41783	34.52
2.43450	34.52
2.45117	34.51
2.46783	34.52
2.48450	34.52
2.50117	34.52
2.51783	34.52
2.53450	34.52
2.55117	34.51
2.56783	34.52
2.58450	34.52
2.60117	34.52
2.61783	34.52
2.63450	34.52
2.65117	34.52
2.66783	34.52
2.68450	34.52
2.70117	34.52
2.71783	34.52
2.73450	34.52
2.75117	34.52
2.76783	34.52
2.78450	34.52
2.80117	34.52
2.81783	34.52
2.83450	34.52
2.85117	34.52
2.86783	34.51
2.88450	34.52
2.90117	34.52
2.91783	34.52
2.93450	34.52
2.95117	34.52
2.96783	34.52
2.98450	34.52
3.00117	34.52
3.01783	34.52
3.03450	34.51
3.05117	34.52
3.06783	34.51
3.08450	34.52
3.10117	34.51
3.11783	34.52
3.13450	34.53
3.15117	34.52
3.16783	34.52
3.18450	34.52
3.20117	34.51
3.21783	34.51
3.23450	34.52
3.25117	34.52
3.26783	34.51
3.28450	34.52
3.30117	34.52
3.31783	34.52
3.33450	34.51
3.35117	34.52
3.36783	34.52
3.38450	34.52
3.40117	34.52
3.41783	34.52
3.43450	34.52
3.45117	34.52
3.46783	34.52
3.48450	34.52
3.50117	34.51
3.51783	34.52
3.53450	34.52
3.55117	34.52
3.56783	34.52
3.58450	34.52
3.60117	34.52
3.61783	34.51
3.63450	34.52
3.65117	34.52
3.66783	34.52
3.68450	34.52
3.70117	34.52
3.71783	34.52
3.73450	34.52
3.75117	34.52
3.76783	34.52
3.78450	34.52
3.80117	34.51
3.81783	34.52
3.83450	34.52
3.85117	34.52
3.86783	34.52
3.88450	34.52
3.90117	34.52
3.91783	34.52
3.93450	34.52
3.95117	34.52
3.96783	34.52
3.98450	34.52

[Status Trace (Column Flow)]
Interval(msec)	1000
# of Points	240
Start Time(min)	0.001
End Time(min)	3.984
Intensity Units	
Intensity Multiplier	1
R.Time (min)	Intensity
0.00117	5.51
0.01783	5.34
0.03450	5.30
0.05117	5.56
0.06783	5.73
0.08450	5.54
0.10117	5.51
0.11783	5.51
0.13450	5.51
0.15117	5.51
0.16783	5.51
0.18450	5.51
0.20117	5.51
0.21783	5.51
0.23450	5.51
0.25117	5.51
0.26783	5.51
0.28450	5.51
0.30117	5.51
0.31783	5.51
0.33450	5.51
0.35117	5.51
0.36783	5.51
0.38450	5.51
0.40117	5.51
0.41783	5.51
0.43450	5.51
0.45117	5.51
0.46783	5.51
0.48450	5.51
0.50117	5.51
0.51783	5.51
0.53450	5.51
0.55117	5.51
0.56783	5.51
0.58450	5.51
0.60117	5.51
0.61783	5.51
0.63450	5.51
0.65117	5.51
0.66783	5.51
0.68450	5.51
0.70117	5.51
0.71783	5.51
0.73450	5.51
0.75117	5.51
0.76783	5.51
0.78450	5.51
0.80117	5.51
0.81783	5.51
0.83450	5.51
0.85117	5.51
0.86783	5.51
0.88450	5.51
0.90117	5.51
0.91783	5.51
0.93450	5.51
0.95117	5.51
0.96783	5.51
0.98450	5.51
1.00117	5.51
1.01783	5.51
1.03450	5.51
1.05117	5.51
1.06783	5.51
1.08450	5.51
1.10117	5.51
1.11783	5.51
1.13450	5.51
1.15117	5.51
1.16783	5.51
1.18450	5.51
1.20117	5.51
1.21783	5.51
1.23450	5.51
1.25117	5.51
1.26783	5.51
1.28450	5.51
1.30117	5.51
1.31783	5.51
1.33450	5.51
1.35117	5.51
1.36783	5.51
1.38450	5.51
1.40117	5.51
1.41783	5.51
1.43450	5.51
1.45117	5.51
1.46783	5.51
1.48450	5.51
1.50117	5.51
1.51783	5.51
1.53450	5.51
1.55117	5.51
1.56783	5.51
1.58450	5.51
1.60117	5.51
1.61783	5.51
1.63450	5.50
1.65117	5.50
1.66783	5.49
1.68450	5.48
1.70117	5.47
1.71783	5.45
1.73450	5.44
1.75117	5.43
1.76783	5.42
1.78450	5.41
1.80117	5.40
1.81783	5.39
1.83450	5.38
1.85117	5.37
1.86783	5.36
1.88450	5.35
1.90117	5.34
1.91783	5.33
1.93450	5.32
1.95117	5.31
1.96783	5.31
1.98450	5.30
2.00117	5.29
2.01783	5.28
2.03450	5.27
2.05117	5.26
2.06783	5.25
2.08450	5.24
2.10117	5.23
2.11783	5.22
2.13450	5.21
2.15117	5.20
2.16783	5.19
2.18450	5.18
2.20117	5.17
2.21783	5.16
2.23450	5.15
2.25117	5.14
2.26783	5.13
2.28450	5.12
2.30117	5.12
2.31783	5.11
2.33450	5.10
2.35117	5.09
2.36783	5.08
2.38450	5.08
2.40117	5.08
2.41783	5.08
2.43450	5.08
2.45117	5.08
2.46783	5.08
2.48450	5.08
2.50117	5.08
2.51783	5.08
2.53450	5.08
2.55117	5.08
2.56783	5.08
2.58450	5.08
2.60117	5.08
2.61783	5.08
2.63450	5.07
2.65117	5.07
2.66783	5.07
2.68450	5.07
2.70117	5.07
2.71783	5.07
2.73450	5.07
2.75117	5.07
2.76783	5.07
2.78450	5.07
2.80117	5.07
2.81783	5.07
2.83450	5.07
2.85117	5.07
2.86783	5.07
2.88450	5.07
2.90117	5.07
2.91783	5.07
2.93450	5.07
2.95117	5.07
2.96783	5.07
2.98450	5.07
3.00117	5.07
3.01783	5.07
3.03450	5.07
3.05117	5.07
3.06783	5.07
3.08450	5.07
3.10117	5.07
3.11783	5.07
3.13450	5.07
3.15117	5.07
3.16783	5.07
3.18450	5.07
3.20117	5.07
3.21783	5.07
3.23450	5.07
3.25117	5.07
3.26783	5.07
3.28450	5.07
3.30117	5.07
3.31783	5.07
3.33450	5.07
3.35117	5.07
3.36783	5.07
3.38450	5.07
3.40117	5.07
3.41783	5.07
3.43450	5.07
3.45117	5.07
3.46783	5.07
3.48450	5.07
3.50117	5.07
3.51783	5.07
3.53450	5.07
3.55117	5.07
3.56783	5.07
3.58450	5.07
3.60117	5.07
3.61783	5.07
3.63450	5.07
3.65117	5.07
3.66783	5.07
3.68450	5.07
3.70117	5.07
3.71783	5.07
3.73450	5.07
3.75117	5.07
3.76783	5.07
3.78450	5.07
3.80117	5.07
3.81783	5.07
3.83450	5.07
3.85117	5.07
3.86783	5.07
3.88450	5.07
3.90117	5.07
3.91783	5.07
3.93450	5.07
3.95117	5.07
3.96783	5.07
3.98450	5.07

[Status Trace (Linear Velocity)]
Interval(msec)	1000
# of Points	240
Start Time(min)	0.001
End Time(min)	3.984
Intensity Units	
Intensity Multiplier	1
R.Time (min)	Intensity
0.00117	39.01
0.01783	38.04
0.03450	37.84
0.05117	39.31
0.06783	40.22
0.08450	39.20
0.10117	38.99
0.11783	39.01
0.13450	39.02
0.15117	39.02
0.16783	39.02
0.18450	39.02
0.20117	39.01
0.21783	39.01
0.23450	39.02
0.25117	39.02
0.26783	39.02
0.28450	39.02
0.30117	39.02
0.31783	39.02
0.33450	39.01
0.35117	39.01
0.36783	39.01
0.38450	39.01
0.40117	39.01
0.41783	39.01
0.43450	39.01
0.45117	39.02
0.46783	39.02
0.48450	39.02
0.50117	39.02
0.51783	39.02
0.53450	39.02
0.55117	39.02
0.56783	39.01
0.58450	39.01
0.60117	39.01
0.61783	39.01
0.63450	39.01
0.65117	39.01
0.66783	39.01
0.68450	39.01
0.70117	39.01
0.71783	39.01
0.73450	39.01
0.75117	39.01
0.76783	39.01
0.78450	39.02
0.80117	39.02
0.81783	39.02
0.83450	39.02
0.85117	39.01
0.86783	39.01
0.88450	39.01
0.90117	39.01
0.91783	39.01
0.93450	39.01
0.95117	39.01
0.96783	39.01
0.98450	39.01
1.00117	39.01
1.01783	39.01
1.03450	39.01
1.05117	39.01
1.06783	39.01
1.08450	39.01
1.10117	39.01
1.11783	39.01
1.13450	39.01
1.15117	39.01
1.16783	39.02
1.18450	39.02
1.20117	39.02
1.21783	39.02
1.23450	39.02
1.25117	39.01
1.26783	39.01
1.28450	39.01
1.30117	39.01
1.31783	39.01
1.33450	39.01
1.35117	39.01
1.36783	39.01
1.38450	39.02
1.40117	39.02
1.41783	39.02
1.43450	39.02
1.45117	39.02
1.46783	39.02
1.48450	39.02
1.50117	39.01
1.51783	39.01
1.53450	39.01
1.55117	39.01
1.56783	39.01
1.58450	39.01
1.60117	39.01
1.61783	39.00
1.63450	38.99
1.65117	38.97
1.66783	38.94
1.68450	38.91
1.70117	38.87
1.71783	38.84
1.73450	38.81
1.75117	38.77
1.76783	38.74
1.78450	38.71
1.80117	38.68
1.81783	38.65
1.83450	38.62
1.85117	38.59
1.86783	38.56
1.88450	38.53
1.90117	38.50
1.91783	38.47
1.93450	38.44
1.95117	38.40
1.96783	38.38
1.98450	38.34
2.00117	38.31
2.01783	38.28
2.03450	38.25
2.05117	38.22
2.06783	38.20
2.08450	38.16
2.10117	38.14
2.11783	38.11
2.13450	38.08
2.15117	38.05
2.16783	38.02
2.18450	37.99
2.20117	37.96
2.21783	37.93
2.23450	37.90
2.25117	37.87
2.26783	37.84
2.28450	37.81
2.30117	37.78
2.31783	37.75
2.33450	37.72
2.35117	37.69
2.36783	37.67
2.38450	37.66
2.40117	37.66
2.41783	37.66
2.43450	37.66
2.45117	37.66
2.46783	37.66
2.48450	37.66
2.50117	37.66
2.51783	37.65
2.53450	37.65
2.55117	37.66
2.56783	37.65
2.58450	37.65
2.60117	37.65
2.61783	37.65
2.63450	37.65
2.65117	37.65
2.66783	37.64
2.68450	37.64
2.70117	37.64
2.71783	37.64
2.73450	37.64
2.75117	37.64
2.76783	37.64
2.78450	37.64
2.80117	37.64
2.81783	37.64
2.83450	37.64
2.85117	37.64
2.86783	37.64
2.88450	37.64
2.90117	37.64
2.91783	37.64
2.93450	37.64
2.95117	37.64
2.96783	37.64
2.98450	37.64
3.00117	37.63
3.01783	37.63
3.03450	37.63
3.05117	37.63
3.06783	37.63
3.08450	37.63
3.10117	37.63
3.11783	37.63
3.13450	37.62
3.15117	37.62
3.16783	37.62
3.18450	37.62
3.20117	37.62
3.21783	37.62
3.23450	37.62
3.25117	37.62
3.26783	37.62
3.28450	37.62
3.30117	37.62
3.31783	37.62
3.33450	37.62
3.35117	37.62
3.36783	37.62
3.38450	37.62
3.40117	37.62
3.41783	37.62
3.43450	37.62
3.45117	37.62
3.46783	37.62
3.48450	37.62
3.50117	37.62
3.51783	37.62
3.53450	37.62
3.55117	37.62
3.56783	37.63
3.58450	37.63
3.60117	37.63
3.61783	37.63
3.63450	37.63
3.65117	37.63
3.66783	37.63
3.68450	37.63
3.70117	37.63
3.71783	37.63
3.73450	37.63
3.75117	37.63
3.76783	37.63
3.78450	37.63
3.80117	37.63
3.81783	37.63
3.83450	37.63
3.85117	37.62
3.86783	37.62
3.88450	37.62
3.90117	37.62
3.91783	37.62
3.93450	37.62
3.95117	37.62
3.96783	37.62
3.98450	37.62

