[Header]
Application Name	LabSolutions
Version	5.110
Data File Name	C:\Users\User\Desktop\Junior\UIC Prairie Sampling\6.2.23\06022023_054.gcd
Output Date	6/12/2023
Output Time	11:47:12 AM

[File Information]
Type	Data File
Generated	6/6/2023 3:25:44 PM
Generated by	System Administrator
Modified	6/6/2023 3:33:12 PM
Modified by	System Administrator

[Sample Information]
Operator Name	System Administrator
Acquired	6/6/2023 3:29:10 PM
Sample Type	0:Unknown
Level	0
Sample Name	054
Sample ID	054
ISTD Amount1	1
ISTD Amount2	1
ISTD Amount3	1
ISTD Amount4	1
ISTD Amount5	1
ISTD Amount6	1
ISTD Amount7	1
ISTD Amount8	1
ISTD Amount9	1
ISTD Amount10	1
ISTD Amount11	1
ISTD Amount12	1
ISTD Amount13	1
ISTD Amount14	1
ISTD Amount15	1
ISTD Amount16	1
ISTD Amount17	1
ISTD Amount18	1
ISTD Amount19	1
ISTD Amount20	1
ISTD Amount21	1
ISTD Amount22	1
ISTD Amount23	1
ISTD Amount24	1
ISTD Amount25	1
ISTD Amount26	1
ISTD Amount27	1
ISTD Amount28	1
ISTD Amount29	1
ISTD Amount30	1
ISTD Amount31	1
ISTD Amount32	1
Sample Amount	1
Dilution Factor	1
Vial#	53
Injection Volume	1
Injection Count	1
Bar Code	

[Original Files]
Data File	C:\Users\User\Desktop\Junior\UIC Prairie Sampling\6.2.23\06022023_054.gcd
Method File	C:\LabSolutions\Data\GHG_4min_2022\ghg3_togas_w_acet_4 min_new_int.gcm
Batch File	C:\LabSolutions\Data\AutoSamplerTesting\06022023.gcb
Report Format File	c:\LabSolutions\System\DEFAULT.lsr

[File Description]


[Configuration]
Instrument Name	C0B7VH3-Instrument1
Instrument #	1
Line #	1
# of Detectors	3
Detector ID	DET#1	DET#2	DET#3
Detector Name	FID	PTCD	ECD
# of Channels	1	1	1

[Peak Table(Ch1)]
# of Peaks	4
Peak#	R.Time	I.Time	F.Time	Area	Height	A/H	Conc.	Mark	ID#	Name	k'	Plate #	Plate Ht.	Tailing	Resolution	Sep.Factor	Area Ratio	Height Ratio	Conc. %	Norm Conc.
1	1.472	1.435	1.516	2192	1130	1.940	0.000	   	1	CO	0.000	9826	15.266	1.168	0.000	0.000	0	0	0.000	0.000
2	1.564	1.531	1.615	4489	2326	1.930	21.887	   	2	CH4	0.062	11867	12.640	1.091	1.569	0.000	0	0	6.497	6.497
3	1.989	1.941	2.458	1634551	793264	2.061	315.008	   	3	CO2	0.351	17114	8.765	1.243	7.195	5.640	0	0	93.503	93.503
4	3.133	3.045	3.206	228	40	5.705	0.000	   	5	Acetylene	1.128	3981	37.677	1.013	8.819	3.213	0	0	0.000	0.000

[Peak Table(Ch2)]
# of Peaks	0

[Peak Table(Ch3)]
# of Peaks	4
Peak#	R.Time	I.Time	F.Time	Area	Height	A/H	Conc.	Mark	ID#	Name	k'	Plate #	Plate Ht.	Tailing	Resolution	Sep.Factor	Area Ratio	Height Ratio	Conc. %	Norm Conc.
1	2.499	2.440	2.532	3056	709	4.310	0.000	   			0.000	814	184.349	0.000	0.000	0.000	0	0	0.000	0.000
2	2.565	2.532	2.664	4753	693	6.855	0.000	 V 			0.026	121	1235.846	0.000	0.103	0.000	0	0	0.000	0.000
3	2.715	2.664	2.803	4245	546	7.768	0.000	 V 			0.087	43	3454.608	0.000	0.117	3.278	0	0	0.000	0.000
4	2.891	2.803	3.936	36920	5241	7.044	0.546	 V 	1	N2O	0.157	11805	12.707	0.000	0.201	1.814	0	0	100.000	100.000

[Compound Results(Ch1)]
# of IDs	6
ID#	Name	R.Time	Area	Height	Conc.	Curve	3rd	2nd	1st	Constant	Area Ratio	Height Ratio	Conc. %	Norm Conc.
1	CO	1.472	2192	1130	0.000	Linear	0.000000e+00	0.000000e+00	0.000000e+00	0.000000e+00	0	0	0.000	0.000
2	CH4	1.564	4489	2326	21.887	Linear	0.000000e+00	0.000000e+00	2.051179e+002	0.000000e+00	0	0	6.497	6.497
3	CO2	1.989	1634551	793264	315.008	Linear	0.000000e+00	0.000000e+00	5.188919e+003	0.000000e+00	0	0	93.503	93.503
4	Ethylene	0.000	0	0	0.000	Linear	0.000000e+00	0.000000e+00	0.000000e+00	0.000000e+00	0	0	0.000	0.000
5	Acetylene	3.133	228	40	0.000	Linear	0.000000e+00	0.000000e+00	0.000000e+00	0.000000e+00	0	0	0.000	0.000
6	Ethane	0.000	0	0	0.000	Linear	0.000000e+00	0.000000e+00	0.000000e+00	0.000000e+00	0	0	0.000	0.000

[Compound Results(Ch2)]
# of IDs	5
ID#	Name	R.Time	Area	Height	Conc.	Curve	3rd	2nd	1st	Constant	Area Ratio	Height Ratio	Conc. %	Norm Conc.
1	Hydrogen	0.000	0	0	0.000	Linear	0.000000e+00	0.000000e+00	0.000000e+00	0.000000e+00	0	0	0.000	0.000
2	Oxygen	0.000	0	0	0.000	Linear	0.000000e+00	0.000000e+00	0.000000e+00	0.000000e+00	0	0	0.000	0.000
3	Nitrogen	0.000	0	0	0.000	Linear	0.000000e+00	0.000000e+00	0.000000e+00	0.000000e+00	0	0	0.000	0.000
4	Methane	0.000	0	0	0.000	Linear	0.000000e+00	0.000000e+00	0.000000e+00	0.000000e+00	0	0	0.000	0.000
5	Carbon Monoxide	0.000	0	0	0.000	Linear	0.000000e+00	0.000000e+00	0.000000e+00	0.000000e+00	0	0	0.000	0.000

[Compound Results(Ch3)]
# of IDs	2
ID#	Name	R.Time	Area	Height	Conc.	Curve	3rd	2nd	1st	Constant	Area Ratio	Height Ratio	Conc. %	Norm Conc.
1	N2O	2.891	36920	5241	0.546	Linear	0.000000e+00	0.000000e+00	6.759880e+004	0.000000e+00	0	0	100.000	100.000
2	SF6	0.000	0	0	0.000	Linear	0.000000e+00	0.000000e+00	0.000000e+00	0.000000e+00	0	0	0.000	0.000

[Group Results(Ch1)]
# of Groups	0

[Group Results(Ch2)]
# of Groups	0

[Group Results(Ch3)]
# of Groups	0

[Chromatogram (Ch1)]
Interval(msec)	220
# of Points	1091
Start Time(min)	0.002
End Time(min)	3.998
R.Time (min)	Intensity
0.00167	-10
0.00533	-2
0.00900	6
0.01267	10
0.01633	11
0.02000	12
0.02367	14
0.02733	14
0.03100	14
0.03467	13
0.03833	10
0.04200	8
0.04567	10
0.04933	14
0.05300	18
0.05667	21
0.06033	23
0.06400	23
0.06767	21
0.07133	16
0.07500	10
0.07867	5
0.08233	2
0.08600	2
0.08967	7
0.09333	16
0.09700	20
0.10067	19
0.10433	15
0.10800	11
0.11167	10
0.11533	12
0.11900	15
0.12267	18
0.12633	18
0.13000	13
0.13367	8
0.13733	3
0.14100	-1
0.14467	0
0.14833	3
0.15200	8
0.15567	16
0.15933	23
0.16300	23
0.16667	17
0.17033	10
0.17400	2
0.17767	-5
0.18133	-10
0.18500	-12
0.18867	-8
0.19233	-1
0.19600	9
0.19967	18
0.20333	21
0.20700	17
0.21067	9
0.21433	3
0.21800	1
0.22167	-2
0.22533	-6
0.22900	-8
0.23267	-5
0.23633	0
0.24000	7
0.24367	13
0.24733	15
0.25100	13
0.25467	10
0.25833	8
0.26200	8
0.26567	6
0.26933	2
0.27300	-2
0.27667	-4
0.28033	-5
0.28400	-5
0.28767	-3
0.29133	-1
0.29500	-0
0.29867	-1
0.30233	-2
0.30600	-3
0.30967	-3
0.31333	-4
0.31700	-3
0.32067	4
0.32433	16
0.32800	25
0.33167	29
0.33533	30
0.33900	29
0.34267	27
0.34633	22
0.35000	18
0.35367	16
0.35733	11
0.36100	3
0.36467	-5
0.36833	-11
0.37200	-15
0.37567	-16
0.37933	-15
0.38300	-15
0.38667	-15
0.39033	-15
0.39400	-10
0.39767	-1
0.40133	5
0.40500	6
0.40867	4
0.41233	0
0.41600	-4
0.41967	-4
0.42333	-2
0.42700	-1
0.43067	3
0.43433	7
0.43800	7
0.44167	4
0.44533	-2
0.44900	-10
0.45267	-16
0.45633	-21
0.46000	-25
0.46367	-24
0.46733	-22
0.47100	-21
0.47467	-20
0.47833	-17
0.48200	-16
0.48567	-16
0.48933	-17
0.49300	-20
0.49667	-23
0.50033	-22
0.50400	-17
0.50767	-9
0.51133	-0
0.51500	5
0.51867	6
0.52233	3
0.52600	0
0.52967	-2
0.53333	-5
0.53700	-7
0.54067	-4
0.54433	1
0.54800	7
0.55167	12
0.55533	12
0.55900	6
0.56267	-2
0.56633	-12
0.57000	-22
0.57367	-27
0.57733	-26
0.58100	-25
0.58467	-25
0.58833	-24
0.59200	-22
0.59567	-18
0.59933	-11
0.60300	-5
0.60667	-0
0.61033	3
0.61400	2
0.61767	-2
0.62133	-6
0.62500	-8
0.62867	-4
0.63233	1
0.63600	4
0.63967	3
0.64333	-1
0.64700	-6
0.65067	-9
0.65433	-12
0.65800	-19
0.66167	-26
0.66533	-30
0.66900	-32
0.67267	-34
0.67633	-35
0.68000	-33
0.68367	-26
0.68733	-19
0.69100	-11
0.69467	-3
0.69833	3
0.70200	3
0.70567	-5
0.70933	-16
0.71300	-25
0.71667	-25
0.72033	-23
0.72400	-22
0.72767	-20
0.73133	-17
0.73500	-13
0.73867	-7
0.74233	-2
0.74600	2
0.74967	1
0.75333	-6
0.75700	-15
0.76067	-16
0.76433	-14
0.76800	-10
0.77167	-9
0.77533	-11
0.77900	-14
0.78267	-18
0.78633	-24
0.79000	-36
0.79367	-49
0.79733	-60
0.80100	-66
0.80467	-67
0.80833	-65
0.81200	-58
0.81567	-48
0.81933	-37
0.82300	-28
0.82667	-21
0.83033	-20
0.83400	-22
0.83767	-26
0.84133	-30
0.84500	-32
0.84867	-31
0.85233	-27
0.85600	-24
0.85967	-17
0.86333	-9
0.86700	-4
0.87067	-2
0.87433	-1
0.87800	1
0.88167	5
0.88533	5
0.88900	-1
0.89267	-9
0.89633	-15
0.90000	-19
0.90367	-23
0.90733	-25
0.91100	-22
0.91467	-20
0.91833	-20
0.92200	-20
0.92567	-21
0.92933	-24
0.93300	-26
0.93667	-26
0.94033	-29
0.94400	-30
0.94767	-28
0.95133	-26
0.95500	-24
0.95867	-19
0.96233	-11
0.96600	-6
0.96967	-5
0.97333	-9
0.97700	-14
0.98067	-21
0.98433	-24
0.98800	-23
0.99167	-20
0.99533	-17
0.99900	-16
1.00267	-17
1.00633	-19
1.01000	-19
1.01367	-20
1.01733	-22
1.02100	-27
1.02467	-33
1.02833	-39
1.03200	-47
1.03567	-53
1.03933	-53
1.04300	-47
1.04667	-38
1.05033	-30
1.05400	-23
1.05767	-18
1.06133	-16
1.06500	-14
1.06867	-16
1.07233	-21
1.07600	-26
1.07967	-28
1.08333	-29
1.08700	-33
1.09067	-38
1.09433	-41
1.09800	-41
1.10167	-38
1.10533	-36
1.10900	-34
1.11267	-31
1.11633	-31
1.12000	-33
1.12367	-32
1.12733	-32
1.13100	-32
1.13467	-34
1.13833	-40
1.14200	-45
1.14567	-46
1.14933	-45
1.15300	-41
1.15667	-34
1.16033	-27
1.16400	-26
1.16767	-30
1.17133	-38
1.17500	-43
1.17867	-45
1.18233	-43
1.18600	-39
1.18967	-39
1.19333	-42
1.19700	-47
1.20067	-50
1.20433	-51
1.20800	-51
1.21167	-49
1.21533	-44
1.21900	-41
1.22267	-38
1.22633	-37
1.23000	-32
1.23367	-28
1.23733	-27
1.24100	-29
1.24467	-29
1.24833	-31
1.25200	-35
1.25567	-38
1.25933	-38
1.26300	-37
1.26667	-35
1.27033	-32
1.27400	-31
1.27767	-32
1.28133	-33
1.28500	-36
1.28867	-40
1.29233	-44
1.29600	-43
1.29967	-40
1.30333	-36
1.30700	-34
1.31067	-35
1.31433	-38
1.31800	-39
1.32167	-39
1.32533	-39
1.32900	-39
1.33267	-41
1.33633	-46
1.34000	-50
1.34367	-55
1.34733	-57
1.35100	-53
1.35467	-44
1.35833	-39
1.36200	-41
1.36567	-44
1.36933	-47
1.37300	-48
1.37667	-46
1.38033	-42
1.38400	-36
1.38767	-33
1.39133	-33
1.39500	-35
1.39867	-34
1.40233	-33
1.40600	-39
1.40967	-46
1.41333	-50
1.41700	-50
1.42067	-48
1.42433	-43
1.42800	-42
1.43167	-41
1.43533	-32
1.43900	-9
1.44267	7
1.44633	37
1.45000	144
1.45367	330
1.45733	541
1.46100	740
1.46467	912
1.46833	1041
1.47200	1104
1.47567	1078
1.47933	962
1.48300	788
1.48667	600
1.49033	432
1.49400	299
1.49767	200
1.50133	129
1.50500	75
1.50867	30
1.51233	-1
1.51600	-18
1.51967	-26
1.52333	-32
1.52700	-38
1.53067	-34
1.53433	18
1.53800	185
1.54167	512
1.54533	956
1.54900	1421
1.55267	1823
1.55633	2120
1.56000	2284
1.56367	2284
1.56733	2107
1.57100	1783
1.57467	1391
1.57833	1011
1.58200	692
1.58567	449
1.58933	273
1.59300	150
1.59667	68
1.60033	16
1.60400	-17
1.60767	-35
1.61133	-45
1.61500	-53
1.61867	-57
1.62233	-60
1.62600	-63
1.62967	-64
1.63333	-60
1.63700	-57
1.64067	-59
1.64433	-64
1.64800	-72
1.65167	-81
1.65533	-88
1.65900	-89
1.66267	-86
1.66633	-82
1.67000	-77
1.67367	-72
1.67733	-67
1.68100	-62
1.68467	-58
1.68833	-56
1.69200	-58
1.69567	-63
1.69933	-66
1.70300	-73
1.70667	-77
1.71033	-79
1.71400	-79
1.71767	-76
1.72133	-74
1.72500	-73
1.72867	-73
1.73233	-73
1.73600	-73
1.73967	-72
1.74333	-71
1.74700	-70
1.75067	-70
1.75433	-71
1.75800	-74
1.76167	-77
1.76533	-79
1.76900	-78
1.77267	-80
1.77633	-82
1.78000	-82
1.78367	-81
1.78733	-78
1.79100	-73
1.79467	-68
1.79833	-64
1.80200	-64
1.80567	-66
1.80933	-70
1.81300	-75
1.81667	-81
1.82033	-85
1.82400	-86
1.82767	-86
1.83133	-85
1.83500	-84
1.83867	-83
1.84233	-84
1.84600	-83
1.84967	-78
1.85333	-77
1.85700	-78
1.86067	-79
1.86433	-79
1.86800	-74
1.87167	-70
1.87533	-67
1.87900	-65
1.88267	-65
1.88633	-67
1.89000	-72
1.89367	-77
1.89733	-82
1.90100	-86
1.90467	-88
1.90833	-86
1.91200	-81
1.91567	-73
1.91933	-63
1.92300	-55
1.92667	-49
1.93033	-46
1.93400	-44
1.93767	-43
1.94133	-42
1.94500	-24
1.94867	150
1.95233	1183
1.95600	5785
1.95967	21105
1.96333	60083
1.96700	136881
1.97067	255716
1.97433	403527
1.97800	554544
1.98167	681974
1.98533	765514
1.98900	793253
1.99267	763013
1.99633	683822
2.00000	573807
2.00367	454067
2.00733	342206
2.01100	248446
2.01467	175785
2.01833	122539
2.02200	84998
2.02567	59188
2.02933	41708
2.03300	29949
2.03667	22033
2.04033	16665
2.04400	12981
2.04767	10406
2.05133	8566
2.05500	7221
2.05867	6215
2.06233	5445
2.06600	4841
2.06967	4355
2.07333	3953
2.07700	3611
2.08067	3312
2.08433	3050
2.08800	2825
2.09167	2629
2.09533	2460
2.09900	2311
2.10267	2178
2.10633	2055
2.11000	1943
2.11367	1839
2.11733	1745
2.12100	1658
2.12467	1576
2.12833	1502
2.13200	1438
2.13567	1387
2.13933	1343
2.14300	1303
2.14667	1266
2.15033	1228
2.15400	1186
2.15767	1139
2.16133	1091
2.16500	1043
2.16867	997
2.17233	956
2.17600	920
2.17967	888
2.18333	857
2.18700	828
2.19067	803
2.19433	781
2.19800	763
2.20167	748
2.20533	734
2.20900	721
2.21267	704
2.21633	683
2.22000	660
2.22367	637
2.22733	617
2.23100	605
2.23467	596
2.23833	587
2.24200	579
2.24567	569
2.24933	558
2.25300	546
2.25667	535
2.26033	527
2.26400	519
2.26767	511
2.27133	501
2.27500	491
2.27867	483
2.28233	475
2.28600	464
2.28967	454
2.29333	447
2.29700	440
2.30067	433
2.30433	425
2.30800	419
2.31167	417
2.31533	418
2.31900	414
2.32267	408
2.32633	402
2.33000	395
2.33367	389
2.33733	382
2.34100	375
2.34467	366
2.34833	357
2.35200	352
2.35567	351
2.35933	353
2.36300	357
2.36667	356
2.37033	352
2.37400	344
2.37767	332
2.38133	322
2.38500	314
2.38867	308
2.39233	308
2.39600	310
2.39967	312
2.40333	315
2.40700	321
2.41067	329
2.41433	333
2.41800	331
2.42167	326
2.42533	319
2.42900	313
2.43267	306
2.43633	302
2.44000	303
2.44367	302
2.44733	299
2.45100	297
2.45467	295
2.45833	291
2.46200	286
2.46567	283
2.46933	283
2.47300	282
2.47667	281
2.48033	280
2.48400	285
2.48767	294
2.49133	300
2.49500	302
2.49867	300
2.50233	296
2.50600	294
2.50967	293
2.51333	293
2.51700	292
2.52067	291
2.52433	291
2.52800	290
2.53167	291
2.53533	291
2.53900	290
2.54267	286
2.54633	279
2.55000	271
2.55367	264
2.55733	263
2.56100	265
2.56467	264
2.56833	262
2.57200	258
2.57567	255
2.57933	251
2.58300	250
2.58667	253
2.59033	257
2.59400	261
2.59767	265
2.60133	270
2.60500	275
2.60867	279
2.61233	285
2.61600	292
2.61967	298
2.62333	298
2.62700	289
2.63067	277
2.63433	267
2.63800	263
2.64167	266
2.64533	276
2.64900	287
2.65267	293
2.65633	295
2.66000	296
2.66367	295
2.66733	293
2.67100	293
2.67467	294
2.67833	294
2.68200	291
2.68567	288
2.68933	287
2.69300	287
2.69667	290
2.70033	299
2.70400	310
2.70767	316
2.71133	316
2.71500	315
2.71867	314
2.72233	312
2.72600	307
2.72967	302
2.73333	300
2.73700	300
2.74067	300
2.74433	302
2.74800	307
2.75167	311
2.75533	311
2.75900	312
2.76267	316
2.76633	321
2.77000	329
2.77367	337
2.77733	339
2.78100	337
2.78467	334
2.78833	332
2.79200	333
2.79567	333
2.79933	330
2.80300	326
2.80667	322
2.81033	320
2.81400	319
2.81767	318
2.82133	316
2.82500	316
2.82867	315
2.83233	314
2.83600	315
2.83967	319
2.84333	323
2.84700	328
2.85067	336
2.85433	343
2.85800	343
2.86167	342
2.86533	340
2.86900	337
2.87267	334
2.87633	332
2.88000	328
2.88367	324
2.88733	322
2.89100	320
2.89467	322
2.89833	326
2.90200	328
2.90567	329
2.90933	333
2.91300	338
2.91667	344
2.92033	350
2.92400	354
2.92767	357
2.93133	358
2.93500	358
2.93867	359
2.94233	363
2.94600	367
2.94967	371
2.95333	373
2.95700	375
2.96067	374
2.96433	369
2.96800	364
2.97167	361
2.97533	360
2.97900	359
2.98267	361
2.98633	364
2.99000	370
2.99367	378
2.99733	381
3.00100	378
3.00467	374
3.00833	369
3.01200	362
3.01567	351
3.01933	337
3.02300	327
3.02667	321
3.03033	319
3.03400	322
3.03767	327
3.04133	333
3.04500	340
3.04867	343
3.05233	343
3.05600	341
3.05967	340
3.06333	341
3.06700	342
3.07067	345
3.07433	352
3.07800	363
3.08167	370
3.08533	372
3.08900	370
3.09267	368
3.09633	364
3.10000	362
3.10367	363
3.10733	363
3.11100	364
3.11467	367
3.11833	368
3.12200	366
3.12567	368
3.12933	374
3.13300	376
3.13667	374
3.14033	368
3.14400	366
3.14767	367
3.15133	368
3.15500	366
3.15867	364
3.16233	361
3.16600	360
3.16967	359
3.17333	359
3.17700	361
3.18067	364
3.18433	363
3.18800	362
3.19167	362
3.19533	361
3.19900	355
3.20267	344
3.20633	333
3.21000	327
3.21367	324
3.21733	327
3.22100	334
3.22467	344
3.22833	350
3.23200	351
3.23567	351
3.23933	352
3.24300	351
3.24667	352
3.25033	357
3.25400	362
3.25767	365
3.26133	365
3.26500	360
3.26867	353
3.27233	349
3.27600	347
3.27967	346
3.28333	348
3.28700	350
3.29067	352
3.29433	355
3.29800	359
3.30167	360
3.30533	361
3.30900	357
3.31267	353
3.31633	353
3.32000	355
3.32367	357
3.32733	355
3.33100	354
3.33467	353
3.33833	349
3.34200	346
3.34567	345
3.34933	344
3.35300	343
3.35667	345
3.36033	348
3.36400	350
3.36767	352
3.37133	351
3.37500	349
3.37867	347
3.38233	347
3.38600	347
3.38967	349
3.39333	351
3.39700	351
3.40067	348
3.40433	344
3.40800	342
3.41167	338
3.41533	333
3.41900	330
3.42267	331
3.42633	337
3.43000	341
3.43367	342
3.43733	342
3.44100	340
3.44467	336
3.44833	330
3.45200	323
3.45567	314
3.45933	307
3.46300	303
3.46667	302
3.47033	306
3.47400	312
3.47767	317
3.48133	319
3.48500	318
3.48867	315
3.49233	316
3.49600	322
3.49967	328
3.50333	331
3.50700	335
3.51067	341
3.51433	345
3.51800	343
3.52167	337
3.52533	331
3.52900	327
3.53267	325
3.53633	322
3.54000	318
3.54367	315
3.54733	316
3.55100	317
3.55467	320
3.55833	320
3.56200	317
3.56567	313
3.56933	311
3.57300	314
3.57667	316
3.58033	317
3.58400	320
3.58767	326
3.59133	328
3.59500	327
3.59867	326
3.60233	326
3.60600	326
3.60967	323
3.61333	322
3.61700	321
3.62067	319
3.62433	316
3.62800	313
3.63167	309
3.63533	307
3.63900	305
3.64267	307
3.64633	311
3.65000	312
3.65367	311
3.65733	310
3.66100	309
3.66467	312
3.66833	316
3.67200	317
3.67567	315
3.67933	310
3.68300	305
3.68667	303
3.69033	302
3.69400	301
3.69767	303
3.70133	308
3.70500	309
3.70867	305
3.71233	301
3.71600	300
3.71967	302
3.72333	307
3.72700	314
3.73067	318
3.73433	319
3.73800	317
3.74167	310
3.74533	299
3.74900	291
3.75267	288
3.75633	290
3.76000	295
3.76367	301
3.76733	308
3.77100	314
3.77467	317
3.77833	317
3.78200	315
3.78567	311
3.78933	309
3.79300	304
3.79667	298
3.80033	297
3.80400	299
3.80767	304
3.81133	311
3.81500	318
3.81867	322
3.82233	322
3.82600	316
3.82967	310
3.83333	305
3.83700	302
3.84067	300
3.84433	297
3.84800	294
3.85167	294
3.85533	297
3.85900	299
3.86267	300
3.86633	297
3.87000	293
3.87367	287
3.87733	283
3.88100	280
3.88467	280
3.88833	285
3.89200	291
3.89567	295
3.89933	296
3.90300	294
3.90667	290
3.91033	285
3.91400	282
3.91767	281
3.92133	282
3.92500	283
3.92867	284
3.93233	283
3.93600	285
3.93967	288
3.94333	293
3.94700	302
3.95067	316
3.95433	322
3.95800	320
3.96167	313
3.96533	308
3.96900	306
3.97267	304
3.97633	299
3.98000	292
3.98367	281
3.98733	269
3.99100	259
3.99467	253
3.99833	249

[Chromatogram (Ch2)]
Interval(msec)	220
# of Points	1091
Start Time(min)	0.002
End Time(min)	3.998
R.Time (min)	Intensity
0.00167	0
0.00533	0
0.00900	0
0.01267	0
0.01633	0
0.02000	0
0.02367	-0
0.02733	-0
0.03100	-1
0.03467	-1
0.03833	-1
0.04200	-1
0.04567	-0
0.04933	-0
0.05300	-0
0.05667	-0
0.06033	-1
0.06400	-1
0.06767	-1
0.07133	-1
0.07500	-1
0.07867	-1
0.08233	-0
0.08600	0
0.08967	1
0.09333	1
0.09700	1
0.10067	2
0.10433	2
0.10800	2
0.11167	2
0.11533	2
0.11900	2
0.12267	2
0.12633	1
0.13000	1
0.13367	1
0.13733	1
0.14100	0
0.14467	0
0.14833	0
0.15200	0
0.15567	0
0.15933	-0
0.16300	-0
0.16667	-1
0.17033	-1
0.17400	-1
0.17767	-1
0.18133	-0
0.18500	-0
0.18867	-1
0.19233	-1
0.19600	-1
0.19967	-1
0.20333	-1
0.20700	-1
0.21067	-1
0.21433	-1
0.21800	-1
0.22167	-1
0.22533	-2
0.22900	-2
0.23267	-2
0.23633	-2
0.24000	-2
0.24367	-2
0.24733	-1
0.25100	-1
0.25467	-1
0.25833	-1
0.26200	-1
0.26567	-1
0.26933	-0
0.27300	0
0.27667	1
0.28033	1
0.28400	2
0.28767	2
0.29133	2
0.29500	3
0.29867	3
0.30233	3
0.30600	3
0.30967	3
0.31333	3
0.31700	3
0.32067	3
0.32433	3
0.32800	2
0.33167	2
0.33533	2
0.33900	2
0.34267	2
0.34633	2
0.35000	2
0.35367	2
0.35733	2
0.36100	2
0.36467	2
0.36833	1
0.37200	1
0.37567	0
0.37933	0
0.38300	-0
0.38667	-0
0.39033	-0
0.39400	-0
0.39767	-0
0.40133	-0
0.40500	-0
0.40867	-0
0.41233	-0
0.41600	-0
0.41967	-0
0.42333	-1
0.42700	-1
0.43067	-1
0.43433	-2
0.43800	-2
0.44167	-2
0.44533	-2
0.44900	-2
0.45267	-2
0.45633	-2
0.46000	-1
0.46367	-1
0.46733	-1
0.47100	-1
0.47467	-1
0.47833	-1
0.48200	-1
0.48567	-2
0.48933	-2
0.49300	-2
0.49667	-2
0.50033	-2
0.50400	-2
0.50767	-2
0.51133	-2
0.51500	-1
0.51867	-1
0.52233	-1
0.52600	-1
0.52967	-1
0.53333	-1
0.53700	-1
0.54067	-0
0.54433	-0
0.54800	-0
0.55167	-1
0.55533	-1
0.55900	-1
0.56267	-1
0.56633	-1
0.57000	-1
0.57367	-1
0.57733	-1
0.58100	-1
0.58467	-1
0.58833	-1
0.59200	-1
0.59567	-1
0.59933	-1
0.60300	-1
0.60667	-1
0.61033	-1
0.61400	-1
0.61767	-1
0.62133	-1
0.62500	-1
0.62867	-2
0.63233	-2
0.63600	-2
0.63967	-2
0.64333	-2
0.64700	-2
0.65067	-2
0.65433	-2
0.65800	-2
0.66167	-2
0.66533	-2
0.66900	-2
0.67267	-2
0.67633	-2
0.68000	-1
0.68367	-1
0.68733	-1
0.69100	-1
0.69467	-1
0.69833	-1
0.70200	-0
0.70567	-0
0.70933	-0
0.71300	0
0.71667	0
0.72033	-0
0.72400	-0
0.72767	-0
0.73133	-1
0.73500	-1
0.73867	-1
0.74233	-1
0.74600	-1
0.74967	-1
0.75333	-1
0.75700	-1
0.76067	-1
0.76433	-0
0.76800	-0
0.77167	-0
0.77533	-1
0.77900	-1
0.78267	-1
0.78633	-2
0.79000	-2
0.79367	-3
0.79733	-3
0.80100	-3
0.80467	-3
0.80833	-3
0.81200	-3
0.81567	-3
0.81933	-3
0.82300	-3
0.82667	-3
0.83033	-3
0.83400	-3
0.83767	-3
0.84133	-3
0.84500	-2
0.84867	-2
0.85233	-2
0.85600	-2
0.85967	-2
0.86333	-2
0.86700	-2
0.87067	-2
0.87433	-2
0.87800	-2
0.88167	-2
0.88533	-2
0.88900	-1
0.89267	-1
0.89633	-1
0.90000	-1
0.90367	-1
0.90733	-1
0.91100	-1
0.91467	-1
0.91833	-1
0.92200	-2
0.92567	-2
0.92933	-2
0.93300	-2
0.93667	-2
0.94033	-2
0.94400	-2
0.94767	-1
0.95133	-1
0.95500	-2
0.95867	-2
0.96233	-2
0.96600	-2
0.96967	-1
0.97333	-1
0.97700	-1
0.98067	-1
0.98433	-1
0.98800	-0
0.99167	-0
0.99533	-0
0.99900	-0
1.00267	-0
1.00633	-0
1.01000	-1
1.01367	-1
1.01733	-0
1.02100	-0
1.02467	-0
1.02833	0
1.03200	-0
1.03567	0
1.03933	0
1.04300	0
1.04667	0
1.05033	0
1.05400	0
1.05767	-0
1.06133	-0
1.06500	-0
1.06867	-0
1.07233	-0
1.07600	0
1.07967	0
1.08333	1
1.08700	1
1.09067	1
1.09433	1
1.09800	1
1.10167	1
1.10533	1
1.10900	1
1.11267	1
1.11633	1
1.12000	1
1.12367	1
1.12733	1
1.13100	1
1.13467	1
1.13833	1
1.14200	1
1.14567	1
1.14933	1
1.15300	1
1.15667	2
1.16033	2
1.16400	1
1.16767	1
1.17133	1
1.17500	1
1.17867	0
1.18233	-0
1.18600	-1
1.18967	-1
1.19333	-1
1.19700	-2
1.20067	-2
1.20433	-2
1.20800	-3
1.21167	-3
1.21533	-4
1.21900	-4
1.22267	-4
1.22633	-5
1.23000	-5
1.23367	-4
1.23733	-4
1.24100	-4
1.24467	-4
1.24833	-4
1.25200	-4
1.25567	-4
1.25933	-3
1.26300	-3
1.26667	-3
1.27033	-3
1.27400	-4
1.27767	-3
1.28133	-3
1.28500	-3
1.28867	-3
1.29233	-3
1.29600	-3
1.29967	-3
1.30333	-3
1.30700	-3
1.31067	-3
1.31433	-3
1.31800	-3
1.32167	-3
1.32533	-3
1.32900	-3
1.33267	-3
1.33633	-3
1.34000	-2
1.34367	-2
1.34733	-2
1.35100	-1
1.35467	-1
1.35833	-1
1.36200	-1
1.36567	-1
1.36933	-1
1.37300	-1
1.37667	-1
1.38033	-1
1.38400	-1
1.38767	-1
1.39133	-1
1.39500	-1
1.39867	-2
1.40233	-2
1.40600	-2
1.40967	-2
1.41333	-2
1.41700	-2
1.42067	-2
1.42433	-2
1.42800	-2
1.43167	-2
1.43533	-2
1.43900	-2
1.44267	-3
1.44633	-3
1.45000	-3
1.45367	-3
1.45733	-3
1.46100	-2
1.46467	-2
1.46833	-2
1.47200	-2
1.47567	-1
1.47933	-1
1.48300	-2
1.48667	-2
1.49033	-2
1.49400	-2
1.49767	-2
1.50133	-2
1.50500	-2
1.50867	-2
1.51233	-2
1.51600	-2
1.51967	-2
1.52333	-2
1.52700	-1
1.53067	-1
1.53433	-1
1.53800	-1
1.54167	-1
1.54533	-1
1.54900	-1
1.55267	-2
1.55633	-2
1.56000	-2
1.56367	-2
1.56733	-2
1.57100	-1
1.57467	-1
1.57833	-1
1.58200	-1
1.58567	-1
1.58933	-1
1.59300	-2
1.59667	-3
1.60033	-4
1.60400	-6
1.60767	-7
1.61133	-9
1.61500	-12
1.61867	-14
1.62233	-17
1.62600	-19
1.62967	-22
1.63333	-25
1.63700	-28
1.64067	-31
1.64433	-34
1.64800	-37
1.65167	-40
1.65533	-43
1.65900	-47
1.66267	-50
1.66633	-54
1.67000	-57
1.67367	-61
1.67733	-66
1.68100	-71
1.68467	-75
1.68833	-80
1.69200	-84
1.69567	-87
1.69933	-90
1.70300	-92
1.70667	-94
1.71033	-95
1.71400	-95
1.71767	-96
1.72133	-96
1.72500	-96
1.72867	-97
1.73233	-97
1.73600	-98
1.73967	-99
1.74333	-100
1.74700	-100
1.75067	-101
1.75433	-102
1.75800	-102
1.76167	-102
1.76533	-102
1.76900	-102
1.77267	-102
1.77633	-102
1.78000	-102
1.78367	-103
1.78733	-103
1.79100	-103
1.79467	-103
1.79833	-104
1.80200	-104
1.80567	-105
1.80933	-105
1.81300	-105
1.81667	-106
1.82033	-106
1.82400	-106
1.82767	-105
1.83133	-105
1.83500	-106
1.83867	-106
1.84233	-105
1.84600	-105
1.84967	-105
1.85333	-105
1.85700	-105
1.86067	-104
1.86433	-104
1.86800	-104
1.87167	-103
1.87533	-103
1.87900	-103
1.88267	-103
1.88633	-102
1.89000	-102
1.89367	-102
1.89733	-102
1.90100	-103
1.90467	-103
1.90833	-103
1.91200	-103
1.91567	-102
1.91933	-102
1.92300	-101
1.92667	-101
1.93033	-101
1.93400	-101
1.93767	-100
1.94133	-100
1.94500	-100
1.94867	-100
1.95233	-101
1.95600	-101
1.95967	-101
1.96333	-101
1.96700	-100
1.97067	-100
1.97433	-99
1.97800	-99
1.98167	-98
1.98533	-98
1.98900	-97
1.99267	-97
1.99633	-96
2.00000	-96
2.00367	-96
2.00733	-95
2.01100	-95
2.01467	-94
2.01833	-93
2.02200	-93
2.02567	-93
2.02933	-93
2.03300	-93
2.03667	-93
2.04033	-94
2.04400	-94
2.04767	-93
2.05133	-93
2.05500	-92
2.05867	-92
2.06233	-92
2.06600	-92
2.06967	-92
2.07333	-91
2.07700	-91
2.08067	-91
2.08433	-91
2.08800	-91
2.09167	-91
2.09533	-90
2.09900	-89
2.10267	-89
2.10633	-88
2.11000	-88
2.11367	-88
2.11733	-87
2.12100	-87
2.12467	-87
2.12833	-87
2.13200	-86
2.13567	-86
2.13933	-85
2.14300	-85
2.14667	-85
2.15033	-86
2.15400	-87
2.15767	-87
2.16133	-88
2.16500	-88
2.16867	-88
2.17233	-88
2.17600	-87
2.17967	-87
2.18333	-86
2.18700	-85
2.19067	-85
2.19433	-85
2.19800	-85
2.20167	-85
2.20533	-86
2.20900	-85
2.21267	-85
2.21633	-83
2.22000	-82
2.22367	-82
2.22733	-81
2.23100	-81
2.23467	-81
2.23833	-81
2.24200	-80
2.24567	-80
2.24933	-79
2.25300	-79
2.25667	-78
2.26033	-78
2.26400	-78
2.26767	-78
2.27133	-79
2.27500	-80
2.27867	-80
2.28233	-80
2.28600	-80
2.28967	-80
2.29333	-78
2.29700	-77
2.30067	-76
2.30433	-75
2.30800	-74
2.31167	-74
2.31533	-73
2.31900	-73
2.32267	-73
2.32633	-73
2.33000	-73
2.33367	-72
2.33733	-72
2.34100	-71
2.34467	-70
2.34833	-69
2.35200	-68
2.35567	-67
2.35933	-66
2.36300	-64
2.36667	-63
2.37033	-61
2.37400	-58
2.37767	-56
2.38133	-52
2.38500	-48
2.38867	-45
2.39233	-41
2.39600	-36
2.39967	-32
2.40333	-27
2.40700	-23
2.41067	-19
2.41433	-15
2.41800	-12
2.42167	-9
2.42533	-7
2.42900	-5
2.43267	-3
2.43633	-2
2.44000	-0
2.44367	1
2.44733	3
2.45100	4
2.45467	5
2.45833	6
2.46200	7
2.46567	8
2.46933	8
2.47300	9
2.47667	9
2.48033	10
2.48400	10
2.48767	11
2.49133	12
2.49500	13
2.49867	13
2.50233	14
2.50600	14
2.50967	14
2.51333	14
2.51700	13
2.52067	12
2.52433	12
2.52800	11
2.53167	10
2.53533	10
2.53900	9
2.54267	8
2.54633	8
2.55000	8
2.55367	8
2.55733	9
2.56100	9
2.56467	10
2.56833	11
2.57200	12
2.57567	13
2.57933	13
2.58300	14
2.58667	14
2.59033	15
2.59400	16
2.59767	16
2.60133	17
2.60500	17
2.60867	16
2.61233	16
2.61600	16
2.61967	16
2.62333	16
2.62700	16
2.63067	17
2.63433	18
2.63800	18
2.64167	19
2.64533	19
2.64900	19
2.65267	19
2.65633	19
2.66000	20
2.66367	20
2.66733	21
2.67100	22
2.67467	22
2.67833	23
2.68200	23
2.68567	23
2.68933	23
2.69300	23
2.69667	24
2.70033	24
2.70400	24
2.70767	24
2.71133	24
2.71500	25
2.71867	25
2.72233	25
2.72600	26
2.72967	26
2.73333	26
2.73700	26
2.74067	26
2.74433	26
2.74800	26
2.75167	26
2.75533	26
2.75900	25
2.76267	25
2.76633	25
2.77000	25
2.77367	26
2.77733	26
2.78100	26
2.78467	26
2.78833	27
2.79200	27
2.79567	27
2.79933	27
2.80300	28
2.80667	28
2.81033	28
2.81400	28
2.81767	28
2.82133	28
2.82500	28
2.82867	29
2.83233	29
2.83600	29
2.83967	28
2.84333	28
2.84700	28
2.85067	27
2.85433	27
2.85800	26
2.86167	25
2.86533	22
2.86900	17
2.87267	10
2.87633	-1
2.88000	-16
2.88367	-36
2.88733	-61
2.89100	-91
2.89467	-127
2.89833	-167
2.90200	-212
2.90567	-262
2.90933	-315
2.91300	-372
2.91667	-431
2.92033	-492
2.92400	-554
2.92767	-617
2.93133	-679
2.93500	-740
2.93867	-798
2.94233	-854
2.94600	-906
2.94967	-961
2.95333	-1017
2.95700	-1068
2.96067	-1104
2.96433	-1116
2.96800	-1103
2.97167	-1067
2.97533	-1011
2.97900	-941
2.98267	-864
2.98633	-782
2.99000	-701
2.99367	-623
2.99733	-549
3.00100	-480
3.00467	-418
3.00833	-362
3.01200	-312
3.01567	-267
3.01933	-229
3.02300	-195
3.02667	-165
3.03033	-139
3.03400	-117
3.03767	-97
3.04133	-81
3.04500	-66
3.04867	-54
3.05233	-44
3.05600	-35
3.05967	-28
3.06333	-22
3.06700	-16
3.07067	-11
3.07433	-7
3.07800	-4
3.08167	-1
3.08533	2
3.08900	4
3.09267	6
3.09633	7
3.10000	9
3.10367	10
3.10733	11
3.11100	13
3.11467	14
3.11833	14
3.12200	15
3.12567	16
3.12933	17
3.13300	17
3.13667	18
3.14033	18
3.14400	19
3.14767	19
3.15133	19
3.15500	19
3.15867	19
3.16233	20
3.16600	20
3.16967	20
3.17333	20
3.17700	21
3.18067	21
3.18433	21
3.18800	21
3.19167	21
3.19533	21
3.19900	21
3.20267	22
3.20633	22
3.21000	22
3.21367	22
3.21733	23
3.22100	23
3.22467	23
3.22833	23
3.23200	23
3.23567	24
3.23933	24
3.24300	24
3.24667	24
3.25033	24
3.25400	24
3.25767	24
3.26133	24
3.26500	24
3.26867	24
3.27233	24
3.27600	24
3.27967	24
3.28333	24
3.28700	24
3.29067	25
3.29433	25
3.29800	25
3.30167	25
3.30533	26
3.30900	26
3.31267	26
3.31633	27
3.32000	27
3.32367	28
3.32733	28
3.33100	29
3.33467	29
3.33833	29
3.34200	29
3.34567	30
3.34933	30
3.35300	30
3.35667	30
3.36033	30
3.36400	31
3.36767	30
3.37133	30
3.37500	30
3.37867	30
3.38233	30
3.38600	30
3.38967	30
3.39333	30
3.39700	31
3.40067	31
3.40433	31
3.40800	30
3.41167	30
3.41533	30
3.41900	30
3.42267	30
3.42633	30
3.43000	30
3.43367	30
3.43733	30
3.44100	30
3.44467	30
3.44833	30
3.45200	30
3.45567	30
3.45933	30
3.46300	30
3.46667	29
3.47033	29
3.47400	29
3.47767	29
3.48133	29
3.48500	29
3.48867	29
3.49233	29
3.49600	29
3.49967	29
3.50333	30
3.50700	30
3.51067	30
3.51433	30
3.51800	30
3.52167	30
3.52533	30
3.52900	30
3.53267	30
3.53633	30
3.54000	30
3.54367	30
3.54733	30
3.55100	30
3.55467	30
3.55833	30
3.56200	30
3.56567	30
3.56933	30
3.57300	30
3.57667	29
3.58033	29
3.58400	29
3.58767	29
3.59133	29
3.59500	29
3.59867	29
3.60233	29
3.60600	29
3.60967	29
3.61333	28
3.61700	28
3.62067	28
3.62433	28
3.62800	28
3.63167	28
3.63533	28
3.63900	28
3.64267	28
3.64633	28
3.65000	28
3.65367	28
3.65733	28
3.66100	29
3.66467	29
3.66833	29
3.67200	29
3.67567	29
3.67933	29
3.68300	29
3.68667	29
3.69033	29
3.69400	29
3.69767	29
3.70133	29
3.70500	29
3.70867	29
3.71233	29
3.71600	29
3.71967	29
3.72333	30
3.72700	30
3.73067	30
3.73433	30
3.73800	30
3.74167	30
3.74533	30
3.74900	30
3.75267	30
3.75633	30
3.76000	30
3.76367	30
3.76733	29
3.77100	29
3.77467	29
3.77833	29
3.78200	29
3.78567	29
3.78933	29
3.79300	29
3.79667	29
3.80033	29
3.80400	29
3.80767	28
3.81133	28
3.81500	28
3.81867	28
3.82233	28
3.82600	28
3.82967	28
3.83333	28
3.83700	28
3.84067	28
3.84433	29
3.84800	29
3.85167	29
3.85533	29
3.85900	29
3.86267	29
3.86633	29
3.87000	29
3.87367	29
3.87733	29
3.88100	29
3.88467	29
3.88833	29
3.89200	29
3.89567	29
3.89933	28
3.90300	28
3.90667	28
3.91033	28
3.91400	28
3.91767	28
3.92133	28
3.92500	28
3.92867	28
3.93233	28
3.93600	27
3.93967	27
3.94333	27
3.94700	27
3.95067	27
3.95433	27
3.95800	27
3.96167	27
3.96533	27
3.96900	27
3.97267	27
3.97633	27
3.98000	27
3.98367	27
3.98733	28
3.99100	28
3.99467	28
3.99833	28

[Chromatogram (Ch3)]
Interval(msec)	220
# of Points	1091
Start Time(min)	0.002
End Time(min)	3.998
R.Time (min)	Intensity
0.00167	-0
0.00533	-0
0.00900	1
0.01267	0
0.01633	1
0.02000	2
0.02367	1
0.02733	-3
0.03100	-6
0.03467	-7
0.03833	-8
0.04200	-9
0.04567	-9
0.04933	-8
0.05300	-6
0.05667	-4
0.06033	-3
0.06400	-0
0.06767	1
0.07133	0
0.07500	-0
0.07867	0
0.08233	-0
0.08600	-1
0.08967	-1
0.09333	-0
0.09700	-0
0.10067	-1
0.10433	0
0.10800	1
0.11167	1
0.11533	3
0.11900	2
0.12267	1
0.12633	2
0.13000	2
0.13367	4
0.13733	4
0.14100	3
0.14467	1
0.14833	-1
0.15200	-3
0.15567	-3
0.15933	-3
0.16300	-2
0.16667	-1
0.17033	-0
0.17400	-1
0.17767	-0
0.18133	2
0.18500	4
0.18867	3
0.19233	1
0.19600	1
0.19967	2
0.20333	3
0.20700	4
0.21067	3
0.21433	2
0.21800	3
0.22167	4
0.22533	5
0.22900	5
0.23267	4
0.23633	2
0.24000	2
0.24367	3
0.24733	2
0.25100	1
0.25467	3
0.25833	6
0.26200	7
0.26567	6
0.26933	5
0.27300	4
0.27667	5
0.28033	7
0.28400	7
0.28767	8
0.29133	9
0.29500	13
0.29867	14
0.30233	13
0.30600	12
0.30967	12
0.31333	12
0.31700	10
0.32067	7
0.32433	5
0.32800	4
0.33167	5
0.33533	5
0.33900	6
0.34267	9
0.34633	11
0.35000	10
0.35367	7
0.35733	6
0.36100	6
0.36467	7
0.36833	9
0.37200	11
0.37567	11
0.37933	8
0.38300	5
0.38667	5
0.39033	8
0.39400	11
0.39767	12
0.40133	10
0.40500	8
0.40867	7
0.41233	7
0.41600	5
0.41967	6
0.42333	7
0.42700	7
0.43067	8
0.43433	7
0.43800	6
0.44167	6
0.44533	8
0.44900	10
0.45267	11
0.45633	10
0.46000	9
0.46367	10
0.46733	12
0.47100	12
0.47467	12
0.47833	11
0.48200	10
0.48567	9
0.48933	11
0.49300	13
0.49667	13
0.50033	11
0.50400	10
0.50767	10
0.51133	11
0.51500	11
0.51867	12
0.52233	12
0.52600	11
0.52967	10
0.53333	11
0.53700	13
0.54067	13
0.54433	12
0.54800	11
0.55167	12
0.55533	13
0.55900	12
0.56267	12
0.56633	13
0.57000	14
0.57367	15
0.57733	14
0.58100	12
0.58467	10
0.58833	9
0.59200	9
0.59567	11
0.59933	12
0.60300	11
0.60667	13
0.61033	13
0.61400	13
0.61767	14
0.62133	14
0.62500	16
0.62867	16
0.63233	16
0.63600	16
0.63967	16
0.64333	16
0.64700	13
0.65067	11
0.65433	12
0.65800	13
0.66167	13
0.66533	15
0.66900	16
0.67267	14
0.67633	12
0.68000	11
0.68367	12
0.68733	15
0.69100	16
0.69467	17
0.69833	18
0.70200	20
0.70567	21
0.70933	21
0.71300	20
0.71667	17
0.72033	16
0.72400	18
0.72767	20
0.73133	20
0.73500	20
0.73867	20
0.74233	18
0.74600	17
0.74967	18
0.75333	20
0.75700	21
0.76067	22
0.76433	21
0.76800	20
0.77167	19
0.77533	21
0.77900	21
0.78267	20
0.78633	19
0.79000	18
0.79367	17
0.79733	16
0.80100	17
0.80467	16
0.80833	18
0.81200	20
0.81567	20
0.81933	18
0.82300	18
0.82667	20
0.83033	20
0.83400	20
0.83767	19
0.84133	17
0.84500	14
0.84867	14
0.85233	16
0.85600	20
0.85967	22
0.86333	21
0.86700	18
0.87067	17
0.87433	18
0.87800	17
0.88167	17
0.88533	18
0.88900	20
0.89267	21
0.89633	21
0.90000	21
0.90367	21
0.90733	21
0.91100	23
0.91467	24
0.91833	24
0.92200	23
0.92567	21
0.92933	20
0.93300	20
0.93667	20
0.94033	19
0.94400	18
0.94767	19
0.95133	18
0.95500	16
0.95867	15
0.96233	18
0.96600	21
0.96967	23
0.97333	23
0.97700	24
0.98067	26
0.98433	26
0.98800	27
0.99167	27
0.99533	27
0.99900	27
1.00267	26
1.00633	26
1.01000	27
1.01367	28
1.01733	28
1.02100	30
1.02467	27
1.02833	27
1.03200	28
1.03567	28
1.03933	28
1.04300	27
1.04667	28
1.05033	26
1.05400	24
1.05767	24
1.06133	23
1.06500	22
1.06867	22
1.07233	24
1.07600	25
1.07967	26
1.08333	26
1.08700	27
1.09067	26
1.09433	27
1.09800	26
1.10167	25
1.10533	24
1.10900	23
1.11267	25
1.11633	27
1.12000	29
1.12367	29
1.12733	27
1.13100	25
1.13467	25
1.13833	26
1.14200	27
1.14567	26
1.14933	26
1.15300	27
1.15667	30
1.16033	32
1.16400	32
1.16767	28
1.17133	24
1.17500	23
1.17867	23
1.18233	24
1.18600	26
1.18967	26
1.19333	24
1.19700	22
1.20067	21
1.20433	22
1.20800	24
1.21167	24
1.21533	24
1.21900	23
1.22267	21
1.22633	21
1.23000	21
1.23367	21
1.23733	20
1.24100	21
1.24467	22
1.24833	24
1.25200	24
1.25567	25
1.25933	24
1.26300	26
1.26667	28
1.27033	26
1.27400	25
1.27767	22
1.28133	23
1.28500	26
1.28867	28
1.29233	28
1.29600	28
1.29967	30
1.30333	30
1.30700	29
1.31067	29
1.31433	29
1.31800	29
1.32167	26
1.32533	25
1.32900	24
1.33267	25
1.33633	26
1.34000	28
1.34367	28
1.34733	26
1.35100	27
1.35467	28
1.35833	28
1.36200	26
1.36567	25
1.36933	26
1.37300	28
1.37667	28
1.38033	26
1.38400	24
1.38767	22
1.39133	22
1.39500	21
1.39867	21
1.40233	21
1.40600	22
1.40967	25
1.41333	26
1.41700	25
1.42067	25
1.42433	26
1.42800	26
1.43167	26
1.43533	26
1.43900	26
1.44267	25
1.44633	24
1.45000	24
1.45367	26
1.45733	28
1.46100	29
1.46467	29
1.46833	28
1.47200	27
1.47567	27
1.47933	27
1.48300	29
1.48667	31
1.49033	30
1.49400	30
1.49767	27
1.50133	25
1.50500	25
1.50867	22
1.51233	20
1.51600	21
1.51967	23
1.52333	25
1.52700	27
1.53067	28
1.53433	28
1.53800	28
1.54167	28
1.54533	26
1.54900	24
1.55267	24
1.55633	24
1.56000	25
1.56367	26
1.56733	27
1.57100	26
1.57467	26
1.57833	26
1.58200	25
1.58567	25
1.58933	24
1.59300	23
1.59667	24
1.60033	24
1.60400	23
1.60767	23
1.61133	25
1.61500	29
1.61867	29
1.62233	27
1.62600	25
1.62967	25
1.63333	24
1.63700	25
1.64067	26
1.64433	29
1.64800	30
1.65167	30
1.65533	31
1.65900	32
1.66267	31
1.66633	30
1.67000	31
1.67367	33
1.67733	35
1.68100	36
1.68467	37
1.68833	37
1.69200	38
1.69567	40
1.69933	40
1.70300	37
1.70667	35
1.71033	33
1.71400	31
1.71767	32
1.72133	32
1.72500	32
1.72867	32
1.73233	34
1.73600	35
1.73967	37
1.74333	38
1.74700	41
1.75067	44
1.75433	45
1.75800	44
1.76167	43
1.76533	43
1.76900	44
1.77267	44
1.77633	45
1.78000	44
1.78367	44
1.78733	45
1.79100	43
1.79467	44
1.79833	45
1.80200	47
1.80567	48
1.80933	49
1.81300	49
1.81667	49
1.82033	47
1.82400	47
1.82767	48
1.83133	49
1.83500	50
1.83867	51
1.84233	52
1.84600	53
1.84967	54
1.85333	54
1.85700	56
1.86067	56
1.86433	54
1.86800	53
1.87167	53
1.87533	54
1.87900	54
1.88267	54
1.88633	54
1.89000	54
1.89367	55
1.89733	56
1.90100	55
1.90467	57
1.90833	61
1.91200	63
1.91567	62
1.91933	63
1.92300	64
1.92667	64
1.93033	67
1.93400	68
1.93767	69
1.94133	69
1.94500	68
1.94867	67
1.95233	67
1.95600	70
1.95967	72
1.96333	72
1.96700	72
1.97067	71
1.97433	70
1.97800	72
1.98167	75
1.98533	75
1.98900	74
1.99267	74
1.99633	75
2.00000	77
2.00367	79
2.00733	80
2.01100	81
2.01467	83
2.01833	85
2.02200	87
2.02567	89
2.02933	89
2.03300	87
2.03667	87
2.04033	88
2.04400	90
2.04767	91
2.05133	90
2.05500	89
2.05867	89
2.06233	91
2.06600	95
2.06967	99
2.07333	100
2.07700	99
2.08067	99
2.08433	97
2.08800	96
2.09167	96
2.09533	96
2.09900	99
2.10267	102
2.10633	105
2.11000	106
2.11367	103
2.11733	101
2.12100	102
2.12467	104
2.12833	104
2.13200	105
2.13567	107
2.13933	108
2.14300	108
2.14667	107
2.15033	106
2.15400	106
2.15767	107
2.16133	110
2.16500	113
2.16867	114
2.17233	113
2.17600	115
2.17967	116
2.18333	116
2.18700	116
2.19067	116
2.19433	116
2.19800	116
2.20167	117
2.20533	118
2.20900	119
2.21267	118
2.21633	116
2.22000	115
2.22367	116
2.22733	117
2.23100	117
2.23467	116
2.23833	115
2.24200	116
2.24567	119
2.24933	125
2.25300	128
2.25667	126
2.26033	125
2.26400	124
2.26767	124
2.27133	125
2.27500	125
2.27867	126
2.28233	130
2.28600	129
2.28967	127
2.29333	125
2.29700	126
2.30067	126
2.30433	125
2.30800	129
2.31167	131
2.31533	132
2.31900	134
2.32267	135
2.32633	134
2.33000	132
2.33367	132
2.33733	131
2.34100	130
2.34467	130
2.34833	131
2.35200	129
2.35567	131
2.35933	136
2.36300	140
2.36667	140
2.37033	138
2.37400	137
2.37767	136
2.38133	133
2.38500	130
2.38867	130
2.39233	132
2.39600	133
2.39967	134
2.40333	137
2.40700	141
2.41067	144
2.41433	147
2.41800	150
2.42167	154
2.42533	157
2.42900	156
2.43267	154
2.43633	150
2.44000	155
2.44367	202
2.44733	305
2.45100	427
2.45467	528
2.45833	605
2.46200	664
2.46567	708
2.46933	735
2.47300	752
2.47667	769
2.48033	786
2.48400	806
2.48767	826
2.49133	845
2.49500	860
2.49867	867
2.50233	867
2.50600	859
2.50967	846
2.51333	833
2.51700	821
2.52067	814
2.52433	810
2.52800	808
2.53167	807
2.53533	808
2.53900	811
2.54267	814
2.54633	821
2.55000	830
2.55367	838
2.55733	845
2.56100	851
2.56467	855
2.56833	854
2.57200	850
2.57567	840
2.57933	825
2.58300	807
2.58667	792
2.59033	778
2.59400	764
2.59767	752
2.60133	742
2.60500	736
2.60867	729
2.61233	723
2.61600	719
2.61967	716
2.62333	713
2.62700	707
2.63067	703
2.63433	699
2.63800	696
2.64167	691
2.64533	687
2.64900	686
2.65267	685
2.65633	682
2.66000	679
2.66367	678
2.66733	679
2.67100	682
2.67467	686
2.67833	688
2.68200	691
2.68567	696
2.68933	700
2.69300	702
2.69667	704
2.70033	708
2.70400	712
2.70767	713
2.71133	715
2.71500	715
2.71867	714
2.72233	710
2.72600	706
2.72967	703
2.73333	697
2.73700	691
2.74067	688
2.74433	684
2.74800	681
2.75167	677
2.75533	669
2.75900	660
2.76267	653
2.76633	649
2.77000	647
2.77367	643
2.77733	639
2.78100	635
2.78467	632
2.78833	632
2.79200	632
2.79567	632
2.79933	629
2.80300	628
2.80667	630
2.81033	630
2.81400	631
2.81767	634
2.82133	636
2.82500	640
2.82867	644
2.83233	651
2.83600	665
2.83967	694
2.84333	756
2.84700	866
2.85067	1050
2.85433	1329
2.85800	1717
2.86167	2207
2.86533	2776
2.86900	3385
2.87267	3983
2.87633	4521
2.88000	4957
2.88367	5256
2.88733	5410
2.89100	5419
2.89467	5302
2.89833	5085
2.90200	4797
2.90567	4466
2.90933	4113
2.91300	3763
2.91667	3425
2.92033	3104
2.92400	2807
2.92767	2536
2.93133	2294
2.93500	2079
2.93867	1887
2.94233	1721
2.94600	1578
2.94967	1455
2.95333	1345
2.95700	1249
2.96067	1163
2.96433	1088
2.96800	1024
2.97167	970
2.97533	923
2.97900	882
2.98267	848
2.98633	818
2.99000	792
2.99367	771
2.99733	752
3.00100	736
3.00467	724
3.00833	716
3.01200	708
3.01567	700
3.01933	695
3.02300	690
3.02667	686
3.03033	681
3.03400	677
3.03767	675
3.04133	672
3.04500	668
3.04867	663
3.05233	660
3.05600	659
3.05967	659
3.06333	657
3.06700	654
3.07067	652
3.07433	653
3.07800	654
3.08167	653
3.08533	652
3.08900	650
3.09267	646
3.09633	642
3.10000	639
3.10367	637
3.10733	634
3.11100	633
3.11467	632
3.11833	631
3.12200	629
3.12567	627
3.12933	626
3.13300	624
3.13667	622
3.14033	619
3.14400	618
3.14767	617
3.15133	615
3.15500	614
3.15867	616
3.16233	615
3.16600	615
3.16967	615
3.17333	612
3.17700	612
3.18067	611
3.18433	609
3.18800	606
3.19167	605
3.19533	604
3.19900	602
3.20267	600
3.20633	599
3.21000	598
3.21367	597
3.21733	595
3.22100	592
3.22467	590
3.22833	586
3.23200	583
3.23567	581
3.23933	580
3.24300	580
3.24667	579
3.25033	578
3.25400	578
3.25767	578
3.26133	578
3.26500	578
3.26867	577
3.27233	576
3.27600	575
3.27967	572
3.28333	568
3.28700	563
3.29067	561
3.29433	559
3.29800	557
3.30167	553
3.30533	551
3.30900	552
3.31267	551
3.31633	548
3.32000	547
3.32367	545
3.32733	543
3.33100	541
3.33467	538
3.33833	536
3.34200	534
3.34567	531
3.34933	529
3.35300	531
3.35667	527
3.36033	523
3.36400	522
3.36767	520
3.37133	516
3.37500	512
3.37867	508
3.38233	505
3.38600	503
3.38967	501
3.39333	501
3.39700	498
3.40067	495
3.40433	493
3.40800	490
3.41167	485
3.41533	481
3.41900	478
3.42267	475
3.42633	472
3.43000	471
3.43367	469
3.43733	467
3.44100	467
3.44467	468
3.44833	467
3.45200	465
3.45567	461
3.45933	458
3.46300	456
3.46667	454
3.47033	451
3.47400	447
3.47767	443
3.48133	439
3.48500	437
3.48867	437
3.49233	434
3.49600	431
3.49967	428
3.50333	426
3.50700	424
3.51067	423
3.51433	421
3.51800	418
3.52167	415
3.52533	413
3.52900	410
3.53267	408
3.53633	409
3.54000	410
3.54367	411
3.54733	409
3.55100	407
3.55467	407
3.55833	405
3.56200	404
3.56567	401
3.56933	398
3.57300	397
3.57667	396
3.58033	395
3.58400	392
3.58767	387
3.59133	384
3.59500	384
3.59867	385
3.60233	384
3.60600	382
3.60967	379
3.61333	376
3.61700	373
3.62067	371
3.62433	368
3.62800	366
3.63167	366
3.63533	364
3.63900	361
3.64267	361
3.64633	360
3.65000	358
3.65367	357
3.65733	356
3.66100	354
3.66467	351
3.66833	349
3.67200	348
3.67567	344
3.67933	339
3.68300	337
3.68667	335
3.69033	334
3.69400	334
3.69767	332
3.70133	331
3.70500	329
3.70867	326
3.71233	324
3.71600	323
3.71967	320
3.72333	318
3.72700	317
3.73067	318
3.73433	317
3.73800	313
3.74167	308
3.74533	306
3.74900	305
3.75267	305
3.75633	302
3.76000	297
3.76367	295
3.76733	297
3.77100	296
3.77467	294
3.77833	293
3.78200	291
3.78567	288
3.78933	286
3.79300	284
3.79667	284
3.80033	285
3.80400	285
3.80767	283
3.81133	282
3.81500	280
3.81867	277
3.82233	274
3.82600	273
3.82967	271
3.83333	268
3.83700	266
3.84067	263
3.84433	260
3.84800	259
3.85167	256
3.85533	253
3.85900	250
3.86267	249
3.86633	251
3.87000	252
3.87367	252
3.87733	252
3.88100	249
3.88467	247
3.88833	244
3.89200	241
3.89567	240
3.89933	240
3.90300	241
3.90667	240
3.91033	239
3.91400	238
3.91767	236
3.92133	235
3.92500	234
3.92867	232
3.93233	231
3.93600	230
3.93967	226
3.94333	224
3.94700	224
3.95067	226
3.95433	227
3.95800	227
3.96167	226
3.96533	224
3.96900	223
3.97267	223
3.97633	224
3.98000	224
3.98367	224
3.98733	222
3.99100	218
3.99467	215
3.99833	213

[Status Trace (Column Oven Temperature)]
Interval(msec)	1000
# of Points	240
Start Time(min)	0.015
End Time(min)	3.998
Intensity Units	
Intensity Multiplier	1
R.Time (min)	Intensity
0.01485	35.04
0.03152	35.04
0.04818	35.05
0.06485	35.05
0.08152	35.05
0.09818	35.05
0.11485	35.05
0.13152	35.05
0.14818	35.05
0.16485	35.05
0.18152	35.05
0.19818	35.06
0.21485	35.06
0.23152	35.06
0.24818	35.06
0.26485	35.05
0.28152	35.03
0.29818	35.02
0.31485	35.00
0.33152	35.00
0.34818	34.99
0.36485	34.99
0.38152	35.00
0.39818	35.00
0.41485	35.01
0.43152	35.01
0.44818	35.02
0.46485	35.02
0.48152	35.02
0.49818	35.02
0.51485	35.01
0.53152	35.00
0.54818	35.00
0.56485	35.01
0.58152	35.01
0.59818	35.02
0.61485	35.02
0.63152	35.01
0.64818	35.03
0.66485	35.02
0.68152	35.02
0.69818	35.01
0.71485	35.00
0.73152	35.01
0.74818	35.00
0.76485	35.00
0.78152	35.01
0.79818	35.02
0.81485	35.02
0.83152	35.02
0.84818	35.02
0.86485	35.03
0.88152	35.03
0.89818	35.03
0.91485	35.04
0.93152	35.03
0.94818	35.03
0.96485	35.02
0.98152	35.03
0.99818	35.02
1.01485	35.01
1.03152	35.01
1.04818	35.00
1.06485	35.00
1.08152	34.99
1.09818	34.98
1.11485	34.98
1.13152	34.97
1.14818	34.96
1.16485	34.96
1.18152	34.97
1.19818	34.99
1.21485	35.01
1.23152	35.01
1.24818	35.01
1.26485	35.02
1.28152	35.02
1.29818	35.02
1.31485	35.02
1.33152	35.01
1.34818	35.00
1.36485	34.99
1.38152	34.98
1.39818	34.99
1.41485	34.99
1.43152	34.99
1.44818	35.00
1.46485	35.00
1.48152	35.00
1.49818	35.00
1.51485	35.01
1.53152	35.01
1.54818	35.01
1.56485	34.99
1.58152	34.99
1.59818	35.02
1.61485	35.11
1.63152	35.26
1.64818	35.47
1.66485	35.73
1.68152	36.09
1.69818	36.45
1.71485	36.79
1.73152	37.12
1.74818	37.47
1.76485	37.79
1.78152	38.13
1.79818	38.47
1.81485	38.80
1.83152	39.13
1.84818	39.47
1.86485	39.79
1.88152	40.11
1.89818	40.44
1.91485	40.78
1.93152	41.08
1.94818	41.42
1.96485	41.74
1.98152	42.05
1.99818	42.39
2.01485	42.68
2.03152	43.01
2.04818	43.32
2.06485	43.64
2.08152	43.98
2.09818	44.28
2.11485	44.62
2.13152	44.94
2.14818	45.27
2.16485	45.62
2.18152	45.93
2.19818	46.30
2.21485	46.62
2.23152	46.94
2.24818	47.27
2.26485	47.63
2.28152	47.99
2.29818	48.31
2.31485	48.63
2.33152	48.95
2.34818	49.26
2.36485	49.51
2.38152	49.63
2.39818	49.64
2.41485	49.64
2.43152	49.64
2.44818	49.66
2.46485	49.68
2.48152	49.70
2.49818	49.70
2.51485	49.72
2.53152	49.72
2.54818	49.75
2.56485	49.76
2.58152	49.77
2.59818	49.78
2.61485	49.81
2.63152	49.82
2.64818	49.84
2.66485	49.84
2.68152	49.85
2.69818	49.86
2.71485	49.86
2.73152	49.84
2.74818	49.86
2.76485	49.87
2.78152	49.87
2.79818	49.87
2.81485	49.86
2.83152	49.86
2.84818	49.87
2.86485	49.89
2.88152	49.91
2.89818	49.92
2.91485	49.92
2.93152	49.94
2.94818	49.96
2.96485	49.97
2.98152	49.99
2.99818	50.00
3.01485	50.01
3.03152	50.02
3.04818	50.02
3.06485	50.03
3.08152	50.03
3.09818	50.03
3.11485	50.03
3.13152	50.04
3.14818	50.06
3.16485	50.06
3.18152	50.07
3.19818	50.08
3.21485	50.09
3.23152	50.09
3.24818	50.10
3.26485	50.11
3.28152	50.12
3.29818	50.12
3.31485	50.10
3.33152	50.09
3.34818	50.07
3.36485	50.06
3.38152	50.05
3.39818	50.04
3.41485	50.03
3.43152	50.03
3.44818	50.03
3.46485	50.04
3.48152	50.04
3.49818	50.03
3.51485	50.03
3.53152	50.02
3.54818	50.02
3.56485	50.02
3.58152	50.03
3.59818	50.03
3.61485	50.04
3.63152	50.04
3.64818	50.05
3.66485	50.05
3.68152	50.06
3.69818	50.06
3.71485	50.05
3.73152	50.05
3.74818	50.05
3.76485	50.04
3.78152	50.05
3.79818	50.05
3.81485	50.07
3.83152	50.07
3.84818	50.07
3.86485	50.06
3.88152	50.07
3.89818	50.07
3.91485	50.08
3.93152	50.09
3.94818	50.09
3.96485	50.09
3.98152	50.09
3.99818	50.09

[Status Trace (Injection Unit Temperature)]
Interval(msec)	1000
# of Points	240
Start Time(min)	0.015
End Time(min)	3.998
Intensity Units	
Intensity Multiplier	1
R.Time (min)	Intensity
0.01485	99.98
0.03152	99.97
0.04818	99.97
0.06485	99.98
0.08152	99.98
0.09818	99.98
0.11485	99.98
0.13152	99.98
0.14818	99.99
0.16485	99.98
0.18152	99.98
0.19818	99.98
0.21485	99.98
0.23152	99.99
0.24818	99.99
0.26485	99.99
0.28152	99.99
0.29818	99.98
0.31485	99.98
0.33152	99.99
0.34818	99.99
0.36485	99.99
0.38152	99.99
0.39818	99.99
0.41485	99.99
0.43152	99.98
0.44818	99.99
0.46485	99.99
0.48152	99.99
0.49818	99.99
0.51485	99.99
0.53152	99.99
0.54818	99.99
0.56485	99.99
0.58152	99.99
0.59818	99.99
0.61485	99.99
0.63152	99.98
0.64818	99.99
0.66485	99.99
0.68152	99.99
0.69818	99.99
0.71485	99.99
0.73152	99.99
0.74818	99.99
0.76485	99.99
0.78152	99.98
0.79818	99.99
0.81485	99.99
0.83152	99.98
0.84818	99.99
0.86485	99.98
0.88152	99.99
0.89818	99.99
0.91485	99.98
0.93152	99.98
0.94818	99.98
0.96485	99.98
0.98152	99.98
0.99818	99.98
1.01485	99.98
1.03152	99.99
1.04818	99.99
1.06485	99.99
1.08152	99.98
1.09818	99.98
1.11485	99.98
1.13152	99.99
1.14818	99.99
1.16485	99.99
1.18152	99.98
1.19818	99.99
1.21485	99.99
1.23152	99.99
1.24818	99.99
1.26485	99.99
1.28152	99.99
1.29818	99.98
1.31485	99.99
1.33152	99.99
1.34818	99.98
1.36485	99.99
1.38152	99.99
1.39818	99.99
1.41485	99.99
1.43152	99.98
1.44818	99.98
1.46485	99.99
1.48152	99.98
1.49818	99.98
1.51485	99.99
1.53152	99.99
1.54818	99.99
1.56485	99.99
1.58152	99.98
1.59818	99.98
1.61485	99.99
1.63152	99.98
1.64818	99.99
1.66485	99.99
1.68152	99.99
1.69818	99.99
1.71485	99.98
1.73152	99.98
1.74818	99.98
1.76485	99.99
1.78152	99.99
1.79818	99.98
1.81485	99.99
1.83152	99.98
1.84818	99.98
1.86485	99.98
1.88152	99.98
1.89818	99.98
1.91485	99.98
1.93152	99.98
1.94818	99.98
1.96485	99.98
1.98152	99.97
1.99818	99.98
2.01485	99.97
2.03152	99.97
2.04818	99.97
2.06485	99.97
2.08152	99.97
2.09818	99.97
2.11485	99.97
2.13152	99.97
2.14818	99.96
2.16485	99.97
2.18152	99.96
2.19818	99.96
2.21485	99.96
2.23152	99.96
2.24818	99.95
2.26485	99.96
2.28152	99.96
2.29818	99.96
2.31485	99.96
2.33152	99.96
2.34818	99.96
2.36485	99.96
2.38152	99.96
2.39818	99.96
2.41485	99.96
2.43152	99.96
2.44818	99.97
2.46485	99.96
2.48152	99.96
2.49818	99.96
2.51485	99.97
2.53152	99.97
2.54818	99.97
2.56485	99.97
2.58152	99.97
2.59818	99.98
2.61485	99.97
2.63152	99.97
2.64818	99.98
2.66485	99.98
2.68152	99.98
2.69818	99.98
2.71485	99.98
2.73152	99.98
2.74818	99.98
2.76485	99.99
2.78152	99.99
2.79818	99.99
2.81485	99.99
2.83152	99.99
2.84818	99.99
2.86485	100.00
2.88152	100.00
2.89818	100.00
2.91485	100.00
2.93152	100.00
2.94818	100.00
2.96485	100.01
2.98152	100.01
2.99818	100.01
3.01485	100.01
3.03152	100.01
3.04818	100.01
3.06485	100.02
3.08152	100.02
3.09818	100.02
3.11485	100.02
3.13152	100.02
3.14818	100.02
3.16485	100.02
3.18152	100.02
3.19818	100.02
3.21485	100.03
3.23152	100.03
3.24818	100.03
3.26485	100.03
3.28152	100.03
3.29818	100.03
3.31485	100.03
3.33152	100.03
3.34818	100.04
3.36485	100.03
3.38152	100.04
3.39818	100.04
3.41485	100.04
3.43152	100.04
3.44818	100.04
3.46485	100.04
3.48152	100.04
3.49818	100.04
3.51485	100.04
3.53152	100.05
3.54818	100.05
3.56485	100.05
3.58152	100.05
3.59818	100.05
3.61485	100.05
3.63152	100.05
3.64818	100.05
3.66485	100.05
3.68152	100.05
3.69818	100.05
3.71485	100.05
3.73152	100.05
3.74818	100.05
3.76485	100.05
3.78152	100.05
3.79818	100.05
3.81485	100.06
3.83152	100.05
3.84818	100.05
3.86485	100.06
3.88152	100.05
3.89818	100.05
3.91485	100.06
3.93152	100.06
3.94818	100.06
3.96485	100.06
3.98152	100.06
3.99818	100.06

[Status Trace (Carrier Gas Pressure)]
Interval(msec)	1000
# of Points	240
Start Time(min)	0.015
End Time(min)	3.998
Intensity Units	
Intensity Multiplier	1
R.Time (min)	Intensity
0.01485	57.24
0.03152	55.71
0.04818	58.06
0.06485	59.88
0.08152	58.49
0.09818	57.98
0.11485	58.00
0.13152	58.01
0.14818	58.01
0.16485	58.00
0.18152	58.00
0.19818	58.00
0.21485	58.00
0.23152	58.00
0.24818	58.00
0.26485	58.00
0.28152	58.00
0.29818	58.00
0.31485	58.00
0.33152	58.00
0.34818	58.00
0.36485	58.00
0.38152	58.00
0.39818	58.00
0.41485	58.00
0.43152	58.00
0.44818	58.00
0.46485	58.00
0.48152	58.00
0.49818	58.00
0.51485	58.00
0.53152	58.00
0.54818	58.00
0.56485	58.00
0.58152	58.00
0.59818	58.00
0.61485	58.00
0.63152	58.00
0.64818	58.00
0.66485	58.00
0.68152	58.00
0.69818	58.00
0.71485	58.00
0.73152	58.00
0.74818	58.00
0.76485	58.00
0.78152	58.00
0.79818	58.00
0.81485	58.00
0.83152	58.00
0.84818	58.00
0.86485	58.00
0.88152	58.00
0.89818	58.00
0.91485	58.00
0.93152	58.00
0.94818	58.00
0.96485	58.00
0.98152	58.00
0.99818	58.00
1.01485	58.00
1.03152	58.00
1.04818	58.00
1.06485	58.00
1.08152	58.00
1.09818	58.00
1.11485	58.00
1.13152	58.00
1.14818	58.00
1.16485	58.00
1.18152	58.00
1.19818	58.00
1.21485	58.00
1.23152	58.00
1.24818	58.00
1.26485	58.00
1.28152	58.00
1.29818	58.00
1.31485	58.00
1.33152	58.00
1.34818	58.00
1.36485	58.00
1.38152	58.00
1.39818	58.00
1.41485	58.00
1.43152	58.00
1.44818	58.00
1.46485	58.00
1.48152	58.00
1.49818	58.00
1.51485	58.00
1.53152	58.00
1.54818	58.00
1.56485	58.00
1.58152	58.00
1.59818	58.00
1.61485	58.00
1.63152	58.00
1.64818	58.00
1.66485	58.00
1.68152	58.01
1.69818	58.00
1.71485	58.00
1.73152	58.00
1.74818	58.00
1.76485	58.00
1.78152	58.00
1.79818	58.00
1.81485	58.00
1.83152	58.00
1.84818	58.00
1.86485	58.00
1.88152	58.00
1.89818	58.00
1.91485	58.00
1.93152	58.00
1.94818	58.00
1.96485	58.00
1.98152	58.00
1.99818	58.00
2.01485	58.00
2.03152	58.00
2.04818	58.00
2.06485	58.00
2.08152	58.00
2.09818	58.00
2.11485	58.00
2.13152	58.00
2.14818	58.00
2.16485	58.00
2.18152	58.00
2.19818	58.00
2.21485	58.00
2.23152	58.00
2.24818	58.00
2.26485	58.00
2.28152	58.00
2.29818	58.00
2.31485	58.00
2.33152	58.00
2.34818	58.00
2.36485	58.00
2.38152	57.99
2.39818	57.99
2.41485	58.00
2.43152	58.00
2.44818	58.00
2.46485	58.00
2.48152	58.00
2.49818	58.00
2.51485	57.99
2.53152	57.99
2.54818	58.00
2.56485	58.00
2.58152	58.00
2.59818	58.00
2.61485	58.00
2.63152	58.00
2.64818	58.00
2.66485	58.00
2.68152	58.00
2.69818	58.00
2.71485	58.00
2.73152	58.00
2.74818	58.00
2.76485	58.00
2.78152	58.00
2.79818	58.00
2.81485	58.00
2.83152	58.00
2.84818	58.00
2.86485	58.00
2.88152	58.00
2.89818	58.00
2.91485	58.00
2.93152	58.00
2.94818	58.00
2.96485	58.00
2.98152	58.00
2.99818	58.00
3.01485	58.00
3.03152	58.00
3.04818	58.00
3.06485	58.00
3.08152	58.00
3.09818	58.00
3.11485	58.00
3.13152	58.00
3.14818	58.00
3.16485	58.00
3.18152	58.00
3.19818	58.00
3.21485	58.00
3.23152	58.00
3.24818	58.00
3.26485	58.00
3.28152	58.00
3.29818	58.00
3.31485	58.00
3.33152	58.00
3.34818	58.00
3.36485	58.00
3.38152	58.00
3.39818	58.00
3.41485	58.00
3.43152	58.00
3.44818	58.00
3.46485	58.00
3.48152	58.00
3.49818	58.00
3.51485	58.00
3.53152	58.00
3.54818	58.00
3.56485	58.00
3.58152	58.00
3.59818	58.00
3.61485	58.00
3.63152	58.00
3.64818	58.00
3.66485	58.00
3.68152	58.00
3.69818	58.00
3.71485	58.00
3.73152	58.00
3.74818	58.00
3.76485	58.00
3.78152	58.00
3.79818	58.00
3.81485	58.00
3.83152	58.00
3.84818	58.00
3.86485	58.00
3.88152	58.00
3.89818	58.00
3.91485	58.00
3.93152	58.00
3.94818	58.00
3.96485	58.00
3.98152	58.00
3.99818	58.00

[Status Trace (Carrier Gas Flow)]
Interval(msec)	1000
# of Points	240
Start Time(min)	0.015
End Time(min)	3.998
Intensity Units	
Intensity Multiplier	1
R.Time (min)	Intensity
0.01485	33.90
0.03152	34.54
0.04818	34.55
0.06485	34.51
0.08152	34.51
0.09818	34.52
0.11485	34.52
0.13152	34.52
0.14818	34.52
0.16485	34.52
0.18152	34.52
0.19818	34.52
0.21485	34.51
0.23152	34.52
0.24818	34.52
0.26485	34.52
0.28152	34.52
0.29818	34.52
0.31485	34.52
0.33152	34.52
0.34818	34.52
0.36485	34.52
0.38152	34.52
0.39818	34.51
0.41485	34.52
0.43152	34.52
0.44818	34.51
0.46485	34.52
0.48152	34.53
0.49818	34.53
0.51485	34.52
0.53152	34.52
0.54818	34.51
0.56485	34.53
0.58152	34.52
0.59818	34.53
0.61485	34.52
0.63152	34.51
0.64818	34.52
0.66485	34.52
0.68152	34.52
0.69818	34.51
0.71485	34.52
0.73152	34.52
0.74818	34.51
0.76485	34.52
0.78152	34.52
0.79818	34.52
0.81485	34.52
0.83152	34.52
0.84818	34.52
0.86485	34.52
0.88152	34.52
0.89818	34.52
0.91485	34.52
0.93152	34.52
0.94818	34.52
0.96485	34.52
0.98152	34.52
0.99818	34.52
1.01485	34.52
1.03152	34.52
1.04818	34.52
1.06485	34.52
1.08152	34.52
1.09818	34.52
1.11485	34.52
1.13152	34.52
1.14818	34.52
1.16485	34.51
1.18152	34.51
1.19818	34.52
1.21485	34.52
1.23152	34.52
1.24818	34.52
1.26485	34.52
1.28152	34.52
1.29818	34.52
1.31485	34.52
1.33152	34.52
1.34818	34.51
1.36485	34.52
1.38152	34.52
1.39818	34.51
1.41485	34.51
1.43152	34.52
1.44818	34.52
1.46485	34.52
1.48152	34.51
1.49818	34.53
1.51485	34.52
1.53152	34.51
1.54818	34.51
1.56485	34.52
1.58152	34.52
1.59818	34.51
1.61485	34.51
1.63152	34.52
1.64818	34.51
1.66485	34.51
1.68152	34.52
1.69818	34.52
1.71485	34.51
1.73152	34.52
1.74818	34.52
1.76485	34.52
1.78152	34.51
1.79818	34.51
1.81485	34.52
1.83152	34.52
1.84818	34.52
1.86485	34.51
1.88152	34.52
1.89818	34.52
1.91485	34.52
1.93152	34.52
1.94818	34.52
1.96485	34.52
1.98152	34.51
1.99818	34.52
2.01485	34.52
2.03152	34.52
2.04818	34.52
2.06485	34.52
2.08152	34.52
2.09818	34.52
2.11485	34.52
2.13152	34.52
2.14818	34.52
2.16485	34.52
2.18152	34.52
2.19818	34.52
2.21485	34.52
2.23152	34.52
2.24818	34.52
2.26485	34.52
2.28152	34.52
2.29818	34.52
2.31485	34.52
2.33152	34.52
2.34818	34.52
2.36485	34.52
2.38152	34.52
2.39818	34.52
2.41485	34.52
2.43152	34.52
2.44818	34.52
2.46485	34.52
2.48152	34.52
2.49818	34.52
2.51485	34.51
2.53152	34.52
2.54818	34.51
2.56485	34.52
2.58152	34.52
2.59818	34.52
2.61485	34.52
2.63152	34.53
2.64818	34.52
2.66485	34.51
2.68152	34.52
2.69818	34.52
2.71485	34.52
2.73152	34.51
2.74818	34.53
2.76485	34.52
2.78152	34.51
2.79818	34.51
2.81485	34.53
2.83152	34.52
2.84818	34.52
2.86485	34.51
2.88152	34.52
2.89818	34.52
2.91485	34.51
2.93152	34.52
2.94818	34.53
2.96485	34.51
2.98152	34.52
2.99818	34.52
3.01485	34.52
3.03152	34.52
3.04818	34.52
3.06485	34.52
3.08152	34.52
3.09818	34.52
3.11485	34.52
3.13152	34.52
3.14818	34.52
3.16485	34.52
3.18152	34.52
3.19818	34.52
3.21485	34.51
3.23152	34.52
3.24818	34.52
3.26485	34.52
3.28152	34.52
3.29818	34.52
3.31485	34.52
3.33152	34.52
3.34818	34.52
3.36485	34.52
3.38152	34.52
3.39818	34.51
3.41485	34.52
3.43152	34.52
3.44818	34.52
3.46485	34.52
3.48152	34.52
3.49818	34.52
3.51485	34.52
3.53152	34.52
3.54818	34.52
3.56485	34.52
3.58152	34.52
3.59818	34.53
3.61485	34.52
3.63152	34.52
3.64818	34.52
3.66485	34.52
3.68152	34.52
3.69818	34.52
3.71485	34.51
3.73152	34.51
3.74818	34.52
3.76485	34.51
3.78152	34.52
3.79818	34.52
3.81485	34.52
3.83152	34.52
3.84818	34.52
3.86485	34.52
3.88152	34.51
3.89818	34.52
3.91485	34.52
3.93152	34.52
3.94818	34.52
3.96485	34.52
3.98152	34.52
3.99818	34.52

[Status Trace (Column Flow)]
Interval(msec)	1000
# of Points	240
Start Time(min)	0.015
End Time(min)	3.998
Intensity Units	
Intensity Multiplier	1
R.Time (min)	Intensity
0.01485	5.41
0.03152	5.23
0.04818	5.50
0.06485	5.71
0.08152	5.55
0.09818	5.49
0.11485	5.49
0.13152	5.50
0.14818	5.50
0.16485	5.50
0.18152	5.49
0.19818	5.49
0.21485	5.49
0.23152	5.49
0.24818	5.49
0.26485	5.49
0.28152	5.49
0.29818	5.50
0.31485	5.50
0.33152	5.50
0.34818	5.50
0.36485	5.50
0.38152	5.50
0.39818	5.50
0.41485	5.50
0.43152	5.50
0.44818	5.50
0.46485	5.50
0.48152	5.50
0.49818	5.50
0.51485	5.50
0.53152	5.50
0.54818	5.50
0.56485	5.50
0.58152	5.50
0.59818	5.50
0.61485	5.50
0.63152	5.50
0.64818	5.49
0.66485	5.49
0.68152	5.49
0.69818	5.50
0.71485	5.50
0.73152	5.50
0.74818	5.50
0.76485	5.50
0.78152	5.50
0.79818	5.50
0.81485	5.50
0.83152	5.50
0.84818	5.49
0.86485	5.50
0.88152	5.49
0.89818	5.49
0.91485	5.49
0.93152	5.49
0.94818	5.49
0.96485	5.49
0.98152	5.49
0.99818	5.49
1.01485	5.50
1.03152	5.50
1.04818	5.50
1.06485	5.50
1.08152	5.50
1.09818	5.50
1.11485	5.50
1.13152	5.50
1.14818	5.50
1.16485	5.50
1.18152	5.50
1.19818	5.50
1.21485	5.50
1.23152	5.50
1.24818	5.50
1.26485	5.50
1.28152	5.50
1.29818	5.50
1.31485	5.50
1.33152	5.50
1.34818	5.50
1.36485	5.50
1.38152	5.50
1.39818	5.50
1.41485	5.50
1.43152	5.50
1.44818	5.50
1.46485	5.50
1.48152	5.50
1.49818	5.50
1.51485	5.50
1.53152	5.50
1.54818	5.50
1.56485	5.50
1.58152	5.50
1.59818	5.50
1.61485	5.49
1.63152	5.49
1.64818	5.48
1.66485	5.47
1.68152	5.46
1.69818	5.45
1.71485	5.44
1.73152	5.43
1.74818	5.42
1.76485	5.41
1.78152	5.40
1.79818	5.39
1.81485	5.38
1.83152	5.37
1.84818	5.36
1.86485	5.35
1.88152	5.34
1.89818	5.33
1.91485	5.32
1.93152	5.31
1.94818	5.30
1.96485	5.29
1.98152	5.28
1.99818	5.27
2.01485	5.26
2.03152	5.25
2.04818	5.24
2.06485	5.23
2.08152	5.22
2.09818	5.22
2.11485	5.21
2.13152	5.20
2.14818	5.19
2.16485	5.18
2.18152	5.17
2.19818	5.16
2.21485	5.15
2.23152	5.14
2.24818	5.13
2.26485	5.12
2.28152	5.11
2.29818	5.10
2.31485	5.09
2.33152	5.08
2.34818	5.07
2.36485	5.07
2.38152	5.06
2.39818	5.06
2.41485	5.06
2.43152	5.06
2.44818	5.06
2.46485	5.06
2.48152	5.06
2.49818	5.06
2.51485	5.06
2.53152	5.06
2.54818	5.06
2.56485	5.06
2.58152	5.06
2.59818	5.06
2.61485	5.06
2.63152	5.06
2.64818	5.06
2.66485	5.06
2.68152	5.06
2.69818	5.06
2.71485	5.06
2.73152	5.06
2.74818	5.06
2.76485	5.06
2.78152	5.06
2.79818	5.06
2.81485	5.06
2.83152	5.06
2.84818	5.06
2.86485	5.06
2.88152	5.06
2.89818	5.06
2.91485	5.06
2.93152	5.06
2.94818	5.06
2.96485	5.06
2.98152	5.05
2.99818	5.05
3.01485	5.05
3.03152	5.05
3.04818	5.05
3.06485	5.05
3.08152	5.05
3.09818	5.05
3.11485	5.05
3.13152	5.05
3.14818	5.05
3.16485	5.05
3.18152	5.05
3.19818	5.05
3.21485	5.05
3.23152	5.05
3.24818	5.05
3.26485	5.05
3.28152	5.05
3.29818	5.05
3.31485	5.05
3.33152	5.05
3.34818	5.05
3.36485	5.05
3.38152	5.05
3.39818	5.05
3.41485	5.05
3.43152	5.05
3.44818	5.05
3.46485	5.05
3.48152	5.05
3.49818	5.05
3.51485	5.05
3.53152	5.05
3.54818	5.05
3.56485	5.05
3.58152	5.05
3.59818	5.05
3.61485	5.05
3.63152	5.05
3.64818	5.05
3.66485	5.05
3.68152	5.05
3.69818	5.05
3.71485	5.05
3.73152	5.05
3.74818	5.05
3.76485	5.05
3.78152	5.05
3.79818	5.05
3.81485	5.05
3.83152	5.05
3.84818	5.05
3.86485	5.05
3.88152	5.05
3.89818	5.05
3.91485	5.05
3.93152	5.05
3.94818	5.05
3.96485	5.05
3.98152	5.05
3.99818	5.05

[Status Trace (Linear Velocity)]
Interval(msec)	1000
# of Points	240
Start Time(min)	0.015
End Time(min)	3.998
Intensity Units	
Intensity Multiplier	1
R.Time (min)	Intensity
0.01485	38.51
0.03152	37.50
0.04818	39.05
0.06485	40.24
0.08152	39.33
0.09818	38.99
0.11485	39.01
0.13152	39.01
0.14818	39.01
0.16485	39.01
0.18152	39.01
0.19818	39.01
0.21485	39.01
0.23152	39.01
0.24818	39.01
0.26485	39.01
0.28152	39.01
0.29818	39.01
0.31485	39.01
0.33152	39.01
0.34818	39.01
0.36485	39.01
0.38152	39.01
0.39818	39.01
0.41485	39.01
0.43152	39.01
0.44818	39.01
0.46485	39.01
0.48152	39.01
0.49818	39.01
0.51485	39.01
0.53152	39.01
0.54818	39.01
0.56485	39.01
0.58152	39.01
0.59818	39.01
0.61485	39.01
0.63152	39.01
0.64818	39.01
0.66485	39.01
0.68152	39.01
0.69818	39.01
0.71485	39.01
0.73152	39.01
0.74818	39.01
0.76485	39.01
0.78152	39.01
0.79818	39.01
0.81485	39.01
0.83152	39.01
0.84818	39.01
0.86485	39.01
0.88152	39.01
0.89818	39.01
0.91485	39.01
0.93152	39.01
0.94818	39.01
0.96485	39.01
0.98152	39.01
0.99818	39.01
1.01485	39.01
1.03152	39.01
1.04818	39.01
1.06485	39.01
1.08152	39.01
1.09818	39.01
1.11485	39.01
1.13152	39.01
1.14818	39.01
1.16485	39.01
1.18152	39.01
1.19818	39.01
1.21485	39.01
1.23152	39.01
1.24818	39.01
1.26485	39.01
1.28152	39.01
1.29818	39.01
1.31485	39.01
1.33152	39.01
1.34818	39.01
1.36485	39.01
1.38152	39.01
1.39818	39.01
1.41485	39.01
1.43152	39.01
1.44818	39.01
1.46485	39.01
1.48152	39.01
1.49818	39.01
1.51485	39.01
1.53152	39.01
1.54818	39.01
1.56485	39.01
1.58152	39.01
1.59818	39.01
1.61485	39.00
1.63152	38.99
1.64818	38.97
1.66485	38.94
1.68152	38.91
1.69818	38.87
1.71485	38.84
1.73152	38.81
1.74818	38.78
1.76485	38.74
1.78152	38.71
1.79818	38.68
1.81485	38.65
1.83152	38.62
1.84818	38.59
1.86485	38.55
1.88152	38.53
1.89818	38.49
1.91485	38.46
1.93152	38.43
1.94818	38.40
1.96485	38.37
1.98152	38.34
1.99818	38.31
2.01485	38.29
2.03152	38.26
2.04818	38.23
2.06485	38.20
2.08152	38.17
2.09818	38.14
2.11485	38.11
2.13152	38.08
2.14818	38.05
2.16485	38.02
2.18152	37.99
2.19818	37.96
2.21485	37.93
2.23152	37.90
2.24818	37.87
2.26485	37.84
2.28152	37.81
2.29818	37.78
2.31485	37.75
2.33152	37.72
2.34818	37.69
2.36485	37.67
2.38152	37.66
2.39818	37.65
2.41485	37.66
2.43152	37.66
2.44818	37.66
2.46485	37.65
2.48152	37.65
2.49818	37.65
2.51485	37.65
2.53152	37.65
2.54818	37.65
2.56485	37.65
2.58152	37.65
2.59818	37.65
2.61485	37.64
2.63152	37.64
2.64818	37.64
2.66485	37.64
2.68152	37.64
2.69818	37.64
2.71485	37.64
2.73152	37.64
2.74818	37.64
2.76485	37.64
2.78152	37.64
2.79818	37.64
2.81485	37.64
2.83152	37.64
2.84818	37.64
2.86485	37.64
2.88152	37.63
2.89818	37.63
2.91485	37.63
2.93152	37.63
2.94818	37.63
2.96485	37.63
2.98152	37.63
2.99818	37.63
3.01485	37.63
3.03152	37.62
3.04818	37.62
3.06485	37.62
3.08152	37.62
3.09818	37.62
3.11485	37.62
3.13152	37.62
3.14818	37.62
3.16485	37.62
3.18152	37.62
3.19818	37.62
3.21485	37.62
3.23152	37.62
3.24818	37.62
3.26485	37.62
3.28152	37.62
3.29818	37.62
3.31485	37.62
3.33152	37.62
3.34818	37.62
3.36485	37.62
3.38152	37.62
3.39818	37.62
3.41485	37.62
3.43152	37.62
3.44818	37.62
3.46485	37.62
3.48152	37.62
3.49818	37.62
3.51485	37.62
3.53152	37.63
3.54818	37.63
3.56485	37.62
3.58152	37.62
3.59818	37.62
3.61485	37.62
3.63152	37.62
3.64818	37.62
3.66485	37.62
3.68152	37.62
3.69818	37.62
3.71485	37.62
3.73152	37.62
3.74818	37.62
3.76485	37.62
3.78152	37.62
3.79818	37.62
3.81485	37.62
3.83152	37.62
3.84818	37.62
3.86485	37.62
3.88152	37.62
3.89818	37.62
3.91485	37.62
3.93152	37.62
3.94818	37.62
3.96485	37.62
3.98152	37.62
3.99818	37.62

