[Header]
Application Name	LabSolutions
Version	5.110
Data File Name	C:\Users\User\Desktop\Junior\UIC Prairie Sampling\6.2.23\06022023_034.gcd
Output Date	6/12/2023
Output Time	11:47:11 AM

[File Information]
Type	Data File
Generated	6/6/2023 12:54:50 PM
Generated by	System Administrator
Modified	6/6/2023 1:02:06 PM
Modified by	System Administrator

[Sample Information]
Operator Name	System Administrator
Acquired	6/6/2023 12:58:05 PM
Sample Type	0:Unknown
Level	0
Sample Name	034
Sample ID	034
ISTD Amount1	1
ISTD Amount2	1
ISTD Amount3	1
ISTD Amount4	1
ISTD Amount5	1
ISTD Amount6	1
ISTD Amount7	1
ISTD Amount8	1
ISTD Amount9	1
ISTD Amount10	1
ISTD Amount11	1
ISTD Amount12	1
ISTD Amount13	1
ISTD Amount14	1
ISTD Amount15	1
ISTD Amount16	1
ISTD Amount17	1
ISTD Amount18	1
ISTD Amount19	1
ISTD Amount20	1
ISTD Amount21	1
ISTD Amount22	1
ISTD Amount23	1
ISTD Amount24	1
ISTD Amount25	1
ISTD Amount26	1
ISTD Amount27	1
ISTD Amount28	1
ISTD Amount29	1
ISTD Amount30	1
ISTD Amount31	1
ISTD Amount32	1
Sample Amount	1
Dilution Factor	1
Vial#	33
Injection Volume	1
Injection Count	1
Bar Code	

[Original Files]
Data File	C:\Users\User\Desktop\Junior\UIC Prairie Sampling\6.2.23\06022023_034.gcd
Method File	C:\LabSolutions\Data\GHG_4min_2022\ghg3_togas_w_acet_4 min_new_int.gcm
Batch File	C:\LabSolutions\Data\AutoSamplerTesting\06022023.gcb
Report Format File	c:\LabSolutions\System\DEFAULT.lsr

[File Description]


[Configuration]
Instrument Name	C0B7VH3-Instrument1
Instrument #	1
Line #	1
# of Detectors	3
Detector ID	DET#1	DET#2	DET#3
Detector Name	FID	PTCD	ECD
# of Channels	1	1	1

[Peak Table(Ch1)]
# of Peaks	3
Peak#	R.Time	I.Time	F.Time	Area	Height	A/H	Conc.	Mark	ID#	Name	k'	Plate #	Plate Ht.	Tailing	Resolution	Sep.Factor	Area Ratio	Height Ratio	Conc. %	Norm Conc.
1	1.472	1.413	1.523	2969	1441	2.061	0.000	   	1	CO	0.000	9550	15.706	1.091	0.000	0.000	0	0	0.000	0.000
2	1.564	1.523	1.622	4505	2264	1.990	21.963	 V 	2	CH4	0.062	11418	13.137	1.135	1.543	0.000	0	0	5.541	5.541
3	1.989	1.941	2.425	1942697	944146	2.058	374.393	   	3	CO2	0.351	17379	8.631	1.248	7.155	5.640	0	0	94.459	94.459

[Peak Table(Ch2)]
# of Peaks	0

[Peak Table(Ch3)]
# of Peaks	5
Peak#	R.Time	I.Time	F.Time	Area	Height	A/H	Conc.	Mark	ID#	Name	k'	Plate #	Plate Ht.	Tailing	Resolution	Sep.Factor	Area Ratio	Height Ratio	Conc. %	Norm Conc.
1	2.458	2.436	2.499	760	309	2.459	0.000	   			0.000	15961	9.398	0.000	0.000	0.000	0	0	0.000	0.000
2	2.513	2.499	2.557	392	169	2.311	0.000	 V 			0.022	8002	18.745	0.000	0.578	0.000	0	0	0.000	0.000
3	2.612	2.557	2.671	527	147	3.576	0.000	 V 			0.063	10305	14.555	0.000	0.920	2.800	0	0	0.000	0.000
4	2.887	2.697	3.837	28758	4658	6.174	0.425	S  	1	N2O	0.175	13729	10.925	6.569	2.730	2.786	0	0	100.000	100.000
5	3.250	3.107	3.522	954	81	11.845	0.000	T  			0.322	1454	103.197	1.373	1.652	1.846	0	0	0.000	0.000

[Compound Results(Ch1)]
# of IDs	6
ID#	Name	R.Time	Area	Height	Conc.	Curve	3rd	2nd	1st	Constant	Area Ratio	Height Ratio	Conc. %	Norm Conc.
1	CO	1.472	2969	1441	0.000	Linear	0.000000e+00	0.000000e+00	0.000000e+00	0.000000e+00	0	0	0.000	0.000
2	CH4	1.564	4505	2264	21.963	Linear	0.000000e+00	0.000000e+00	2.051179e+002	0.000000e+00	0	0	5.541	5.541
3	CO2	1.989	1942697	944146	374.393	Linear	0.000000e+00	0.000000e+00	5.188919e+003	0.000000e+00	0	0	94.459	94.459
4	Ethylene	0.000	0	0	0.000	Linear	0.000000e+00	0.000000e+00	0.000000e+00	0.000000e+00	0	0	0.000	0.000
5	Acetylene	0.000	0	0	0.000	Linear	0.000000e+00	0.000000e+00	0.000000e+00	0.000000e+00	0	0	0.000	0.000
6	Ethane	0.000	0	0	0.000	Linear	0.000000e+00	0.000000e+00	0.000000e+00	0.000000e+00	0	0	0.000	0.000

[Compound Results(Ch2)]
# of IDs	5
ID#	Name	R.Time	Area	Height	Conc.	Curve	3rd	2nd	1st	Constant	Area Ratio	Height Ratio	Conc. %	Norm Conc.
1	Hydrogen	0.000	0	0	0.000	Linear	0.000000e+00	0.000000e+00	0.000000e+00	0.000000e+00	0	0	0.000	0.000
2	Oxygen	0.000	0	0	0.000	Linear	0.000000e+00	0.000000e+00	0.000000e+00	0.000000e+00	0	0	0.000	0.000
3	Nitrogen	0.000	0	0	0.000	Linear	0.000000e+00	0.000000e+00	0.000000e+00	0.000000e+00	0	0	0.000	0.000
4	Methane	0.000	0	0	0.000	Linear	0.000000e+00	0.000000e+00	0.000000e+00	0.000000e+00	0	0	0.000	0.000
5	Carbon Monoxide	0.000	0	0	0.000	Linear	0.000000e+00	0.000000e+00	0.000000e+00	0.000000e+00	0	0	0.000	0.000

[Compound Results(Ch3)]
# of IDs	2
ID#	Name	R.Time	Area	Height	Conc.	Curve	3rd	2nd	1st	Constant	Area Ratio	Height Ratio	Conc. %	Norm Conc.
1	N2O	2.887	28758	4658	0.425	Linear	0.000000e+00	0.000000e+00	6.759880e+004	0.000000e+00	0	0	100.000	100.000
2	SF6	0.000	0	0	0.000	Linear	0.000000e+00	0.000000e+00	0.000000e+00	0.000000e+00	0	0	0.000	0.000

[Group Results(Ch1)]
# of Groups	0

[Group Results(Ch2)]
# of Groups	0

[Group Results(Ch3)]
# of Groups	0

[Chromatogram (Ch1)]
Interval(msec)	220
# of Points	1091
Start Time(min)	0.002
End Time(min)	3.998
R.Time (min)	Intensity
0.00167	6
0.00533	8
0.00900	11
0.01267	15
0.01633	17
0.02000	15
0.02367	9
0.02733	5
0.03100	9
0.03467	13
0.03833	14
0.04200	14
0.04567	8
0.04933	1
0.05300	-6
0.05667	-11
0.06033	-12
0.06400	-9
0.06767	-11
0.07133	-18
0.07500	-25
0.07867	-30
0.08233	-30
0.08600	-28
0.08967	-24
0.09333	-16
0.09700	-7
0.10067	0
0.10433	7
0.10800	12
0.11167	10
0.11533	2
0.11900	-3
0.12267	-7
0.12633	-11
0.13000	-19
0.13367	-26
0.13733	-30
0.14100	-26
0.14467	-17
0.14833	-6
0.15200	2
0.15567	6
0.15933	7
0.16300	9
0.16667	10
0.17033	9
0.17400	8
0.17767	6
0.18133	-1
0.18500	-8
0.18867	-14
0.19233	-19
0.19600	-24
0.19967	-27
0.20333	-21
0.20700	-14
0.21067	-8
0.21433	-4
0.21800	2
0.22167	7
0.22533	9
0.22900	10
0.23267	10
0.23633	8
0.24000	6
0.24367	4
0.24733	3
0.25100	6
0.25467	12
0.25833	19
0.26200	25
0.26567	27
0.26933	26
0.27300	22
0.27667	17
0.28033	7
0.28400	-4
0.28767	-12
0.29133	-17
0.29500	-16
0.29867	-7
0.30233	6
0.30600	13
0.30967	11
0.31333	5
0.31700	-4
0.32067	-11
0.32433	-12
0.32800	-11
0.33167	-10
0.33533	-15
0.33900	-19
0.34267	-22
0.34633	-23
0.35000	-21
0.35367	-19
0.35733	-15
0.36100	-12
0.36467	-10
0.36833	-8
0.37200	-8
0.37567	-12
0.37933	-16
0.38300	-21
0.38667	-24
0.39033	-24
0.39400	-23
0.39767	-18
0.40133	-13
0.40500	-9
0.40867	-5
0.41233	-1
0.41600	1
0.41967	-1
0.42333	-4
0.42700	-4
0.43067	-1
0.43433	4
0.43800	11
0.44167	21
0.44533	26
0.44900	26
0.45267	25
0.45633	25
0.46000	23
0.46367	21
0.46733	19
0.47100	15
0.47467	12
0.47833	10
0.48200	10
0.48567	12
0.48933	14
0.49300	15
0.49667	13
0.50033	8
0.50400	2
0.50767	-2
0.51133	-1
0.51500	-1
0.51867	-4
0.52233	-7
0.52600	-8
0.52967	-4
0.53333	-0
0.53700	2
0.54067	3
0.54433	4
0.54800	9
0.55167	13
0.55533	13
0.55900	10
0.56267	5
0.56633	-2
0.57000	-7
0.57367	-10
0.57733	-12
0.58100	-12
0.58467	-10
0.58833	-7
0.59200	-7
0.59567	-8
0.59933	-9
0.60300	-9
0.60667	-7
0.61033	-4
0.61400	-0
0.61767	1
0.62133	2
0.62500	4
0.62867	5
0.63233	8
0.63600	12
0.63967	15
0.64333	16
0.64700	14
0.65067	13
0.65433	13
0.65800	11
0.66167	9
0.66533	7
0.66900	2
0.67267	-4
0.67633	-12
0.68000	-16
0.68367	-16
0.68733	-14
0.69100	-11
0.69467	-4
0.69833	5
0.70200	10
0.70567	11
0.70933	11
0.71300	8
0.71667	2
0.72033	-5
0.72400	-13
0.72767	-21
0.73133	-25
0.73500	-24
0.73867	-18
0.74233	-10
0.74600	-2
0.74967	5
0.75333	12
0.75700	17
0.76067	21
0.76433	21
0.76800	16
0.77167	11
0.77533	4
0.77900	-5
0.78267	-13
0.78633	-17
0.79000	-16
0.79367	-11
0.79733	-8
0.80100	-5
0.80467	-0
0.80833	6
0.81200	11
0.81567	11
0.81933	5
0.82300	-3
0.82667	-8
0.83033	-9
0.83400	-12
0.83767	-16
0.84133	-21
0.84500	-25
0.84867	-27
0.85233	-27
0.85600	-24
0.85967	-16
0.86333	-1
0.86700	13
0.87067	18
0.87433	14
0.87800	8
0.88167	3
0.88533	0
0.88900	-3
0.89267	-7
0.89633	-10
0.90000	-13
0.90367	-16
0.90733	-18
0.91100	-20
0.91467	-19
0.91833	-14
0.92200	-6
0.92567	3
0.92933	9
0.93300	13
0.93667	13
0.94033	7
0.94400	-0
0.94767	-8
0.95133	-13
0.95500	-16
0.95867	-17
0.96233	-16
0.96600	-13
0.96967	-10
0.97333	-3
0.97700	-1
0.98067	-3
0.98433	-6
0.98800	-6
0.99167	-0
0.99533	9
0.99900	17
1.00267	24
1.00633	29
1.01000	26
1.01367	16
1.01733	2
1.02100	-10
1.02467	-17
1.02833	-18
1.03200	-17
1.03567	-15
1.03933	-12
1.04300	-10
1.04667	-11
1.05033	-13
1.05400	-14
1.05767	-10
1.06133	-1
1.06500	7
1.06867	10
1.07233	7
1.07600	1
1.07967	-2
1.08333	-1
1.08700	2
1.09067	6
1.09433	5
1.09800	2
1.10167	0
1.10533	1
1.10900	-0
1.11267	-1
1.11633	-2
1.12000	-5
1.12367	-7
1.12733	-5
1.13100	-1
1.13467	5
1.13833	11
1.14200	16
1.14567	17
1.14933	16
1.15300	14
1.15667	10
1.16033	5
1.16400	-2
1.16767	-7
1.17133	-9
1.17500	-10
1.17867	-10
1.18233	-8
1.18600	-6
1.18967	-8
1.19333	-12
1.19700	-13
1.20067	-15
1.20433	-20
1.20800	-20
1.21167	-16
1.21533	-9
1.21900	-4
1.22267	-1
1.22633	-1
1.23000	-4
1.23367	-7
1.23733	-9
1.24100	-8
1.24467	-8
1.24833	-7
1.25200	-5
1.25567	-4
1.25933	-4
1.26300	-2
1.26667	-1
1.27033	1
1.27400	-3
1.27767	-8
1.28133	-12
1.28500	-15
1.28867	-22
1.29233	-33
1.29600	-40
1.29967	-41
1.30333	-38
1.30700	-30
1.31067	-20
1.31433	-14
1.31800	-18
1.32167	-23
1.32533	-23
1.32900	-19
1.33267	-12
1.33633	-7
1.34000	-6
1.34367	-9
1.34733	-10
1.35100	-11
1.35467	-13
1.35833	-14
1.36200	-11
1.36567	-6
1.36933	0
1.37300	7
1.37667	13
1.38033	14
1.38400	10
1.38767	6
1.39133	0
1.39500	-11
1.39867	-26
1.40233	-40
1.40600	-48
1.40967	-45
1.41333	-35
1.41700	-23
1.42067	-10
1.42433	2
1.42800	11
1.43167	15
1.43533	19
1.43900	35
1.44267	52
1.44633	98
1.45000	241
1.45367	479
1.45733	746
1.46100	995
1.46467	1203
1.46833	1350
1.47200	1406
1.47567	1354
1.47933	1202
1.48300	986
1.48667	757
1.49033	554
1.49400	389
1.49767	264
1.50133	173
1.50500	106
1.50867	56
1.51233	21
1.51600	-1
1.51967	-10
1.52333	-13
1.52700	-11
1.53067	1
1.53433	55
1.53800	214
1.54167	522
1.54533	945
1.54900	1390
1.55267	1776
1.55633	2061
1.56000	2224
1.56367	2230
1.56733	2060
1.57100	1752
1.57467	1381
1.57833	1022
1.58200	721
1.58567	492
1.58933	326
1.59300	213
1.59667	134
1.60033	78
1.60400	39
1.60767	10
1.61133	-9
1.61500	-20
1.61867	-28
1.62233	-34
1.62600	-36
1.62967	-32
1.63333	-28
1.63700	-27
1.64067	-31
1.64433	-34
1.64800	-37
1.65167	-38
1.65533	-40
1.65900	-43
1.66267	-42
1.66633	-37
1.67000	-35
1.67367	-38
1.67733	-43
1.68100	-47
1.68467	-48
1.68833	-45
1.69200	-37
1.69567	-28
1.69933	-17
1.70300	-9
1.70667	-5
1.71033	-2
1.71400	-3
1.71767	-6
1.72133	-8
1.72500	-8
1.72867	-3
1.73233	4
1.73600	6
1.73967	-2
1.74333	-14
1.74700	-28
1.75067	-39
1.75433	-47
1.75800	-55
1.76167	-61
1.76533	-65
1.76900	-65
1.77267	-64
1.77633	-62
1.78000	-60
1.78367	-54
1.78733	-47
1.79100	-43
1.79467	-40
1.79833	-38
1.80200	-35
1.80567	-30
1.80933	-26
1.81300	-27
1.81667	-32
1.82033	-35
1.82400	-33
1.82767	-30
1.83133	-26
1.83500	-26
1.83867	-25
1.84233	-25
1.84600	-25
1.84967	-25
1.85333	-24
1.85700	-22
1.86067	-20
1.86433	-20
1.86800	-19
1.87167	-18
1.87533	-15
1.87900	-12
1.88267	-10
1.88633	-7
1.89000	-5
1.89367	-3
1.89733	-5
1.90100	-10
1.90467	-17
1.90833	-26
1.91200	-31
1.91567	-33
1.91933	-32
1.92300	-29
1.92667	-27
1.93033	-26
1.93400	-26
1.93767	-25
1.94133	-18
1.94500	18
1.94867	222
1.95233	1341
1.95600	6383
1.95967	23567
1.96333	68211
1.96700	157740
1.97067	297954
1.97433	473435
1.97800	653824
1.98167	806947
1.98533	908449
1.98900	944166
1.99267	910966
1.99633	818983
2.00000	689333
2.00367	546997
2.00733	413126
2.01100	300306
2.01467	212515
2.01833	147995
2.02200	102420
2.02567	71070
2.02933	49850
2.03300	35594
2.03667	26015
2.04033	19542
2.04400	15115
2.04767	12030
2.05133	9829
2.05500	8222
2.05867	7022
2.06233	6105
2.06600	5389
2.06967	4820
2.07333	4358
2.07700	3975
2.08067	3647
2.08433	3363
2.08800	3119
2.09167	2909
2.09533	2721
2.09900	2556
2.10267	2408
2.10633	2274
2.11000	2152
2.11367	2042
2.11733	1942
2.12100	1850
2.12467	1767
2.12833	1690
2.13200	1621
2.13567	1558
2.13933	1495
2.14300	1433
2.14667	1375
2.15033	1321
2.15400	1271
2.15767	1228
2.16133	1189
2.16500	1151
2.16867	1113
2.17233	1080
2.17600	1053
2.17967	1028
2.18333	1000
2.18700	973
2.19067	947
2.19433	923
2.19800	899
2.20167	879
2.20533	857
2.20900	833
2.21267	806
2.21633	781
2.22000	763
2.22367	748
2.22733	734
2.23100	718
2.23467	702
2.23833	686
2.24200	672
2.24567	659
2.24933	649
2.25300	634
2.25667	618
2.26033	604
2.26400	594
2.26767	586
2.27133	581
2.27500	575
2.27867	564
2.28233	552
2.28600	537
2.28967	522
2.29333	512
2.29700	505
2.30067	502
2.30433	501
2.30800	500
2.31167	495
2.31533	485
2.31900	475
2.32267	465
2.32633	459
2.33000	456
2.33367	452
2.33733	452
2.34100	453
2.34467	455
2.34833	454
2.35200	450
2.35567	440
2.35933	426
2.36300	417
2.36667	411
2.37033	401
2.37400	387
2.37767	373
2.38133	360
2.38500	353
2.38867	353
2.39233	354
2.39600	358
2.39967	365
2.40333	372
2.40700	374
2.41067	374
2.41433	372
2.41800	367
2.42167	363
2.42533	364
2.42900	366
2.43267	366
2.43633	364
2.44000	361
2.44367	356
2.44733	352
2.45100	350
2.45467	348
2.45833	350
2.46200	357
2.46567	363
2.46933	364
2.47300	360
2.47667	351
2.48033	345
2.48400	345
2.48767	349
2.49133	352
2.49500	349
2.49867	340
2.50233	333
2.50600	333
2.50967	338
2.51333	345
2.51700	351
2.52067	348
2.52433	341
2.52800	338
2.53167	339
2.53533	343
2.53900	349
2.54267	351
2.54633	349
2.55000	346
2.55367	338
2.55733	330
2.56100	325
2.56467	326
2.56833	326
2.57200	324
2.57567	322
2.57933	321
2.58300	319
2.58667	318
2.59033	318
2.59400	322
2.59767	327
2.60133	333
2.60500	336
2.60867	335
2.61233	333
2.61600	328
2.61967	325
2.62333	327
2.62700	328
2.63067	326
2.63433	326
2.63800	327
2.64167	331
2.64533	338
2.64900	345
2.65267	347
2.65633	347
2.66000	346
2.66367	347
2.66733	348
2.67100	347
2.67467	344
2.67833	339
2.68200	336
2.68567	338
2.68933	340
2.69300	345
2.69667	353
2.70033	359
2.70400	363
2.70767	360
2.71133	351
2.71500	343
2.71867	342
2.72233	345
2.72600	348
2.72967	346
2.73333	341
2.73700	339
2.74067	342
2.74433	344
2.74800	345
2.75167	346
2.75533	351
2.75900	357
2.76267	363
2.76633	369
2.77000	374
2.77367	376
2.77733	374
2.78100	370
2.78467	365
2.78833	360
2.79200	350
2.79567	339
2.79933	332
2.80300	327
2.80667	326
2.81033	329
2.81400	330
2.81767	329
2.82133	325
2.82500	323
2.82867	324
2.83233	330
2.83600	342
2.83967	359
2.84333	377
2.84700	391
2.85067	396
2.85433	392
2.85800	384
2.86167	379
2.86533	377
2.86900	374
2.87267	369
2.87633	367
2.88000	366
2.88367	367
2.88733	368
2.89100	365
2.89467	361
2.89833	357
2.90200	355
2.90567	354
2.90933	356
2.91300	361
2.91667	366
2.92033	372
2.92400	379
2.92767	387
2.93133	390
2.93500	387
2.93867	382
2.94233	381
2.94600	384
2.94967	387
2.95333	389
2.95700	389
2.96067	387
2.96433	384
2.96800	382
2.97167	382
2.97533	382
2.97900	385
2.98267	389
2.98633	399
2.99000	410
2.99367	421
2.99733	426
3.00100	428
3.00467	428
3.00833	427
3.01200	425
3.01567	424
3.01933	423
3.02300	422
3.02667	419
3.03033	415
3.03400	410
3.03767	403
3.04133	395
3.04500	387
3.04867	384
3.05233	385
3.05600	388
3.05967	393
3.06333	402
3.06700	411
3.07067	421
3.07433	427
3.07800	425
3.08167	416
3.08533	407
3.08900	401
3.09267	402
3.09633	401
3.10000	400
3.10367	397
3.10733	390
3.11100	384
3.11467	380
3.11833	380
3.12200	383
3.12567	388
3.12933	393
3.13300	397
3.13667	399
3.14033	398
3.14400	399
3.14767	403
3.15133	406
3.15500	408
3.15867	408
3.16233	406
3.16600	400
3.16967	394
3.17333	390
3.17700	389
3.18067	390
3.18433	395
3.18800	399
3.19167	403
3.19533	406
3.19900	409
3.20267	412
3.20633	416
3.21000	422
3.21367	428
3.21733	428
3.22100	422
3.22467	412
3.22833	404
3.23200	398
3.23567	392
3.23933	386
3.24300	384
3.24667	386
3.25033	389
3.25400	391
3.25767	387
3.26133	381
3.26500	373
3.26867	367
3.27233	367
3.27600	373
3.27967	381
3.28333	386
3.28700	391
3.29067	393
3.29433	395
3.29800	398
3.30167	403
3.30533	413
3.30900	424
3.31267	431
3.31633	426
3.32000	413
3.32367	398
3.32733	386
3.33100	380
3.33467	375
3.33833	372
3.34200	372
3.34567	380
3.34933	391
3.35300	400
3.35667	403
3.36033	402
3.36400	396
3.36767	389
3.37133	379
3.37500	371
3.37867	367
3.38233	367
3.38600	372
3.38967	381
3.39333	393
3.39700	401
3.40067	401
3.40433	394
3.40800	387
3.41167	384
3.41533	387
3.41900	394
3.42267	400
3.42633	399
3.43000	392
3.43367	381
3.43733	373
3.44100	369
3.44467	366
3.44833	364
3.45200	365
3.45567	365
3.45933	364
3.46300	363
3.46667	364
3.47033	368
3.47400	375
3.47767	379
3.48133	383
3.48500	388
3.48867	396
3.49233	405
3.49600	405
3.49967	395
3.50333	383
3.50700	374
3.51067	370
3.51433	368
3.51800	369
3.52167	371
3.52533	372
3.52900	373
3.53267	376
3.53633	382
3.54000	385
3.54367	382
3.54733	376
3.55100	369
3.55467	363
3.55833	358
3.56200	356
3.56567	358
3.56933	363
3.57300	364
3.57667	360
3.58033	357
3.58400	356
3.58767	359
3.59133	364
3.59500	370
3.59867	376
3.60233	381
3.60600	381
3.60967	381
3.61333	378
3.61700	369
3.62067	357
3.62433	344
3.62800	333
3.63167	329
3.63533	330
3.63900	339
3.64267	355
3.64633	366
3.65000	365
3.65367	356
3.65733	345
3.66100	339
3.66467	336
3.66833	332
3.67200	330
3.67567	329
3.67933	334
3.68300	340
3.68667	348
3.69033	356
3.69400	359
3.69767	359
3.70133	357
3.70500	354
3.70867	349
3.71233	345
3.71600	345
3.71967	349
3.72333	355
3.72700	358
3.73067	358
3.73433	355
3.73800	352
3.74167	348
3.74533	343
3.74900	339
3.75267	337
3.75633	338
3.76000	341
3.76367	345
3.76733	349
3.77100	353
3.77467	355
3.77833	353
3.78200	351
3.78567	352
3.78933	353
3.79300	353
3.79667	350
3.80033	346
3.80400	343
3.80767	341
3.81133	342
3.81500	348
3.81867	354
3.82233	357
3.82600	354
3.82967	348
3.83333	340
3.83700	332
3.84067	324
3.84433	321
3.84800	321
3.85167	324
3.85533	330
3.85900	337
3.86267	344
3.86633	353
3.87000	360
3.87367	363
3.87733	359
3.88100	347
3.88467	333
3.88833	322
3.89200	315
3.89567	309
3.89933	306
3.90300	305
3.90667	302
3.91033	301
3.91400	301
3.91767	302
3.92133	303
3.92500	307
3.92867	313
3.93233	321
3.93600	331
3.93967	342
3.94333	346
3.94700	343
3.95067	338
3.95433	334
3.95800	327
3.96167	317
3.96533	310
3.96900	309
3.97267	311
3.97633	311
3.98000	311
3.98367	315
3.98733	319
3.99100	324
3.99467	326
3.99833	326

[Chromatogram (Ch2)]
Interval(msec)	220
# of Points	1091
Start Time(min)	0.002
End Time(min)	3.998
R.Time (min)	Intensity
0.00167	0
0.00533	0
0.00900	0
0.01267	0
0.01633	0
0.02000	0
0.02367	0
0.02733	0
0.03100	0
0.03467	0
0.03833	0
0.04200	1
0.04567	1
0.04933	1
0.05300	1
0.05667	1
0.06033	1
0.06400	1
0.06767	2
0.07133	2
0.07500	2
0.07867	3
0.08233	3
0.08600	3
0.08967	4
0.09333	4
0.09700	4
0.10067	4
0.10433	4
0.10800	4
0.11167	3
0.11533	3
0.11900	3
0.12267	3
0.12633	3
0.13000	3
0.13367	3
0.13733	3
0.14100	3
0.14467	3
0.14833	3
0.15200	3
0.15567	3
0.15933	2
0.16300	2
0.16667	1
0.17033	1
0.17400	1
0.17767	1
0.18133	1
0.18500	2
0.18867	2
0.19233	2
0.19600	2
0.19967	2
0.20333	3
0.20700	3
0.21067	3
0.21433	3
0.21800	3
0.22167	3
0.22533	3
0.22900	3
0.23267	3
0.23633	3
0.24000	2
0.24367	2
0.24733	2
0.25100	2
0.25467	2
0.25833	2
0.26200	2
0.26567	2
0.26933	2
0.27300	2
0.27667	2
0.28033	1
0.28400	1
0.28767	1
0.29133	1
0.29500	0
0.29867	0
0.30233	0
0.30600	0
0.30967	0
0.31333	1
0.31700	1
0.32067	2
0.32433	2
0.32800	2
0.33167	2
0.33533	2
0.33900	2
0.34267	2
0.34633	2
0.35000	1
0.35367	1
0.35733	1
0.36100	1
0.36467	1
0.36833	1
0.37200	1
0.37567	1
0.37933	1
0.38300	1
0.38667	1
0.39033	1
0.39400	1
0.39767	1
0.40133	1
0.40500	0
0.40867	0
0.41233	0
0.41600	0
0.41967	0
0.42333	0
0.42700	1
0.43067	1
0.43433	1
0.43800	1
0.44167	1
0.44533	1
0.44900	1
0.45267	1
0.45633	1
0.46000	2
0.46367	2
0.46733	2
0.47100	2
0.47467	2
0.47833	2
0.48200	2
0.48567	2
0.48933	2
0.49300	3
0.49667	3
0.50033	3
0.50400	3
0.50767	3
0.51133	3
0.51500	3
0.51867	3
0.52233	3
0.52600	3
0.52967	3
0.53333	3
0.53700	3
0.54067	2
0.54433	2
0.54800	2
0.55167	2
0.55533	2
0.55900	2
0.56267	1
0.56633	1
0.57000	1
0.57367	1
0.57733	0
0.58100	-0
0.58467	-1
0.58833	-1
0.59200	-1
0.59567	-1
0.59933	-1
0.60300	-1
0.60667	-2
0.61033	-2
0.61400	-1
0.61767	-1
0.62133	-0
0.62500	-0
0.62867	0
0.63233	0
0.63600	0
0.63967	0
0.64333	0
0.64700	0
0.65067	0
0.65433	1
0.65800	1
0.66167	1
0.66533	1
0.66900	1
0.67267	2
0.67633	2
0.68000	2
0.68367	2
0.68733	2
0.69100	2
0.69467	2
0.69833	1
0.70200	1
0.70567	1
0.70933	1
0.71300	0
0.71667	0
0.72033	0
0.72400	0
0.72767	0
0.73133	0
0.73500	0
0.73867	0
0.74233	0
0.74600	0
0.74967	0
0.75333	0
0.75700	0
0.76067	0
0.76433	-0
0.76800	-0
0.77167	-0
0.77533	0
0.77900	-0
0.78267	-0
0.78633	-0
0.79000	-0
0.79367	-1
0.79733	-1
0.80100	-1
0.80467	-1
0.80833	-1
0.81200	-1
0.81567	-1
0.81933	-1
0.82300	-1
0.82667	-1
0.83033	-1
0.83400	-1
0.83767	-1
0.84133	-1
0.84500	-1
0.84867	-1
0.85233	-1
0.85600	-0
0.85967	-0
0.86333	-0
0.86700	0
0.87067	0
0.87433	0
0.87800	0
0.88167	1
0.88533	1
0.88900	1
0.89267	1
0.89633	1
0.90000	2
0.90367	2
0.90733	2
0.91100	2
0.91467	2
0.91833	2
0.92200	1
0.92567	1
0.92933	1
0.93300	1
0.93667	1
0.94033	1
0.94400	1
0.94767	1
0.95133	1
0.95500	1
0.95867	1
0.96233	1
0.96600	1
0.96967	0
0.97333	-0
0.97700	-0
0.98067	-0
0.98433	-0
0.98800	-0
0.99167	-0
0.99533	-0
0.99900	-0
1.00267	-0
1.00633	-0
1.01000	-0
1.01367	-0
1.01733	-1
1.02100	-1
1.02467	-1
1.02833	-1
1.03200	-1
1.03567	-1
1.03933	-2
1.04300	-2
1.04667	-2
1.05033	-2
1.05400	-2
1.05767	-2
1.06133	-2
1.06500	-2
1.06867	-2
1.07233	-2
1.07600	-2
1.07967	-2
1.08333	-2
1.08700	-2
1.09067	-2
1.09433	-1
1.09800	-1
1.10167	-1
1.10533	-1
1.10900	-1
1.11267	-2
1.11633	-2
1.12000	-2
1.12367	-2
1.12733	-2
1.13100	-2
1.13467	-2
1.13833	-2
1.14200	-2
1.14567	-1
1.14933	-1
1.15300	-0
1.15667	0
1.16033	0
1.16400	0
1.16767	0
1.17133	0
1.17500	0
1.17867	0
1.18233	0
1.18600	0
1.18967	0
1.19333	0
1.19700	0
1.20067	-0
1.20433	-0
1.20800	-0
1.21167	-0
1.21533	0
1.21900	1
1.22267	1
1.22633	1
1.23000	1
1.23367	1
1.23733	1
1.24100	1
1.24467	1
1.24833	1
1.25200	1
1.25567	1
1.25933	1
1.26300	1
1.26667	2
1.27033	2
1.27400	2
1.27767	2
1.28133	2
1.28500	2
1.28867	2
1.29233	2
1.29600	2
1.29967	2
1.30333	2
1.30700	2
1.31067	2
1.31433	1
1.31800	1
1.32167	1
1.32533	0
1.32900	-0
1.33267	-0
1.33633	-0
1.34000	-0
1.34367	0
1.34733	0
1.35100	1
1.35467	1
1.35833	1
1.36200	1
1.36567	1
1.36933	1
1.37300	1
1.37667	1
1.38033	1
1.38400	1
1.38767	1
1.39133	1
1.39500	1
1.39867	1
1.40233	1
1.40600	1
1.40967	1
1.41333	1
1.41700	1
1.42067	1
1.42433	1
1.42800	1
1.43167	1
1.43533	0
1.43900	0
1.44267	-0
1.44633	-1
1.45000	-1
1.45367	-2
1.45733	-2
1.46100	-3
1.46467	-3
1.46833	-3
1.47200	-3
1.47567	-3
1.47933	-3
1.48300	-3
1.48667	-3
1.49033	-3
1.49400	-3
1.49767	-3
1.50133	-2
1.50500	-2
1.50867	-2
1.51233	-2
1.51600	-2
1.51967	-2
1.52333	-2
1.52700	-2
1.53067	-2
1.53433	-2
1.53800	-2
1.54167	-2
1.54533	-2
1.54900	-2
1.55267	-2
1.55633	-2
1.56000	-3
1.56367	-3
1.56733	-3
1.57100	-4
1.57467	-4
1.57833	-4
1.58200	-4
1.58567	-4
1.58933	-4
1.59300	-4
1.59667	-4
1.60033	-5
1.60400	-5
1.60767	-6
1.61133	-7
1.61500	-8
1.61867	-10
1.62233	-12
1.62600	-15
1.62967	-18
1.63333	-21
1.63700	-24
1.64067	-27
1.64433	-30
1.64800	-33
1.65167	-37
1.65533	-40
1.65900	-44
1.66267	-47
1.66633	-51
1.67000	-55
1.67367	-60
1.67733	-64
1.68100	-68
1.68467	-73
1.68833	-77
1.69200	-80
1.69567	-83
1.69933	-86
1.70300	-88
1.70667	-91
1.71033	-92
1.71400	-94
1.71767	-95
1.72133	-96
1.72500	-97
1.72867	-97
1.73233	-98
1.73600	-98
1.73967	-99
1.74333	-100
1.74700	-100
1.75067	-100
1.75433	-100
1.75800	-100
1.76167	-100
1.76533	-100
1.76900	-101
1.77267	-101
1.77633	-102
1.78000	-102
1.78367	-102
1.78733	-101
1.79100	-101
1.79467	-100
1.79833	-100
1.80200	-100
1.80567	-100
1.80933	-101
1.81300	-101
1.81667	-101
1.82033	-101
1.82400	-101
1.82767	-101
1.83133	-101
1.83500	-101
1.83867	-101
1.84233	-102
1.84600	-102
1.84967	-102
1.85333	-102
1.85700	-102
1.86067	-101
1.86433	-100
1.86800	-99
1.87167	-99
1.87533	-99
1.87900	-99
1.88267	-100
1.88633	-100
1.89000	-100
1.89367	-101
1.89733	-101
1.90100	-101
1.90467	-102
1.90833	-102
1.91200	-102
1.91567	-101
1.91933	-100
1.92300	-99
1.92667	-98
1.93033	-97
1.93400	-96
1.93767	-96
1.94133	-96
1.94500	-96
1.94867	-96
1.95233	-96
1.95600	-96
1.95967	-96
1.96333	-97
1.96700	-97
1.97067	-97
1.97433	-97
1.97800	-97
1.98167	-96
1.98533	-96
1.98900	-96
1.99267	-96
1.99633	-96
2.00000	-96
2.00367	-96
2.00733	-95
2.01100	-95
2.01467	-94
2.01833	-93
2.02200	-93
2.02567	-92
2.02933	-91
2.03300	-91
2.03667	-90
2.04033	-90
2.04400	-90
2.04767	-90
2.05133	-90
2.05500	-90
2.05867	-89
2.06233	-89
2.06600	-89
2.06967	-88
2.07333	-88
2.07700	-88
2.08067	-88
2.08433	-88
2.08800	-88
2.09167	-88
2.09533	-87
2.09900	-87
2.10267	-87
2.10633	-86
2.11000	-86
2.11367	-85
2.11733	-85
2.12100	-84
2.12467	-84
2.12833	-84
2.13200	-83
2.13567	-84
2.13933	-84
2.14300	-84
2.14667	-85
2.15033	-85
2.15400	-84
2.15767	-83
2.16133	-83
2.16500	-82
2.16867	-82
2.17233	-82
2.17600	-82
2.17967	-82
2.18333	-83
2.18700	-83
2.19067	-82
2.19433	-82
2.19800	-82
2.20167	-82
2.20533	-82
2.20900	-82
2.21267	-82
2.21633	-81
2.22000	-80
2.22367	-80
2.22733	-79
2.23100	-79
2.23467	-78
2.23833	-78
2.24200	-79
2.24567	-79
2.24933	-79
2.25300	-79
2.25667	-78
2.26033	-77
2.26400	-77
2.26767	-76
2.27133	-77
2.27500	-77
2.27867	-77
2.28233	-77
2.28600	-76
2.28967	-76
2.29333	-75
2.29700	-74
2.30067	-74
2.30433	-74
2.30800	-74
2.31167	-74
2.31533	-74
2.31900	-73
2.32267	-72
2.32633	-72
2.33000	-71
2.33367	-70
2.33733	-69
2.34100	-69
2.34467	-68
2.34833	-67
2.35200	-67
2.35567	-66
2.35933	-66
2.36300	-65
2.36667	-64
2.37033	-63
2.37400	-61
2.37767	-58
2.38133	-55
2.38500	-52
2.38867	-48
2.39233	-45
2.39600	-41
2.39967	-36
2.40333	-32
2.40700	-27
2.41067	-22
2.41433	-18
2.41800	-13
2.42167	-10
2.42533	-6
2.42900	-4
2.43267	-2
2.43633	0
2.44000	2
2.44367	2
2.44733	3
2.45100	4
2.45467	6
2.45833	8
2.46200	9
2.46567	11
2.46933	12
2.47300	13
2.47667	13
2.48033	14
2.48400	14
2.48767	14
2.49133	14
2.49500	15
2.49867	15
2.50233	16
2.50600	16
2.50967	17
2.51333	18
2.51700	18
2.52067	18
2.52433	17
2.52800	16
2.53167	15
2.53533	14
2.53900	12
2.54267	12
2.54633	11
2.55000	12
2.55367	12
2.55733	13
2.56100	15
2.56467	16
2.56833	17
2.57200	18
2.57567	19
2.57933	19
2.58300	20
2.58667	20
2.59033	20
2.59400	20
2.59767	21
2.60133	21
2.60500	21
2.60867	21
2.61233	21
2.61600	22
2.61967	22
2.62333	22
2.62700	22
2.63067	22
2.63433	23
2.63800	23
2.64167	23
2.64533	23
2.64900	23
2.65267	23
2.65633	24
2.66000	24
2.66367	24
2.66733	25
2.67100	25
2.67467	26
2.67833	26
2.68200	27
2.68567	27
2.68933	27
2.69300	27
2.69667	27
2.70033	27
2.70400	27
2.70767	27
2.71133	27
2.71500	28
2.71867	28
2.72233	28
2.72600	29
2.72967	29
2.73333	29
2.73700	29
2.74067	30
2.74433	30
2.74800	30
2.75167	30
2.75533	30
2.75900	30
2.76267	31
2.76633	30
2.77000	30
2.77367	30
2.77733	29
2.78100	29
2.78467	29
2.78833	28
2.79200	28
2.79567	28
2.79933	29
2.80300	29
2.80667	29
2.81033	29
2.81400	29
2.81767	29
2.82133	29
2.82500	29
2.82867	29
2.83233	30
2.83600	30
2.83967	30
2.84333	30
2.84700	31
2.85067	31
2.85433	30
2.85800	30
2.86167	28
2.86533	24
2.86900	19
2.87267	10
2.87633	-2
2.88000	-19
2.88367	-40
2.88733	-67
2.89100	-99
2.89467	-136
2.89833	-178
2.90200	-224
2.90567	-275
2.90933	-330
2.91300	-387
2.91667	-446
2.92033	-508
2.92400	-570
2.92767	-632
2.93133	-693
2.93500	-753
2.93867	-810
2.94233	-863
2.94600	-916
2.94967	-970
2.95333	-1026
2.95700	-1073
2.96067	-1102
2.96433	-1107
2.96800	-1086
2.97167	-1044
2.97533	-983
2.97900	-911
2.98267	-833
2.98633	-752
2.99000	-672
2.99367	-595
2.99733	-523
3.00100	-456
3.00467	-396
3.00833	-342
3.01200	-294
3.01567	-251
3.01933	-214
3.02300	-181
3.02667	-153
3.03033	-129
3.03400	-108
3.03767	-90
3.04133	-75
3.04500	-61
3.04867	-50
3.05233	-40
3.05600	-32
3.05967	-25
3.06333	-19
3.06700	-14
3.07067	-9
3.07433	-5
3.07800	-2
3.08167	1
3.08533	3
3.08900	5
3.09267	7
3.09633	9
3.10000	10
3.10367	11
3.10733	12
3.11100	13
3.11467	14
3.11833	15
3.12200	16
3.12567	17
3.12933	17
3.13300	18
3.13667	19
3.14033	19
3.14400	20
3.14767	20
3.15133	20
3.15500	21
3.15867	21
3.16233	21
3.16600	21
3.16967	22
3.17333	22
3.17700	22
3.18067	22
3.18433	22
3.18800	22
3.19167	22
3.19533	23
3.19900	23
3.20267	23
3.20633	23
3.21000	23
3.21367	23
3.21733	23
3.22100	23
3.22467	23
3.22833	23
3.23200	24
3.23567	24
3.23933	24
3.24300	24
3.24667	25
3.25033	25
3.25400	25
3.25767	25
3.26133	25
3.26500	25
3.26867	25
3.27233	25
3.27600	25
3.27967	25
3.28333	25
3.28700	25
3.29067	25
3.29433	25
3.29800	26
3.30167	26
3.30533	27
3.30900	27
3.31267	27
3.31633	27
3.32000	28
3.32367	28
3.32733	28
3.33100	28
3.33467	29
3.33833	29
3.34200	29
3.34567	29
3.34933	29
3.35300	29
3.35667	29
3.36033	29
3.36400	30
3.36767	30
3.37133	30
3.37500	30
3.37867	30
3.38233	30
3.38600	30
3.38967	30
3.39333	30
3.39700	30
3.40067	30
3.40433	30
3.40800	29
3.41167	29
3.41533	29
3.41900	29
3.42267	29
3.42633	29
3.43000	30
3.43367	30
3.43733	30
3.44100	30
3.44467	30
3.44833	30
3.45200	31
3.45567	31
3.45933	31
3.46300	30
3.46667	30
3.47033	30
3.47400	30
3.47767	30
3.48133	30
3.48500	30
3.48867	30
3.49233	30
3.49600	31
3.49967	31
3.50333	31
3.50700	31
3.51067	31
3.51433	31
3.51800	31
3.52167	31
3.52533	31
3.52900	31
3.53267	31
3.53633	31
3.54000	31
3.54367	30
3.54733	30
3.55100	30
3.55467	30
3.55833	30
3.56200	30
3.56567	30
3.56933	30
3.57300	30
3.57667	29
3.58033	29
3.58400	29
3.58767	29
3.59133	29
3.59500	29
3.59867	29
3.60233	29
3.60600	29
3.60967	29
3.61333	29
3.61700	29
3.62067	29
3.62433	29
3.62800	29
3.63167	29
3.63533	29
3.63900	29
3.64267	29
3.64633	29
3.65000	29
3.65367	29
3.65733	29
3.66100	29
3.66467	29
3.66833	29
3.67200	29
3.67567	29
3.67933	29
3.68300	29
3.68667	29
3.69033	29
3.69400	29
3.69767	29
3.70133	30
3.70500	30
3.70867	30
3.71233	30
3.71600	30
3.71967	30
3.72333	30
3.72700	30
3.73067	30
3.73433	30
3.73800	30
3.74167	30
3.74533	30
3.74900	29
3.75267	29
3.75633	29
3.76000	29
3.76367	29
3.76733	29
3.77100	28
3.77467	28
3.77833	28
3.78200	28
3.78567	29
3.78933	29
3.79300	29
3.79667	29
3.80033	29
3.80400	29
3.80767	29
3.81133	29
3.81500	30
3.81867	30
3.82233	30
3.82600	30
3.82967	30
3.83333	30
3.83700	30
3.84067	30
3.84433	30
3.84800	30
3.85167	30
3.85533	30
3.85900	30
3.86267	30
3.86633	30
3.87000	30
3.87367	30
3.87733	29
3.88100	29
3.88467	29
3.88833	29
3.89200	29
3.89567	29
3.89933	29
3.90300	29
3.90667	29
3.91033	29
3.91400	29
3.91767	29
3.92133	29
3.92500	29
3.92867	29
3.93233	29
3.93600	29
3.93967	29
3.94333	29
3.94700	29
3.95067	29
3.95433	29
3.95800	29
3.96167	29
3.96533	29
3.96900	29
3.97267	29
3.97633	29
3.98000	29
3.98367	29
3.98733	30
3.99100	30
3.99467	30
3.99833	30

[Chromatogram (Ch3)]
Interval(msec)	220
# of Points	1091
Start Time(min)	0.002
End Time(min)	3.998
R.Time (min)	Intensity
0.00167	-0
0.00533	-1
0.00900	-1
0.01267	0
0.01633	1
0.02000	1
0.02367	0
0.02733	0
0.03100	-0
0.03467	-1
0.03833	-3
0.04200	-4
0.04567	-2
0.04933	-1
0.05300	-2
0.05667	-2
0.06033	-1
0.06400	-2
0.06767	-3
0.07133	-4
0.07500	-3
0.07867	-3
0.08233	-1
0.08600	-1
0.08967	1
0.09333	3
0.09700	4
0.10067	2
0.10433	0
0.10800	1
0.11167	0
0.11533	1
0.11900	4
0.12267	5
0.12633	6
0.13000	4
0.13367	5
0.13733	4
0.14100	1
0.14467	-0
0.14833	-2
0.15200	-2
0.15567	-1
0.15933	-2
0.16300	0
0.16667	1
0.17033	0
0.17400	-1
0.17767	-1
0.18133	-0
0.18500	1
0.18867	0
0.19233	-0
0.19600	-1
0.19967	2
0.20333	4
0.20700	3
0.21067	1
0.21433	-0
0.21800	0
0.22167	1
0.22533	4
0.22900	6
0.23267	6
0.23633	6
0.24000	5
0.24367	5
0.24733	5
0.25100	1
0.25467	-2
0.25833	-2
0.26200	-1
0.26567	-1
0.26933	-2
0.27300	-3
0.27667	-3
0.28033	-3
0.28400	-2
0.28767	-1
0.29133	1
0.29500	0
0.29867	1
0.30233	1
0.30600	2
0.30967	1
0.31333	-1
0.31700	-2
0.32067	-3
0.32433	-3
0.32800	-2
0.33167	-0
0.33533	1
0.33900	3
0.34267	5
0.34633	7
0.35000	8
0.35367	7
0.35733	7
0.36100	7
0.36467	4
0.36833	2
0.37200	1
0.37567	1
0.37933	2
0.38300	3
0.38667	2
0.39033	3
0.39400	3
0.39767	4
0.40133	4
0.40500	2
0.40867	1
0.41233	1
0.41600	1
0.41967	0
0.42333	1
0.42700	2
0.43067	3
0.43433	4
0.43800	4
0.44167	2
0.44533	1
0.44900	1
0.45267	2
0.45633	3
0.46000	2
0.46367	5
0.46733	6
0.47100	7
0.47467	9
0.47833	10
0.48200	11
0.48567	11
0.48933	10
0.49300	8
0.49667	6
0.50033	5
0.50400	5
0.50767	5
0.51133	5
0.51500	6
0.51867	5
0.52233	4
0.52600	3
0.52967	3
0.53333	5
0.53700	7
0.54067	7
0.54433	7
0.54800	6
0.55167	5
0.55533	5
0.55900	5
0.56267	7
0.56633	8
0.57000	9
0.57367	10
0.57733	9
0.58100	8
0.58467	6
0.58833	5
0.59200	4
0.59567	2
0.59933	1
0.60300	-1
0.60667	-3
0.61033	-1
0.61400	0
0.61767	4
0.62133	5
0.62500	5
0.62867	6
0.63233	7
0.63600	9
0.63967	9
0.64333	7
0.64700	6
0.65067	5
0.65433	3
0.65800	2
0.66167	4
0.66533	4
0.66900	4
0.67267	3
0.67633	4
0.68000	5
0.68367	4
0.68733	1
0.69100	0
0.69467	1
0.69833	2
0.70200	3
0.70567	4
0.70933	5
0.71300	8
0.71667	9
0.72033	8
0.72400	7
0.72767	6
0.73133	7
0.73500	5
0.73867	4
0.74233	2
0.74600	3
0.74967	3
0.75333	2
0.75700	1
0.76067	3
0.76433	4
0.76800	4
0.77167	3
0.77533	2
0.77900	1
0.78267	0
0.78633	-1
0.79000	1
0.79367	3
0.79733	5
0.80100	6
0.80467	8
0.80833	7
0.81200	6
0.81567	6
0.81933	6
0.82300	6
0.82667	4
0.83033	3
0.83400	3
0.83767	1
0.84133	-0
0.84500	-1
0.84867	-3
0.85233	-1
0.85600	1
0.85967	1
0.86333	-1
0.86700	-1
0.87067	0
0.87433	-0
0.87800	-0
0.88167	0
0.88533	-0
0.88900	1
0.89267	2
0.89633	3
0.90000	5
0.90367	6
0.90733	6
0.91100	7
0.91467	9
0.91833	11
0.92200	10
0.92567	7
0.92933	5
0.93300	2
0.93667	2
0.94033	2
0.94400	3
0.94767	3
0.95133	3
0.95500	4
0.95867	2
0.96233	1
0.96600	1
0.96967	2
0.97333	5
0.97700	7
0.98067	7
0.98433	6
0.98800	4
0.99167	1
0.99533	-1
0.99900	-1
1.00267	-1
1.00633	-1
1.01000	-0
1.01367	0
1.01733	4
1.02100	5
1.02467	4
1.02833	4
1.03200	5
1.03567	5
1.03933	3
1.04300	-1
1.04667	-3
1.05033	-3
1.05400	-1
1.05767	2
1.06133	4
1.06500	5
1.06867	6
1.07233	7
1.07600	6
1.07967	4
1.08333	4
1.08700	3
1.09067	2
1.09433	0
1.09800	2
1.10167	3
1.10533	3
1.10900	5
1.11267	6
1.11633	7
1.12000	8
1.12367	7
1.12733	5
1.13100	5
1.13467	7
1.13833	9
1.14200	10
1.14567	10
1.14933	8
1.15300	5
1.15667	2
1.16033	0
1.16400	0
1.16767	-0
1.17133	-1
1.17500	-1
1.17867	0
1.18233	4
1.18600	5
1.18967	5
1.19333	5
1.19700	4
1.20067	4
1.20433	5
1.20800	3
1.21167	4
1.21533	5
1.21900	6
1.22267	6
1.22633	3
1.23000	1
1.23367	-2
1.23733	-3
1.24100	-4
1.24467	-4
1.24833	-2
1.25200	-1
1.25567	1
1.25933	1
1.26300	3
1.26667	2
1.27033	3
1.27400	1
1.27767	0
1.28133	0
1.28500	-1
1.28867	-1
1.29233	-1
1.29600	-3
1.29967	-2
1.30333	-1
1.30700	-3
1.31067	-2
1.31433	-1
1.31800	-1
1.32167	-2
1.32533	-3
1.32900	-5
1.33267	-5
1.33633	-5
1.34000	-2
1.34367	-1
1.34733	-1
1.35100	-2
1.35467	-2
1.35833	-2
1.36200	-3
1.36567	-4
1.36933	-5
1.37300	-6
1.37667	-6
1.38033	-6
1.38400	-4
1.38767	-2
1.39133	-0
1.39500	-0
1.39867	1
1.40233	1
1.40600	2
1.40967	3
1.41333	5
1.41700	5
1.42067	3
1.42433	-1
1.42800	-1
1.43167	-0
1.43533	0
1.43900	1
1.44267	1
1.44633	1
1.45000	-2
1.45367	-1
1.45733	1
1.46100	3
1.46467	3
1.46833	3
1.47200	3
1.47567	2
1.47933	-0
1.48300	-1
1.48667	0
1.49033	2
1.49400	2
1.49767	0
1.50133	-2
1.50500	-3
1.50867	-3
1.51233	-2
1.51600	-3
1.51967	-5
1.52333	-6
1.52700	-5
1.53067	-5
1.53433	-7
1.53800	-8
1.54167	-7
1.54533	-6
1.54900	-4
1.55267	-2
1.55633	0
1.56000	0
1.56367	-0
1.56733	0
1.57100	-1
1.57467	-2
1.57833	-3
1.58200	-2
1.58567	0
1.58933	0
1.59300	0
1.59667	-0
1.60033	-2
1.60400	-4
1.60767	-5
1.61133	-3
1.61500	-1
1.61867	3
1.62233	5
1.62600	5
1.62967	4
1.63333	4
1.63700	7
1.64067	9
1.64433	8
1.64800	5
1.65167	4
1.65533	5
1.65900	5
1.66267	6
1.66633	7
1.67000	5
1.67367	3
1.67733	3
1.68100	6
1.68467	7
1.68833	7
1.69200	5
1.69567	4
1.69933	3
1.70300	3
1.70667	3
1.71033	4
1.71400	4
1.71767	4
1.72133	4
1.72500	6
1.72867	8
1.73233	6
1.73600	4
1.73967	3
1.74333	5
1.74700	7
1.75067	8
1.75433	9
1.75800	9
1.76167	9
1.76533	9
1.76900	9
1.77267	10
1.77633	11
1.78000	10
1.78367	11
1.78733	11
1.79100	11
1.79467	11
1.79833	11
1.80200	13
1.80567	16
1.80933	18
1.81300	18
1.81667	18
1.82033	18
1.82400	16
1.82767	16
1.83133	16
1.83500	17
1.83867	18
1.84233	19
1.84600	19
1.84967	19
1.85333	19
1.85700	21
1.86067	22
1.86433	23
1.86800	25
1.87167	28
1.87533	28
1.87900	28
1.88267	28
1.88633	28
1.89000	25
1.89367	24
1.89733	26
1.90100	28
1.90467	31
1.90833	32
1.91200	32
1.91567	31
1.91933	31
1.92300	30
1.92667	31
1.93033	31
1.93400	33
1.93767	35
1.94133	36
1.94500	38
1.94867	42
1.95233	43
1.95600	42
1.95967	42
1.96333	41
1.96700	40
1.97067	39
1.97433	38
1.97800	38
1.98167	38
1.98533	40
1.98900	42
1.99267	43
1.99633	47
2.00000	49
2.00367	49
2.00733	49
2.01100	48
2.01467	47
2.01833	45
2.02200	46
2.02567	45
2.02933	44
2.03300	44
2.03667	45
2.04033	47
2.04400	48
2.04767	50
2.05133	52
2.05500	52
2.05867	51
2.06233	50
2.06600	50
2.06967	49
2.07333	50
2.07700	53
2.08067	55
2.08433	55
2.08800	54
2.09167	54
2.09533	55
2.09900	56
2.10267	56
2.10633	57
2.11000	58
2.11367	59
2.11733	59
2.12100	60
2.12467	60
2.12833	60
2.13200	59
2.13567	59
2.13933	60
2.14300	65
2.14667	69
2.15033	69
2.15400	69
2.15767	69
2.16133	70
2.16500	70
2.16867	68
2.17233	66
2.17600	65
2.17967	66
2.18333	68
2.18700	73
2.19067	75
2.19433	75
2.19800	74
2.20167	76
2.20533	77
2.20900	77
2.21267	78
2.21633	78
2.22000	78
2.22367	78
2.22733	79
2.23100	82
2.23467	83
2.23833	83
2.24200	81
2.24567	79
2.24933	78
2.25300	80
2.25667	81
2.26033	82
2.26400	84
2.26767	86
2.27133	84
2.27500	83
2.27867	85
2.28233	86
2.28600	86
2.28967	88
2.29333	90
2.29700	90
2.30067	89
2.30433	88
2.30800	89
2.31167	89
2.31533	88
2.31900	85
2.32267	84
2.32633	83
2.33000	85
2.33367	86
2.33733	86
2.34100	87
2.34467	88
2.34833	91
2.35200	93
2.35567	96
2.35933	95
2.36300	94
2.36667	96
2.37033	96
2.37400	95
2.37767	95
2.38133	94
2.38500	93
2.38867	92
2.39233	91
2.39600	92
2.39967	95
2.40333	98
2.40700	101
2.41067	103
2.41433	103
2.41800	103
2.42167	105
2.42533	104
2.42900	103
2.43267	101
2.43633	99
2.44000	105
2.44367	155
2.44733	244
2.45100	328
2.45467	385
2.45833	401
2.46200	396
2.46567	391
2.46933	386
2.47300	372
2.47667	347
2.48033	314
2.48400	282
2.48767	254
2.49133	233
2.49500	220
2.49867	215
2.50233	217
2.50600	227
2.50967	238
2.51333	244
2.51700	242
2.52067	231
2.52433	214
2.52800	196
2.53167	177
2.53533	159
2.53900	142
2.54267	129
2.54633	119
2.55000	111
2.55367	105
2.55733	102
2.56100	104
2.56467	106
2.56833	108
2.57200	112
2.57567	118
2.57933	123
2.58300	130
2.58667	137
2.59033	146
2.59400	158
2.59767	169
2.60133	178
2.60500	187
2.60867	191
2.61233	192
2.61600	187
2.61967	179
2.62333	169
2.62700	156
2.63067	142
2.63433	126
2.63800	111
2.64167	96
2.64533	83
2.64900	71
2.65267	60
2.65633	48
2.66000	39
2.66367	33
2.66733	29
2.67100	26
2.67467	24
2.67833	23
2.68200	22
2.68567	19
2.68933	18
2.69300	20
2.69667	22
2.70033	26
2.70400	28
2.70767	30
2.71133	31
2.71500	32
2.71867	35
2.72233	37
2.72600	39
2.72967	38
2.73333	39
2.73700	40
2.74067	41
2.74433	42
2.74800	43
2.75167	45
2.75533	48
2.75900	51
2.76267	55
2.76633	58
2.77000	62
2.77367	68
2.77733	74
2.78100	79
2.78467	82
2.78833	87
2.79200	91
2.79567	94
2.79933	97
2.80300	100
2.80667	106
2.81033	109
2.81400	110
2.81767	109
2.82133	109
2.82500	111
2.82867	113
2.83233	120
2.83600	136
2.83967	171
2.84333	239
2.84700	363
2.85067	567
2.85433	873
2.85800	1285
2.86167	1792
2.86533	2363
2.86900	2955
2.87267	3521
2.87633	4012
2.88000	4390
2.88367	4631
2.88733	4726
2.89100	4687
2.89467	4534
2.89833	4293
2.90200	3995
2.90567	3662
2.90933	3318
2.91300	2980
2.91667	2662
2.92033	2371
2.92400	2103
2.92767	1860
2.93133	1646
2.93500	1459
2.93867	1301
2.94233	1170
2.94600	1064
2.94967	980
2.95333	910
2.95700	855
2.96067	810
2.96433	772
2.96800	739
2.97167	712
2.97533	692
2.97900	675
2.98267	658
2.98633	642
2.99000	631
2.99367	621
2.99733	609
3.00100	597
3.00467	586
3.00833	580
3.01200	576
3.01567	573
3.01933	571
3.02300	568
3.02667	563
3.03033	558
3.03400	553
3.03767	546
3.04133	540
3.04500	536
3.04867	533
3.05233	529
3.05600	524
3.05967	520
3.06333	518
3.06700	516
3.07067	511
3.07433	509
3.07800	507
3.08167	505
3.08533	506
3.08900	508
3.09267	508
3.09633	509
3.10000	509
3.10367	509
3.10733	508
3.11100	509
3.11467	513
3.11833	516
3.12200	520
3.12567	522
3.12933	525
3.13300	528
3.13667	530
3.14033	530
3.14400	532
3.14767	533
3.15133	534
3.15500	536
3.15867	537
3.16233	538
3.16600	540
3.16967	544
3.17333	546
3.17700	546
3.18067	545
3.18433	544
3.18800	545
3.19167	547
3.19533	549
3.19900	549
3.20267	548
3.20633	547
3.21000	545
3.21367	543
3.21733	539
3.22100	536
3.22467	536
3.22833	535
3.23200	535
3.23567	533
3.23933	534
3.24300	537
3.24667	538
3.25033	537
3.25400	534
3.25767	531
3.26133	525
3.26500	518
3.26867	514
3.27233	512
3.27600	509
3.27967	504
3.28333	500
3.28700	500
3.29067	499
3.29433	497
3.29800	494
3.30167	491
3.30533	487
3.30900	483
3.31267	480
3.31633	480
3.32000	481
3.32367	480
3.32733	477
3.33100	475
3.33467	472
3.33833	469
3.34200	467
3.34567	464
3.34933	460
3.35300	456
3.35667	452
3.36033	448
3.36400	445
3.36767	442
3.37133	439
3.37500	440
3.37867	439
3.38233	437
3.38600	434
3.38967	430
3.39333	428
3.39700	427
3.40067	426
3.40433	423
3.40800	420
3.41167	417
3.41533	414
3.41900	412
3.42267	410
3.42633	407
3.43000	405
3.43367	402
3.43733	400
3.44100	399
3.44467	396
3.44833	394
3.45200	391
3.45567	389
3.45933	387
3.46300	387
3.46667	385
3.47033	382
3.47400	380
3.47767	379
3.48133	378
3.48500	378
3.48867	377
3.49233	371
3.49600	368
3.49967	366
3.50333	365
3.50700	365
3.51067	365
3.51433	363
3.51800	360
3.52167	357
3.52533	354
3.52900	353
3.53267	353
3.53633	351
3.54000	350
3.54367	347
3.54733	343
3.55100	342
3.55467	342
3.55833	343
3.56200	344
3.56567	342
3.56933	342
3.57300	342
3.57667	341
3.58033	339
3.58400	338
3.58767	338
3.59133	336
3.59500	333
3.59867	331
3.60233	330
3.60600	327
3.60967	324
3.61333	324
3.61700	325
3.62067	325
3.62433	324
3.62800	322
3.63167	321
3.63533	320
3.63900	321
3.64267	322
3.64633	320
3.65000	317
3.65367	316
3.65733	317
3.66100	317
3.66467	317
3.66833	316
3.67200	315
3.67567	314
3.67933	314
3.68300	315
3.68667	317
3.69033	316
3.69400	314
3.69767	313
3.70133	311
3.70500	311
3.70867	312
3.71233	311
3.71600	310
3.71967	309
3.72333	307
3.72700	307
3.73067	308
3.73433	308
3.73800	309
3.74167	309
3.74533	308
3.74900	307
3.75267	305
3.75633	306
3.76000	306
3.76367	305
3.76733	304
3.77100	303
3.77467	303
3.77833	305
3.78200	306
3.78567	305
3.78933	303
3.79300	301
3.79667	302
3.80033	301
3.80400	298
3.80767	298
3.81133	299
3.81500	299
3.81867	298
3.82233	296
3.82600	296
3.82967	296
3.83333	295
3.83700	295
3.84067	294
3.84433	292
3.84800	292
3.85167	295
3.85533	297
3.85900	299
3.86267	300
3.86633	300
3.87000	299
3.87367	300
3.87733	300
3.88100	299
3.88467	299
3.88833	298
3.89200	297
3.89567	295
3.89933	293
3.90300	291
3.90667	291
3.91033	291
3.91400	290
3.91767	289
3.92133	288
3.92500	288
3.92867	289
3.93233	288
3.93600	288
3.93967	290
3.94333	291
3.94700	291
3.95067	290
3.95433	291
3.95800	291
3.96167	290
3.96533	288
3.96900	286
3.97267	283
3.97633	281
3.98000	282
3.98367	284
3.98733	281
3.99100	277
3.99467	274
3.99833	274

[Status Trace (Column Oven Temperature)]
Interval(msec)	1000
# of Points	240
Start Time(min)	0.010
End Time(min)	3.994
Intensity Units	
Intensity Multiplier	1
R.Time (min)	Intensity
0.01035	35.07
0.02702	35.07
0.04368	35.06
0.06035	35.06
0.07702	35.05
0.09368	35.04
0.11035	35.04
0.12702	35.04
0.14368	35.04
0.16035	35.06
0.17702	35.06
0.19368	35.04
0.21035	35.03
0.22702	35.02
0.24368	35.02
0.26035	35.02
0.27702	35.02
0.29368	35.03
0.31035	35.03
0.32702	35.02
0.34368	35.02
0.36035	35.03
0.37702	35.03
0.39368	35.04
0.41035	35.03
0.42702	35.04
0.44368	35.03
0.46035	35.03
0.47702	35.03
0.49368	35.02
0.51035	35.01
0.52702	35.02
0.54368	35.01
0.56035	35.02
0.57702	35.03
0.59368	35.03
0.61035	35.02
0.62702	35.03
0.64368	35.02
0.66035	35.02
0.67702	35.00
0.69368	35.00
0.71035	35.00
0.72702	34.99
0.74368	34.98
0.76035	34.99
0.77702	35.00
0.79368	35.01
0.81035	35.01
0.82702	35.01
0.84368	35.02
0.86035	35.02
0.87702	35.01
0.89368	35.01
0.91035	35.00
0.92702	34.99
0.94368	34.98
0.96035	34.98
0.97702	34.98
0.99368	34.98
1.01035	34.98
1.02702	34.99
1.04368	35.00
1.06035	35.01
1.07702	35.02
1.09368	35.01
1.11035	35.02
1.12702	35.01
1.14368	35.01
1.16035	35.01
1.17702	35.00
1.19368	35.01
1.21035	35.00
1.22702	35.00
1.24368	34.99
1.26035	34.99
1.27702	34.98
1.29368	34.97
1.31035	34.97
1.32702	34.97
1.34368	34.98
1.36035	34.97
1.37702	34.96
1.39368	34.95
1.41035	34.94
1.42702	34.94
1.44368	34.95
1.46035	34.97
1.47702	34.98
1.49368	34.98
1.51035	34.99
1.52702	35.01
1.54368	35.01
1.56035	35.02
1.57702	35.03
1.59368	35.04
1.61035	35.10
1.62702	35.22
1.64368	35.39
1.66035	35.64
1.67702	35.97
1.69368	36.33
1.71035	36.69
1.72702	37.03
1.74368	37.38
1.76035	37.71
1.77702	38.05
1.79368	38.36
1.81035	38.69
1.82702	39.01
1.84368	39.36
1.86035	39.67
1.87702	39.98
1.89368	40.33
1.91035	40.66
1.92702	40.96
1.94368	41.29
1.96035	41.62
1.97702	41.94
1.99368	42.28
2.01035	42.60
2.02702	42.91
2.04368	43.25
2.06035	43.55
2.07702	43.88
2.09368	44.20
2.11035	44.54
2.12702	44.85
2.14368	45.20
2.16035	45.52
2.17702	45.86
2.19368	46.20
2.21035	46.54
2.22702	46.84
2.24368	47.20
2.26035	47.51
2.27702	47.87
2.29368	48.19
2.31035	48.55
2.32702	48.87
2.34368	49.17
2.36035	49.47
2.37702	49.68
2.39368	49.77
2.41035	49.77
2.42702	49.76
2.44368	49.79
2.46035	49.76
2.47702	49.79
2.49368	49.81
2.51035	49.79
2.52702	49.81
2.54368	49.84
2.56035	49.83
2.57702	49.83
2.59368	49.83
2.61035	49.84
2.62702	49.84
2.64368	49.85
2.66035	49.86
2.67702	49.84
2.69368	49.86
2.71035	49.86
2.72702	49.86
2.74368	49.85
2.76035	49.86
2.77702	49.87
2.79368	49.89
2.81035	49.89
2.82702	49.90
2.84368	49.90
2.86035	49.91
2.87702	49.92
2.89368	49.92
2.91035	49.94
2.92702	49.96
2.94368	49.97
2.96035	49.98
2.97702	49.99
2.99368	50.00
3.01035	50.01
3.02702	50.01
3.04368	50.02
3.06035	50.03
3.07702	50.04
3.09368	50.06
3.11035	50.06
3.12702	50.05
3.14368	50.05
3.16035	50.05
3.17702	50.06
3.19368	50.06
3.21035	50.07
3.22702	50.08
3.24368	50.09
3.26035	50.09
3.27702	50.10
3.29368	50.11
3.31035	50.11
3.32702	50.10
3.34368	50.10
3.36035	50.09
3.37702	50.08
3.39368	50.08
3.41035	50.08
3.42702	50.08
3.44368	50.07
3.46035	50.07
3.47702	50.07
3.49368	50.06
3.51035	50.04
3.52702	50.04
3.54368	50.04
3.56035	50.04
3.57702	50.04
3.59368	50.05
3.61035	50.06
3.62702	50.06
3.64368	50.06
3.66035	50.06
3.67702	50.06
3.69368	50.06
3.71035	50.05
3.72702	50.05
3.74368	50.05
3.76035	50.06
3.77702	50.07
3.79368	50.08
3.81035	50.08
3.82702	50.07
3.84368	50.07
3.86035	50.07
3.87702	50.07
3.89368	50.07
3.91035	50.07
3.92702	50.08
3.94368	50.08
3.96035	50.07
3.97702	50.07
3.99368	50.06

[Status Trace (Injection Unit Temperature)]
Interval(msec)	1000
# of Points	240
Start Time(min)	0.010
End Time(min)	3.994
Intensity Units	
Intensity Multiplier	1
R.Time (min)	Intensity
0.01035	99.98
0.02702	99.98
0.04368	99.98
0.06035	99.98
0.07702	99.98
0.09368	99.98
0.11035	99.98
0.12702	99.98
0.14368	99.98
0.16035	99.98
0.17702	99.98
0.19368	99.98
0.21035	99.98
0.22702	99.98
0.24368	99.98
0.26035	99.98
0.27702	99.98
0.29368	99.98
0.31035	99.98
0.32702	99.98
0.34368	99.98
0.36035	99.98
0.37702	99.98
0.39368	99.99
0.41035	99.98
0.42702	99.98
0.44368	99.98
0.46035	99.98
0.47702	99.99
0.49368	99.98
0.51035	99.98
0.52702	99.98
0.54368	99.99
0.56035	99.98
0.57702	99.98
0.59368	99.99
0.61035	99.98
0.62702	99.98
0.64368	99.99
0.66035	99.99
0.67702	99.99
0.69368	99.99
0.71035	99.98
0.72702	99.98
0.74368	99.99
0.76035	99.98
0.77702	99.98
0.79368	99.98
0.81035	99.99
0.82702	99.98
0.84368	99.99
0.86035	99.98
0.87702	99.98
0.89368	99.98
0.91035	99.98
0.92702	99.98
0.94368	99.99
0.96035	99.99
0.97702	99.98
0.99368	99.99
1.01035	99.98
1.02702	99.98
1.04368	99.98
1.06035	99.99
1.07702	99.98
1.09368	99.98
1.11035	99.98
1.12702	99.99
1.14368	99.98
1.16035	99.99
1.17702	99.99
1.19368	99.99
1.21035	99.99
1.22702	99.99
1.24368	99.99
1.26035	99.99
1.27702	99.99
1.29368	99.98
1.31035	99.99
1.32702	99.99
1.34368	99.99
1.36035	99.99
1.37702	99.99
1.39368	99.99
1.41035	99.99
1.42702	99.99
1.44368	99.99
1.46035	100.00
1.47702	99.99
1.49368	99.99
1.51035	99.99
1.52702	99.99
1.54368	100.00
1.56035	100.00
1.57702	99.99
1.59368	99.99
1.61035	99.99
1.62702	100.00
1.64368	100.00
1.66035	100.00
1.67702	99.99
1.69368	99.99
1.71035	100.00
1.72702	99.99
1.74368	99.99
1.76035	99.99
1.77702	99.99
1.79368	99.99
1.81035	99.99
1.82702	99.99
1.84368	99.99
1.86035	99.99
1.87702	99.99
1.89368	99.99
1.91035	99.99
1.92702	99.99
1.94368	99.99
1.96035	99.99
1.97702	99.99
1.99368	99.98
2.01035	99.98
2.02702	99.98
2.04368	99.98
2.06035	99.98
2.07702	99.98
2.09368	99.98
2.11035	99.98
2.12702	99.98
2.14368	99.97
2.16035	99.97
2.17702	99.97
2.19368	99.97
2.21035	99.97
2.22702	99.97
2.24368	99.97
2.26035	99.96
2.27702	99.97
2.29368	99.97
2.31035	99.97
2.32702	99.97
2.34368	99.97
2.36035	99.97
2.37702	99.97
2.39368	99.97
2.41035	99.96
2.42702	99.97
2.44368	99.97
2.46035	99.97
2.47702	99.97
2.49368	99.97
2.51035	99.97
2.52702	99.97
2.54368	99.97
2.56035	99.97
2.57702	99.97
2.59368	99.97
2.61035	99.97
2.62702	99.98
2.64368	99.98
2.66035	99.98
2.67702	99.98
2.69368	99.98
2.71035	99.98
2.72702	99.99
2.74368	99.99
2.76035	99.99
2.77702	99.99
2.79368	99.99
2.81035	99.99
2.82702	100.00
2.84368	100.00
2.86035	100.00
2.87702	100.00
2.89368	100.00
2.91035	100.00
2.92702	100.01
2.94368	100.00
2.96035	100.01
2.97702	100.01
2.99368	100.01
3.01035	100.01
3.02702	100.01
3.04368	100.02
3.06035	100.02
3.07702	100.02
3.09368	100.02
3.11035	100.02
3.12702	100.02
3.14368	100.02
3.16035	100.02
3.17702	100.03
3.19368	100.02
3.21035	100.03
3.22702	100.03
3.24368	100.03
3.26035	100.03
3.27702	100.03
3.29368	100.03
3.31035	100.04
3.32702	100.04
3.34368	100.03
3.36035	100.04
3.37702	100.04
3.39368	100.04
3.41035	100.04
3.42702	100.04
3.44368	100.04
3.46035	100.04
3.47702	100.05
3.49368	100.04
3.51035	100.05
3.52702	100.05
3.54368	100.05
3.56035	100.05
3.57702	100.05
3.59368	100.05
3.61035	100.05
3.62702	100.05
3.64368	100.05
3.66035	100.05
3.67702	100.05
3.69368	100.06
3.71035	100.06
3.72702	100.06
3.74368	100.06
3.76035	100.06
3.77702	100.06
3.79368	100.06
3.81035	100.06
3.82702	100.06
3.84368	100.05
3.86035	100.05
3.87702	100.06
3.89368	100.06
3.91035	100.06
3.92702	100.06
3.94368	100.05
3.96035	100.06
3.97702	100.06
3.99368	100.06

[Status Trace (Carrier Gas Pressure)]
Interval(msec)	1000
# of Points	240
Start Time(min)	0.010
End Time(min)	3.994
Intensity Units	
Intensity Multiplier	1
R.Time (min)	Intensity
0.01035	58.00
0.02702	55.05
0.04368	57.46
0.06035	59.61
0.07702	58.95
0.09368	58.01
0.11035	57.99
0.12702	58.01
0.14368	58.01
0.16035	58.01
0.17702	58.00
0.19368	58.00
0.21035	58.00
0.22702	58.00
0.24368	58.00
0.26035	58.00
0.27702	58.00
0.29368	58.00
0.31035	58.00
0.32702	58.00
0.34368	58.00
0.36035	58.00
0.37702	58.00
0.39368	58.00
0.41035	58.00
0.42702	58.00
0.44368	58.00
0.46035	58.00
0.47702	58.00
0.49368	58.00
0.51035	58.00
0.52702	58.00
0.54368	58.00
0.56035	58.00
0.57702	58.00
0.59368	58.00
0.61035	58.00
0.62702	58.00
0.64368	58.00
0.66035	58.00
0.67702	58.00
0.69368	58.00
0.71035	58.00
0.72702	58.00
0.74368	58.00
0.76035	58.00
0.77702	58.00
0.79368	58.00
0.81035	58.00
0.82702	58.00
0.84368	58.00
0.86035	58.00
0.87702	58.00
0.89368	58.00
0.91035	58.00
0.92702	58.00
0.94368	58.00
0.96035	58.00
0.97702	58.00
0.99368	58.00
1.01035	58.00
1.02702	58.00
1.04368	58.00
1.06035	58.00
1.07702	58.00
1.09368	58.00
1.11035	58.00
1.12702	58.00
1.14368	58.00
1.16035	58.00
1.17702	58.00
1.19368	58.00
1.21035	58.00
1.22702	58.00
1.24368	58.00
1.26035	58.00
1.27702	58.00
1.29368	58.00
1.31035	58.00
1.32702	58.00
1.34368	58.00
1.36035	58.00
1.37702	58.00
1.39368	58.00
1.41035	58.00
1.42702	58.00
1.44368	58.00
1.46035	58.00
1.47702	58.00
1.49368	58.00
1.51035	58.00
1.52702	58.00
1.54368	58.00
1.56035	58.00
1.57702	58.00
1.59368	58.00
1.61035	58.00
1.62702	58.00
1.64368	58.00
1.66035	58.00
1.67702	58.01
1.69368	58.00
1.71035	58.00
1.72702	58.00
1.74368	58.00
1.76035	58.00
1.77702	58.00
1.79368	58.00
1.81035	58.00
1.82702	58.00
1.84368	58.00
1.86035	58.00
1.87702	58.00
1.89368	58.00
1.91035	58.00
1.92702	58.00
1.94368	58.00
1.96035	58.00
1.97702	58.00
1.99368	58.00
2.01035	58.00
2.02702	58.00
2.04368	58.00
2.06035	58.00
2.07702	58.00
2.09368	58.00
2.11035	58.00
2.12702	58.00
2.14368	58.00
2.16035	58.00
2.17702	58.00
2.19368	58.00
2.21035	58.00
2.22702	58.00
2.24368	58.00
2.26035	58.00
2.27702	58.00
2.29368	58.00
2.31035	58.00
2.32702	58.00
2.34368	58.00
2.36035	58.00
2.37702	58.00
2.39368	57.99
2.41035	57.99
2.42702	58.00
2.44368	58.00
2.46035	58.00
2.47702	58.00
2.49368	58.00
2.51035	57.99
2.52702	57.99
2.54368	58.00
2.56035	58.00
2.57702	58.00
2.59368	58.00
2.61035	58.00
2.62702	58.00
2.64368	58.00
2.66035	58.00
2.67702	58.00
2.69368	58.00
2.71035	58.00
2.72702	58.00
2.74368	58.00
2.76035	58.00
2.77702	58.00
2.79368	58.00
2.81035	58.00
2.82702	58.00
2.84368	58.00
2.86035	58.00
2.87702	58.00
2.89368	58.00
2.91035	58.00
2.92702	58.00
2.94368	58.00
2.96035	58.00
2.97702	58.00
2.99368	58.00
3.01035	58.00
3.02702	58.00
3.04368	58.00
3.06035	58.00
3.07702	58.00
3.09368	58.00
3.11035	58.00
3.12702	58.00
3.14368	58.00
3.16035	58.00
3.17702	58.00
3.19368	58.00
3.21035	58.00
3.22702	58.00
3.24368	58.00
3.26035	58.00
3.27702	58.00
3.29368	58.00
3.31035	58.00
3.32702	58.00
3.34368	58.00
3.36035	58.00
3.37702	58.00
3.39368	58.00
3.41035	58.00
3.42702	58.00
3.44368	58.00
3.46035	58.00
3.47702	58.00
3.49368	58.00
3.51035	58.00
3.52702	58.00
3.54368	58.00
3.56035	58.00
3.57702	58.00
3.59368	58.00
3.61035	58.00
3.62702	58.00
3.64368	58.00
3.66035	58.00
3.67702	58.00
3.69368	58.00
3.71035	58.00
3.72702	58.00
3.74368	58.00
3.76035	58.00
3.77702	58.00
3.79368	58.00
3.81035	58.00
3.82702	58.00
3.84368	58.00
3.86035	58.00
3.87702	58.00
3.89368	58.00
3.91035	58.00
3.92702	58.00
3.94368	58.00
3.96035	58.00
3.97702	58.00
3.99368	58.00

[Status Trace (Carrier Gas Flow)]
Interval(msec)	1000
# of Points	240
Start Time(min)	0.010
End Time(min)	3.994
Intensity Units	
Intensity Multiplier	1
R.Time (min)	Intensity
0.01035	34.52
0.02702	34.54
0.04368	34.54
0.06035	34.53
0.07702	34.50
0.09368	34.52
0.11035	34.52
0.12702	34.52
0.14368	34.52
0.16035	34.52
0.17702	34.52
0.19368	34.52
0.21035	34.52
0.22702	34.52
0.24368	34.52
0.26035	34.52
0.27702	34.52
0.29368	34.51
0.31035	34.52
0.32702	34.52
0.34368	34.52
0.36035	34.51
0.37702	34.52
0.39368	34.52
0.41035	34.52
0.42702	34.51
0.44368	34.52
0.46035	34.52
0.47702	34.52
0.49368	34.52
0.51035	34.52
0.52702	34.52
0.54368	34.52
0.56035	34.52
0.57702	34.52
0.59368	34.52
0.61035	34.51
0.62702	34.52
0.64368	34.52
0.66035	34.52
0.67702	34.52
0.69368	34.52
0.71035	34.52
0.72702	34.52
0.74368	34.52
0.76035	34.52
0.77702	34.52
0.79368	34.52
0.81035	34.52
0.82702	34.52
0.84368	34.52
0.86035	34.51
0.87702	34.52
0.89368	34.53
0.91035	34.52
0.92702	34.51
0.94368	34.52
0.96035	34.52
0.97702	34.52
0.99368	34.52
1.01035	34.52
1.02702	34.53
1.04368	34.51
1.06035	34.52
1.07702	34.52
1.09368	34.52
1.11035	34.52
1.12702	34.51
1.14368	34.52
1.16035	34.52
1.17702	34.52
1.19368	34.52
1.21035	34.52
1.22702	34.52
1.24368	34.51
1.26035	34.52
1.27702	34.52
1.29368	34.52
1.31035	34.52
1.32702	34.52
1.34368	34.52
1.36035	34.52
1.37702	34.52
1.39368	34.52
1.41035	34.52
1.42702	34.51
1.44368	34.52
1.46035	34.52
1.47702	34.52
1.49368	34.52
1.51035	34.52
1.52702	34.52
1.54368	34.52
1.56035	34.52
1.57702	34.52
1.59368	34.52
1.61035	34.53
1.62702	34.52
1.64368	34.52
1.66035	34.51
1.67702	34.52
1.69368	34.52
1.71035	34.52
1.72702	34.52
1.74368	34.52
1.76035	34.52
1.77702	34.52
1.79368	34.52
1.81035	34.52
1.82702	34.52
1.84368	34.51
1.86035	34.52
1.87702	34.52
1.89368	34.52
1.91035	34.52
1.92702	34.52
1.94368	34.52
1.96035	34.52
1.97702	34.52
1.99368	34.52
2.01035	34.52
2.02702	34.52
2.04368	34.52
2.06035	34.52
2.07702	34.52
2.09368	34.52
2.11035	34.52
2.12702	34.52
2.14368	34.52
2.16035	34.52
2.17702	34.52
2.19368	34.52
2.21035	34.51
2.22702	34.52
2.24368	34.52
2.26035	34.52
2.27702	34.52
2.29368	34.53
2.31035	34.52
2.32702	34.51
2.34368	34.52
2.36035	34.52
2.37702	34.52
2.39368	34.51
2.41035	34.53
2.42702	34.52
2.44368	34.52
2.46035	34.52
2.47702	34.52
2.49368	34.52
2.51035	34.51
2.52702	34.52
2.54368	34.52
2.56035	34.52
2.57702	34.52
2.59368	34.52
2.61035	34.52
2.62702	34.52
2.64368	34.52
2.66035	34.52
2.67702	34.52
2.69368	34.52
2.71035	34.52
2.72702	34.52
2.74368	34.52
2.76035	34.51
2.77702	34.52
2.79368	34.52
2.81035	34.52
2.82702	34.52
2.84368	34.52
2.86035	34.52
2.87702	34.51
2.89368	34.52
2.91035	34.52
2.92702	34.52
2.94368	34.52
2.96035	34.52
2.97702	34.52
2.99368	34.51
3.01035	34.52
3.02702	34.52
3.04368	34.51
3.06035	34.52
3.07702	34.52
3.09368	34.52
3.11035	34.52
3.12702	34.52
3.14368	34.52
3.16035	34.52
3.17702	34.52
3.19368	34.52
3.21035	34.52
3.22702	34.51
3.24368	34.52
3.26035	34.52
3.27702	34.52
3.29368	34.51
3.31035	34.53
3.32702	34.52
3.34368	34.51
3.36035	34.52
3.37702	34.52
3.39368	34.51
3.41035	34.52
3.42702	34.52
3.44368	34.52
3.46035	34.52
3.47702	34.52
3.49368	34.52
3.51035	34.52
3.52702	34.52
3.54368	34.52
3.56035	34.52
3.57702	34.51
3.59368	34.52
3.61035	34.52
3.62702	34.53
3.64368	34.52
3.66035	34.52
3.67702	34.52
3.69368	34.52
3.71035	34.52
3.72702	34.52
3.74368	34.52
3.76035	34.52
3.77702	34.52
3.79368	34.52
3.81035	34.52
3.82702	34.51
3.84368	34.52
3.86035	34.53
3.87702	34.52
3.89368	34.52
3.91035	34.52
3.92702	34.52
3.94368	34.52
3.96035	34.52
3.97702	34.52
3.99368	34.52

[Status Trace (Column Flow)]
Interval(msec)	1000
# of Points	240
Start Time(min)	0.010
End Time(min)	3.994
Intensity Units	
Intensity Multiplier	1
R.Time (min)	Intensity
0.01035	5.50
0.02702	5.16
0.04368	5.44
0.06035	5.69
0.07702	5.61
0.09368	5.50
0.11035	5.50
0.12702	5.50
0.14368	5.50
0.16035	5.50
0.17702	5.50
0.19368	5.50
0.21035	5.50
0.22702	5.50
0.24368	5.50
0.26035	5.50
0.27702	5.50
0.29368	5.50
0.31035	5.50
0.32702	5.50
0.34368	5.50
0.36035	5.50
0.37702	5.50
0.39368	5.50
0.41035	5.50
0.42702	5.50
0.44368	5.50
0.46035	5.50
0.47702	5.50
0.49368	5.50
0.51035	5.50
0.52702	5.50
0.54368	5.50
0.56035	5.50
0.57702	5.50
0.59368	5.50
0.61035	5.50
0.62702	5.50
0.64368	5.50
0.66035	5.50
0.67702	5.50
0.69368	5.50
0.71035	5.50
0.72702	5.50
0.74368	5.50
0.76035	5.50
0.77702	5.50
0.79368	5.50
0.81035	5.50
0.82702	5.50
0.84368	5.50
0.86035	5.50
0.87702	5.50
0.89368	5.50
0.91035	5.50
0.92702	5.50
0.94368	5.50
0.96035	5.50
0.97702	5.50
0.99368	5.50
1.01035	5.50
1.02702	5.50
1.04368	5.50
1.06035	5.50
1.07702	5.50
1.09368	5.50
1.11035	5.50
1.12702	5.50
1.14368	5.50
1.16035	5.50
1.17702	5.50
1.19368	5.50
1.21035	5.50
1.22702	5.50
1.24368	5.50
1.26035	5.50
1.27702	5.50
1.29368	5.50
1.31035	5.50
1.32702	5.50
1.34368	5.50
1.36035	5.50
1.37702	5.50
1.39368	5.50
1.41035	5.50
1.42702	5.50
1.44368	5.50
1.46035	5.50
1.47702	5.50
1.49368	5.50
1.51035	5.50
1.52702	5.50
1.54368	5.50
1.56035	5.50
1.57702	5.50
1.59368	5.50
1.61035	5.50
1.62702	5.49
1.64368	5.49
1.66035	5.48
1.67702	5.47
1.69368	5.46
1.71035	5.45
1.72702	5.44
1.74368	5.43
1.76035	5.42
1.77702	5.41
1.79368	5.40
1.81035	5.39
1.82702	5.38
1.84368	5.37
1.86035	5.36
1.87702	5.35
1.89368	5.34
1.91035	5.33
1.92702	5.32
1.94368	5.31
1.96035	5.30
1.97702	5.29
1.99368	5.28
2.01035	5.27
2.02702	5.26
2.04368	5.25
2.06035	5.24
2.07702	5.23
2.09368	5.22
2.11035	5.21
2.12702	5.20
2.14368	5.19
2.16035	5.18
2.17702	5.18
2.19368	5.17
2.21035	5.16
2.22702	5.15
2.24368	5.14
2.26035	5.13
2.27702	5.12
2.29368	5.11
2.31035	5.10
2.32702	5.09
2.34368	5.08
2.36035	5.07
2.37702	5.07
2.39368	5.06
2.41035	5.07
2.42702	5.07
2.44368	5.07
2.46035	5.07
2.47702	5.07
2.49368	5.06
2.51035	5.06
2.52702	5.06
2.54368	5.06
2.56035	5.06
2.57702	5.06
2.59368	5.06
2.61035	5.06
2.62702	5.06
2.64368	5.06
2.66035	5.06
2.67702	5.06
2.69368	5.06
2.71035	5.06
2.72702	5.06
2.74368	5.06
2.76035	5.06
2.77702	5.06
2.79368	5.06
2.81035	5.06
2.82702	5.06
2.84368	5.06
2.86035	5.06
2.87702	5.06
2.89368	5.06
2.91035	5.06
2.92702	5.06
2.94368	5.06
2.96035	5.06
2.97702	5.06
2.99368	5.06
3.01035	5.06
3.02702	5.06
3.04368	5.06
3.06035	5.06
3.07702	5.06
3.09368	5.06
3.11035	5.06
3.12702	5.06
3.14368	5.06
3.16035	5.06
3.17702	5.06
3.19368	5.06
3.21035	5.06
3.22702	5.06
3.24368	5.06
3.26035	5.06
3.27702	5.06
3.29368	5.06
3.31035	5.06
3.32702	5.06
3.34368	5.06
3.36035	5.06
3.37702	5.06
3.39368	5.06
3.41035	5.06
3.42702	5.06
3.44368	5.06
3.46035	5.06
3.47702	5.06
3.49368	5.06
3.51035	5.06
3.52702	5.06
3.54368	5.06
3.56035	5.06
3.57702	5.06
3.59368	5.06
3.61035	5.06
3.62702	5.06
3.64368	5.06
3.66035	5.06
3.67702	5.06
3.69368	5.06
3.71035	5.06
3.72702	5.06
3.74368	5.06
3.76035	5.06
3.77702	5.06
3.79368	5.06
3.81035	5.06
3.82702	5.06
3.84368	5.06
3.86035	5.06
3.87702	5.06
3.89368	5.06
3.91035	5.06
3.92702	5.06
3.94368	5.06
3.96035	5.06
3.97702	5.06
3.99368	5.06

[Status Trace (Linear Velocity)]
Interval(msec)	1000
# of Points	240
Start Time(min)	0.010
End Time(min)	3.994
Intensity Units	
Intensity Multiplier	1
R.Time (min)	Intensity
0.01035	39.01
0.02702	37.07
0.04368	38.65
0.06035	40.06
0.07702	39.63
0.09368	39.01
0.11035	39.00
0.12702	39.01
0.14368	39.01
0.16035	39.01
0.17702	39.01
0.19368	39.01
0.21035	39.01
0.22702	39.01
0.24368	39.01
0.26035	39.01
0.27702	39.01
0.29368	39.01
0.31035	39.01
0.32702	39.01
0.34368	39.01
0.36035	39.01
0.37702	39.01
0.39368	39.01
0.41035	39.01
0.42702	39.01
0.44368	39.01
0.46035	39.01
0.47702	39.01
0.49368	39.01
0.51035	39.01
0.52702	39.01
0.54368	39.01
0.56035	39.01
0.57702	39.01
0.59368	39.01
0.61035	39.01
0.62702	39.01
0.64368	39.01
0.66035	39.01
0.67702	39.01
0.69368	39.01
0.71035	39.01
0.72702	39.01
0.74368	39.01
0.76035	39.01
0.77702	39.01
0.79368	39.01
0.81035	39.01
0.82702	39.01
0.84368	39.01
0.86035	39.01
0.87702	39.01
0.89368	39.01
0.91035	39.01
0.92702	39.01
0.94368	39.01
0.96035	39.01
0.97702	39.01
0.99368	39.01
1.01035	39.01
1.02702	39.01
1.04368	39.01
1.06035	39.01
1.07702	39.01
1.09368	39.01
1.11035	39.01
1.12702	39.01
1.14368	39.01
1.16035	39.01
1.17702	39.01
1.19368	39.01
1.21035	39.01
1.22702	39.01
1.24368	39.01
1.26035	39.01
1.27702	39.01
1.29368	39.02
1.31035	39.01
1.32702	39.02
1.34368	39.01
1.36035	39.01
1.37702	39.02
1.39368	39.02
1.41035	39.02
1.42702	39.02
1.44368	39.02
1.46035	39.02
1.47702	39.01
1.49368	39.01
1.51035	39.01
1.52702	39.01
1.54368	39.01
1.56035	39.01
1.57702	39.01
1.59368	39.01
1.61035	39.00
1.62702	38.99
1.64368	38.98
1.66035	38.95
1.67702	38.92
1.69368	38.89
1.71035	38.85
1.72702	38.82
1.74368	38.79
1.76035	38.75
1.77702	38.72
1.79368	38.69
1.81035	38.66
1.82702	38.63
1.84368	38.60
1.86035	38.57
1.87702	38.54
1.89368	38.51
1.91035	38.47
1.92702	38.45
1.94368	38.42
1.96035	38.39
1.97702	38.36
1.99368	38.33
2.01035	38.30
2.02702	38.27
2.04368	38.24
2.06035	38.21
2.07702	38.18
2.09368	38.15
2.11035	38.12
2.12702	38.09
2.14368	38.06
2.16035	38.03
2.17702	38.00
2.19368	37.97
2.21035	37.94
2.22702	37.91
2.24368	37.88
2.26035	37.85
2.27702	37.82
2.29368	37.79
2.31035	37.76
2.32702	37.73
2.34368	37.70
2.36035	37.67
2.37702	37.65
2.39368	37.64
2.41035	37.64
2.42702	37.65
2.44368	37.65
2.46035	37.65
2.47702	37.65
2.49368	37.64
2.51035	37.64
2.52702	37.64
2.54368	37.64
2.56035	37.64
2.57702	37.64
2.59368	37.64
2.61035	37.64
2.62702	37.64
2.64368	37.64
2.66035	37.64
2.67702	37.64
2.69368	37.64
2.71035	37.64
2.72702	37.64
2.74368	37.64
2.76035	37.64
2.77702	37.64
2.79368	37.64
2.81035	37.64
2.82702	37.64
2.84368	37.64
2.86035	37.64
2.87702	37.64
2.89368	37.63
2.91035	37.63
2.92702	37.63
2.94368	37.63
2.96035	37.63
2.97702	37.63
2.99368	37.63
3.01035	37.63
3.02702	37.63
3.04368	37.63
3.06035	37.63
3.07702	37.62
3.09368	37.62
3.11035	37.62
3.12702	37.62
3.14368	37.62
3.16035	37.62
3.17702	37.62
3.19368	37.62
3.21035	37.62
3.22702	37.62
3.24368	37.62
3.26035	37.62
3.27702	37.62
3.29368	37.62
3.31035	37.62
3.32702	37.62
3.34368	37.62
3.36035	37.62
3.37702	37.62
3.39368	37.62
3.41035	37.62
3.42702	37.62
3.44368	37.62
3.46035	37.62
3.47702	37.62
3.49368	37.62
3.51035	37.62
3.52702	37.62
3.54368	37.62
3.56035	37.62
3.57702	37.62
3.59368	37.62
3.61035	37.62
3.62702	37.62
3.64368	37.62
3.66035	37.62
3.67702	37.62
3.69368	37.62
3.71035	37.62
3.72702	37.62
3.74368	37.62
3.76035	37.62
3.77702	37.62
3.79368	37.62
3.81035	37.62
3.82702	37.62
3.84368	37.62
3.86035	37.62
3.87702	37.62
3.89368	37.62
3.91035	37.62
3.92702	37.62
3.94368	37.62
3.96035	37.62
3.97702	37.62
3.99368	37.62

