[Header]
Application Name	LabSolutions
Version	5.110
Data File Name	C:\Users\User\Desktop\Junior\UIC Prairie Sampling\6.2.23\06022023_048.gcd
Output Date	6/12/2023
Output Time	11:47:12 AM

[File Information]
Type	Data File
Generated	6/6/2023 2:40:33 PM
Generated by	System Administrator
Modified	6/6/2023 2:47:57 PM
Modified by	System Administrator

[Sample Information]
Operator Name	System Administrator
Acquired	6/6/2023 2:43:56 PM
Sample Type	0:Unknown
Level	0
Sample Name	048
Sample ID	048
ISTD Amount1	1
ISTD Amount2	1
ISTD Amount3	1
ISTD Amount4	1
ISTD Amount5	1
ISTD Amount6	1
ISTD Amount7	1
ISTD Amount8	1
ISTD Amount9	1
ISTD Amount10	1
ISTD Amount11	1
ISTD Amount12	1
ISTD Amount13	1
ISTD Amount14	1
ISTD Amount15	1
ISTD Amount16	1
ISTD Amount17	1
ISTD Amount18	1
ISTD Amount19	1
ISTD Amount20	1
ISTD Amount21	1
ISTD Amount22	1
ISTD Amount23	1
ISTD Amount24	1
ISTD Amount25	1
ISTD Amount26	1
ISTD Amount27	1
ISTD Amount28	1
ISTD Amount29	1
ISTD Amount30	1
ISTD Amount31	1
ISTD Amount32	1
Sample Amount	1
Dilution Factor	1
Vial#	47
Injection Volume	1
Injection Count	1
Bar Code	

[Original Files]
Data File	C:\Users\User\Desktop\Junior\UIC Prairie Sampling\6.2.23\06022023_048.gcd
Method File	C:\LabSolutions\Data\GHG_4min_2022\ghg3_togas_w_acet_4 min_new_int.gcm
Batch File	C:\LabSolutions\Data\AutoSamplerTesting\06022023.gcb
Report Format File	c:\LabSolutions\System\DEFAULT.lsr

[File Description]


[Configuration]
Instrument Name	C0B7VH3-Instrument1
Instrument #	1
Line #	1
# of Detectors	3
Detector ID	DET#1	DET#2	DET#3
Detector Name	FID	PTCD	ECD
# of Channels	1	1	1

[Peak Table(Ch1)]
# of Peaks	3
Peak#	R.Time	I.Time	F.Time	Area	Height	A/H	Conc.	Mark	ID#	Name	k'	Plate #	Plate Ht.	Tailing	Resolution	Sep.Factor	Area Ratio	Height Ratio	Conc. %	Norm Conc.
1	1.472	1.435	1.527	4732	2337	2.025	0.000	   	1	CO	0.000	9733	15.412	1.207	0.000	0.000	0	0	0.000	0.000
2	1.564	1.527	1.608	4251	2173	1.956	20.726	 V 	2	CH4	0.062	11543	12.995	1.089	1.555	0.000	0	0	5.315	5.315
3	1.989	1.945	2.436	1915796	929845	2.060	369.209	   	3	CO2	0.351	17671	8.488	1.227	7.205	5.640	0	0	94.685	94.685

[Peak Table(Ch2)]
# of Peaks	0

[Peak Table(Ch3)]
# of Peaks	4
Peak#	R.Time	I.Time	F.Time	Area	Height	A/H	Conc.	Mark	ID#	Name	k'	Plate #	Plate Ht.	Tailing	Resolution	Sep.Factor	Area Ratio	Height Ratio	Conc. %	Norm Conc.
1	2.499	2.414	2.535	3423	750	4.563	0.000	   			0.000	580	258.406	0.000	0.000	0.000	0	0	0.000	0.000
2	2.565	2.535	2.664	4875	739	6.596	0.000	 V 			0.026	163	922.757	0.000	0.108	0.000	0	0	0.000	0.000
3	2.700	2.664	2.818	4637	561	8.272	0.000	 V 			0.081	141	1066.397	0.000	0.158	3.056	0	0	0.000	0.000
4	2.891	2.818	3.874	33175	5012	6.618	0.491	 V 	1	N2O	0.157	11794	12.719	0.000	0.375	1.945	0	0	100.000	100.000

[Compound Results(Ch1)]
# of IDs	6
ID#	Name	R.Time	Area	Height	Conc.	Curve	3rd	2nd	1st	Constant	Area Ratio	Height Ratio	Conc. %	Norm Conc.
1	CO	1.472	4732	2337	0.000	Linear	0.000000e+00	0.000000e+00	0.000000e+00	0.000000e+00	0	0	0.000	0.000
2	CH4	1.564	4251	2173	20.726	Linear	0.000000e+00	0.000000e+00	2.051179e+002	0.000000e+00	0	0	5.315	5.315
3	CO2	1.989	1915796	929845	369.209	Linear	0.000000e+00	0.000000e+00	5.188919e+003	0.000000e+00	0	0	94.685	94.685
4	Ethylene	0.000	0	0	0.000	Linear	0.000000e+00	0.000000e+00	0.000000e+00	0.000000e+00	0	0	0.000	0.000
5	Acetylene	0.000	0	0	0.000	Linear	0.000000e+00	0.000000e+00	0.000000e+00	0.000000e+00	0	0	0.000	0.000
6	Ethane	0.000	0	0	0.000	Linear	0.000000e+00	0.000000e+00	0.000000e+00	0.000000e+00	0	0	0.000	0.000

[Compound Results(Ch2)]
# of IDs	5
ID#	Name	R.Time	Area	Height	Conc.	Curve	3rd	2nd	1st	Constant	Area Ratio	Height Ratio	Conc. %	Norm Conc.
1	Hydrogen	0.000	0	0	0.000	Linear	0.000000e+00	0.000000e+00	0.000000e+00	0.000000e+00	0	0	0.000	0.000
2	Oxygen	0.000	0	0	0.000	Linear	0.000000e+00	0.000000e+00	0.000000e+00	0.000000e+00	0	0	0.000	0.000
3	Nitrogen	0.000	0	0	0.000	Linear	0.000000e+00	0.000000e+00	0.000000e+00	0.000000e+00	0	0	0.000	0.000
4	Methane	0.000	0	0	0.000	Linear	0.000000e+00	0.000000e+00	0.000000e+00	0.000000e+00	0	0	0.000	0.000
5	Carbon Monoxide	0.000	0	0	0.000	Linear	0.000000e+00	0.000000e+00	0.000000e+00	0.000000e+00	0	0	0.000	0.000

[Compound Results(Ch3)]
# of IDs	2
ID#	Name	R.Time	Area	Height	Conc.	Curve	3rd	2nd	1st	Constant	Area Ratio	Height Ratio	Conc. %	Norm Conc.
1	N2O	2.891	33175	5012	0.491	Linear	0.000000e+00	0.000000e+00	6.759880e+004	0.000000e+00	0	0	100.000	100.000
2	SF6	0.000	0	0	0.000	Linear	0.000000e+00	0.000000e+00	0.000000e+00	0.000000e+00	0	0	0.000	0.000

[Group Results(Ch1)]
# of Groups	0

[Group Results(Ch2)]
# of Groups	0

[Group Results(Ch3)]
# of Groups	0

[Chromatogram (Ch1)]
Interval(msec)	220
# of Points	1091
Start Time(min)	0.002
End Time(min)	3.998
R.Time (min)	Intensity
0.00167	8
0.00533	1
0.00900	-5
0.01267	-7
0.01633	-4
0.02000	1
0.02367	6
0.02733	9
0.03100	11
0.03467	11
0.03833	12
0.04200	15
0.04567	21
0.04933	27
0.05300	32
0.05667	36
0.06033	39
0.06400	42
0.06767	45
0.07133	43
0.07500	40
0.07867	37
0.08233	36
0.08600	35
0.08967	34
0.09333	36
0.09700	40
0.10067	44
0.10433	42
0.10800	32
0.11167	21
0.11533	16
0.11900	16
0.12267	18
0.12633	22
0.13000	25
0.13367	23
0.13733	23
0.14100	23
0.14467	19
0.14833	13
0.15200	11
0.15567	16
0.15933	21
0.16300	22
0.16667	23
0.17033	23
0.17400	25
0.17767	27
0.18133	28
0.18500	25
0.18867	20
0.19233	17
0.19600	19
0.19967	25
0.20333	31
0.20700	37
0.21067	41
0.21433	45
0.21800	49
0.22167	51
0.22533	43
0.22900	29
0.23267	13
0.23633	0
0.24000	-7
0.24367	-12
0.24733	-17
0.25100	-20
0.25467	-21
0.25833	-19
0.26200	-17
0.26567	-16
0.26933	-17
0.27300	-17
0.27667	-13
0.28033	-7
0.28400	-2
0.28767	1
0.29133	4
0.29500	5
0.29867	3
0.30233	2
0.30600	7
0.30967	17
0.31333	22
0.31700	22
0.32067	20
0.32433	17
0.32800	12
0.33167	6
0.33533	-1
0.33900	-8
0.34267	-13
0.34633	-14
0.35000	-16
0.35367	-19
0.35733	-20
0.36100	-20
0.36467	-17
0.36833	-11
0.37200	-4
0.37567	-0
0.37933	0
0.38300	0
0.38667	2
0.39033	5
0.39400	11
0.39767	21
0.40133	31
0.40500	35
0.40867	34
0.41233	27
0.41600	16
0.41967	4
0.42333	-3
0.42700	-7
0.43067	-7
0.43433	-3
0.43800	3
0.44167	8
0.44533	12
0.44900	17
0.45267	21
0.45633	22
0.46000	21
0.46367	20
0.46733	18
0.47100	17
0.47467	18
0.47833	18
0.48200	18
0.48567	17
0.48933	17
0.49300	17
0.49667	13
0.50033	6
0.50400	-3
0.50767	-7
0.51133	-5
0.51500	1
0.51867	7
0.52233	7
0.52600	1
0.52967	-7
0.53333	-15
0.53700	-20
0.54067	-20
0.54433	-17
0.54800	-10
0.55167	-0
0.55533	8
0.55900	13
0.56267	13
0.56633	9
0.57000	5
0.57367	4
0.57733	3
0.58100	2
0.58467	-1
0.58833	-2
0.59200	0
0.59567	5
0.59933	11
0.60300	19
0.60667	24
0.61033	23
0.61400	17
0.61767	9
0.62133	4
0.62500	3
0.62867	0
0.63233	2
0.63600	7
0.63967	12
0.64333	12
0.64700	10
0.65067	9
0.65433	12
0.65800	16
0.66167	18
0.66533	16
0.66900	9
0.67267	2
0.67633	-6
0.68000	-11
0.68367	-10
0.68733	-1
0.69100	7
0.69467	12
0.69833	12
0.70200	8
0.70567	3
0.70933	-1
0.71300	-5
0.71667	-8
0.72033	-8
0.72400	-5
0.72767	-3
0.73133	-3
0.73500	-5
0.73867	-3
0.74233	3
0.74600	10
0.74967	17
0.75333	24
0.75700	23
0.76067	13
0.76433	1
0.76800	-10
0.77167	-18
0.77533	-19
0.77900	-16
0.78267	-13
0.78633	-12
0.79000	-11
0.79367	-12
0.79733	-13
0.80100	-11
0.80467	-6
0.80833	1
0.81200	10
0.81567	20
0.81933	25
0.82300	24
0.82667	15
0.83033	3
0.83400	-8
0.83767	-16
0.84133	-23
0.84500	-25
0.84867	-26
0.85233	-26
0.85600	-25
0.85967	-21
0.86333	-17
0.86700	-13
0.87067	-10
0.87433	-9
0.87800	-9
0.88167	-12
0.88533	-15
0.88900	-14
0.89267	-8
0.89633	1
0.90000	7
0.90367	11
0.90733	10
0.91100	6
0.91467	-1
0.91833	-6
0.92200	-11
0.92567	-12
0.92933	-14
0.93300	-16
0.93667	-15
0.94033	-12
0.94400	-10
0.94767	-7
0.95133	-1
0.95500	6
0.95867	9
0.96233	9
0.96600	10
0.96967	14
0.97333	11
0.97700	0
0.98067	-11
0.98433	-21
0.98800	-29
0.99167	-36
0.99533	-41
0.99900	-41
1.00267	-41
1.00633	-45
1.01000	-49
1.01367	-47
1.01733	-44
1.02100	-38
1.02467	-35
1.02833	-32
1.03200	-27
1.03567	-21
1.03933	-15
1.04300	-12
1.04667	-12
1.05033	-13
1.05400	-14
1.05767	-14
1.06133	-12
1.06500	-11
1.06867	-9
1.07233	-6
1.07600	-5
1.07967	-7
1.08333	-13
1.08700	-19
1.09067	-23
1.09433	-21
1.09800	-18
1.10167	-16
1.10533	-16
1.10900	-17
1.11267	-17
1.11633	-16
1.12000	-14
1.12367	-12
1.12733	-13
1.13100	-16
1.13467	-18
1.13833	-19
1.14200	-18
1.14567	-15
1.14933	-12
1.15300	-12
1.15667	-12
1.16033	-9
1.16400	-7
1.16767	-9
1.17133	-16
1.17500	-18
1.17867	-13
1.18233	-9
1.18600	-7
1.18967	-5
1.19333	-6
1.19700	-9
1.20067	-16
1.20433	-21
1.20800	-24
1.21167	-24
1.21533	-23
1.21900	-22
1.22267	-24
1.22633	-30
1.23000	-36
1.23367	-40
1.23733	-44
1.24100	-45
1.24467	-47
1.24833	-48
1.25200	-44
1.25567	-36
1.25933	-27
1.26300	-19
1.26667	-18
1.27033	-22
1.27400	-27
1.27767	-28
1.28133	-27
1.28500	-29
1.28867	-31
1.29233	-30
1.29600	-27
1.29967	-25
1.30333	-29
1.30700	-36
1.31067	-44
1.31433	-53
1.31800	-56
1.32167	-53
1.32533	-50
1.32900	-50
1.33267	-47
1.33633	-44
1.34000	-41
1.34367	-37
1.34733	-33
1.35100	-34
1.35467	-36
1.35833	-36
1.36200	-35
1.36567	-31
1.36933	-29
1.37300	-32
1.37667	-36
1.38033	-40
1.38400	-43
1.38767	-43
1.39133	-37
1.39500	-28
1.39867	-22
1.40233	-19
1.40600	-19
1.40967	-19
1.41333	-22
1.41700	-27
1.42067	-33
1.42433	-42
1.42800	-51
1.43167	-53
1.43533	-41
1.43900	-10
1.44267	32
1.44633	153
1.45000	445
1.45367	874
1.45733	1330
1.46100	1732
1.46467	2046
1.46833	2246
1.47200	2293
1.47567	2166
1.47933	1889
1.48300	1530
1.48667	1167
1.49033	853
1.49400	605
1.49767	418
1.50133	282
1.50500	182
1.50867	109
1.51233	60
1.51600	27
1.51967	4
1.52333	-10
1.52700	-17
1.53067	-10
1.53433	35
1.53800	178
1.54167	467
1.54533	872
1.54900	1303
1.55267	1678
1.55633	1958
1.56000	2115
1.56367	2122
1.56733	1963
1.57100	1669
1.57467	1313
1.57833	967
1.58200	673
1.58567	445
1.58933	276
1.59300	155
1.59667	68
1.60033	7
1.60400	-32
1.60767	-55
1.61133	-64
1.61500	-63
1.61867	-61
1.62233	-59
1.62600	-58
1.62967	-55
1.63333	-51
1.63700	-49
1.64067	-48
1.64433	-47
1.64800	-44
1.65167	-40
1.65533	-39
1.65900	-42
1.66267	-46
1.66633	-49
1.67000	-48
1.67367	-46
1.67733	-47
1.68100	-50
1.68467	-53
1.68833	-53
1.69200	-53
1.69567	-54
1.69933	-59
1.70300	-64
1.70667	-68
1.71033	-71
1.71400	-71
1.71767	-70
1.72133	-67
1.72500	-61
1.72867	-52
1.73233	-42
1.73600	-36
1.73967	-39
1.74333	-48
1.74700	-60
1.75067	-68
1.75433	-70
1.75800	-71
1.76167	-70
1.76533	-68
1.76900	-67
1.77267	-70
1.77633	-74
1.78000	-72
1.78367	-68
1.78733	-65
1.79100	-63
1.79467	-64
1.79833	-62
1.80200	-57
1.80567	-52
1.80933	-50
1.81300	-53
1.81667	-61
1.82033	-71
1.82400	-82
1.82767	-91
1.83133	-96
1.83500	-95
1.83867	-93
1.84233	-89
1.84600	-84
1.84967	-78
1.85333	-72
1.85700	-69
1.86067	-68
1.86433	-70
1.86800	-74
1.87167	-74
1.87533	-72
1.87900	-72
1.88267	-71
1.88633	-69
1.89000	-67
1.89367	-70
1.89733	-74
1.90100	-75
1.90467	-72
1.90833	-65
1.91200	-55
1.91567	-44
1.91933	-30
1.92300	-17
1.92667	-11
1.93033	-15
1.93400	-25
1.93767	-33
1.94133	-38
1.94500	-16
1.94867	204
1.95233	1535
1.95600	7421
1.95967	26867
1.96333	75865
1.96700	171047
1.97067	315705
1.97433	491782
1.97800	667949
1.98167	813178
1.98533	904685
1.98900	929862
1.99267	887762
1.99633	790300
2.00000	659259
2.00367	519218
2.00733	389912
2.01100	282353
2.01467	199420
2.01833	138853
2.02200	96248
2.02567	67002
2.02933	47215
2.03300	33911
2.03667	24954
2.04033	18885
2.04400	14722
2.04767	11813
2.05133	9733
2.05500	8206
2.05867	7055
2.06233	6166
2.06600	5463
2.06967	4894
2.07333	4427
2.07700	4042
2.08067	3718
2.08433	3443
2.08800	3209
2.09167	3006
2.09533	2826
2.09900	2662
2.10267	2515
2.10633	2378
2.11000	2250
2.11367	2128
2.11733	2013
2.12100	1906
2.12467	1811
2.12833	1730
2.13200	1660
2.13567	1594
2.13933	1531
2.14300	1476
2.14667	1426
2.15033	1383
2.15400	1349
2.15767	1318
2.16133	1282
2.16500	1238
2.16867	1187
2.17233	1138
2.17600	1091
2.17967	1049
2.18333	1015
2.18700	985
2.19067	957
2.19433	931
2.19800	908
2.20167	883
2.20533	855
2.20900	828
2.21267	806
2.21633	786
2.22000	765
2.22367	748
2.22733	733
2.23100	717
2.23467	698
2.23833	680
2.24200	665
2.24567	651
2.24933	638
2.25300	626
2.25667	615
2.26033	606
2.26400	599
2.26767	593
2.27133	589
2.27500	588
2.27867	586
2.28233	579
2.28600	565
2.28967	547
2.29333	529
2.29700	516
2.30067	506
2.30433	497
2.30800	490
2.31167	484
2.31533	481
2.31900	475
2.32267	465
2.32633	454
2.33000	444
2.33367	444
2.33733	452
2.34100	460
2.34467	464
2.34833	460
2.35200	448
2.35567	432
2.35933	419
2.36300	406
2.36667	395
2.37033	385
2.37400	379
2.37767	379
2.38133	385
2.38500	394
2.38867	399
2.39233	400
2.39600	397
2.39967	390
2.40333	384
2.40700	377
2.41067	370
2.41433	368
2.41800	368
2.42167	368
2.42533	366
2.42900	363
2.43267	359
2.43633	353
2.44000	346
2.44367	341
2.44733	343
2.45100	349
2.45467	352
2.45833	353
2.46200	355
2.46567	355
2.46933	352
2.47300	349
2.47667	350
2.48033	355
2.48400	359
2.48767	360
2.49133	358
2.49500	355
2.49867	352
2.50233	351
2.50600	352
2.50967	354
2.51333	352
2.51700	351
2.52067	351
2.52433	353
2.52800	355
2.53167	356
2.53533	357
2.53900	356
2.54267	351
2.54633	344
2.55000	336
2.55367	329
2.55733	322
2.56100	317
2.56467	315
2.56833	313
2.57200	313
2.57567	315
2.57933	318
2.58300	319
2.58667	319
2.59033	321
2.59400	328
2.59767	334
2.60133	336
2.60500	336
2.60867	338
2.61233	340
2.61600	340
2.61967	335
2.62333	327
2.62700	321
2.63067	317
2.63433	313
2.63800	310
2.64167	313
2.64533	319
2.64900	326
2.65267	334
2.65633	341
2.66000	346
2.66367	348
2.66733	347
2.67100	344
2.67467	345
2.67833	346
2.68200	343
2.68567	336
2.68933	326
2.69300	319
2.69667	317
2.70033	319
2.70400	320
2.70767	320
2.71133	318
2.71500	318
2.71867	322
2.72233	322
2.72600	319
2.72967	313
2.73333	306
2.73700	303
2.74067	305
2.74433	311
2.74800	322
2.75167	330
2.75533	335
2.75900	335
2.76267	334
2.76633	334
2.77000	336
2.77367	341
2.77733	345
2.78100	344
2.78467	341
2.78833	339
2.79200	338
2.79567	340
2.79933	344
2.80300	349
2.80667	353
2.81033	355
2.81400	354
2.81767	351
2.82133	349
2.82500	349
2.82867	353
2.83233	355
2.83600	357
2.83967	362
2.84333	366
2.84700	369
2.85067	369
2.85433	369
2.85800	366
2.86167	359
2.86533	356
2.86900	355
2.87267	354
2.87633	354
2.88000	355
2.88367	356
2.88733	355
2.89100	354
2.89467	355
2.89833	358
2.90200	361
2.90567	364
2.90933	366
2.91300	372
2.91667	378
2.92033	381
2.92400	382
2.92767	382
2.93133	378
2.93500	372
2.93867	368
2.94233	367
2.94600	367
2.94967	370
2.95333	375
2.95700	382
2.96067	391
2.96433	399
2.96800	404
2.97167	402
2.97533	399
2.97900	399
2.98267	402
2.98633	402
2.99000	399
2.99367	397
2.99733	396
3.00100	399
3.00467	404
3.00833	406
3.01200	402
3.01567	396
3.01933	390
3.02300	386
3.02667	385
3.03033	388
3.03400	391
3.03767	392
3.04133	390
3.04500	389
3.04867	390
3.05233	393
3.05600	398
3.05967	401
3.06333	403
3.06700	403
3.07067	403
3.07433	404
3.07800	406
3.08167	408
3.08533	407
3.08900	405
3.09267	402
3.09633	401
3.10000	402
3.10367	403
3.10733	405
3.11100	408
3.11467	409
3.11833	408
3.12200	401
3.12567	392
3.12933	386
3.13300	386
3.13667	387
3.14033	387
3.14400	385
3.14767	385
3.15133	385
3.15500	386
3.15867	386
3.16233	386
3.16600	383
3.16967	379
3.17333	376
3.17700	373
3.18067	375
3.18433	380
3.18800	385
3.19167	391
3.19533	394
3.19900	393
3.20267	395
3.20633	397
3.21000	395
3.21367	391
3.21733	390
3.22100	393
3.22467	397
3.22833	401
3.23200	403
3.23567	399
3.23933	394
3.24300	388
3.24667	383
3.25033	380
3.25400	382
3.25767	385
3.26133	388
3.26500	389
3.26867	387
3.27233	381
3.27600	376
3.27967	375
3.28333	377
3.28700	380
3.29067	382
3.29433	383
3.29800	382
3.30167	382
3.30533	384
3.30900	384
3.31267	380
3.31633	373
3.32000	372
3.32367	377
3.32733	383
3.33100	385
3.33467	383
3.33833	379
3.34200	373
3.34567	368
3.34933	365
3.35300	366
3.35667	370
3.36033	374
3.36400	373
3.36767	367
3.37133	364
3.37500	363
3.37867	362
3.38233	359
3.38600	353
3.38967	349
3.39333	349
3.39700	350
3.40067	354
3.40433	356
3.40800	359
3.41167	362
3.41533	367
3.41900	371
3.42267	371
3.42633	367
3.43000	363
3.43367	361
3.43733	362
3.44100	363
3.44467	363
3.44833	362
3.45200	361
3.45567	359
3.45933	357
3.46300	358
3.46667	360
3.47033	361
3.47400	364
3.47767	365
3.48133	367
3.48500	364
3.48867	358
3.49233	354
3.49600	355
3.49967	357
3.50333	360
3.50700	363
3.51067	365
3.51433	363
3.51800	361
3.52167	360
3.52533	358
3.52900	352
3.53267	347
3.53633	344
3.54000	341
3.54367	338
3.54733	338
3.55100	340
3.55467	343
3.55833	348
3.56200	353
3.56567	356
3.56933	352
3.57300	343
3.57667	335
3.58033	333
3.58400	337
3.58767	342
3.59133	345
3.59500	346
3.59867	348
3.60233	351
3.60600	354
3.60967	355
3.61333	351
3.61700	343
3.62067	337
3.62433	336
3.62800	338
3.63167	340
3.63533	344
3.63900	349
3.64267	352
3.64633	352
3.65000	349
3.65367	345
3.65733	340
3.66100	337
3.66467	336
3.66833	337
3.67200	339
3.67567	343
3.67933	349
3.68300	355
3.68667	359
3.69033	363
3.69400	370
3.69767	376
3.70133	378
3.70500	376
3.70867	372
3.71233	362
3.71600	350
3.71967	336
3.72333	326
3.72700	318
3.73067	309
3.73433	305
3.73800	309
3.74167	316
3.74533	323
3.74900	332
3.75267	336
3.75633	335
3.76000	330
3.76367	324
3.76733	322
3.77100	324
3.77467	329
3.77833	336
3.78200	334
3.78567	325
3.78933	316
3.79300	311
3.79667	307
3.80033	306
3.80400	305
3.80767	307
3.81133	313
3.81500	320
3.81867	329
3.82233	337
3.82600	340
3.82967	337
3.83333	329
3.83700	319
3.84067	308
3.84433	301
3.84800	296
3.85167	290
3.85533	288
3.85900	290
3.86267	300
3.86633	312
3.87000	323
3.87367	333
3.87733	341
3.88100	345
3.88467	345
3.88833	342
3.89200	337
3.89567	331
3.89933	328
3.90300	325
3.90667	325
3.91033	325
3.91400	326
3.91767	327
3.92133	327
3.92500	327
3.92867	323
3.93233	317
3.93600	310
3.93967	307
3.94333	308
3.94700	307
3.95067	300
3.95433	293
3.95800	291
3.96167	293
3.96533	297
3.96900	305
3.97267	314
3.97633	322
3.98000	325
3.98367	324
3.98733	321
3.99100	319
3.99467	321
3.99833	322

[Chromatogram (Ch2)]
Interval(msec)	220
# of Points	1091
Start Time(min)	0.002
End Time(min)	3.998
R.Time (min)	Intensity
0.00167	-1
0.00533	-1
0.00900	-1
0.01267	-1
0.01633	-2
0.02000	-2
0.02367	-2
0.02733	-2
0.03100	-2
0.03467	-2
0.03833	-2
0.04200	-2
0.04567	-2
0.04933	-2
0.05300	-3
0.05667	-3
0.06033	-3
0.06400	-3
0.06767	-3
0.07133	-3
0.07500	-3
0.07867	-3
0.08233	-3
0.08600	-2
0.08967	-2
0.09333	-2
0.09700	-2
0.10067	-2
0.10433	-2
0.10800	-2
0.11167	-2
0.11533	-2
0.11900	-2
0.12267	-2
0.12633	-2
0.13000	-2
0.13367	-2
0.13733	-2
0.14100	-2
0.14467	-3
0.14833	-3
0.15200	-3
0.15567	-3
0.15933	-3
0.16300	-3
0.16667	-3
0.17033	-4
0.17400	-4
0.17767	-4
0.18133	-5
0.18500	-5
0.18867	-5
0.19233	-5
0.19600	-5
0.19967	-5
0.20333	-5
0.20700	-4
0.21067	-4
0.21433	-4
0.21800	-4
0.22167	-4
0.22533	-4
0.22900	-4
0.23267	-4
0.23633	-4
0.24000	-4
0.24367	-5
0.24733	-4
0.25100	-4
0.25467	-4
0.25833	-4
0.26200	-4
0.26567	-4
0.26933	-5
0.27300	-5
0.27667	-5
0.28033	-5
0.28400	-5
0.28767	-4
0.29133	-4
0.29500	-4
0.29867	-4
0.30233	-4
0.30600	-4
0.30967	-4
0.31333	-4
0.31700	-4
0.32067	-5
0.32433	-5
0.32800	-6
0.33167	-6
0.33533	-7
0.33900	-7
0.34267	-8
0.34633	-8
0.35000	-8
0.35367	-8
0.35733	-8
0.36100	-8
0.36467	-7
0.36833	-7
0.37200	-7
0.37567	-7
0.37933	-7
0.38300	-6
0.38667	-6
0.39033	-6
0.39400	-6
0.39767	-6
0.40133	-6
0.40500	-6
0.40867	-6
0.41233	-6
0.41600	-6
0.41967	-6
0.42333	-6
0.42700	-7
0.43067	-7
0.43433	-7
0.43800	-7
0.44167	-8
0.44533	-8
0.44900	-8
0.45267	-8
0.45633	-8
0.46000	-8
0.46367	-8
0.46733	-7
0.47100	-7
0.47467	-7
0.47833	-6
0.48200	-6
0.48567	-6
0.48933	-6
0.49300	-6
0.49667	-6
0.50033	-6
0.50400	-6
0.50767	-5
0.51133	-5
0.51500	-5
0.51867	-5
0.52233	-5
0.52600	-5
0.52967	-5
0.53333	-5
0.53700	-5
0.54067	-5
0.54433	-4
0.54800	-4
0.55167	-3
0.55533	-3
0.55900	-3
0.56267	-3
0.56633	-3
0.57000	-3
0.57367	-3
0.57733	-3
0.58100	-3
0.58467	-3
0.58833	-3
0.59200	-3
0.59567	-3
0.59933	-3
0.60300	-3
0.60667	-3
0.61033	-3
0.61400	-2
0.61767	-3
0.62133	-3
0.62500	-3
0.62867	-3
0.63233	-4
0.63600	-4
0.63967	-4
0.64333	-4
0.64700	-5
0.65067	-5
0.65433	-6
0.65800	-7
0.66167	-7
0.66533	-7
0.66900	-8
0.67267	-8
0.67633	-8
0.68000	-8
0.68367	-8
0.68733	-8
0.69100	-8
0.69467	-8
0.69833	-8
0.70200	-7
0.70567	-7
0.70933	-6
0.71300	-6
0.71667	-6
0.72033	-6
0.72400	-6
0.72767	-6
0.73133	-6
0.73500	-6
0.73867	-6
0.74233	-6
0.74600	-7
0.74967	-7
0.75333	-7
0.75700	-7
0.76067	-7
0.76433	-7
0.76800	-7
0.77167	-6
0.77533	-6
0.77900	-6
0.78267	-6
0.78633	-6
0.79000	-6
0.79367	-6
0.79733	-6
0.80100	-6
0.80467	-6
0.80833	-6
0.81200	-6
0.81567	-7
0.81933	-7
0.82300	-7
0.82667	-7
0.83033	-7
0.83400	-7
0.83767	-7
0.84133	-7
0.84500	-7
0.84867	-7
0.85233	-7
0.85600	-7
0.85967	-7
0.86333	-7
0.86700	-7
0.87067	-6
0.87433	-6
0.87800	-6
0.88167	-5
0.88533	-5
0.88900	-5
0.89267	-5
0.89633	-5
0.90000	-5
0.90367	-4
0.90733	-4
0.91100	-4
0.91467	-4
0.91833	-4
0.92200	-4
0.92567	-4
0.92933	-4
0.93300	-5
0.93667	-5
0.94033	-5
0.94400	-6
0.94767	-6
0.95133	-6
0.95500	-6
0.95867	-6
0.96233	-7
0.96600	-7
0.96967	-7
0.97333	-7
0.97700	-7
0.98067	-7
0.98433	-7
0.98800	-7
0.99167	-7
0.99533	-7
0.99900	-7
1.00267	-7
1.00633	-7
1.01000	-7
1.01367	-7
1.01733	-7
1.02100	-7
1.02467	-8
1.02833	-8
1.03200	-8
1.03567	-8
1.03933	-7
1.04300	-7
1.04667	-7
1.05033	-7
1.05400	-7
1.05767	-7
1.06133	-7
1.06500	-7
1.06867	-7
1.07233	-7
1.07600	-7
1.07967	-7
1.08333	-7
1.08700	-7
1.09067	-7
1.09433	-6
1.09800	-6
1.10167	-6
1.10533	-6
1.10900	-5
1.11267	-5
1.11633	-5
1.12000	-5
1.12367	-4
1.12733	-4
1.13100	-4
1.13467	-4
1.13833	-4
1.14200	-4
1.14567	-4
1.14933	-5
1.15300	-5
1.15667	-5
1.16033	-5
1.16400	-6
1.16767	-6
1.17133	-6
1.17500	-7
1.17867	-7
1.18233	-8
1.18600	-8
1.18967	-8
1.19333	-9
1.19700	-9
1.20067	-9
1.20433	-9
1.20800	-8
1.21167	-8
1.21533	-8
1.21900	-8
1.22267	-7
1.22633	-7
1.23000	-6
1.23367	-6
1.23733	-6
1.24100	-5
1.24467	-5
1.24833	-5
1.25200	-4
1.25567	-4
1.25933	-4
1.26300	-4
1.26667	-4
1.27033	-5
1.27400	-5
1.27767	-5
1.28133	-5
1.28500	-5
1.28867	-5
1.29233	-5
1.29600	-5
1.29967	-5
1.30333	-6
1.30700	-6
1.31067	-6
1.31433	-7
1.31800	-7
1.32167	-7
1.32533	-8
1.32900	-8
1.33267	-9
1.33633	-9
1.34000	-10
1.34367	-10
1.34733	-10
1.35100	-10
1.35467	-10
1.35833	-9
1.36200	-9
1.36567	-9
1.36933	-9
1.37300	-9
1.37667	-9
1.38033	-9
1.38400	-9
1.38767	-9
1.39133	-8
1.39500	-8
1.39867	-8
1.40233	-8
1.40600	-7
1.40967	-7
1.41333	-7
1.41700	-7
1.42067	-7
1.42433	-7
1.42800	-7
1.43167	-7
1.43533	-7
1.43900	-7
1.44267	-7
1.44633	-7
1.45000	-7
1.45367	-7
1.45733	-7
1.46100	-7
1.46467	-7
1.46833	-6
1.47200	-6
1.47567	-5
1.47933	-5
1.48300	-5
1.48667	-6
1.49033	-6
1.49400	-6
1.49767	-6
1.50133	-7
1.50500	-7
1.50867	-7
1.51233	-7
1.51600	-7
1.51967	-7
1.52333	-7
1.52700	-7
1.53067	-7
1.53433	-7
1.53800	-6
1.54167	-6
1.54533	-6
1.54900	-6
1.55267	-6
1.55633	-6
1.56000	-7
1.56367	-7
1.56733	-7
1.57100	-6
1.57467	-6
1.57833	-6
1.58200	-6
1.58567	-5
1.58933	-5
1.59300	-5
1.59667	-6
1.60033	-6
1.60400	-7
1.60767	-9
1.61133	-10
1.61500	-12
1.61867	-14
1.62233	-16
1.62600	-19
1.62967	-22
1.63333	-25
1.63700	-29
1.64067	-32
1.64433	-35
1.64800	-39
1.65167	-42
1.65533	-46
1.65900	-50
1.66267	-54
1.66633	-58
1.67000	-63
1.67367	-68
1.67733	-72
1.68100	-77
1.68467	-81
1.68833	-85
1.69200	-88
1.69567	-91
1.69933	-93
1.70300	-95
1.70667	-97
1.71033	-98
1.71400	-99
1.71767	-100
1.72133	-100
1.72500	-101
1.72867	-101
1.73233	-102
1.73600	-102
1.73967	-103
1.74333	-103
1.74700	-104
1.75067	-105
1.75433	-105
1.75800	-105
1.76167	-106
1.76533	-106
1.76900	-106
1.77267	-107
1.77633	-107
1.78000	-107
1.78367	-106
1.78733	-106
1.79100	-105
1.79467	-105
1.79833	-105
1.80200	-105
1.80567	-106
1.80933	-107
1.81300	-108
1.81667	-108
1.82033	-109
1.82400	-109
1.82767	-109
1.83133	-108
1.83500	-108
1.83867	-108
1.84233	-108
1.84600	-109
1.84967	-109
1.85333	-109
1.85700	-110
1.86067	-110
1.86433	-110
1.86800	-111
1.87167	-111
1.87533	-111
1.87900	-111
1.88267	-111
1.88633	-110
1.89000	-110
1.89367	-109
1.89733	-109
1.90100	-108
1.90467	-107
1.90833	-107
1.91200	-107
1.91567	-107
1.91933	-107
1.92300	-107
1.92667	-107
1.93033	-107
1.93400	-106
1.93767	-106
1.94133	-105
1.94500	-104
1.94867	-104
1.95233	-103
1.95600	-103
1.95967	-103
1.96333	-103
1.96700	-103
1.97067	-104
1.97433	-104
1.97800	-104
1.98167	-103
1.98533	-102
1.98900	-102
1.99267	-101
1.99633	-101
2.00000	-101
2.00367	-101
2.00733	-101
2.01100	-100
2.01467	-99
2.01833	-99
2.02200	-98
2.02567	-98
2.02933	-98
2.03300	-98
2.03667	-98
2.04033	-98
2.04400	-98
2.04767	-98
2.05133	-97
2.05500	-97
2.05867	-97
2.06233	-97
2.06600	-96
2.06967	-96
2.07333	-95
2.07700	-95
2.08067	-94
2.08433	-94
2.08800	-94
2.09167	-94
2.09533	-94
2.09900	-93
2.10267	-93
2.10633	-93
2.11000	-93
2.11367	-93
2.11733	-93
2.12100	-93
2.12467	-93
2.12833	-93
2.13200	-93
2.13567	-93
2.13933	-93
2.14300	-92
2.14667	-92
2.15033	-91
2.15400	-90
2.15767	-90
2.16133	-89
2.16500	-89
2.16867	-88
2.17233	-88
2.17600	-87
2.17967	-87
2.18333	-86
2.18700	-85
2.19067	-85
2.19433	-85
2.19800	-86
2.20167	-86
2.20533	-87
2.20900	-88
2.21267	-89
2.21633	-89
2.22000	-89
2.22367	-89
2.22733	-88
2.23100	-87
2.23467	-86
2.23833	-84
2.24200	-83
2.24567	-82
2.24933	-82
2.25300	-82
2.25667	-83
2.26033	-83
2.26400	-84
2.26767	-84
2.27133	-84
2.27500	-84
2.27867	-83
2.28233	-82
2.28600	-82
2.28967	-81
2.29333	-80
2.29700	-80
2.30067	-81
2.30433	-82
2.30800	-82
2.31167	-82
2.31533	-82
2.31900	-81
2.32267	-80
2.32633	-80
2.33000	-79
2.33367	-79
2.33733	-79
2.34100	-78
2.34467	-78
2.34833	-77
2.35200	-76
2.35567	-76
2.35933	-74
2.36300	-73
2.36667	-71
2.37033	-68
2.37400	-66
2.37767	-62
2.38133	-59
2.38500	-55
2.38867	-50
2.39233	-45
2.39600	-41
2.39967	-36
2.40333	-32
2.40700	-28
2.41067	-24
2.41433	-21
2.41800	-19
2.42167	-16
2.42533	-14
2.42900	-12
2.43267	-11
2.43633	-9
2.44000	-7
2.44367	-6
2.44733	-5
2.45100	-4
2.45467	-2
2.45833	-1
2.46200	-0
2.46567	0
2.46933	2
2.47300	2
2.47667	3
2.48033	4
2.48400	5
2.48767	5
2.49133	5
2.49500	5
2.49867	6
2.50233	6
2.50600	6
2.50967	6
2.51333	6
2.51700	6
2.52067	6
2.52433	5
2.52800	5
2.53167	5
2.53533	5
2.53900	5
2.54267	5
2.54633	5
2.55000	5
2.55367	5
2.55733	5
2.56100	5
2.56467	5
2.56833	6
2.57200	6
2.57567	6
2.57933	7
2.58300	7
2.58667	8
2.59033	8
2.59400	9
2.59767	9
2.60133	10
2.60500	11
2.60867	11
2.61233	11
2.61600	12
2.61967	12
2.62333	12
2.62700	12
2.63067	12
2.63433	12
2.63800	12
2.64167	13
2.64533	13
2.64900	14
2.65267	15
2.65633	15
2.66000	15
2.66367	15
2.66733	16
2.67100	16
2.67467	16
2.67833	16
2.68200	16
2.68567	16
2.68933	16
2.69300	16
2.69667	16
2.70033	16
2.70400	16
2.70767	17
2.71133	17
2.71500	17
2.71867	18
2.72233	19
2.72600	19
2.72967	19
2.73333	20
2.73700	20
2.74067	20
2.74433	20
2.74800	20
2.75167	20
2.75533	21
2.75900	20
2.76267	20
2.76633	20
2.77000	20
2.77367	20
2.77733	21
2.78100	21
2.78467	21
2.78833	22
2.79200	22
2.79567	22
2.79933	23
2.80300	23
2.80667	23
2.81033	23
2.81400	23
2.81767	23
2.82133	23
2.82500	22
2.82867	22
2.83233	21
2.83600	21
2.83967	21
2.84333	22
2.84700	22
2.85067	22
2.85433	23
2.85800	22
2.86167	21
2.86533	19
2.86900	15
2.87267	8
2.87633	-3
2.88000	-17
2.88367	-36
2.88733	-60
2.89100	-90
2.89467	-124
2.89833	-163
2.90200	-208
2.90567	-257
2.90933	-309
2.91300	-365
2.91667	-424
2.92033	-484
2.92400	-546
2.92767	-607
2.93133	-669
2.93500	-729
2.93867	-787
2.94233	-842
2.94600	-893
2.94967	-946
2.95333	-1001
2.95700	-1052
2.96067	-1090
2.96433	-1106
2.96800	-1097
2.97167	-1064
2.97533	-1011
2.97900	-944
2.98267	-868
2.98633	-788
2.99000	-708
2.99367	-629
2.99733	-555
3.00100	-487
3.00467	-424
3.00833	-367
3.01200	-317
3.01567	-272
3.01933	-233
3.02300	-198
3.02667	-168
3.03033	-143
3.03400	-120
3.03767	-101
3.04133	-84
3.04500	-70
3.04867	-58
3.05233	-48
3.05600	-39
3.05967	-32
3.06333	-25
3.06700	-20
3.07067	-15
3.07433	-11
3.07800	-8
3.08167	-5
3.08533	-3
3.08900	-1
3.09267	1
3.09633	3
3.10000	4
3.10367	5
3.10733	6
3.11100	8
3.11467	8
3.11833	9
3.12200	10
3.12567	11
3.12933	11
3.13300	11
3.13667	12
3.14033	12
3.14400	13
3.14767	13
3.15133	14
3.15500	14
3.15867	14
3.16233	15
3.16600	15
3.16967	16
3.17333	16
3.17700	16
3.18067	16
3.18433	17
3.18800	17
3.19167	17
3.19533	17
3.19900	17
3.20267	17
3.20633	18
3.21000	18
3.21367	18
3.21733	18
3.22100	18
3.22467	19
3.22833	19
3.23200	19
3.23567	19
3.23933	19
3.24300	20
3.24667	20
3.25033	20
3.25400	20
3.25767	21
3.26133	21
3.26500	21
3.26867	21
3.27233	21
3.27600	22
3.27967	22
3.28333	22
3.28700	22
3.29067	22
3.29433	22
3.29800	22
3.30167	22
3.30533	22
3.30900	22
3.31267	22
3.31633	22
3.32000	22
3.32367	22
3.32733	22
3.33100	22
3.33467	22
3.33833	22
3.34200	22
3.34567	23
3.34933	23
3.35300	23
3.35667	23
3.36033	23
3.36400	23
3.36767	23
3.37133	23
3.37500	23
3.37867	23
3.38233	24
3.38600	24
3.38967	24
3.39333	24
3.39700	24
3.40067	24
3.40433	24
3.40800	24
3.41167	24
3.41533	24
3.41900	24
3.42267	24
3.42633	24
3.43000	25
3.43367	25
3.43733	25
3.44100	25
3.44467	25
3.44833	25
3.45200	25
3.45567	25
3.45933	25
3.46300	25
3.46667	24
3.47033	24
3.47400	24
3.47767	25
3.48133	25
3.48500	25
3.48867	25
3.49233	25
3.49600	25
3.49967	25
3.50333	26
3.50700	26
3.51067	26
3.51433	27
3.51800	27
3.52167	27
3.52533	27
3.52900	27
3.53267	27
3.53633	26
3.54000	26
3.54367	26
3.54733	25
3.55100	25
3.55467	25
3.55833	25
3.56200	25
3.56567	24
3.56933	24
3.57300	24
3.57667	24
3.58033	24
3.58400	24
3.58767	24
3.59133	24
3.59500	24
3.59867	24
3.60233	24
3.60600	24
3.60967	24
3.61333	25
3.61700	25
3.62067	25
3.62433	25
3.62800	26
3.63167	26
3.63533	26
3.63900	26
3.64267	26
3.64633	26
3.65000	26
3.65367	26
3.65733	26
3.66100	26
3.66467	26
3.66833	26
3.67200	26
3.67567	26
3.67933	26
3.68300	26
3.68667	26
3.69033	26
3.69400	26
3.69767	26
3.70133	26
3.70500	26
3.70867	26
3.71233	26
3.71600	26
3.71967	26
3.72333	26
3.72700	26
3.73067	26
3.73433	25
3.73800	25
3.74167	25
3.74533	25
3.74900	25
3.75267	24
3.75633	24
3.76000	25
3.76367	25
3.76733	24
3.77100	24
3.77467	24
3.77833	24
3.78200	24
3.78567	24
3.78933	24
3.79300	24
3.79667	24
3.80033	24
3.80400	24
3.80767	24
3.81133	24
3.81500	24
3.81867	25
3.82233	25
3.82600	25
3.82967	25
3.83333	25
3.83700	24
3.84067	24
3.84433	24
3.84800	24
3.85167	24
3.85533	24
3.85900	24
3.86267	24
3.86633	23
3.87000	23
3.87367	24
3.87733	24
3.88100	24
3.88467	24
3.88833	24
3.89200	24
3.89567	24
3.89933	24
3.90300	25
3.90667	25
3.91033	25
3.91400	25
3.91767	25
3.92133	25
3.92500	25
3.92867	25
3.93233	25
3.93600	25
3.93967	25
3.94333	26
3.94700	26
3.95067	26
3.95433	26
3.95800	26
3.96167	26
3.96533	26
3.96900	26
3.97267	27
3.97633	27
3.98000	27
3.98367	27
3.98733	27
3.99100	27
3.99467	27
3.99833	27

[Chromatogram (Ch3)]
Interval(msec)	220
# of Points	1091
Start Time(min)	0.002
End Time(min)	3.998
R.Time (min)	Intensity
0.00167	-1
0.00533	-0
0.00900	2
0.01267	3
0.01633	5
0.02000	6
0.02367	7
0.02733	8
0.03100	6
0.03467	5
0.03833	4
0.04200	4
0.04567	5
0.04933	6
0.05300	6
0.05667	7
0.06033	7
0.06400	6
0.06767	5
0.07133	7
0.07500	10
0.07867	12
0.08233	11
0.08600	11
0.08967	10
0.09333	9
0.09700	8
0.10067	7
0.10433	8
0.10800	9
0.11167	9
0.11533	10
0.11900	9
0.12267	10
0.12633	11
0.13000	10
0.13367	7
0.13733	7
0.14100	8
0.14467	9
0.14833	8
0.15200	7
0.15567	7
0.15933	7
0.16300	6
0.16667	8
0.17033	11
0.17400	13
0.17767	14
0.18133	12
0.18500	10
0.18867	9
0.19233	10
0.19600	11
0.19967	11
0.20333	12
0.20700	11
0.21067	10
0.21433	9
0.21800	10
0.22167	11
0.22533	10
0.22900	9
0.23267	8
0.23633	7
0.24000	7
0.24367	8
0.24733	8
0.25100	7
0.25467	7
0.25833	7
0.26200	8
0.26567	10
0.26933	12
0.27300	13
0.27667	11
0.28033	8
0.28400	7
0.28767	9
0.29133	10
0.29500	9
0.29867	10
0.30233	13
0.30600	15
0.30967	15
0.31333	16
0.31700	15
0.32067	15
0.32433	16
0.32800	16
0.33167	15
0.33533	15
0.33900	16
0.34267	17
0.34633	16
0.35000	15
0.35367	15
0.35733	14
0.36100	14
0.36467	14
0.36833	14
0.37200	12
0.37567	11
0.37933	10
0.38300	8
0.38667	8
0.39033	9
0.39400	11
0.39767	11
0.40133	12
0.40500	13
0.40867	14
0.41233	14
0.41600	14
0.41967	13
0.42333	14
0.42700	15
0.43067	13
0.43433	13
0.43800	14
0.44167	16
0.44533	15
0.44900	13
0.45267	13
0.45633	11
0.46000	10
0.46367	12
0.46733	14
0.47100	14
0.47467	14
0.47833	14
0.48200	14
0.48567	15
0.48933	15
0.49300	16
0.49667	19
0.50033	19
0.50400	20
0.50767	18
0.51133	15
0.51500	12
0.51867	12
0.52233	13
0.52600	11
0.52967	11
0.53333	13
0.53700	13
0.54067	14
0.54433	14
0.54800	14
0.55167	11
0.55533	10
0.55900	10
0.56267	10
0.56633	13
0.57000	16
0.57367	18
0.57733	19
0.58100	20
0.58467	19
0.58833	18
0.59200	16
0.59567	14
0.59933	14
0.60300	12
0.60667	13
0.61033	14
0.61400	16
0.61767	16
0.62133	16
0.62500	16
0.62867	15
0.63233	14
0.63600	15
0.63967	17
0.64333	18
0.64700	17
0.65067	17
0.65433	18
0.65800	16
0.66167	14
0.66533	16
0.66900	17
0.67267	17
0.67633	17
0.68000	17
0.68367	19
0.68733	20
0.69100	20
0.69467	20
0.69833	21
0.70200	22
0.70567	23
0.70933	25
0.71300	23
0.71667	22
0.72033	21
0.72400	19
0.72767	18
0.73133	18
0.73500	19
0.73867	18
0.74233	19
0.74600	20
0.74967	19
0.75333	18
0.75700	21
0.76067	22
0.76433	22
0.76800	23
0.77167	24
0.77533	23
0.77900	21
0.78267	22
0.78633	24
0.79000	24
0.79367	23
0.79733	22
0.80100	22
0.80467	23
0.80833	24
0.81200	24
0.81567	23
0.81933	22
0.82300	23
0.82667	23
0.83033	23
0.83400	22
0.83767	21
0.84133	21
0.84500	22
0.84867	22
0.85233	22
0.85600	23
0.85967	25
0.86333	25
0.86700	24
0.87067	24
0.87433	23
0.87800	23
0.88167	21
0.88533	20
0.88900	22
0.89267	24
0.89633	25
0.90000	26
0.90367	26
0.90733	25
0.91100	25
0.91467	24
0.91833	26
0.92200	30
0.92567	32
0.92933	33
0.93300	30
0.93667	26
0.94033	24
0.94400	22
0.94767	22
0.95133	22
0.95500	21
0.95867	21
0.96233	22
0.96600	24
0.96967	25
0.97333	26
0.97700	26
0.98067	25
0.98433	27
0.98800	29
0.99167	31
0.99533	30
0.99900	30
1.00267	29
1.00633	30
1.01000	30
1.01367	30
1.01733	28
1.02100	28
1.02467	28
1.02833	27
1.03200	27
1.03567	28
1.03933	28
1.04300	28
1.04667	28
1.05033	29
1.05400	28
1.05767	28
1.06133	26
1.06500	26
1.06867	25
1.07233	26
1.07600	26
1.07967	27
1.08333	30
1.08700	32
1.09067	33
1.09433	33
1.09800	31
1.10167	28
1.10533	27
1.10900	27
1.11267	28
1.11633	27
1.12000	24
1.12367	20
1.12733	18
1.13100	17
1.13467	20
1.13833	22
1.14200	24
1.14567	25
1.14933	26
1.15300	26
1.15667	26
1.16033	26
1.16400	26
1.16767	25
1.17133	25
1.17500	25
1.17867	23
1.18233	22
1.18600	23
1.18967	25
1.19333	25
1.19700	22
1.20067	23
1.20433	25
1.20800	26
1.21167	28
1.21533	29
1.21900	28
1.22267	27
1.22633	25
1.23000	23
1.23367	23
1.23733	22
1.24100	22
1.24467	24
1.24833	27
1.25200	26
1.25567	25
1.25933	22
1.26300	22
1.26667	23
1.27033	23
1.27400	22
1.27767	22
1.28133	23
1.28500	23
1.28867	24
1.29233	28
1.29600	27
1.29967	27
1.30333	26
1.30700	25
1.31067	25
1.31433	26
1.31800	27
1.32167	27
1.32533	27
1.32900	26
1.33267	25
1.33633	25
1.34000	24
1.34367	25
1.34733	27
1.35100	28
1.35467	26
1.35833	25
1.36200	26
1.36567	27
1.36933	27
1.37300	25
1.37667	26
1.38033	28
1.38400	28
1.38767	27
1.39133	26
1.39500	24
1.39867	23
1.40233	23
1.40600	23
1.40967	22
1.41333	24
1.41700	25
1.42067	25
1.42433	26
1.42800	26
1.43167	27
1.43533	27
1.43900	27
1.44267	28
1.44633	30
1.45000	32
1.45367	33
1.45733	32
1.46100	31
1.46467	29
1.46833	27
1.47200	26
1.47567	28
1.47933	29
1.48300	28
1.48667	29
1.49033	32
1.49400	33
1.49767	32
1.50133	31
1.50500	31
1.50867	31
1.51233	32
1.51600	32
1.51967	30
1.52333	27
1.52700	26
1.53067	27
1.53433	29
1.53800	29
1.54167	31
1.54533	32
1.54900	32
1.55267	32
1.55633	31
1.56000	32
1.56367	30
1.56733	28
1.57100	28
1.57467	28
1.57833	28
1.58200	29
1.58567	29
1.58933	30
1.59300	30
1.59667	30
1.60033	31
1.60400	29
1.60767	28
1.61133	27
1.61500	28
1.61867	30
1.62233	31
1.62600	32
1.62967	34
1.63333	34
1.63700	33
1.64067	33
1.64433	33
1.64800	33
1.65167	32
1.65533	33
1.65900	33
1.66267	32
1.66633	33
1.67000	35
1.67367	37
1.67733	39
1.68100	40
1.68467	40
1.68833	40
1.69200	42
1.69567	42
1.69933	41
1.70300	41
1.70667	41
1.71033	42
1.71400	43
1.71767	43
1.72133	45
1.72500	45
1.72867	45
1.73233	43
1.73600	42
1.73967	43
1.74333	44
1.74700	45
1.75067	44
1.75433	44
1.75800	43
1.76167	42
1.76533	42
1.76900	43
1.77267	44
1.77633	43
1.78000	42
1.78367	40
1.78733	40
1.79100	41
1.79467	43
1.79833	43
1.80200	46
1.80567	48
1.80933	49
1.81300	49
1.81667	48
1.82033	48
1.82400	50
1.82767	50
1.83133	50
1.83500	49
1.83867	50
1.84233	52
1.84600	54
1.84967	55
1.85333	56
1.85700	55
1.86067	56
1.86433	58
1.86800	58
1.87167	59
1.87533	61
1.87900	62
1.88267	62
1.88633	62
1.89000	62
1.89367	61
1.89733	60
1.90100	59
1.90467	58
1.90833	58
1.91200	60
1.91567	63
1.91933	65
1.92300	66
1.92667	67
1.93033	68
1.93400	68
1.93767	68
1.94133	69
1.94500	70
1.94867	70
1.95233	71
1.95600	71
1.95967	72
1.96333	74
1.96700	76
1.97067	78
1.97433	79
1.97800	80
1.98167	82
1.98533	81
1.98900	80
1.99267	80
1.99633	80
2.00000	81
2.00367	82
2.00733	83
2.01100	84
2.01467	84
2.01833	85
2.02200	87
2.02567	87
2.02933	87
2.03300	88
2.03667	88
2.04033	89
2.04400	92
2.04767	93
2.05133	94
2.05500	95
2.05867	97
2.06233	97
2.06600	96
2.06967	95
2.07333	94
2.07700	94
2.08067	96
2.08433	96
2.08800	96
2.09167	96
2.09533	98
2.09900	101
2.10267	103
2.10633	104
2.11000	106
2.11367	105
2.11733	103
2.12100	103
2.12467	106
2.12833	108
2.13200	109
2.13567	108
2.13933	106
2.14300	105
2.14667	106
2.15033	107
2.15400	108
2.15767	110
2.16133	112
2.16500	115
2.16867	117
2.17233	117
2.17600	117
2.17967	120
2.18333	121
2.18700	122
2.19067	121
2.19433	120
2.19800	118
2.20167	118
2.20533	120
2.20900	123
2.21267	127
2.21633	131
2.22000	132
2.22367	132
2.22733	130
2.23100	129
2.23467	132
2.23833	134
2.24200	134
2.24567	133
2.24933	132
2.25300	132
2.25667	132
2.26033	134
2.26400	134
2.26767	134
2.27133	135
2.27500	134
2.27867	134
2.28233	134
2.28600	132
2.28967	132
2.29333	133
2.29700	135
2.30067	138
2.30433	142
2.30800	143
2.31167	145
2.31533	146
2.31900	147
2.32267	146
2.32633	145
2.33000	145
2.33367	147
2.33733	148
2.34100	148
2.34467	147
2.34833	146
2.35200	146
2.35567	148
2.35933	150
2.36300	153
2.36667	154
2.37033	155
2.37400	156
2.37767	155
2.38133	154
2.38500	154
2.38867	154
2.39233	154
2.39600	154
2.39967	155
2.40333	157
2.40700	158
2.41067	157
2.41433	156
2.41800	160
2.42167	163
2.42533	167
2.42900	169
2.43267	167
2.43633	166
2.44000	173
2.44367	224
2.44733	333
2.45100	456
2.45467	558
2.45833	639
2.46200	703
2.46567	750
2.46933	778
2.47300	799
2.47667	817
2.48033	835
2.48400	854
2.48767	874
2.49133	893
2.49500	910
2.49867	916
2.50233	912
2.50600	904
2.50967	893
2.51333	883
2.51700	874
2.52067	868
2.52433	865
2.52800	864
2.53167	862
2.53533	863
2.53900	867
2.54267	873
2.54633	882
2.55000	892
2.55367	902
2.55733	908
2.56100	912
2.56467	912
2.56833	905
2.57200	895
2.57567	883
2.57933	868
2.58300	853
2.58667	836
2.59033	819
2.59400	805
2.59767	795
2.60133	787
2.60500	780
2.60867	774
2.61233	770
2.61600	767
2.61967	764
2.62333	760
2.62700	757
2.63067	753
2.63433	748
2.63800	741
2.64167	735
2.64533	731
2.64900	727
2.65267	722
2.65633	717
2.66000	715
2.66367	716
2.66733	719
2.67100	724
2.67467	727
2.67833	732
2.68200	735
2.68567	738
2.68933	740
2.69300	744
2.69667	746
2.70033	748
2.70400	748
2.70767	749
2.71133	745
2.71500	739
2.71867	735
2.72233	730
2.72600	724
2.72967	716
2.73333	712
2.73700	707
2.74067	701
2.74433	694
2.74800	687
2.75167	682
2.75533	677
2.75900	672
2.76267	668
2.76633	664
2.77000	659
2.77367	655
2.77733	652
2.78100	649
2.78467	646
2.78833	641
2.79200	639
2.79567	638
2.79933	639
2.80300	638
2.80667	640
2.81033	640
2.81400	640
2.81767	638
2.82133	639
2.82500	642
2.82867	646
2.83233	651
2.83600	663
2.83967	688
2.84333	743
2.84700	847
2.85067	1021
2.85433	1287
2.85800	1658
2.86167	2128
2.86533	2676
2.86900	3262
2.87267	3840
2.87633	4358
2.88000	4778
2.88367	5066
2.88733	5212
2.89100	5221
2.89467	5111
2.89833	4903
2.90200	4627
2.90567	4312
2.90933	3981
2.91300	3648
2.91667	3324
2.92033	3017
2.92400	2734
2.92767	2477
2.93133	2249
2.93500	2045
2.93867	1863
2.94233	1704
2.94600	1564
2.94967	1440
2.95333	1333
2.95700	1240
2.96067	1161
2.96433	1092
2.96800	1034
2.97167	982
2.97533	937
2.97900	899
2.98267	864
2.98633	836
2.99000	812
2.99367	790
2.99733	770
3.00100	755
3.00467	741
3.00833	729
3.01200	720
3.01567	711
3.01933	704
3.02300	700
3.02667	698
3.03033	695
3.03400	689
3.03767	684
3.04133	678
3.04500	674
3.04867	671
3.05233	671
3.05600	667
3.05967	666
3.06333	665
3.06700	664
3.07067	664
3.07433	662
3.07800	658
3.08167	654
3.08533	650
3.08900	648
3.09267	646
3.09633	646
3.10000	646
3.10367	644
3.10733	643
3.11100	641
3.11467	640
3.11833	638
3.12200	635
3.12567	634
3.12933	632
3.13300	630
3.13667	629
3.14033	627
3.14400	623
3.14767	622
3.15133	622
3.15500	621
3.15867	621
3.16233	619
3.16600	618
3.16967	617
3.17333	616
3.17700	612
3.18067	609
3.18433	607
3.18800	603
3.19167	600
3.19533	599
3.19900	597
3.20267	598
3.20633	598
3.21000	597
3.21367	596
3.21733	595
3.22100	595
3.22467	596
3.22833	596
3.23200	593
3.23567	589
3.23933	587
3.24300	586
3.24667	585
3.25033	583
3.25400	579
3.25767	576
3.26133	574
3.26500	575
3.26867	577
3.27233	578
3.27600	576
3.27967	574
3.28333	570
3.28700	565
3.29067	565
3.29433	564
3.29800	559
3.30167	555
3.30533	554
3.30900	553
3.31267	554
3.31633	553
3.32000	551
3.32367	547
3.32733	545
3.33100	545
3.33467	541
3.33833	538
3.34200	536
3.34567	533
3.34933	533
3.35300	534
3.35667	532
3.36033	531
3.36400	526
3.36767	520
3.37133	516
3.37500	514
3.37867	512
3.38233	508
3.38600	507
3.38967	506
3.39333	504
3.39700	503
3.40067	501
3.40433	497
3.40800	492
3.41167	489
3.41533	488
3.41900	486
3.42267	485
3.42633	484
3.43000	482
3.43367	479
3.43733	476
3.44100	474
3.44467	471
3.44833	468
3.45200	466
3.45567	466
3.45933	466
3.46300	465
3.46667	460
3.47033	458
3.47400	457
3.47767	456
3.48133	453
3.48500	450
3.48867	446
3.49233	445
3.49600	443
3.49967	441
3.50333	438
3.50700	437
3.51067	437
3.51433	436
3.51800	437
3.52167	438
3.52533	435
3.52900	431
3.53267	428
3.53633	424
3.54000	423
3.54367	423
3.54733	423
3.55100	422
3.55467	422
3.55833	423
3.56200	424
3.56567	423
3.56933	421
3.57300	419
3.57667	417
3.58033	416
3.58400	414
3.58767	412
3.59133	412
3.59500	409
3.59867	404
3.60233	402
3.60600	401
3.60967	399
3.61333	397
3.61700	394
3.62067	392
3.62433	390
3.62800	387
3.63167	386
3.63533	388
3.63900	390
3.64267	391
3.64633	391
3.65000	390
3.65367	387
3.65733	385
3.66100	382
3.66467	378
3.66833	376
3.67200	377
3.67567	375
3.67933	375
3.68300	375
3.68667	375
3.69033	372
3.69400	370
3.69767	366
3.70133	363
3.70500	363
3.70867	364
3.71233	367
3.71600	369
3.71967	369
3.72333	366
3.72700	365
3.73067	362
3.73433	360
3.73800	359
3.74167	359
3.74533	359
3.74900	358
3.75267	356
3.75633	355
3.76000	353
3.76367	350
3.76733	347
3.77100	347
3.77467	347
3.77833	348
3.78200	348
3.78567	346
3.78933	344
3.79300	343
3.79667	342
3.80033	341
3.80400	339
3.80767	337
3.81133	336
3.81500	335
3.81867	333
3.82233	331
3.82600	329
3.82967	330
3.83333	333
3.83700	334
3.84067	335
3.84433	335
3.84800	333
3.85167	330
3.85533	328
3.85900	326
3.86267	322
3.86633	321
3.87000	318
3.87367	317
3.87733	317
3.88100	314
3.88467	313
3.88833	312
3.89200	311
3.89567	310
3.89933	309
3.90300	307
3.90667	308
3.91033	308
3.91400	309
3.91767	309
3.92133	309
3.92500	310
3.92867	311
3.93233	309
3.93600	304
3.93967	301
3.94333	300
3.94700	299
3.95067	298
3.95433	298
3.95800	301
3.96167	301
3.96533	298
3.96900	297
3.97267	297
3.97633	295
3.98000	292
3.98367	292
3.98733	291
3.99100	291
3.99467	290
3.99833	287

[Status Trace (Column Oven Temperature)]
Interval(msec)	1000
# of Points	240
Start Time(min)	0.007
End Time(min)	3.990
Intensity Units	
Intensity Multiplier	1
R.Time (min)	Intensity
0.00652	35.06
0.02318	35.05
0.03985	35.05
0.05652	35.04
0.07318	35.05
0.08985	35.04
0.10652	35.04
0.12318	35.03
0.13985	35.03
0.15652	35.02
0.17318	35.04
0.18985	35.04
0.20652	35.02
0.22318	35.02
0.23985	35.01
0.25652	35.02
0.27318	35.02
0.28985	35.01
0.30652	35.00
0.32318	35.02
0.33985	35.03
0.35652	35.03
0.37318	35.03
0.38985	35.03
0.40652	35.03
0.42318	35.03
0.43985	35.04
0.45652	35.05
0.47318	35.05
0.48985	35.05
0.50652	35.04
0.52318	35.04
0.53985	35.03
0.55652	35.02
0.57318	35.01
0.58985	34.99
0.60652	34.97
0.62318	34.97
0.63985	34.98
0.65652	35.00
0.67318	35.01
0.68985	35.01
0.70652	35.01
0.72318	35.02
0.73985	35.03
0.75652	35.03
0.77318	35.03
0.78985	35.03
0.80652	35.05
0.82318	35.04
0.83985	35.04
0.85652	35.03
0.87318	35.01
0.88985	35.01
0.90652	35.00
0.92318	35.00
0.93985	35.00
0.95652	35.01
0.97318	35.01
0.98985	35.01
1.00652	35.01
1.02318	35.00
1.03985	35.02
1.05652	35.01
1.07318	35.00
1.08985	35.00
1.10652	34.98
1.12318	34.98
1.13985	34.97
1.15652	34.97
1.17318	34.97
1.18985	34.98
1.20652	34.99
1.22318	34.99
1.23985	34.99
1.25652	34.97
1.27318	34.97
1.28985	34.96
1.30652	34.96
1.32318	34.98
1.33985	35.00
1.35652	35.00
1.37318	35.01
1.38985	35.02
1.40652	35.02
1.42318	35.02
1.43985	35.02
1.45652	35.01
1.47318	35.00
1.48985	35.00
1.50652	35.02
1.52318	35.02
1.53985	35.02
1.55652	35.02
1.57318	35.01
1.58985	35.01
1.60652	35.05
1.62318	35.15
1.63985	35.32
1.65652	35.56
1.67318	35.90
1.68985	36.27
1.70652	36.63
1.72318	36.97
1.73985	37.31
1.75652	37.64
1.77318	37.98
1.78985	38.29
1.80652	38.62
1.82318	38.95
1.83985	39.28
1.85652	39.61
1.87318	39.94
1.88985	40.26
1.90652	40.58
1.92318	40.91
1.93985	41.24
1.95652	41.58
1.97318	41.93
1.98985	42.23
2.00652	42.54
2.02318	42.87
2.03985	43.18
2.05652	43.51
2.07318	43.81
2.08985	44.13
2.10652	44.46
2.12318	44.78
2.13985	45.12
2.15652	45.44
2.17318	45.78
2.18985	46.10
2.20652	46.46
2.22318	46.79
2.23985	47.10
2.25652	47.46
2.27318	47.78
2.28985	48.11
2.30652	48.47
2.32318	48.80
2.33985	49.12
2.35652	49.42
2.37318	49.60
2.38985	49.66
2.40652	49.65
2.42318	49.67
2.43985	49.68
2.45652	49.69
2.47318	49.70
2.48985	49.71
2.50652	49.72
2.52318	49.73
2.53985	49.73
2.55652	49.76
2.57318	49.80
2.58985	49.81
2.60652	49.80
2.62318	49.81
2.63985	49.81
2.65652	49.81
2.67318	49.81
2.68985	49.82
2.70652	49.83
2.72318	49.84
2.73985	49.85
2.75652	49.86
2.77318	49.86
2.78985	49.85
2.80652	49.84
2.82318	49.87
2.83985	49.89
2.85652	49.90
2.87318	49.90
2.88985	49.91
2.90652	49.93
2.92318	49.94
2.93985	49.95
2.95652	49.95
2.97318	49.95
2.98985	49.96
3.00652	49.95
3.02318	49.95
3.03985	49.94
3.05652	49.95
3.07318	49.97
3.08985	49.98
3.10652	49.99
3.12318	50.00
3.13985	50.01
3.15652	50.02
3.17318	50.03
3.18985	50.04
3.20652	50.04
3.22318	50.05
3.23985	50.05
3.25652	50.05
3.27318	50.06
3.28985	50.06
3.30652	50.07
3.32318	50.08
3.33985	50.08
3.35652	50.09
3.37318	50.09
3.38985	50.09
3.40652	50.09
3.42318	50.08
3.43985	50.08
3.45652	50.08
3.47318	50.07
3.48985	50.07
3.50652	50.06
3.52318	50.06
3.53985	50.07
3.55652	50.08
3.57318	50.10
3.58985	50.10
3.60652	50.11
3.62318	50.10
3.63985	50.09
3.65652	50.08
3.67318	50.08
3.68985	50.08
3.70652	50.07
3.72318	50.06
3.73985	50.06
3.75652	50.06
3.77318	50.06
3.78985	50.07
3.80652	50.07
3.82318	50.08
3.83985	50.08
3.85652	50.09
3.87318	50.09
3.88985	50.08
3.90652	50.07
3.92318	50.08
3.93985	50.08
3.95652	50.07
3.97318	50.05
3.98985	50.05

[Status Trace (Injection Unit Temperature)]
Interval(msec)	1000
# of Points	240
Start Time(min)	0.007
End Time(min)	3.990
Intensity Units	
Intensity Multiplier	1
R.Time (min)	Intensity
0.00652	99.98
0.02318	99.98
0.03985	99.98
0.05652	99.98
0.07318	99.98
0.08985	99.98
0.10652	99.98
0.12318	99.98
0.13985	99.98
0.15652	99.98
0.17318	99.99
0.18985	99.98
0.20652	99.98
0.22318	99.98
0.23985	99.98
0.25652	99.98
0.27318	99.98
0.28985	99.98
0.30652	99.98
0.32318	99.98
0.33985	99.98
0.35652	99.98
0.37318	99.98
0.38985	99.98
0.40652	99.98
0.42318	99.98
0.43985	99.98
0.45652	99.98
0.47318	99.98
0.48985	99.98
0.50652	99.98
0.52318	99.98
0.53985	99.98
0.55652	99.98
0.57318	99.98
0.58985	99.98
0.60652	99.98
0.62318	99.98
0.63985	99.98
0.65652	99.98
0.67318	99.98
0.68985	99.98
0.70652	99.98
0.72318	99.98
0.73985	99.98
0.75652	99.98
0.77318	99.98
0.78985	99.98
0.80652	99.98
0.82318	99.98
0.83985	99.99
0.85652	99.99
0.87318	99.98
0.88985	99.98
0.90652	99.98
0.92318	99.99
0.93985	99.98
0.95652	99.98
0.97318	99.99
0.98985	99.98
1.00652	99.99
1.02318	99.99
1.03985	99.99
1.05652	99.99
1.07318	99.99
1.08985	99.99
1.10652	99.98
1.12318	99.99
1.13985	99.99
1.15652	99.99
1.17318	99.98
1.18985	99.99
1.20652	99.99
1.22318	99.99
1.23985	99.99
1.25652	99.99
1.27318	99.99
1.28985	99.99
1.30652	99.99
1.32318	99.98
1.33985	99.99
1.35652	99.99
1.37318	99.99
1.38985	99.98
1.40652	99.99
1.42318	99.99
1.43985	99.99
1.45652	99.98
1.47318	99.99
1.48985	99.99
1.50652	99.98
1.52318	99.99
1.53985	99.99
1.55652	99.99
1.57318	99.99
1.58985	99.99
1.60652	99.99
1.62318	99.99
1.63985	99.99
1.65652	99.99
1.67318	99.99
1.68985	99.99
1.70652	99.99
1.72318	99.99
1.73985	99.99
1.75652	99.98
1.77318	99.99
1.78985	99.98
1.80652	99.99
1.82318	99.98
1.83985	99.99
1.85652	99.98
1.87318	99.98
1.88985	99.98
1.90652	99.98
1.92318	99.98
1.93985	99.98
1.95652	99.98
1.97318	99.98
1.98985	99.98
2.00652	99.98
2.02318	99.98
2.03985	99.98
2.05652	99.97
2.07318	99.97
2.08985	99.98
2.10652	99.98
2.12318	99.97
2.13985	99.97
2.15652	99.97
2.17318	99.97
2.18985	99.97
2.20652	99.97
2.22318	99.97
2.23985	99.97
2.25652	99.97
2.27318	99.97
2.28985	99.97
2.30652	99.96
2.32318	99.96
2.33985	99.96
2.35652	99.96
2.37318	99.96
2.38985	99.96
2.40652	99.96
2.42318	99.96
2.43985	99.96
2.45652	99.96
2.47318	99.96
2.48985	99.96
2.50652	99.96
2.52318	99.96
2.53985	99.97
2.55652	99.96
2.57318	99.97
2.58985	99.97
2.60652	99.97
2.62318	99.97
2.63985	99.97
2.65652	99.97
2.67318	99.97
2.68985	99.98
2.70652	99.98
2.72318	99.97
2.73985	99.98
2.75652	99.98
2.77318	99.99
2.78985	99.99
2.80652	99.99
2.82318	99.99
2.83985	99.99
2.85652	100.00
2.87318	100.00
2.88985	99.99
2.90652	100.00
2.92318	100.01
2.93985	100.00
2.95652	100.00
2.97318	100.01
2.98985	100.01
3.00652	100.01
3.02318	100.02
3.03985	100.02
3.05652	100.02
3.07318	100.02
3.08985	100.02
3.10652	100.02
3.12318	100.02
3.13985	100.02
3.15652	100.02
3.17318	100.03
3.18985	100.03
3.20652	100.03
3.22318	100.03
3.23985	100.03
3.25652	100.04
3.27318	100.04
3.28985	100.04
3.30652	100.04
3.32318	100.04
3.33985	100.04
3.35652	100.04
3.37318	100.04
3.38985	100.05
3.40652	100.05
3.42318	100.05
3.43985	100.05
3.45652	100.05
3.47318	100.05
3.48985	100.05
3.50652	100.05
3.52318	100.05
3.53985	100.05
3.55652	100.05
3.57318	100.05
3.58985	100.05
3.60652	100.05
3.62318	100.05
3.63985	100.05
3.65652	100.05
3.67318	100.05
3.68985	100.05
3.70652	100.05
3.72318	100.05
3.73985	100.05
3.75652	100.06
3.77318	100.05
3.78985	100.05
3.80652	100.06
3.82318	100.05
3.83985	100.05
3.85652	100.05
3.87318	100.05
3.88985	100.05
3.90652	100.05
3.92318	100.05
3.93985	100.05
3.95652	100.05
3.97318	100.05
3.98985	100.05

[Status Trace (Carrier Gas Pressure)]
Interval(msec)	1000
# of Points	240
Start Time(min)	0.007
End Time(min)	3.990
Intensity Units	
Intensity Multiplier	1
R.Time (min)	Intensity
0.00652	58.00
0.02318	55.53
0.03985	56.91
0.05652	59.17
0.07318	59.42
0.08985	58.09
0.10652	57.98
0.12318	58.01
0.13985	58.01
0.15652	58.01
0.17318	58.00
0.18985	58.00
0.20652	58.00
0.22318	58.00
0.23985	58.00
0.25652	58.00
0.27318	58.00
0.28985	58.00
0.30652	58.00
0.32318	58.00
0.33985	58.00
0.35652	58.00
0.37318	58.00
0.38985	58.00
0.40652	58.00
0.42318	58.00
0.43985	58.00
0.45652	58.00
0.47318	58.00
0.48985	58.00
0.50652	58.00
0.52318	58.00
0.53985	58.00
0.55652	58.00
0.57318	58.00
0.58985	58.00
0.60652	58.00
0.62318	58.00
0.63985	58.00
0.65652	58.00
0.67318	58.00
0.68985	58.00
0.70652	58.00
0.72318	58.00
0.73985	58.00
0.75652	58.00
0.77318	58.00
0.78985	58.00
0.80652	58.00
0.82318	58.00
0.83985	58.00
0.85652	58.00
0.87318	58.00
0.88985	58.00
0.90652	58.00
0.92318	58.00
0.93985	58.00
0.95652	58.00
0.97318	58.00
0.98985	58.00
1.00652	58.00
1.02318	58.00
1.03985	58.00
1.05652	58.00
1.07318	58.00
1.08985	58.00
1.10652	58.00
1.12318	58.00
1.13985	58.00
1.15652	58.00
1.17318	58.00
1.18985	58.00
1.20652	58.00
1.22318	58.00
1.23985	58.00
1.25652	58.00
1.27318	58.00
1.28985	58.00
1.30652	58.00
1.32318	58.00
1.33985	58.00
1.35652	58.00
1.37318	58.00
1.38985	58.00
1.40652	58.00
1.42318	58.00
1.43985	58.00
1.45652	58.00
1.47318	58.00
1.48985	58.00
1.50652	58.00
1.52318	58.00
1.53985	58.00
1.55652	58.00
1.57318	58.00
1.58985	58.00
1.60652	58.00
1.62318	58.00
1.63985	58.00
1.65652	58.01
1.67318	58.01
1.68985	58.00
1.70652	58.00
1.72318	58.00
1.73985	58.00
1.75652	58.00
1.77318	58.00
1.78985	58.00
1.80652	58.00
1.82318	58.00
1.83985	58.00
1.85652	58.00
1.87318	58.00
1.88985	58.00
1.90652	58.00
1.92318	58.00
1.93985	58.00
1.95652	58.00
1.97318	58.00
1.98985	58.00
2.00652	58.00
2.02318	58.00
2.03985	58.00
2.05652	58.00
2.07318	58.00
2.08985	58.00
2.10652	58.00
2.12318	58.00
2.13985	58.00
2.15652	58.00
2.17318	58.00
2.18985	58.00
2.20652	58.00
2.22318	58.00
2.23985	58.00
2.25652	58.00
2.27318	58.00
2.28985	58.00
2.30652	58.00
2.32318	58.00
2.33985	58.00
2.35652	58.00
2.37318	57.99
2.38985	57.99
2.40652	57.99
2.42318	58.00
2.43985	58.00
2.45652	58.00
2.47318	58.00
2.48985	58.00
2.50652	57.99
2.52318	57.99
2.53985	58.00
2.55652	58.00
2.57318	58.00
2.58985	58.00
2.60652	58.00
2.62318	58.00
2.63985	58.00
2.65652	58.00
2.67318	58.00
2.68985	58.00
2.70652	58.00
2.72318	58.00
2.73985	58.00
2.75652	58.00
2.77318	58.00
2.78985	58.00
2.80652	58.00
2.82318	58.00
2.83985	58.00
2.85652	58.00
2.87318	58.00
2.88985	58.00
2.90652	58.00
2.92318	58.00
2.93985	58.00
2.95652	58.00
2.97318	58.00
2.98985	58.00
3.00652	58.00
3.02318	58.00
3.03985	58.00
3.05652	58.00
3.07318	58.00
3.08985	58.00
3.10652	58.00
3.12318	58.00
3.13985	58.00
3.15652	58.00
3.17318	58.00
3.18985	58.00
3.20652	58.00
3.22318	58.00
3.23985	58.00
3.25652	58.00
3.27318	58.00
3.28985	58.00
3.30652	58.00
3.32318	58.00
3.33985	58.00
3.35652	58.00
3.37318	58.00
3.38985	58.00
3.40652	58.00
3.42318	58.00
3.43985	58.00
3.45652	58.00
3.47318	58.00
3.48985	58.00
3.50652	58.00
3.52318	58.00
3.53985	58.00
3.55652	58.00
3.57318	58.00
3.58985	58.00
3.60652	58.00
3.62318	58.00
3.63985	58.00
3.65652	58.00
3.67318	58.00
3.68985	58.00
3.70652	58.00
3.72318	58.00
3.73985	58.00
3.75652	58.00
3.77318	58.00
3.78985	58.00
3.80652	58.00
3.82318	58.00
3.83985	58.00
3.85652	58.00
3.87318	58.00
3.88985	58.00
3.90652	58.00
3.92318	58.00
3.93985	58.00
3.95652	58.00
3.97318	58.00
3.98985	58.00

[Status Trace (Carrier Gas Flow)]
Interval(msec)	1000
# of Points	240
Start Time(min)	0.007
End Time(min)	3.990
Intensity Units	
Intensity Multiplier	1
R.Time (min)	Intensity
0.00652	34.52
0.02318	34.54
0.03985	34.55
0.05652	34.55
0.07318	34.49
0.08985	34.52
0.10652	34.52
0.12318	34.52
0.13985	34.53
0.15652	34.52
0.17318	34.52
0.18985	34.52
0.20652	34.52
0.22318	34.53
0.23985	34.53
0.25652	34.52
0.27318	34.52
0.28985	34.52
0.30652	34.52
0.32318	34.51
0.33985	34.53
0.35652	34.53
0.37318	34.52
0.38985	34.52
0.40652	34.52
0.42318	34.52
0.43985	34.52
0.45652	34.52
0.47318	34.51
0.48985	34.52
0.50652	34.52
0.52318	34.52
0.53985	34.52
0.55652	34.52
0.57318	34.52
0.58985	34.51
0.60652	34.52
0.62318	34.52
0.63985	34.52
0.65652	34.52
0.67318	34.52
0.68985	34.52
0.70652	34.53
0.72318	34.52
0.73985	34.52
0.75652	34.52
0.77318	34.52
0.78985	34.52
0.80652	34.53
0.82318	34.52
0.83985	34.52
0.85652	34.52
0.87318	34.53
0.88985	34.52
0.90652	34.51
0.92318	34.52
0.93985	34.52
0.95652	34.52
0.97318	34.52
0.98985	34.52
1.00652	34.52
1.02318	34.52
1.03985	34.52
1.05652	34.52
1.07318	34.52
1.08985	34.51
1.10652	34.52
1.12318	34.52
1.13985	34.52
1.15652	34.52
1.17318	34.52
1.18985	34.52
1.20652	34.52
1.22318	34.52
1.23985	34.52
1.25652	34.52
1.27318	34.52
1.28985	34.52
1.30652	34.52
1.32318	34.52
1.33985	34.52
1.35652	34.52
1.37318	34.52
1.38985	34.52
1.40652	34.51
1.42318	34.52
1.43985	34.52
1.45652	34.51
1.47318	34.52
1.48985	34.52
1.50652	34.52
1.52318	34.52
1.53985	34.52
1.55652	34.52
1.57318	34.52
1.58985	34.52
1.60652	34.52
1.62318	34.52
1.63985	34.51
1.65652	34.52
1.67318	34.52
1.68985	34.52
1.70652	34.51
1.72318	34.52
1.73985	34.52
1.75652	34.51
1.77318	34.52
1.78985	34.53
1.80652	34.52
1.82318	34.52
1.83985	34.53
1.85652	34.52
1.87318	34.51
1.88985	34.52
1.90652	34.52
1.92318	34.53
1.93985	34.51
1.95652	34.51
1.97318	34.51
1.98985	34.52
2.00652	34.52
2.02318	34.53
2.03985	34.52
2.05652	34.52
2.07318	34.51
2.08985	34.52
2.10652	34.52
2.12318	34.51
2.13985	34.52
2.15652	34.53
2.17318	34.53
2.18985	34.52
2.20652	34.52
2.22318	34.53
2.23985	34.52
2.25652	34.52
2.27318	34.52
2.28985	34.52
2.30652	34.52
2.32318	34.51
2.33985	34.53
2.35652	34.52
2.37318	34.52
2.38985	34.52
2.40652	34.52
2.42318	34.51
2.43985	34.52
2.45652	34.52
2.47318	34.51
2.48985	34.51
2.50652	34.43
2.52318	34.52
2.53985	34.52
2.55652	34.51
2.57318	34.52
2.58985	34.52
2.60652	34.52
2.62318	34.51
2.63985	34.52
2.65652	34.52
2.67318	34.52
2.68985	34.52
2.70652	34.52
2.72318	34.52
2.73985	34.52
2.75652	34.52
2.77318	34.52
2.78985	34.52
2.80652	34.52
2.82318	34.52
2.83985	34.52
2.85652	34.52
2.87318	34.52
2.88985	34.52
2.90652	34.52
2.92318	34.52
2.93985	34.52
2.95652	34.52
2.97318	34.52
2.98985	34.52
3.00652	34.52
3.02318	34.52
3.03985	34.52
3.05652	34.52
3.07318	34.52
3.08985	34.52
3.10652	34.51
3.12318	34.52
3.13985	34.52
3.15652	34.52
3.17318	34.52
3.18985	34.52
3.20652	34.52
3.22318	34.52
3.23985	34.52
3.25652	34.52
3.27318	34.52
3.28985	34.52
3.30652	34.52
3.32318	34.52
3.33985	34.52
3.35652	34.52
3.37318	34.52
3.38985	34.51
3.40652	34.52
3.42318	34.52
3.43985	34.52
3.45652	34.52
3.47318	34.52
3.48985	34.52
3.50652	34.52
3.52318	34.52
3.53985	34.52
3.55652	34.52
3.57318	34.52
3.58985	34.52
3.60652	34.52
3.62318	34.52
3.63985	34.52
3.65652	34.52
3.67318	34.52
3.68985	34.52
3.70652	34.52
3.72318	34.52
3.73985	34.52
3.75652	34.51
3.77318	34.52
3.78985	34.52
3.80652	34.51
3.82318	34.51
3.83985	34.52
3.85652	34.52
3.87318	34.52
3.88985	34.52
3.90652	34.52
3.92318	34.52
3.93985	34.51
3.95652	34.52
3.97318	34.52
3.98985	34.52

[Status Trace (Column Flow)]
Interval(msec)	1000
# of Points	240
Start Time(min)	0.007
End Time(min)	3.990
Intensity Units	
Intensity Multiplier	1
R.Time (min)	Intensity
0.00652	5.50
0.02318	5.21
0.03985	5.37
0.05652	5.63
0.07318	5.66
0.08985	5.51
0.10652	5.49
0.12318	5.50
0.13985	5.50
0.15652	5.50
0.17318	5.50
0.18985	5.50
0.20652	5.50
0.22318	5.50
0.23985	5.50
0.25652	5.50
0.27318	5.50
0.28985	5.50
0.30652	5.50
0.32318	5.50
0.33985	5.50
0.35652	5.50
0.37318	5.50
0.38985	5.50
0.40652	5.50
0.42318	5.50
0.43985	5.50
0.45652	5.50
0.47318	5.50
0.48985	5.50
0.50652	5.50
0.52318	5.50
0.53985	5.50
0.55652	5.50
0.57318	5.50
0.58985	5.50
0.60652	5.50
0.62318	5.50
0.63985	5.50
0.65652	5.50
0.67318	5.50
0.68985	5.50
0.70652	5.50
0.72318	5.50
0.73985	5.50
0.75652	5.50
0.77318	5.50
0.78985	5.50
0.80652	5.50
0.82318	5.50
0.83985	5.50
0.85652	5.50
0.87318	5.50
0.88985	5.50
0.90652	5.50
0.92318	5.50
0.93985	5.50
0.95652	5.50
0.97318	5.50
0.98985	5.50
1.00652	5.50
1.02318	5.50
1.03985	5.50
1.05652	5.50
1.07318	5.50
1.08985	5.50
1.10652	5.50
1.12318	5.50
1.13985	5.50
1.15652	5.50
1.17318	5.50
1.18985	5.50
1.20652	5.50
1.22318	5.50
1.23985	5.50
1.25652	5.50
1.27318	5.50
1.28985	5.50
1.30652	5.50
1.32318	5.50
1.33985	5.50
1.35652	5.50
1.37318	5.50
1.38985	5.50
1.40652	5.50
1.42318	5.50
1.43985	5.50
1.45652	5.50
1.47318	5.50
1.48985	5.50
1.50652	5.50
1.52318	5.50
1.53985	5.50
1.55652	5.50
1.57318	5.50
1.58985	5.50
1.60652	5.50
1.62318	5.49
1.63985	5.49
1.65652	5.48
1.67318	5.47
1.68985	5.46
1.70652	5.45
1.72318	5.44
1.73985	5.43
1.75652	5.42
1.77318	5.41
1.78985	5.40
1.80652	5.39
1.82318	5.38
1.83985	5.37
1.85652	5.36
1.87318	5.35
1.88985	5.34
1.90652	5.33
1.92318	5.32
1.93985	5.31
1.95652	5.30
1.97318	5.29
1.98985	5.28
2.00652	5.27
2.02318	5.26
2.03985	5.25
2.05652	5.24
2.07318	5.23
2.08985	5.22
2.10652	5.21
2.12318	5.20
2.13985	5.19
2.15652	5.18
2.17318	5.17
2.18985	5.17
2.20652	5.16
2.22318	5.15
2.23985	5.14
2.25652	5.13
2.27318	5.12
2.28985	5.11
2.30652	5.10
2.32318	5.09
2.33985	5.08
2.35652	5.07
2.37318	5.07
2.38985	5.06
2.40652	5.07
2.42318	5.07
2.43985	5.06
2.45652	5.06
2.47318	5.06
2.48985	5.06
2.50652	5.06
2.52318	5.06
2.53985	5.06
2.55652	5.06
2.57318	5.06
2.58985	5.06
2.60652	5.06
2.62318	5.06
2.63985	5.06
2.65652	5.06
2.67318	5.06
2.68985	5.06
2.70652	5.06
2.72318	5.06
2.73985	5.06
2.75652	5.06
2.77318	5.06
2.78985	5.06
2.80652	5.06
2.82318	5.06
2.83985	5.06
2.85652	5.06
2.87318	5.06
2.88985	5.06
2.90652	5.06
2.92318	5.06
2.93985	5.06
2.95652	5.06
2.97318	5.06
2.98985	5.06
3.00652	5.06
3.02318	5.06
3.03985	5.06
3.05652	5.06
3.07318	5.06
3.08985	5.06
3.10652	5.06
3.12318	5.06
3.13985	5.06
3.15652	5.06
3.17318	5.06
3.18985	5.06
3.20652	5.06
3.22318	5.05
3.23985	5.05
3.25652	5.05
3.27318	5.05
3.28985	5.05
3.30652	5.05
3.32318	5.05
3.33985	5.05
3.35652	5.05
3.37318	5.05
3.38985	5.05
3.40652	5.05
3.42318	5.05
3.43985	5.05
3.45652	5.05
3.47318	5.05
3.48985	5.05
3.50652	5.05
3.52318	5.05
3.53985	5.05
3.55652	5.05
3.57318	5.05
3.58985	5.05
3.60652	5.05
3.62318	5.05
3.63985	5.05
3.65652	5.05
3.67318	5.05
3.68985	5.05
3.70652	5.05
3.72318	5.05
3.73985	5.05
3.75652	5.05
3.77318	5.05
3.78985	5.05
3.80652	5.05
3.82318	5.05
3.83985	5.05
3.85652	5.05
3.87318	5.05
3.88985	5.05
3.90652	5.05
3.92318	5.05
3.93985	5.05
3.95652	5.05
3.97318	5.06
3.98985	5.06

[Status Trace (Linear Velocity)]
Interval(msec)	1000
# of Points	240
Start Time(min)	0.007
End Time(min)	3.990
Intensity Units	
Intensity Multiplier	1
R.Time (min)	Intensity
0.00652	39.01
0.02318	37.39
0.03985	38.29
0.05652	39.77
0.07318	39.94
0.08985	39.06
0.10652	39.00
0.12318	39.01
0.13985	39.01
0.15652	39.01
0.17318	39.01
0.18985	39.01
0.20652	39.01
0.22318	39.01
0.23985	39.01
0.25652	39.01
0.27318	39.01
0.28985	39.01
0.30652	39.01
0.32318	39.01
0.33985	39.01
0.35652	39.01
0.37318	39.01
0.38985	39.01
0.40652	39.01
0.42318	39.01
0.43985	39.01
0.45652	39.01
0.47318	39.01
0.48985	39.01
0.50652	39.01
0.52318	39.01
0.53985	39.01
0.55652	39.01
0.57318	39.01
0.58985	39.01
0.60652	39.01
0.62318	39.01
0.63985	39.01
0.65652	39.01
0.67318	39.01
0.68985	39.01
0.70652	39.01
0.72318	39.01
0.73985	39.01
0.75652	39.01
0.77318	39.01
0.78985	39.01
0.80652	39.01
0.82318	39.01
0.83985	39.01
0.85652	39.01
0.87318	39.01
0.88985	39.01
0.90652	39.01
0.92318	39.01
0.93985	39.01
0.95652	39.01
0.97318	39.01
0.98985	39.01
1.00652	39.01
1.02318	39.01
1.03985	39.01
1.05652	39.01
1.07318	39.01
1.08985	39.01
1.10652	39.01
1.12318	39.01
1.13985	39.01
1.15652	39.01
1.17318	39.01
1.18985	39.01
1.20652	39.01
1.22318	39.01
1.23985	39.01
1.25652	39.01
1.27318	39.01
1.28985	39.02
1.30652	39.01
1.32318	39.01
1.33985	39.01
1.35652	39.01
1.37318	39.01
1.38985	39.01
1.40652	39.01
1.42318	39.01
1.43985	39.01
1.45652	39.01
1.47318	39.01
1.48985	39.01
1.50652	39.01
1.52318	39.01
1.53985	39.01
1.55652	39.01
1.57318	39.01
1.58985	39.01
1.60652	39.01
1.62318	39.00
1.63985	38.98
1.65652	38.96
1.67318	38.93
1.68985	38.89
1.70652	38.86
1.72318	38.82
1.73985	38.79
1.75652	38.76
1.77318	38.73
1.78985	38.70
1.80652	38.67
1.82318	38.63
1.83985	38.60
1.85652	38.57
1.87318	38.54
1.88985	38.51
1.90652	38.48
1.92318	38.45
1.93985	38.42
1.95652	38.39
1.97318	38.36
1.98985	38.33
2.00652	38.30
2.02318	38.27
2.03985	38.24
2.05652	38.21
2.07318	38.18
2.08985	38.15
2.10652	38.13
2.12318	38.09
2.13985	38.06
2.15652	38.03
2.17318	38.00
2.18985	37.98
2.20652	37.94
2.22318	37.91
2.23985	37.88
2.25652	37.86
2.27318	37.82
2.28985	37.79
2.30652	37.76
2.32318	37.73
2.33985	37.70
2.35652	37.68
2.37318	37.66
2.38985	37.65
2.40652	37.65
2.42318	37.66
2.43985	37.65
2.45652	37.65
2.47318	37.65
2.48985	37.65
2.50652	37.65
2.52318	37.64
2.53985	37.65
2.55652	37.65
2.57318	37.64
2.58985	37.64
2.60652	37.64
2.62318	37.64
2.63985	37.64
2.65652	37.64
2.67318	37.64
2.68985	37.64
2.70652	37.64
2.72318	37.64
2.73985	37.64
2.75652	37.64
2.77318	37.64
2.78985	37.64
2.80652	37.64
2.82318	37.64
2.83985	37.64
2.85652	37.64
2.87318	37.64
2.88985	37.64
2.90652	37.63
2.92318	37.63
2.93985	37.63
2.95652	37.63
2.97318	37.63
2.98985	37.63
3.00652	37.63
3.02318	37.63
3.03985	37.63
3.05652	37.63
3.07318	37.63
3.08985	37.63
3.10652	37.63
3.12318	37.63
3.13985	37.63
3.15652	37.63
3.17318	37.62
3.18985	37.62
3.20652	37.62
3.22318	37.62
3.23985	37.62
3.25652	37.62
3.27318	37.62
3.28985	37.62
3.30652	37.62
3.32318	37.62
3.33985	37.62
3.35652	37.62
3.37318	37.62
3.38985	37.62
3.40652	37.62
3.42318	37.62
3.43985	37.62
3.45652	37.62
3.47318	37.62
3.48985	37.62
3.50652	37.62
3.52318	37.62
3.53985	37.62
3.55652	37.62
3.57318	37.62
3.58985	37.62
3.60652	37.62
3.62318	37.62
3.63985	37.62
3.65652	37.62
3.67318	37.62
3.68985	37.62
3.70652	37.62
3.72318	37.62
3.73985	37.62
3.75652	37.62
3.77318	37.62
3.78985	37.62
3.80652	37.62
3.82318	37.62
3.83985	37.62
3.85652	37.62
3.87318	37.62
3.88985	37.62
3.90652	37.62
3.92318	37.62
3.93985	37.62
3.95652	37.62
3.97318	37.62
3.98985	37.62

