[Header]
Application Name	LabSolutions
Version	5.110
Data File Name	C:\Users\User\Desktop\Junior\UIC Prairie Sampling\6.2.23\06022023_065.gcd
Output Date	6/12/2023
Output Time	11:47:13 AM

[File Information]
Type	Data File
Generated	6/6/2023 4:47:56 PM
Generated by	System Administrator
Modified	6/6/2023 4:55:16 PM
Modified by	System Administrator

[Sample Information]
Operator Name	System Administrator
Acquired	6/6/2023 4:51:16 PM
Sample Type	0:Unknown
Level	0
Sample Name	065
Sample ID	065
ISTD Amount1	1
ISTD Amount2	1
ISTD Amount3	1
ISTD Amount4	1
ISTD Amount5	1
ISTD Amount6	1
ISTD Amount7	1
ISTD Amount8	1
ISTD Amount9	1
ISTD Amount10	1
ISTD Amount11	1
ISTD Amount12	1
ISTD Amount13	1
ISTD Amount14	1
ISTD Amount15	1
ISTD Amount16	1
ISTD Amount17	1
ISTD Amount18	1
ISTD Amount19	1
ISTD Amount20	1
ISTD Amount21	1
ISTD Amount22	1
ISTD Amount23	1
ISTD Amount24	1
ISTD Amount25	1
ISTD Amount26	1
ISTD Amount27	1
ISTD Amount28	1
ISTD Amount29	1
ISTD Amount30	1
ISTD Amount31	1
ISTD Amount32	1
Sample Amount	1
Dilution Factor	1
Vial#	64
Injection Volume	1
Injection Count	1
Bar Code	

[Original Files]
Data File	C:\Users\User\Desktop\Junior\UIC Prairie Sampling\6.2.23\06022023_065.gcd
Method File	C:\LabSolutions\Data\GHG_4min_2022\ghg3_togas_w_acet_4 min_new_int.gcm
Batch File	C:\LabSolutions\Data\AutoSamplerTesting\06022023.gcb
Report Format File	c:\LabSolutions\System\DEFAULT.lsr

[File Description]


[Configuration]
Instrument Name	C0B7VH3-Instrument1
Instrument #	1
Line #	1
# of Detectors	3
Detector ID	DET#1	DET#2	DET#3
Detector Name	FID	PTCD	ECD
# of Channels	1	1	1

[Peak Table(Ch1)]
# of Peaks	3
Peak#	R.Time	I.Time	F.Time	Area	Height	A/H	Conc.	Mark	ID#	Name	k'	Plate #	Plate Ht.	Tailing	Resolution	Sep.Factor	Area Ratio	Height Ratio	Conc. %	Norm Conc.
1	1.472	1.428	1.531	6698	3256	2.057	0.000	   	1	CO	0.000	9662	15.524	1.208	0.000	0.000	0	0	0.000	0.000
2	1.560	1.531	1.622	4110	2075	1.981	20.037	 V 	2	CH4	0.060	11417	13.139	1.253	1.488	0.000	0	0	3.566	3.566
3	1.989	1.941	2.473	2811686	1355814	2.074	541.864	   	3	CO2	0.351	17622	8.512	1.217	7.251	5.875	0	0	96.434	96.434

[Peak Table(Ch2)]
# of Peaks	0

[Peak Table(Ch3)]
# of Peaks	4
Peak#	R.Time	I.Time	F.Time	Area	Height	A/H	Conc.	Mark	ID#	Name	k'	Plate #	Plate Ht.	Tailing	Resolution	Sep.Factor	Area Ratio	Height Ratio	Conc. %	Norm Conc.
1	2.499	2.440	2.535	3451	774	4.456	0.000	   			0.000	1662	90.232	0.000	0.000	0.000	0	0	0.000	0.000
2	2.561	2.535	2.671	4656	706	6.593	0.000	 V 			0.025	176	852.742	0.000	0.123	0.000	0	0	0.000	0.000
3	2.700	2.671	2.825	3514	461	7.615	0.000	 V 			0.081	71	2117.736	0.000	0.136	3.235	0	0	0.000	0.000
4	2.887	2.825	3.250	22495	4902	4.589	0.333	 V 	1	N2O	0.156	12176	12.320	0.000	0.269	1.927	0	0	100.000	100.000

[Compound Results(Ch1)]
# of IDs	6
ID#	Name	R.Time	Area	Height	Conc.	Curve	3rd	2nd	1st	Constant	Area Ratio	Height Ratio	Conc. %	Norm Conc.
1	CO	1.472	6698	3256	0.000	Linear	0.000000e+00	0.000000e+00	0.000000e+00	0.000000e+00	0	0	0.000	0.000
2	CH4	1.560	4110	2075	20.037	Linear	0.000000e+00	0.000000e+00	2.051179e+002	0.000000e+00	0	0	3.566	3.566
3	CO2	1.989	2811686	1355814	541.864	Linear	0.000000e+00	0.000000e+00	5.188919e+003	0.000000e+00	0	0	96.434	96.434
4	Ethylene	0.000	0	0	0.000	Linear	0.000000e+00	0.000000e+00	0.000000e+00	0.000000e+00	0	0	0.000	0.000
5	Acetylene	0.000	0	0	0.000	Linear	0.000000e+00	0.000000e+00	0.000000e+00	0.000000e+00	0	0	0.000	0.000
6	Ethane	0.000	0	0	0.000	Linear	0.000000e+00	0.000000e+00	0.000000e+00	0.000000e+00	0	0	0.000	0.000

[Compound Results(Ch2)]
# of IDs	5
ID#	Name	R.Time	Area	Height	Conc.	Curve	3rd	2nd	1st	Constant	Area Ratio	Height Ratio	Conc. %	Norm Conc.
1	Hydrogen	0.000	0	0	0.000	Linear	0.000000e+00	0.000000e+00	0.000000e+00	0.000000e+00	0	0	0.000	0.000
2	Oxygen	0.000	0	0	0.000	Linear	0.000000e+00	0.000000e+00	0.000000e+00	0.000000e+00	0	0	0.000	0.000
3	Nitrogen	0.000	0	0	0.000	Linear	0.000000e+00	0.000000e+00	0.000000e+00	0.000000e+00	0	0	0.000	0.000
4	Methane	0.000	0	0	0.000	Linear	0.000000e+00	0.000000e+00	0.000000e+00	0.000000e+00	0	0	0.000	0.000
5	Carbon Monoxide	0.000	0	0	0.000	Linear	0.000000e+00	0.000000e+00	0.000000e+00	0.000000e+00	0	0	0.000	0.000

[Compound Results(Ch3)]
# of IDs	2
ID#	Name	R.Time	Area	Height	Conc.	Curve	3rd	2nd	1st	Constant	Area Ratio	Height Ratio	Conc. %	Norm Conc.
1	N2O	2.887	22495	4902	0.333	Linear	0.000000e+00	0.000000e+00	6.759880e+004	0.000000e+00	0	0	100.000	100.000
2	SF6	0.000	0	0	0.000	Linear	0.000000e+00	0.000000e+00	0.000000e+00	0.000000e+00	0	0	0.000	0.000

[Group Results(Ch1)]
# of Groups	0

[Group Results(Ch2)]
# of Groups	0

[Group Results(Ch3)]
# of Groups	0

[Chromatogram (Ch1)]
Interval(msec)	220
# of Points	1091
Start Time(min)	0.002
End Time(min)	3.998
R.Time (min)	Intensity
0.00167	24
0.00533	28
0.00900	35
0.01267	44
0.01633	51
0.02000	50
0.02367	42
0.02733	28
0.03100	12
0.03467	-2
0.03833	-11
0.04200	-12
0.04567	-13
0.04933	-12
0.05300	-7
0.05667	-5
0.06033	-5
0.06400	-9
0.06767	-14
0.07133	-14
0.07500	-10
0.07867	-0
0.08233	11
0.08600	19
0.08967	22
0.09333	22
0.09700	20
0.10067	18
0.10433	16
0.10800	16
0.11167	15
0.11533	13
0.11900	11
0.12267	9
0.12633	6
0.13000	4
0.13367	4
0.13733	8
0.14100	16
0.14467	23
0.14833	26
0.15200	26
0.15567	24
0.15933	21
0.16300	21
0.16667	22
0.17033	26
0.17400	29
0.17767	32
0.18133	34
0.18500	31
0.18867	26
0.19233	22
0.19600	18
0.19967	13
0.20333	13
0.20700	15
0.21067	15
0.21433	13
0.21800	11
0.22167	10
0.22533	12
0.22900	14
0.23267	12
0.23633	9
0.24000	6
0.24367	4
0.24733	4
0.25100	4
0.25467	3
0.25833	5
0.26200	9
0.26567	15
0.26933	22
0.27300	27
0.27667	30
0.28033	27
0.28400	21
0.28767	14
0.29133	7
0.29500	-1
0.29867	-6
0.30233	-8
0.30600	-8
0.30967	-5
0.31333	1
0.31700	6
0.32067	8
0.32433	11
0.32800	15
0.33167	15
0.33533	14
0.33900	14
0.34267	10
0.34633	2
0.35000	-7
0.35367	-11
0.35733	-10
0.36100	-9
0.36467	-9
0.36833	-9
0.37200	-8
0.37567	-6
0.37933	-2
0.38300	1
0.38667	6
0.39033	10
0.39400	11
0.39767	8
0.40133	7
0.40500	8
0.40867	11
0.41233	13
0.41600	12
0.41967	10
0.42333	11
0.42700	13
0.43067	12
0.43433	7
0.43800	1
0.44167	-2
0.44533	-4
0.44900	-6
0.45267	-8
0.45633	-10
0.46000	-12
0.46367	-12
0.46733	-15
0.47100	-16
0.47467	-13
0.47833	-6
0.48200	1
0.48567	7
0.48933	11
0.49300	11
0.49667	10
0.50033	9
0.50400	6
0.50767	5
0.51133	5
0.51500	7
0.51867	8
0.52233	7
0.52600	3
0.52967	-3
0.53333	-8
0.53700	-10
0.54067	-10
0.54433	-9
0.54800	-8
0.55167	-5
0.55533	-3
0.55900	-2
0.56267	-2
0.56633	-2
0.57000	-1
0.57367	1
0.57733	4
0.58100	5
0.58467	7
0.58833	6
0.59200	5
0.59567	2
0.59933	-5
0.60300	-11
0.60667	-14
0.61033	-12
0.61400	-9
0.61767	-7
0.62133	-5
0.62500	-4
0.62867	-7
0.63233	-12
0.63600	-15
0.63967	-14
0.64333	-9
0.64700	-2
0.65067	4
0.65433	9
0.65800	12
0.66167	12
0.66533	9
0.66900	5
0.67267	3
0.67633	0
0.68000	-3
0.68367	-7
0.68733	-6
0.69100	0
0.69467	8
0.69833	11
0.70200	9
0.70567	5
0.70933	-2
0.71300	-7
0.71667	-11
0.72033	-11
0.72400	-8
0.72767	-7
0.73133	-7
0.73500	-5
0.73867	-1
0.74233	1
0.74600	2
0.74967	3
0.75333	4
0.75700	6
0.76067	6
0.76433	5
0.76800	3
0.77167	1
0.77533	2
0.77900	3
0.78267	2
0.78633	1
0.79000	-4
0.79367	-13
0.79733	-26
0.80100	-36
0.80467	-43
0.80833	-48
0.81200	-48
0.81567	-44
0.81933	-35
0.82300	-28
0.82667	-22
0.83033	-17
0.83400	-11
0.83767	-5
0.84133	3
0.84500	8
0.84867	12
0.85233	17
0.85600	23
0.85967	25
0.86333	21
0.86700	14
0.87067	2
0.87433	-9
0.87800	-19
0.88167	-22
0.88533	-22
0.88900	-24
0.89267	-31
0.89633	-37
0.90000	-42
0.90367	-45
0.90733	-44
0.91100	-38
0.91467	-30
0.91833	-23
0.92200	-17
0.92567	-14
0.92933	-15
0.93300	-18
0.93667	-18
0.94033	-14
0.94400	-12
0.94767	-11
0.95133	-12
0.95500	-15
0.95867	-20
0.96233	-24
0.96600	-26
0.96967	-24
0.97333	-19
0.97700	-17
0.98067	-18
0.98433	-21
0.98800	-20
0.99167	-18
0.99533	-15
0.99900	-15
1.00267	-17
1.00633	-19
1.01000	-20
1.01367	-20
1.01733	-18
1.02100	-20
1.02467	-25
1.02833	-29
1.03200	-27
1.03567	-21
1.03933	-12
1.04300	-3
1.04667	5
1.05033	9
1.05400	10
1.05767	10
1.06133	6
1.06500	-1
1.06867	-9
1.07233	-18
1.07600	-27
1.07967	-32
1.08333	-33
1.08700	-31
1.09067	-26
1.09433	-21
1.09800	-22
1.10167	-27
1.10533	-29
1.10900	-29
1.11267	-31
1.11633	-32
1.12000	-32
1.12367	-30
1.12733	-26
1.13100	-22
1.13467	-20
1.13833	-18
1.14200	-14
1.14567	-13
1.14933	-13
1.15300	-13
1.15667	-12
1.16033	-9
1.16400	-8
1.16767	-12
1.17133	-13
1.17500	-9
1.17867	-4
1.18233	0
1.18600	-1
1.18967	-7
1.19333	-16
1.19700	-26
1.20067	-36
1.20433	-45
1.20800	-50
1.21167	-53
1.21533	-55
1.21900	-55
1.22267	-51
1.22633	-44
1.23000	-36
1.23367	-29
1.23733	-27
1.24100	-29
1.24467	-32
1.24833	-32
1.25200	-31
1.25567	-28
1.25933	-27
1.26300	-27
1.26667	-27
1.27033	-30
1.27400	-34
1.27767	-34
1.28133	-27
1.28500	-21
1.28867	-17
1.29233	-16
1.29600	-18
1.29967	-23
1.30333	-24
1.30700	-21
1.31067	-15
1.31433	-10
1.31800	-8
1.32167	-12
1.32533	-17
1.32900	-23
1.33267	-25
1.33633	-25
1.34000	-25
1.34367	-27
1.34733	-29
1.35100	-31
1.35467	-33
1.35833	-32
1.36200	-33
1.36567	-34
1.36933	-37
1.37300	-41
1.37667	-46
1.38033	-48
1.38400	-46
1.38767	-40
1.39133	-33
1.39500	-26
1.39867	-19
1.40233	-16
1.40600	-21
1.40967	-31
1.41333	-43
1.41700	-53
1.42067	-59
1.42433	-59
1.42800	-53
1.43167	-42
1.43533	-23
1.43900	12
1.44267	71
1.44633	249
1.45000	663
1.45367	1271
1.45733	1916
1.46100	2480
1.46467	2907
1.46833	3162
1.47200	3201
1.47567	3004
1.47933	2610
1.48300	2112
1.48667	1614
1.49033	1181
1.49400	838
1.49767	584
1.50133	403
1.50500	273
1.50867	176
1.51233	107
1.51600	61
1.51967	36
1.52333	26
1.52700	18
1.53067	17
1.53433	52
1.53800	188
1.54167	468
1.54533	858
1.54900	1269
1.55267	1619
1.55633	1876
1.56000	2016
1.56367	2008
1.56733	1842
1.57100	1550
1.57467	1204
1.57833	874
1.58200	604
1.58567	402
1.58933	256
1.59300	153
1.59667	82
1.60033	34
1.60400	2
1.60767	-20
1.61133	-36
1.61500	-46
1.61867	-55
1.62233	-62
1.62600	-67
1.62967	-68
1.63333	-67
1.63700	-64
1.64067	-63
1.64433	-62
1.64800	-58
1.65167	-52
1.65533	-46
1.65900	-43
1.66267	-42
1.66633	-42
1.67000	-46
1.67367	-51
1.67733	-54
1.68100	-53
1.68467	-53
1.68833	-58
1.69200	-68
1.69567	-76
1.69933	-76
1.70300	-70
1.70667	-64
1.71033	-61
1.71400	-58
1.71767	-56
1.72133	-57
1.72500	-60
1.72867	-63
1.73233	-66
1.73600	-67
1.73967	-67
1.74333	-66
1.74700	-61
1.75067	-59
1.75433	-60
1.75800	-63
1.76167	-66
1.76533	-68
1.76900	-70
1.77267	-70
1.77633	-65
1.78000	-60
1.78367	-57
1.78733	-56
1.79100	-57
1.79467	-60
1.79833	-62
1.80200	-62
1.80567	-58
1.80933	-56
1.81300	-60
1.81667	-69
1.82033	-78
1.82400	-83
1.82767	-84
1.83133	-81
1.83500	-77
1.83867	-75
1.84233	-73
1.84600	-75
1.84967	-75
1.85333	-69
1.85700	-60
1.86067	-53
1.86433	-52
1.86800	-55
1.87167	-59
1.87533	-62
1.87900	-63
1.88267	-62
1.88633	-64
1.89000	-68
1.89367	-70
1.89733	-70
1.90100	-71
1.90467	-71
1.90833	-67
1.91200	-62
1.91567	-57
1.91933	-56
1.92300	-56
1.92667	-53
1.93033	-50
1.93400	-50
1.93767	-51
1.94133	-48
1.94500	-4
1.94867	340
1.95233	2405
1.95600	11576
1.95967	42092
1.96333	119298
1.96700	268282
1.97067	490637
1.97433	755026
1.97800	1011480
1.98167	1214552
1.98533	1334051
1.98900	1355807
1.99267	1282767
1.99633	1134467
2.00000	942252
2.00367	740209
2.00733	555195
2.01100	401914
2.01467	283949
2.01833	197866
2.02200	137314
2.02567	95725
2.02933	67561
2.03300	48602
2.03667	35829
2.04033	27160
2.04400	21203
2.04767	17038
2.05133	14064
2.05500	11880
2.05867	10233
2.06233	8962
2.06600	7958
2.06967	7148
2.07333	6483
2.07700	5929
2.08067	5457
2.08433	5048
2.08800	4689
2.09167	4377
2.09533	4104
2.09900	3864
2.10267	3652
2.10633	3464
2.11000	3291
2.11367	3128
2.11733	2972
2.12100	2825
2.12467	2687
2.12833	2561
2.13200	2445
2.13567	2341
2.13933	2249
2.14300	2165
2.14667	2086
2.15033	2011
2.15400	1938
2.15767	1869
2.16133	1807
2.16500	1749
2.16867	1693
2.17233	1638
2.17600	1585
2.17967	1533
2.18333	1484
2.18700	1437
2.19067	1391
2.19433	1347
2.19800	1308
2.20167	1274
2.20533	1248
2.20900	1226
2.21267	1205
2.21633	1182
2.22000	1157
2.22367	1128
2.22733	1099
2.23100	1072
2.23467	1046
2.23833	1022
2.24200	1001
2.24567	981
2.24933	962
2.25300	944
2.25667	926
2.26033	909
2.26400	893
2.26767	878
2.27133	861
2.27500	843
2.27867	827
2.28233	810
2.28600	793
2.28967	778
2.29333	766
2.29700	755
2.30067	745
2.30433	732
2.30800	719
2.31167	706
2.31533	695
2.31900	688
2.32267	680
2.32633	670
2.33000	656
2.33367	643
2.33733	633
2.34100	625
2.34467	618
2.34833	613
2.35200	608
2.35567	601
2.35933	595
2.36300	591
2.36667	586
2.37033	580
2.37400	569
2.37767	556
2.38133	540
2.38500	525
2.38867	515
2.39233	510
2.39600	509
2.39967	511
2.40333	511
2.40700	509
2.41067	505
2.41433	501
2.41800	502
2.42167	505
2.42533	508
2.42900	511
2.43267	511
2.43633	502
2.44000	489
2.44367	480
2.44733	473
2.45100	463
2.45467	453
2.45833	446
2.46200	440
2.46567	431
2.46933	420
2.47300	409
2.47667	407
2.48033	410
2.48400	412
2.48767	412
2.49133	409
2.49500	407
2.49867	405
2.50233	408
2.50600	417
2.50967	428
2.51333	435
2.51700	438
2.52067	435
2.52433	431
2.52800	429
2.53167	428
2.53533	427
2.53900	425
2.54267	421
2.54633	414
2.55000	405
2.55367	397
2.55733	391
2.56100	384
2.56467	376
2.56833	372
2.57200	372
2.57567	374
2.57933	381
2.58300	387
2.58667	390
2.59033	392
2.59400	390
2.59767	384
2.60133	377
2.60500	373
2.60867	371
2.61233	370
2.61600	369
2.61967	367
2.62333	366
2.62700	368
2.63067	371
2.63433	372
2.63800	371
2.64167	368
2.64533	362
2.64900	356
2.65267	351
2.65633	350
2.66000	355
2.66367	362
2.66733	368
2.67100	373
2.67467	374
2.67833	372
2.68200	366
2.68567	360
2.68933	356
2.69300	353
2.69667	347
2.70033	343
2.70400	342
2.70767	343
2.71133	345
2.71500	344
2.71867	346
2.72233	353
2.72600	362
2.72967	371
2.73333	376
2.73700	375
2.74067	371
2.74433	366
2.74800	363
2.75167	357
2.75533	351
2.75900	343
2.76267	336
2.76633	332
2.77000	328
2.77367	329
2.77733	333
2.78100	341
2.78467	350
2.78833	357
2.79200	362
2.79567	366
2.79933	371
2.80300	373
2.80667	373
2.81033	369
2.81400	367
2.81767	369
2.82133	374
2.82500	380
2.82867	380
2.83233	370
2.83600	355
2.83967	342
2.84333	337
2.84700	340
2.85067	348
2.85433	358
2.85800	365
2.86167	365
2.86533	364
2.86900	363
2.87267	361
2.87633	364
2.88000	374
2.88367	381
2.88733	380
2.89100	373
2.89467	363
2.89833	355
2.90200	349
2.90567	349
2.90933	355
2.91300	360
2.91667	366
2.92033	369
2.92400	364
2.92767	355
2.93133	348
2.93500	347
2.93867	352
2.94233	357
2.94600	361
2.94967	362
2.95333	362
2.95700	361
2.96067	362
2.96433	366
2.96800	369
2.97167	372
2.97533	375
2.97900	380
2.98267	384
2.98633	387
2.99000	390
2.99367	395
2.99733	397
3.00100	395
3.00467	391
3.00833	385
3.01200	382
3.01567	381
3.01933	382
3.02300	382
3.02667	382
3.03033	382
3.03400	383
3.03767	383
3.04133	384
3.04500	383
3.04867	380
3.05233	379
3.05600	382
3.05967	385
3.06333	389
3.06700	393
3.07067	395
3.07433	391
3.07800	386
3.08167	383
3.08533	382
3.08900	377
3.09267	368
3.09633	360
3.10000	355
3.10367	354
3.10733	356
3.11100	359
3.11467	361
3.11833	362
3.12200	363
3.12567	365
3.12933	368
3.13300	373
3.13667	377
3.14033	379
3.14400	380
3.14767	378
3.15133	373
3.15500	371
3.15867	372
3.16233	375
3.16600	380
3.16967	381
3.17333	382
3.17700	379
3.18067	369
3.18433	355
3.18800	341
3.19167	330
3.19533	323
3.19900	314
3.20267	309
3.20633	310
3.21000	311
3.21367	314
3.21733	322
3.22100	334
3.22467	343
3.22833	346
3.23200	348
3.23567	351
3.23933	353
3.24300	353
3.24667	354
3.25033	354
3.25400	355
3.25767	358
3.26133	359
3.26500	360
3.26867	361
3.27233	361
3.27600	361
3.27967	361
3.28333	361
3.28700	358
3.29067	353
3.29433	350
3.29800	351
3.30167	352
3.30533	354
3.30900	356
3.31267	358
3.31633	359
3.32000	360
3.32367	359
3.32733	357
3.33100	355
3.33467	352
3.33833	348
3.34200	343
3.34567	338
3.34933	335
3.35300	333
3.35667	334
3.36033	336
3.36400	337
3.36767	338
3.37133	339
3.37500	339
3.37867	340
3.38233	343
3.38600	346
3.38967	348
3.39333	346
3.39700	346
3.40067	347
3.40433	350
3.40800	350
3.41167	346
3.41533	336
3.41900	326
3.42267	319
3.42633	314
3.43000	313
3.43367	314
3.43733	317
3.44100	322
3.44467	326
3.44833	330
3.45200	333
3.45567	337
3.45933	341
3.46300	344
3.46667	345
3.47033	344
3.47400	342
3.47767	339
3.48133	337
3.48500	334
3.48867	332
3.49233	328
3.49600	323
3.49967	317
3.50333	313
3.50700	311
3.51067	309
3.51433	307
3.51800	306
3.52167	304
3.52533	304
3.52900	306
3.53267	312
3.53633	318
3.54000	318
3.54367	313
3.54733	308
3.55100	306
3.55467	309
3.55833	312
3.56200	316
3.56567	321
3.56933	323
3.57300	323
3.57667	325
3.58033	326
3.58400	322
3.58767	313
3.59133	299
3.59500	286
3.59867	278
3.60233	279
3.60600	284
3.60967	288
3.61333	288
3.61700	286
3.62067	282
3.62433	278
3.62800	274
3.63167	271
3.63533	270
3.63900	272
3.64267	277
3.64633	283
3.65000	287
3.65367	287
3.65733	289
3.66100	294
3.66467	298
3.66833	301
3.67200	305
3.67567	304
3.67933	306
3.68300	308
3.68667	308
3.69033	305
3.69400	302
3.69767	298
3.70133	294
3.70500	294
3.70867	293
3.71233	293
3.71600	294
3.71967	294
3.72333	292
3.72700	289
3.73067	285
3.73433	280
3.73800	277
3.74167	274
3.74533	269
3.74900	266
3.75267	268
3.75633	278
3.76000	291
3.76367	297
3.76733	298
3.77100	294
3.77467	287
3.77833	278
3.78200	271
3.78567	269
3.78933	267
3.79300	267
3.79667	266
3.80033	266
3.80400	268
3.80767	269
3.81133	270
3.81500	271
3.81867	271
3.82233	270
3.82600	269
3.82967	271
3.83333	278
3.83700	288
3.84067	293
3.84433	291
3.84800	283
3.85167	276
3.85533	269
3.85900	263
3.86267	265
3.86633	269
3.87000	272
3.87367	271
3.87733	266
3.88100	260
3.88467	255
3.88833	253
3.89200	257
3.89567	266
3.89933	276
3.90300	281
3.90667	281
3.91033	277
3.91400	272
3.91767	266
3.92133	261
3.92500	260
3.92867	258
3.93233	251
3.93600	244
3.93967	238
3.94333	236
3.94700	237
3.95067	241
3.95433	248
3.95800	256
3.96167	262
3.96533	266
3.96900	268
3.97267	269
3.97633	271
3.98000	274
3.98367	276
3.98733	279
3.99100	281
3.99467	279
3.99833	270

[Chromatogram (Ch2)]
Interval(msec)	220
# of Points	1091
Start Time(min)	0.002
End Time(min)	3.998
R.Time (min)	Intensity
0.00167	-1
0.00533	-1
0.00900	-1
0.01267	-1
0.01633	-0
0.02000	-0
0.02367	-0
0.02733	-0
0.03100	0
0.03467	0
0.03833	1
0.04200	1
0.04567	1
0.04933	1
0.05300	1
0.05667	1
0.06033	1
0.06400	1
0.06767	1
0.07133	2
0.07500	2
0.07867	2
0.08233	2
0.08600	2
0.08967	2
0.09333	2
0.09700	2
0.10067	2
0.10433	2
0.10800	2
0.11167	2
0.11533	2
0.11900	1
0.12267	1
0.12633	0
0.13000	0
0.13367	0
0.13733	0
0.14100	-0
0.14467	-0
0.14833	-1
0.15200	-1
0.15567	-1
0.15933	-1
0.16300	-1
0.16667	-1
0.17033	-1
0.17400	-1
0.17767	-1
0.18133	-0
0.18500	-0
0.18867	-0
0.19233	-0
0.19600	-0
0.19967	0
0.20333	0
0.20700	0
0.21067	0
0.21433	0
0.21800	0
0.22167	0
0.22533	0
0.22900	0
0.23267	0
0.23633	-0
0.24000	-0
0.24367	-0
0.24733	-0
0.25100	-0
0.25467	0
0.25833	0
0.26200	0
0.26567	0
0.26933	0
0.27300	1
0.27667	1
0.28033	1
0.28400	1
0.28767	1
0.29133	1
0.29500	1
0.29867	0
0.30233	0
0.30600	-0
0.30967	-0
0.31333	-1
0.31700	-1
0.32067	-1
0.32433	-1
0.32800	-1
0.33167	-2
0.33533	-2
0.33900	-1
0.34267	-1
0.34633	-1
0.35000	-2
0.35367	-2
0.35733	-2
0.36100	-1
0.36467	-1
0.36833	-1
0.37200	-1
0.37567	-1
0.37933	-1
0.38300	-1
0.38667	-0
0.39033	0
0.39400	0
0.39767	1
0.40133	1
0.40500	1
0.40867	1
0.41233	1
0.41600	2
0.41967	2
0.42333	2
0.42700	2
0.43067	2
0.43433	2
0.43800	2
0.44167	1
0.44533	1
0.44900	1
0.45267	0
0.45633	-0
0.46000	-1
0.46367	-1
0.46733	-1
0.47100	-2
0.47467	-2
0.47833	-3
0.48200	-3
0.48567	-3
0.48933	-3
0.49300	-3
0.49667	-3
0.50033	-3
0.50400	-2
0.50767	-2
0.51133	-2
0.51500	-1
0.51867	-1
0.52233	-1
0.52600	-1
0.52967	-0
0.53333	-1
0.53700	-1
0.54067	-1
0.54433	-1
0.54800	-1
0.55167	-1
0.55533	-1
0.55900	-2
0.56267	-2
0.56633	-2
0.57000	-2
0.57367	-1
0.57733	-1
0.58100	-1
0.58467	-1
0.58833	-1
0.59200	-1
0.59567	-1
0.59933	-2
0.60300	-2
0.60667	-2
0.61033	-2
0.61400	-2
0.61767	-2
0.62133	-1
0.62500	-1
0.62867	-1
0.63233	-0
0.63600	-0
0.63967	0
0.64333	0
0.64700	0
0.65067	0
0.65433	0
0.65800	0
0.66167	-0
0.66533	-0
0.66900	-1
0.67267	-1
0.67633	-1
0.68000	-2
0.68367	-2
0.68733	-2
0.69100	-3
0.69467	-3
0.69833	-3
0.70200	-3
0.70567	-3
0.70933	-3
0.71300	-2
0.71667	-2
0.72033	-2
0.72400	-2
0.72767	-2
0.73133	-2
0.73500	-2
0.73867	-1
0.74233	-1
0.74600	-1
0.74967	-1
0.75333	-1
0.75700	-1
0.76067	-1
0.76433	-1
0.76800	-1
0.77167	-1
0.77533	-1
0.77900	-1
0.78267	-2
0.78633	-2
0.79000	-2
0.79367	-2
0.79733	-3
0.80100	-3
0.80467	-3
0.80833	-3
0.81200	-3
0.81567	-3
0.81933	-3
0.82300	-3
0.82667	-3
0.83033	-3
0.83400	-2
0.83767	-2
0.84133	-2
0.84500	-2
0.84867	-2
0.85233	-2
0.85600	-2
0.85967	-2
0.86333	-2
0.86700	-2
0.87067	-2
0.87433	-3
0.87800	-3
0.88167	-3
0.88533	-3
0.88900	-3
0.89267	-3
0.89633	-3
0.90000	-3
0.90367	-3
0.90733	-3
0.91100	-3
0.91467	-3
0.91833	-3
0.92200	-3
0.92567	-3
0.92933	-3
0.93300	-3
0.93667	-2
0.94033	-2
0.94400	-1
0.94767	-1
0.95133	-1
0.95500	-0
0.95867	-0
0.96233	-0
0.96600	-0
0.96967	-0
0.97333	-1
0.97700	-1
0.98067	-1
0.98433	-1
0.98800	-1
0.99167	-1
0.99533	-1
0.99900	-2
1.00267	-2
1.00633	-2
1.01000	-3
1.01367	-3
1.01733	-3
1.02100	-3
1.02467	-3
1.02833	-3
1.03200	-3
1.03567	-3
1.03933	-3
1.04300	-3
1.04667	-3
1.05033	-3
1.05400	-3
1.05767	-3
1.06133	-3
1.06500	-3
1.06867	-3
1.07233	-3
1.07600	-2
1.07967	-2
1.08333	-2
1.08700	-2
1.09067	-2
1.09433	-1
1.09800	-1
1.10167	-1
1.10533	-2
1.10900	-2
1.11267	-2
1.11633	-2
1.12000	-2
1.12367	-3
1.12733	-3
1.13100	-3
1.13467	-3
1.13833	-3
1.14200	-3
1.14567	-3
1.14933	-4
1.15300	-4
1.15667	-4
1.16033	-4
1.16400	-4
1.16767	-3
1.17133	-3
1.17500	-3
1.17867	-3
1.18233	-3
1.18600	-3
1.18967	-2
1.19333	-2
1.19700	-2
1.20067	-2
1.20433	-2
1.20800	-2
1.21167	-2
1.21533	-2
1.21900	-2
1.22267	-2
1.22633	-3
1.23000	-3
1.23367	-3
1.23733	-4
1.24100	-4
1.24467	-4
1.24833	-4
1.25200	-4
1.25567	-4
1.25933	-4
1.26300	-4
1.26667	-4
1.27033	-4
1.27400	-4
1.27767	-4
1.28133	-4
1.28500	-4
1.28867	-3
1.29233	-3
1.29600	-3
1.29967	-2
1.30333	-2
1.30700	-2
1.31067	-2
1.31433	-1
1.31800	-1
1.32167	-2
1.32533	-2
1.32900	-2
1.33267	-2
1.33633	-2
1.34000	-2
1.34367	-2
1.34733	-2
1.35100	-2
1.35467	-2
1.35833	-2
1.36200	-3
1.36567	-3
1.36933	-3
1.37300	-4
1.37667	-4
1.38033	-4
1.38400	-4
1.38767	-4
1.39133	-4
1.39500	-3
1.39867	-3
1.40233	-3
1.40600	-3
1.40967	-3
1.41333	-3
1.41700	-3
1.42067	-3
1.42433	-3
1.42800	-3
1.43167	-3
1.43533	-3
1.43900	-3
1.44267	-3
1.44633	-3
1.45000	-3
1.45367	-3
1.45733	-3
1.46100	-3
1.46467	-3
1.46833	-2
1.47200	-2
1.47567	-2
1.47933	-2
1.48300	-2
1.48667	-2
1.49033	-2
1.49400	-2
1.49767	-2
1.50133	-2
1.50500	-2
1.50867	-2
1.51233	-2
1.51600	-2
1.51967	-3
1.52333	-3
1.52700	-3
1.53067	-3
1.53433	-3
1.53800	-3
1.54167	-4
1.54533	-4
1.54900	-4
1.55267	-4
1.55633	-5
1.56000	-5
1.56367	-5
1.56733	-5
1.57100	-4
1.57467	-4
1.57833	-4
1.58200	-4
1.58567	-4
1.58933	-4
1.59300	-5
1.59667	-5
1.60033	-5
1.60400	-6
1.60767	-7
1.61133	-8
1.61500	-10
1.61867	-12
1.62233	-14
1.62600	-17
1.62967	-20
1.63333	-23
1.63700	-27
1.64067	-30
1.64433	-34
1.64800	-37
1.65167	-41
1.65533	-45
1.65900	-49
1.66267	-52
1.66633	-56
1.67000	-60
1.67367	-64
1.67733	-68
1.68100	-72
1.68467	-76
1.68833	-80
1.69200	-83
1.69567	-86
1.69933	-88
1.70300	-90
1.70667	-92
1.71033	-94
1.71400	-96
1.71767	-97
1.72133	-98
1.72500	-98
1.72867	-98
1.73233	-99
1.73600	-99
1.73967	-99
1.74333	-99
1.74700	-99
1.75067	-99
1.75433	-100
1.75800	-100
1.76167	-101
1.76533	-102
1.76900	-103
1.77267	-104
1.77633	-104
1.78000	-104
1.78367	-104
1.78733	-104
1.79100	-103
1.79467	-104
1.79833	-104
1.80200	-104
1.80567	-103
1.80933	-103
1.81300	-103
1.81667	-103
1.82033	-103
1.82400	-103
1.82767	-103
1.83133	-103
1.83500	-103
1.83867	-104
1.84233	-104
1.84600	-105
1.84967	-105
1.85333	-105
1.85700	-105
1.86067	-104
1.86433	-104
1.86800	-104
1.87167	-103
1.87533	-103
1.87900	-102
1.88267	-102
1.88633	-102
1.89000	-102
1.89367	-103
1.89733	-103
1.90100	-103
1.90467	-102
1.90833	-102
1.91200	-101
1.91567	-101
1.91933	-100
1.92300	-100
1.92667	-99
1.93033	-99
1.93400	-99
1.93767	-99
1.94133	-99
1.94500	-99
1.94867	-99
1.95233	-99
1.95600	-99
1.95967	-99
1.96333	-99
1.96700	-99
1.97067	-98
1.97433	-98
1.97800	-98
1.98167	-97
1.98533	-97
1.98900	-96
1.99267	-96
1.99633	-96
2.00000	-96
2.00367	-96
2.00733	-96
2.01100	-96
2.01467	-96
2.01833	-96
2.02200	-95
2.02567	-95
2.02933	-95
2.03300	-94
2.03667	-94
2.04033	-93
2.04400	-92
2.04767	-92
2.05133	-91
2.05500	-91
2.05867	-91
2.06233	-91
2.06600	-91
2.06967	-91
2.07333	-91
2.07700	-91
2.08067	-90
2.08433	-89
2.08800	-88
2.09167	-88
2.09533	-87
2.09900	-86
2.10267	-86
2.10633	-86
2.11000	-86
2.11367	-86
2.11733	-86
2.12100	-87
2.12467	-87
2.12833	-87
2.13200	-87
2.13567	-86
2.13933	-86
2.14300	-86
2.14667	-86
2.15033	-86
2.15400	-87
2.15767	-87
2.16133	-88
2.16500	-88
2.16867	-88
2.17233	-88
2.17600	-88
2.17967	-87
2.18333	-86
2.18700	-86
2.19067	-85
2.19433	-84
2.19800	-83
2.20167	-82
2.20533	-81
2.20900	-80
2.21267	-79
2.21633	-78
2.22000	-78
2.22367	-78
2.22733	-78
2.23100	-79
2.23467	-79
2.23833	-79
2.24200	-79
2.24567	-78
2.24933	-78
2.25300	-78
2.25667	-77
2.26033	-77
2.26400	-77
2.26767	-77
2.27133	-77
2.27500	-77
2.27867	-77
2.28233	-77
2.28600	-77
2.28967	-78
2.29333	-78
2.29700	-79
2.30067	-80
2.30433	-80
2.30800	-79
2.31167	-79
2.31533	-79
2.31900	-78
2.32267	-78
2.32633	-77
2.33000	-76
2.33367	-75
2.33733	-74
2.34100	-74
2.34467	-73
2.34833	-72
2.35200	-71
2.35567	-71
2.35933	-70
2.36300	-70
2.36667	-69
2.37033	-68
2.37400	-66
2.37767	-64
2.38133	-62
2.38500	-58
2.38867	-55
2.39233	-50
2.39600	-45
2.39967	-40
2.40333	-34
2.40700	-29
2.41067	-24
2.41433	-19
2.41800	-16
2.42167	-13
2.42533	-11
2.42900	-9
2.43267	-7
2.43633	-5
2.44000	-3
2.44367	-2
2.44733	-0
2.45100	1
2.45467	1
2.45833	2
2.46200	3
2.46567	4
2.46933	5
2.47300	6
2.47667	6
2.48033	7
2.48400	7
2.48767	6
2.49133	6
2.49500	6
2.49867	6
2.50233	5
2.50600	5
2.50967	4
2.51333	4
2.51700	3
2.52067	3
2.52433	3
2.52800	3
2.53167	4
2.53533	4
2.53900	4
2.54267	5
2.54633	6
2.55000	6
2.55367	6
2.55733	7
2.56100	7
2.56467	6
2.56833	6
2.57200	6
2.57567	6
2.57933	7
2.58300	7
2.58667	8
2.59033	9
2.59400	9
2.59767	10
2.60133	11
2.60500	11
2.60867	11
2.61233	11
2.61600	11
2.61967	11
2.62333	10
2.62700	10
2.63067	11
2.63433	11
2.63800	11
2.64167	12
2.64533	12
2.64900	12
2.65267	12
2.65633	12
2.66000	12
2.66367	13
2.66733	13
2.67100	13
2.67467	13
2.67833	14
2.68200	14
2.68567	15
2.68933	15
2.69300	15
2.69667	15
2.70033	15
2.70400	16
2.70767	16
2.71133	17
2.71500	17
2.71867	17
2.72233	18
2.72600	19
2.72967	20
2.73333	20
2.73700	21
2.74067	21
2.74433	21
2.74800	21
2.75167	21
2.75533	21
2.75900	21
2.76267	21
2.76633	21
2.77000	21
2.77367	20
2.77733	21
2.78100	21
2.78467	21
2.78833	21
2.79200	21
2.79567	21
2.79933	21
2.80300	21
2.80667	21
2.81033	21
2.81400	21
2.81767	20
2.82133	20
2.82500	20
2.82867	20
2.83233	20
2.83600	19
2.83967	19
2.84333	19
2.84700	18
2.85067	18
2.85433	19
2.85800	18
2.86167	17
2.86533	14
2.86900	9
2.87267	1
2.87633	-11
2.88000	-27
2.88367	-48
2.88733	-74
2.89100	-105
2.89467	-141
2.89833	-183
2.90200	-228
2.90567	-279
2.90933	-333
2.91300	-390
2.91667	-449
2.92033	-511
2.92400	-573
2.92767	-634
2.93133	-695
2.93500	-755
2.93867	-811
2.94233	-864
2.94600	-916
2.94967	-971
2.95333	-1026
2.95700	-1074
2.96067	-1103
2.96433	-1109
2.96800	-1089
2.97167	-1047
2.97533	-987
2.97900	-916
2.98267	-838
2.98633	-758
2.99000	-678
2.99367	-602
2.99733	-530
3.00100	-464
3.00467	-404
3.00833	-350
3.01200	-302
3.01567	-261
3.01933	-224
3.02300	-192
3.02667	-164
3.03033	-140
3.03400	-119
3.03767	-101
3.04133	-85
3.04500	-72
3.04867	-60
3.05233	-51
3.05600	-42
3.05967	-35
3.06333	-29
3.06700	-24
3.07067	-19
3.07433	-16
3.07800	-12
3.08167	-10
3.08533	-8
3.08900	-6
3.09267	-4
3.09633	-2
3.10000	-1
3.10367	0
3.10733	2
3.11100	3
3.11467	4
3.11833	5
3.12200	6
3.12567	7
3.12933	8
3.13300	8
3.13667	9
3.14033	9
3.14400	9
3.14767	9
3.15133	9
3.15500	10
3.15867	10
3.16233	10
3.16600	10
3.16967	11
3.17333	11
3.17700	11
3.18067	12
3.18433	13
3.18800	13
3.19167	13
3.19533	13
3.19900	13
3.20267	13
3.20633	13
3.21000	13
3.21367	14
3.21733	14
3.22100	14
3.22467	14
3.22833	14
3.23200	13
3.23567	13
3.23933	13
3.24300	13
3.24667	13
3.25033	13
3.25400	14
3.25767	15
3.26133	15
3.26500	15
3.26867	16
3.27233	16
3.27600	16
3.27967	16
3.28333	16
3.28700	15
3.29067	14
3.29433	13
3.29800	12
3.30167	12
3.30533	12
3.30900	12
3.31267	11
3.31633	11
3.32000	12
3.32367	12
3.32733	12
3.33100	13
3.33467	14
3.33833	15
3.34200	15
3.34567	15
3.34933	16
3.35300	16
3.35667	16
3.36033	16
3.36400	17
3.36767	17
3.37133	17
3.37500	18
3.37867	18
3.38233	19
3.38600	19
3.38967	20
3.39333	21
3.39700	21
3.40067	22
3.40433	22
3.40800	23
3.41167	23
3.41533	23
3.41900	23
3.42267	24
3.42633	24
3.43000	23
3.43367	23
3.43733	23
3.44100	23
3.44467	23
3.44833	23
3.45200	23
3.45567	23
3.45933	23
3.46300	22
3.46667	22
3.47033	22
3.47400	22
3.47767	21
3.48133	21
3.48500	21
3.48867	21
3.49233	20
3.49600	21
3.49967	21
3.50333	21
3.50700	21
3.51067	21
3.51433	21
3.51800	20
3.52167	20
3.52533	20
3.52900	20
3.53267	20
3.53633	20
3.54000	20
3.54367	20
3.54733	19
3.55100	19
3.55467	19
3.55833	19
3.56200	19
3.56567	18
3.56933	18
3.57300	17
3.57667	17
3.58033	16
3.58400	16
3.58767	16
3.59133	16
3.59500	16
3.59867	17
3.60233	18
3.60600	18
3.60967	18
3.61333	18
3.61700	19
3.62067	19
3.62433	18
3.62800	18
3.63167	18
3.63533	18
3.63900	18
3.64267	18
3.64633	18
3.65000	18
3.65367	17
3.65733	17
3.66100	18
3.66467	18
3.66833	18
3.67200	18
3.67567	18
3.67933	19
3.68300	19
3.68667	19
3.69033	19
3.69400	18
3.69767	18
3.70133	18
3.70500	18
3.70867	18
3.71233	18
3.71600	18
3.71967	19
3.72333	19
3.72700	18
3.73067	18
3.73433	18
3.73800	18
3.74167	17
3.74533	17
3.74900	17
3.75267	17
3.75633	17
3.76000	17
3.76367	17
3.76733	17
3.77100	17
3.77467	17
3.77833	17
3.78200	18
3.78567	17
3.78933	17
3.79300	17
3.79667	18
3.80033	18
3.80400	18
3.80767	18
3.81133	18
3.81500	19
3.81867	19
3.82233	19
3.82600	19
3.82967	18
3.83333	18
3.83700	18
3.84067	18
3.84433	17
3.84800	17
3.85167	17
3.85533	18
3.85900	17
3.86267	17
3.86633	17
3.87000	17
3.87367	16
3.87733	16
3.88100	16
3.88467	16
3.88833	16
3.89200	16
3.89567	16
3.89933	17
3.90300	17
3.90667	17
3.91033	17
3.91400	17
3.91767	17
3.92133	16
3.92500	16
3.92867	16
3.93233	16
3.93600	16
3.93967	16
3.94333	16
3.94700	16
3.95067	16
3.95433	16
3.95800	17
3.96167	17
3.96533	18
3.96900	18
3.97267	18
3.97633	18
3.98000	17
3.98367	17
3.98733	17
3.99100	17
3.99467	17
3.99833	17

[Chromatogram (Ch3)]
Interval(msec)	220
# of Points	1091
Start Time(min)	0.002
End Time(min)	3.998
R.Time (min)	Intensity
0.00167	1
0.00533	2
0.00900	1
0.01267	1
0.01633	0
0.02000	-1
0.02367	-1
0.02733	-1
0.03100	-1
0.03467	-1
0.03833	0
0.04200	1
0.04567	-0
0.04933	-2
0.05300	-3
0.05667	-2
0.06033	-2
0.06400	-2
0.06767	-3
0.07133	-2
0.07500	-1
0.07867	-1
0.08233	-3
0.08600	-3
0.08967	-2
0.09333	-2
0.09700	-1
0.10067	0
0.10433	0
0.10800	0
0.11167	0
0.11533	0
0.11900	0
0.12267	-1
0.12633	-2
0.13000	-2
0.13367	-2
0.13733	-2
0.14100	-1
0.14467	2
0.14833	3
0.15200	2
0.15567	1
0.15933	-1
0.16300	-3
0.16667	-2
0.17033	-1
0.17400	-0
0.17767	-2
0.18133	-1
0.18500	0
0.18867	-1
0.19233	-2
0.19600	-2
0.19967	1
0.20333	0
0.20700	0
0.21067	-1
0.21433	-2
0.21800	-1
0.22167	1
0.22533	1
0.22900	2
0.23267	2
0.23633	1
0.24000	1
0.24367	3
0.24733	5
0.25100	5
0.25467	3
0.25833	-1
0.26200	-4
0.26567	-4
0.26933	-5
0.27300	-5
0.27667	-4
0.28033	-4
0.28400	-3
0.28767	-2
0.29133	-3
0.29500	-3
0.29867	-2
0.30233	-2
0.30600	-2
0.30967	-2
0.31333	-4
0.31700	-4
0.32067	-3
0.32433	-1
0.32800	-2
0.33167	-3
0.33533	-3
0.33900	-1
0.34267	1
0.34633	3
0.35000	3
0.35367	3
0.35733	-1
0.36100	-4
0.36467	-5
0.36833	-4
0.37200	-3
0.37567	-2
0.37933	-1
0.38300	-2
0.38667	-2
0.39033	-2
0.39400	-2
0.39767	-2
0.40133	-1
0.40500	-1
0.40867	-2
0.41233	-3
0.41600	-3
0.41967	-3
0.42333	-1
0.42700	0
0.43067	3
0.43433	3
0.43800	2
0.44167	3
0.44533	4
0.44900	5
0.45267	5
0.45633	5
0.46000	4
0.46367	3
0.46733	3
0.47100	2
0.47467	4
0.47833	7
0.48200	10
0.48567	11
0.48933	13
0.49300	14
0.49667	14
0.50033	15
0.50400	17
0.50767	18
0.51133	17
0.51500	14
0.51867	11
0.52233	8
0.52600	6
0.52967	5
0.53333	7
0.53700	9
0.54067	8
0.54433	7
0.54800	6
0.55167	6
0.55533	4
0.55900	3
0.56267	4
0.56633	5
0.57000	6
0.57367	5
0.57733	4
0.58100	4
0.58467	5
0.58833	7
0.59200	9
0.59567	9
0.59933	9
0.60300	9
0.60667	10
0.61033	10
0.61400	11
0.61767	10
0.62133	9
0.62500	8
0.62867	8
0.63233	9
0.63600	10
0.63967	11
0.64333	11
0.64700	12
0.65067	10
0.65433	7
0.65800	6
0.66167	6
0.66533	5
0.66900	4
0.67267	4
0.67633	5
0.68000	6
0.68367	4
0.68733	3
0.69100	6
0.69467	7
0.69833	7
0.70200	7
0.70567	8
0.70933	7
0.71300	6
0.71667	7
0.72033	9
0.72400	12
0.72767	13
0.73133	13
0.73500	12
0.73867	11
0.74233	11
0.74600	10
0.74967	11
0.75333	11
0.75700	10
0.76067	9
0.76433	9
0.76800	7
0.77167	8
0.77533	9
0.77900	12
0.78267	11
0.78633	11
0.79000	11
0.79367	11
0.79733	10
0.80100	12
0.80467	15
0.80833	15
0.81200	14
0.81567	15
0.81933	15
0.82300	15
0.82667	17
0.83033	16
0.83400	12
0.83767	10
0.84133	8
0.84500	8
0.84867	10
0.85233	11
0.85600	11
0.85967	11
0.86333	11
0.86700	11
0.87067	12
0.87433	14
0.87800	14
0.88167	14
0.88533	12
0.88900	12
0.89267	13
0.89633	14
0.90000	16
0.90367	18
0.90733	19
0.91100	20
0.91467	18
0.91833	15
0.92200	13
0.92567	13
0.92933	15
0.93300	14
0.93667	15
0.94033	14
0.94400	14
0.94767	16
0.95133	17
0.95500	17
0.95867	18
0.96233	20
0.96600	20
0.96967	16
0.97333	15
0.97700	14
0.98067	13
0.98433	12
0.98800	12
0.99167	12
0.99533	13
0.99900	13
1.00267	16
1.00633	19
1.01000	21
1.01367	22
1.01733	21
1.02100	19
1.02467	17
1.02833	17
1.03200	17
1.03567	18
1.03933	18
1.04300	17
1.04667	17
1.05033	17
1.05400	18
1.05767	17
1.06133	16
1.06500	15
1.06867	16
1.07233	16
1.07600	15
1.07967	13
1.08333	10
1.08700	11
1.09067	12
1.09433	13
1.09800	12
1.10167	12
1.10533	12
1.10900	11
1.11267	11
1.11633	11
1.12000	13
1.12367	16
1.12733	18
1.13100	18
1.13467	15
1.13833	12
1.14200	12
1.14567	15
1.14933	17
1.15300	19
1.15667	19
1.16033	19
1.16400	19
1.16767	20
1.17133	20
1.17500	18
1.17867	17
1.18233	17
1.18600	16
1.18967	15
1.19333	14
1.19700	14
1.20067	15
1.20433	16
1.20800	14
1.21167	15
1.21533	17
1.21900	18
1.22267	16
1.22633	14
1.23000	13
1.23367	15
1.23733	16
1.24100	17
1.24467	17
1.24833	18
1.25200	17
1.25567	18
1.25933	18
1.26300	16
1.26667	14
1.27033	14
1.27400	15
1.27767	16
1.28133	16
1.28500	16
1.28867	15
1.29233	17
1.29600	19
1.29967	18
1.30333	18
1.30700	17
1.31067	16
1.31433	15
1.31800	18
1.32167	21
1.32533	22
1.32900	23
1.33267	24
1.33633	24
1.34000	26
1.34367	24
1.34733	22
1.35100	21
1.35467	22
1.35833	25
1.36200	27
1.36567	27
1.36933	26
1.37300	23
1.37667	19
1.38033	17
1.38400	17
1.38767	19
1.39133	21
1.39500	22
1.39867	23
1.40233	24
1.40600	23
1.40967	24
1.41333	24
1.41700	23
1.42067	23
1.42433	23
1.42800	25
1.43167	26
1.43533	26
1.43900	26
1.44267	23
1.44633	21
1.45000	21
1.45367	21
1.45733	19
1.46100	18
1.46467	20
1.46833	23
1.47200	25
1.47567	24
1.47933	24
1.48300	24
1.48667	23
1.49033	24
1.49400	24
1.49767	21
1.50133	20
1.50500	20
1.50867	19
1.51233	19
1.51600	18
1.51967	17
1.52333	19
1.52700	19
1.53067	21
1.53433	23
1.53800	24
1.54167	23
1.54533	23
1.54900	23
1.55267	22
1.55633	23
1.56000	23
1.56367	22
1.56733	22
1.57100	23
1.57467	24
1.57833	27
1.58200	29
1.58567	30
1.58933	30
1.59300	30
1.59667	28
1.60033	24
1.60400	21
1.60767	20
1.61133	22
1.61500	26
1.61867	30
1.62233	30
1.62600	29
1.62967	29
1.63333	29
1.63700	28
1.64067	27
1.64433	27
1.64800	28
1.65167	28
1.65533	28
1.65900	28
1.66267	29
1.66633	30
1.67000	32
1.67367	34
1.67733	35
1.68100	33
1.68467	32
1.68833	32
1.69200	33
1.69567	36
1.69933	41
1.70300	43
1.70667	43
1.71033	41
1.71400	39
1.71767	39
1.72133	38
1.72500	37
1.72867	37
1.73233	36
1.73600	36
1.73967	37
1.74333	37
1.74700	38
1.75067	39
1.75433	41
1.75800	43
1.76167	44
1.76533	43
1.76900	40
1.77267	40
1.77633	42
1.78000	43
1.78367	46
1.78733	46
1.79100	46
1.79467	49
1.79833	49
1.80200	48
1.80567	48
1.80933	49
1.81300	49
1.81667	49
1.82033	49
1.82400	48
1.82767	49
1.83133	52
1.83500	55
1.83867	58
1.84233	57
1.84600	55
1.84967	55
1.85333	54
1.85700	55
1.86067	56
1.86433	57
1.86800	58
1.87167	58
1.87533	59
1.87900	60
1.88267	61
1.88633	63
1.89000	64
1.89367	61
1.89733	59
1.90100	58
1.90467	60
1.90833	63
1.91200	64
1.91567	61
1.91933	60
1.92300	62
1.92667	64
1.93033	65
1.93400	67
1.93767	68
1.94133	67
1.94500	68
1.94867	70
1.95233	72
1.95600	73
1.95967	73
1.96333	73
1.96700	72
1.97067	72
1.97433	71
1.97800	70
1.98167	72
1.98533	75
1.98900	76
1.99267	80
1.99633	85
2.00000	87
2.00367	87
2.00733	86
2.01100	86
2.01467	88
2.01833	88
2.02200	88
2.02567	89
2.02933	91
2.03300	94
2.03667	93
2.04033	93
2.04400	90
2.04767	89
2.05133	89
2.05500	89
2.05867	88
2.06233	89
2.06600	90
2.06967	92
2.07333	93
2.07700	93
2.08067	95
2.08433	97
2.08800	99
2.09167	100
2.09533	101
2.09900	102
2.10267	102
2.10633	103
2.11000	104
2.11367	105
2.11733	106
2.12100	107
2.12467	108
2.12833	109
2.13200	108
2.13567	107
2.13933	107
2.14300	106
2.14667	104
2.15033	105
2.15400	108
2.15767	112
2.16133	113
2.16500	114
2.16867	117
2.17233	122
2.17600	124
2.17967	123
2.18333	122
2.18700	120
2.19067	116
2.19433	115
2.19800	115
2.20167	117
2.20533	118
2.20900	119
2.21267	121
2.21633	124
2.22000	126
2.22367	127
2.22733	127
2.23100	127
2.23467	126
2.23833	127
2.24200	128
2.24567	129
2.24933	128
2.25300	127
2.25667	128
2.26033	130
2.26400	131
2.26767	131
2.27133	132
2.27500	130
2.27867	130
2.28233	133
2.28600	133
2.28967	132
2.29333	132
2.29700	132
2.30067	132
2.30433	134
2.30800	135
2.31167	135
2.31533	134
2.31900	133
2.32267	133
2.32633	134
2.33000	137
2.33367	140
2.33733	144
2.34100	146
2.34467	146
2.34833	145
2.35200	145
2.35567	146
2.35933	147
2.36300	148
2.36667	148
2.37033	148
2.37400	149
2.37767	151
2.38133	151
2.38500	150
2.38867	147
2.39233	145
2.39600	145
2.39967	147
2.40333	149
2.40700	152
2.41067	154
2.41433	154
2.41800	156
2.42167	156
2.42533	158
2.42900	158
2.43267	156
2.43633	154
2.44000	160
2.44367	213
2.44733	326
2.45100	458
2.45467	570
2.45833	658
2.46200	730
2.46567	782
2.46933	814
2.47300	836
2.47667	857
2.48033	878
2.48400	899
2.48767	923
2.49133	946
2.49500	962
2.49867	968
2.50233	962
2.50600	946
2.50967	929
2.51333	915
2.51700	904
2.52067	896
2.52433	890
2.52800	887
2.53167	886
2.53533	888
2.53900	893
2.54267	900
2.54633	909
2.55000	918
2.55367	926
2.55733	932
2.56100	936
2.56467	935
2.56833	931
2.57200	922
2.57567	907
2.57933	890
2.58300	872
2.58667	857
2.59033	846
2.59400	837
2.59767	825
2.60133	812
2.60500	803
2.60867	795
2.61233	789
2.61600	785
2.61967	782
2.62333	775
2.62700	769
2.63067	764
2.63433	760
2.63800	753
2.64167	748
2.64533	743
2.64900	740
2.65267	738
2.65633	735
2.66000	735
2.66367	737
2.66733	739
2.67100	741
2.67467	744
2.67833	748
2.68200	753
2.68567	757
2.68933	761
2.69300	764
2.69667	767
2.70033	771
2.70400	772
2.70767	771
2.71133	772
2.71500	770
2.71867	766
2.72233	762
2.72600	757
2.72967	751
2.73333	743
2.73700	735
2.74067	727
2.74433	724
2.74800	719
2.75167	714
2.75533	707
2.75900	700
2.76267	696
2.76633	692
2.77000	686
2.77367	682
2.77733	680
2.78100	676
2.78467	673
2.78833	673
2.79200	674
2.79567	671
2.79933	669
2.80300	667
2.80667	666
2.81033	664
2.81400	663
2.81767	662
2.82133	661
2.82500	662
2.82867	666
2.83233	675
2.83600	692
2.83967	725
2.84333	789
2.84700	907
2.85067	1103
2.85433	1396
2.85800	1795
2.86167	2288
2.86533	2850
2.86900	3444
2.87267	4020
2.87633	4528
2.88000	4931
2.88367	5198
2.88733	5318
2.89100	5303
2.89467	5172
2.89833	4953
2.90200	4673
2.90567	4358
2.90933	4029
2.91300	3701
2.91667	3387
2.92033	3091
2.92400	2820
2.92767	2576
2.93133	2359
2.93500	2167
2.93867	1998
2.94233	1850
2.94600	1720
2.94967	1605
2.95333	1503
2.95700	1414
2.96067	1337
2.96433	1270
2.96800	1210
2.97167	1156
2.97533	1111
2.97900	1072
2.98267	1038
2.98633	1004
2.99000	973
2.99367	945
2.99733	923
3.00100	905
3.00467	889
3.00833	873
3.01200	856
3.01567	841
3.01933	827
3.02300	815
3.02667	805
3.03033	794
3.03400	784
3.03767	775
3.04133	766
3.04500	757
3.04867	750
3.05233	743
3.05600	737
3.05967	734
3.06333	731
3.06700	728
3.07067	725
3.07433	722
3.07800	716
3.08167	710
3.08533	707
3.08900	703
3.09267	700
3.09633	697
3.10000	695
3.10367	694
3.10733	692
3.11100	688
3.11467	684
3.11833	681
3.12200	679
3.12567	678
3.12933	677
3.13300	676
3.13667	674
3.14033	673
3.14400	670
3.14767	669
3.15133	668
3.15500	666
3.15867	665
3.16233	663
3.16600	663
3.16967	661
3.17333	661
3.17700	659
3.18067	656
3.18433	655
3.18800	654
3.19167	651
3.19533	649
3.19900	648
3.20267	648
3.20633	648
3.21000	647
3.21367	644
3.21733	641
3.22100	640
3.22467	641
3.22833	640
3.23200	638
3.23567	636
3.23933	633
3.24300	631
3.24667	629
3.25033	624
3.25400	620
3.25767	618
3.26133	617
3.26500	618
3.26867	617
3.27233	616
3.27600	614
3.27967	611
3.28333	607
3.28700	606
3.29067	603
3.29433	602
3.29800	602
3.30167	603
3.30533	602
3.30900	599
3.31267	596
3.31633	594
3.32000	588
3.32367	584
3.32733	583
3.33100	582
3.33467	580
3.33833	575
3.34200	573
3.34567	572
3.34933	569
3.35300	567
3.35667	564
3.36033	560
3.36400	559
3.36767	557
3.37133	553
3.37500	548
3.37867	546
3.38233	542
3.38600	539
3.38967	537
3.39333	535
3.39700	533
3.40067	529
3.40433	527
3.40800	526
3.41167	526
3.41533	525
3.41900	524
3.42267	521
3.42633	519
3.43000	517
3.43367	513
3.43733	510
3.44100	508
3.44467	507
3.44833	503
3.45200	500
3.45567	498
3.45933	496
3.46300	493
3.46667	491
3.47033	492
3.47400	492
3.47767	490
3.48133	488
3.48500	485
3.48867	483
3.49233	483
3.49600	482
3.49967	478
3.50333	476
3.50700	475
3.51067	474
3.51433	472
3.51800	471
3.52167	470
3.52533	467
3.52900	465
3.53267	463
3.53633	462
3.54000	461
3.54367	459
3.54733	458
3.55100	457
3.55467	455
3.55833	453
3.56200	452
3.56567	451
3.56933	451
3.57300	449
3.57667	447
3.58033	444
3.58400	443
3.58767	442
3.59133	442
3.59500	441
3.59867	440
3.60233	438
3.60600	435
3.60967	433
3.61333	433
3.61700	431
3.62067	429
3.62433	426
3.62800	424
3.63167	424
3.63533	422
3.63900	419
3.64267	418
3.64633	418
3.65000	416
3.65367	414
3.65733	411
3.66100	409
3.66467	409
3.66833	407
3.67200	405
3.67567	404
3.67933	403
3.68300	402
3.68667	403
3.69033	400
3.69400	396
3.69767	396
3.70133	397
3.70500	400
3.70867	402
3.71233	402
3.71600	401
3.71967	398
3.72333	398
3.72700	398
3.73067	396
3.73433	394
3.73800	392
3.74167	390
3.74533	388
3.74900	385
3.75267	383
3.75633	382
3.76000	382
3.76367	382
3.76733	380
3.77100	380
3.77467	378
3.77833	376
3.78200	376
3.78567	376
3.78933	372
3.79300	368
3.79667	364
3.80033	361
3.80400	359
3.80767	357
3.81133	357
3.81500	356
3.81867	354
3.82233	353
3.82600	351
3.82967	349
3.83333	346
3.83700	344
3.84067	344
3.84433	346
3.84800	347
3.85167	347
3.85533	346
3.85900	345
3.86267	342
3.86633	338
3.87000	335
3.87367	332
3.87733	330
3.88100	327
3.88467	325
3.88833	327
3.89200	328
3.89567	327
3.89933	325
3.90300	320
3.90667	318
3.91033	313
3.91400	309
3.91767	306
3.92133	304
3.92500	303
3.92867	303
3.93233	302
3.93600	299
3.93967	299
3.94333	299
3.94700	297
3.95067	296
3.95433	295
3.95800	292
3.96167	291
3.96533	291
3.96900	292
3.97267	291
3.97633	287
3.98000	284
3.98367	282
3.98733	280
3.99100	276
3.99467	273
3.99833	270

[Status Trace (Column Oven Temperature)]
Interval(msec)	1000
# of Points	240
Start Time(min)	0.013
End Time(min)	3.997
Intensity Units	
Intensity Multiplier	1
R.Time (min)	Intensity
0.01318	35.06
0.02985	35.05
0.04652	35.04
0.06318	35.04
0.07985	35.03
0.09652	35.02
0.11318	35.03
0.12985	35.05
0.14652	35.05
0.16318	35.06
0.17985	35.06
0.19652	35.06
0.21318	35.06
0.22985	35.05
0.24652	35.05
0.26318	35.04
0.27985	35.03
0.29652	35.03
0.31318	35.03
0.32985	35.04
0.34652	35.03
0.36318	35.03
0.37985	35.03
0.39652	35.01
0.41318	35.00
0.42985	35.00
0.44652	35.00
0.46318	35.01
0.47985	35.02
0.49652	35.02
0.51318	35.03
0.52985	35.02
0.54652	35.02
0.56318	35.01
0.57985	35.00
0.59652	35.00
0.61318	35.00
0.62985	34.99
0.64652	34.99
0.66318	34.99
0.67985	35.00
0.69652	35.00
0.71318	35.01
0.72985	35.00
0.74652	34.99
0.76318	34.99
0.77985	34.99
0.79652	35.00
0.81318	35.01
0.82985	35.01
0.84652	35.01
0.86318	35.01
0.87985	35.02
0.89652	35.02
0.91318	35.02
0.92985	35.02
0.94652	35.02
0.96318	35.01
0.97985	35.01
0.99652	35.01
1.01318	35.01
1.02985	35.02
1.04652	35.03
1.06318	35.02
1.07985	35.02
1.09652	35.02
1.11318	35.01
1.12985	35.02
1.14652	35.03
1.16318	35.01
1.17985	35.01
1.19652	35.00
1.21318	35.00
1.22985	35.00
1.24652	35.01
1.26318	35.00
1.27985	35.01
1.29652	35.01
1.31318	35.01
1.32985	35.01
1.34652	35.01
1.36318	35.00
1.37985	35.01
1.39652	35.01
1.41318	35.02
1.42985	35.01
1.44652	35.01
1.46318	35.01
1.47985	35.00
1.49652	34.99
1.51318	34.98
1.52985	34.99
1.54652	35.00
1.56318	35.00
1.57985	35.00
1.59652	35.02
1.61318	35.10
1.62985	35.23
1.64652	35.44
1.66318	35.71
1.67985	36.05
1.69652	36.41
1.71318	36.76
1.72985	37.10
1.74652	37.42
1.76318	37.77
1.77985	38.10
1.79652	38.43
1.81318	38.76
1.82985	39.08
1.84652	39.42
1.86318	39.74
1.87985	40.06
1.89652	40.40
1.91318	40.72
1.92985	41.03
1.94652	41.35
1.96318	41.68
1.97985	42.00
1.99652	42.31
2.01318	42.65
2.02985	42.97
2.04652	43.28
2.06318	43.62
2.07985	43.94
2.09652	44.25
2.11318	44.59
2.12985	44.91
2.14652	45.24
2.16318	45.60
2.17985	45.92
2.19652	46.25
2.21318	46.58
2.22985	46.93
2.24652	47.26
2.26318	47.59
2.27985	47.90
2.29652	48.26
2.31318	48.61
2.32985	48.93
2.34652	49.22
2.36318	49.53
2.37985	49.71
2.39652	49.75
2.41318	49.73
2.42985	49.74
2.44652	49.75
2.46318	49.74
2.47985	49.77
2.49652	49.77
2.51318	49.81
2.52985	49.82
2.54652	49.79
2.56318	49.82
2.57985	49.83
2.59652	49.82
2.61318	49.83
2.62985	49.83
2.64652	49.84
2.66318	49.85
2.67985	49.84
2.69652	49.85
2.71318	49.86
2.72985	49.86
2.74652	49.86
2.76318	49.86
2.77985	49.85
2.79652	49.85
2.81318	49.86
2.82985	49.87
2.84652	49.87
2.86318	49.88
2.87985	49.88
2.89652	49.89
2.91318	49.91
2.92985	49.93
2.94652	49.95
2.96318	49.97
2.97985	49.99
2.99652	50.00
3.01318	50.02
3.02985	50.02
3.04652	50.02
3.06318	50.03
3.07985	50.05
3.09652	50.06
3.11318	50.07
3.12985	50.07
3.14652	50.08
3.16318	50.08
3.17985	50.08
3.19652	50.08
3.21318	50.08
3.22985	50.09
3.24652	50.09
3.26318	50.09
3.27985	50.08
3.29652	50.10
3.31318	50.11
3.32985	50.12
3.34652	50.11
3.36318	50.10
3.37985	50.09
3.39652	50.07
3.41318	50.04
3.42985	50.02
3.44652	50.01
3.46318	49.99
3.47985	50.00
3.49652	50.00
3.51318	50.00
3.52985	50.00
3.54652	50.01
3.56318	50.01
3.57985	50.03
3.59652	50.03
3.61318	50.02
3.62985	50.02
3.64652	50.02
3.66318	50.03
3.67985	50.04
3.69652	50.04
3.71318	50.05
3.72985	50.06
3.74652	50.05
3.76318	50.06
3.77985	50.06
3.79652	50.07
3.81318	50.06
3.82985	50.06
3.84652	50.06
3.86318	50.06
3.87985	50.06
3.89652	50.06
3.91318	50.06
3.92985	50.06
3.94652	50.06
3.96318	50.05
3.97985	50.05
3.99652	50.06

[Status Trace (Injection Unit Temperature)]
Interval(msec)	1000
# of Points	240
Start Time(min)	0.013
End Time(min)	3.997
Intensity Units	
Intensity Multiplier	1
R.Time (min)	Intensity
0.01318	99.97
0.02985	99.98
0.04652	99.98
0.06318	99.97
0.07985	99.98
0.09652	99.97
0.11318	99.98
0.12985	99.98
0.14652	99.98
0.16318	99.98
0.17985	99.98
0.19652	99.98
0.21318	99.98
0.22985	99.98
0.24652	99.98
0.26318	99.98
0.27985	99.98
0.29652	99.98
0.31318	99.98
0.32985	99.98
0.34652	99.98
0.36318	99.98
0.37985	99.98
0.39652	99.98
0.41318	99.98
0.42985	99.98
0.44652	99.98
0.46318	99.98
0.47985	99.98
0.49652	99.98
0.51318	99.98
0.52985	99.98
0.54652	99.98
0.56318	99.98
0.57985	99.99
0.59652	99.98
0.61318	99.98
0.62985	99.98
0.64652	99.98
0.66318	99.98
0.67985	99.99
0.69652	99.98
0.71318	99.98
0.72985	99.98
0.74652	99.98
0.76318	99.98
0.77985	99.98
0.79652	99.98
0.81318	99.99
0.82985	99.98
0.84652	99.98
0.86318	99.98
0.87985	99.99
0.89652	99.98
0.91318	99.99
0.92985	99.99
0.94652	99.98
0.96318	99.98
0.97985	99.98
0.99652	99.99
1.01318	99.98
1.02985	99.98
1.04652	99.99
1.06318	99.99
1.07985	99.99
1.09652	99.98
1.11318	99.98
1.12985	99.98
1.14652	99.98
1.16318	99.99
1.17985	99.98
1.19652	99.98
1.21318	99.99
1.22985	99.99
1.24652	99.99
1.26318	99.99
1.27985	99.99
1.29652	99.99
1.31318	99.99
1.32985	99.98
1.34652	99.99
1.36318	99.99
1.37985	99.99
1.39652	99.99
1.41318	99.99
1.42985	99.99
1.44652	99.99
1.46318	99.99
1.47985	99.99
1.49652	99.99
1.51318	99.99
1.52985	99.99
1.54652	99.99
1.56318	99.99
1.57985	99.99
1.59652	99.98
1.61318	99.99
1.62985	99.99
1.64652	99.99
1.66318	99.99
1.67985	99.99
1.69652	99.99
1.71318	99.99
1.72985	99.99
1.74652	99.99
1.76318	99.99
1.77985	99.99
1.79652	99.99
1.81318	99.99
1.82985	99.99
1.84652	99.99
1.86318	99.99
1.87985	99.99
1.89652	99.98
1.91318	99.98
1.92985	99.99
1.94652	99.99
1.96318	99.98
1.97985	99.98
1.99652	99.98
2.01318	99.98
2.02985	99.98
2.04652	99.98
2.06318	99.98
2.07985	99.98
2.09652	99.98
2.11318	99.98
2.12985	99.98
2.14652	99.98
2.16318	99.98
2.17985	99.98
2.19652	99.97
2.21318	99.97
2.22985	99.97
2.24652	99.97
2.26318	99.97
2.27985	99.97
2.29652	99.97
2.31318	99.97
2.32985	99.97
2.34652	99.97
2.36318	99.97
2.37985	99.96
2.39652	99.97
2.41318	99.97
2.42985	99.97
2.44652	99.97
2.46318	99.97
2.47985	99.96
2.49652	99.97
2.51318	99.97
2.52985	99.97
2.54652	99.97
2.56318	99.97
2.57985	99.97
2.59652	99.97
2.61318	99.97
2.62985	99.97
2.64652	99.98
2.66318	99.97
2.67985	99.98
2.69652	99.98
2.71318	99.98
2.72985	99.98
2.74652	99.98
2.76318	99.98
2.77985	99.98
2.79652	99.99
2.81318	99.99
2.82985	99.99
2.84652	99.99
2.86318	99.99
2.87985	100.00
2.89652	100.00
2.91318	100.00
2.92985	100.00
2.94652	100.00
2.96318	100.00
2.97985	100.01
2.99652	100.01
3.01318	100.01
3.02985	100.01
3.04652	100.01
3.06318	100.01
3.07985	100.01
3.09652	100.02
3.11318	100.02
3.12985	100.02
3.14652	100.01
3.16318	100.02
3.17985	100.02
3.19652	100.02
3.21318	100.02
3.22985	100.02
3.24652	100.02
3.26318	100.02
3.27985	100.03
3.29652	100.03
3.31318	100.03
3.32985	100.03
3.34652	100.03
3.36318	100.03
3.37985	100.04
3.39652	100.04
3.41318	100.04
3.42985	100.04
3.44652	100.04
3.46318	100.04
3.47985	100.04
3.49652	100.04
3.51318	100.04
3.52985	100.04
3.54652	100.04
3.56318	100.04
3.57985	100.04
3.59652	100.04
3.61318	100.04
3.62985	100.04
3.64652	100.04
3.66318	100.04
3.67985	100.04
3.69652	100.05
3.71318	100.05
3.72985	100.04
3.74652	100.05
3.76318	100.05
3.77985	100.05
3.79652	100.05
3.81318	100.05
3.82985	100.05
3.84652	100.05
3.86318	100.05
3.87985	100.05
3.89652	100.05
3.91318	100.05
3.92985	100.05
3.94652	100.05
3.96318	100.06
3.97985	100.06
3.99652	100.05

[Status Trace (Carrier Gas Pressure)]
Interval(msec)	1000
# of Points	240
Start Time(min)	0.013
End Time(min)	3.997
Intensity Units	
Intensity Multiplier	1
R.Time (min)	Intensity
0.01318	57.96
0.02985	55.20
0.04652	57.93
0.06318	59.80
0.07985	58.68
0.09652	57.98
0.11318	58.00
0.12985	58.01
0.14652	58.01
0.16318	58.01
0.17985	58.00
0.19652	58.00
0.21318	58.00
0.22985	58.00
0.24652	58.00
0.26318	58.00
0.27985	58.00
0.29652	58.00
0.31318	58.00
0.32985	58.00
0.34652	58.00
0.36318	58.00
0.37985	58.00
0.39652	58.00
0.41318	58.00
0.42985	58.00
0.44652	58.00
0.46318	58.00
0.47985	58.00
0.49652	58.00
0.51318	58.00
0.52985	58.00
0.54652	58.00
0.56318	58.00
0.57985	58.00
0.59652	58.00
0.61318	58.00
0.62985	58.00
0.64652	58.00
0.66318	58.00
0.67985	58.00
0.69652	58.00
0.71318	58.00
0.72985	58.00
0.74652	58.00
0.76318	58.00
0.77985	58.00
0.79652	58.00
0.81318	58.00
0.82985	58.00
0.84652	58.00
0.86318	58.00
0.87985	58.00
0.89652	58.00
0.91318	58.00
0.92985	58.00
0.94652	58.00
0.96318	58.00
0.97985	58.00
0.99652	58.00
1.01318	58.00
1.02985	58.00
1.04652	58.00
1.06318	58.00
1.07985	58.00
1.09652	58.00
1.11318	58.00
1.12985	58.00
1.14652	58.00
1.16318	58.00
1.17985	58.00
1.19652	58.00
1.21318	58.00
1.22985	58.00
1.24652	58.00
1.26318	58.00
1.27985	58.00
1.29652	58.00
1.31318	58.00
1.32985	58.00
1.34652	58.00
1.36318	58.00
1.37985	58.00
1.39652	58.00
1.41318	58.00
1.42985	58.00
1.44652	58.00
1.46318	58.00
1.47985	58.00
1.49652	58.00
1.51318	58.00
1.52985	58.00
1.54652	58.00
1.56318	58.00
1.57985	58.00
1.59652	58.00
1.61318	58.00
1.62985	58.00
1.64652	58.00
1.66318	58.00
1.67985	58.01
1.69652	58.00
1.71318	58.00
1.72985	58.00
1.74652	58.00
1.76318	58.00
1.77985	58.00
1.79652	58.00
1.81318	58.00
1.82985	58.00
1.84652	58.00
1.86318	58.00
1.87985	58.00
1.89652	58.00
1.91318	58.00
1.92985	58.00
1.94652	58.00
1.96318	58.00
1.97985	58.00
1.99652	58.00
2.01318	58.00
2.02985	58.00
2.04652	58.00
2.06318	58.00
2.07985	58.00
2.09652	58.00
2.11318	58.00
2.12985	58.00
2.14652	58.00
2.16318	58.00
2.17985	58.00
2.19652	58.00
2.21318	58.00
2.22985	58.00
2.24652	58.00
2.26318	58.00
2.27985	58.00
2.29652	58.00
2.31318	58.00
2.32985	58.00
2.34652	58.00
2.36318	58.00
2.37985	58.00
2.39652	57.99
2.41318	57.99
2.42985	58.00
2.44652	58.00
2.46318	58.00
2.47985	58.00
2.49652	58.00
2.51318	57.99
2.52985	57.99
2.54652	58.00
2.56318	58.00
2.57985	58.00
2.59652	58.00
2.61318	58.00
2.62985	58.00
2.64652	58.00
2.66318	58.00
2.67985	58.00
2.69652	58.00
2.71318	58.00
2.72985	58.00
2.74652	58.00
2.76318	58.00
2.77985	58.00
2.79652	58.00
2.81318	58.00
2.82985	58.00
2.84652	58.00
2.86318	58.00
2.87985	58.00
2.89652	58.00
2.91318	58.00
2.92985	58.00
2.94652	58.00
2.96318	58.00
2.97985	58.00
2.99652	58.00
3.01318	58.00
3.02985	58.00
3.04652	58.00
3.06318	58.00
3.07985	58.00
3.09652	58.00
3.11318	58.00
3.12985	58.00
3.14652	58.00
3.16318	58.00
3.17985	58.00
3.19652	58.00
3.21318	58.00
3.22985	58.00
3.24652	58.00
3.26318	58.00
3.27985	58.00
3.29652	58.00
3.31318	58.00
3.32985	58.00
3.34652	58.00
3.36318	58.00
3.37985	58.00
3.39652	58.00
3.41318	58.00
3.42985	58.00
3.44652	58.00
3.46318	58.00
3.47985	58.00
3.49652	58.00
3.51318	58.00
3.52985	58.00
3.54652	58.00
3.56318	58.00
3.57985	58.00
3.59652	58.00
3.61318	58.00
3.62985	58.00
3.64652	58.00
3.66318	58.00
3.67985	58.00
3.69652	58.00
3.71318	58.00
3.72985	58.00
3.74652	58.00
3.76318	58.00
3.77985	58.00
3.79652	58.00
3.81318	58.00
3.82985	58.00
3.84652	58.00
3.86318	58.00
3.87985	58.00
3.89652	58.00
3.91318	58.00
3.92985	58.00
3.94652	58.00
3.96318	58.00
3.97985	58.00
3.99652	58.00

[Status Trace (Carrier Gas Flow)]
Interval(msec)	1000
# of Points	240
Start Time(min)	0.013
End Time(min)	3.997
Intensity Units	
Intensity Multiplier	1
R.Time (min)	Intensity
0.01318	34.65
0.02985	34.53
0.04652	34.55
0.06318	34.52
0.07985	34.52
0.09652	34.53
0.11318	34.51
0.12985	34.52
0.14652	34.53
0.16318	34.51
0.17985	34.51
0.19652	34.52
0.21318	34.52
0.22985	34.52
0.24652	34.51
0.26318	34.52
0.27985	34.52
0.29652	34.51
0.31318	34.52
0.32985	34.52
0.34652	34.52
0.36318	34.52
0.37985	34.52
0.39652	34.52
0.41318	34.52
0.42985	34.52
0.44652	34.52
0.46318	34.52
0.47985	34.52
0.49652	34.51
0.51318	34.52
0.52985	34.52
0.54652	34.52
0.56318	34.52
0.57985	34.52
0.59652	34.52
0.61318	34.51
0.62985	34.52
0.64652	34.52
0.66318	34.52
0.67985	34.52
0.69652	34.52
0.71318	34.52
0.72985	34.52
0.74652	34.52
0.76318	34.52
0.77985	34.53
0.79652	34.52
0.81318	34.52
0.82985	34.52
0.84652	34.52
0.86318	34.51
0.87985	34.51
0.89652	34.52
0.91318	34.52
0.92985	34.52
0.94652	34.52
0.96318	34.52
0.97985	34.51
0.99652	34.52
1.01318	34.53
1.02985	34.52
1.04652	34.52
1.06318	34.52
1.07985	34.52
1.09652	34.51
1.11318	34.52
1.12985	34.52
1.14652	34.52
1.16318	34.52
1.17985	34.52
1.19652	34.52
1.21318	34.52
1.22985	34.52
1.24652	34.52
1.26318	34.52
1.27985	34.52
1.29652	34.52
1.31318	34.52
1.32985	34.52
1.34652	34.52
1.36318	34.52
1.37985	34.52
1.39652	34.52
1.41318	34.52
1.42985	34.52
1.44652	34.52
1.46318	34.52
1.47985	34.52
1.49652	34.52
1.51318	34.52
1.52985	34.52
1.54652	34.52
1.56318	34.52
1.57985	34.51
1.59652	34.52
1.61318	34.52
1.62985	34.52
1.64652	34.52
1.66318	34.52
1.67985	34.52
1.69652	34.52
1.71318	34.52
1.72985	34.52
1.74652	34.52
1.76318	34.52
1.77985	34.52
1.79652	34.52
1.81318	34.52
1.82985	34.52
1.84652	34.51
1.86318	34.52
1.87985	34.52
1.89652	34.52
1.91318	34.52
1.92985	34.52
1.94652	34.52
1.96318	34.52
1.97985	34.52
1.99652	34.52
2.01318	34.52
2.02985	34.52
2.04652	34.51
2.06318	34.51
2.07985	34.51
2.09652	34.52
2.11318	34.52
2.12985	34.52
2.14652	34.52
2.16318	34.52
2.17985	34.52
2.19652	34.52
2.21318	34.52
2.22985	34.51
2.24652	34.52
2.26318	34.51
2.27985	34.52
2.29652	34.52
2.31318	34.52
2.32985	34.51
2.34652	34.52
2.36318	34.53
2.37985	34.52
2.39652	34.52
2.41318	34.52
2.42985	34.52
2.44652	34.53
2.46318	34.52
2.47985	34.52
2.49652	34.52
2.51318	34.51
2.52985	34.52
2.54652	34.52
2.56318	34.52
2.57985	34.51
2.59652	34.52
2.61318	34.52
2.62985	34.52
2.64652	34.52
2.66318	34.52
2.67985	34.52
2.69652	34.52
2.71318	34.52
2.72985	34.52
2.74652	34.52
2.76318	34.52
2.77985	34.52
2.79652	34.52
2.81318	34.52
2.82985	34.52
2.84652	34.51
2.86318	34.52
2.87985	34.52
2.89652	34.52
2.91318	34.52
2.92985	34.52
2.94652	34.52
2.96318	34.52
2.97985	34.52
2.99652	34.52
3.01318	34.52
3.02985	34.52
3.04652	34.52
3.06318	34.52
3.07985	34.52
3.09652	34.51
3.11318	34.52
3.12985	34.52
3.14652	34.52
3.16318	34.52
3.17985	34.52
3.19652	34.52
3.21318	34.51
3.22985	34.52
3.24652	34.52
3.26318	34.52
3.27985	34.52
3.29652	34.52
3.31318	34.52
3.32985	34.52
3.34652	34.52
3.36318	34.52
3.37985	34.52
3.39652	34.52
3.41318	34.52
3.42985	34.52
3.44652	34.52
3.46318	34.52
3.47985	34.52
3.49652	34.52
3.51318	34.52
3.52985	34.51
3.54652	34.51
3.56318	34.52
3.57985	34.52
3.59652	34.52
3.61318	34.52
3.62985	34.52
3.64652	34.52
3.66318	34.52
3.67985	34.52
3.69652	34.52
3.71318	34.52
3.72985	34.51
3.74652	34.52
3.76318	34.52
3.77985	34.52
3.79652	34.52
3.81318	34.52
3.82985	34.52
3.84652	34.52
3.86318	34.52
3.87985	34.52
3.89652	34.52
3.91318	34.52
3.92985	34.52
3.94652	34.52
3.96318	34.52
3.97985	34.52
3.99652	34.52

[Status Trace (Column Flow)]
Interval(msec)	1000
# of Points	240
Start Time(min)	0.013
End Time(min)	3.997
Intensity Units	
Intensity Multiplier	1
R.Time (min)	Intensity
0.01318	5.49
0.02985	5.17
0.04652	5.49
0.06318	5.71
0.07985	5.57
0.09652	5.49
0.11318	5.49
0.12985	5.50
0.14652	5.49
0.16318	5.49
0.17985	5.49
0.19652	5.49
0.21318	5.49
0.22985	5.49
0.24652	5.49
0.26318	5.49
0.27985	5.49
0.29652	5.49
0.31318	5.49
0.32985	5.49
0.34652	5.49
0.36318	5.49
0.37985	5.49
0.39652	5.50
0.41318	5.50
0.42985	5.50
0.44652	5.50
0.46318	5.50
0.47985	5.49
0.49652	5.49
0.51318	5.49
0.52985	5.49
0.54652	5.50
0.56318	5.50
0.57985	5.50
0.59652	5.50
0.61318	5.50
0.62985	5.50
0.64652	5.50
0.66318	5.50
0.67985	5.50
0.69652	5.50
0.71318	5.50
0.72985	5.50
0.74652	5.50
0.76318	5.50
0.77985	5.50
0.79652	5.50
0.81318	5.50
0.82985	5.50
0.84652	5.50
0.86318	5.50
0.87985	5.50
0.89652	5.49
0.91318	5.50
0.92985	5.49
0.94652	5.50
0.96318	5.50
0.97985	5.50
0.99652	5.50
1.01318	5.50
1.02985	5.50
1.04652	5.49
1.06318	5.49
1.07985	5.49
1.09652	5.50
1.11318	5.50
1.12985	5.49
1.14652	5.50
1.16318	5.50
1.17985	5.50
1.19652	5.50
1.21318	5.50
1.22985	5.50
1.24652	5.50
1.26318	5.50
1.27985	5.50
1.29652	5.50
1.31318	5.50
1.32985	5.50
1.34652	5.50
1.36318	5.50
1.37985	5.49
1.39652	5.50
1.41318	5.49
1.42985	5.50
1.44652	5.50
1.46318	5.50
1.47985	5.50
1.49652	5.50
1.51318	5.50
1.52985	5.50
1.54652	5.50
1.56318	5.50
1.57985	5.50
1.59652	5.50
1.61318	5.49
1.62985	5.49
1.64652	5.48
1.66318	5.47
1.67985	5.46
1.69652	5.45
1.71318	5.44
1.72985	5.43
1.74652	5.42
1.76318	5.41
1.77985	5.40
1.79652	5.39
1.81318	5.38
1.82985	5.37
1.84652	5.36
1.86318	5.35
1.87985	5.34
1.89652	5.33
1.91318	5.32
1.92985	5.31
1.94652	5.30
1.96318	5.29
1.97985	5.28
1.99652	5.27
2.01318	5.26
2.02985	5.25
2.04652	5.24
2.06318	5.23
2.07985	5.23
2.09652	5.22
2.11318	5.21
2.12985	5.20
2.14652	5.19
2.16318	5.18
2.17985	5.17
2.19652	5.16
2.21318	5.15
2.22985	5.14
2.24652	5.13
2.26318	5.12
2.27985	5.11
2.29652	5.10
2.31318	5.09
2.32985	5.08
2.34652	5.08
2.36318	5.07
2.37985	5.06
2.39652	5.06
2.41318	5.06
2.42985	5.06
2.44652	5.06
2.46318	5.06
2.47985	5.06
2.49652	5.06
2.51318	5.06
2.52985	5.06
2.54652	5.06
2.56318	5.06
2.57985	5.06
2.59652	5.06
2.61318	5.06
2.62985	5.06
2.64652	5.06
2.66318	5.06
2.67985	5.06
2.69652	5.06
2.71318	5.06
2.72985	5.06
2.74652	5.06
2.76318	5.06
2.77985	5.06
2.79652	5.06
2.81318	5.06
2.82985	5.06
2.84652	5.06
2.86318	5.06
2.87985	5.06
2.89652	5.06
2.91318	5.06
2.92985	5.06
2.94652	5.06
2.96318	5.06
2.97985	5.05
2.99652	5.05
3.01318	5.05
3.02985	5.05
3.04652	5.05
3.06318	5.05
3.07985	5.05
3.09652	5.05
3.11318	5.05
3.12985	5.05
3.14652	5.05
3.16318	5.05
3.17985	5.05
3.19652	5.05
3.21318	5.05
3.22985	5.05
3.24652	5.05
3.26318	5.05
3.27985	5.05
3.29652	5.05
3.31318	5.05
3.32985	5.05
3.34652	5.05
3.36318	5.05
3.37985	5.05
3.39652	5.05
3.41318	5.05
3.42985	5.05
3.44652	5.05
3.46318	5.05
3.47985	5.05
3.49652	5.05
3.51318	5.05
3.52985	5.05
3.54652	5.05
3.56318	5.05
3.57985	5.05
3.59652	5.05
3.61318	5.05
3.62985	5.05
3.64652	5.05
3.66318	5.05
3.67985	5.05
3.69652	5.05
3.71318	5.05
3.72985	5.05
3.74652	5.05
3.76318	5.05
3.77985	5.05
3.79652	5.05
3.81318	5.05
3.82985	5.05
3.84652	5.05
3.86318	5.05
3.87985	5.05
3.89652	5.05
3.91318	5.05
3.92985	5.05
3.94652	5.05
3.96318	5.05
3.97985	5.05
3.99652	5.05

[Status Trace (Linear Velocity)]
Interval(msec)	1000
# of Points	240
Start Time(min)	0.013
End Time(min)	3.997
Intensity Units	
Intensity Multiplier	1
R.Time (min)	Intensity
0.01318	38.98
0.02985	37.17
0.04652	38.96
0.06318	40.19
0.07985	39.45
0.09652	39.00
0.11318	39.01
0.12985	39.01
0.14652	39.01
0.16318	39.01
0.17985	39.01
0.19652	39.01
0.21318	39.01
0.22985	39.01
0.24652	39.01
0.26318	39.01
0.27985	39.01
0.29652	39.01
0.31318	39.01
0.32985	39.01
0.34652	39.01
0.36318	39.01
0.37985	39.01
0.39652	39.01
0.41318	39.01
0.42985	39.01
0.44652	39.01
0.46318	39.01
0.47985	39.01
0.49652	39.01
0.51318	39.01
0.52985	39.01
0.54652	39.01
0.56318	39.01
0.57985	39.01
0.59652	39.01
0.61318	39.01
0.62985	39.01
0.64652	39.01
0.66318	39.01
0.67985	39.01
0.69652	39.01
0.71318	39.01
0.72985	39.01
0.74652	39.01
0.76318	39.01
0.77985	39.01
0.79652	39.01
0.81318	39.01
0.82985	39.01
0.84652	39.01
0.86318	39.01
0.87985	39.01
0.89652	39.01
0.91318	39.01
0.92985	39.01
0.94652	39.01
0.96318	39.01
0.97985	39.01
0.99652	39.01
1.01318	39.01
1.02985	39.01
1.04652	39.01
1.06318	39.01
1.07985	39.01
1.09652	39.01
1.11318	39.01
1.12985	39.01
1.14652	39.01
1.16318	39.01
1.17985	39.01
1.19652	39.01
1.21318	39.01
1.22985	39.01
1.24652	39.01
1.26318	39.01
1.27985	39.01
1.29652	39.01
1.31318	39.01
1.32985	39.01
1.34652	39.01
1.36318	39.01
1.37985	39.01
1.39652	39.01
1.41318	39.01
1.42985	39.01
1.44652	39.01
1.46318	39.01
1.47985	39.01
1.49652	39.01
1.51318	39.01
1.52985	39.01
1.54652	39.01
1.56318	39.01
1.57985	39.01
1.59652	39.01
1.61318	39.00
1.62985	38.99
1.64652	38.97
1.66318	38.95
1.67985	38.91
1.69652	38.88
1.71318	38.84
1.72985	38.81
1.74652	38.78
1.76318	38.75
1.77985	38.71
1.79652	38.68
1.81318	38.65
1.82985	38.62
1.84652	38.59
1.86318	38.56
1.87985	38.53
1.89652	38.50
1.91318	38.47
1.92985	38.44
1.94652	38.41
1.96318	38.38
1.97985	38.35
1.99652	38.32
2.01318	38.29
2.02985	38.26
2.04652	38.23
2.06318	38.20
2.07985	38.17
2.09652	38.14
2.11318	38.11
2.12985	38.08
2.14652	38.05
2.16318	38.02
2.17985	37.99
2.19652	37.96
2.21318	37.93
2.22985	37.90
2.24652	37.87
2.26318	37.84
2.27985	37.81
2.29652	37.78
2.31318	37.75
2.32985	37.72
2.34652	37.70
2.36318	37.67
2.37985	37.65
2.39652	37.64
2.41318	37.65
2.42985	37.65
2.44652	37.65
2.46318	37.65
2.47985	37.65
2.49652	37.65
2.51318	37.64
2.52985	37.63
2.54652	37.64
2.56318	37.64
2.57985	37.64
2.59652	37.64
2.61318	37.64
2.62985	37.64
2.64652	37.64
2.66318	37.64
2.67985	37.64
2.69652	37.64
2.71318	37.64
2.72985	37.64
2.74652	37.64
2.76318	37.64
2.77985	37.64
2.79652	37.64
2.81318	37.64
2.82985	37.64
2.84652	37.64
2.86318	37.64
2.87985	37.64
2.89652	37.64
2.91318	37.64
2.92985	37.63
2.94652	37.63
2.96318	37.63
2.97985	37.63
2.99652	37.63
3.01318	37.63
3.02985	37.63
3.04652	37.62
3.06318	37.62
3.07985	37.62
3.09652	37.62
3.11318	37.62
3.12985	37.62
3.14652	37.62
3.16318	37.62
3.17985	37.62
3.19652	37.62
3.21318	37.62
3.22985	37.62
3.24652	37.62
3.26318	37.62
3.27985	37.62
3.29652	37.62
3.31318	37.62
3.32985	37.62
3.34652	37.62
3.36318	37.62
3.37985	37.62
3.39652	37.62
3.41318	37.62
3.42985	37.62
3.44652	37.63
3.46318	37.63
3.47985	37.63
3.49652	37.63
3.51318	37.63
3.52985	37.63
3.54652	37.63
3.56318	37.63
3.57985	37.62
3.59652	37.62
3.61318	37.62
3.62985	37.62
3.64652	37.62
3.66318	37.62
3.67985	37.62
3.69652	37.62
3.71318	37.62
3.72985	37.62
3.74652	37.62
3.76318	37.62
3.77985	37.62
3.79652	37.62
3.81318	37.62
3.82985	37.62
3.84652	37.62
3.86318	37.62
3.87985	37.62
3.89652	37.62
3.91318	37.62
3.92985	37.62
3.94652	37.62
3.96318	37.62
3.97985	37.62
3.99652	37.62

