[Header]
Application Name	LabSolutions
Version	5.110
Data File Name	C:\Users\User\Desktop\Junior\UIC Prairie Sampling\6.2.23\06022023_092.gcd
Output Date	6/12/2023
Output Time	11:47:15 AM

[File Information]
Type	Data File
Generated	6/6/2023 8:07:48 PM
Generated by	System Administrator
Modified	6/6/2023 8:15:06 PM
Modified by	System Administrator

[Sample Information]
Operator Name	System Administrator
Acquired	6/6/2023 8:11:05 PM
Sample Type	0:Unknown
Level	0
Sample Name	092
Sample ID	092
ISTD Amount1	1
ISTD Amount2	1
ISTD Amount3	1
ISTD Amount4	1
ISTD Amount5	1
ISTD Amount6	1
ISTD Amount7	1
ISTD Amount8	1
ISTD Amount9	1
ISTD Amount10	1
ISTD Amount11	1
ISTD Amount12	1
ISTD Amount13	1
ISTD Amount14	1
ISTD Amount15	1
ISTD Amount16	1
ISTD Amount17	1
ISTD Amount18	1
ISTD Amount19	1
ISTD Amount20	1
ISTD Amount21	1
ISTD Amount22	1
ISTD Amount23	1
ISTD Amount24	1
ISTD Amount25	1
ISTD Amount26	1
ISTD Amount27	1
ISTD Amount28	1
ISTD Amount29	1
ISTD Amount30	1
ISTD Amount31	1
ISTD Amount32	1
Sample Amount	1
Dilution Factor	1
Vial#	91
Injection Volume	1
Injection Count	1
Bar Code	

[Original Files]
Data File	C:\Users\User\Desktop\Junior\UIC Prairie Sampling\6.2.23\06022023_092.gcd
Method File	C:\LabSolutions\Data\GHG_4min_2022\ghg3_togas_w_acet_4 min_new_int.gcm
Batch File	C:\LabSolutions\Data\AutoSamplerTesting\06022023.gcb
Report Format File	c:\LabSolutions\System\DEFAULT.lsr

[File Description]


[Configuration]
Instrument Name	C0B7VH3-Instrument1
Instrument #	1
Line #	1
# of Detectors	3
Detector ID	DET#1	DET#2	DET#3
Detector Name	FID	PTCD	ECD
# of Channels	1	1	1

[Peak Table(Ch1)]
# of Peaks	3
Peak#	R.Time	I.Time	F.Time	Area	Height	A/H	Conc.	Mark	ID#	Name	k'	Plate #	Plate Ht.	Tailing	Resolution	Sep.Factor	Area Ratio	Height Ratio	Conc. %	Norm Conc.
1	1.472	1.428	1.527	4669	2303	2.028	0.000	   	1	CO	0.000	9793	15.318	1.134	0.000	0.000	0	0	0.000	0.000
2	1.560	1.527	1.615	4547	2372	1.917	22.170	 V 	2	CH4	0.060	11950	12.553	1.229	1.510	0.000	0	0	4.312	4.312
3	1.989	1.941	2.499	2552618	1231374	2.073	491.936	   	3	CO2	0.351	17602	8.522	1.225	7.330	5.875	0	0	95.688	95.688

[Peak Table(Ch2)]
# of Peaks	0

[Peak Table(Ch3)]
# of Peaks	4
Peak#	R.Time	I.Time	F.Time	Area	Height	A/H	Conc.	Mark	ID#	Name	k'	Plate #	Plate Ht.	Tailing	Resolution	Sep.Factor	Area Ratio	Height Ratio	Conc. %	Norm Conc.
1	2.462	2.440	2.502	789	323	2.443	0.000	   			0.000	16161	9.282	0.000	0.000	0.000	0	0	0.000	0.000
2	2.587	2.502	2.667	5844	773	7.562	0.000	 V 			0.051	1485	100.988	0.000	0.721	0.000	0	0	0.000	0.000
3	2.726	2.667	2.829	5187	594	8.733	0.000	 V 			0.107	91	1651.526	0.000	0.197	2.118	0	0	0.000	0.000
4	2.887	2.829	3.672	32734	5220	6.271	0.484	 V 	1	N2O	0.173	11596	12.935	0.000	0.258	1.611	0	0	100.000	100.000

[Compound Results(Ch1)]
# of IDs	6
ID#	Name	R.Time	Area	Height	Conc.	Curve	3rd	2nd	1st	Constant	Area Ratio	Height Ratio	Conc. %	Norm Conc.
1	CO	1.472	4669	2303	0.000	Linear	0.000000e+00	0.000000e+00	0.000000e+00	0.000000e+00	0	0	0.000	0.000
2	CH4	1.560	4547	2372	22.170	Linear	0.000000e+00	0.000000e+00	2.051179e+002	0.000000e+00	0	0	4.312	4.312
3	CO2	1.989	2552618	1231374	491.936	Linear	0.000000e+00	0.000000e+00	5.188919e+003	0.000000e+00	0	0	95.688	95.688
4	Ethylene	0.000	0	0	0.000	Linear	0.000000e+00	0.000000e+00	0.000000e+00	0.000000e+00	0	0	0.000	0.000
5	Acetylene	0.000	0	0	0.000	Linear	0.000000e+00	0.000000e+00	0.000000e+00	0.000000e+00	0	0	0.000	0.000
6	Ethane	0.000	0	0	0.000	Linear	0.000000e+00	0.000000e+00	0.000000e+00	0.000000e+00	0	0	0.000	0.000

[Compound Results(Ch2)]
# of IDs	5
ID#	Name	R.Time	Area	Height	Conc.	Curve	3rd	2nd	1st	Constant	Area Ratio	Height Ratio	Conc. %	Norm Conc.
1	Hydrogen	0.000	0	0	0.000	Linear	0.000000e+00	0.000000e+00	0.000000e+00	0.000000e+00	0	0	0.000	0.000
2	Oxygen	0.000	0	0	0.000	Linear	0.000000e+00	0.000000e+00	0.000000e+00	0.000000e+00	0	0	0.000	0.000
3	Nitrogen	0.000	0	0	0.000	Linear	0.000000e+00	0.000000e+00	0.000000e+00	0.000000e+00	0	0	0.000	0.000
4	Methane	0.000	0	0	0.000	Linear	0.000000e+00	0.000000e+00	0.000000e+00	0.000000e+00	0	0	0.000	0.000
5	Carbon Monoxide	0.000	0	0	0.000	Linear	0.000000e+00	0.000000e+00	0.000000e+00	0.000000e+00	0	0	0.000	0.000

[Compound Results(Ch3)]
# of IDs	2
ID#	Name	R.Time	Area	Height	Conc.	Curve	3rd	2nd	1st	Constant	Area Ratio	Height Ratio	Conc. %	Norm Conc.
1	N2O	2.887	32734	5220	0.484	Linear	0.000000e+00	0.000000e+00	6.759880e+004	0.000000e+00	0	0	100.000	100.000
2	SF6	0.000	0	0	0.000	Linear	0.000000e+00	0.000000e+00	0.000000e+00	0.000000e+00	0	0	0.000	0.000

[Group Results(Ch1)]
# of Groups	0

[Group Results(Ch2)]
# of Groups	0

[Group Results(Ch3)]
# of Groups	0

[Chromatogram (Ch1)]
Interval(msec)	220
# of Points	1091
Start Time(min)	0.002
End Time(min)	3.998
R.Time (min)	Intensity
0.00167	15
0.00533	22
0.00900	31
0.01267	38
0.01633	45
0.02000	49
0.02367	46
0.02733	40
0.03100	35
0.03467	27
0.03833	19
0.04200	12
0.04567	10
0.04933	13
0.05300	19
0.05667	25
0.06033	28
0.06400	28
0.06767	25
0.07133	20
0.07500	12
0.07867	4
0.08233	-1
0.08600	-2
0.08967	-1
0.09333	3
0.09700	9
0.10067	12
0.10433	13
0.10800	16
0.11167	19
0.11533	19
0.11900	18
0.12267	17
0.12633	17
0.13000	16
0.13367	17
0.13733	14
0.14100	7
0.14467	-2
0.14833	-10
0.15200	-16
0.15567	-18
0.15933	-16
0.16300	-11
0.16667	-3
0.17033	5
0.17400	10
0.17767	13
0.18133	14
0.18500	15
0.18867	17
0.19233	20
0.19600	24
0.19967	29
0.20333	34
0.20700	41
0.21067	46
0.21433	49
0.21800	48
0.22167	42
0.22533	34
0.22900	28
0.23267	19
0.23633	9
0.24000	-1
0.24367	-6
0.24733	-6
0.25100	-2
0.25467	1
0.25833	0
0.26200	-4
0.26567	-4
0.26933	2
0.27300	12
0.27667	21
0.28033	22
0.28400	19
0.28767	19
0.29133	21
0.29500	20
0.29867	10
0.30233	-7
0.30600	-22
0.30967	-29
0.31333	-25
0.31700	-18
0.32067	-11
0.32433	-6
0.32800	-6
0.33167	-7
0.33533	-7
0.33900	-7
0.34267	-10
0.34633	-14
0.35000	-15
0.35367	-14
0.35733	-12
0.36100	-12
0.36467	-15
0.36833	-19
0.37200	-22
0.37567	-23
0.37933	-24
0.38300	-24
0.38667	-21
0.39033	-18
0.39400	-16
0.39767	-13
0.40133	-9
0.40500	-5
0.40867	-0
0.41233	2
0.41600	4
0.41967	7
0.42333	10
0.42700	7
0.43067	5
0.43433	5
0.43800	7
0.44167	9
0.44533	9
0.44900	5
0.45267	1
0.45633	-1
0.46000	-2
0.46367	-5
0.46733	-9
0.47100	-9
0.47467	-5
0.47833	-4
0.48200	-3
0.48567	-1
0.48933	-1
0.49300	1
0.49667	4
0.50033	6
0.50400	8
0.50767	15
0.51133	21
0.51500	22
0.51867	20
0.52233	16
0.52600	14
0.52967	10
0.53333	7
0.53700	3
0.54067	-2
0.54433	-4
0.54800	-3
0.55167	-2
0.55533	-2
0.55900	-4
0.56267	-4
0.56633	-1
0.57000	5
0.57367	13
0.57733	16
0.58100	14
0.58467	11
0.58833	7
0.59200	1
0.59567	-9
0.59933	-21
0.60300	-26
0.60667	-22
0.61033	-18
0.61400	-15
0.61767	-12
0.62133	-8
0.62500	-5
0.62867	-4
0.63233	-10
0.63600	-18
0.63967	-25
0.64333	-27
0.64700	-23
0.65067	-18
0.65433	-14
0.65800	-12
0.66167	-10
0.66533	-6
0.66900	-1
0.67267	3
0.67633	2
0.68000	-1
0.68367	-4
0.68733	-8
0.69100	-13
0.69467	-15
0.69833	-15
0.70200	-15
0.70567	-14
0.70933	-15
0.71300	-14
0.71667	-9
0.72033	-3
0.72400	3
0.72767	6
0.73133	6
0.73500	4
0.73867	4
0.74233	4
0.74600	2
0.74967	-4
0.75333	-9
0.75700	-14
0.76067	-16
0.76433	-13
0.76800	-10
0.77167	-11
0.77533	-13
0.77900	-13
0.78267	-14
0.78633	-14
0.79000	-10
0.79367	-6
0.79733	-5
0.80100	-4
0.80467	-4
0.80833	-3
0.81200	1
0.81567	7
0.81933	7
0.82300	5
0.82667	-2
0.83033	-9
0.83400	-14
0.83767	-17
0.84133	-21
0.84500	-24
0.84867	-28
0.85233	-26
0.85600	-19
0.85967	-8
0.86333	-1
0.86700	2
0.87067	-3
0.87433	-11
0.87800	-18
0.88167	-23
0.88533	-26
0.88900	-26
0.89267	-25
0.89633	-23
0.90000	-25
0.90367	-26
0.90733	-24
0.91100	-18
0.91467	-12
0.91833	-8
0.92200	-4
0.92567	-2
0.92933	0
0.93300	4
0.93667	7
0.94033	5
0.94400	-1
0.94767	-7
0.95133	-12
0.95500	-12
0.95867	-8
0.96233	-5
0.96600	-5
0.96967	-9
0.97333	-15
0.97700	-18
0.98067	-18
0.98433	-18
0.98800	-18
0.99167	-19
0.99533	-20
0.99900	-17
1.00267	-11
1.00633	-8
1.01000	-8
1.01367	-11
1.01733	-15
1.02100	-20
1.02467	-26
1.02833	-27
1.03200	-23
1.03567	-18
1.03933	-16
1.04300	-19
1.04667	-25
1.05033	-31
1.05400	-38
1.05767	-44
1.06133	-48
1.06500	-52
1.06867	-57
1.07233	-59
1.07600	-56
1.07967	-49
1.08333	-40
1.08700	-36
1.09067	-34
1.09433	-32
1.09800	-31
1.10167	-29
1.10533	-27
1.10900	-28
1.11267	-30
1.11633	-32
1.12000	-31
1.12367	-31
1.12733	-33
1.13100	-33
1.13467	-33
1.13833	-33
1.14200	-34
1.14567	-34
1.14933	-31
1.15300	-26
1.15667	-24
1.16033	-24
1.16400	-25
1.16767	-25
1.17133	-25
1.17500	-25
1.17867	-24
1.18233	-24
1.18600	-23
1.18967	-20
1.19333	-19
1.19700	-20
1.20067	-23
1.20433	-25
1.20800	-26
1.21167	-27
1.21533	-26
1.21900	-29
1.22267	-32
1.22633	-39
1.23000	-47
1.23367	-54
1.23733	-56
1.24100	-55
1.24467	-50
1.24833	-43
1.25200	-38
1.25567	-38
1.25933	-39
1.26300	-39
1.26667	-40
1.27033	-39
1.27400	-40
1.27767	-40
1.28133	-40
1.28500	-38
1.28867	-33
1.29233	-27
1.29600	-26
1.29967	-30
1.30333	-36
1.30700	-42
1.31067	-45
1.31433	-48
1.31800	-49
1.32167	-47
1.32533	-44
1.32900	-37
1.33267	-32
1.33633	-32
1.34000	-34
1.34367	-37
1.34733	-38
1.35100	-38
1.35467	-39
1.35833	-43
1.36200	-48
1.36567	-50
1.36933	-51
1.37300	-52
1.37667	-51
1.38033	-48
1.38400	-41
1.38767	-35
1.39133	-29
1.39500	-27
1.39867	-28
1.40233	-32
1.40600	-36
1.40967	-42
1.41333	-47
1.41700	-51
1.42067	-52
1.42433	-50
1.42800	-42
1.43167	-30
1.43533	-9
1.43900	30
1.44267	80
1.44633	203
1.45000	484
1.45367	901
1.45733	1347
1.46100	1739
1.46467	2041
1.46833	2225
1.47200	2257
1.47567	2115
1.47933	1830
1.48300	1470
1.48667	1108
1.49033	794
1.49400	546
1.49767	362
1.50133	231
1.50500	141
1.50867	80
1.51233	43
1.51600	19
1.51967	5
1.52333	-8
1.52700	-16
1.53067	-13
1.53433	36
1.53800	201
1.54167	527
1.54533	976
1.54900	1449
1.55267	1858
1.55633	2157
1.56000	2319
1.56367	2309
1.56733	2110
1.57100	1767
1.57467	1362
1.57833	975
1.58200	651
1.58567	407
1.58933	238
1.59300	128
1.59667	58
1.60033	13
1.60400	-15
1.60767	-34
1.61133	-48
1.61500	-56
1.61867	-59
1.62233	-61
1.62600	-64
1.62967	-68
1.63333	-72
1.63700	-71
1.64067	-65
1.64433	-55
1.64800	-46
1.65167	-42
1.65533	-48
1.65900	-61
1.66267	-76
1.66633	-91
1.67000	-102
1.67367	-109
1.67733	-112
1.68100	-109
1.68467	-104
1.68833	-102
1.69200	-98
1.69567	-89
1.69933	-74
1.70300	-63
1.70667	-60
1.71033	-63
1.71400	-70
1.71767	-79
1.72133	-85
1.72500	-86
1.72867	-87
1.73233	-87
1.73600	-86
1.73967	-85
1.74333	-86
1.74700	-89
1.75067	-88
1.75433	-82
1.75800	-75
1.76167	-71
1.76533	-71
1.76900	-72
1.77267	-74
1.77633	-75
1.78000	-75
1.78367	-73
1.78733	-68
1.79100	-63
1.79467	-62
1.79833	-67
1.80200	-72
1.80567	-75
1.80933	-77
1.81300	-78
1.81667	-78
1.82033	-77
1.82400	-77
1.82767	-78
1.83133	-79
1.83500	-77
1.83867	-72
1.84233	-68
1.84600	-68
1.84967	-72
1.85333	-76
1.85700	-75
1.86067	-70
1.86433	-68
1.86800	-70
1.87167	-76
1.87533	-81
1.87900	-85
1.88267	-86
1.88633	-86
1.89000	-84
1.89367	-79
1.89733	-75
1.90100	-74
1.90467	-74
1.90833	-73
1.91200	-72
1.91567	-70
1.91933	-67
1.92300	-63
1.92667	-59
1.93033	-56
1.93400	-56
1.93767	-57
1.94133	-53
1.94500	-9
1.94867	295
1.95233	2077
1.95600	9994
1.95967	36459
1.96333	103913
1.96700	235315
1.97067	433476
1.97433	671132
1.97800	904286
1.98167	1092018
1.98533	1205678
1.98900	1231360
1.99267	1170017
1.99633	1038385
2.00000	865019
2.00367	681248
2.00733	511998
2.01100	371212
2.01467	262565
2.01833	183121
2.02200	127164
2.02567	88708
2.02933	62661
2.03300	45133
2.03667	33324
2.04033	25305
2.04400	19788
2.04767	15923
2.05133	13159
2.05500	11133
2.05867	9607
2.06233	8425
2.06600	7487
2.06967	6732
2.07333	6114
2.07700	5594
2.08067	5151
2.08433	4769
2.08800	4438
2.09167	4154
2.09533	3905
2.09900	3679
2.10267	3471
2.10633	3279
2.11000	3102
2.11367	2941
2.11733	2796
2.12100	2660
2.12467	2536
2.12833	2422
2.13200	2319
2.13567	2224
2.13933	2135
2.14300	2053
2.14667	1978
2.15033	1906
2.15400	1833
2.15767	1761
2.16133	1695
2.16500	1631
2.16867	1571
2.17233	1514
2.17600	1462
2.17967	1415
2.18333	1372
2.18700	1333
2.19067	1300
2.19433	1271
2.19800	1240
2.20167	1208
2.20533	1178
2.20900	1152
2.21267	1124
2.21633	1098
2.22000	1074
2.22367	1054
2.22733	1035
2.23100	1013
2.23467	985
2.23833	957
2.24200	931
2.24567	906
2.24933	884
2.25300	868
2.25667	858
2.26033	848
2.26400	835
2.26767	819
2.27133	800
2.27500	784
2.27867	767
2.28233	753
2.28600	741
2.28967	728
2.29333	714
2.29700	701
2.30067	690
2.30433	681
2.30800	669
2.31167	654
2.31533	640
2.31900	629
2.32267	619
2.32633	616
2.33000	615
2.33367	610
2.33733	602
2.34100	594
2.34467	584
2.34833	572
2.35200	562
2.35567	553
2.35933	541
2.36300	529
2.36667	519
2.37033	513
2.37400	510
2.37767	509
2.38133	506
2.38500	501
2.38867	496
2.39233	490
2.39600	482
2.39967	476
2.40333	471
2.40700	469
2.41067	467
2.41433	465
2.41800	464
2.42167	462
2.42533	459
2.42900	451
2.43267	444
2.43633	437
2.44000	429
2.44367	423
2.44733	420
2.45100	415
2.45467	410
2.45833	405
2.46200	398
2.46567	390
2.46933	385
2.47300	383
2.47667	387
2.48033	395
2.48400	404
2.48767	408
2.49133	407
2.49500	403
2.49867	399
2.50233	394
2.50600	387
2.50967	381
2.51333	379
2.51700	378
2.52067	377
2.52433	375
2.52800	373
2.53167	369
2.53533	366
2.53900	364
2.54267	360
2.54633	355
2.55000	347
2.55367	340
2.55733	337
2.56100	338
2.56467	340
2.56833	340
2.57200	341
2.57567	343
2.57933	343
2.58300	344
2.58667	348
2.59033	348
2.59400	341
2.59767	334
2.60133	329
2.60500	324
2.60867	322
2.61233	324
2.61600	324
2.61967	320
2.62333	319
2.62700	318
2.63067	321
2.63433	324
2.63800	324
2.64167	323
2.64533	320
2.64900	317
2.65267	315
2.65633	313
2.66000	315
2.66367	316
2.66733	318
2.67100	320
2.67467	323
2.67833	327
2.68200	328
2.68567	324
2.68933	315
2.69300	305
2.69667	302
2.70033	305
2.70400	311
2.70767	315
2.71133	321
2.71500	331
2.71867	340
2.72233	346
2.72600	349
2.72967	349
2.73333	346
2.73700	340
2.74067	335
2.74433	334
2.74800	331
2.75167	323
2.75533	312
2.75900	302
2.76267	294
2.76633	289
2.77000	287
2.77367	285
2.77733	283
2.78100	281
2.78467	284
2.78833	290
2.79200	294
2.79567	295
2.79933	293
2.80300	291
2.80667	288
2.81033	286
2.81400	287
2.81767	289
2.82133	295
2.82500	299
2.82867	304
2.83233	309
2.83600	311
2.83967	314
2.84333	319
2.84700	328
2.85067	337
2.85433	344
2.85800	346
2.86167	347
2.86533	343
2.86900	338
2.87267	333
2.87633	328
2.88000	323
2.88367	317
2.88733	312
2.89100	306
2.89467	302
2.89833	300
2.90200	301
2.90567	304
2.90933	307
2.91300	310
2.91667	311
2.92033	310
2.92400	311
2.92767	314
2.93133	316
2.93500	317
2.93867	318
2.94233	319
2.94600	321
2.94967	324
2.95333	329
2.95700	332
2.96067	333
2.96433	332
2.96800	327
2.97167	322
2.97533	319
2.97900	318
2.98267	319
2.98633	322
2.99000	331
2.99367	341
2.99733	350
3.00100	356
3.00467	360
3.00833	359
3.01200	353
3.01567	348
3.01933	345
3.02300	342
3.02667	340
3.03033	339
3.03400	339
3.03767	340
3.04133	341
3.04500	344
3.04867	344
3.05233	339
3.05600	330
3.05967	325
3.06333	324
3.06700	321
3.07067	315
3.07433	309
3.07800	304
3.08167	303
3.08533	303
3.08900	303
3.09267	307
3.09633	316
3.10000	327
3.10367	334
3.10733	339
3.11100	346
3.11467	356
3.11833	363
3.12200	367
3.12567	365
3.12933	363
3.13300	362
3.13667	360
3.14033	356
3.14400	350
3.14767	342
3.15133	335
3.15500	328
3.15867	324
3.16233	323
3.16600	323
3.16967	324
3.17333	329
3.17700	334
3.18067	339
3.18433	347
3.18800	358
3.19167	366
3.19533	367
3.19900	361
3.20267	354
3.20633	347
3.21000	341
3.21367	337
3.21733	335
3.22100	336
3.22467	337
3.22833	339
3.23200	339
3.23567	341
3.23933	342
3.24300	341
3.24667	341
3.25033	341
3.25400	341
3.25767	341
3.26133	342
3.26500	346
3.26867	350
3.27233	353
3.27600	353
3.27967	354
3.28333	353
3.28700	353
3.29067	352
3.29433	349
3.29800	341
3.30167	333
3.30533	328
3.30900	327
3.31267	327
3.31633	325
3.32000	326
3.32367	328
3.32733	332
3.33100	337
3.33467	340
3.33833	339
3.34200	335
3.34567	331
3.34933	328
3.35300	326
3.35667	326
3.36033	327
3.36400	328
3.36767	327
3.37133	329
3.37500	331
3.37867	332
3.38233	333
3.38600	337
3.38967	340
3.39333	341
3.39700	338
3.40067	335
3.40433	332
3.40800	333
3.41167	336
3.41533	338
3.41900	339
3.42267	339
3.42633	337
3.43000	335
3.43367	333
3.43733	334
3.44100	338
3.44467	344
3.44833	349
3.45200	349
3.45567	341
3.45933	331
3.46300	322
3.46667	314
3.47033	308
3.47400	309
3.47767	312
3.48133	316
3.48500	321
3.48867	330
3.49233	338
3.49600	341
3.49967	338
3.50333	332
3.50700	329
3.51067	326
3.51433	321
3.51800	313
3.52167	307
3.52533	303
3.52900	296
3.53267	294
3.53633	297
3.54000	301
3.54367	305
3.54733	311
3.55100	318
3.55467	325
3.55833	332
3.56200	335
3.56567	332
3.56933	325
3.57300	317
3.57667	312
3.58033	310
3.58400	305
3.58767	298
3.59133	293
3.59500	291
3.59867	293
3.60233	296
3.60600	302
3.60967	307
3.61333	308
3.61700	304
3.62067	300
3.62433	302
3.62800	304
3.63167	304
3.63533	304
3.63900	304
3.64267	300
3.64633	294
3.65000	289
3.65367	287
3.65733	291
3.66100	298
3.66467	305
3.66833	310
3.67200	312
3.67567	313
3.67933	314
3.68300	314
3.68667	312
3.69033	309
3.69400	306
3.69767	303
3.70133	297
3.70500	289
3.70867	283
3.71233	281
3.71600	282
3.71967	284
3.72333	287
3.72700	287
3.73067	287
3.73433	289
3.73800	293
3.74167	295
3.74533	296
3.74900	296
3.75267	292
3.75633	286
3.76000	282
3.76367	281
3.76733	279
3.77100	278
3.77467	278
3.77833	280
3.78200	285
3.78567	289
3.78933	291
3.79300	289
3.79667	285
3.80033	283
3.80400	285
3.80767	286
3.81133	289
3.81500	294
3.81867	299
3.82233	300
3.82600	300
3.82967	300
3.83333	295
3.83700	286
3.84067	278
3.84433	273
3.84800	271
3.85167	272
3.85533	272
3.85900	272
3.86267	268
3.86633	264
3.87000	261
3.87367	260
3.87733	259
3.88100	260
3.88467	264
3.88833	271
3.89200	277
3.89567	281
3.89933	283
3.90300	283
3.90667	281
3.91033	277
3.91400	273
3.91767	269
3.92133	263
3.92500	258
3.92867	258
3.93233	263
3.93600	269
3.93967	273
3.94333	273
3.94700	271
3.95067	267
3.95433	265
3.95800	266
3.96167	268
3.96533	271
3.96900	275
3.97267	279
3.97633	280
3.98000	278
3.98367	275
3.98733	271
3.99100	268
3.99467	267
3.99833	267

[Chromatogram (Ch2)]
Interval(msec)	220
# of Points	1091
Start Time(min)	0.002
End Time(min)	3.998
R.Time (min)	Intensity
0.00167	-0
0.00533	-0
0.00900	-0
0.01267	-0
0.01633	-0
0.02000	-0
0.02367	-0
0.02733	-0
0.03100	-1
0.03467	-1
0.03833	-1
0.04200	-1
0.04567	-1
0.04933	-1
0.05300	-1
0.05667	-1
0.06033	-1
0.06400	-1
0.06767	-1
0.07133	-1
0.07500	-1
0.07867	-1
0.08233	-0
0.08600	-0
0.08967	0
0.09333	0
0.09700	1
0.10067	1
0.10433	1
0.10800	1
0.11167	1
0.11533	1
0.11900	1
0.12267	1
0.12633	1
0.13000	1
0.13367	1
0.13733	1
0.14100	1
0.14467	1
0.14833	1
0.15200	1
0.15567	1
0.15933	1
0.16300	1
0.16667	1
0.17033	1
0.17400	1
0.17767	1
0.18133	1
0.18500	1
0.18867	1
0.19233	1
0.19600	1
0.19967	1
0.20333	1
0.20700	0
0.21067	0
0.21433	-0
0.21800	-1
0.22167	-1
0.22533	-1
0.22900	-0
0.23267	-0
0.23633	-0
0.24000	-0
0.24367	-1
0.24733	-1
0.25100	-1
0.25467	-1
0.25833	-1
0.26200	-1
0.26567	-1
0.26933	-2
0.27300	-2
0.27667	-2
0.28033	-2
0.28400	-1
0.28767	-1
0.29133	-1
0.29500	-1
0.29867	-1
0.30233	-1
0.30600	-1
0.30967	-1
0.31333	-1
0.31700	-1
0.32067	-1
0.32433	-1
0.32800	-1
0.33167	-1
0.33533	-2
0.33900	-1
0.34267	-1
0.34633	-1
0.35000	-1
0.35367	-0
0.35733	0
0.36100	1
0.36467	1
0.36833	1
0.37200	1
0.37567	1
0.37933	1
0.38300	0
0.38667	0
0.39033	0
0.39400	0
0.39767	0
0.40133	0
0.40500	0
0.40867	0
0.41233	0
0.41600	0
0.41967	0
0.42333	0
0.42700	-0
0.43067	-0
0.43433	0
0.43800	1
0.44167	1
0.44533	0
0.44900	0
0.45267	0
0.45633	1
0.46000	1
0.46367	1
0.46733	1
0.47100	1
0.47467	1
0.47833	1
0.48200	1
0.48567	1
0.48933	1
0.49300	1
0.49667	0
0.50033	0
0.50400	-0
0.50767	-1
0.51133	-1
0.51500	-2
0.51867	-2
0.52233	-2
0.52600	-3
0.52967	-3
0.53333	-2
0.53700	-2
0.54067	-3
0.54433	-3
0.54800	-3
0.55167	-4
0.55533	-4
0.55900	-4
0.56267	-3
0.56633	-4
0.57000	-4
0.57367	-4
0.57733	-4
0.58100	-4
0.58467	-3
0.58833	-3
0.59200	-2
0.59567	-1
0.59933	-1
0.60300	-0
0.60667	0
0.61033	1
0.61400	1
0.61767	1
0.62133	1
0.62500	0
0.62867	0
0.63233	-0
0.63600	-0
0.63967	0
0.64333	0
0.64700	0
0.65067	1
0.65433	1
0.65800	1
0.66167	1
0.66533	0
0.66900	0
0.67267	-0
0.67633	-1
0.68000	-1
0.68367	-1
0.68733	-1
0.69100	-1
0.69467	-1
0.69833	-1
0.70200	-2
0.70567	-2
0.70933	-2
0.71300	-3
0.71667	-3
0.72033	-3
0.72400	-3
0.72767	-3
0.73133	-3
0.73500	-4
0.73867	-4
0.74233	-4
0.74600	-4
0.74967	-4
0.75333	-4
0.75700	-4
0.76067	-3
0.76433	-3
0.76800	-3
0.77167	-2
0.77533	-2
0.77900	-2
0.78267	-1
0.78633	-1
0.79000	-2
0.79367	-2
0.79733	-2
0.80100	-2
0.80467	-2
0.80833	-2
0.81200	-1
0.81567	-1
0.81933	-1
0.82300	-1
0.82667	-0
0.83033	-0
0.83400	-0
0.83767	-0
0.84133	0
0.84500	0
0.84867	0
0.85233	0
0.85600	0
0.85967	0
0.86333	-0
0.86700	-0
0.87067	-0
0.87433	-1
0.87800	-1
0.88167	-1
0.88533	-1
0.88900	-2
0.89267	-2
0.89633	-1
0.90000	-1
0.90367	-1
0.90733	-0
0.91100	-0
0.91467	-0
0.91833	0
0.92200	0
0.92567	0
0.92933	0
0.93300	-0
0.93667	-1
0.94033	-1
0.94400	-1
0.94767	-2
0.95133	-2
0.95500	-3
0.95867	-3
0.96233	-3
0.96600	-3
0.96967	-3
0.97333	-3
0.97700	-4
0.98067	-4
0.98433	-5
0.98800	-5
0.99167	-5
0.99533	-5
0.99900	-4
1.00267	-4
1.00633	-4
1.01000	-4
1.01367	-3
1.01733	-3
1.02100	-2
1.02467	-2
1.02833	-1
1.03200	-1
1.03567	-1
1.03933	-1
1.04300	-1
1.04667	-1
1.05033	-2
1.05400	-2
1.05767	-2
1.06133	-3
1.06500	-3
1.06867	-3
1.07233	-3
1.07600	-3
1.07967	-3
1.08333	-2
1.08700	-2
1.09067	-2
1.09433	-2
1.09800	-2
1.10167	-2
1.10533	-2
1.10900	-2
1.11267	-2
1.11633	-1
1.12000	-1
1.12367	-1
1.12733	-1
1.13100	-1
1.13467	-1
1.13833	-1
1.14200	-1
1.14567	-1
1.14933	-1
1.15300	-1
1.15667	-1
1.16033	-2
1.16400	-3
1.16767	-3
1.17133	-4
1.17500	-4
1.17867	-4
1.18233	-4
1.18600	-4
1.18967	-4
1.19333	-4
1.19700	-4
1.20067	-4
1.20433	-4
1.20800	-4
1.21167	-3
1.21533	-3
1.21900	-3
1.22267	-3
1.22633	-3
1.23000	-3
1.23367	-3
1.23733	-3
1.24100	-3
1.24467	-3
1.24833	-3
1.25200	-3
1.25567	-3
1.25933	-3
1.26300	-3
1.26667	-3
1.27033	-2
1.27400	-2
1.27767	-2
1.28133	-3
1.28500	-2
1.28867	-2
1.29233	-2
1.29600	-2
1.29967	-2
1.30333	-3
1.30700	-3
1.31067	-3
1.31433	-3
1.31800	-3
1.32167	-3
1.32533	-4
1.32900	-4
1.33267	-5
1.33633	-5
1.34000	-5
1.34367	-5
1.34733	-4
1.35100	-4
1.35467	-5
1.35833	-4
1.36200	-4
1.36567	-4
1.36933	-4
1.37300	-4
1.37667	-4
1.38033	-4
1.38400	-4
1.38767	-4
1.39133	-4
1.39500	-4
1.39867	-4
1.40233	-4
1.40600	-4
1.40967	-5
1.41333	-6
1.41700	-7
1.42067	-8
1.42433	-8
1.42800	-9
1.43167	-9
1.43533	-9
1.43900	-8
1.44267	-8
1.44633	-7
1.45000	-7
1.45367	-7
1.45733	-7
1.46100	-8
1.46467	-8
1.46833	-8
1.47200	-7
1.47567	-8
1.47933	-8
1.48300	-9
1.48667	-10
1.49033	-12
1.49400	-13
1.49767	-14
1.50133	-13
1.50500	-12
1.50867	-11
1.51233	-10
1.51600	-9
1.51967	-8
1.52333	-8
1.52700	-7
1.53067	-7
1.53433	-7
1.53800	-7
1.54167	-6
1.54533	-6
1.54900	-6
1.55267	-6
1.55633	-6
1.56000	-6
1.56367	-6
1.56733	-6
1.57100	-6
1.57467	-7
1.57833	-8
1.58200	-10
1.58567	-11
1.58933	-11
1.59300	-11
1.59667	-11
1.60033	-12
1.60400	-12
1.60767	-13
1.61133	-15
1.61500	-16
1.61867	-18
1.62233	-20
1.62600	-24
1.62967	-27
1.63333	-30
1.63700	-34
1.64067	-39
1.64433	-43
1.64800	-46
1.65167	-49
1.65533	-51
1.65900	-54
1.66267	-56
1.66633	-59
1.67000	-61
1.67367	-64
1.67733	-68
1.68100	-72
1.68467	-76
1.68833	-80
1.69200	-84
1.69567	-88
1.69933	-91
1.70300	-94
1.70667	-96
1.71033	-98
1.71400	-99
1.71767	-99
1.72133	-100
1.72500	-101
1.72867	-102
1.73233	-103
1.73600	-105
1.73967	-105
1.74333	-106
1.74700	-106
1.75067	-106
1.75433	-107
1.75800	-107
1.76167	-108
1.76533	-109
1.76900	-109
1.77267	-109
1.77633	-108
1.78000	-108
1.78367	-108
1.78733	-107
1.79100	-107
1.79467	-106
1.79833	-107
1.80200	-107
1.80567	-107
1.80933	-107
1.81300	-107
1.81667	-107
1.82033	-107
1.82400	-107
1.82767	-107
1.83133	-107
1.83500	-107
1.83867	-107
1.84233	-107
1.84600	-107
1.84967	-108
1.85333	-108
1.85700	-109
1.86067	-110
1.86433	-110
1.86800	-111
1.87167	-111
1.87533	-111
1.87900	-110
1.88267	-110
1.88633	-109
1.89000	-109
1.89367	-110
1.89733	-110
1.90100	-112
1.90467	-113
1.90833	-115
1.91200	-116
1.91567	-117
1.91933	-117
1.92300	-117
1.92667	-117
1.93033	-116
1.93400	-115
1.93767	-114
1.94133	-114
1.94500	-112
1.94867	-112
1.95233	-111
1.95600	-110
1.95967	-110
1.96333	-111
1.96700	-111
1.97067	-111
1.97433	-110
1.97800	-109
1.98167	-107
1.98533	-106
1.98900	-105
1.99267	-103
1.99633	-102
2.00000	-101
2.00367	-101
2.00733	-100
2.01100	-100
2.01467	-99
2.01833	-99
2.02200	-98
2.02567	-98
2.02933	-98
2.03300	-97
2.03667	-97
2.04033	-98
2.04400	-98
2.04767	-99
2.05133	-101
2.05500	-101
2.05867	-101
2.06233	-100
2.06600	-98
2.06967	-97
2.07333	-95
2.07700	-94
2.08067	-92
2.08433	-91
2.08800	-91
2.09167	-92
2.09533	-92
2.09900	-91
2.10267	-91
2.10633	-89
2.11000	-88
2.11367	-87
2.11733	-87
2.12100	-86
2.12467	-85
2.12833	-85
2.13200	-84
2.13567	-84
2.13933	-84
2.14300	-85
2.14667	-86
2.15033	-87
2.15400	-88
2.15767	-90
2.16133	-91
2.16500	-93
2.16867	-94
2.17233	-95
2.17600	-95
2.17967	-96
2.18333	-96
2.18700	-96
2.19067	-96
2.19433	-96
2.19800	-97
2.20167	-97
2.20533	-96
2.20900	-96
2.21267	-96
2.21633	-96
2.22000	-96
2.22367	-96
2.22733	-95
2.23100	-95
2.23467	-95
2.23833	-94
2.24200	-93
2.24567	-92
2.24933	-90
2.25300	-87
2.25667	-85
2.26033	-83
2.26400	-82
2.26767	-82
2.27133	-82
2.27500	-82
2.27867	-83
2.28233	-83
2.28600	-84
2.28967	-84
2.29333	-85
2.29700	-85
2.30067	-85
2.30433	-85
2.30800	-84
2.31167	-84
2.31533	-84
2.31900	-84
2.32267	-84
2.32633	-84
2.33000	-84
2.33367	-84
2.33733	-84
2.34100	-84
2.34467	-85
2.34833	-85
2.35200	-85
2.35567	-85
2.35933	-84
2.36300	-83
2.36667	-81
2.37033	-79
2.37400	-77
2.37767	-75
2.38133	-71
2.38500	-67
2.38867	-63
2.39233	-57
2.39600	-51
2.39967	-44
2.40333	-38
2.40700	-33
2.41067	-28
2.41433	-24
2.41800	-21
2.42167	-20
2.42533	-19
2.42900	-17
2.43267	-16
2.43633	-16
2.44000	-15
2.44367	-15
2.44733	-14
2.45100	-13
2.45467	-13
2.45833	-12
2.46200	-11
2.46567	-10
2.46933	-9
2.47300	-8
2.47667	-7
2.48033	-6
2.48400	-6
2.48767	-5
2.49133	-4
2.49500	-3
2.49867	-3
2.50233	-3
2.50600	-3
2.50967	-3
2.51333	-3
2.51700	-3
2.52067	-3
2.52433	-3
2.52800	-3
2.53167	-4
2.53533	-4
2.53900	-4
2.54267	-5
2.54633	-5
2.55000	-5
2.55367	-5
2.55733	-5
2.56100	-5
2.56467	-4
2.56833	-4
2.57200	-3
2.57567	-3
2.57933	-2
2.58300	-1
2.58667	-1
2.59033	-0
2.59400	-0
2.59767	0
2.60133	-0
2.60500	-1
2.60867	-1
2.61233	-2
2.61600	-2
2.61967	-2
2.62333	-2
2.62700	-1
2.63067	-1
2.63433	-0
2.63800	0
2.64167	1
2.64533	2
2.64900	3
2.65267	4
2.65633	4
2.66000	5
2.66367	5
2.66733	5
2.67100	5
2.67467	5
2.67833	6
2.68200	6
2.68567	6
2.68933	6
2.69300	6
2.69667	6
2.70033	6
2.70400	6
2.70767	6
2.71133	6
2.71500	6
2.71867	7
2.72233	7
2.72600	7
2.72967	7
2.73333	7
2.73700	8
2.74067	9
2.74433	9
2.74800	9
2.75167	9
2.75533	9
2.75900	9
2.76267	9
2.76633	10
2.77000	10
2.77367	11
2.77733	11
2.78100	11
2.78467	11
2.78833	11
2.79200	11
2.79567	12
2.79933	12
2.80300	13
2.80667	12
2.81033	12
2.81400	12
2.81767	12
2.82133	11
2.82500	11
2.82867	11
2.83233	10
2.83600	10
2.83967	9
2.84333	9
2.84700	8
2.85067	8
2.85433	7
2.85800	7
2.86167	5
2.86533	2
2.86900	-3
2.87267	-12
2.87633	-25
2.88000	-42
2.88367	-64
2.88733	-91
2.89100	-123
2.89467	-160
2.89833	-203
2.90200	-250
2.90567	-301
2.90933	-356
2.91300	-413
2.91667	-473
2.92033	-534
2.92400	-596
2.92767	-658
2.93133	-718
2.93500	-777
2.93867	-833
2.94233	-886
2.94600	-938
2.94967	-992
2.95333	-1046
2.95700	-1092
2.96067	-1119
2.96433	-1121
2.96800	-1099
2.97167	-1054
2.97533	-993
2.97900	-920
2.98267	-840
2.98633	-760
2.99000	-680
2.99367	-604
2.99733	-533
3.00100	-468
3.00467	-408
3.00833	-355
3.01200	-308
3.01567	-266
3.01933	-230
3.02300	-198
3.02667	-171
3.03033	-147
3.03400	-127
3.03767	-109
3.04133	-94
3.04500	-81
3.04867	-70
3.05233	-60
3.05600	-51
3.05967	-44
3.06333	-38
3.06700	-34
3.07067	-29
3.07433	-26
3.07800	-22
3.08167	-19
3.08533	-17
3.08900	-15
3.09267	-13
3.09633	-12
3.10000	-11
3.10367	-10
3.10733	-9
3.11100	-8
3.11467	-7
3.11833	-6
3.12200	-6
3.12567	-5
3.12933	-4
3.13300	-3
3.13667	-2
3.14033	-2
3.14400	-1
3.14767	-1
3.15133	-0
3.15500	-0
3.15867	-0
3.16233	0
3.16600	0
3.16967	1
3.17333	1
3.17700	2
3.18067	3
3.18433	4
3.18800	4
3.19167	5
3.19533	5
3.19900	6
3.20267	6
3.20633	6
3.21000	6
3.21367	6
3.21733	6
3.22100	6
3.22467	6
3.22833	6
3.23200	6
3.23567	6
3.23933	7
3.24300	7
3.24667	7
3.25033	7
3.25400	7
3.25767	7
3.26133	7
3.26500	7
3.26867	7
3.27233	7
3.27600	7
3.27967	6
3.28333	6
3.28700	6
3.29067	6
3.29433	6
3.29800	6
3.30167	6
3.30533	6
3.30900	6
3.31267	6
3.31633	6
3.32000	6
3.32367	6
3.32733	7
3.33100	7
3.33467	8
3.33833	8
3.34200	9
3.34567	9
3.34933	9
3.35300	9
3.35667	9
3.36033	9
3.36400	9
3.36767	9
3.37133	9
3.37500	10
3.37867	11
3.38233	11
3.38600	11
3.38967	11
3.39333	10
3.39700	10
3.40067	10
3.40433	9
3.40800	9
3.41167	9
3.41533	9
3.41900	9
3.42267	9
3.42633	10
3.43000	10
3.43367	10
3.43733	11
3.44100	11
3.44467	12
3.44833	12
3.45200	11
3.45567	11
3.45933	10
3.46300	9
3.46667	9
3.47033	9
3.47400	9
3.47767	9
3.48133	10
3.48500	10
3.48867	10
3.49233	10
3.49600	9
3.49967	9
3.50333	10
3.50700	10
3.51067	10
3.51433	10
3.51800	11
3.52167	11
3.52533	11
3.52900	11
3.53267	11
3.53633	11
3.54000	10
3.54367	10
3.54733	11
3.55100	11
3.55467	11
3.55833	11
3.56200	11
3.56567	11
3.56933	11
3.57300	11
3.57667	11
3.58033	11
3.58400	11
3.58767	11
3.59133	11
3.59500	10
3.59867	10
3.60233	9
3.60600	9
3.60967	9
3.61333	10
3.61700	10
3.62067	10
3.62433	11
3.62800	11
3.63167	11
3.63533	11
3.63900	11
3.64267	10
3.64633	10
3.65000	10
3.65367	10
3.65733	11
3.66100	11
3.66467	11
3.66833	11
3.67200	11
3.67567	11
3.67933	10
3.68300	11
3.68667	11
3.69033	11
3.69400	11
3.69767	11
3.70133	11
3.70500	10
3.70867	10
3.71233	9
3.71600	10
3.71967	10
3.72333	10
3.72700	10
3.73067	10
3.73433	10
3.73800	10
3.74167	10
3.74533	10
3.74900	11
3.75267	10
3.75633	10
3.76000	10
3.76367	11
3.76733	11
3.77100	11
3.77467	11
3.77833	11
3.78200	11
3.78567	11
3.78933	11
3.79300	11
3.79667	11
3.80033	11
3.80400	11
3.80767	11
3.81133	11
3.81500	10
3.81867	9
3.82233	9
3.82600	9
3.82967	8
3.83333	8
3.83700	9
3.84067	9
3.84433	9
3.84800	10
3.85167	10
3.85533	10
3.85900	10
3.86267	9
3.86633	9
3.87000	9
3.87367	9
3.87733	9
3.88100	9
3.88467	9
3.88833	10
3.89200	10
3.89567	10
3.89933	11
3.90300	11
3.90667	12
3.91033	12
3.91400	12
3.91767	12
3.92133	11
3.92500	10
3.92867	10
3.93233	10
3.93600	10
3.93967	10
3.94333	10
3.94700	10
3.95067	10
3.95433	10
3.95800	10
3.96167	11
3.96533	11
3.96900	11
3.97267	11
3.97633	11
3.98000	12
3.98367	11
3.98733	11
3.99100	11
3.99467	11
3.99833	11

[Chromatogram (Ch3)]
Interval(msec)	220
# of Points	1091
Start Time(min)	0.002
End Time(min)	3.998
R.Time (min)	Intensity
0.00167	0
0.00533	-1
0.00900	-3
0.01267	-4
0.01633	-4
0.02000	-3
0.02367	-3
0.02733	-3
0.03100	-3
0.03467	-4
0.03833	-3
0.04200	-1
0.04567	1
0.04933	2
0.05300	-0
0.05667	-2
0.06033	-4
0.06400	-7
0.06767	-10
0.07133	-10
0.07500	-9
0.07867	-8
0.08233	-8
0.08600	-8
0.08967	-7
0.09333	-7
0.09700	-6
0.10067	-5
0.10433	-5
0.10800	-4
0.11167	-3
0.11533	-2
0.11900	-2
0.12267	-2
0.12633	0
0.13000	2
0.13367	2
0.13733	-1
0.14100	-4
0.14467	-4
0.14833	-2
0.15200	-0
0.15567	2
0.15933	3
0.16300	3
0.16667	4
0.17033	5
0.17400	3
0.17767	1
0.18133	-2
0.18500	-1
0.18867	-1
0.19233	1
0.19600	0
0.19967	-1
0.20333	-1
0.20700	-2
0.21067	-3
0.21433	-4
0.21800	-4
0.22167	-4
0.22533	-3
0.22900	-1
0.23267	-0
0.23633	-1
0.24000	-1
0.24367	-1
0.24733	-3
0.25100	-3
0.25467	-5
0.25833	-5
0.26200	-5
0.26567	-5
0.26933	-4
0.27300	-6
0.27667	-8
0.28033	-9
0.28400	-9
0.28767	-9
0.29133	-10
0.29500	-8
0.29867	-5
0.30233	-4
0.30600	-3
0.30967	-4
0.31333	-5
0.31700	-3
0.32067	-1
0.32433	-2
0.32800	-3
0.33167	-3
0.33533	-2
0.33900	-1
0.34267	-1
0.34633	-1
0.35000	-1
0.35367	1
0.35733	3
0.36100	3
0.36467	4
0.36833	2
0.37200	-1
0.37567	-2
0.37933	-3
0.38300	-1
0.38667	0
0.39033	-1
0.39400	-3
0.39767	-4
0.40133	-4
0.40500	-5
0.40867	-6
0.41233	-5
0.41600	-5
0.41967	-5
0.42333	-5
0.42700	-4
0.43067	-2
0.43433	-1
0.43800	-1
0.44167	2
0.44533	4
0.44900	5
0.45267	3
0.45633	2
0.46000	2
0.46367	3
0.46733	3
0.47100	0
0.47467	-2
0.47833	-4
0.48200	-3
0.48567	-0
0.48933	3
0.49300	5
0.49667	5
0.50033	3
0.50400	3
0.50767	2
0.51133	1
0.51500	1
0.51867	-1
0.52233	-2
0.52600	-2
0.52967	-2
0.53333	-1
0.53700	-0
0.54067	1
0.54433	2
0.54800	5
0.55167	6
0.55533	5
0.55900	6
0.56267	6
0.56633	6
0.57000	7
0.57367	6
0.57733	7
0.58100	8
0.58467	8
0.58833	7
0.59200	6
0.59567	5
0.59933	3
0.60300	2
0.60667	2
0.61033	2
0.61400	2
0.61767	3
0.62133	4
0.62500	6
0.62867	8
0.63233	9
0.63600	7
0.63967	5
0.64333	2
0.64700	4
0.65067	6
0.65433	6
0.65800	7
0.66167	7
0.66533	7
0.66900	6
0.67267	6
0.67633	8
0.68000	9
0.68367	9
0.68733	8
0.69100	6
0.69467	5
0.69833	6
0.70200	5
0.70567	7
0.70933	8
0.71300	7
0.71667	7
0.72033	8
0.72400	8
0.72767	9
0.73133	8
0.73500	8
0.73867	6
0.74233	6
0.74600	8
0.74967	9
0.75333	8
0.75700	7
0.76067	6
0.76433	7
0.76800	7
0.77167	8
0.77533	9
0.77900	12
0.78267	15
0.78633	16
0.79000	18
0.79367	20
0.79733	18
0.80100	16
0.80467	14
0.80833	11
0.81200	10
0.81567	10
0.81933	11
0.82300	11
0.82667	11
0.83033	13
0.83400	14
0.83767	14
0.84133	13
0.84500	12
0.84867	13
0.85233	11
0.85600	9
0.85967	9
0.86333	9
0.86700	12
0.87067	13
0.87433	14
0.87800	13
0.88167	13
0.88533	13
0.88900	12
0.89267	14
0.89633	15
0.90000	14
0.90367	14
0.90733	14
0.91100	13
0.91467	12
0.91833	12
0.92200	13
0.92567	13
0.92933	14
0.93300	15
0.93667	16
0.94033	17
0.94400	17
0.94767	16
0.95133	16
0.95500	15
0.95867	14
0.96233	14
0.96600	13
0.96967	11
0.97333	8
0.97700	8
0.98067	9
0.98433	10
0.98800	10
0.99167	8
0.99533	5
0.99900	5
1.00267	6
1.00633	8
1.01000	8
1.01367	9
1.01733	10
1.02100	12
1.02467	11
1.02833	11
1.03200	11
1.03567	11
1.03933	10
1.04300	9
1.04667	8
1.05033	12
1.05400	17
1.05767	19
1.06133	16
1.06500	15
1.06867	14
1.07233	13
1.07600	12
1.07967	13
1.08333	15
1.08700	16
1.09067	16
1.09433	18
1.09800	17
1.10167	13
1.10533	11
1.10900	11
1.11267	12
1.11633	13
1.12000	15
1.12367	17
1.12733	17
1.13100	18
1.13467	19
1.13833	19
1.14200	20
1.14567	20
1.14933	20
1.15300	20
1.15667	20
1.16033	19
1.16400	19
1.16767	18
1.17133	16
1.17500	14
1.17867	15
1.18233	18
1.18600	18
1.18967	17
1.19333	17
1.19700	19
1.20067	20
1.20433	19
1.20800	20
1.21167	21
1.21533	21
1.21900	19
1.22267	17
1.22633	15
1.23000	14
1.23367	15
1.23733	17
1.24100	16
1.24467	15
1.24833	15
1.25200	16
1.25567	13
1.25933	12
1.26300	13
1.26667	14
1.27033	14
1.27400	15
1.27767	19
1.28133	20
1.28500	20
1.28867	22
1.29233	26
1.29600	26
1.29967	24
1.30333	24
1.30700	24
1.31067	26
1.31433	25
1.31800	23
1.32167	22
1.32533	21
1.32900	22
1.33267	25
1.33633	28
1.34000	29
1.34367	28
1.34733	28
1.35100	26
1.35467	26
1.35833	25
1.36200	22
1.36567	22
1.36933	24
1.37300	25
1.37667	24
1.38033	24
1.38400	25
1.38767	27
1.39133	28
1.39500	28
1.39867	28
1.40233	25
1.40600	23
1.40967	23
1.41333	22
1.41700	21
1.42067	19
1.42433	18
1.42800	17
1.43167	18
1.43533	20
1.43900	22
1.44267	24
1.44633	25
1.45000	27
1.45367	27
1.45733	27
1.46100	24
1.46467	24
1.46833	25
1.47200	26
1.47567	26
1.47933	28
1.48300	29
1.48667	29
1.49033	28
1.49400	25
1.49767	22
1.50133	22
1.50500	22
1.50867	23
1.51233	24
1.51600	25
1.51967	26
1.52333	27
1.52700	27
1.53067	28
1.53433	27
1.53800	26
1.54167	26
1.54533	26
1.54900	26
1.55267	24
1.55633	24
1.56000	26
1.56367	27
1.56733	27
1.57100	27
1.57467	27
1.57833	28
1.58200	27
1.58567	27
1.58933	27
1.59300	26
1.59667	24
1.60033	22
1.60400	21
1.60767	21
1.61133	22
1.61500	22
1.61867	23
1.62233	25
1.62600	28
1.62967	32
1.63333	35
1.63700	34
1.64067	34
1.64433	33
1.64800	33
1.65167	34
1.65533	32
1.65900	31
1.66267	30
1.66633	32
1.67000	35
1.67367	36
1.67733	39
1.68100	38
1.68467	39
1.68833	38
1.69200	34
1.69567	32
1.69933	32
1.70300	33
1.70667	34
1.71033	36
1.71400	38
1.71767	40
1.72133	43
1.72500	43
1.72867	43
1.73233	44
1.73600	43
1.73967	42
1.74333	44
1.74700	45
1.75067	47
1.75433	49
1.75800	49
1.76167	47
1.76533	44
1.76900	44
1.77267	44
1.77633	46
1.78000	46
1.78367	45
1.78733	46
1.79100	49
1.79467	51
1.79833	53
1.80200	51
1.80567	50
1.80933	50
1.81300	50
1.81667	51
1.82033	52
1.82400	52
1.82767	52
1.83133	54
1.83500	56
1.83867	57
1.84233	57
1.84600	56
1.84967	55
1.85333	53
1.85700	53
1.86067	54
1.86433	53
1.86800	54
1.87167	54
1.87533	53
1.87900	52
1.88267	53
1.88633	56
1.89000	60
1.89367	63
1.89733	64
1.90100	65
1.90467	68
1.90833	71
1.91200	72
1.91567	73
1.91933	74
1.92300	75
1.92667	75
1.93033	74
1.93400	74
1.93767	72
1.94133	70
1.94500	68
1.94867	69
1.95233	70
1.95600	73
1.95967	77
1.96333	80
1.96700	81
1.97067	83
1.97433	81
1.97800	80
1.98167	81
1.98533	82
1.98900	83
1.99267	84
1.99633	84
2.00000	84
2.00367	84
2.00733	85
2.01100	87
2.01467	90
2.01833	90
2.02200	90
2.02567	91
2.02933	94
2.03300	95
2.03667	95
2.04033	94
2.04400	95
2.04767	93
2.05133	94
2.05500	95
2.05867	96
2.06233	97
2.06600	98
2.06967	101
2.07333	103
2.07700	104
2.08067	106
2.08433	108
2.08800	108
2.09167	110
2.09533	112
2.09900	112
2.10267	113
2.10633	113
2.11000	111
2.11367	110
2.11733	111
2.12100	114
2.12467	115
2.12833	115
2.13200	113
2.13567	112
2.13933	113
2.14300	115
2.14667	118
2.15033	120
2.15400	119
2.15767	119
2.16133	122
2.16500	125
2.16867	126
2.17233	126
2.17600	124
2.17967	123
2.18333	124
2.18700	124
2.19067	126
2.19433	128
2.19800	128
2.20167	127
2.20533	126
2.20900	127
2.21267	129
2.21633	128
2.22000	128
2.22367	128
2.22733	128
2.23100	128
2.23467	129
2.23833	130
2.24200	131
2.24567	133
2.24933	132
2.25300	131
2.25667	130
2.26033	131
2.26400	133
2.26767	134
2.27133	134
2.27500	132
2.27867	131
2.28233	131
2.28600	133
2.28967	134
2.29333	135
2.29700	134
2.30067	132
2.30433	132
2.30800	132
2.31167	134
2.31533	138
2.31900	142
2.32267	143
2.32633	142
2.33000	142
2.33367	141
2.33733	142
2.34100	143
2.34467	144
2.34833	143
2.35200	143
2.35567	144
2.35933	145
2.36300	147
2.36667	147
2.37033	148
2.37400	149
2.37767	147
2.38133	145
2.38500	143
2.38867	141
2.39233	141
2.39600	142
2.39967	143
2.40333	145
2.40700	146
2.41067	147
2.41433	148
2.41800	151
2.42167	151
2.42533	152
2.42900	152
2.43267	152
2.43633	152
2.44000	158
2.44367	207
2.44733	298
2.45100	386
2.45467	450
2.45833	485
2.46200	486
2.46567	468
2.46933	447
2.47300	431
2.47667	421
2.48033	407
2.48400	388
2.48767	364
2.49133	338
2.49500	314
2.49867	290
2.50233	282
2.50600	300
2.50967	349
2.51333	422
2.51700	503
2.52067	573
2.52433	629
2.52800	672
2.53167	703
2.53533	727
2.53900	747
2.54267	764
2.54633	781
2.55000	798
2.55367	818
2.55733	841
2.56100	865
2.56467	889
2.56833	911
2.57200	931
2.57567	946
2.57933	957
2.58300	964
2.58667	967
2.59033	967
2.59400	961
2.59767	948
2.60133	932
2.60500	915
2.60867	898
2.61233	882
2.61600	867
2.61967	854
2.62333	842
2.62700	827
2.63067	813
2.63433	800
2.63800	791
2.64167	782
2.64533	775
2.64900	771
2.65267	768
2.65633	766
2.66000	766
2.66367	766
2.66733	766
2.67100	766
2.67467	770
2.67833	774
2.68200	779
2.68567	785
2.68933	788
2.69300	789
2.69667	791
2.70033	796
2.70400	802
2.70767	806
2.71133	807
2.71500	811
2.71867	816
2.72233	820
2.72600	822
2.72967	823
2.73333	822
2.73700	818
2.74067	813
2.74433	810
2.74800	803
2.75167	795
2.75533	790
2.75900	785
2.76267	778
2.76633	772
2.77000	765
2.77367	758
2.77733	752
2.78100	744
2.78467	738
2.78833	731
2.79200	727
2.79567	724
2.79933	720
2.80300	715
2.80667	712
2.81033	709
2.81400	704
2.81767	700
2.82133	698
2.82500	695
2.82867	695
2.83233	700
2.83600	712
2.83967	745
2.84333	814
2.84700	941
2.85067	1149
2.85433	1461
2.85800	1882
2.86167	2401
2.86533	2987
2.86900	3600
2.87267	4189
2.87633	4706
2.88000	5108
2.88367	5372
2.88733	5487
2.89100	5460
2.89467	5314
2.89833	5076
2.90200	4780
2.90567	4450
2.90933	4108
2.91300	3767
2.91667	3440
2.92033	3136
2.92400	2858
2.92767	2606
2.93133	2382
2.93500	2187
2.93867	2013
2.94233	1862
2.94600	1730
2.94967	1613
2.95333	1515
2.95700	1432
2.96067	1359
2.96433	1295
2.96800	1239
2.97167	1190
2.97533	1148
2.97900	1114
2.98267	1084
2.98633	1057
2.99000	1032
2.99367	1011
2.99733	991
3.00100	973
3.00467	957
3.00833	942
3.01200	928
3.01567	916
3.01933	905
3.02300	892
3.02667	878
3.03033	865
3.03400	855
3.03767	844
3.04133	833
3.04500	823
3.04867	817
3.05233	809
3.05600	799
3.05967	789
3.06333	779
3.06700	774
3.07067	772
3.07433	771
3.07800	767
3.08167	763
3.08533	760
3.08900	756
3.09267	752
3.09633	746
3.10000	741
3.10367	736
3.10733	731
3.11100	724
3.11467	720
3.11833	721
3.12200	723
3.12567	724
3.12933	723
3.13300	720
3.13667	715
3.14033	711
3.14400	709
3.14767	708
3.15133	706
3.15500	703
3.15867	701
3.16233	701
3.16600	701
3.16967	698
3.17333	695
3.17700	692
3.18067	691
3.18433	689
3.18800	686
3.19167	683
3.19533	683
3.19900	683
3.20267	684
3.20633	682
3.21000	681
3.21367	680
3.21733	678
3.22100	676
3.22467	676
3.22833	678
3.23200	677
3.23567	675
3.23933	671
3.24300	667
3.24667	665
3.25033	664
3.25400	664
3.25767	662
3.26133	660
3.26500	660
3.26867	660
3.27233	660
3.27600	657
3.27967	653
3.28333	651
3.28700	648
3.29067	650
3.29433	654
3.29800	656
3.30167	654
3.30533	654
3.30900	653
3.31267	650
3.31633	646
3.32000	643
3.32367	640
3.32733	638
3.33100	636
3.33467	632
3.33833	628
3.34200	626
3.34567	626
3.34933	626
3.35300	624
3.35667	621
3.36033	617
3.36400	614
3.36767	613
3.37133	609
3.37500	607
3.37867	604
3.38233	601
3.38600	600
3.38967	599
3.39333	596
3.39700	595
3.40067	593
3.40433	590
3.40800	588
3.41167	585
3.41533	583
3.41900	582
3.42267	582
3.42633	578
3.43000	576
3.43367	575
3.43733	574
3.44100	571
3.44467	567
3.44833	563
3.45200	559
3.45567	558
3.45933	557
3.46300	556
3.46667	555
3.47033	555
3.47400	554
3.47767	552
3.48133	550
3.48500	548
3.48867	544
3.49233	542
3.49600	541
3.49967	540
3.50333	538
3.50700	536
3.51067	535
3.51433	535
3.51800	533
3.52167	531
3.52533	527
3.52900	525
3.53267	522
3.53633	520
3.54000	515
3.54367	513
3.54733	511
3.55100	508
3.55467	505
3.55833	502
3.56200	500
3.56567	499
3.56933	500
3.57300	499
3.57667	499
3.58033	499
3.58400	498
3.58767	497
3.59133	495
3.59500	493
3.59867	492
3.60233	490
3.60600	488
3.60967	485
3.61333	481
3.61700	478
3.62067	477
3.62433	476
3.62800	475
3.63167	475
3.63533	475
3.63900	473
3.64267	469
3.64633	467
3.65000	466
3.65367	466
3.65733	466
3.66100	465
3.66467	463
3.66833	462
3.67200	460
3.67567	457
3.67933	456
3.68300	457
3.68667	459
3.69033	459
3.69400	458
3.69767	458
3.70133	456
3.70500	454
3.70867	453
3.71233	451
3.71600	450
3.71967	451
3.72333	451
3.72700	450
3.73067	450
3.73433	448
3.73800	446
3.74167	445
3.74533	443
3.74900	439
3.75267	436
3.75633	433
3.76000	430
3.76367	431
3.76733	432
3.77100	432
3.77467	433
3.77833	432
3.78200	428
3.78567	425
3.78933	423
3.79300	422
3.79667	421
3.80033	419
3.80400	420
3.80767	420
3.81133	421
3.81500	422
3.81867	423
3.82233	422
3.82600	419
3.82967	416
3.83333	413
3.83700	411
3.84067	411
3.84433	410
3.84800	407
3.85167	405
3.85533	404
3.85900	402
3.86267	402
3.86633	400
3.87000	398
3.87367	397
3.87733	397
3.88100	396
3.88467	396
3.88833	395
3.89200	394
3.89567	393
3.89933	394
3.90300	393
3.90667	390
3.91033	387
3.91400	384
3.91767	380
3.92133	378
3.92500	376
3.92867	378
3.93233	380
3.93600	379
3.93967	378
3.94333	377
3.94700	377
3.95067	376
3.95433	373
3.95800	369
3.96167	364
3.96533	363
3.96900	364
3.97267	365
3.97633	366
3.98000	365
3.98367	361
3.98733	355
3.99100	352
3.99467	351
3.99833	349

[Status Trace (Column Oven Temperature)]
Interval(msec)	1000
# of Points	240
Start Time(min)	0.012
End Time(min)	3.995
Intensity Units	
Intensity Multiplier	1
R.Time (min)	Intensity
0.01177	35.05
0.02843	35.05
0.04510	35.06
0.06177	35.05
0.07843	35.05
0.09510	35.04
0.11177	35.04
0.12843	35.04
0.14510	35.04
0.16177	35.04
0.17843	35.03
0.19510	35.02
0.21177	35.02
0.22843	35.03
0.24510	35.03
0.26177	35.03
0.27843	35.03
0.29510	35.04
0.31177	35.03
0.32843	35.04
0.34510	35.04
0.36177	35.04
0.37843	35.03
0.39510	35.02
0.41177	35.00
0.42843	34.99
0.44510	34.99
0.46177	34.99
0.47843	34.98
0.49510	34.98
0.51177	34.99
0.52843	35.01
0.54510	35.02
0.56177	35.03
0.57843	35.03
0.59510	35.02
0.61177	35.01
0.62843	35.00
0.64510	34.98
0.66177	34.97
0.67843	34.99
0.69510	35.00
0.71177	35.00
0.72843	35.01
0.74510	35.02
0.76177	35.02
0.77843	35.02
0.79510	35.02
0.81177	35.00
0.82843	34.99
0.84510	34.98
0.86177	34.97
0.87843	34.98
0.89510	34.98
0.91177	34.98
0.92843	34.98
0.94510	35.00
0.96177	35.01
0.97843	35.02
0.99510	35.02
1.01177	35.01
1.02843	34.99
1.04510	35.00
1.06177	35.00
1.07843	35.01
1.09510	35.00
1.11177	35.00
1.12843	35.00
1.14510	35.00
1.16177	35.00
1.17843	35.01
1.19510	35.02
1.21177	35.01
1.22843	35.01
1.24510	35.00
1.26177	35.00
1.27843	34.98
1.29510	34.98
1.31177	34.98
1.32843	34.99
1.34510	34.98
1.36177	34.99
1.37843	34.98
1.39510	34.96
1.41177	34.98
1.42843	34.99
1.44510	35.00
1.46177	35.01
1.47843	35.00
1.49510	35.00
1.51177	35.00
1.52843	35.00
1.54510	35.01
1.56177	35.02
1.57843	35.02
1.59510	35.04
1.61177	35.11
1.62843	35.25
1.64510	35.46
1.66177	35.71
1.67843	36.03
1.69510	36.40
1.71177	36.75
1.72843	37.08
1.74510	37.39
1.76177	37.74
1.77843	38.08
1.79510	38.39
1.81177	38.73
1.82843	39.07
1.84510	39.40
1.86177	39.75
1.87843	40.06
1.89510	40.39
1.91177	40.72
1.92843	41.06
1.94510	41.36
1.96177	41.70
1.97843	42.03
1.99510	42.35
2.01177	42.69
2.02843	43.01
2.04510	43.32
2.06177	43.63
2.07843	43.98
2.09510	44.29
2.11177	44.63
2.12843	44.97
2.14510	45.27
2.16177	45.59
2.17843	45.91
2.19510	46.24
2.21177	46.57
2.22843	46.91
2.24510	47.20
2.26177	47.55
2.27843	47.88
2.29510	48.23
2.31177	48.55
2.32843	48.87
2.34510	49.21
2.36177	49.49
2.37843	49.66
2.39510	49.72
2.41177	49.68
2.42843	49.69
2.44510	49.70
2.46177	49.71
2.47843	49.72
2.49510	49.71
2.51177	49.74
2.52843	49.76
2.54510	49.76
2.56177	49.78
2.57843	49.80
2.59510	49.80
2.61177	49.84
2.62843	49.85
2.64510	49.85
2.66177	49.84
2.67843	49.84
2.69510	49.84
2.71177	49.86
2.72843	49.88
2.74510	49.88
2.76177	49.87
2.77843	49.86
2.79510	49.85
2.81177	49.85
2.82843	49.88
2.84510	49.90
2.86177	49.91
2.87843	49.91
2.89510	49.92
2.91177	49.92
2.92843	49.93
2.94510	49.93
2.96177	49.94
2.97843	49.95
2.99510	49.96
3.01177	49.98
3.02843	49.99
3.04510	50.00
3.06177	50.00
3.07843	50.00
3.09510	50.01
3.11177	50.02
3.12843	50.03
3.14510	50.05
3.16177	50.06
3.17843	50.05
3.19510	50.05
3.21177	50.05
3.22843	50.05
3.24510	50.05
3.26177	50.06
3.27843	50.07
3.29510	50.08
3.31177	50.09
3.32843	50.10
3.34510	50.11
3.36177	50.10
3.37843	50.08
3.39510	50.09
3.41177	50.08
3.42843	50.08
3.44510	50.07
3.46177	50.07
3.47843	50.07
3.49510	50.08
3.51177	50.09
3.52843	50.08
3.54510	50.07
3.56177	50.08
3.57843	50.09
3.59510	50.08
3.61177	50.08
3.62843	50.08
3.64510	50.08
3.66177	50.08
3.67843	50.07
3.69510	50.07
3.71177	50.07
3.72843	50.07
3.74510	50.08
3.76177	50.07
3.77843	50.06
3.79510	50.06
3.81177	50.07
3.82843	50.08
3.84510	50.07
3.86177	50.07
3.87843	50.07
3.89510	50.06
3.91177	50.05
3.92843	50.05
3.94510	50.05
3.96177	50.05
3.97843	50.06
3.99510	50.07

[Status Trace (Injection Unit Temperature)]
Interval(msec)	1000
# of Points	240
Start Time(min)	0.012
End Time(min)	3.995
Intensity Units	
Intensity Multiplier	1
R.Time (min)	Intensity
0.01177	99.98
0.02843	99.98
0.04510	99.98
0.06177	99.98
0.07843	99.98
0.09510	99.99
0.11177	99.98
0.12843	99.98
0.14510	99.98
0.16177	99.98
0.17843	99.98
0.19510	99.98
0.21177	99.99
0.22843	99.98
0.24510	99.99
0.26177	99.99
0.27843	99.99
0.29510	99.99
0.31177	99.99
0.32843	99.99
0.34510	99.99
0.36177	99.99
0.37843	99.99
0.39510	99.99
0.41177	99.99
0.42843	99.99
0.44510	99.98
0.46177	99.99
0.47843	99.99
0.49510	99.99
0.51177	99.99
0.52843	99.99
0.54510	99.99
0.56177	99.99
0.57843	99.99
0.59510	99.99
0.61177	99.99
0.62843	99.98
0.64510	99.99
0.66177	99.98
0.67843	99.98
0.69510	99.99
0.71177	99.99
0.72843	99.99
0.74510	99.99
0.76177	99.99
0.77843	99.98
0.79510	99.99
0.81177	99.99
0.82843	99.99
0.84510	99.99
0.86177	99.99
0.87843	99.99
0.89510	99.99
0.91177	99.99
0.92843	99.99
0.94510	99.99
0.96177	99.99
0.97843	99.98
0.99510	99.99
1.01177	99.99
1.02843	99.99
1.04510	99.99
1.06177	99.99
1.07843	99.99
1.09510	99.99
1.11177	99.99
1.12843	99.99
1.14510	99.98
1.16177	99.99
1.17843	99.99
1.19510	99.99
1.21177	99.99
1.22843	99.99
1.24510	99.99
1.26177	99.98
1.27843	99.99
1.29510	99.99
1.31177	99.99
1.32843	99.99
1.34510	99.99
1.36177	99.99
1.37843	99.98
1.39510	99.99
1.41177	99.99
1.42843	99.99
1.44510	99.99
1.46177	99.99
1.47843	99.99
1.49510	99.99
1.51177	99.99
1.52843	99.99
1.54510	99.99
1.56177	99.99
1.57843	99.99
1.59510	99.99
1.61177	99.99
1.62843	99.99
1.64510	99.99
1.66177	99.98
1.67843	99.99
1.69510	99.99
1.71177	99.99
1.72843	99.99
1.74510	99.99
1.76177	99.99
1.77843	99.98
1.79510	99.99
1.81177	99.98
1.82843	99.98
1.84510	99.98
1.86177	99.98
1.87843	99.98
1.89510	99.98
1.91177	99.98
1.92843	99.98
1.94510	99.98
1.96177	99.98
1.97843	99.98
1.99510	99.98
2.01177	99.98
2.02843	99.98
2.04510	99.97
2.06177	99.98
2.07843	99.98
2.09510	99.97
2.11177	99.98
2.12843	99.98
2.14510	99.97
2.16177	99.97
2.17843	99.97
2.19510	99.97
2.21177	99.97
2.22843	99.97
2.24510	99.97
2.26177	99.97
2.27843	99.97
2.29510	99.97
2.31177	99.97
2.32843	99.97
2.34510	99.97
2.36177	99.97
2.37843	99.97
2.39510	99.97
2.41177	99.97
2.42843	99.97
2.44510	99.97
2.46177	99.97
2.47843	99.97
2.49510	99.97
2.51177	99.97
2.52843	99.97
2.54510	99.97
2.56177	99.97
2.57843	99.97
2.59510	99.97
2.61177	99.97
2.62843	99.98
2.64510	99.98
2.66177	99.98
2.67843	99.98
2.69510	99.98
2.71177	99.98
2.72843	99.98
2.74510	99.99
2.76177	99.99
2.77843	99.99
2.79510	99.99
2.81177	99.99
2.82843	99.99
2.84510	99.99
2.86177	100.00
2.87843	100.00
2.89510	100.00
2.91177	100.01
2.92843	100.00
2.94510	100.00
2.96177	100.01
2.97843	100.01
2.99510	100.01
3.01177	100.01
3.02843	100.02
3.04510	100.01
3.06177	100.02
3.07843	100.02
3.09510	100.02
3.11177	100.02
3.12843	100.02
3.14510	100.02
3.16177	100.03
3.17843	100.02
3.19510	100.03
3.21177	100.02
3.22843	100.03
3.24510	100.03
3.26177	100.03
3.27843	100.03
3.29510	100.04
3.31177	100.04
3.32843	100.04
3.34510	100.04
3.36177	100.04
3.37843	100.04
3.39510	100.04
3.41177	100.04
3.42843	100.04
3.44510	100.04
3.46177	100.05
3.47843	100.04
3.49510	100.05
3.51177	100.04
3.52843	100.05
3.54510	100.05
3.56177	100.03
3.57843	100.04
3.59510	100.05
3.61177	100.05
3.62843	100.05
3.64510	100.04
3.66177	100.05
3.67843	100.05
3.69510	100.05
3.71177	100.04
3.72843	100.05
3.74510	100.04
3.76177	100.05
3.77843	100.05
3.79510	100.04
3.81177	100.05
3.82843	100.05
3.84510	100.04
3.86177	100.05
3.87843	100.04
3.89510	100.05
3.91177	100.05
3.92843	100.04
3.94510	100.04
3.96177	100.05
3.97843	100.05
3.99510	100.05

[Status Trace (Carrier Gas Pressure)]
Interval(msec)	1000
# of Points	240
Start Time(min)	0.012
End Time(min)	3.995
Intensity Units	
Intensity Multiplier	1
R.Time (min)	Intensity
0.01177	57.99
0.02843	55.00
0.04510	57.68
0.06177	59.75
0.07843	58.87
0.09510	57.99
0.11177	58.00
0.12843	58.01
0.14510	58.01
0.16177	58.01
0.17843	58.00
0.19510	58.00
0.21177	58.00
0.22843	58.00
0.24510	58.00
0.26177	58.00
0.27843	58.00
0.29510	58.00
0.31177	58.00
0.32843	58.00
0.34510	58.00
0.36177	58.00
0.37843	58.00
0.39510	58.00
0.41177	58.00
0.42843	58.00
0.44510	58.00
0.46177	58.00
0.47843	58.00
0.49510	58.00
0.51177	58.00
0.52843	58.00
0.54510	58.00
0.56177	58.00
0.57843	58.00
0.59510	58.00
0.61177	58.00
0.62843	58.00
0.64510	58.00
0.66177	58.00
0.67843	58.00
0.69510	58.00
0.71177	58.00
0.72843	58.00
0.74510	58.00
0.76177	58.00
0.77843	58.00
0.79510	58.00
0.81177	58.00
0.82843	58.00
0.84510	58.00
0.86177	58.00
0.87843	58.00
0.89510	58.00
0.91177	58.00
0.92843	58.00
0.94510	58.00
0.96177	58.00
0.97843	58.00
0.99510	58.00
1.01177	58.00
1.02843	58.00
1.04510	58.00
1.06177	58.00
1.07843	58.00
1.09510	58.00
1.11177	58.00
1.12843	58.00
1.14510	58.00
1.16177	58.00
1.17843	58.00
1.19510	58.00
1.21177	58.00
1.22843	58.00
1.24510	58.00
1.26177	58.00
1.27843	58.00
1.29510	58.00
1.31177	58.00
1.32843	58.00
1.34510	58.00
1.36177	58.00
1.37843	58.00
1.39510	58.00
1.41177	58.00
1.42843	58.00
1.44510	58.00
1.46177	58.00
1.47843	58.00
1.49510	58.00
1.51177	58.00
1.52843	58.00
1.54510	58.00
1.56177	58.00
1.57843	58.00
1.59510	58.00
1.61177	58.00
1.62843	58.00
1.64510	58.00
1.66177	58.00
1.67843	58.01
1.69510	58.00
1.71177	58.00
1.72843	58.00
1.74510	58.00
1.76177	58.00
1.77843	58.00
1.79510	58.00
1.81177	58.00
1.82843	58.00
1.84510	58.00
1.86177	58.00
1.87843	58.00
1.89510	58.00
1.91177	58.00
1.92843	58.00
1.94510	58.00
1.96177	58.00
1.97843	58.00
1.99510	58.00
2.01177	58.00
2.02843	58.00
2.04510	58.00
2.06177	58.00
2.07843	58.00
2.09510	58.00
2.11177	58.00
2.12843	58.00
2.14510	58.00
2.16177	58.00
2.17843	58.00
2.19510	58.00
2.21177	58.00
2.22843	58.00
2.24510	58.00
2.26177	58.00
2.27843	58.00
2.29510	58.00
2.31177	58.00
2.32843	58.00
2.34510	58.00
2.36177	58.00
2.37843	57.99
2.39510	57.99
2.41177	57.99
2.42843	58.00
2.44510	58.00
2.46177	58.00
2.47843	58.00
2.49510	58.00
2.51177	58.00
2.52843	57.99
2.54510	58.00
2.56177	58.00
2.57843	58.00
2.59510	58.00
2.61177	58.00
2.62843	58.00
2.64510	58.00
2.66177	58.00
2.67843	58.00
2.69510	58.00
2.71177	58.00
2.72843	58.00
2.74510	58.00
2.76177	58.00
2.77843	58.00
2.79510	58.00
2.81177	58.00
2.82843	58.00
2.84510	58.00
2.86177	58.00
2.87843	58.00
2.89510	58.00
2.91177	58.00
2.92843	58.00
2.94510	58.00
2.96177	58.00
2.97843	58.00
2.99510	58.00
3.01177	58.00
3.02843	58.00
3.04510	58.00
3.06177	58.00
3.07843	58.00
3.09510	58.00
3.11177	58.00
3.12843	58.00
3.14510	58.00
3.16177	58.00
3.17843	58.00
3.19510	58.00
3.21177	58.00
3.22843	58.00
3.24510	58.00
3.26177	58.00
3.27843	58.00
3.29510	58.00
3.31177	58.00
3.32843	58.00
3.34510	58.00
3.36177	58.00
3.37843	58.00
3.39510	58.00
3.41177	58.00
3.42843	58.00
3.44510	58.00
3.46177	58.00
3.47843	58.00
3.49510	58.00
3.51177	58.00
3.52843	58.00
3.54510	58.00
3.56177	58.00
3.57843	58.00
3.59510	58.00
3.61177	58.00
3.62843	58.00
3.64510	58.00
3.66177	58.00
3.67843	58.00
3.69510	58.00
3.71177	58.00
3.72843	58.00
3.74510	58.00
3.76177	58.00
3.77843	58.00
3.79510	58.00
3.81177	58.00
3.82843	58.00
3.84510	58.00
3.86177	58.00
3.87843	58.00
3.89510	58.00
3.91177	58.00
3.92843	58.00
3.94510	58.00
3.96177	58.00
3.97843	58.00
3.99510	58.00

[Status Trace (Carrier Gas Flow)]
Interval(msec)	1000
# of Points	240
Start Time(min)	0.012
End Time(min)	3.995
Intensity Units	
Intensity Multiplier	1
R.Time (min)	Intensity
0.01177	34.54
0.02843	34.54
0.04510	34.55
0.06177	34.53
0.07843	34.51
0.09510	34.52
0.11177	34.52
0.12843	34.52
0.14510	34.52
0.16177	34.52
0.17843	34.52
0.19510	34.51
0.21177	34.52
0.22843	34.52
0.24510	34.52
0.26177	34.52
0.27843	34.52
0.29510	34.52
0.31177	34.51
0.32843	34.52
0.34510	34.52
0.36177	34.52
0.37843	34.52
0.39510	34.52
0.41177	34.52
0.42843	34.52
0.44510	34.52
0.46177	34.52
0.47843	34.51
0.49510	34.52
0.51177	34.52
0.52843	34.52
0.54510	34.52
0.56177	34.52
0.57843	34.52
0.59510	34.52
0.61177	34.52
0.62843	34.52
0.64510	34.52
0.66177	34.51
0.67843	34.52
0.69510	34.52
0.71177	34.52
0.72843	34.52
0.74510	34.52
0.76177	34.52
0.77843	34.52
0.79510	34.52
0.81177	34.52
0.82843	34.52
0.84510	34.52
0.86177	34.52
0.87843	34.52
0.89510	34.52
0.91177	34.52
0.92843	34.52
0.94510	34.52
0.96177	34.52
0.97843	34.51
0.99510	34.52
1.01177	34.51
1.02843	34.52
1.04510	34.52
1.06177	34.53
1.07843	34.52
1.09510	34.52
1.11177	34.52
1.12843	34.52
1.14510	34.52
1.16177	34.52
1.17843	34.52
1.19510	34.52
1.21177	34.52
1.22843	34.52
1.24510	34.51
1.26177	34.52
1.27843	34.53
1.29510	34.52
1.31177	34.52
1.32843	34.52
1.34510	34.51
1.36177	34.52
1.37843	34.53
1.39510	34.52
1.41177	34.51
1.42843	34.52
1.44510	34.52
1.46177	34.52
1.47843	34.52
1.49510	34.52
1.51177	34.52
1.52843	34.51
1.54510	34.52
1.56177	34.52
1.57843	34.52
1.59510	34.52
1.61177	34.52
1.62843	34.52
1.64510	34.52
1.66177	34.52
1.67843	34.52
1.69510	34.52
1.71177	34.51
1.72843	34.52
1.74510	34.52
1.76177	34.52
1.77843	34.52
1.79510	34.52
1.81177	34.52
1.82843	34.51
1.84510	34.52
1.86177	34.52
1.87843	34.52
1.89510	34.52
1.91177	34.52
1.92843	34.52
1.94510	34.52
1.96177	34.51
1.97843	34.52
1.99510	34.52
2.01177	34.52
2.02843	34.52
2.04510	34.52
2.06177	34.52
2.07843	34.52
2.09510	34.52
2.11177	34.53
2.12843	34.51
2.14510	34.52
2.16177	34.53
2.17843	34.52
2.19510	34.51
2.21177	34.52
2.22843	34.52
2.24510	34.51
2.26177	34.52
2.27843	34.52
2.29510	34.52
2.31177	34.52
2.32843	34.52
2.34510	34.52
2.36177	34.51
2.37843	34.52
2.39510	34.53
2.41177	34.52
2.42843	34.52
2.44510	34.52
2.46177	34.52
2.47843	34.52
2.49510	34.52
2.51177	34.52
2.52843	34.52
2.54510	34.52
2.56177	34.52
2.57843	34.52
2.59510	34.52
2.61177	34.52
2.62843	34.52
2.64510	34.52
2.66177	34.52
2.67843	34.52
2.69510	34.52
2.71177	34.51
2.72843	34.52
2.74510	34.52
2.76177	34.52
2.77843	34.52
2.79510	34.52
2.81177	34.52
2.82843	34.52
2.84510	34.52
2.86177	34.52
2.87843	34.52
2.89510	34.52
2.91177	34.52
2.92843	34.52
2.94510	34.51
2.96177	34.52
2.97843	34.52
2.99510	34.52
3.01177	34.52
3.02843	34.52
3.04510	34.52
3.06177	34.52
3.07843	34.52
3.09510	34.52
3.11177	34.52
3.12843	34.52
3.14510	34.52
3.16177	34.52
3.17843	34.52
3.19510	34.52
3.21177	34.52
3.22843	34.52
3.24510	34.51
3.26177	34.52
3.27843	34.52
3.29510	34.52
3.31177	34.52
3.32843	34.52
3.34510	34.52
3.36177	34.52
3.37843	34.52
3.39510	34.52
3.41177	34.52
3.42843	34.51
3.44510	34.52
3.46177	34.52
3.47843	34.51
3.49510	34.52
3.51177	34.52
3.52843	34.51
3.54510	34.52
3.56177	34.52
3.57843	34.52
3.59510	34.52
3.61177	34.52
3.62843	34.52
3.64510	34.51
3.66177	34.52
3.67843	34.52
3.69510	34.52
3.71177	34.52
3.72843	34.52
3.74510	34.52
3.76177	34.52
3.77843	34.52
3.79510	34.52
3.81177	34.52
3.82843	34.51
3.84510	34.52
3.86177	34.52
3.87843	34.52
3.89510	34.51
3.91177	34.52
3.92843	34.52
3.94510	34.52
3.96177	34.52
3.97843	34.52
3.99510	34.53

[Status Trace (Column Flow)]
Interval(msec)	1000
# of Points	240
Start Time(min)	0.012
End Time(min)	3.995
Intensity Units	
Intensity Multiplier	1
R.Time (min)	Intensity
0.01177	5.49
0.02843	5.15
0.04510	5.46
0.06177	5.70
0.07843	5.59
0.09510	5.49
0.11177	5.49
0.12843	5.49
0.14510	5.49
0.16177	5.49
0.17843	5.49
0.19510	5.49
0.21177	5.49
0.22843	5.49
0.24510	5.49
0.26177	5.49
0.27843	5.49
0.29510	5.49
0.31177	5.49
0.32843	5.49
0.34510	5.49
0.36177	5.49
0.37843	5.49
0.39510	5.49
0.41177	5.49
0.42843	5.49
0.44510	5.49
0.46177	5.49
0.47843	5.49
0.49510	5.49
0.51177	5.49
0.52843	5.49
0.54510	5.49
0.56177	5.49
0.57843	5.49
0.59510	5.49
0.61177	5.49
0.62843	5.49
0.64510	5.49
0.66177	5.49
0.67843	5.49
0.69510	5.49
0.71177	5.49
0.72843	5.49
0.74510	5.49
0.76177	5.49
0.77843	5.49
0.79510	5.49
0.81177	5.49
0.82843	5.49
0.84510	5.49
0.86177	5.49
0.87843	5.49
0.89510	5.49
0.91177	5.49
0.92843	5.49
0.94510	5.49
0.96177	5.49
0.97843	5.49
0.99510	5.49
1.01177	5.49
1.02843	5.49
1.04510	5.49
1.06177	5.49
1.07843	5.49
1.09510	5.49
1.11177	5.49
1.12843	5.49
1.14510	5.49
1.16177	5.49
1.17843	5.49
1.19510	5.49
1.21177	5.49
1.22843	5.49
1.24510	5.49
1.26177	5.49
1.27843	5.49
1.29510	5.49
1.31177	5.49
1.32843	5.49
1.34510	5.49
1.36177	5.49
1.37843	5.49
1.39510	5.50
1.41177	5.49
1.42843	5.49
1.44510	5.49
1.46177	5.49
1.47843	5.49
1.49510	5.49
1.51177	5.49
1.52843	5.49
1.54510	5.49
1.56177	5.49
1.57843	5.49
1.59510	5.49
1.61177	5.49
1.62843	5.49
1.64510	5.48
1.66177	5.47
1.67843	5.46
1.69510	5.45
1.71177	5.44
1.72843	5.43
1.74510	5.42
1.76177	5.41
1.77843	5.40
1.79510	5.39
1.81177	5.38
1.82843	5.37
1.84510	5.36
1.86177	5.35
1.87843	5.34
1.89510	5.33
1.91177	5.32
1.92843	5.31
1.94510	5.30
1.96177	5.29
1.97843	5.28
1.99510	5.27
2.01177	5.26
2.02843	5.25
2.04510	5.24
2.06177	5.23
2.07843	5.22
2.09510	5.21
2.11177	5.20
2.12843	5.19
2.14510	5.19
2.16177	5.18
2.17843	5.17
2.19510	5.16
2.21177	5.15
2.22843	5.14
2.24510	5.13
2.26177	5.12
2.27843	5.11
2.29510	5.10
2.31177	5.09
2.32843	5.09
2.34510	5.08
2.36177	5.07
2.37843	5.06
2.39510	5.06
2.41177	5.06
2.42843	5.06
2.44510	5.06
2.46177	5.06
2.47843	5.06
2.49510	5.06
2.51177	5.06
2.52843	5.06
2.54510	5.06
2.56177	5.06
2.57843	5.06
2.59510	5.06
2.61177	5.06
2.62843	5.06
2.64510	5.06
2.66177	5.06
2.67843	5.06
2.69510	5.06
2.71177	5.06
2.72843	5.06
2.74510	5.06
2.76177	5.06
2.77843	5.06
2.79510	5.06
2.81177	5.06
2.82843	5.06
2.84510	5.06
2.86177	5.06
2.87843	5.06
2.89510	5.06
2.91177	5.06
2.92843	5.06
2.94510	5.06
2.96177	5.05
2.97843	5.05
2.99510	5.05
3.01177	5.05
3.02843	5.05
3.04510	5.05
3.06177	5.05
3.07843	5.05
3.09510	5.05
3.11177	5.05
3.12843	5.05
3.14510	5.05
3.16177	5.05
3.17843	5.05
3.19510	5.05
3.21177	5.05
3.22843	5.05
3.24510	5.05
3.26177	5.05
3.27843	5.05
3.29510	5.05
3.31177	5.05
3.32843	5.05
3.34510	5.05
3.36177	5.05
3.37843	5.05
3.39510	5.05
3.41177	5.05
3.42843	5.05
3.44510	5.05
3.46177	5.05
3.47843	5.05
3.49510	5.05
3.51177	5.05
3.52843	5.05
3.54510	5.05
3.56177	5.05
3.57843	5.05
3.59510	5.05
3.61177	5.05
3.62843	5.05
3.64510	5.05
3.66177	5.05
3.67843	5.05
3.69510	5.05
3.71177	5.05
3.72843	5.05
3.74510	5.05
3.76177	5.05
3.77843	5.05
3.79510	5.05
3.81177	5.05
3.82843	5.05
3.84510	5.05
3.86177	5.05
3.87843	5.05
3.89510	5.05
3.91177	5.05
3.92843	5.05
3.94510	5.05
3.96177	5.05
3.97843	5.05
3.99510	5.05

[Status Trace (Linear Velocity)]
Interval(msec)	1000
# of Points	240
Start Time(min)	0.012
End Time(min)	3.995
Intensity Units	
Intensity Multiplier	1
R.Time (min)	Intensity
0.01177	39.00
0.02843	37.04
0.04510	38.80
0.06177	40.15
0.07843	39.58
0.09510	39.00
0.11177	39.00
0.12843	39.01
0.14510	39.01
0.16177	39.01
0.17843	39.01
0.19510	39.01
0.21177	39.01
0.22843	39.01
0.24510	39.01
0.26177	39.01
0.27843	39.01
0.29510	39.01
0.31177	39.01
0.32843	39.01
0.34510	39.00
0.36177	39.01
0.37843	39.01
0.39510	39.01
0.41177	39.01
0.42843	39.01
0.44510	39.01
0.46177	39.01
0.47843	39.01
0.49510	39.01
0.51177	39.01
0.52843	39.01
0.54510	39.01
0.56177	39.01
0.57843	39.01
0.59510	39.01
0.61177	39.01
0.62843	39.01
0.64510	39.01
0.66177	39.01
0.67843	39.01
0.69510	39.01
0.71177	39.01
0.72843	39.01
0.74510	39.01
0.76177	39.01
0.77843	39.01
0.79510	39.01
0.81177	39.01
0.82843	39.01
0.84510	39.01
0.86177	39.01
0.87843	39.01
0.89510	39.01
0.91177	39.01
0.92843	39.01
0.94510	39.01
0.96177	39.01
0.97843	39.01
0.99510	39.01
1.01177	39.01
1.02843	39.01
1.04510	39.01
1.06177	39.01
1.07843	39.01
1.09510	39.01
1.11177	39.01
1.12843	39.01
1.14510	39.01
1.16177	39.01
1.17843	39.01
1.19510	39.01
1.21177	39.01
1.22843	39.01
1.24510	39.01
1.26177	39.01
1.27843	39.01
1.29510	39.01
1.31177	39.01
1.32843	39.01
1.34510	39.01
1.36177	39.01
1.37843	39.01
1.39510	39.01
1.41177	39.01
1.42843	39.01
1.44510	39.01
1.46177	39.01
1.47843	39.01
1.49510	39.01
1.51177	39.01
1.52843	39.01
1.54510	39.01
1.56177	39.01
1.57843	39.01
1.59510	39.01
1.61177	39.00
1.62843	38.99
1.64510	38.97
1.66177	38.94
1.67843	38.91
1.69510	38.88
1.71177	38.84
1.72843	38.81
1.74510	38.78
1.76177	38.75
1.77843	38.72
1.79510	38.69
1.81177	38.66
1.82843	38.62
1.84510	38.59
1.86177	38.56
1.87843	38.53
1.89510	38.50
1.91177	38.47
1.92843	38.44
1.94510	38.41
1.96177	38.38
1.97843	38.35
1.99510	38.32
2.01177	38.29
2.02843	38.26
2.04510	38.23
2.06177	38.20
2.07843	38.17
2.09510	38.14
2.11177	38.11
2.12843	38.08
2.14510	38.05
2.16177	38.02
2.17843	37.99
2.19510	37.96
2.21177	37.93
2.22843	37.90
2.24510	37.88
2.26177	37.84
2.27843	37.82
2.29510	37.78
2.31177	37.75
2.32843	37.73
2.34510	37.70
2.36177	37.67
2.37843	37.65
2.39510	37.65
2.41177	37.65
2.42843	37.65
2.44510	37.65
2.46177	37.65
2.47843	37.65
2.49510	37.65
2.51177	37.65
2.52843	37.64
2.54510	37.65
2.56177	37.65
2.57843	37.64
2.59510	37.64
2.61177	37.64
2.62843	37.64
2.64510	37.64
2.66177	37.64
2.67843	37.64
2.69510	37.64
2.71177	37.64
2.72843	37.64
2.74510	37.64
2.76177	37.64
2.77843	37.64
2.79510	37.64
2.81177	37.64
2.82843	37.64
2.84510	37.64
2.86177	37.63
2.87843	37.63
2.89510	37.63
2.91177	37.63
2.92843	37.63
2.94510	37.63
2.96177	37.63
2.97843	37.63
2.99510	37.63
3.01177	37.63
3.02843	37.63
3.04510	37.63
3.06177	37.63
3.07843	37.63
3.09510	37.63
3.11177	37.63
3.12843	37.62
3.14510	37.62
3.16177	37.62
3.17843	37.62
3.19510	37.62
3.21177	37.62
3.22843	37.62
3.24510	37.62
3.26177	37.62
3.27843	37.62
3.29510	37.62
3.31177	37.62
3.32843	37.62
3.34510	37.62
3.36177	37.62
3.37843	37.62
3.39510	37.62
3.41177	37.62
3.42843	37.62
3.44510	37.62
3.46177	37.62
3.47843	37.62
3.49510	37.62
3.51177	37.62
3.52843	37.62
3.54510	37.62
3.56177	37.62
3.57843	37.62
3.59510	37.62
3.61177	37.62
3.62843	37.62
3.64510	37.62
3.66177	37.62
3.67843	37.62
3.69510	37.62
3.71177	37.62
3.72843	37.62
3.74510	37.62
3.76177	37.62
3.77843	37.62
3.79510	37.62
3.81177	37.62
3.82843	37.62
3.84510	37.62
3.86177	37.62
3.87843	37.62
3.89510	37.62
3.91177	37.62
3.92843	37.62
3.94510	37.62
3.96177	37.62
3.97843	37.62
3.99510	37.62

