[Header]
Application Name	LabSolutions
Version	5.110
Data File Name	C:\Users\User\Desktop\Junior\UIC Prairie Sampling\6.2.23\06022023_012.gcd
Output Date	6/12/2023
Output Time	11:47:09 AM

[File Information]
Type	Data File
Generated	6/5/2023 3:12:56 PM
Generated by	System Administrator
Modified	6/5/2023 3:20:15 PM
Modified by	System Administrator

[Sample Information]
Operator Name	System Administrator
Acquired	6/5/2023 3:16:14 PM
Sample Type	0:Unknown
Level	0
Sample Name	012
Sample ID	012
ISTD Amount1	1
ISTD Amount2	1
ISTD Amount3	1
ISTD Amount4	1
ISTD Amount5	1
ISTD Amount6	1
ISTD Amount7	1
ISTD Amount8	1
ISTD Amount9	1
ISTD Amount10	1
ISTD Amount11	1
ISTD Amount12	1
ISTD Amount13	1
ISTD Amount14	1
ISTD Amount15	1
ISTD Amount16	1
ISTD Amount17	1
ISTD Amount18	1
ISTD Amount19	1
ISTD Amount20	1
ISTD Amount21	1
ISTD Amount22	1
ISTD Amount23	1
ISTD Amount24	1
ISTD Amount25	1
ISTD Amount26	1
ISTD Amount27	1
ISTD Amount28	1
ISTD Amount29	1
ISTD Amount30	1
ISTD Amount31	1
ISTD Amount32	1
Sample Amount	1
Dilution Factor	1
Vial#	11
Injection Volume	1
Injection Count	1
Bar Code	

[Original Files]
Data File	C:\Users\User\Desktop\Junior\UIC Prairie Sampling\6.2.23\06022023_012.gcd
Method File	C:\LabSolutions\Data\GHG_4min_2022\ghg3_togas_w_acet_4 min_new_int.gcm
Batch File	C:\LabSolutions\Data\AutoSamplerTesting\06022023.gcb
Report Format File	c:\LabSolutions\System\DEFAULT.lsr

[File Description]


[Configuration]
Instrument Name	C0B7VH3-Instrument1
Instrument #	1
Line #	1
# of Detectors	3
Detector ID	DET#1	DET#2	DET#3
Detector Name	FID	PTCD	ECD
# of Channels	1	1	1

[Peak Table(Ch1)]
# of Peaks	3
Peak#	R.Time	I.Time	F.Time	Area	Height	A/H	Conc.	Mark	ID#	Name	k'	Plate #	Plate Ht.	Tailing	Resolution	Sep.Factor	Area Ratio	Height Ratio	Conc. %	Norm Conc.
1	1.472	1.432	1.531	5231	2511	2.084	0.000	   	1	CO	0.000	9358	16.029	1.170	0.000	0.000	0	0	0.000	0.000
2	1.564	1.531	1.622	4404	2245	1.961	21.470	 V 	2	CH4	0.062	11656	12.869	1.149	1.543	0.000	0	0	9.199	9.199
3	1.989	1.941	2.370	1099633	533128	2.063	211.919	   	3	CO2	0.351	17399	8.621	1.251	7.194	5.640	0	0	90.801	90.801

[Peak Table(Ch2)]
# of Peaks	0

[Peak Table(Ch3)]
# of Peaks	3
Peak#	R.Time	I.Time	F.Time	Area	Height	A/H	Conc.	Mark	ID#	Name	k'	Plate #	Plate Ht.	Tailing	Resolution	Sep.Factor	Area Ratio	Height Ratio	Conc. %	Norm Conc.
1	2.499	2.403	2.506	2016	733	2.749	0.000	   			0.000	94	1598.312	0.000	0.000	0.000	0	0	0.000	0.000
2	2.550	2.506	2.821	11963	802	14.923	0.000	 V 			0.021	33	4484.602	0.000	0.037	0.000	0	0	0.000	0.000
3	2.891	2.821	3.555	27887	4861	5.736	0.413	 V 	1	N2O	0.157	11419	13.136	0.000	0.364	7.643	0	0	100.000	100.000

[Compound Results(Ch1)]
# of IDs	6
ID#	Name	R.Time	Area	Height	Conc.	Curve	3rd	2nd	1st	Constant	Area Ratio	Height Ratio	Conc. %	Norm Conc.
1	CO	1.472	5231	2511	0.000	Linear	0.000000e+00	0.000000e+00	0.000000e+00	0.000000e+00	0	0	0.000	0.000
2	CH4	1.564	4404	2245	21.470	Linear	0.000000e+00	0.000000e+00	2.051179e+002	0.000000e+00	0	0	9.199	9.199
3	CO2	1.989	1099633	533128	211.919	Linear	0.000000e+00	0.000000e+00	5.188919e+003	0.000000e+00	0	0	90.801	90.801
4	Ethylene	0.000	0	0	0.000	Linear	0.000000e+00	0.000000e+00	0.000000e+00	0.000000e+00	0	0	0.000	0.000
5	Acetylene	0.000	0	0	0.000	Linear	0.000000e+00	0.000000e+00	0.000000e+00	0.000000e+00	0	0	0.000	0.000
6	Ethane	0.000	0	0	0.000	Linear	0.000000e+00	0.000000e+00	0.000000e+00	0.000000e+00	0	0	0.000	0.000

[Compound Results(Ch2)]
# of IDs	5
ID#	Name	R.Time	Area	Height	Conc.	Curve	3rd	2nd	1st	Constant	Area Ratio	Height Ratio	Conc. %	Norm Conc.
1	Hydrogen	0.000	0	0	0.000	Linear	0.000000e+00	0.000000e+00	0.000000e+00	0.000000e+00	0	0	0.000	0.000
2	Oxygen	0.000	0	0	0.000	Linear	0.000000e+00	0.000000e+00	0.000000e+00	0.000000e+00	0	0	0.000	0.000
3	Nitrogen	0.000	0	0	0.000	Linear	0.000000e+00	0.000000e+00	0.000000e+00	0.000000e+00	0	0	0.000	0.000
4	Methane	0.000	0	0	0.000	Linear	0.000000e+00	0.000000e+00	0.000000e+00	0.000000e+00	0	0	0.000	0.000
5	Carbon Monoxide	0.000	0	0	0.000	Linear	0.000000e+00	0.000000e+00	0.000000e+00	0.000000e+00	0	0	0.000	0.000

[Compound Results(Ch3)]
# of IDs	2
ID#	Name	R.Time	Area	Height	Conc.	Curve	3rd	2nd	1st	Constant	Area Ratio	Height Ratio	Conc. %	Norm Conc.
1	N2O	2.891	27887	4861	0.413	Linear	0.000000e+00	0.000000e+00	6.759880e+004	0.000000e+00	0	0	100.000	100.000
2	SF6	0.000	0	0	0.000	Linear	0.000000e+00	0.000000e+00	0.000000e+00	0.000000e+00	0	0	0.000	0.000

[Group Results(Ch1)]
# of Groups	0

[Group Results(Ch2)]
# of Groups	0

[Group Results(Ch3)]
# of Groups	0

[Chromatogram (Ch1)]
Interval(msec)	220
# of Points	1091
Start Time(min)	0.002
End Time(min)	3.998
R.Time (min)	Intensity
0.00167	13
0.00533	11
0.00900	10
0.01267	11
0.01633	13
0.02000	9
0.02367	2
0.02733	-5
0.03100	-10
0.03467	-13
0.03833	-12
0.04200	-9
0.04567	-7
0.04933	-8
0.05300	-13
0.05667	-19
0.06033	-23
0.06400	-25
0.06767	-25
0.07133	-25
0.07500	-25
0.07867	-23
0.08233	-18
0.08600	-14
0.08967	-13
0.09333	-13
0.09700	-11
0.10067	-7
0.10433	-1
0.10800	2
0.11167	-3
0.11533	-14
0.11900	-25
0.12267	-33
0.12633	-37
0.13000	-36
0.13367	-31
0.13733	-28
0.14100	-25
0.14467	-22
0.14833	-21
0.15200	-23
0.15567	-27
0.15933	-31
0.16300	-33
0.16667	-30
0.17033	-24
0.17400	-19
0.17767	-17
0.18133	-15
0.18500	-15
0.18867	-15
0.19233	-18
0.19600	-22
0.19967	-27
0.20333	-31
0.20700	-32
0.21067	-31
0.21433	-30
0.21800	-29
0.22167	-26
0.22533	-23
0.22900	-21
0.23267	-22
0.23633	-24
0.24000	-25
0.24367	-26
0.24733	-27
0.25100	-23
0.25467	-17
0.25833	-9
0.26200	-0
0.26567	9
0.26933	13
0.27300	7
0.27667	-1
0.28033	-7
0.28400	-14
0.28767	-21
0.29133	-29
0.29500	-33
0.29867	-31
0.30233	-26
0.30600	-22
0.30967	-21
0.31333	-22
0.31700	-24
0.32067	-25
0.32433	-20
0.32800	-15
0.33167	-13
0.33533	-15
0.33900	-19
0.34267	-24
0.34633	-30
0.35000	-34
0.35367	-33
0.35733	-30
0.36100	-27
0.36467	-24
0.36833	-21
0.37200	-18
0.37567	-16
0.37933	-15
0.38300	-13
0.38667	-11
0.39033	-13
0.39400	-16
0.39767	-20
0.40133	-29
0.40500	-40
0.40867	-49
0.41233	-52
0.41600	-51
0.41967	-47
0.42333	-41
0.42700	-30
0.43067	-20
0.43433	-12
0.43800	-7
0.44167	-5
0.44533	-8
0.44900	-14
0.45267	-19
0.45633	-22
0.46000	-23
0.46367	-25
0.46733	-28
0.47100	-31
0.47467	-33
0.47833	-34
0.48200	-34
0.48567	-32
0.48933	-27
0.49300	-24
0.49667	-27
0.50033	-33
0.50400	-38
0.50767	-41
0.51133	-43
0.51500	-45
0.51867	-44
0.52233	-41
0.52600	-37
0.52967	-36
0.53333	-38
0.53700	-38
0.54067	-40
0.54433	-41
0.54800	-38
0.55167	-34
0.55533	-32
0.55900	-31
0.56267	-28
0.56633	-27
0.57000	-30
0.57367	-35
0.57733	-36
0.58100	-32
0.58467	-28
0.58833	-27
0.59200	-28
0.59567	-30
0.59933	-31
0.60300	-28
0.60667	-26
0.61033	-24
0.61400	-20
0.61767	-17
0.62133	-17
0.62500	-21
0.62867	-25
0.63233	-27
0.63600	-28
0.63967	-31
0.64333	-34
0.64700	-34
0.65067	-35
0.65433	-39
0.65800	-44
0.66167	-49
0.66533	-53
0.66900	-58
0.67267	-67
0.67633	-73
0.68000	-74
0.68367	-70
0.68733	-69
0.69100	-70
0.69467	-68
0.69833	-60
0.70200	-52
0.70567	-52
0.70933	-57
0.71300	-61
0.71667	-62
0.72033	-61
0.72400	-58
0.72767	-55
0.73133	-53
0.73500	-50
0.73867	-46
0.74233	-41
0.74600	-33
0.74967	-29
0.75333	-30
0.75700	-33
0.76067	-34
0.76433	-33
0.76800	-33
0.77167	-34
0.77533	-35
0.77900	-38
0.78267	-41
0.78633	-41
0.79000	-42
0.79367	-43
0.79733	-47
0.80100	-51
0.80467	-53
0.80833	-52
0.81200	-47
0.81567	-42
0.81933	-39
0.82300	-40
0.82667	-44
0.83033	-46
0.83400	-45
0.83767	-45
0.84133	-44
0.84500	-42
0.84867	-41
0.85233	-40
0.85600	-40
0.85967	-41
0.86333	-41
0.86700	-43
0.87067	-46
0.87433	-47
0.87800	-52
0.88167	-59
0.88533	-63
0.88900	-62
0.89267	-58
0.89633	-54
0.90000	-49
0.90367	-42
0.90733	-37
0.91100	-35
0.91467	-36
0.91833	-39
0.92200	-46
0.92567	-57
0.92933	-65
0.93300	-70
0.93667	-71
0.94033	-70
0.94400	-65
0.94767	-60
0.95133	-61
0.95500	-61
0.95867	-59
0.96233	-55
0.96600	-52
0.96967	-51
0.97333	-52
0.97700	-52
0.98067	-52
0.98433	-49
0.98800	-45
0.99167	-44
0.99533	-48
0.99900	-51
1.00267	-55
1.00633	-59
1.01000	-64
1.01367	-65
1.01733	-65
1.02100	-68
1.02467	-75
1.02833	-78
1.03200	-75
1.03567	-72
1.03933	-75
1.04300	-80
1.04667	-82
1.05033	-79
1.05400	-76
1.05767	-77
1.06133	-82
1.06500	-88
1.06867	-92
1.07233	-95
1.07600	-96
1.07967	-95
1.08333	-92
1.08700	-89
1.09067	-85
1.09433	-81
1.09800	-78
1.10167	-73
1.10533	-69
1.10900	-65
1.11267	-62
1.11633	-59
1.12000	-61
1.12367	-66
1.12733	-70
1.13100	-72
1.13467	-71
1.13833	-70
1.14200	-66
1.14567	-61
1.14933	-57
1.15300	-56
1.15667	-57
1.16033	-61
1.16400	-67
1.16767	-70
1.17133	-69
1.17500	-66
1.17867	-62
1.18233	-61
1.18600	-65
1.18967	-71
1.19333	-77
1.19700	-81
1.20067	-81
1.20433	-78
1.20800	-72
1.21167	-67
1.21533	-68
1.21900	-72
1.22267	-75
1.22633	-78
1.23000	-85
1.23367	-95
1.23733	-104
1.24100	-110
1.24467	-111
1.24833	-110
1.25200	-106
1.25567	-102
1.25933	-100
1.26300	-97
1.26667	-92
1.27033	-88
1.27400	-80
1.27767	-72
1.28133	-68
1.28500	-69
1.28867	-74
1.29233	-79
1.29600	-83
1.29967	-86
1.30333	-88
1.30700	-89
1.31067	-88
1.31433	-87
1.31800	-86
1.32167	-82
1.32533	-76
1.32900	-71
1.33267	-70
1.33633	-75
1.34000	-82
1.34367	-90
1.34733	-97
1.35100	-102
1.35467	-104
1.35833	-102
1.36200	-97
1.36567	-93
1.36933	-89
1.37300	-87
1.37667	-85
1.38033	-81
1.38400	-73
1.38767	-66
1.39133	-61
1.39500	-59
1.39867	-56
1.40233	-56
1.40600	-60
1.40967	-69
1.41333	-82
1.41700	-95
1.42067	-103
1.42433	-109
1.42800	-112
1.43167	-107
1.43533	-85
1.43900	-41
1.44267	28
1.44633	180
1.45000	503
1.45367	966
1.45733	1451
1.46100	1869
1.46467	2183
1.46833	2369
1.47200	2401
1.47567	2261
1.47933	1970
1.48300	1593
1.48667	1204
1.49033	864
1.49400	593
1.49767	389
1.50133	238
1.50500	132
1.50867	59
1.51233	10
1.51600	-23
1.51967	-49
1.52333	-70
1.52700	-87
1.53067	-92
1.53433	-51
1.53800	93
1.54167	389
1.54533	806
1.54900	1253
1.55267	1648
1.55633	1943
1.56000	2113
1.56367	2131
1.56733	1976
1.57100	1673
1.57467	1303
1.57833	941
1.58200	636
1.58567	406
1.58933	243
1.59300	128
1.59667	48
1.60033	-8
1.60400	-47
1.60767	-74
1.61133	-92
1.61500	-103
1.61867	-111
1.62233	-118
1.62600	-119
1.62967	-116
1.63333	-114
1.63700	-112
1.64067	-110
1.64433	-110
1.64800	-115
1.65167	-123
1.65533	-132
1.65900	-142
1.66267	-149
1.66633	-152
1.67000	-152
1.67367	-152
1.67733	-150
1.68100	-148
1.68467	-147
1.68833	-148
1.69200	-148
1.69567	-145
1.69933	-143
1.70300	-139
1.70667	-136
1.71033	-134
1.71400	-133
1.71767	-135
1.72133	-135
1.72500	-135
1.72867	-135
1.73233	-136
1.73600	-135
1.73967	-133
1.74333	-133
1.74700	-133
1.75067	-133
1.75433	-131
1.75800	-131
1.76167	-133
1.76533	-132
1.76900	-129
1.77267	-124
1.77633	-121
1.78000	-123
1.78367	-127
1.78733	-134
1.79100	-138
1.79467	-137
1.79833	-133
1.80200	-131
1.80567	-132
1.80933	-135
1.81300	-141
1.81667	-147
1.82033	-147
1.82400	-144
1.82767	-142
1.83133	-142
1.83500	-144
1.83867	-148
1.84233	-150
1.84600	-149
1.84967	-147
1.85333	-145
1.85700	-142
1.86067	-141
1.86433	-142
1.86800	-142
1.87167	-140
1.87533	-139
1.87900	-140
1.88267	-143
1.88633	-147
1.89000	-148
1.89367	-146
1.89733	-142
1.90100	-137
1.90467	-136
1.90833	-138
1.91200	-139
1.91567	-136
1.91933	-132
1.92300	-128
1.92667	-126
1.93033	-125
1.93400	-126
1.93767	-124
1.94133	-120
1.94500	-100
1.94867	31
1.95233	730
1.95600	3764
1.95967	13803
1.96333	39260
1.96700	89327
1.97067	166990
1.97433	264275
1.97800	365140
1.98167	452010
1.98533	510974
1.98900	533036
1.99267	515963
1.99633	464970
2.00000	391773
2.00367	310944
2.00733	234861
2.01100	170798
2.01467	121001
2.01833	84431
2.02200	58602
2.02567	40820
2.02933	28763
2.03300	20644
2.03667	15174
2.04033	11465
2.04400	8919
2.04767	7134
2.05133	5853
2.05500	4913
2.05867	4207
2.06233	3666
2.06600	3241
2.06967	2901
2.07333	2622
2.07700	2388
2.08067	2187
2.08433	2013
2.08800	1861
2.09167	1728
2.09533	1614
2.09900	1512
2.10267	1422
2.10633	1342
2.11000	1266
2.11367	1190
2.11733	1119
2.12100	1052
2.12467	991
2.12833	939
2.13200	895
2.13567	852
2.13933	810
2.14300	771
2.14667	737
2.15033	709
2.15400	687
2.15767	668
2.16133	649
2.16500	627
2.16867	603
2.17233	580
2.17600	557
2.17967	535
2.18333	513
2.18700	492
2.19067	473
2.19433	460
2.19800	453
2.20167	448
2.20533	437
2.20900	421
2.21267	403
2.21633	385
2.22000	367
2.22367	353
2.22733	346
2.23100	342
2.23467	336
2.23833	325
2.24200	311
2.24567	299
2.24933	290
2.25300	283
2.25667	276
2.26033	272
2.26400	270
2.26767	267
2.27133	260
2.27500	252
2.27867	243
2.28233	231
2.28600	224
2.28967	219
2.29333	218
2.29700	217
2.30067	214
2.30433	207
2.30800	197
2.31167	187
2.31533	175
2.31900	163
2.32267	154
2.32633	151
2.33000	152
2.33367	152
2.33733	151
2.34100	149
2.34467	147
2.34833	144
2.35200	140
2.35567	139
2.35933	137
2.36300	133
2.36667	132
2.37033	130
2.37400	128
2.37767	125
2.38133	122
2.38500	120
2.38867	120
2.39233	120
2.39600	121
2.39967	124
2.40333	129
2.40700	131
2.41067	130
2.41433	124
2.41800	119
2.42167	117
2.42533	116
2.42900	115
2.43267	108
2.43633	103
2.44000	102
2.44367	103
2.44733	101
2.45100	96
2.45467	89
2.45833	80
2.46200	73
2.46567	68
2.46933	67
2.47300	67
2.47667	64
2.48033	59
2.48400	56
2.48767	53
2.49133	51
2.49500	51
2.49867	53
2.50233	60
2.50600	69
2.50967	73
2.51333	72
2.51700	69
2.52067	66
2.52433	65
2.52800	69
2.53167	77
2.53533	82
2.53900	83
2.54267	81
2.54633	74
2.55000	69
2.55367	65
2.55733	60
2.56100	57
2.56467	52
2.56833	49
2.57200	48
2.57567	51
2.57933	54
2.58300	58
2.58667	58
2.59033	55
2.59400	49
2.59767	40
2.60133	32
2.60500	29
2.60867	30
2.61233	33
2.61600	37
2.61967	41
2.62333	46
2.62700	47
2.63067	46
2.63433	45
2.63800	42
2.64167	38
2.64533	40
2.64900	46
2.65267	52
2.65633	57
2.66000	60
2.66367	60
2.66733	61
2.67100	62
2.67467	64
2.67833	65
2.68200	64
2.68567	59
2.68933	51
2.69300	45
2.69667	44
2.70033	43
2.70400	38
2.70767	32
2.71133	26
2.71500	19
2.71867	15
2.72233	12
2.72600	14
2.72967	18
2.73333	24
2.73700	32
2.74067	42
2.74433	53
2.74800	62
2.75167	66
2.75533	62
2.75900	56
2.76267	51
2.76633	49
2.77000	52
2.77367	57
2.77733	60
2.78100	65
2.78467	70
2.78833	71
2.79200	67
2.79567	60
2.79933	51
2.80300	45
2.80667	40
2.81033	34
2.81400	29
2.81767	28
2.82133	31
2.82500	34
2.82867	36
2.83233	38
2.83600	40
2.83967	41
2.84333	43
2.84700	45
2.85067	47
2.85433	51
2.85800	57
2.86167	61
2.86533	61
2.86900	57
2.87267	53
2.87633	48
2.88000	42
2.88367	38
2.88733	34
2.89100	30
2.89467	31
2.89833	43
2.90200	60
2.90567	76
2.90933	83
2.91300	75
2.91667	62
2.92033	51
2.92400	40
2.92767	34
2.93133	37
2.93500	44
2.93867	50
2.94233	55
2.94600	58
2.94967	59
2.95333	58
2.95700	58
2.96067	54
2.96433	44
2.96800	30
2.97167	20
2.97533	17
2.97900	22
2.98267	33
2.98633	45
2.99000	53
2.99367	56
2.99733	56
3.00100	53
3.00467	50
3.00833	49
3.01200	51
3.01567	55
3.01933	61
3.02300	66
3.02667	71
3.03033	75
3.03400	77
3.03767	79
3.04133	78
3.04500	72
3.04867	62
3.05233	53
3.05600	45
3.05967	43
3.06333	47
3.06700	54
3.07067	59
3.07433	62
3.07800	62
3.08167	60
3.08533	56
3.08900	51
3.09267	46
3.09633	39
3.10000	32
3.10367	28
3.10733	28
3.11100	31
3.11467	32
3.11833	31
3.12200	29
3.12567	26
3.12933	25
3.13300	27
3.13667	30
3.14033	32
3.14400	33
3.14767	34
3.15133	36
3.15500	34
3.15867	32
3.16233	33
3.16600	38
3.16967	45
3.17333	57
3.17700	66
3.18067	73
3.18433	80
3.18800	84
3.19167	82
3.19533	74
3.19900	61
3.20267	46
3.20633	31
3.21000	19
3.21367	11
3.21733	7
3.22100	5
3.22467	6
3.22833	9
3.23200	13
3.23567	17
3.23933	20
3.24300	23
3.24667	26
3.25033	29
3.25400	33
3.25767	38
3.26133	42
3.26500	43
3.26867	42
3.27233	42
3.27600	42
3.27967	42
3.28333	41
3.28700	39
3.29067	37
3.29433	39
3.29800	41
3.30167	45
3.30533	46
3.30900	44
3.31267	41
3.31633	39
3.32000	42
3.32367	46
3.32733	50
3.33100	51
3.33467	53
3.33833	56
3.34200	57
3.34567	54
3.34933	50
3.35300	48
3.35667	47
3.36033	42
3.36400	32
3.36767	24
3.37133	23
3.37500	29
3.37867	37
3.38233	47
3.38600	54
3.38967	58
3.39333	58
3.39700	49
3.40067	34
3.40433	19
3.40800	8
3.41167	-0
3.41533	-6
3.41900	-9
3.42267	-10
3.42633	-12
3.43000	-14
3.43367	-15
3.43733	-16
3.44100	-15
3.44467	-14
3.44833	-14
3.45200	-12
3.45567	-6
3.45933	-1
3.46300	3
3.46667	8
3.47033	12
3.47400	16
3.47767	17
3.48133	14
3.48500	12
3.48867	10
3.49233	10
3.49600	13
3.49967	19
3.50333	26
3.50700	32
3.51067	39
3.51433	43
3.51800	46
3.52167	45
3.52533	42
3.52900	37
3.53267	30
3.53633	21
3.54000	12
3.54367	3
3.54733	-2
3.55100	-6
3.55467	-10
3.55833	-10
3.56200	-5
3.56567	-1
3.56933	-0
3.57300	-2
3.57667	0
3.58033	5
3.58400	8
3.58767	9
3.59133	9
3.59500	10
3.59867	12
3.60233	13
3.60600	12
3.60967	10
3.61333	9
3.61700	9
3.62067	11
3.62433	18
3.62800	29
3.63167	38
3.63533	39
3.63900	26
3.64267	7
3.64633	-4
3.65000	-10
3.65367	-12
3.65733	-12
3.66100	-10
3.66467	-7
3.66833	0
3.67200	8
3.67567	16
3.67933	19
3.68300	16
3.68667	7
3.69033	-2
3.69400	-13
3.69767	-26
3.70133	-39
3.70500	-50
3.70867	-54
3.71233	-53
3.71600	-47
3.71967	-38
3.72333	-28
3.72700	-17
3.73067	-9
3.73433	-4
3.73800	-2
3.74167	-4
3.74533	-7
3.74900	-11
3.75267	-11
3.75633	-6
3.76000	-0
3.76367	1
3.76733	2
3.77100	4
3.77467	2
3.77833	-7
3.78200	-20
3.78567	-29
3.78933	-32
3.79300	-32
3.79667	-29
3.80033	-26
3.80400	-22
3.80767	-18
3.81133	-14
3.81500	-11
3.81867	-7
3.82233	-4
3.82600	-7
3.82967	-17
3.83333	-27
3.83700	-33
3.84067	-32
3.84433	-27
3.84800	-23
3.85167	-19
3.85533	-14
3.85900	-10
3.86267	-9
3.86633	-6
3.87000	-2
3.87367	3
3.87733	5
3.88100	3
3.88467	-2
3.88833	-8
3.89200	-11
3.89567	-10
3.89933	-10
3.90300	-11
3.90667	-10
3.91033	-9
3.91400	-7
3.91767	-6
3.92133	-4
3.92500	-2
3.92867	-2
3.93233	-2
3.93600	1
3.93967	9
3.94333	17
3.94700	22
3.95067	23
3.95433	21
3.95800	16
3.96167	12
3.96533	11
3.96900	14
3.97267	19
3.97633	21
3.98000	20
3.98367	19
3.98733	20
3.99100	17
3.99467	12
3.99833	5

[Chromatogram (Ch2)]
Interval(msec)	220
# of Points	1091
Start Time(min)	0.002
End Time(min)	3.998
R.Time (min)	Intensity
0.00167	-1
0.00533	-1
0.00900	-1
0.01267	-1
0.01633	-2
0.02000	-2
0.02367	-2
0.02733	-2
0.03100	-2
0.03467	-2
0.03833	-2
0.04200	-1
0.04567	-1
0.04933	-1
0.05300	-0
0.05667	-0
0.06033	-1
0.06400	-1
0.06767	-1
0.07133	-2
0.07500	-2
0.07867	-2
0.08233	-2
0.08600	-2
0.08967	-2
0.09333	-2
0.09700	-2
0.10067	-2
0.10433	-2
0.10800	-2
0.11167	-2
0.11533	-2
0.11900	-1
0.12267	-1
0.12633	-1
0.13000	-1
0.13367	-1
0.13733	-1
0.14100	-1
0.14467	-0
0.14833	-0
0.15200	0
0.15567	0
0.15933	0
0.16300	0
0.16667	0
0.17033	0
0.17400	0
0.17767	0
0.18133	-0
0.18500	-0
0.18867	-0
0.19233	-1
0.19600	-1
0.19967	-1
0.20333	-1
0.20700	-2
0.21067	-2
0.21433	-1
0.21800	-1
0.22167	-1
0.22533	-1
0.22900	-1
0.23267	-1
0.23633	-1
0.24000	-1
0.24367	-1
0.24733	-1
0.25100	-1
0.25467	-1
0.25833	-1
0.26200	-1
0.26567	-1
0.26933	-1
0.27300	-2
0.27667	-2
0.28033	-2
0.28400	-2
0.28767	-2
0.29133	-2
0.29500	-2
0.29867	-2
0.30233	-2
0.30600	-2
0.30967	-2
0.31333	-2
0.31700	-2
0.32067	-2
0.32433	-1
0.32800	-1
0.33167	-1
0.33533	-1
0.33900	-1
0.34267	-1
0.34633	-1
0.35000	-1
0.35367	-1
0.35733	-1
0.36100	-1
0.36467	-1
0.36833	-1
0.37200	-1
0.37567	-1
0.37933	-1
0.38300	-0
0.38667	-0
0.39033	-0
0.39400	-0
0.39767	-0
0.40133	-0
0.40500	-0
0.40867	-0
0.41233	-0
0.41600	-1
0.41967	-1
0.42333	-1
0.42700	-1
0.43067	-1
0.43433	-1
0.43800	-1
0.44167	-1
0.44533	-1
0.44900	-2
0.45267	-2
0.45633	-2
0.46000	-2
0.46367	-2
0.46733	-2
0.47100	-1
0.47467	-1
0.47833	-1
0.48200	-2
0.48567	-2
0.48933	-2
0.49300	-2
0.49667	-1
0.50033	-1
0.50400	-1
0.50767	-1
0.51133	-1
0.51500	-1
0.51867	-1
0.52233	-1
0.52600	-1
0.52967	-1
0.53333	-1
0.53700	-0
0.54067	-0
0.54433	-0
0.54800	0
0.55167	0
0.55533	0
0.55900	-0
0.56267	-0
0.56633	-0
0.57000	-1
0.57367	-1
0.57733	-1
0.58100	-1
0.58467	-1
0.58833	-0
0.59200	-0
0.59567	0
0.59933	0
0.60300	1
0.60667	1
0.61033	1
0.61400	1
0.61767	0
0.62133	0
0.62500	0
0.62867	-0
0.63233	-0
0.63600	-1
0.63967	-1
0.64333	-1
0.64700	-1
0.65067	-1
0.65433	-1
0.65800	-1
0.66167	-1
0.66533	-1
0.66900	-1
0.67267	-1
0.67633	-1
0.68000	-2
0.68367	-2
0.68733	-2
0.69100	-2
0.69467	-2
0.69833	-2
0.70200	-2
0.70567	-2
0.70933	-2
0.71300	-2
0.71667	-2
0.72033	-2
0.72400	-2
0.72767	-2
0.73133	-2
0.73500	-2
0.73867	-2
0.74233	-1
0.74600	-1
0.74967	-1
0.75333	-1
0.75700	-1
0.76067	-1
0.76433	-1
0.76800	-1
0.77167	-1
0.77533	-2
0.77900	-2
0.78267	-2
0.78633	-2
0.79000	-2
0.79367	-2
0.79733	-2
0.80100	-2
0.80467	-2
0.80833	-3
0.81200	-3
0.81567	-3
0.81933	-3
0.82300	-3
0.82667	-3
0.83033	-3
0.83400	-3
0.83767	-3
0.84133	-2
0.84500	-2
0.84867	-2
0.85233	-2
0.85600	-2
0.85967	-2
0.86333	-2
0.86700	-2
0.87067	-2
0.87433	-2
0.87800	-2
0.88167	-2
0.88533	-2
0.88900	-2
0.89267	-2
0.89633	-2
0.90000	-2
0.90367	-1
0.90733	-1
0.91100	-1
0.91467	-1
0.91833	-1
0.92200	-1
0.92567	-1
0.92933	-1
0.93300	-1
0.93667	-1
0.94033	-1
0.94400	-1
0.94767	-1
0.95133	-1
0.95500	-1
0.95867	-1
0.96233	-1
0.96600	-1
0.96967	-1
0.97333	-1
0.97700	-1
0.98067	-1
0.98433	-1
0.98800	-1
0.99167	-1
0.99533	-1
0.99900	-1
1.00267	-1
1.00633	-1
1.01000	-1
1.01367	-1
1.01733	-1
1.02100	-1
1.02467	-1
1.02833	-1
1.03200	-0
1.03567	-1
1.03933	-1
1.04300	-1
1.04667	-1
1.05033	-1
1.05400	-2
1.05767	-2
1.06133	-2
1.06500	-2
1.06867	-2
1.07233	-3
1.07600	-3
1.07967	-3
1.08333	-3
1.08700	-3
1.09067	-3
1.09433	-3
1.09800	-3
1.10167	-2
1.10533	-2
1.10900	-2
1.11267	-1
1.11633	-0
1.12000	0
1.12367	0
1.12733	0
1.13100	0
1.13467	0
1.13833	-0
1.14200	-0
1.14567	-0
1.14933	-0
1.15300	-0
1.15667	-0
1.16033	-0
1.16400	-1
1.16767	-1
1.17133	-1
1.17500	-1
1.17867	-2
1.18233	-2
1.18600	-2
1.18967	-3
1.19333	-3
1.19700	-3
1.20067	-3
1.20433	-3
1.20800	-3
1.21167	-3
1.21533	-3
1.21900	-3
1.22267	-3
1.22633	-3
1.23000	-3
1.23367	-3
1.23733	-3
1.24100	-3
1.24467	-3
1.24833	-3
1.25200	-3
1.25567	-3
1.25933	-3
1.26300	-3
1.26667	-3
1.27033	-3
1.27400	-3
1.27767	-3
1.28133	-2
1.28500	-2
1.28867	-2
1.29233	-2
1.29600	-2
1.29967	-1
1.30333	-1
1.30700	-1
1.31067	-2
1.31433	-2
1.31800	-2
1.32167	-2
1.32533	-2
1.32900	-2
1.33267	-2
1.33633	-2
1.34000	-2
1.34367	-2
1.34733	-2
1.35100	-2
1.35467	-2
1.35833	-2
1.36200	-2
1.36567	-2
1.36933	-2
1.37300	-2
1.37667	-2
1.38033	-2
1.38400	-2
1.38767	-2
1.39133	-2
1.39500	-2
1.39867	-2
1.40233	-3
1.40600	-3
1.40967	-3
1.41333	-3
1.41700	-3
1.42067	-3
1.42433	-3
1.42800	-3
1.43167	-3
1.43533	-3
1.43900	-3
1.44267	-3
1.44633	-3
1.45000	-3
1.45367	-3
1.45733	-3
1.46100	-3
1.46467	-3
1.46833	-2
1.47200	-2
1.47567	-2
1.47933	-2
1.48300	-2
1.48667	-2
1.49033	-2
1.49400	-2
1.49767	-2
1.50133	-2
1.50500	-2
1.50867	-2
1.51233	-2
1.51600	-2
1.51967	-2
1.52333	-3
1.52700	-3
1.53067	-3
1.53433	-3
1.53800	-3
1.54167	-4
1.54533	-4
1.54900	-4
1.55267	-5
1.55633	-5
1.56000	-5
1.56367	-5
1.56733	-5
1.57100	-5
1.57467	-5
1.57833	-5
1.58200	-5
1.58567	-5
1.58933	-5
1.59300	-5
1.59667	-6
1.60033	-6
1.60400	-7
1.60767	-9
1.61133	-10
1.61500	-12
1.61867	-14
1.62233	-16
1.62600	-19
1.62967	-22
1.63333	-25
1.63700	-28
1.64067	-31
1.64433	-34
1.64800	-37
1.65167	-40
1.65533	-43
1.65900	-46
1.66267	-49
1.66633	-53
1.67000	-57
1.67367	-61
1.67733	-66
1.68100	-70
1.68467	-75
1.68833	-79
1.69200	-82
1.69567	-86
1.69933	-88
1.70300	-90
1.70667	-92
1.71033	-94
1.71400	-95
1.71767	-96
1.72133	-96
1.72500	-97
1.72867	-98
1.73233	-98
1.73600	-99
1.73967	-100
1.74333	-101
1.74700	-102
1.75067	-103
1.75433	-103
1.75800	-104
1.76167	-104
1.76533	-104
1.76900	-105
1.77267	-105
1.77633	-105
1.78000	-105
1.78367	-105
1.78733	-105
1.79100	-105
1.79467	-105
1.79833	-106
1.80200	-106
1.80567	-106
1.80933	-106
1.81300	-106
1.81667	-105
1.82033	-105
1.82400	-104
1.82767	-104
1.83133	-104
1.83500	-104
1.83867	-104
1.84233	-104
1.84600	-105
1.84967	-105
1.85333	-106
1.85700	-106
1.86067	-106
1.86433	-106
1.86800	-106
1.87167	-107
1.87533	-107
1.87900	-107
1.88267	-107
1.88633	-107
1.89000	-108
1.89367	-107
1.89733	-107
1.90100	-106
1.90467	-106
1.90833	-105
1.91200	-105
1.91567	-104
1.91933	-104
1.92300	-104
1.92667	-104
1.93033	-104
1.93400	-104
1.93767	-105
1.94133	-104
1.94500	-104
1.94867	-104
1.95233	-104
1.95600	-103
1.95967	-103
1.96333	-102
1.96700	-101
1.97067	-101
1.97433	-101
1.97800	-101
1.98167	-101
1.98533	-101
1.98900	-100
1.99267	-100
1.99633	-100
2.00000	-99
2.00367	-99
2.00733	-99
2.01100	-98
2.01467	-98
2.01833	-97
2.02200	-96
2.02567	-96
2.02933	-95
2.03300	-95
2.03667	-95
2.04033	-95
2.04400	-95
2.04767	-95
2.05133	-94
2.05500	-94
2.05867	-94
2.06233	-93
2.06600	-93
2.06967	-92
2.07333	-92
2.07700	-92
2.08067	-92
2.08433	-92
2.08800	-91
2.09167	-91
2.09533	-90
2.09900	-89
2.10267	-88
2.10633	-87
2.11000	-87
2.11367	-86
2.11733	-86
2.12100	-87
2.12467	-87
2.12833	-87
2.13200	-87
2.13567	-87
2.13933	-87
2.14300	-87
2.14667	-87
2.15033	-87
2.15400	-87
2.15767	-87
2.16133	-87
2.16500	-86
2.16867	-86
2.17233	-85
2.17600	-85
2.17967	-85
2.18333	-84
2.18700	-84
2.19067	-84
2.19433	-84
2.19800	-84
2.20167	-83
2.20533	-83
2.20900	-84
2.21267	-84
2.21633	-85
2.22000	-85
2.22367	-86
2.22733	-85
2.23100	-85
2.23467	-84
2.23833	-83
2.24200	-81
2.24567	-80
2.24933	-79
2.25300	-78
2.25667	-78
2.26033	-78
2.26400	-78
2.26767	-77
2.27133	-78
2.27500	-78
2.27867	-78
2.28233	-78
2.28600	-78
2.28967	-78
2.29333	-77
2.29700	-76
2.30067	-76
2.30433	-75
2.30800	-74
2.31167	-73
2.31533	-73
2.31900	-72
2.32267	-72
2.32633	-72
2.33000	-72
2.33367	-73
2.33733	-74
2.34100	-74
2.34467	-74
2.34833	-73
2.35200	-72
2.35567	-71
2.35933	-69
2.36300	-67
2.36667	-64
2.37033	-62
2.37400	-59
2.37767	-55
2.38133	-52
2.38500	-48
2.38867	-44
2.39233	-40
2.39600	-36
2.39967	-31
2.40333	-27
2.40700	-23
2.41067	-20
2.41433	-17
2.41800	-14
2.42167	-12
2.42533	-10
2.42900	-8
2.43267	-6
2.43633	-4
2.44000	-2
2.44367	-0
2.44733	1
2.45100	3
2.45467	4
2.45833	6
2.46200	7
2.46567	8
2.46933	9
2.47300	10
2.47667	11
2.48033	11
2.48400	12
2.48767	13
2.49133	14
2.49500	14
2.49867	14
2.50233	14
2.50600	14
2.50967	14
2.51333	13
2.51700	13
2.52067	12
2.52433	12
2.52800	11
2.53167	11
2.53533	10
2.53900	10
2.54267	9
2.54633	9
2.55000	9
2.55367	10
2.55733	10
2.56100	11
2.56467	11
2.56833	11
2.57200	12
2.57567	12
2.57933	12
2.58300	13
2.58667	13
2.59033	14
2.59400	14
2.59767	14
2.60133	15
2.60500	15
2.60867	15
2.61233	15
2.61600	16
2.61967	16
2.62333	16
2.62700	16
2.63067	17
2.63433	17
2.63800	17
2.64167	17
2.64533	17
2.64900	18
2.65267	18
2.65633	18
2.66000	18
2.66367	19
2.66733	19
2.67100	20
2.67467	20
2.67833	20
2.68200	20
2.68567	20
2.68933	20
2.69300	20
2.69667	20
2.70033	20
2.70400	20
2.70767	20
2.71133	20
2.71500	21
2.71867	21
2.72233	22
2.72600	23
2.72967	23
2.73333	23
2.73700	23
2.74067	23
2.74433	23
2.74800	23
2.75167	23
2.75533	23
2.75900	24
2.76267	24
2.76633	24
2.77000	24
2.77367	25
2.77733	25
2.78100	25
2.78467	26
2.78833	26
2.79200	26
2.79567	26
2.79933	27
2.80300	27
2.80667	28
2.81033	28
2.81400	28
2.81767	28
2.82133	28
2.82500	27
2.82867	27
2.83233	26
2.83600	25
2.83967	25
2.84333	24
2.84700	24
2.85067	24
2.85433	24
2.85800	23
2.86167	21
2.86533	18
2.86900	13
2.87267	5
2.87633	-7
2.88000	-24
2.88367	-45
2.88733	-71
2.89100	-103
2.89467	-140
2.89833	-181
2.90200	-227
2.90567	-278
2.90933	-332
2.91300	-388
2.91667	-448
2.92033	-508
2.92400	-570
2.92767	-631
2.93133	-692
2.93500	-751
2.93867	-807
2.94233	-859
2.94600	-911
2.94967	-964
2.95333	-1018
2.95700	-1066
2.96067	-1097
2.96433	-1104
2.96800	-1086
2.97167	-1046
2.97533	-987
2.97900	-916
2.98267	-839
2.98633	-758
2.99000	-678
2.99367	-601
2.99733	-529
3.00100	-463
3.00467	-403
3.00833	-349
3.01200	-300
3.01567	-258
3.01933	-221
3.02300	-188
3.02667	-160
3.03033	-135
3.03400	-114
3.03767	-96
3.04133	-80
3.04500	-67
3.04867	-55
3.05233	-45
3.05600	-37
3.05967	-30
3.06333	-23
3.06700	-18
3.07067	-13
3.07433	-9
3.07800	-6
3.08167	-3
3.08533	-0
3.08900	2
3.09267	4
3.09633	6
3.10000	7
3.10367	9
3.10733	10
3.11100	10
3.11467	11
3.11833	12
3.12200	13
3.12567	14
3.12933	14
3.13300	14
3.13667	15
3.14033	15
3.14400	15
3.14767	16
3.15133	16
3.15500	16
3.15867	17
3.16233	17
3.16600	17
3.16967	17
3.17333	18
3.17700	18
3.18067	18
3.18433	18
3.18800	19
3.19167	19
3.19533	19
3.19900	19
3.20267	20
3.20633	20
3.21000	20
3.21367	21
3.21733	21
3.22100	21
3.22467	21
3.22833	21
3.23200	22
3.23567	22
3.23933	22
3.24300	22
3.24667	23
3.25033	23
3.25400	23
3.25767	24
3.26133	24
3.26500	24
3.26867	24
3.27233	24
3.27600	24
3.27967	24
3.28333	24
3.28700	24
3.29067	24
3.29433	24
3.29800	24
3.30167	24
3.30533	24
3.30900	24
3.31267	24
3.31633	24
3.32000	24
3.32367	24
3.32733	24
3.33100	25
3.33467	25
3.33833	25
3.34200	25
3.34567	25
3.34933	25
3.35300	25
3.35667	25
3.36033	26
3.36400	26
3.36767	26
3.37133	26
3.37500	27
3.37867	27
3.38233	27
3.38600	28
3.38967	28
3.39333	28
3.39700	28
3.40067	28
3.40433	28
3.40800	28
3.41167	28
3.41533	28
3.41900	28
3.42267	28
3.42633	28
3.43000	28
3.43367	28
3.43733	28
3.44100	28
3.44467	28
3.44833	28
3.45200	28
3.45567	28
3.45933	28
3.46300	28
3.46667	28
3.47033	28
3.47400	28
3.47767	28
3.48133	28
3.48500	28
3.48867	28
3.49233	28
3.49600	28
3.49967	29
3.50333	29
3.50700	29
3.51067	29
3.51433	28
3.51800	28
3.52167	28
3.52533	28
3.52900	28
3.53267	28
3.53633	28
3.54000	28
3.54367	28
3.54733	27
3.55100	27
3.55467	27
3.55833	27
3.56200	27
3.56567	27
3.56933	27
3.57300	27
3.57667	27
3.58033	27
3.58400	27
3.58767	27
3.59133	27
3.59500	27
3.59867	26
3.60233	26
3.60600	26
3.60967	26
3.61333	26
3.61700	26
3.62067	26
3.62433	26
3.62800	26
3.63167	27
3.63533	27
3.63900	27
3.64267	27
3.64633	27
3.65000	27
3.65367	27
3.65733	27
3.66100	27
3.66467	27
3.66833	27
3.67200	27
3.67567	28
3.67933	28
3.68300	28
3.68667	28
3.69033	28
3.69400	28
3.69767	27
3.70133	27
3.70500	27
3.70867	27
3.71233	27
3.71600	27
3.71967	27
3.72333	27
3.72700	26
3.73067	26
3.73433	26
3.73800	26
3.74167	26
3.74533	26
3.74900	26
3.75267	26
3.75633	26
3.76000	26
3.76367	26
3.76733	26
3.77100	27
3.77467	26
3.77833	26
3.78200	27
3.78567	27
3.78933	27
3.79300	27
3.79667	27
3.80033	27
3.80400	27
3.80767	27
3.81133	27
3.81500	27
3.81867	27
3.82233	27
3.82600	27
3.82967	27
3.83333	27
3.83700	27
3.84067	27
3.84433	27
3.84800	27
3.85167	27
3.85533	27
3.85900	27
3.86267	26
3.86633	26
3.87000	26
3.87367	26
3.87733	26
3.88100	26
3.88467	26
3.88833	27
3.89200	27
3.89567	27
3.89933	27
3.90300	27
3.90667	27
3.91033	27
3.91400	27
3.91767	27
3.92133	27
3.92500	27
3.92867	27
3.93233	27
3.93600	27
3.93967	27
3.94333	27
3.94700	27
3.95067	27
3.95433	27
3.95800	27
3.96167	27
3.96533	27
3.96900	27
3.97267	27
3.97633	27
3.98000	27
3.98367	27
3.98733	27
3.99100	27
3.99467	27
3.99833	27

[Chromatogram (Ch3)]
Interval(msec)	220
# of Points	1091
Start Time(min)	0.002
End Time(min)	3.998
R.Time (min)	Intensity
0.00167	0
0.00533	1
0.00900	2
0.01267	2
0.01633	1
0.02000	0
0.02367	0
0.02733	1
0.03100	2
0.03467	0
0.03833	1
0.04200	1
0.04567	1
0.04933	2
0.05300	3
0.05667	3
0.06033	3
0.06400	2
0.06767	3
0.07133	5
0.07500	5
0.07867	3
0.08233	2
0.08600	3
0.08967	5
0.09333	6
0.09700	6
0.10067	5
0.10433	3
0.10800	4
0.11167	4
0.11533	3
0.11900	2
0.12267	1
0.12633	1
0.13000	0
0.13367	2
0.13733	6
0.14100	7
0.14467	6
0.14833	6
0.15200	5
0.15567	6
0.15933	4
0.16300	2
0.16667	2
0.17033	3
0.17400	4
0.17767	3
0.18133	2
0.18500	2
0.18867	2
0.19233	4
0.19600	5
0.19967	6
0.20333	6
0.20700	4
0.21067	3
0.21433	2
0.21800	1
0.22167	1
0.22533	2
0.22900	1
0.23267	3
0.23633	3
0.24000	4
0.24367	6
0.24733	6
0.25100	6
0.25467	6
0.25833	6
0.26200	4
0.26567	3
0.26933	3
0.27300	2
0.27667	1
0.28033	-0
0.28400	-0
0.28767	-0
0.29133	-1
0.29500	-1
0.29867	-2
0.30233	-3
0.30600	-4
0.30967	-4
0.31333	-2
0.31700	1
0.32067	4
0.32433	6
0.32800	7
0.33167	8
0.33533	8
0.33900	6
0.34267	4
0.34633	2
0.35000	0
0.35367	0
0.35733	1
0.36100	1
0.36467	1
0.36833	-0
0.37200	-1
0.37567	-0
0.37933	1
0.38300	4
0.38667	6
0.39033	4
0.39400	3
0.39767	2
0.40133	2
0.40500	2
0.40867	4
0.41233	4
0.41600	5
0.41967	6
0.42333	6
0.42700	5
0.43067	3
0.43433	0
0.43800	-1
0.44167	-1
0.44533	-1
0.44900	-1
0.45267	-1
0.45633	0
0.46000	1
0.46367	-0
0.46733	1
0.47100	3
0.47467	4
0.47833	3
0.48200	2
0.48567	1
0.48933	0
0.49300	-0
0.49667	-0
0.50033	0
0.50400	0
0.50767	-1
0.51133	-1
0.51500	-1
0.51867	-3
0.52233	-2
0.52600	1
0.52967	2
0.53333	3
0.53700	3
0.54067	4
0.54433	3
0.54800	3
0.55167	4
0.55533	5
0.55900	5
0.56267	5
0.56633	6
0.57000	6
0.57367	6
0.57733	5
0.58100	3
0.58467	2
0.58833	1
0.59200	0
0.59567	2
0.59933	2
0.60300	3
0.60667	2
0.61033	0
0.61400	-1
0.61767	-1
0.62133	-1
0.62500	-1
0.62867	-0
0.63233	-1
0.63600	-2
0.63967	-1
0.64333	-0
0.64700	-1
0.65067	-2
0.65433	-2
0.65800	-1
0.66167	-1
0.66533	1
0.66900	3
0.67267	4
0.67633	4
0.68000	-0
0.68367	-2
0.68733	-2
0.69100	-2
0.69467	-1
0.69833	1
0.70200	-0
0.70567	-0
0.70933	0
0.71300	0
0.71667	-0
0.72033	-0
0.72400	1
0.72767	2
0.73133	1
0.73500	-2
0.73867	-3
0.74233	-1
0.74600	-1
0.74967	-1
0.75333	-0
0.75700	-0
0.76067	1
0.76433	1
0.76800	-1
0.77167	-2
0.77533	-1
0.77900	2
0.78267	4
0.78633	4
0.79000	4
0.79367	5
0.79733	5
0.80100	3
0.80467	2
0.80833	0
0.81200	-1
0.81567	-1
0.81933	-2
0.82300	-0
0.82667	3
0.83033	2
0.83400	2
0.83767	1
0.84133	1
0.84500	2
0.84867	3
0.85233	3
0.85600	2
0.85967	2
0.86333	1
0.86700	1
0.87067	4
0.87433	6
0.87800	4
0.88167	4
0.88533	5
0.88900	6
0.89267	6
0.89633	5
0.90000	6
0.90367	5
0.90733	4
0.91100	4
0.91467	5
0.91833	6
0.92200	6
0.92567	4
0.92933	4
0.93300	4
0.93667	5
0.94033	6
0.94400	6
0.94767	5
0.95133	6
0.95500	8
0.95867	9
0.96233	9
0.96600	9
0.96967	9
0.97333	8
0.97700	5
0.98067	5
0.98433	7
0.98800	7
0.99167	7
0.99533	8
0.99900	7
1.00267	6
1.00633	5
1.01000	4
1.01367	6
1.01733	6
1.02100	6
1.02467	6
1.02833	6
1.03200	4
1.03567	2
1.03933	2
1.04300	3
1.04667	3
1.05033	3
1.05400	1
1.05767	-0
1.06133	1
1.06500	3
1.06867	4
1.07233	3
1.07600	3
1.07967	4
1.08333	5
1.08700	6
1.09067	6
1.09433	4
1.09800	2
1.10167	4
1.10533	5
1.10900	6
1.11267	5
1.11633	5
1.12000	5
1.12367	4
1.12733	5
1.13100	3
1.13467	3
1.13833	4
1.14200	4
1.14567	3
1.14933	5
1.15300	7
1.15667	6
1.16033	4
1.16400	3
1.16767	3
1.17133	1
1.17500	1
1.17867	4
1.18233	6
1.18600	7
1.18967	4
1.19333	2
1.19700	2
1.20067	-0
1.20433	-2
1.20800	-0
1.21167	1
1.21533	2
1.21900	3
1.22267	1
1.22633	1
1.23000	3
1.23367	4
1.23733	4
1.24100	4
1.24467	4
1.24833	3
1.25200	2
1.25567	2
1.25933	2
1.26300	3
1.26667	5
1.27033	6
1.27400	6
1.27767	7
1.28133	9
1.28500	10
1.28867	9
1.29233	5
1.29600	2
1.29967	2
1.30333	3
1.30700	5
1.31067	7
1.31433	7
1.31800	7
1.32167	8
1.32533	7
1.32900	7
1.33267	7
1.33633	6
1.34000	8
1.34367	10
1.34733	12
1.35100	14
1.35467	14
1.35833	13
1.36200	13
1.36567	13
1.36933	13
1.37300	13
1.37667	13
1.38033	12
1.38400	12
1.38767	12
1.39133	12
1.39500	13
1.39867	13
1.40233	13
1.40600	14
1.40967	15
1.41333	15
1.41700	16
1.42067	17
1.42433	16
1.42800	16
1.43167	16
1.43533	15
1.43900	16
1.44267	17
1.44633	16
1.45000	14
1.45367	15
1.45733	14
1.46100	13
1.46467	14
1.46833	14
1.47200	14
1.47567	14
1.47933	16
1.48300	16
1.48667	15
1.49033	14
1.49400	12
1.49767	11
1.50133	9
1.50500	9
1.50867	9
1.51233	9
1.51600	10
1.51967	11
1.52333	10
1.52700	8
1.53067	5
1.53433	4
1.53800	6
1.54167	8
1.54533	9
1.54900	9
1.55267	9
1.55633	9
1.56000	8
1.56367	10
1.56733	11
1.57100	10
1.57467	11
1.57833	13
1.58200	12
1.58567	10
1.58933	8
1.59300	6
1.59667	5
1.60033	5
1.60400	6
1.60767	6
1.61133	7
1.61500	7
1.61867	8
1.62233	11
1.62600	12
1.62967	13
1.63333	15
1.63700	16
1.64067	15
1.64433	15
1.64800	14
1.65167	12
1.65533	10
1.65900	10
1.66267	14
1.66633	14
1.67000	14
1.67367	14
1.67733	16
1.68100	17
1.68467	19
1.68833	20
1.69200	20
1.69567	21
1.69933	21
1.70300	22
1.70667	23
1.71033	24
1.71400	25
1.71767	26
1.72133	27
1.72500	28
1.72867	28
1.73233	27
1.73600	27
1.73967	26
1.74333	27
1.74700	29
1.75067	30
1.75433	31
1.75800	32
1.76167	33
1.76533	33
1.76900	34
1.77267	34
1.77633	34
1.78000	34
1.78367	36
1.78733	38
1.79100	41
1.79467	42
1.79833	42
1.80200	41
1.80567	39
1.80933	36
1.81300	37
1.81667	38
1.82033	38
1.82400	38
1.82767	40
1.83133	42
1.83500	43
1.83867	44
1.84233	46
1.84600	49
1.84967	49
1.85333	50
1.85700	51
1.86067	49
1.86433	48
1.86800	49
1.87167	49
1.87533	48
1.87900	50
1.88267	53
1.88633	56
1.89000	58
1.89367	58
1.89733	57
1.90100	56
1.90467	57
1.90833	60
1.91200	62
1.91567	60
1.91933	59
1.92300	60
1.92667	61
1.93033	61
1.93400	61
1.93767	60
1.94133	62
1.94500	63
1.94867	63
1.95233	64
1.95600	66
1.95967	68
1.96333	70
1.96700	71
1.97067	70
1.97433	71
1.97800	73
1.98167	75
1.98533	75
1.98900	75
1.99267	78
1.99633	80
2.00000	82
2.00367	83
2.00733	86
2.01100	88
2.01467	88
2.01833	87
2.02200	86
2.02567	86
2.02933	86
2.03300	88
2.03667	89
2.04033	90
2.04400	92
2.04767	94
2.05133	95
2.05500	98
2.05867	100
2.06233	100
2.06600	99
2.06967	96
2.07333	96
2.07700	96
2.08067	97
2.08433	99
2.08800	100
2.09167	102
2.09533	104
2.09900	106
2.10267	108
2.10633	109
2.11000	108
2.11367	108
2.11733	109
2.12100	111
2.12467	111
2.12833	112
2.13200	113
2.13567	114
2.13933	113
2.14300	111
2.14667	110
2.15033	113
2.15400	116
2.15767	117
2.16133	119
2.16500	123
2.16867	125
2.17233	125
2.17600	121
2.17967	119
2.18333	121
2.18700	122
2.19067	123
2.19433	125
2.19800	128
2.20167	130
2.20533	131
2.20900	131
2.21267	131
2.21633	131
2.22000	130
2.22367	130
2.22733	127
2.23100	126
2.23467	125
2.23833	126
2.24200	128
2.24567	132
2.24933	133
2.25300	134
2.25667	135
2.26033	136
2.26400	136
2.26767	135
2.27133	136
2.27500	139
2.27867	141
2.28233	142
2.28600	143
2.28967	142
2.29333	140
2.29700	141
2.30067	142
2.30433	143
2.30800	143
2.31167	142
2.31533	143
2.31900	144
2.32267	145
2.32633	144
2.33000	145
2.33367	146
2.33733	147
2.34100	147
2.34467	146
2.34833	144
2.35200	144
2.35567	145
2.35933	147
2.36300	147
2.36667	148
2.37033	148
2.37400	148
2.37767	147
2.38133	145
2.38500	143
2.38867	142
2.39233	142
2.39600	142
2.39967	144
2.40333	146
2.40700	148
2.41067	149
2.41433	151
2.41800	154
2.42167	156
2.42533	157
2.42900	159
2.43267	161
2.43633	161
2.44000	165
2.44367	205
2.44733	294
2.45100	397
2.45467	488
2.45833	566
2.46200	629
2.46567	675
2.46933	709
2.47300	739
2.47667	768
2.48033	800
2.48400	832
2.48767	862
2.49133	886
2.49500	900
2.49867	905
2.50233	904
2.50600	902
2.50967	902
2.51333	905
2.51700	911
2.52067	916
2.52433	923
2.52800	929
2.53167	941
2.53533	955
2.53900	969
2.54267	980
2.54633	986
2.55000	987
2.55367	984
2.55733	975
2.56100	964
2.56467	950
2.56833	937
2.57200	925
2.57567	917
2.57933	908
2.58300	897
2.58667	888
2.59033	882
2.59400	876
2.59767	876
2.60133	876
2.60500	874
2.60867	871
2.61233	868
2.61600	866
2.61967	866
2.62333	867
2.62700	868
2.63067	867
2.63433	867
2.63800	866
2.64167	865
2.64533	865
2.64900	866
2.65267	867
2.65633	868
2.66000	869
2.66367	869
2.66733	870
2.67100	869
2.67467	867
2.67833	864
2.68200	859
2.68567	851
2.68933	843
2.69300	835
2.69667	827
2.70033	820
2.70400	814
2.70767	808
2.71133	799
2.71500	792
2.71867	787
2.72233	783
2.72600	779
2.72967	774
2.73333	770
2.73700	766
2.74067	763
2.74433	761
2.74800	763
2.75167	763
2.75533	762
2.75900	762
2.76267	763
2.76633	764
2.77000	764
2.77367	763
2.77733	762
2.78100	762
2.78467	765
2.78833	764
2.79200	763
2.79567	763
2.79933	764
2.80300	765
2.80667	766
2.81033	766
2.81400	765
2.81767	765
2.82133	764
2.82500	765
2.82867	766
2.83233	767
2.83600	775
2.83967	799
2.84333	851
2.84700	950
2.85067	1114
2.85433	1366
2.85800	1717
2.86167	2164
2.86533	2684
2.86900	3241
2.87267	3793
2.87633	4295
2.88000	4699
2.88367	4978
2.88733	5122
2.89100	5137
2.89467	5038
2.89833	4844
2.90200	4583
2.90567	4283
2.90933	3966
2.91300	3648
2.91667	3341
2.92033	3053
2.92400	2787
2.92767	2545
2.93133	2329
2.93500	2135
2.93867	1964
2.94233	1811
2.94600	1675
2.94967	1556
2.95333	1455
2.95700	1367
2.96067	1287
2.96433	1218
2.96800	1159
2.97167	1108
2.97533	1064
2.97900	1025
2.98267	992
2.98633	961
2.99000	934
2.99367	911
2.99733	889
3.00100	867
3.00467	847
3.00833	831
3.01200	819
3.01567	806
3.01933	794
3.02300	782
3.02667	772
3.03033	766
3.03400	760
3.03767	750
3.04133	742
3.04500	733
3.04867	724
3.05233	720
3.05600	716
3.05967	711
3.06333	704
3.06700	700
3.07067	697
3.07433	691
3.07800	685
3.08167	679
3.08533	675
3.08900	673
3.09267	671
3.09633	668
3.10000	664
3.10367	660
3.10733	655
3.11100	652
3.11467	649
3.11833	647
3.12200	646
3.12567	646
3.12933	645
3.13300	644
3.13667	640
3.14033	635
3.14400	634
3.14767	634
3.15133	632
3.15500	631
3.15867	629
3.16233	626
3.16600	622
3.16967	619
3.17333	618
3.17700	616
3.18067	615
3.18433	611
3.18800	607
3.19167	603
3.19533	601
3.19900	599
3.20267	600
3.20633	601
3.21000	597
3.21367	595
3.21733	595
3.22100	594
3.22467	592
3.22833	590
3.23200	588
3.23567	583
3.23933	581
3.24300	581
3.24667	580
3.25033	580
3.25400	579
3.25767	572
3.26133	567
3.26500	562
3.26867	561
3.27233	562
3.27600	562
3.27967	560
3.28333	558
3.28700	560
3.29067	559
3.29433	556
3.29800	552
3.30167	548
3.30533	547
3.30900	547
3.31267	545
3.31633	543
3.32000	540
3.32367	537
3.32733	534
3.33100	531
3.33467	529
3.33833	528
3.34200	525
3.34567	524
3.34933	523
3.35300	520
3.35667	519
3.36033	520
3.36400	518
3.36767	514
3.37133	510
3.37500	510
3.37867	509
3.38233	508
3.38600	506
3.38967	502
3.39333	499
3.39700	499
3.40067	498
3.40433	496
3.40800	493
3.41167	492
3.41533	490
3.41900	489
3.42267	487
3.42633	487
3.43000	487
3.43367	485
3.43733	484
3.44100	483
3.44467	481
3.44833	479
3.45200	477
3.45567	475
3.45933	474
3.46300	473
3.46667	474
3.47033	474
3.47400	474
3.47767	470
3.48133	467
3.48500	463
3.48867	460
3.49233	459
3.49600	460
3.49967	463
3.50333	464
3.50700	463
3.51067	462
3.51433	462
3.51800	462
3.52167	461
3.52533	459
3.52900	458
3.53267	457
3.53633	457
3.54000	456
3.54367	455
3.54733	455
3.55100	453
3.55467	452
3.55833	451
3.56200	449
3.56567	449
3.56933	447
3.57300	445
3.57667	442
3.58033	441
3.58400	441
3.58767	439
3.59133	437
3.59500	435
3.59867	434
3.60233	435
3.60600	434
3.60967	434
3.61333	433
3.61700	432
3.62067	430
3.62433	428
3.62800	426
3.63167	425
3.63533	425
3.63900	424
3.64267	425
3.64633	424
3.65000	421
3.65367	418
3.65733	417
3.66100	418
3.66467	422
3.66833	421
3.67200	419
3.67567	418
3.67933	416
3.68300	412
3.68667	408
3.69033	405
3.69400	404
3.69767	405
3.70133	406
3.70500	406
3.70867	405
3.71233	405
3.71600	406
3.71967	406
3.72333	405
3.72700	404
3.73067	401
3.73433	399
3.73800	398
3.74167	397
3.74533	393
3.74900	389
3.75267	387
3.75633	386
3.76000	387
3.76367	387
3.76733	385
3.77100	382
3.77467	380
3.77833	379
3.78200	380
3.78567	381
3.78933	383
3.79300	382
3.79667	380
3.80033	379
3.80400	378
3.80767	376
3.81133	374
3.81500	371
3.81867	370
3.82233	367
3.82600	363
3.82967	361
3.83333	361
3.83700	362
3.84067	362
3.84433	363
3.84800	365
3.85167	367
3.85533	365
3.85900	362
3.86267	358
3.86633	355
3.87000	355
3.87367	356
3.87733	356
3.88100	354
3.88467	354
3.88833	355
3.89200	354
3.89567	352
3.89933	351
3.90300	349
3.90667	349
3.91033	351
3.91400	349
3.91767	346
3.92133	345
3.92500	345
3.92867	345
3.93233	345
3.93600	345
3.93967	344
3.94333	342
3.94700	339
3.95067	336
3.95433	335
3.95800	334
3.96167	335
3.96533	338
3.96900	339
3.97267	338
3.97633	334
3.98000	334
3.98367	333
3.98733	331
3.99100	331
3.99467	331
3.99833	331

[Status Trace (Column Oven Temperature)]
Interval(msec)	1000
# of Points	240
Start Time(min)	0.009
End Time(min)	3.993
Intensity Units	
Intensity Multiplier	1
R.Time (min)	Intensity
0.00933	35.05
0.02600	35.05
0.04267	35.04
0.05933	35.04
0.07600	35.04
0.09267	35.05
0.10933	35.06
0.12600	35.06
0.14267	35.05
0.15933	35.05
0.17600	35.04
0.19267	35.05
0.20933	35.04
0.22600	35.04
0.24267	35.04
0.25933	35.05
0.27600	35.05
0.29267	35.05
0.30933	35.04
0.32600	35.04
0.34267	35.04
0.35933	35.04
0.37600	35.03
0.39267	35.01
0.40933	35.02
0.42600	35.03
0.44267	35.03
0.45933	35.03
0.47600	35.02
0.49267	35.02
0.50933	35.03
0.52600	35.02
0.54267	35.02
0.55933	35.02
0.57600	35.02
0.59267	35.01
0.60933	35.00
0.62600	35.00
0.64267	35.01
0.65933	35.01
0.67600	35.01
0.69267	35.01
0.70933	35.02
0.72600	35.02
0.74267	35.01
0.75933	35.00
0.77600	35.00
0.79267	35.00
0.80933	35.01
0.82600	35.01
0.84267	35.01
0.85933	35.02
0.87600	35.02
0.89267	35.01
0.90933	35.01
0.92600	35.01
0.94267	35.01
0.95933	35.01
0.97600	34.99
0.99267	35.00
1.00933	34.99
1.02600	34.98
1.04267	34.99
1.05933	34.99
1.07600	34.99
1.09267	35.00
1.10933	34.98
1.12600	34.97
1.14267	34.98
1.15933	34.98
1.17600	34.99
1.19267	35.00
1.20933	35.00
1.22600	35.00
1.24267	35.01
1.25933	35.01
1.27600	35.00
1.29267	34.99
1.30933	35.00
1.32600	35.00
1.34267	35.00
1.35933	35.00
1.37600	35.00
1.39267	34.99
1.40933	34.99
1.42600	34.99
1.44267	35.00
1.45933	35.00
1.47600	35.00
1.49267	34.99
1.50933	34.98
1.52600	34.99
1.54267	35.00
1.55933	35.00
1.57600	35.01
1.59267	35.02
1.60933	35.08
1.62600	35.20
1.64267	35.38
1.65933	35.62
1.67600	35.96
1.69267	36.32
1.70933	36.67
1.72600	37.00
1.74267	37.34
1.75933	37.68
1.77600	38.02
1.79267	38.35
1.80933	38.68
1.82600	39.00
1.84267	39.34
1.85933	39.67
1.87600	39.99
1.89267	40.33
1.90933	40.65
1.92600	40.98
1.94267	41.31
1.95933	41.62
1.97600	41.96
1.99267	42.29
2.00933	42.61
2.02600	42.93
2.04267	43.26
2.05933	43.57
2.07600	43.91
2.09267	44.22
2.10933	44.53
2.12600	44.86
2.14267	45.18
2.15933	45.52
2.17600	45.84
2.19267	46.16
2.20933	46.51
2.22600	46.85
2.24267	47.17
2.25933	47.49
2.27600	47.84
2.29267	48.18
2.30933	48.50
2.32600	48.83
2.34267	49.17
2.35933	49.44
2.37600	49.58
2.39267	49.62
2.40933	49.62
2.42600	49.63
2.44267	49.64
2.45933	49.64
2.47600	49.64
2.49267	49.65
2.50933	49.67
2.52600	49.67
2.54267	49.68
2.55933	49.69
2.57600	49.72
2.59267	49.73
2.60933	49.74
2.62600	49.75
2.64267	49.77
2.65933	49.79
2.67600	49.80
2.69267	49.83
2.70933	49.84
2.72600	49.84
2.74267	49.85
2.75933	49.87
2.77600	49.86
2.79267	49.86
2.80933	49.84
2.82600	49.85
2.84267	49.89
2.85933	49.91
2.87600	49.92
2.89267	49.93
2.90933	49.92
2.92600	49.92
2.94267	49.91
2.95933	49.91
2.97600	49.93
2.99267	49.94
3.00933	49.95
3.02600	49.97
3.04267	49.99
3.05933	50.00
3.07600	50.02
3.09267	50.02
3.10933	50.03
3.12600	50.03
3.14267	50.04
3.15933	50.06
3.17600	50.06
3.19267	50.07
3.20933	50.08
3.22600	50.09
3.24267	50.09
3.25933	50.09
3.27600	50.09
3.29267	50.09
3.30933	50.10
3.32600	50.10
3.34267	50.10
3.35933	50.09
3.37600	50.08
3.39267	50.07
3.40933	50.07
3.42600	50.06
3.44267	50.06
3.45933	50.06
3.47600	50.05
3.49267	50.04
3.50933	50.03
3.52600	50.03
3.54267	50.03
3.55933	50.04
3.57600	50.04
3.59267	50.05
3.60933	50.06
3.62600	50.06
3.64267	50.06
3.65933	50.06
3.67600	50.06
3.69267	50.05
3.70933	50.05
3.72600	50.06
3.74267	50.06
3.75933	50.07
3.77600	50.06
3.79267	50.06
3.80933	50.06
3.82600	50.06
3.84267	50.06
3.85933	50.06
3.87600	50.06
3.89267	50.05
3.90933	50.06
3.92600	50.06
3.94267	50.07
3.95933	50.07
3.97600	50.07
3.99267	50.08

[Status Trace (Injection Unit Temperature)]
Interval(msec)	1000
# of Points	240
Start Time(min)	0.009
End Time(min)	3.993
Intensity Units	
Intensity Multiplier	1
R.Time (min)	Intensity
0.00933	99.98
0.02600	99.98
0.04267	99.98
0.05933	99.98
0.07600	99.98
0.09267	99.98
0.10933	99.97
0.12600	99.98
0.14267	99.98
0.15933	99.98
0.17600	99.98
0.19267	99.98
0.20933	99.98
0.22600	99.98
0.24267	99.98
0.25933	99.98
0.27600	99.98
0.29267	99.98
0.30933	99.98
0.32600	99.98
0.34267	99.98
0.35933	99.98
0.37600	99.98
0.39267	99.98
0.40933	99.98
0.42600	99.99
0.44267	99.98
0.45933	99.98
0.47600	99.99
0.49267	99.98
0.50933	99.98
0.52600	99.99
0.54267	99.99
0.55933	99.98
0.57600	99.98
0.59267	99.98
0.60933	99.99
0.62600	99.99
0.64267	99.99
0.65933	99.99
0.67600	99.99
0.69267	99.99
0.70933	99.99
0.72600	99.98
0.74267	99.99
0.75933	99.98
0.77600	99.99
0.79267	99.98
0.80933	99.99
0.82600	99.99
0.84267	99.98
0.85933	99.99
0.87600	99.99
0.89267	99.99
0.90933	99.99
0.92600	99.99
0.94267	99.99
0.95933	99.99
0.97600	99.99
0.99267	99.99
1.00933	99.99
1.02600	99.99
1.04267	99.99
1.05933	99.99
1.07600	99.98
1.09267	99.98
1.10933	99.99
1.12600	99.98
1.14267	99.99
1.15933	99.98
1.17600	99.98
1.19267	99.98
1.20933	99.98
1.22600	99.98
1.24267	99.98
1.25933	99.99
1.27600	99.98
1.29267	99.98
1.30933	99.98
1.32600	99.99
1.34267	99.98
1.35933	99.98
1.37600	99.98
1.39267	99.98
1.40933	99.98
1.42600	99.98
1.44267	99.98
1.45933	99.99
1.47600	99.98
1.49267	99.97
1.50933	99.98
1.52600	99.98
1.54267	99.98
1.55933	99.98
1.57600	99.98
1.59267	99.99
1.60933	99.98
1.62600	99.99
1.64267	99.99
1.65933	99.99
1.67600	99.98
1.69267	99.98
1.70933	99.99
1.72600	99.99
1.74267	99.99
1.75933	99.98
1.77600	99.98
1.79267	99.98
1.80933	99.99
1.82600	99.98
1.84267	99.98
1.85933	99.98
1.87600	99.97
1.89267	99.98
1.90933	99.98
1.92600	99.98
1.94267	99.98
1.95933	99.98
1.97600	99.98
1.99267	99.98
2.00933	99.98
2.02600	99.97
2.04267	99.98
2.05933	99.98
2.07600	99.98
2.09267	99.97
2.10933	99.97
2.12600	99.97
2.14267	99.97
2.15933	99.97
2.17600	99.97
2.19267	99.97
2.20933	99.97
2.22600	99.97
2.24267	99.97
2.25933	99.97
2.27600	99.97
2.29267	99.97
2.30933	99.96
2.32600	99.97
2.34267	99.97
2.35933	99.97
2.37600	99.96
2.39267	99.97
2.40933	99.97
2.42600	99.97
2.44267	99.97
2.45933	99.97
2.47600	99.97
2.49267	99.97
2.50933	99.98
2.52600	99.98
2.54267	99.97
2.55933	99.98
2.57600	99.97
2.59267	99.98
2.60933	99.98
2.62600	99.98
2.64267	99.98
2.65933	99.99
2.67600	99.99
2.69267	99.99
2.70933	99.99
2.72600	99.99
2.74267	99.99
2.75933	99.99
2.77600	100.00
2.79267	100.00
2.80933	100.00
2.82600	100.00
2.84267	100.00
2.85933	100.00
2.87600	100.01
2.89267	100.01
2.90933	100.01
2.92600	100.01
2.94267	100.01
2.95933	100.01
2.97600	100.01
2.99267	100.01
3.00933	100.01
3.02600	100.02
3.04267	100.01
3.05933	100.01
3.07600	100.01
3.09267	100.02
3.10933	100.02
3.12600	100.02
3.14267	100.02
3.15933	100.02
3.17600	100.02
3.19267	100.02
3.20933	100.02
3.22600	100.02
3.24267	100.03
3.25933	100.02
3.27600	100.02
3.29267	100.03
3.30933	100.03
3.32600	100.03
3.34267	100.03
3.35933	100.03
3.37600	100.03
3.39267	100.04
3.40933	100.03
3.42600	100.04
3.44267	100.04
3.45933	100.04
3.47600	100.03
3.49267	100.04
3.50933	100.04
3.52600	100.04
3.54267	100.04
3.55933	100.04
3.57600	100.04
3.59267	100.04
3.60933	100.04
3.62600	100.04
3.64267	100.04
3.65933	100.04
3.67600	100.05
3.69267	100.05
3.70933	100.05
3.72600	100.05
3.74267	100.05
3.75933	100.05
3.77600	100.05
3.79267	100.05
3.80933	100.05
3.82600	100.05
3.84267	100.05
3.85933	100.05
3.87600	100.05
3.89267	100.05
3.90933	100.05
3.92600	100.05
3.94267	100.05
3.95933	100.05
3.97600	100.05
3.99267	100.05

[Status Trace (Carrier Gas Pressure)]
Interval(msec)	1000
# of Points	240
Start Time(min)	0.009
End Time(min)	3.993
Intensity Units	
Intensity Multiplier	1
R.Time (min)	Intensity
0.00933	58.00
0.02600	55.17
0.04267	57.32
0.05933	59.50
0.07600	59.08
0.09267	58.03
0.10933	57.99
0.12600	58.01
0.14267	58.01
0.15933	58.01
0.17600	58.00
0.19267	58.00
0.20933	58.00
0.22600	58.00
0.24267	58.00
0.25933	58.00
0.27600	58.00
0.29267	58.00
0.30933	58.00
0.32600	58.00
0.34267	58.00
0.35933	58.00
0.37600	58.00
0.39267	58.00
0.40933	58.00
0.42600	58.00
0.44267	58.00
0.45933	58.00
0.47600	58.00
0.49267	58.00
0.50933	58.00
0.52600	58.00
0.54267	58.00
0.55933	58.00
0.57600	58.00
0.59267	58.00
0.60933	58.00
0.62600	58.00
0.64267	58.00
0.65933	58.00
0.67600	58.00
0.69267	58.00
0.70933	58.00
0.72600	58.00
0.74267	58.00
0.75933	58.00
0.77600	58.00
0.79267	58.00
0.80933	58.00
0.82600	58.00
0.84267	58.00
0.85933	58.00
0.87600	58.00
0.89267	58.00
0.90933	58.00
0.92600	58.00
0.94267	58.00
0.95933	58.00
0.97600	58.00
0.99267	58.00
1.00933	58.00
1.02600	58.00
1.04267	58.00
1.05933	58.00
1.07600	58.00
1.09267	58.00
1.10933	58.00
1.12600	58.00
1.14267	58.00
1.15933	58.00
1.17600	58.00
1.19267	58.00
1.20933	58.00
1.22600	58.00
1.24267	58.00
1.25933	58.00
1.27600	58.00
1.29267	58.00
1.30933	58.00
1.32600	58.00
1.34267	58.00
1.35933	58.00
1.37600	58.00
1.39267	58.00
1.40933	58.00
1.42600	58.00
1.44267	58.00
1.45933	58.00
1.47600	58.00
1.49267	58.00
1.50933	58.00
1.52600	58.00
1.54267	58.00
1.55933	58.00
1.57600	58.00
1.59267	58.00
1.60933	58.00
1.62600	58.00
1.64267	58.00
1.65933	58.00
1.67600	58.01
1.69267	58.00
1.70933	58.00
1.72600	58.00
1.74267	58.00
1.75933	58.00
1.77600	58.00
1.79267	58.00
1.80933	58.00
1.82600	58.00
1.84267	58.00
1.85933	58.00
1.87600	58.00
1.89267	58.00
1.90933	58.00
1.92600	58.00
1.94267	58.00
1.95933	58.00
1.97600	58.00
1.99267	58.00
2.00933	58.00
2.02600	58.00
2.04267	58.00
2.05933	58.00
2.07600	58.00
2.09267	58.00
2.10933	58.00
2.12600	58.00
2.14267	58.00
2.15933	58.00
2.17600	58.00
2.19267	58.00
2.20933	58.00
2.22600	58.00
2.24267	58.00
2.25933	58.00
2.27600	58.00
2.29267	58.00
2.30933	58.00
2.32600	58.00
2.34267	58.00
2.35933	58.00
2.37600	57.99
2.39267	57.99
2.40933	58.00
2.42600	58.00
2.44267	58.00
2.45933	58.00
2.47600	58.00
2.49267	58.00
2.50933	57.99
2.52600	57.98
2.54267	58.00
2.55933	58.00
2.57600	58.00
2.59267	58.00
2.60933	58.00
2.62600	58.00
2.64267	58.00
2.65933	58.00
2.67600	58.00
2.69267	58.00
2.70933	58.00
2.72600	58.00
2.74267	58.00
2.75933	58.00
2.77600	58.00
2.79267	58.00
2.80933	58.00
2.82600	58.00
2.84267	58.00
2.85933	58.00
2.87600	58.00
2.89267	58.00
2.90933	58.00
2.92600	58.00
2.94267	58.00
2.95933	58.00
2.97600	58.00
2.99267	58.00
3.00933	58.00
3.02600	58.00
3.04267	58.00
3.05933	58.00
3.07600	58.00
3.09267	58.00
3.10933	58.00
3.12600	58.00
3.14267	58.00
3.15933	58.00
3.17600	58.00
3.19267	58.00
3.20933	58.00
3.22600	58.00
3.24267	58.00
3.25933	58.00
3.27600	58.00
3.29267	58.00
3.30933	58.00
3.32600	58.00
3.34267	58.00
3.35933	58.00
3.37600	58.00
3.39267	58.00
3.40933	58.00
3.42600	58.00
3.44267	58.00
3.45933	58.00
3.47600	58.00
3.49267	58.00
3.50933	58.00
3.52600	58.00
3.54267	58.00
3.55933	58.00
3.57600	58.00
3.59267	58.00
3.60933	58.00
3.62600	58.00
3.64267	58.00
3.65933	58.00
3.67600	58.00
3.69267	58.00
3.70933	58.00
3.72600	58.00
3.74267	58.00
3.75933	58.00
3.77600	58.00
3.79267	58.00
3.80933	58.00
3.82600	58.00
3.84267	58.00
3.85933	58.00
3.87600	58.00
3.89267	58.00
3.90933	58.00
3.92600	58.00
3.94267	58.00
3.95933	58.00
3.97600	58.00
3.99267	58.00

[Status Trace (Carrier Gas Flow)]
Interval(msec)	1000
# of Points	240
Start Time(min)	0.009
End Time(min)	3.993
Intensity Units	
Intensity Multiplier	1
R.Time (min)	Intensity
0.00933	34.52
0.02600	34.53
0.04267	34.55
0.05933	34.54
0.07600	34.50
0.09267	34.52
0.10933	34.53
0.12600	34.51
0.14267	34.52
0.15933	34.52
0.17600	34.52
0.19267	34.52
0.20933	34.51
0.22600	34.52
0.24267	34.52
0.25933	34.52
0.27600	34.52
0.29267	34.52
0.30933	34.52
0.32600	34.52
0.34267	34.52
0.35933	34.52
0.37600	34.52
0.39267	34.52
0.40933	34.52
0.42600	34.52
0.44267	34.52
0.45933	34.52
0.47600	34.52
0.49267	34.52
0.50933	34.52
0.52600	34.51
0.54267	34.52
0.55933	34.52
0.57600	34.52
0.59267	34.52
0.60933	34.52
0.62600	34.52
0.64267	34.52
0.65933	34.52
0.67600	34.52
0.69267	34.52
0.70933	34.51
0.72600	34.52
0.74267	34.52
0.75933	34.52
0.77600	34.51
0.79267	34.53
0.80933	34.53
0.82600	34.52
0.84267	34.52
0.85933	34.52
0.87600	34.52
0.89267	34.52
0.90933	34.52
0.92600	34.52
0.94267	34.52
0.95933	34.51
0.97600	34.52
0.99267	34.52
1.00933	34.52
1.02600	34.52
1.04267	34.52
1.05933	34.52
1.07600	34.52
1.09267	34.52
1.10933	34.53
1.12600	34.53
1.14267	34.52
1.15933	34.52
1.17600	34.52
1.19267	34.52
1.20933	34.52
1.22600	34.52
1.24267	34.52
1.25933	34.52
1.27600	34.52
1.29267	34.51
1.30933	34.52
1.32600	34.52
1.34267	34.51
1.35933	34.52
1.37600	34.53
1.39267	34.51
1.40933	34.51
1.42600	34.52
1.44267	34.53
1.45933	34.51
1.47600	34.51
1.49267	34.52
1.50933	34.53
1.52600	34.51
1.54267	34.52
1.55933	34.53
1.57600	34.52
1.59267	34.51
1.60933	34.51
1.62600	34.52
1.64267	34.52
1.65933	34.51
1.67600	34.52
1.69267	34.52
1.70933	34.51
1.72600	34.52
1.74267	34.52
1.75933	34.52
1.77600	34.52
1.79267	34.52
1.80933	34.53
1.82600	34.53
1.84267	34.52
1.85933	34.51
1.87600	34.52
1.89267	34.51
1.90933	34.52
1.92600	34.52
1.94267	34.52
1.95933	34.52
1.97600	34.52
1.99267	34.52
2.00933	34.52
2.02600	34.52
2.04267	34.52
2.05933	34.52
2.07600	34.52
2.09267	34.52
2.10933	34.52
2.12600	34.52
2.14267	34.52
2.15933	34.52
2.17600	34.53
2.19267	34.52
2.20933	34.51
2.22600	34.52
2.24267	34.52
2.25933	34.52
2.27600	34.52
2.29267	34.52
2.30933	34.51
2.32600	34.51
2.34267	34.52
2.35933	34.52
2.37600	34.52
2.39267	34.52
2.40933	34.52
2.42600	34.52
2.44267	34.52
2.45933	34.52
2.47600	34.52
2.49267	34.52
2.50933	34.50
2.52600	34.51
2.54267	34.52
2.55933	34.52
2.57600	34.52
2.59267	34.52
2.60933	34.51
2.62600	34.51
2.64267	34.52
2.65933	34.52
2.67600	34.52
2.69267	34.52
2.70933	34.53
2.72600	34.51
2.74267	34.52
2.75933	34.52
2.77600	34.53
2.79267	34.51
2.80933	34.52
2.82600	34.52
2.84267	34.52
2.85933	34.51
2.87600	34.51
2.89267	34.53
2.90933	34.52
2.92600	34.52
2.94267	34.52
2.95933	34.52
2.97600	34.51
2.99267	34.52
3.00933	34.53
3.02600	34.52
3.04267	34.52
3.05933	34.52
3.07600	34.53
3.09267	34.51
3.10933	34.51
3.12600	34.52
3.14267	34.52
3.15933	34.52
3.17600	34.51
3.19267	34.51
3.20933	34.52
3.22600	34.51
3.24267	34.52
3.25933	34.52
3.27600	34.52
3.29267	34.51
3.30933	34.52
3.32600	34.52
3.34267	34.52
3.35933	34.53
3.37600	34.53
3.39267	34.52
3.40933	34.52
3.42600	34.52
3.44267	34.52
3.45933	34.51
3.47600	34.52
3.49267	34.52
3.50933	34.52
3.52600	34.52
3.54267	34.52
3.55933	34.52
3.57600	34.51
3.59267	34.53
3.60933	34.52
3.62600	34.52
3.64267	34.52
3.65933	34.52
3.67600	34.53
3.69267	34.51
3.70933	34.52
3.72600	34.52
3.74267	34.52
3.75933	34.52
3.77600	34.52
3.79267	34.52
3.80933	34.51
3.82600	34.52
3.84267	34.52
3.85933	34.52
3.87600	34.51
3.89267	34.52
3.90933	34.52
3.92600	34.51
3.94267	34.52
3.95933	34.52
3.97600	34.52
3.99267	34.52

[Status Trace (Column Flow)]
Interval(msec)	1000
# of Points	240
Start Time(min)	0.009
End Time(min)	3.993
Intensity Units	
Intensity Multiplier	1
R.Time (min)	Intensity
0.00933	5.51
0.02600	5.18
0.04267	5.43
0.05933	5.69
0.07600	5.64
0.09267	5.51
0.10933	5.51
0.12600	5.51
0.14267	5.51
0.15933	5.51
0.17600	5.51
0.19267	5.51
0.20933	5.51
0.22600	5.51
0.24267	5.51
0.25933	5.51
0.27600	5.51
0.29267	5.51
0.30933	5.51
0.32600	5.51
0.34267	5.51
0.35933	5.51
0.37600	5.51
0.39267	5.51
0.40933	5.51
0.42600	5.51
0.44267	5.51
0.45933	5.51
0.47600	5.51
0.49267	5.51
0.50933	5.51
0.52600	5.51
0.54267	5.51
0.55933	5.51
0.57600	5.51
0.59267	5.51
0.60933	5.51
0.62600	5.51
0.64267	5.51
0.65933	5.51
0.67600	5.51
0.69267	5.51
0.70933	5.51
0.72600	5.51
0.74267	5.51
0.75933	5.51
0.77600	5.51
0.79267	5.51
0.80933	5.51
0.82600	5.51
0.84267	5.51
0.85933	5.51
0.87600	5.51
0.89267	5.51
0.90933	5.51
0.92600	5.51
0.94267	5.51
0.95933	5.51
0.97600	5.51
0.99267	5.51
1.00933	5.51
1.02600	5.51
1.04267	5.51
1.05933	5.51
1.07600	5.51
1.09267	5.51
1.10933	5.51
1.12600	5.51
1.14267	5.51
1.15933	5.51
1.17600	5.51
1.19267	5.51
1.20933	5.51
1.22600	5.51
1.24267	5.51
1.25933	5.51
1.27600	5.51
1.29267	5.51
1.30933	5.51
1.32600	5.51
1.34267	5.51
1.35933	5.51
1.37600	5.51
1.39267	5.51
1.40933	5.51
1.42600	5.51
1.44267	5.51
1.45933	5.51
1.47600	5.51
1.49267	5.51
1.50933	5.51
1.52600	5.51
1.54267	5.51
1.55933	5.51
1.57600	5.51
1.59267	5.51
1.60933	5.51
1.62600	5.51
1.64267	5.50
1.65933	5.49
1.67600	5.48
1.69267	5.47
1.70933	5.46
1.72600	5.45
1.74267	5.44
1.75933	5.43
1.77600	5.42
1.79267	5.41
1.80933	5.40
1.82600	5.39
1.84267	5.38
1.85933	5.37
1.87600	5.36
1.89267	5.35
1.90933	5.34
1.92600	5.33
1.94267	5.32
1.95933	5.31
1.97600	5.30
1.99267	5.29
2.00933	5.28
2.02600	5.27
2.04267	5.26
2.05933	5.25
2.07600	5.24
2.09267	5.23
2.10933	5.22
2.12600	5.22
2.14267	5.21
2.15933	5.20
2.17600	5.19
2.19267	5.18
2.20933	5.17
2.22600	5.16
2.24267	5.15
2.25933	5.14
2.27600	5.13
2.29267	5.12
2.30933	5.11
2.32600	5.10
2.34267	5.09
2.35933	5.09
2.37600	5.08
2.39267	5.08
2.40933	5.08
2.42600	5.08
2.44267	5.08
2.45933	5.08
2.47600	5.08
2.49267	5.08
2.50933	5.08
2.52600	5.08
2.54267	5.08
2.55933	5.08
2.57600	5.08
2.59267	5.08
2.60933	5.08
2.62600	5.08
2.64267	5.08
2.65933	5.08
2.67600	5.08
2.69267	5.08
2.70933	5.07
2.72600	5.07
2.74267	5.07
2.75933	5.07
2.77600	5.07
2.79267	5.07
2.80933	5.07
2.82600	5.07
2.84267	5.07
2.85933	5.07
2.87600	5.07
2.89267	5.07
2.90933	5.07
2.92600	5.07
2.94267	5.07
2.95933	5.07
2.97600	5.07
2.99267	5.07
3.00933	5.07
3.02600	5.07
3.04267	5.07
3.05933	5.07
3.07600	5.07
3.09267	5.07
3.10933	5.07
3.12600	5.07
3.14267	5.07
3.15933	5.07
3.17600	5.07
3.19267	5.07
3.20933	5.07
3.22600	5.07
3.24267	5.07
3.25933	5.07
3.27600	5.07
3.29267	5.07
3.30933	5.07
3.32600	5.07
3.34267	5.07
3.35933	5.07
3.37600	5.07
3.39267	5.07
3.40933	5.07
3.42600	5.07
3.44267	5.07
3.45933	5.07
3.47600	5.07
3.49267	5.07
3.50933	5.07
3.52600	5.07
3.54267	5.07
3.55933	5.07
3.57600	5.07
3.59267	5.07
3.60933	5.07
3.62600	5.07
3.64267	5.07
3.65933	5.07
3.67600	5.07
3.69267	5.07
3.70933	5.07
3.72600	5.07
3.74267	5.07
3.75933	5.07
3.77600	5.07
3.79267	5.07
3.80933	5.07
3.82600	5.07
3.84267	5.07
3.85933	5.07
3.87600	5.07
3.89267	5.07
3.90933	5.07
3.92600	5.07
3.94267	5.07
3.95933	5.07
3.97600	5.07
3.99267	5.07

[Status Trace (Linear Velocity)]
Interval(msec)	1000
# of Points	240
Start Time(min)	0.009
End Time(min)	3.993
Intensity Units	
Intensity Multiplier	1
R.Time (min)	Intensity
0.00933	39.01
0.02600	37.15
0.04267	38.56
0.05933	40.00
0.07600	39.72
0.09267	39.03
0.10933	39.00
0.12600	39.01
0.14267	39.01
0.15933	39.01
0.17600	39.01
0.19267	39.01
0.20933	39.01
0.22600	39.01
0.24267	39.01
0.25933	39.01
0.27600	39.01
0.29267	39.01
0.30933	39.01
0.32600	39.01
0.34267	39.01
0.35933	39.01
0.37600	39.01
0.39267	39.01
0.40933	39.01
0.42600	39.01
0.44267	39.01
0.45933	39.01
0.47600	39.01
0.49267	39.01
0.50933	39.01
0.52600	39.01
0.54267	39.01
0.55933	39.01
0.57600	39.01
0.59267	39.01
0.60933	39.01
0.62600	39.01
0.64267	39.01
0.65933	39.01
0.67600	39.01
0.69267	39.01
0.70933	39.01
0.72600	39.01
0.74267	39.01
0.75933	39.01
0.77600	39.01
0.79267	39.01
0.80933	39.01
0.82600	39.01
0.84267	39.01
0.85933	39.01
0.87600	39.01
0.89267	39.01
0.90933	39.01
0.92600	39.01
0.94267	39.01
0.95933	39.01
0.97600	39.02
0.99267	39.02
1.00933	39.02
1.02600	39.02
1.04267	39.02
1.05933	39.02
1.07600	39.02
1.09267	39.01
1.10933	39.02
1.12600	39.02
1.14267	39.02
1.15933	39.02
1.17600	39.02
1.19267	39.01
1.20933	39.01
1.22600	39.01
1.24267	39.01
1.25933	39.01
1.27600	39.01
1.29267	39.02
1.30933	39.01
1.32600	39.01
1.34267	39.01
1.35933	39.01
1.37600	39.01
1.39267	39.02
1.40933	39.02
1.42600	39.02
1.44267	39.01
1.45933	39.01
1.47600	39.01
1.49267	39.02
1.50933	39.02
1.52600	39.02
1.54267	39.02
1.55933	39.01
1.57600	39.01
1.59267	39.01
1.60933	39.01
1.62600	39.00
1.64267	38.98
1.65933	38.96
1.67600	38.93
1.69267	38.89
1.70933	38.85
1.72600	38.82
1.74267	38.79
1.75933	38.76
1.77600	38.73
1.79267	38.69
1.80933	38.66
1.82600	38.63
1.84267	38.60
1.85933	38.57
1.87600	38.54
1.89267	38.51
1.90933	38.48
1.92600	38.45
1.94267	38.42
1.95933	38.39
1.97600	38.36
1.99267	38.33
2.00933	38.30
2.02600	38.27
2.04267	38.24
2.05933	38.21
2.07600	38.18
2.09267	38.15
2.10933	38.12
2.12600	38.09
2.14267	38.06
2.15933	38.03
2.17600	38.00
2.19267	37.97
2.20933	37.94
2.22600	37.91
2.24267	37.88
2.25933	37.85
2.27600	37.82
2.29267	37.79
2.30933	37.76
2.32600	37.73
2.34267	37.70
2.35933	37.68
2.37600	37.66
2.39267	37.66
2.40933	37.66
2.42600	37.66
2.44267	37.66
2.45933	37.66
2.47600	37.66
2.49267	37.66
2.50933	37.66
2.52600	37.65
2.54267	37.66
2.55933	37.66
2.57600	37.66
2.59267	37.65
2.60933	37.65
2.62600	37.65
2.64267	37.65
2.65933	37.65
2.67600	37.65
2.69267	37.65
2.70933	37.64
2.72600	37.64
2.74267	37.64
2.75933	37.64
2.77600	37.64
2.79267	37.64
2.80933	37.64
2.82600	37.64
2.84267	37.64
2.85933	37.64
2.87600	37.64
2.89267	37.64
2.90933	37.64
2.92600	37.64
2.94267	37.64
2.95933	37.64
2.97600	37.64
2.99267	37.64
3.00933	37.63
3.02600	37.63
3.04267	37.63
3.05933	37.63
3.07600	37.63
3.09267	37.63
3.10933	37.63
3.12600	37.63
3.14267	37.63
3.15933	37.63
3.17600	37.62
3.19267	37.62
3.20933	37.62
3.22600	37.62
3.24267	37.62
3.25933	37.62
3.27600	37.62
3.29267	37.62
3.30933	37.62
3.32600	37.62
3.34267	37.62
3.35933	37.62
3.37600	37.62
3.39267	37.62
3.40933	37.62
3.42600	37.63
3.44267	37.63
3.45933	37.63
3.47600	37.63
3.49267	37.63
3.50933	37.63
3.52600	37.63
3.54267	37.63
3.55933	37.63
3.57600	37.63
3.59267	37.63
3.60933	37.63
3.62600	37.62
3.64267	37.63
3.65933	37.63
3.67600	37.62
3.69267	37.63
3.70933	37.63
3.72600	37.63
3.74267	37.62
3.75933	37.62
3.77600	37.62
3.79267	37.62
3.80933	37.63
3.82600	37.63
3.84267	37.63
3.85933	37.63
3.87600	37.63
3.89267	37.63
3.90933	37.63
3.92600	37.62
3.94267	37.62
3.95933	37.62
3.97600	37.62
3.99267	37.62

