[Header]
Application Name	LabSolutions
Version	5.110
Data File Name	C:\Users\User\Desktop\GC Analyses\Jack\UIC Prairie Sampling\11.2.22\221102_023.gcd
Output Date	3/20/2023
Output Time	1:25:36 PM

[File Information]
Type	Data File
Generated	12/20/2022 2:20:53 PM
Generated by	System Administrator
Modified	12/20/2022 2:25:20 PM
Modified by	System Administrator

[Sample Information]
Operator Name	System Administrator
Acquired	12/20/2022 2:21:20 PM
Sample Type	1:Standard
Level	1
Sample Name	221102_UICPrairie
Sample ID	221102_UICPrairie
ISTD Amount1	1
ISTD Amount2	1
ISTD Amount3	1
ISTD Amount4	1
ISTD Amount5	1
ISTD Amount6	1
ISTD Amount7	1
ISTD Amount8	1
ISTD Amount9	1
ISTD Amount10	1
ISTD Amount11	1
ISTD Amount12	1
ISTD Amount13	1
ISTD Amount14	1
ISTD Amount15	1
ISTD Amount16	1
ISTD Amount17	1
ISTD Amount18	1
ISTD Amount19	1
ISTD Amount20	1
ISTD Amount21	1
ISTD Amount22	1
ISTD Amount23	1
ISTD Amount24	1
ISTD Amount25	1
ISTD Amount26	1
ISTD Amount27	1
ISTD Amount28	1
ISTD Amount29	1
ISTD Amount30	1
ISTD Amount31	1
ISTD Amount32	1
Sample Amount	1
Dilution Factor	1
Vial#	1
Injection Volume	1
Injection Count	1
Bar Code	

[Original Files]
Data File	C:\Users\User\Desktop\GC Analyses\Jack\UIC Prairie Sampling\11.2.22\221102_023.gcd
Method File	C:\LabSolutions\Data\GHG_4min_2022\ghg3_togas_w_acet_4 min_new_int.gcm
Batch File	
Report Format File	c:\LabSolutions\System\DEFAULT.lsr

[File Description]


[Configuration]
Instrument Name	C0B7VH3-Instrument1
Instrument #	1
Line #	1
# of Detectors	3
Detector ID	DET#1	DET#2	DET#3
Detector Name	FID	PTCD	ECD
# of Channels	1	1	1

[Peak Table(Ch1)]
# of Peaks	3
Peak#	R.Time	I.Time	F.Time	Area	Height	A/H	Conc.	Mark	ID#	Name	k'	Plate #	Plate Ht.	Tailing	Resolution	Sep.Factor	Area Ratio	Height Ratio	Conc. %	Norm Conc.
1	1.479	1.439	1.538	6632	2690	2.465	100.000	   	1	CO	0.000	7270	20.633	1.252	0.000	0.000	0	0	16.667	16.667
2	1.571	1.538	1.622	5877	2960	1.985	100.000	 V 	2	CH4	0.062	11357	13.208	1.083	1.428	0.000	0	0	16.667	16.667
3	2.000	1.945	2.561	1115646	516069	2.162	400.000	   	3	CO2	0.352	17172	8.735	1.229	7.149	5.680	0	0	66.667	66.667

[Peak Table(Ch2)]
# of Peaks	0

[Peak Table(Ch3)]
# of Peaks	5
Peak#	R.Time	I.Time	F.Time	Area	Height	A/H	Conc.	Mark	ID#	Name	k'	Plate #	Plate Ht.	Tailing	Resolution	Sep.Factor	Area Ratio	Height Ratio	Conc. %	Norm Conc.
1	2.469	2.392	2.499	1267	440	2.878	0.000	   			0.000	9105	16.475	0.000	0.000	0.000	0	0	0.000	0.000
2	2.517	2.499	2.561	982	325	3.021	0.000	 V 			0.019	2861	52.423	0.000	0.327	0.000	0	0	0.000	0.000
3	2.609	2.561	2.656	1074	293	3.660	0.000	 V 			0.056	1778	84.377	0.000	0.421	2.923	0	0	0.000	0.000
4	2.884	2.667	3.859	40513	6311	6.420	1.000	S  	1	N2O	0.168	11614	12.916	3.537	1.551	2.974	0	0	50.000	50.000
5	3.214	3.085	3.470	804	76	10.564	1.000	T  	2	SF6	0.301	1928	77.797	1.120	1.651	1.796	0	0	50.000	50.000

[Compound Results(Ch1)]
# of IDs	6
ID#	Name	R.Time	Area	Height	Conc.	Curve	3rd	2nd	1st	Constant	Area Ratio	Height Ratio	Conc. %	Norm Conc.
1	CO	1.479	6632	2690	100.000	Linear	0.000000e+00	0.000000e+00	6.632472e+001	0.000000e+00	0	0	16.667	16.667
2	CH4	1.571	5877	2960	100.000	Linear	0.000000e+00	0.000000e+00	5.876865e+001	0.000000e+00	0	0	16.667	16.667
3	CO2	2.000	1115646	516069	400.000	Linear	0.000000e+00	0.000000e+00	2.789115e+003	0.000000e+00	0	0	66.667	66.667
4	Ethylene	0.000	0	0	0.000	Linear	0.000000e+00	0.000000e+00	0.000000e+00	0.000000e+00	0	0	0.000	0.000
5	Acetylene	0.000	0	0	0.000	Linear	0.000000e+00	0.000000e+00	0.000000e+00	0.000000e+00	0	0	0.000	0.000
6	Ethane	0.000	0	0	0.000	Linear	0.000000e+00	0.000000e+00	0.000000e+00	0.000000e+00	0	0	0.000	0.000

[Compound Results(Ch2)]
# of IDs	5
ID#	Name	R.Time	Area	Height	Conc.	Curve	3rd	2nd	1st	Constant	Area Ratio	Height Ratio	Conc. %	Norm Conc.
1	Hydrogen	0.000	0	0	0.000	Linear	0.000000e+00	0.000000e+00	0.000000e+00	0.000000e+00	0	0	0.000	0.000
2	Oxygen	0.000	0	0	0.000	Linear	0.000000e+00	0.000000e+00	0.000000e+00	0.000000e+00	0	0	0.000	0.000
3	Nitrogen	0.000	0	0	0.000	Linear	0.000000e+00	0.000000e+00	0.000000e+00	0.000000e+00	0	0	0.000	0.000
4	Methane	0.000	0	0	0.000	Linear	0.000000e+00	0.000000e+00	0.000000e+00	0.000000e+00	0	0	0.000	0.000
5	Carbon Monoxide	0.000	0	0	0.000	Linear	0.000000e+00	0.000000e+00	0.000000e+00	0.000000e+00	0	0	0.000	0.000

[Compound Results(Ch3)]
# of IDs	2
ID#	Name	R.Time	Area	Height	Conc.	Curve	3rd	2nd	1st	Constant	Area Ratio	Height Ratio	Conc. %	Norm Conc.
1	N2O	2.884	40513	6311	1.000	Linear	0.000000e+00	0.000000e+00	4.051275e+004	0.000000e+00	0	0	50.000	50.000
2	SF6	3.214	804	76	1.000	Linear	0.000000e+00	0.000000e+00	8.037327e+002	0.000000e+00	0	0	50.000	50.000

[Group Results(Ch1)]
# of Groups	0

[Group Results(Ch2)]
# of Groups	0

[Group Results(Ch3)]
# of Groups	0

[Chromatogram (Ch1)]
Interval(msec)	220
# of Points	1091
Start Time(min)	0.002
End Time(min)	3.998
R.Time (min)	Intensity
0.00167	-8
0.00533	-12
0.00900	-14
0.01267	-16
0.01633	-19
0.02000	-21
0.02367	-22
0.02733	-20
0.03100	-13
0.03467	-4
0.03833	4
0.04200	5
0.04567	2
0.04933	-4
0.05300	-10
0.05667	-15
0.06033	-16
0.06400	-15
0.06767	-11
0.07133	-10
0.07500	-11
0.07867	-13
0.08233	-16
0.08600	-18
0.08967	-20
0.09333	-21
0.09700	-18
0.10067	-13
0.10433	-6
0.10800	3
0.11167	12
0.11533	15
0.11900	14
0.12267	10
0.12633	4
0.13000	-2
0.13367	-6
0.13733	-7
0.14100	-7
0.14467	-7
0.14833	-6
0.15200	-1
0.15567	5
0.15933	8
0.16300	7
0.16667	3
0.17033	-4
0.17400	-12
0.17767	-16
0.18133	-19
0.18500	-18
0.18867	-12
0.19233	-5
0.19600	-0
0.19967	1
0.20333	-4
0.20700	-10
0.21067	-17
0.21433	-21
0.21800	-22
0.22167	-23
0.22533	-26
0.22900	-30
0.23267	-32
0.23633	-31
0.24000	-27
0.24367	-23
0.24733	-19
0.25100	-14
0.25467	-12
0.25833	-16
0.26200	-21
0.26567	-23
0.26933	-22
0.27300	-20
0.27667	-20
0.28033	-22
0.28400	-24
0.28767	-25
0.29133	-26
0.29500	-27
0.29867	-26
0.30233	-21
0.30600	-17
0.30967	-17
0.31333	-20
0.31700	-23
0.32067	-25
0.32433	-26
0.32800	-28
0.33167	-29
0.33533	-28
0.33900	-24
0.34267	-20
0.34633	-18
0.35000	-15
0.35367	-14
0.35733	-13
0.36100	-9
0.36467	-7
0.36833	-9
0.37200	-11
0.37567	-13
0.37933	-15
0.38300	-14
0.38667	-15
0.39033	-16
0.39400	-14
0.39767	-7
0.40133	-2
0.40500	-4
0.40867	-10
0.41233	-18
0.41600	-28
0.41967	-37
0.42333	-39
0.42700	-37
0.43067	-33
0.43433	-30
0.43800	-29
0.44167	-29
0.44533	-31
0.44900	-36
0.45267	-38
0.45633	-36
0.46000	-33
0.46367	-30
0.46733	-28
0.47100	-28
0.47467	-30
0.47833	-35
0.48200	-38
0.48567	-39
0.48933	-41
0.49300	-42
0.49667	-41
0.50033	-37
0.50400	-31
0.50767	-28
0.51133	-29
0.51500	-31
0.51867	-32
0.52233	-30
0.52600	-28
0.52967	-29
0.53333	-31
0.53700	-33
0.54067	-37
0.54433	-42
0.54800	-44
0.55167	-45
0.55533	-43
0.55900	-38
0.56267	-34
0.56633	-32
0.57000	-34
0.57367	-38
0.57733	-42
0.58100	-44
0.58467	-44
0.58833	-45
0.59200	-50
0.59567	-59
0.59933	-66
0.60300	-70
0.60667	-73
0.61033	-71
0.61400	-67
0.61767	-61
0.62133	-50
0.62500	-38
0.62867	-31
0.63233	-28
0.63600	-26
0.63967	-27
0.64333	-29
0.64700	-32
0.65067	-39
0.65433	-51
0.65800	-66
0.66167	-79
0.66533	-84
0.66900	-84
0.67267	-77
0.67633	-67
0.68000	-57
0.68367	-48
0.68733	-41
0.69100	-38
0.69467	-37
0.69833	-38
0.70200	-39
0.70567	-39
0.70933	-40
0.71300	-43
0.71667	-45
0.72033	-44
0.72400	-47
0.72767	-55
0.73133	-64
0.73500	-72
0.73867	-75
0.74233	-74
0.74600	-71
0.74967	-68
0.75333	-62
0.75700	-55
0.76067	-49
0.76433	-44
0.76800	-43
0.77167	-45
0.77533	-49
0.77900	-53
0.78267	-57
0.78633	-62
0.79000	-64
0.79367	-62
0.79733	-58
0.80100	-55
0.80467	-52
0.80833	-49
0.81200	-46
0.81567	-48
0.81933	-53
0.82300	-59
0.82667	-62
0.83033	-66
0.83400	-70
0.83767	-73
0.84133	-74
0.84500	-72
0.84867	-71
0.85233	-72
0.85600	-73
0.85967	-73
0.86333	-73
0.86700	-74
0.87067	-72
0.87433	-69
0.87800	-65
0.88167	-60
0.88533	-58
0.88900	-57
0.89267	-57
0.89633	-60
0.90000	-62
0.90367	-61
0.90733	-58
0.91100	-54
0.91467	-51
0.91833	-55
0.92200	-62
0.92567	-72
0.92933	-83
0.93300	-90
0.93667	-89
0.94033	-83
0.94400	-76
0.94767	-72
0.95133	-71
0.95500	-71
0.95867	-71
0.96233	-69
0.96600	-71
0.96967	-77
0.97333	-81
0.97700	-83
0.98067	-81
0.98433	-77
0.98800	-74
0.99167	-74
0.99533	-77
0.99900	-81
1.00267	-85
1.00633	-86
1.01000	-86
1.01367	-82
1.01733	-75
1.02100	-71
1.02467	-70
1.02833	-72
1.03200	-75
1.03567	-76
1.03933	-77
1.04300	-78
1.04667	-78
1.05033	-78
1.05400	-80
1.05767	-86
1.06133	-91
1.06500	-97
1.06867	-101
1.07233	-100
1.07600	-93
1.07967	-84
1.08333	-74
1.08700	-68
1.09067	-68
1.09433	-75
1.09800	-89
1.10167	-102
1.10533	-111
1.10900	-113
1.11267	-107
1.11633	-96
1.12000	-85
1.12367	-80
1.12733	-80
1.13100	-83
1.13467	-84
1.13833	-86
1.14200	-86
1.14567	-86
1.14933	-85
1.15300	-85
1.15667	-86
1.16033	-90
1.16400	-94
1.16767	-97
1.17133	-102
1.17500	-103
1.17867	-100
1.18233	-94
1.18600	-88
1.18967	-87
1.19333	-93
1.19700	-102
1.20067	-106
1.20433	-104
1.20800	-101
1.21167	-100
1.21533	-100
1.21900	-96
1.22267	-93
1.22633	-87
1.23000	-82
1.23367	-80
1.23733	-82
1.24100	-85
1.24467	-91
1.24833	-99
1.25200	-104
1.25567	-105
1.25933	-104
1.26300	-103
1.26667	-105
1.27033	-108
1.27400	-108
1.27767	-110
1.28133	-114
1.28500	-120
1.28867	-127
1.29233	-131
1.29600	-129
1.29967	-124
1.30333	-120
1.30700	-116
1.31067	-113
1.31433	-112
1.31800	-111
1.32167	-107
1.32533	-101
1.32900	-95
1.33267	-89
1.33633	-88
1.34000	-92
1.34367	-100
1.34733	-108
1.35100	-113
1.35467	-113
1.35833	-112
1.36200	-113
1.36567	-112
1.36933	-110
1.37300	-107
1.37667	-104
1.38033	-99
1.38400	-96
1.38767	-100
1.39133	-108
1.39500	-119
1.39867	-128
1.40233	-135
1.40600	-134
1.40967	-127
1.41333	-118
1.41700	-114
1.42067	-113
1.42433	-112
1.42800	-112
1.43167	-114
1.43533	-114
1.43900	-101
1.44267	-31
1.44633	138
1.45000	374
1.45367	670
1.45733	1053
1.46100	1482
1.46467	1884
1.46833	2213
1.47200	2450
1.47567	2585
1.47933	2597
1.48300	2465
1.48667	2202
1.49033	1856
1.49400	1489
1.49767	1152
1.50133	870
1.50500	647
1.50867	480
1.51233	352
1.51600	258
1.51967	189
1.52333	140
1.52700	101
1.53067	64
1.53433	36
1.53800	27
1.54167	81
1.54533	275
1.54900	661
1.55267	1197
1.55633	1766
1.56000	2263
1.56367	2638
1.56733	2859
1.57100	2885
1.57467	2688
1.57833	2301
1.58200	1820
1.58567	1342
1.58933	932
1.59300	617
1.59667	391
1.60033	235
1.60400	127
1.60767	52
1.61133	-1
1.61500	-34
1.61867	-55
1.62233	-65
1.62600	-69
1.62967	-69
1.63333	-70
1.63700	-71
1.64067	-72
1.64433	-73
1.64800	-77
1.65167	-84
1.65533	-93
1.65900	-101
1.66267	-106
1.66633	-107
1.67000	-106
1.67367	-106
1.67733	-104
1.68100	-98
1.68467	-95
1.68833	-99
1.69200	-107
1.69567	-115
1.69933	-117
1.70300	-113
1.70667	-106
1.71033	-101
1.71400	-99
1.71767	-97
1.72133	-96
1.72500	-96
1.72867	-97
1.73233	-99
1.73600	-108
1.73967	-119
1.74333	-130
1.74700	-138
1.75067	-142
1.75433	-143
1.75800	-140
1.76167	-133
1.76533	-125
1.76900	-121
1.77267	-122
1.77633	-119
1.78000	-114
1.78367	-109
1.78733	-106
1.79100	-105
1.79467	-106
1.79833	-110
1.80200	-112
1.80567	-112
1.80933	-112
1.81300	-110
1.81667	-107
1.82033	-103
1.82400	-98
1.82767	-95
1.83133	-90
1.83500	-86
1.83867	-85
1.84233	-85
1.84600	-84
1.84967	-84
1.85333	-84
1.85700	-89
1.86067	-96
1.86433	-104
1.86800	-108
1.87167	-108
1.87533	-109
1.87900	-112
1.88267	-115
1.88633	-115
1.89000	-114
1.89367	-112
1.89733	-111
1.90100	-109
1.90467	-108
1.90833	-108
1.91200	-109
1.91567	-113
1.91933	-116
1.92300	-119
1.92667	-122
1.93033	-120
1.93400	-112
1.93767	-104
1.94133	-100
1.94500	-95
1.94867	-89
1.95233	-77
1.95600	-23
1.95967	291
1.96333	1808
1.96700	7441
1.97067	23421
1.97433	58618
1.97800	119644
1.98167	204451
1.98533	301096
1.98900	393367
1.99267	466269
1.99633	509059
2.00000	516016
2.00367	487450
2.00733	430454
2.01100	357235
2.01467	280965
2.01833	211722
2.02200	154724
2.02567	110979
2.02933	79019
2.03300	56420
2.03667	40758
2.04033	30016
2.04400	22662
2.04767	17596
2.05133	14061
2.05500	11554
2.05867	9737
2.06233	8386
2.06600	7356
2.06967	6549
2.07333	5904
2.07700	5377
2.08067	4936
2.08433	4563
2.08800	4246
2.09167	3972
2.09533	3732
2.09900	3520
2.10267	3330
2.10633	3156
2.11000	2997
2.11367	2853
2.11733	2727
2.12100	2612
2.12467	2504
2.12833	2407
2.13200	2320
2.13567	2239
2.13933	2162
2.14300	2088
2.14667	2013
2.15033	1940
2.15400	1871
2.15767	1808
2.16133	1749
2.16500	1691
2.16867	1636
2.17233	1583
2.17600	1531
2.17967	1483
2.18333	1439
2.18700	1400
2.19067	1364
2.19433	1332
2.19800	1303
2.20167	1274
2.20533	1242
2.20900	1211
2.21267	1182
2.21633	1157
2.22000	1134
2.22367	1113
2.22733	1093
2.23100	1069
2.23467	1045
2.23833	1023
2.24200	1002
2.24567	984
2.24933	967
2.25300	953
2.25667	942
2.26033	927
2.26400	908
2.26767	886
2.27133	866
2.27500	850
2.27867	838
2.28233	830
2.28600	823
2.28967	813
2.29333	798
2.29700	780
2.30067	761
2.30433	744
2.30800	729
2.31167	719
2.31533	710
2.31900	706
2.32267	701
2.32633	691
2.33000	678
2.33367	664
2.33733	648
2.34100	636
2.34467	629
2.34833	627
2.35200	626
2.35567	621
2.35933	611
2.36300	596
2.36667	581
2.37033	571
2.37400	568
2.37767	567
2.38133	564
2.38500	557
2.38867	549
2.39233	542
2.39600	534
2.39967	528
2.40333	523
2.40700	520
2.41067	520
2.41433	520
2.41800	520
2.42167	522
2.42533	523
2.42900	521
2.43267	517
2.43633	512
2.44000	506
2.44367	498
2.44733	488
2.45100	476
2.45467	467
2.45833	462
2.46200	459
2.46567	457
2.46933	458
2.47300	462
2.47667	462
2.48033	460
2.48400	457
2.48767	453
2.49133	446
2.49500	435
2.49867	422
2.50233	412
2.50600	408
2.50967	406
2.51333	407
2.51700	409
2.52067	411
2.52433	416
2.52800	420
2.53167	423
2.53533	420
2.53900	413
2.54267	404
2.54633	396
2.55000	389
2.55367	384
2.55733	380
2.56100	377
2.56467	376
2.56833	377
2.57200	383
2.57567	393
2.57933	400
2.58300	402
2.58667	402
2.59033	398
2.59400	393
2.59767	387
2.60133	383
2.60500	381
2.60867	381
2.61233	381
2.61600	379
2.61967	375
2.62333	368
2.62700	360
2.63067	354
2.63433	352
2.63800	353
2.64167	355
2.64533	354
2.64900	349
2.65267	344
2.65633	344
2.66000	343
2.66367	343
2.66733	341
2.67100	338
2.67467	335
2.67833	331
2.68200	327
2.68567	325
2.68933	327
2.69300	332
2.69667	337
2.70033	339
2.70400	339
2.70767	340
2.71133	339
2.71500	336
2.71867	332
2.72233	324
2.72600	317
2.72967	316
2.73333	320
2.73700	322
2.74067	323
2.74433	324
2.74800	326
2.75167	330
2.75533	332
2.75900	331
2.76267	330
2.76633	330
2.77000	327
2.77367	326
2.77733	326
2.78100	328
2.78467	331
2.78833	330
2.79200	326
2.79567	324
2.79933	322
2.80300	319
2.80667	315
2.81033	308
2.81400	303
2.81767	301
2.82133	299
2.82500	298
2.82867	299
2.83233	300
2.83600	300
2.83967	299
2.84333	300
2.84700	305
2.85067	312
2.85433	315
2.85800	315
2.86167	314
2.86533	317
2.86900	320
2.87267	319
2.87633	317
2.88000	316
2.88367	317
2.88733	318
2.89100	315
2.89467	311
2.89833	308
2.90200	306
2.90567	302
2.90933	299
2.91300	297
2.91667	294
2.92033	293
2.92400	293
2.92767	292
2.93133	290
2.93500	288
2.93867	286
2.94233	284
2.94600	284
2.94967	287
2.95333	290
2.95700	292
2.96067	289
2.96433	285
2.96800	280
2.97167	278
2.97533	277
2.97900	280
2.98267	284
2.98633	287
2.99000	292
2.99367	300
2.99733	308
3.00100	316
3.00467	324
3.00833	329
3.01200	327
3.01567	319
3.01933	312
3.02300	309
3.02667	309
3.03033	309
3.03400	306
3.03767	302
3.04133	300
3.04500	300
3.04867	298
3.05233	293
3.05600	290
3.05967	290
3.06333	290
3.06700	288
3.07067	283
3.07433	276
3.07800	268
3.08167	263
3.08533	264
3.08900	266
3.09267	265
3.09633	263
3.10000	263
3.10367	265
3.10733	266
3.11100	268
3.11467	268
3.11833	268
3.12200	268
3.12567	267
3.12933	266
3.13300	266
3.13667	268
3.14033	271
3.14400	274
3.14767	279
3.15133	279
3.15500	276
3.15867	270
3.16233	269
3.16600	271
3.16967	273
3.17333	273
3.17700	272
3.18067	271
3.18433	268
3.18800	263
3.19167	257
3.19533	254
3.19900	253
3.20267	255
3.20633	258
3.21000	261
3.21367	266
3.21733	275
3.22100	282
3.22467	284
3.22833	282
3.23200	278
3.23567	274
3.23933	269
3.24300	262
3.24667	255
3.25033	251
3.25400	247
3.25767	243
3.26133	241
3.26500	241
3.26867	242
3.27233	244
3.27600	249
3.27967	254
3.28333	253
3.28700	248
3.29067	243
3.29433	237
3.29800	235
3.30167	238
3.30533	244
3.30900	246
3.31267	245
3.31633	242
3.32000	240
3.32367	242
3.32733	244
3.33100	247
3.33467	247
3.33833	246
3.34200	244
3.34567	244
3.34933	244
3.35300	241
3.35667	238
3.36033	235
3.36400	234
3.36767	237
3.37133	241
3.37500	245
3.37867	247
3.38233	243
3.38600	239
3.38967	238
3.39333	238
3.39700	236
3.40067	236
3.40433	236
3.40800	238
3.41167	241
3.41533	244
3.41900	247
3.42267	247
3.42633	241
3.43000	232
3.43367	225
3.43733	224
3.44100	227
3.44467	232
3.44833	237
3.45200	242
3.45567	246
3.45933	242
3.46300	232
3.46667	221
3.47033	215
3.47400	215
3.47767	217
3.48133	218
3.48500	214
3.48867	210
3.49233	207
3.49600	204
3.49967	206
3.50333	209
3.50700	210
3.51067	211
3.51433	212
3.51800	211
3.52167	209
3.52533	209
3.52900	211
3.53267	211
3.53633	210
3.54000	212
3.54367	216
3.54733	216
3.55100	215
3.55467	217
3.55833	221
3.56200	225
3.56567	226
3.56933	223
3.57300	218
3.57667	210
3.58033	205
3.58400	204
3.58767	204
3.59133	202
3.59500	198
3.59867	194
3.60233	191
3.60600	190
3.60967	192
3.61333	197
3.61700	201
3.62067	205
3.62433	208
3.62800	210
3.63167	208
3.63533	199
3.63900	191
3.64267	186
3.64633	182
3.65000	181
3.65367	181
3.65733	183
3.66100	188
3.66467	193
3.66833	196
3.67200	195
3.67567	191
3.67933	183
3.68300	177
3.68667	171
3.69033	167
3.69400	168
3.69767	169
3.70133	169
3.70500	171
3.70867	171
3.71233	172
3.71600	173
3.71967	174
3.72333	176
3.72700	181
3.73067	185
3.73433	188
3.73800	191
3.74167	191
3.74533	189
3.74900	189
3.75267	190
3.75633	188
3.76000	182
3.76367	174
3.76733	167
3.77100	163
3.77467	162
3.77833	161
3.78200	161
3.78567	161
3.78933	162
3.79300	162
3.79667	161
3.80033	161
3.80400	160
3.80767	156
3.81133	149
3.81500	144
3.81867	143
3.82233	144
3.82600	148
3.82967	155
3.83333	160
3.83700	162
3.84067	159
3.84433	156
3.84800	157
3.85167	165
3.85533	174
3.85900	177
3.86267	173
3.86633	167
3.87000	158
3.87367	147
3.87733	137
3.88100	131
3.88467	129
3.88833	127
3.89200	127
3.89567	128
3.89933	132
3.90300	134
3.90667	134
3.91033	132
3.91400	130
3.91767	131
3.92133	135
3.92500	142
3.92867	149
3.93233	153
3.93600	153
3.93967	148
3.94333	142
3.94700	139
3.95067	137
3.95433	135
3.95800	130
3.96167	122
3.96533	115
3.96900	110
3.97267	106
3.97633	104
3.98000	106
3.98367	110
3.98733	112
3.99100	111
3.99467	109
3.99833	105

[Chromatogram (Ch2)]
Interval(msec)	220
# of Points	1091
Start Time(min)	0.002
End Time(min)	3.998
R.Time (min)	Intensity
0.00167	-0
0.00533	-0
0.00900	-0
0.01267	0
0.01633	0
0.02000	0
0.02367	1
0.02733	1
0.03100	1
0.03467	1
0.03833	1
0.04200	1
0.04567	1
0.04933	1
0.05300	1
0.05667	1
0.06033	0
0.06400	0
0.06767	0
0.07133	-0
0.07500	-0
0.07867	0
0.08233	0
0.08600	1
0.08967	1
0.09333	1
0.09700	1
0.10067	1
0.10433	0
0.10800	1
0.11167	1
0.11533	0
0.11900	0
0.12267	0
0.12633	0
0.13000	0
0.13367	0
0.13733	0
0.14100	0
0.14467	0
0.14833	0
0.15200	0
0.15567	1
0.15933	1
0.16300	1
0.16667	1
0.17033	1
0.17400	1
0.17767	1
0.18133	1
0.18500	1
0.18867	1
0.19233	1
0.19600	1
0.19967	1
0.20333	1
0.20700	1
0.21067	1
0.21433	1
0.21800	1
0.22167	1
0.22533	1
0.22900	0
0.23267	0
0.23633	0
0.24000	0
0.24367	0
0.24733	0
0.25100	0
0.25467	0
0.25833	0
0.26200	-0
0.26567	-0
0.26933	-1
0.27300	-1
0.27667	-1
0.28033	-1
0.28400	-1
0.28767	-1
0.29133	-1
0.29500	-1
0.29867	-1
0.30233	-1
0.30600	-1
0.30967	-1
0.31333	-1
0.31700	-1
0.32067	-1
0.32433	-0
0.32800	-0
0.33167	-0
0.33533	-0
0.33900	-0
0.34267	-0
0.34633	-0
0.35000	-0
0.35367	-0
0.35733	-0
0.36100	-0
0.36467	-0
0.36833	-0
0.37200	-0
0.37567	-0
0.37933	-0
0.38300	-0
0.38667	-0
0.39033	-0
0.39400	-0
0.39767	-0
0.40133	-1
0.40500	-1
0.40867	-1
0.41233	-1
0.41600	-1
0.41967	-1
0.42333	-1
0.42700	-1
0.43067	-1
0.43433	-1
0.43800	-1
0.44167	-1
0.44533	-1
0.44900	-1
0.45267	-1
0.45633	-1
0.46000	-1
0.46367	-1
0.46733	-1
0.47100	-1
0.47467	-1
0.47833	-0
0.48200	-0
0.48567	-0
0.48933	-0
0.49300	-1
0.49667	-1
0.50033	-1
0.50400	-1
0.50767	-1
0.51133	-1
0.51500	-1
0.51867	-1
0.52233	-1
0.52600	-1
0.52967	-1
0.53333	-1
0.53700	-1
0.54067	-1
0.54433	-1
0.54800	-1
0.55167	-1
0.55533	-1
0.55900	-1
0.56267	-1
0.56633	-1
0.57000	-1
0.57367	-1
0.57733	-1
0.58100	-1
0.58467	-1
0.58833	-1
0.59200	-1
0.59567	-1
0.59933	-2
0.60300	-2
0.60667	-2
0.61033	-2
0.61400	-2
0.61767	-1
0.62133	-2
0.62500	-2
0.62867	-2
0.63233	-2
0.63600	-2
0.63967	-2
0.64333	-2
0.64700	-2
0.65067	-2
0.65433	-3
0.65800	-3
0.66167	-3
0.66533	-3
0.66900	-3
0.67267	-3
0.67633	-3
0.68000	-2
0.68367	-2
0.68733	-2
0.69100	-2
0.69467	-2
0.69833	-2
0.70200	-2
0.70567	-2
0.70933	-2
0.71300	-2
0.71667	-2
0.72033	-2
0.72400	-2
0.72767	-2
0.73133	-2
0.73500	-2
0.73867	-2
0.74233	-2
0.74600	-2
0.74967	-2
0.75333	-2
0.75700	-2
0.76067	-2
0.76433	-2
0.76800	-2
0.77167	-2
0.77533	-2
0.77900	-2
0.78267	-2
0.78633	-2
0.79000	-2
0.79367	-2
0.79733	-2
0.80100	-2
0.80467	-2
0.80833	-1
0.81200	-1
0.81567	-1
0.81933	-1
0.82300	-1
0.82667	-1
0.83033	-1
0.83400	-1
0.83767	-1
0.84133	-1
0.84500	-1
0.84867	-1
0.85233	-1
0.85600	-1
0.85967	-2
0.86333	-2
0.86700	-2
0.87067	-2
0.87433	-2
0.87800	-2
0.88167	-2
0.88533	-2
0.88900	-2
0.89267	-2
0.89633	-2
0.90000	-2
0.90367	-2
0.90733	-2
0.91100	-2
0.91467	-2
0.91833	-2
0.92200	-2
0.92567	-2
0.92933	-3
0.93300	-3
0.93667	-2
0.94033	-2
0.94400	-2
0.94767	-2
0.95133	-2
0.95500	-2
0.95867	-2
0.96233	-2
0.96600	-2
0.96967	-2
0.97333	-2
0.97700	-2
0.98067	-3
0.98433	-3
0.98800	-3
0.99167	-3
0.99533	-3
0.99900	-3
1.00267	-3
1.00633	-3
1.01000	-3
1.01367	-3
1.01733	-2
1.02100	-2
1.02467	-2
1.02833	-2
1.03200	-2
1.03567	-2
1.03933	-1
1.04300	-1
1.04667	-1
1.05033	-1
1.05400	-1
1.05767	-1
1.06133	-1
1.06500	-1
1.06867	-1
1.07233	-1
1.07600	-1
1.07967	-1
1.08333	-1
1.08700	-1
1.09067	-1
1.09433	-1
1.09800	-1
1.10167	-1
1.10533	-1
1.10900	-1
1.11267	-1
1.11633	-1
1.12000	-1
1.12367	-1
1.12733	-2
1.13100	-2
1.13467	-2
1.13833	-2
1.14200	-2
1.14567	-2
1.14933	-2
1.15300	-3
1.15667	-3
1.16033	-3
1.16400	-3
1.16767	-3
1.17133	-3
1.17500	-3
1.17867	-2
1.18233	-2
1.18600	-2
1.18967	-1
1.19333	-1
1.19700	-1
1.20067	-1
1.20433	-1
1.20800	-1
1.21167	-1
1.21533	-1
1.21900	-1
1.22267	-2
1.22633	-2
1.23000	-2
1.23367	-3
1.23733	-3
1.24100	-3
1.24467	-3
1.24833	-3
1.25200	-3
1.25567	-3
1.25933	-2
1.26300	-2
1.26667	-2
1.27033	-2
1.27400	-2
1.27767	-3
1.28133	-3
1.28500	-3
1.28867	-3
1.29233	-3
1.29600	-3
1.29967	-2
1.30333	-2
1.30700	-2
1.31067	-2
1.31433	-2
1.31800	-3
1.32167	-3
1.32533	-3
1.32900	-3
1.33267	-3
1.33633	-3
1.34000	-3
1.34367	-3
1.34733	-3
1.35100	-3
1.35467	-3
1.35833	-3
1.36200	-3
1.36567	-3
1.36933	-3
1.37300	-3
1.37667	-3
1.38033	-4
1.38400	-4
1.38767	-4
1.39133	-4
1.39500	-4
1.39867	-5
1.40233	-5
1.40600	-5
1.40967	-4
1.41333	-4
1.41700	-4
1.42067	-4
1.42433	-4
1.42800	-4
1.43167	-4
1.43533	-4
1.43900	-4
1.44267	-4
1.44633	-3
1.45000	-3
1.45367	-3
1.45733	-3
1.46100	-3
1.46467	-2
1.46833	-2
1.47200	-2
1.47567	-2
1.47933	-2
1.48300	-2
1.48667	-2
1.49033	-2
1.49400	-2
1.49767	-2
1.50133	-2
1.50500	-2
1.50867	-2
1.51233	-3
1.51600	-3
1.51967	-3
1.52333	-3
1.52700	-3
1.53067	-3
1.53433	-3
1.53800	-4
1.54167	-4
1.54533	-4
1.54900	-4
1.55267	-4
1.55633	-3
1.56000	-3
1.56367	-3
1.56733	-3
1.57100	-3
1.57467	-3
1.57833	-3
1.58200	-3
1.58567	-3
1.58933	-3
1.59300	-3
1.59667	-4
1.60033	-5
1.60400	-6
1.60767	-7
1.61133	-9
1.61500	-10
1.61867	-13
1.62233	-15
1.62600	-18
1.62967	-21
1.63333	-25
1.63700	-28
1.64067	-32
1.64433	-35
1.64800	-39
1.65167	-43
1.65533	-46
1.65900	-50
1.66267	-55
1.66633	-59
1.67000	-64
1.67367	-69
1.67733	-75
1.68100	-80
1.68467	-84
1.68833	-89
1.69200	-93
1.69567	-96
1.69933	-99
1.70300	-102
1.70667	-104
1.71033	-106
1.71400	-107
1.71767	-108
1.72133	-109
1.72500	-110
1.72867	-111
1.73233	-112
1.73600	-113
1.73967	-113
1.74333	-114
1.74700	-114
1.75067	-114
1.75433	-114
1.75800	-114
1.76167	-114
1.76533	-115
1.76900	-115
1.77267	-116
1.77633	-117
1.78000	-118
1.78367	-118
1.78733	-118
1.79100	-119
1.79467	-119
1.79833	-119
1.80200	-119
1.80567	-119
1.80933	-120
1.81300	-120
1.81667	-120
1.82033	-120
1.82400	-121
1.82767	-121
1.83133	-121
1.83500	-121
1.83867	-121
1.84233	-120
1.84600	-120
1.84967	-120
1.85333	-121
1.85700	-121
1.86067	-121
1.86433	-121
1.86800	-121
1.87167	-121
1.87533	-121
1.87900	-121
1.88267	-122
1.88633	-122
1.89000	-122
1.89367	-122
1.89733	-122
1.90100	-122
1.90467	-122
1.90833	-121
1.91200	-121
1.91567	-120
1.91933	-119
1.92300	-118
1.92667	-117
1.93033	-117
1.93400	-116
1.93767	-116
1.94133	-116
1.94500	-116
1.94867	-116
1.95233	-116
1.95600	-116
1.95967	-117
1.96333	-117
1.96700	-117
1.97067	-117
1.97433	-117
1.97800	-116
1.98167	-115
1.98533	-115
1.98900	-114
1.99267	-114
1.99633	-113
2.00000	-113
2.00367	-113
2.00733	-113
2.01100	-113
2.01467	-113
2.01833	-113
2.02200	-113
2.02567	-113
2.02933	-112
2.03300	-112
2.03667	-112
2.04033	-112
2.04400	-111
2.04767	-111
2.05133	-110
2.05500	-109
2.05867	-108
2.06233	-107
2.06600	-106
2.06967	-106
2.07333	-105
2.07700	-105
2.08067	-105
2.08433	-105
2.08800	-105
2.09167	-105
2.09533	-105
2.09900	-105
2.10267	-105
2.10633	-104
2.11000	-104
2.11367	-104
2.11733	-104
2.12100	-104
2.12467	-104
2.12833	-104
2.13200	-103
2.13567	-103
2.13933	-102
2.14300	-102
2.14667	-102
2.15033	-101
2.15400	-101
2.15767	-100
2.16133	-100
2.16500	-100
2.16867	-100
2.17233	-100
2.17600	-100
2.17967	-100
2.18333	-100
2.18700	-100
2.19067	-100
2.19433	-99
2.19800	-98
2.20167	-98
2.20533	-97
2.20900	-96
2.21267	-96
2.21633	-95
2.22000	-95
2.22367	-95
2.22733	-95
2.23100	-94
2.23467	-94
2.23833	-94
2.24200	-94
2.24567	-93
2.24933	-92
2.25300	-91
2.25667	-91
2.26033	-90
2.26400	-90
2.26767	-90
2.27133	-91
2.27500	-92
2.27867	-92
2.28233	-92
2.28600	-93
2.28967	-92
2.29333	-91
2.29700	-90
2.30067	-89
2.30433	-88
2.30800	-88
2.31167	-88
2.31533	-87
2.31900	-87
2.32267	-87
2.32633	-86
2.33000	-86
2.33367	-85
2.33733	-84
2.34100	-84
2.34467	-83
2.34833	-82
2.35200	-81
2.35567	-80
2.35933	-79
2.36300	-78
2.36667	-77
2.37033	-75
2.37400	-73
2.37767	-70
2.38133	-67
2.38500	-64
2.38867	-60
2.39233	-57
2.39600	-53
2.39967	-49
2.40333	-45
2.40700	-41
2.41067	-38
2.41433	-34
2.41800	-31
2.42167	-28
2.42533	-26
2.42900	-24
2.43267	-22
2.43633	-20
2.44000	-18
2.44367	-16
2.44733	-14
2.45100	-12
2.45467	-9
2.45833	-7
2.46200	-6
2.46567	-4
2.46933	-3
2.47300	-2
2.47667	-1
2.48033	0
2.48400	1
2.48767	2
2.49133	3
2.49500	4
2.49867	5
2.50233	6
2.50600	6
2.50967	7
2.51333	8
2.51700	8
2.52067	9
2.52433	10
2.52800	11
2.53167	12
2.53533	12
2.53900	13
2.54267	13
2.54633	13
2.55000	14
2.55367	14
2.55733	15
2.56100	15
2.56467	15
2.56833	15
2.57200	15
2.57567	15
2.57933	15
2.58300	15
2.58667	15
2.59033	15
2.59400	15
2.59767	15
2.60133	15
2.60500	15
2.60867	15
2.61233	16
2.61600	16
2.61967	17
2.62333	17
2.62700	17
2.63067	17
2.63433	17
2.63800	18
2.64167	18
2.64533	19
2.64900	19
2.65267	20
2.65633	20
2.66000	20
2.66367	20
2.66733	20
2.67100	20
2.67467	21
2.67833	21
2.68200	21
2.68567	21
2.68933	21
2.69300	20
2.69667	20
2.70033	20
2.70400	20
2.70767	21
2.71133	21
2.71500	21
2.71867	21
2.72233	22
2.72600	22
2.72967	22
2.73333	22
2.73700	22
2.74067	22
2.74433	22
2.74800	23
2.75167	23
2.75533	24
2.75900	24
2.76267	25
2.76633	25
2.77000	25
2.77367	26
2.77733	26
2.78100	25
2.78467	25
2.78833	25
2.79200	24
2.79567	24
2.79933	23
2.80300	23
2.80667	22
2.81033	22
2.81400	22
2.81767	22
2.82133	23
2.82500	23
2.82867	24
2.83233	24
2.83600	25
2.83967	26
2.84333	26
2.84700	26
2.85067	26
2.85433	25
2.85800	22
2.86167	18
2.86533	12
2.86900	3
2.87267	-9
2.87633	-25
2.88000	-45
2.88367	-70
2.88733	-98
2.89100	-130
2.89467	-165
2.89833	-205
2.90200	-247
2.90567	-292
2.90933	-340
2.91300	-389
2.91667	-440
2.92033	-492
2.92400	-544
2.92767	-597
2.93133	-650
2.93500	-702
2.93867	-754
2.94233	-806
2.94600	-858
2.94967	-912
2.95333	-973
2.95700	-1035
2.96067	-1087
2.96433	-1121
2.96800	-1128
2.97167	-1109
2.97533	-1066
2.97900	-1006
2.98267	-933
2.98633	-853
2.99000	-771
2.99367	-690
2.99733	-612
3.00100	-539
3.00467	-471
3.00833	-410
3.01200	-355
3.01567	-306
3.01933	-263
3.02300	-225
3.02667	-192
3.03033	-163
3.03400	-138
3.03767	-117
3.04133	-98
3.04500	-82
3.04867	-69
3.05233	-57
3.05600	-47
3.05967	-38
3.06333	-31
3.06700	-25
3.07067	-19
3.07433	-15
3.07800	-11
3.08167	-8
3.08533	-5
3.08900	-2
3.09267	-0
3.09633	2
3.10000	3
3.10367	4
3.10733	6
3.11100	7
3.11467	7
3.11833	8
3.12200	9
3.12567	10
3.12933	10
3.13300	11
3.13667	12
3.14033	12
3.14400	13
3.14767	13
3.15133	14
3.15500	14
3.15867	15
3.16233	15
3.16600	15
3.16967	15
3.17333	15
3.17700	15
3.18067	15
3.18433	16
3.18800	16
3.19167	16
3.19533	16
3.19900	16
3.20267	16
3.20633	16
3.21000	16
3.21367	17
3.21733	17
3.22100	17
3.22467	18
3.22833	18
3.23200	19
3.23567	19
3.23933	19
3.24300	19
3.24667	19
3.25033	19
3.25400	19
3.25767	19
3.26133	20
3.26500	20
3.26867	20
3.27233	20
3.27600	20
3.27967	21
3.28333	21
3.28700	22
3.29067	22
3.29433	23
3.29800	23
3.30167	24
3.30533	25
3.30900	25
3.31267	26
3.31633	26
3.32000	26
3.32367	26
3.32733	26
3.33100	26
3.33467	27
3.33833	27
3.34200	27
3.34567	27
3.34933	27
3.35300	27
3.35667	27
3.36033	27
3.36400	27
3.36767	27
3.37133	27
3.37500	27
3.37867	27
3.38233	26
3.38600	26
3.38967	26
3.39333	25
3.39700	25
3.40067	25
3.40433	24
3.40800	24
3.41167	24
3.41533	24
3.41900	24
3.42267	24
3.42633	24
3.43000	24
3.43367	24
3.43733	23
3.44100	23
3.44467	24
3.44833	24
3.45200	24
3.45567	24
3.45933	24
3.46300	25
3.46667	25
3.47033	25
3.47400	25
3.47767	26
3.48133	26
3.48500	26
3.48867	26
3.49233	26
3.49600	26
3.49967	26
3.50333	26
3.50700	26
3.51067	26
3.51433	26
3.51800	26
3.52167	26
3.52533	26
3.52900	26
3.53267	26
3.53633	26
3.54000	26
3.54367	25
3.54733	25
3.55100	25
3.55467	25
3.55833	25
3.56200	25
3.56567	25
3.56933	25
3.57300	25
3.57667	25
3.58033	25
3.58400	26
3.58767	26
3.59133	26
3.59500	26
3.59867	26
3.60233	25
3.60600	25
3.60967	25
3.61333	25
3.61700	25
3.62067	25
3.62433	25
3.62800	25
3.63167	25
3.63533	25
3.63900	25
3.64267	25
3.64633	25
3.65000	25
3.65367	25
3.65733	25
3.66100	25
3.66467	25
3.66833	25
3.67200	25
3.67567	25
3.67933	25
3.68300	25
3.68667	25
3.69033	25
3.69400	25
3.69767	25
3.70133	25
3.70500	25
3.70867	25
3.71233	25
3.71600	25
3.71967	25
3.72333	25
3.72700	26
3.73067	26
3.73433	26
3.73800	26
3.74167	26
3.74533	26
3.74900	26
3.75267	26
3.75633	26
3.76000	26
3.76367	26
3.76733	26
3.77100	26
3.77467	26
3.77833	26
3.78200	26
3.78567	26
3.78933	25
3.79300	25
3.79667	25
3.80033	25
3.80400	25
3.80767	25
3.81133	26
3.81500	26
3.81867	26
3.82233	26
3.82600	26
3.82967	26
3.83333	26
3.83700	26
3.84067	26
3.84433	25
3.84800	25
3.85167	25
3.85533	25
3.85900	25
3.86267	25
3.86633	26
3.87000	26
3.87367	26
3.87733	26
3.88100	26
3.88467	27
3.88833	27
3.89200	27
3.89567	27
3.89933	27
3.90300	27
3.90667	27
3.91033	27
3.91400	27
3.91767	27
3.92133	27
3.92500	27
3.92867	26
3.93233	26
3.93600	27
3.93967	27
3.94333	27
3.94700	27
3.95067	27
3.95433	27
3.95800	27
3.96167	27
3.96533	27
3.96900	27
3.97267	27
3.97633	27
3.98000	27
3.98367	27
3.98733	27
3.99100	27
3.99467	27
3.99833	27

[Chromatogram (Ch3)]
Interval(msec)	220
# of Points	1091
Start Time(min)	0.002
End Time(min)	3.998
R.Time (min)	Intensity
0.00167	0
0.00533	1
0.00900	1
0.01267	2
0.01633	2
0.02000	2
0.02367	3
0.02733	3
0.03100	3
0.03467	1
0.03833	1
0.04200	2
0.04567	0
0.04933	-1
0.05300	-2
0.05667	-1
0.06033	1
0.06400	4
0.06767	3
0.07133	1
0.07500	-1
0.07867	-0
0.08233	-1
0.08600	-0
0.08967	3
0.09333	4
0.09700	5
0.10067	6
0.10433	5
0.10800	5
0.11167	4
0.11533	3
0.11900	3
0.12267	3
0.12633	2
0.13000	3
0.13367	2
0.13733	2
0.14100	4
0.14467	4
0.14833	5
0.15200	6
0.15567	7
0.15933	6
0.16300	5
0.16667	4
0.17033	2
0.17400	2
0.17767	1
0.18133	2
0.18500	2
0.18867	2
0.19233	2
0.19600	4
0.19967	5
0.20333	4
0.20700	3
0.21067	2
0.21433	3
0.21800	2
0.22167	1
0.22533	0
0.22900	-2
0.23267	-3
0.23633	-1
0.24000	0
0.24367	2
0.24733	2
0.25100	3
0.25467	4
0.25833	3
0.26200	2
0.26567	2
0.26933	2
0.27300	3
0.27667	4
0.28033	6
0.28400	5
0.28767	2
0.29133	-1
0.29500	-1
0.29867	-0
0.30233	0
0.30600	-1
0.30967	-3
0.31333	-7
0.31700	-9
0.32067	-11
0.32433	-7
0.32800	-5
0.33167	-4
0.33533	-3
0.33900	-4
0.34267	-5
0.34633	-5
0.35000	-4
0.35367	-2
0.35733	-0
0.36100	1
0.36467	3
0.36833	3
0.37200	3
0.37567	2
0.37933	-0
0.38300	-2
0.38667	-2
0.39033	-2
0.39400	-1
0.39767	0
0.40133	1
0.40500	1
0.40867	2
0.41233	3
0.41600	2
0.41967	1
0.42333	0
0.42700	0
0.43067	1
0.43433	-1
0.43800	-1
0.44167	0
0.44533	1
0.44900	-1
0.45267	-2
0.45633	-2
0.46000	-0
0.46367	-1
0.46733	-1
0.47100	-2
0.47467	-2
0.47833	-2
0.48200	-4
0.48567	-2
0.48933	-3
0.49300	-6
0.49667	-5
0.50033	-5
0.50400	-4
0.50767	-2
0.51133	-2
0.51500	-2
0.51867	-2
0.52233	-3
0.52600	-5
0.52967	-5
0.53333	-4
0.53700	-3
0.54067	-2
0.54433	-3
0.54800	-4
0.55167	-5
0.55533	-5
0.55900	-5
0.56267	-3
0.56633	-2
0.57000	-2
0.57367	-4
0.57733	-6
0.58100	-6
0.58467	-6
0.58833	-4
0.59200	-5
0.59567	-5
0.59933	-4
0.60300	-3
0.60667	-4
0.61033	-7
0.61400	-7
0.61767	-7
0.62133	-9
0.62500	-11
0.62867	-11
0.63233	-10
0.63600	-11
0.63967	-10
0.64333	-9
0.64700	-9
0.65067	-9
0.65433	-6
0.65800	-4
0.66167	-3
0.66533	-4
0.66900	-3
0.67267	-3
0.67633	-1
0.68000	-2
0.68367	-4
0.68733	-4
0.69100	-4
0.69467	-3
0.69833	-4
0.70200	-4
0.70567	-5
0.70933	-6
0.71300	-8
0.71667	-7
0.72033	-5
0.72400	-5
0.72767	-2
0.73133	-1
0.73500	-2
0.73867	-5
0.74233	-6
0.74600	-5
0.74967	-4
0.75333	-5
0.75700	-5
0.76067	-4
0.76433	-3
0.76800	-3
0.77167	-3
0.77533	-5
0.77900	-6
0.78267	-6
0.78633	-6
0.79000	-5
0.79367	-6
0.79733	-7
0.80100	-5
0.80467	-2
0.80833	0
0.81200	0
0.81567	-2
0.81933	-3
0.82300	-4
0.82667	-4
0.83033	-3
0.83400	-4
0.83767	-7
0.84133	-9
0.84500	-7
0.84867	-7
0.85233	-7
0.85600	-7
0.85967	-6
0.86333	-7
0.86700	-8
0.87067	-9
0.87433	-8
0.87800	-7
0.88167	-7
0.88533	-7
0.88900	-5
0.89267	-4
0.89633	-5
0.90000	-4
0.90367	-5
0.90733	-7
0.91100	-8
0.91467	-8
0.91833	-8
0.92200	-6
0.92567	-4
0.92933	-5
0.93300	-8
0.93667	-9
0.94033	-8
0.94400	-7
0.94767	-7
0.95133	-7
0.95500	-6
0.95867	-8
0.96233	-10
0.96600	-12
0.96967	-12
0.97333	-10
0.97700	-10
0.98067	-9
0.98433	-10
0.98800	-9
0.99167	-8
0.99533	-6
0.99900	-6
1.00267	-5
1.00633	-5
1.01000	-6
1.01367	-6
1.01733	-6
1.02100	-6
1.02467	-7
1.02833	-8
1.03200	-7
1.03567	-4
1.03933	-4
1.04300	-6
1.04667	-9
1.05033	-10
1.05400	-5
1.05767	-0
1.06133	1
1.06500	-0
1.06867	-1
1.07233	-1
1.07600	-4
1.07967	-5
1.08333	-5
1.08700	-5
1.09067	-7
1.09433	-7
1.09800	-8
1.10167	-8
1.10533	-7
1.10900	-8
1.11267	-8
1.11633	-7
1.12000	-7
1.12367	-7
1.12733	-7
1.13100	-6
1.13467	-5
1.13833	-6
1.14200	-5
1.14567	-5
1.14933	-5
1.15300	-6
1.15667	-6
1.16033	-6
1.16400	-6
1.16767	-7
1.17133	-7
1.17500	-6
1.17867	-6
1.18233	-6
1.18600	-6
1.18967	-5
1.19333	-6
1.19700	-8
1.20067	-6
1.20433	-4
1.20800	-5
1.21167	-8
1.21533	-11
1.21900	-12
1.22267	-10
1.22633	-7
1.23000	-6
1.23367	-5
1.23733	-4
1.24100	-3
1.24467	-1
1.24833	-2
1.25200	-3
1.25567	-5
1.25933	-6
1.26300	-8
1.26667	-10
1.27033	-9
1.27400	-11
1.27767	-11
1.28133	-9
1.28500	-9
1.28867	-9
1.29233	-8
1.29600	-8
1.29967	-9
1.30333	-11
1.30700	-11
1.31067	-11
1.31433	-10
1.31800	-9
1.32167	-9
1.32533	-10
1.32900	-10
1.33267	-9
1.33633	-8
1.34000	-7
1.34367	-7
1.34733	-6
1.35100	-6
1.35467	-8
1.35833	-10
1.36200	-12
1.36567	-11
1.36933	-10
1.37300	-9
1.37667	-8
1.38033	-10
1.38400	-12
1.38767	-11
1.39133	-11
1.39500	-11
1.39867	-11
1.40233	-10
1.40600	-10
1.40967	-12
1.41333	-13
1.41700	-14
1.42067	-11
1.42433	-9
1.42800	-7
1.43167	-7
1.43533	-7
1.43900	-6
1.44267	-8
1.44633	-9
1.45000	-7
1.45367	-8
1.45733	-8
1.46100	-8
1.46467	-8
1.46833	-5
1.47200	-4
1.47567	-6
1.47933	-7
1.48300	-7
1.48667	-8
1.49033	-7
1.49400	-7
1.49767	-6
1.50133	-5
1.50500	-6
1.50867	-6
1.51233	-6
1.51600	-7
1.51967	-7
1.52333	-7
1.52700	-8
1.53067	-7
1.53433	-9
1.53800	-11
1.54167	-11
1.54533	-8
1.54900	-8
1.55267	-11
1.55633	-13
1.56000	-14
1.56367	-15
1.56733	-15
1.57100	-14
1.57467	-13
1.57833	-12
1.58200	-11
1.58567	-12
1.58933	-12
1.59300	-12
1.59667	-11
1.60033	-11
1.60400	-11
1.60767	-11
1.61133	-12
1.61500	-10
1.61867	-9
1.62233	-8
1.62600	-8
1.62967	-10
1.63333	-11
1.63700	-11
1.64067	-9
1.64433	-8
1.64800	-7
1.65167	-8
1.65533	-10
1.65900	-10
1.66267	-7
1.66633	-4
1.67000	-5
1.67367	-7
1.67733	-7
1.68100	-4
1.68467	-1
1.68833	-0
1.69200	0
1.69567	1
1.69933	3
1.70300	5
1.70667	3
1.71033	3
1.71400	5
1.71767	5
1.72133	2
1.72500	-0
1.72867	-1
1.73233	-0
1.73600	0
1.73967	0
1.74333	2
1.74700	2
1.75067	1
1.75433	-1
1.75800	0
1.76167	1
1.76533	2
1.76900	5
1.77267	9
1.77633	9
1.78000	9
1.78367	10
1.78733	11
1.79100	10
1.79467	10
1.79833	11
1.80200	10
1.80567	9
1.80933	9
1.81300	12
1.81667	13
1.82033	11
1.82400	10
1.82767	11
1.83133	11
1.83500	12
1.83867	13
1.84233	13
1.84600	13
1.84967	11
1.85333	12
1.85700	12
1.86067	14
1.86433	14
1.86800	13
1.87167	13
1.87533	12
1.87900	13
1.88267	15
1.88633	16
1.89000	17
1.89367	19
1.89733	19
1.90100	20
1.90467	20
1.90833	20
1.91200	20
1.91567	22
1.91933	24
1.92300	28
1.92667	31
1.93033	31
1.93400	32
1.93767	33
1.94133	32
1.94500	31
1.94867	31
1.95233	30
1.95600	32
1.95967	33
1.96333	33
1.96700	35
1.97067	35
1.97433	35
1.97800	35
1.98167	34
1.98533	37
1.98900	37
1.99267	36
1.99633	37
2.00000	40
2.00367	41
2.00733	41
2.01100	39
2.01467	41
2.01833	44
2.02200	46
2.02567	46
2.02933	45
2.03300	43
2.03667	43
2.04033	44
2.04400	47
2.04767	49
2.05133	51
2.05500	53
2.05867	54
2.06233	54
2.06600	54
2.06967	55
2.07333	53
2.07700	52
2.08067	56
2.08433	58
2.08800	58
2.09167	56
2.09533	53
2.09900	53
2.10267	55
2.10633	56
2.11000	57
2.11367	60
2.11733	61
2.12100	63
2.12467	64
2.12833	66
2.13200	66
2.13567	65
2.13933	66
2.14300	67
2.14667	70
2.15033	72
2.15400	74
2.15767	74
2.16133	72
2.16500	74
2.16867	76
2.17233	76
2.17600	75
2.17967	76
2.18333	76
2.18700	76
2.19067	79
2.19433	80
2.19800	84
2.20167	85
2.20533	86
2.20900	86
2.21267	85
2.21633	87
2.22000	87
2.22367	89
2.22733	92
2.23100	92
2.23467	93
2.23833	95
2.24200	95
2.24567	96
2.24933	97
2.25300	96
2.25667	98
2.26033	99
2.26400	99
2.26767	99
2.27133	99
2.27500	99
2.27867	99
2.28233	100
2.28600	103
2.28967	104
2.29333	104
2.29700	104
2.30067	106
2.30433	108
2.30800	108
2.31167	108
2.31533	110
2.31900	110
2.32267	109
2.32633	108
2.33000	107
2.33367	109
2.33733	112
2.34100	115
2.34467	120
2.34833	122
2.35200	123
2.35567	124
2.35933	126
2.36300	128
2.36667	129
2.37033	129
2.37400	130
2.37767	129
2.38133	127
2.38500	126
2.38867	124
2.39233	124
2.39600	127
2.39967	131
2.40333	135
2.40700	137
2.41067	137
2.41433	138
2.41800	138
2.42167	140
2.42533	142
2.42900	147
2.43267	150
2.43633	151
2.44000	154
2.44367	193
2.44733	288
2.45100	394
2.45467	479
2.45833	517
2.46200	521
2.46567	519
2.46933	520
2.47300	512
2.47667	490
2.48033	457
2.48400	420
2.48767	387
2.49133	363
2.49500	349
2.49867	341
2.50233	344
2.50600	352
2.50967	365
2.51333	375
2.51700	378
2.52067	369
2.52433	352
2.52800	333
2.53167	312
2.53533	290
2.53900	273
2.54267	260
2.54633	249
2.55000	238
2.55367	231
2.55733	227
2.56100	224
2.56467	225
2.56833	229
2.57200	230
2.57567	232
2.57933	237
2.58300	243
2.58667	253
2.59033	263
2.59400	274
2.59767	282
2.60133	289
2.60500	294
2.60867	293
2.61233	284
2.61600	264
2.61967	234
2.62333	201
2.62700	164
2.63067	125
2.63433	89
2.63800	58
2.64167	32
2.64533	11
2.64900	-6
2.65267	-19
2.65633	-27
2.66000	-32
2.66367	-33
2.66733	-30
2.67100	-27
2.67467	-25
2.67833	-21
2.68200	-15
2.68567	-8
2.68933	0
2.69300	8
2.69667	16
2.70033	25
2.70400	34
2.70767	42
2.71133	50
2.71500	58
2.71867	65
2.72233	69
2.72600	76
2.72967	84
2.73333	90
2.73700	95
2.74067	101
2.74433	107
2.74800	110
2.75167	113
2.75533	119
2.75900	122
2.76267	125
2.76633	130
2.77000	143
2.77367	159
2.77733	179
2.78100	199
2.78467	214
2.78833	225
2.79200	230
2.79567	237
2.79933	252
2.80300	273
2.80667	299
2.81033	329
2.81400	363
2.81767	399
2.82133	433
2.82500	468
2.82867	511
2.83233	572
2.83600	668
2.83967	823
2.84333	1067
2.84700	1427
2.85067	1908
2.85433	2504
2.85800	3187
2.86167	3910
2.86533	4619
2.86900	5258
2.87267	5775
2.87633	6136
2.88000	6323
2.88367	6340
2.88733	6207
2.89100	5957
2.89467	5619
2.89833	5227
2.90200	4810
2.90567	4388
2.90933	3975
2.91300	3587
2.91667	3227
2.92033	2898
2.92400	2605
2.92767	2344
2.93133	2111
2.93500	1906
2.93867	1727
2.94233	1570
2.94600	1434
2.94967	1318
2.95333	1214
2.95700	1127
2.96067	1054
2.96433	990
2.96800	933
2.97167	884
2.97533	842
2.97900	804
2.98267	775
2.98633	751
2.99000	727
2.99367	707
2.99733	693
3.00100	682
3.00467	672
3.00833	663
3.01200	655
3.01567	645
3.01933	635
3.02300	631
3.02667	631
3.03033	632
3.03400	631
3.03767	631
3.04133	630
3.04500	632
3.04867	632
3.05233	629
3.05600	625
3.05967	623
3.06333	624
3.06700	624
3.07067	624
3.07433	625
3.07800	624
3.08167	624
3.08533	626
3.08900	629
3.09267	631
3.09633	633
3.10000	636
3.10367	637
3.10733	638
3.11100	640
3.11467	640
3.11833	641
3.12200	642
3.12567	642
3.12933	641
3.13300	640
3.13667	640
3.14033	640
3.14400	640
3.14767	638
3.15133	638
3.15500	638
3.15867	636
3.16233	634
3.16600	634
3.16967	633
3.17333	631
3.17700	629
3.18067	629
3.18433	629
3.18800	626
3.19167	620
3.19533	617
3.19900	616
3.20267	614
3.20633	612
3.21000	611
3.21367	609
3.21733	604
3.22100	599
3.22467	594
3.22833	591
3.23200	589
3.23567	586
3.23933	581
3.24300	575
3.24667	569
3.25033	565
3.25400	560
3.25767	554
3.26133	551
3.26500	549
3.26867	546
3.27233	543
3.27600	538
3.27967	533
3.28333	526
3.28700	521
3.29067	517
3.29433	511
3.29800	504
3.30167	499
3.30533	494
3.30900	489
3.31267	485
3.31633	481
3.32000	479
3.32367	476
3.32733	473
3.33100	468
3.33467	462
3.33833	457
3.34200	451
3.34567	448
3.34933	446
3.35300	445
3.35667	442
3.36033	437
3.36400	431
3.36767	425
3.37133	421
3.37500	417
3.37867	416
3.38233	414
3.38600	413
3.38967	410
3.39333	407
3.39700	403
3.40067	401
3.40433	399
3.40800	398
3.41167	395
3.41533	392
3.41900	390
3.42267	389
3.42633	386
3.43000	380
3.43367	374
3.43733	371
3.44100	371
3.44467	369
3.44833	366
3.45200	363
3.45567	361
3.45933	358
3.46300	353
3.46667	349
3.47033	345
3.47400	341
3.47767	336
3.48133	336
3.48500	335
3.48867	331
3.49233	328
3.49600	324
3.49967	322
3.50333	322
3.50700	321
3.51067	320
3.51433	319
3.51800	317
3.52167	315
3.52533	314
3.52900	314
3.53267	314
3.53633	315
3.54000	316
3.54367	314
3.54733	311
3.55100	311
3.55467	309
3.55833	305
3.56200	302
3.56567	301
3.56933	302
3.57300	304
3.57667	304
3.58033	303
3.58400	301
3.58767	298
3.59133	294
3.59500	295
3.59867	294
3.60233	295
3.60600	293
3.60967	291
3.61333	291
3.61700	293
3.62067	295
3.62433	295
3.62800	294
3.63167	292
3.63533	290
3.63900	289
3.64267	290
3.64633	292
3.65000	292
3.65367	293
3.65733	295
3.66100	296
3.66467	295
3.66833	294
3.67200	292
3.67567	291
3.67933	290
3.68300	292
3.68667	294
3.69033	294
3.69400	294
3.69767	293
3.70133	292
3.70500	291
3.70867	288
3.71233	285
3.71600	284
3.71967	286
3.72333	287
3.72700	288
3.73067	287
3.73433	287
3.73800	286
3.74167	286
3.74533	286
3.74900	285
3.75267	285
3.75633	285
3.76000	286
3.76367	287
3.76733	287
3.77100	288
3.77467	289
3.77833	288
3.78200	288
3.78567	288
3.78933	286
3.79300	286
3.79667	289
3.80033	290
3.80400	290
3.80767	289
3.81133	287
3.81500	286
3.81867	288
3.82233	291
3.82600	294
3.82967	295
3.83333	296
3.83700	295
3.84067	293
3.84433	290
3.84800	290
3.85167	292
3.85533	293
3.85900	293
3.86267	292
3.86633	289
3.87000	290
3.87367	292
3.87733	291
3.88100	292
3.88467	293
3.88833	296
3.89200	296
3.89567	297
3.89933	297
3.90300	295
3.90667	294
3.91033	294
3.91400	294
3.91767	294
3.92133	292
3.92500	291
3.92867	291
3.93233	291
3.93600	291
3.93967	293
3.94333	295
3.94700	296
3.95067	294
3.95433	293
3.95800	292
3.96167	291
3.96533	291
3.96900	292
3.97267	294
3.97633	294
3.98000	291
3.98367	291
3.98733	292
3.99100	291
3.99467	293
3.99833	291

[Status Trace (Column Oven Temperature)]
Interval(msec)	1000
# of Points	239
Start Time(min)	0.016
End Time(min)	3.982
Intensity Units	
Intensity Multiplier	1
R.Time (min)	Intensity
0.01563	35.02
0.03230	35.02
0.04897	35.02
0.06563	35.02
0.08230	35.03
0.09897	35.02
0.11563	35.02
0.13230	35.02
0.14897	35.02
0.16563	35.01
0.18230	35.01
0.19897	35.00
0.21563	34.99
0.23230	34.99
0.24897	34.99
0.26563	34.99
0.28230	34.99
0.29897	34.99
0.31563	35.00
0.33230	35.00
0.34897	34.99
0.36563	34.99
0.38230	34.99
0.39897	34.99
0.41563	35.00
0.43230	35.01
0.44897	35.00
0.46563	35.01
0.48230	35.00
0.49897	35.00
0.51563	35.00
0.53230	34.99
0.54897	35.00
0.56563	34.99
0.58230	34.99
0.59897	35.00
0.61563	34.99
0.63230	34.99
0.64897	34.99
0.66563	34.99
0.68230	34.99
0.69897	34.99
0.71563	34.99
0.73230	34.99
0.74897	35.00
0.76563	35.00
0.78230	34.99
0.79897	34.99
0.81563	34.99
0.83230	34.99
0.84897	34.98
0.86563	34.99
0.88230	35.00
0.89897	35.00
0.91563	34.99
0.93230	34.99
0.94897	35.00
0.96563	34.99
0.98230	35.00
0.99897	35.00
1.01563	35.00
1.03230	35.00
1.04897	35.00
1.06563	34.99
1.08230	35.00
1.09897	35.00
1.11563	35.00
1.13230	34.99
1.14897	34.99
1.16563	34.99
1.18230	34.99
1.19897	34.99
1.21563	34.99
1.23230	35.00
1.24897	35.00
1.26563	35.00
1.28230	34.99
1.29897	34.99
1.31563	34.99
1.33230	34.99
1.34897	34.99
1.36563	34.99
1.38230	35.00
1.39897	35.01
1.41563	35.01
1.43230	35.01
1.44897	35.01
1.46563	35.00
1.48230	34.99
1.49897	34.99
1.51563	34.99
1.53230	34.99
1.54897	34.99
1.56563	34.99
1.58230	34.99
1.59897	35.01
1.61563	35.10
1.63230	35.25
1.64897	35.46
1.66563	35.75
1.68230	36.11
1.69897	36.47
1.71563	36.81
1.73230	37.16
1.74897	37.48
1.76563	37.81
1.78230	38.16
1.79897	38.48
1.81563	38.81
1.83230	39.15
1.84897	39.48
1.86563	39.80
1.88230	40.15
1.89897	40.47
1.91563	40.80
1.93230	41.12
1.94897	41.44
1.96563	41.80
1.98230	42.11
1.99897	42.43
2.01563	42.76
2.03230	43.09
2.04897	43.41
2.06563	43.72
2.08230	44.04
2.09897	44.36
2.11563	44.69
2.13230	45.02
2.14897	45.34
2.16563	45.66
2.18230	46.00
2.19897	46.30
2.21563	46.64
2.23230	46.97
2.24897	47.28
2.26563	47.63
2.28230	47.99
2.29897	48.31
2.31563	48.66
2.33230	48.98
2.34897	49.28
2.36563	49.53
2.38230	49.64
2.39897	49.67
2.41563	49.66
2.43230	49.68
2.44897	49.69
2.46563	49.70
2.48230	49.71
2.49897	49.72
2.51563	49.74
2.53230	49.74
2.54897	49.74
2.56563	49.76
2.58230	49.77
2.59897	49.79
2.61563	49.80
2.63230	49.82
2.64897	49.82
2.66563	49.83
2.68230	49.83
2.69897	49.85
2.71563	49.84
2.73230	49.86
2.74897	49.85
2.76563	49.84
2.78230	49.88
2.79897	49.90
2.81563	49.92
2.83230	49.91
2.84897	49.90
2.86563	49.90
2.88230	49.89
2.89897	49.89
2.91563	49.89
2.93230	49.90
2.94897	49.92
2.96563	49.94
2.98230	49.96
2.99897	49.96
3.01563	49.97
3.03230	49.98
3.04897	49.98
3.06563	49.98
3.08230	50.00
3.09897	50.00
3.11563	50.02
3.13230	50.03
3.14897	50.05
3.16563	50.05
3.18230	50.07
3.19897	50.09
3.21563	50.09
3.23230	50.09
3.24897	50.11
3.26563	50.11
3.28230	50.10
3.29897	50.09
3.31563	50.07
3.33230	50.06
3.34897	50.04
3.36563	50.04
3.38230	50.05
3.39897	50.06
3.41563	50.07
3.43230	50.07
3.44897	50.07
3.46563	50.07
3.48230	50.07
3.49897	50.07
3.51563	50.06
3.53230	50.06
3.54897	50.06
3.56563	50.06
3.58230	50.05
3.59897	50.05
3.61563	50.05
3.63230	50.05
3.64897	50.05
3.66563	50.05
3.68230	50.06
3.69897	50.06
3.71563	50.06
3.73230	50.06
3.74897	50.07
3.76563	50.07
3.78230	50.06
3.79897	50.06
3.81563	50.06
3.83230	50.07
3.84897	50.07
3.86563	50.07
3.88230	50.07
3.89897	50.06
3.91563	50.06
3.93230	50.06
3.94897	50.05
3.96563	50.05
3.98230	50.06

[Status Trace (Injection Unit Temperature)]
Interval(msec)	1000
# of Points	239
Start Time(min)	0.016
End Time(min)	3.982
Intensity Units	
Intensity Multiplier	1
R.Time (min)	Intensity
0.01563	99.99
0.03230	99.99
0.04897	99.98
0.06563	99.98
0.08230	99.98
0.09897	99.99
0.11563	99.98
0.13230	99.98
0.14897	99.98
0.16563	99.98
0.18230	99.98
0.19897	99.98
0.21563	99.98
0.23230	99.98
0.24897	99.98
0.26563	99.98
0.28230	99.98
0.29897	99.98
0.31563	99.98
0.33230	99.98
0.34897	99.98
0.36563	99.98
0.38230	99.98
0.39897	99.98
0.41563	99.98
0.43230	99.98
0.44897	99.98
0.46563	99.98
0.48230	99.98
0.49897	99.98
0.51563	99.99
0.53230	99.98
0.54897	99.98
0.56563	99.98
0.58230	99.99
0.59897	99.99
0.61563	99.99
0.63230	99.98
0.64897	99.99
0.66563	99.99
0.68230	99.98
0.69897	99.99
0.71563	99.99
0.73230	99.99
0.74897	99.99
0.76563	99.99
0.78230	99.99
0.79897	99.99
0.81563	99.99
0.83230	99.99
0.84897	99.99
0.86563	99.99
0.88230	99.99
0.89897	99.99
0.91563	99.99
0.93230	99.99
0.94897	99.99
0.96563	99.99
0.98230	99.99
0.99897	99.99
1.01563	99.99
1.03230	99.99
1.04897	99.99
1.06563	99.99
1.08230	99.99
1.09897	99.99
1.11563	99.99
1.13230	99.99
1.14897	99.99
1.16563	99.99
1.18230	99.98
1.19897	99.99
1.21563	99.99
1.23230	99.99
1.24897	99.99
1.26563	99.99
1.28230	99.99
1.29897	99.99
1.31563	99.99
1.33230	99.99
1.34897	99.99
1.36563	99.99
1.38230	99.99
1.39897	99.99
1.41563	99.99
1.43230	99.99
1.44897	99.99
1.46563	99.99
1.48230	99.99
1.49897	99.99
1.51563	99.98
1.53230	99.99
1.54897	99.98
1.56563	99.99
1.58230	99.98
1.59897	99.99
1.61563	99.99
1.63230	99.98
1.64897	99.98
1.66563	99.98
1.68230	99.99
1.69897	99.98
1.71563	99.99
1.73230	99.99
1.74897	99.99
1.76563	99.99
1.78230	99.99
1.79897	99.99
1.81563	99.98
1.83230	99.99
1.84897	99.98
1.86563	99.98
1.88230	99.98
1.89897	99.98
1.91563	99.98
1.93230	99.98
1.94897	99.98
1.96563	99.98
1.98230	99.98
1.99897	99.98
2.01563	99.97
2.03230	99.97
2.04897	99.98
2.06563	99.98
2.08230	99.98
2.09897	99.98
2.11563	99.97
2.13230	99.98
2.14897	99.98
2.16563	99.98
2.18230	99.98
2.19897	99.98
2.21563	99.97
2.23230	99.97
2.24897	99.97
2.26563	99.98
2.28230	99.97
2.29897	99.97
2.31563	99.97
2.33230	99.97
2.34897	99.97
2.36563	99.97
2.38230	99.97
2.39897	99.97
2.41563	99.97
2.43230	99.97
2.44897	99.97
2.46563	99.97
2.48230	99.98
2.49897	99.97
2.51563	99.98
2.53230	99.97
2.54897	99.98
2.56563	99.98
2.58230	99.98
2.59897	99.98
2.61563	99.98
2.63230	99.98
2.64897	99.98
2.66563	99.98
2.68230	99.99
2.69897	99.99
2.71563	99.98
2.73230	99.99
2.74897	99.99
2.76563	99.99
2.78230	99.99
2.79897	99.99
2.81563	100.00
2.83230	100.00
2.84897	100.00
2.86563	100.00
2.88230	100.00
2.89897	100.00
2.91563	100.00
2.93230	100.00
2.94897	100.00
2.96563	100.01
2.98230	100.01
2.99897	100.01
3.01563	100.01
3.03230	100.01
3.04897	100.01
3.06563	100.01
3.08230	100.02
3.09897	100.02
3.11563	100.02
3.13230	100.02
3.14897	100.02
3.16563	100.02
3.18230	100.02
3.19897	100.02
3.21563	100.03
3.23230	100.03
3.24897	100.02
3.26563	100.03
3.28230	100.03
3.29897	100.03
3.31563	100.03
3.33230	100.03
3.34897	100.03
3.36563	100.03
3.38230	100.03
3.39897	100.04
3.41563	100.04
3.43230	100.04
3.44897	100.03
3.46563	100.04
3.48230	100.04
3.49897	100.04
3.51563	100.04
3.53230	100.04
3.54897	100.04
3.56563	100.04
3.58230	100.04
3.59897	100.04
3.61563	100.04
3.63230	100.04
3.64897	100.04
3.66563	100.04
3.68230	100.05
3.69897	100.05
3.71563	100.05
3.73230	100.05
3.74897	100.04
3.76563	100.05
3.78230	100.05
3.79897	100.05
3.81563	100.05
3.83230	100.05
3.84897	100.05
3.86563	100.05
3.88230	100.05
3.89897	100.05
3.91563	100.05
3.93230	100.05
3.94897	100.05
3.96563	100.05
3.98230	100.05

[Status Trace (Carrier Gas Pressure)]
Interval(msec)	1000
# of Points	239
Start Time(min)	0.016
End Time(min)	3.982
Intensity Units	
Intensity Multiplier	1
R.Time (min)	Intensity
0.01563	57.01
0.03230	55.67
0.04897	58.11
0.06563	59.89
0.08230	58.59
0.09897	57.98
0.11563	58.00
0.13230	58.01
0.14897	58.01
0.16563	58.00
0.18230	58.00
0.19897	58.00
0.21563	58.00
0.23230	58.00
0.24897	58.00
0.26563	58.00
0.28230	58.00
0.29897	58.00
0.31563	58.00
0.33230	58.00
0.34897	58.00
0.36563	58.00
0.38230	58.00
0.39897	58.00
0.41563	58.00
0.43230	58.00
0.44897	58.00
0.46563	58.00
0.48230	58.00
0.49897	58.00
0.51563	58.00
0.53230	58.00
0.54897	58.00
0.56563	58.00
0.58230	58.00
0.59897	58.00
0.61563	58.00
0.63230	58.00
0.64897	58.00
0.66563	58.00
0.68230	58.00
0.69897	58.00
0.71563	58.00
0.73230	58.00
0.74897	58.00
0.76563	58.00
0.78230	58.00
0.79897	58.00
0.81563	58.00
0.83230	58.00
0.84897	58.00
0.86563	58.00
0.88230	58.00
0.89897	58.00
0.91563	58.00
0.93230	58.00
0.94897	58.00
0.96563	58.00
0.98230	58.00
0.99897	58.00
1.01563	58.00
1.03230	58.00
1.04897	58.00
1.06563	58.00
1.08230	58.00
1.09897	58.00
1.11563	58.00
1.13230	58.00
1.14897	58.00
1.16563	58.00
1.18230	58.00
1.19897	58.00
1.21563	58.00
1.23230	58.00
1.24897	58.00
1.26563	58.00
1.28230	58.00
1.29897	58.00
1.31563	58.00
1.33230	58.00
1.34897	58.00
1.36563	58.00
1.38230	58.00
1.39897	58.00
1.41563	58.00
1.43230	58.00
1.44897	58.00
1.46563	58.00
1.48230	58.00
1.49897	58.00
1.51563	58.00
1.53230	58.00
1.54897	58.00
1.56563	58.00
1.58230	58.00
1.59897	58.00
1.61563	58.00
1.63230	58.01
1.64897	58.00
1.66563	58.01
1.68230	58.01
1.69897	58.00
1.71563	58.00
1.73230	58.00
1.74897	58.00
1.76563	58.00
1.78230	58.00
1.79897	58.00
1.81563	58.00
1.83230	58.00
1.84897	58.00
1.86563	58.00
1.88230	58.00
1.89897	58.00
1.91563	58.00
1.93230	58.00
1.94897	58.00
1.96563	58.00
1.98230	58.00
1.99897	58.00
2.01563	58.00
2.03230	58.00
2.04897	58.00
2.06563	58.00
2.08230	58.00
2.09897	58.00
2.11563	58.00
2.13230	58.00
2.14897	58.00
2.16563	58.00
2.18230	58.00
2.19897	58.00
2.21563	58.00
2.23230	58.00
2.24897	58.00
2.26563	58.00
2.28230	58.00
2.29897	58.00
2.31563	58.00
2.33230	58.00
2.34897	58.00
2.36563	58.00
2.38230	57.99
2.39897	57.99
2.41563	58.00
2.43230	58.00
2.44897	58.00
2.46563	58.00
2.48230	58.00
2.49897	58.00
2.51563	57.99
2.53230	57.99
2.54897	58.00
2.56563	58.00
2.58230	58.00
2.59897	58.00
2.61563	58.00
2.63230	58.00
2.64897	58.00
2.66563	58.00
2.68230	58.00
2.69897	58.00
2.71563	58.00
2.73230	58.00
2.74897	58.00
2.76563	58.00
2.78230	58.00
2.79897	58.00
2.81563	58.00
2.83230	58.00
2.84897	58.00
2.86563	58.00
2.88230	58.00
2.89897	58.00
2.91563	58.00
2.93230	58.00
2.94897	58.00
2.96563	58.00
2.98230	58.00
2.99897	58.00
3.01563	58.00
3.03230	58.00
3.04897	58.00
3.06563	58.00
3.08230	58.00
3.09897	58.00
3.11563	58.00
3.13230	58.00
3.14897	58.00
3.16563	58.00
3.18230	58.00
3.19897	58.00
3.21563	58.00
3.23230	58.00
3.24897	58.00
3.26563	58.00
3.28230	58.00
3.29897	58.00
3.31563	58.00
3.33230	58.00
3.34897	58.00
3.36563	58.00
3.38230	58.00
3.39897	58.00
3.41563	58.00
3.43230	58.00
3.44897	58.00
3.46563	58.00
3.48230	58.00
3.49897	58.00
3.51563	58.00
3.53230	58.00
3.54897	58.00
3.56563	58.00
3.58230	58.00
3.59897	58.00
3.61563	58.00
3.63230	58.00
3.64897	58.00
3.66563	58.00
3.68230	58.00
3.69897	58.00
3.71563	58.00
3.73230	58.00
3.74897	58.00
3.76563	58.00
3.78230	58.00
3.79897	58.00
3.81563	58.00
3.83230	58.00
3.84897	58.00
3.86563	58.00
3.88230	58.00
3.89897	58.00
3.91563	58.00
3.93230	58.00
3.94897	58.00
3.96563	58.00
3.98230	58.00

[Status Trace (Carrier Gas Flow)]
Interval(msec)	1000
# of Points	239
Start Time(min)	0.016
End Time(min)	3.982
Intensity Units	
Intensity Multiplier	1
R.Time (min)	Intensity
0.01563	33.84
0.03230	34.54
0.04897	34.54
0.06563	34.51
0.08230	34.50
0.09897	34.52
0.11563	34.52
0.13230	34.52
0.14897	34.52
0.16563	34.52
0.18230	34.52
0.19897	34.52
0.21563	34.52
0.23230	34.52
0.24897	34.52
0.26563	34.52
0.28230	34.52
0.29897	34.52
0.31563	34.52
0.33230	34.52
0.34897	34.52
0.36563	34.52
0.38230	34.52
0.39897	34.52
0.41563	34.52
0.43230	34.52
0.44897	34.52
0.46563	34.52
0.48230	34.52
0.49897	34.52
0.51563	34.52
0.53230	34.52
0.54897	34.52
0.56563	34.52
0.58230	34.52
0.59897	34.52
0.61563	34.52
0.63230	34.52
0.64897	34.52
0.66563	34.52
0.68230	34.52
0.69897	34.52
0.71563	34.52
0.73230	34.52
0.74897	34.52
0.76563	34.52
0.78230	34.52
0.79897	34.52
0.81563	34.52
0.83230	34.52
0.84897	34.52
0.86563	34.52
0.88230	34.52
0.89897	34.52
0.91563	34.52
0.93230	34.52
0.94897	34.52
0.96563	34.52
0.98230	34.52
0.99897	34.52
1.01563	34.52
1.03230	34.52
1.04897	34.52
1.06563	34.52
1.08230	34.52
1.09897	34.52
1.11563	34.52
1.13230	34.52
1.14897	34.52
1.16563	34.52
1.18230	34.52
1.19897	34.52
1.21563	34.52
1.23230	34.52
1.24897	34.52
1.26563	34.52
1.28230	34.52
1.29897	34.52
1.31563	34.52
1.33230	34.52
1.34897	34.52
1.36563	34.52
1.38230	34.52
1.39897	34.52
1.41563	34.52
1.43230	34.52
1.44897	34.52
1.46563	34.52
1.48230	34.52
1.49897	34.52
1.51563	34.52
1.53230	34.52
1.54897	34.52
1.56563	34.52
1.58230	34.52
1.59897	34.52
1.61563	34.52
1.63230	34.52
1.64897	34.52
1.66563	34.52
1.68230	34.52
1.69897	34.52
1.71563	34.52
1.73230	34.52
1.74897	34.52
1.76563	34.52
1.78230	34.52
1.79897	34.52
1.81563	34.52
1.83230	34.52
1.84897	34.52
1.86563	34.52
1.88230	34.52
1.89897	34.52
1.91563	34.52
1.93230	34.52
1.94897	34.52
1.96563	34.52
1.98230	34.52
1.99897	34.52
2.01563	34.52
2.03230	34.52
2.04897	34.52
2.06563	34.52
2.08230	34.52
2.09897	34.52
2.11563	34.52
2.13230	34.52
2.14897	34.52
2.16563	34.52
2.18230	34.52
2.19897	34.52
2.21563	34.52
2.23230	34.52
2.24897	34.52
2.26563	34.52
2.28230	34.52
2.29897	34.52
2.31563	34.52
2.33230	34.52
2.34897	34.52
2.36563	34.52
2.38230	34.52
2.39897	34.52
2.41563	34.52
2.43230	34.52
2.44897	34.52
2.46563	34.52
2.48230	34.52
2.49897	34.52
2.51563	34.52
2.53230	34.52
2.54897	34.52
2.56563	34.52
2.58230	34.52
2.59897	34.52
2.61563	34.52
2.63230	34.52
2.64897	34.52
2.66563	34.52
2.68230	34.52
2.69897	34.52
2.71563	34.52
2.73230	34.52
2.74897	34.52
2.76563	34.52
2.78230	34.52
2.79897	34.52
2.81563	34.52
2.83230	34.52
2.84897	34.52
2.86563	34.52
2.88230	34.52
2.89897	34.52
2.91563	34.52
2.93230	34.52
2.94897	34.52
2.96563	34.52
2.98230	34.52
2.99897	34.52
3.01563	34.52
3.03230	34.52
3.04897	34.52
3.06563	34.52
3.08230	34.52
3.09897	34.52
3.11563	34.52
3.13230	34.52
3.14897	34.52
3.16563	34.52
3.18230	34.52
3.19897	34.52
3.21563	34.52
3.23230	34.52
3.24897	34.52
3.26563	34.52
3.28230	34.51
3.29897	34.52
3.31563	34.52
3.33230	34.52
3.34897	34.52
3.36563	34.52
3.38230	34.52
3.39897	34.52
3.41563	34.52
3.43230	34.52
3.44897	34.52
3.46563	34.52
3.48230	34.52
3.49897	34.52
3.51563	34.52
3.53230	34.52
3.54897	34.52
3.56563	34.52
3.58230	34.52
3.59897	34.52
3.61563	34.52
3.63230	34.52
3.64897	34.51
3.66563	34.52
3.68230	34.52
3.69897	34.52
3.71563	34.53
3.73230	34.52
3.74897	34.52
3.76563	34.52
3.78230	34.52
3.79897	34.52
3.81563	34.52
3.83230	34.52
3.84897	34.52
3.86563	34.52
3.88230	34.52
3.89897	34.52
3.91563	34.52
3.93230	34.52
3.94897	34.52
3.96563	34.52
3.98230	34.53

[Status Trace (Column Flow)]
Interval(msec)	1000
# of Points	239
Start Time(min)	0.016
End Time(min)	3.982
Intensity Units	
Intensity Multiplier	1
R.Time (min)	Intensity
0.01563	5.45
0.03230	5.29
0.04897	5.58
0.06563	5.79
0.08230	5.64
0.09897	5.56
0.11563	5.57
0.13230	5.57
0.14897	5.57
0.16563	5.57
0.18230	5.57
0.19897	5.57
0.21563	5.57
0.23230	5.57
0.24897	5.57
0.26563	5.57
0.28230	5.57
0.29897	5.57
0.31563	5.57
0.33230	5.57
0.34897	5.57
0.36563	5.57
0.38230	5.57
0.39897	5.57
0.41563	5.57
0.43230	5.57
0.44897	5.57
0.46563	5.57
0.48230	5.57
0.49897	5.57
0.51563	5.57
0.53230	5.57
0.54897	5.57
0.56563	5.57
0.58230	5.57
0.59897	5.57
0.61563	5.57
0.63230	5.57
0.64897	5.57
0.66563	5.57
0.68230	5.57
0.69897	5.57
0.71563	5.57
0.73230	5.57
0.74897	5.57
0.76563	5.57
0.78230	5.57
0.79897	5.57
0.81563	5.57
0.83230	5.57
0.84897	5.57
0.86563	5.57
0.88230	5.57
0.89897	5.57
0.91563	5.57
0.93230	5.57
0.94897	5.57
0.96563	5.57
0.98230	5.57
0.99897	5.57
1.01563	5.57
1.03230	5.57
1.04897	5.57
1.06563	5.57
1.08230	5.57
1.09897	5.57
1.11563	5.57
1.13230	5.57
1.14897	5.57
1.16563	5.57
1.18230	5.57
1.19897	5.57
1.21563	5.57
1.23230	5.57
1.24897	5.57
1.26563	5.57
1.28230	5.57
1.29897	5.57
1.31563	5.57
1.33230	5.57
1.34897	5.57
1.36563	5.57
1.38230	5.57
1.39897	5.57
1.41563	5.57
1.43230	5.57
1.44897	5.57
1.46563	5.57
1.48230	5.57
1.49897	5.57
1.51563	5.57
1.53230	5.57
1.54897	5.57
1.56563	5.57
1.58230	5.57
1.59897	5.57
1.61563	5.56
1.63230	5.56
1.64897	5.55
1.66563	5.54
1.68230	5.53
1.69897	5.52
1.71563	5.51
1.73230	5.50
1.74897	5.49
1.76563	5.48
1.78230	5.47
1.79897	5.46
1.81563	5.45
1.83230	5.44
1.84897	5.43
1.86563	5.42
1.88230	5.41
1.89897	5.40
1.91563	5.39
1.93230	5.38
1.94897	5.37
1.96563	5.36
1.98230	5.35
1.99897	5.34
2.01563	5.33
2.03230	5.32
2.04897	5.31
2.06563	5.30
2.08230	5.29
2.09897	5.28
2.11563	5.27
2.13230	5.26
2.14897	5.25
2.16563	5.24
2.18230	5.23
2.19897	5.22
2.21563	5.22
2.23230	5.21
2.24897	5.20
2.26563	5.19
2.28230	5.18
2.29897	5.17
2.31563	5.16
2.33230	5.15
2.34897	5.14
2.36563	5.13
2.38230	5.13
2.39897	5.13
2.41563	5.13
2.43230	5.13
2.44897	5.13
2.46563	5.13
2.48230	5.13
2.49897	5.13
2.51563	5.13
2.53230	5.13
2.54897	5.13
2.56563	5.13
2.58230	5.13
2.59897	5.13
2.61563	5.13
2.63230	5.13
2.64897	5.13
2.66563	5.12
2.68230	5.12
2.69897	5.12
2.71563	5.12
2.73230	5.12
2.74897	5.12
2.76563	5.12
2.78230	5.12
2.79897	5.12
2.81563	5.12
2.83230	5.12
2.84897	5.12
2.86563	5.12
2.88230	5.12
2.89897	5.12
2.91563	5.12
2.93230	5.12
2.94897	5.12
2.96563	5.12
2.98230	5.12
2.99897	5.12
3.01563	5.12
3.03230	5.12
3.04897	5.12
3.06563	5.12
3.08230	5.12
3.09897	5.12
3.11563	5.12
3.13230	5.12
3.14897	5.12
3.16563	5.12
3.18230	5.12
3.19897	5.12
3.21563	5.12
3.23230	5.12
3.24897	5.12
3.26563	5.12
3.28230	5.12
3.29897	5.12
3.31563	5.12
3.33230	5.12
3.34897	5.12
3.36563	5.12
3.38230	5.12
3.39897	5.12
3.41563	5.12
3.43230	5.12
3.44897	5.12
3.46563	5.12
3.48230	5.12
3.49897	5.12
3.51563	5.12
3.53230	5.12
3.54897	5.12
3.56563	5.12
3.58230	5.12
3.59897	5.12
3.61563	5.12
3.63230	5.12
3.64897	5.12
3.66563	5.12
3.68230	5.12
3.69897	5.12
3.71563	5.12
3.73230	5.12
3.74897	5.12
3.76563	5.12
3.78230	5.12
3.79897	5.12
3.81563	5.12
3.83230	5.12
3.84897	5.12
3.86563	5.12
3.88230	5.12
3.89897	5.12
3.91563	5.12
3.93230	5.12
3.94897	5.12
3.96563	5.12
3.98230	5.12

[Status Trace (Linear Velocity)]
Interval(msec)	1000
# of Points	239
Start Time(min)	0.016
End Time(min)	3.982
Intensity Units	
Intensity Multiplier	1
R.Time (min)	Intensity
0.01563	38.38
0.03230	37.50
0.04897	39.10
0.06563	40.26
0.08230	39.41
0.09897	39.01
0.11563	39.03
0.13230	39.03
0.14897	39.03
0.16563	39.03
0.18230	39.03
0.19897	39.03
0.21563	39.03
0.23230	39.03
0.24897	39.03
0.26563	39.03
0.28230	39.03
0.29897	39.03
0.31563	39.03
0.33230	39.03
0.34897	39.03
0.36563	39.03
0.38230	39.03
0.39897	39.03
0.41563	39.03
0.43230	39.03
0.44897	39.03
0.46563	39.03
0.48230	39.03
0.49897	39.03
0.51563	39.03
0.53230	39.03
0.54897	39.03
0.56563	39.03
0.58230	39.03
0.59897	39.03
0.61563	39.03
0.63230	39.03
0.64897	39.03
0.66563	39.03
0.68230	39.03
0.69897	39.03
0.71563	39.03
0.73230	39.03
0.74897	39.03
0.76563	39.03
0.78230	39.03
0.79897	39.03
0.81563	39.03
0.83230	39.03
0.84897	39.03
0.86563	39.03
0.88230	39.03
0.89897	39.03
0.91563	39.03
0.93230	39.03
0.94897	39.03
0.96563	39.03
0.98230	39.03
0.99897	39.03
1.01563	39.03
1.03230	39.03
1.04897	39.03
1.06563	39.03
1.08230	39.03
1.09897	39.03
1.11563	39.03
1.13230	39.03
1.14897	39.03
1.16563	39.03
1.18230	39.03
1.19897	39.03
1.21563	39.03
1.23230	39.03
1.24897	39.03
1.26563	39.03
1.28230	39.03
1.29897	39.03
1.31563	39.03
1.33230	39.03
1.34897	39.03
1.36563	39.03
1.38230	39.03
1.39897	39.03
1.41563	39.03
1.43230	39.03
1.44897	39.03
1.46563	39.03
1.48230	39.03
1.49897	39.03
1.51563	39.03
1.53230	39.03
1.54897	39.03
1.56563	39.03
1.58230	39.03
1.59897	39.03
1.61563	39.02
1.63230	39.01
1.64897	38.99
1.66563	38.96
1.68230	38.92
1.69897	38.89
1.71563	38.85
1.73230	38.82
1.74897	38.79
1.76563	38.76
1.78230	38.73
1.79897	38.70
1.81563	38.66
1.83230	38.63
1.84897	38.60
1.86563	38.57
1.88230	38.54
1.89897	38.51
1.91563	38.48
1.93230	38.45
1.94897	38.42
1.96563	38.39
1.98230	38.36
1.99897	38.33
2.01563	38.30
2.03230	38.27
2.04897	38.24
2.06563	38.21
2.08230	38.18
2.09897	38.15
2.11563	38.12
2.13230	38.09
2.14897	38.06
2.16563	38.03
2.18230	38.00
2.19897	37.97
2.21563	37.94
2.23230	37.91
2.24897	37.88
2.26563	37.85
2.28230	37.82
2.29897	37.79
2.31563	37.76
2.33230	37.73
2.34897	37.71
2.36563	37.68
2.38230	37.67
2.39897	37.67
2.41563	37.67
2.43230	37.67
2.44897	37.67
2.46563	37.67
2.48230	37.67
2.49897	37.67
2.51563	37.66
2.53230	37.66
2.54897	37.67
2.56563	37.66
2.58230	37.66
2.59897	37.66
2.61563	37.66
2.63230	37.66
2.64897	37.66
2.66563	37.66
2.68230	37.66
2.69897	37.66
2.71563	37.66
2.73230	37.66
2.74897	37.66
2.76563	37.66
2.78230	37.65
2.79897	37.65
2.81563	37.65
2.83230	37.65
2.84897	37.65
2.86563	37.65
2.88230	37.65
2.89897	37.65
2.91563	37.65
2.93230	37.65
2.94897	37.65
2.96563	37.65
2.98230	37.65
2.99897	37.65
3.01563	37.65
3.03230	37.64
3.04897	37.64
3.06563	37.64
3.08230	37.64
3.09897	37.64
3.11563	37.64
3.13230	37.64
3.14897	37.64
3.16563	37.64
3.18230	37.64
3.19897	37.63
3.21563	37.63
3.23230	37.63
3.24897	37.63
3.26563	37.63
3.28230	37.63
3.29897	37.63
3.31563	37.64
3.33230	37.64
3.34897	37.64
3.36563	37.64
3.38230	37.64
3.39897	37.64
3.41563	37.64
3.43230	37.64
3.44897	37.64
3.46563	37.64
3.48230	37.64
3.49897	37.64
3.51563	37.64
3.53230	37.64
3.54897	37.64
3.56563	37.64
3.58230	37.64
3.59897	37.64
3.61563	37.64
3.63230	37.64
3.64897	37.64
3.66563	37.64
3.68230	37.64
3.69897	37.64
3.71563	37.64
3.73230	37.64
3.74897	37.64
3.76563	37.64
3.78230	37.64
3.79897	37.64
3.81563	37.64
3.83230	37.64
3.84897	37.64
3.86563	37.64
3.88230	37.64
3.89897	37.64
3.91563	37.64
3.93230	37.64
3.94897	37.64
3.96563	37.64
3.98230	37.64

