[Header]
Application Name	LabSolutions
Version	5.110
Data File Name	C:\Users\User\Desktop\GC Analyses\Jack\UIC Prairie Sampling\11.2.22\221102_042.gcd
Output Date	3/20/2023
Output Time	1:25:38 PM

[File Information]
Type	Data File
Generated	12/21/2022 12:17:36 PM
Generated by	System Administrator
Modified	12/21/2022 12:22:05 PM
Modified by	System Administrator

[Sample Information]
Operator Name	System Administrator
Acquired	12/21/2022 12:18:03 PM
Sample Type	1:Standard
Level	1
Sample Name	221102_UICPrairie
Sample ID	221102_UICPrairie
ISTD Amount1	1
ISTD Amount2	1
ISTD Amount3	1
ISTD Amount4	1
ISTD Amount5	1
ISTD Amount6	1
ISTD Amount7	1
ISTD Amount8	1
ISTD Amount9	1
ISTD Amount10	1
ISTD Amount11	1
ISTD Amount12	1
ISTD Amount13	1
ISTD Amount14	1
ISTD Amount15	1
ISTD Amount16	1
ISTD Amount17	1
ISTD Amount18	1
ISTD Amount19	1
ISTD Amount20	1
ISTD Amount21	1
ISTD Amount22	1
ISTD Amount23	1
ISTD Amount24	1
ISTD Amount25	1
ISTD Amount26	1
ISTD Amount27	1
ISTD Amount28	1
ISTD Amount29	1
ISTD Amount30	1
ISTD Amount31	1
ISTD Amount32	1
Sample Amount	1
Dilution Factor	1
Vial#	1
Injection Volume	1
Injection Count	1
Bar Code	

[Original Files]
Data File	C:\Users\User\Desktop\GC Analyses\Jack\UIC Prairie Sampling\11.2.22\221102_042.gcd
Method File	C:\LabSolutions\Data\GHG_4min_2022\ghg3_togas_w_acet_4 min_new_int.gcm
Batch File	
Report Format File	c:\LabSolutions\System\DEFAULT.lsr

[File Description]


[Configuration]
Instrument Name	C0B7VH3-Instrument1
Instrument #	1
Line #	1
# of Detectors	3
Detector ID	DET#1	DET#2	DET#3
Detector Name	FID	PTCD	ECD
# of Channels	1	1	1

[Peak Table(Ch1)]
# of Peaks	3
Peak#	R.Time	I.Time	F.Time	Area	Height	A/H	Conc.	Mark	ID#	Name	k'	Plate #	Plate Ht.	Tailing	Resolution	Sep.Factor	Area Ratio	Height Ratio	Conc. %	Norm Conc.
1	1.479	1.439	1.538	12106	5342	2.266	100.000	   	1	CO	0.000	8271	18.137	1.217	0.000	0.000	0	0	16.667	16.667
2	1.571	1.538	1.626	5248	2580	2.034	100.000	 V 	2	CH4	0.062	10969	13.675	0.000	1.466	0.000	0	0	16.667	16.667
3	2.000	1.949	2.722	1512085	696467	2.171	400.000	   	3	CO2	0.352	17200	8.721	1.228	7.091	5.680	0	0	66.667	66.667

[Peak Table(Ch2)]
# of Peaks	0

[Peak Table(Ch3)]
# of Peaks	5
Peak#	R.Time	I.Time	F.Time	Area	Height	A/H	Conc.	Mark	ID#	Name	k'	Plate #	Plate Ht.	Tailing	Resolution	Sep.Factor	Area Ratio	Height Ratio	Conc. %	Norm Conc.
1	2.469	2.389	2.499	1481	499	2.967	0.000	   			0.000	8790	17.064	0.000	0.000	0.000	0	0	0.000	0.000
2	2.517	2.499	2.554	1023	370	2.764	0.000	 V 			0.019	2903	51.664	0.000	0.326	0.000	0	0	0.000	0.000
3	2.605	2.554	2.656	1427	370	3.859	0.000	 V 			0.055	5407	27.739	0.000	0.536	2.846	0	0	0.000	0.000
4	2.777	2.667	2.825	6568	966	6.798	0.122	   	1	N2O	0.125	433	346.705	0.000	0.510	2.270	0	0	12.219	12.219
5	2.884	2.825	3.778	47186	6184	7.630	0.878	 V 	1	N2O	0.168	10525	14.252	0.000	0.329	1.345	0	0	87.781	87.781

[Compound Results(Ch1)]
# of IDs	6
ID#	Name	R.Time	Area	Height	Conc.	Curve	3rd	2nd	1st	Constant	Area Ratio	Height Ratio	Conc. %	Norm Conc.
1	CO	1.479	12106	5342	100.000	Linear	0.000000e+00	0.000000e+00	1.210621e+002	0.000000e+00	0	0	16.667	16.667
2	CH4	1.571	5248	2580	100.000	Linear	0.000000e+00	0.000000e+00	5.247819e+001	0.000000e+00	0	0	16.667	16.667
3	CO2	2.000	1512085	696467	400.000	Linear	0.000000e+00	0.000000e+00	3.780213e+003	0.000000e+00	0	0	66.667	66.667
4	Ethylene	0.000	0	0	0.000	Linear	0.000000e+00	0.000000e+00	0.000000e+00	0.000000e+00	0	0	0.000	0.000
5	Acetylene	0.000	0	0	0.000	Linear	0.000000e+00	0.000000e+00	0.000000e+00	0.000000e+00	0	0	0.000	0.000
6	Ethane	0.000	0	0	0.000	Linear	0.000000e+00	0.000000e+00	0.000000e+00	0.000000e+00	0	0	0.000	0.000

[Compound Results(Ch2)]
# of IDs	5
ID#	Name	R.Time	Area	Height	Conc.	Curve	3rd	2nd	1st	Constant	Area Ratio	Height Ratio	Conc. %	Norm Conc.
1	Hydrogen	0.000	0	0	0.000	Linear	0.000000e+00	0.000000e+00	0.000000e+00	0.000000e+00	0	0	0.000	0.000
2	Oxygen	0.000	0	0	0.000	Linear	0.000000e+00	0.000000e+00	0.000000e+00	0.000000e+00	0	0	0.000	0.000
3	Nitrogen	0.000	0	0	0.000	Linear	0.000000e+00	0.000000e+00	0.000000e+00	0.000000e+00	0	0	0.000	0.000
4	Methane	0.000	0	0	0.000	Linear	0.000000e+00	0.000000e+00	0.000000e+00	0.000000e+00	0	0	0.000	0.000
5	Carbon Monoxide	0.000	0	0	0.000	Linear	0.000000e+00	0.000000e+00	0.000000e+00	0.000000e+00	0	0	0.000	0.000

[Compound Results(Ch3)]
# of IDs	2
ID#	Name	R.Time	Area	Height	Conc.	Curve	3rd	2nd	1st	Constant	Area Ratio	Height Ratio	Conc. %	Norm Conc.
1	N2O	2.884	53754	7151	1.000	Linear	0.000000e+00	0.000000e+00	5.375426e+004	0.000000e+00	0	0	100.000	100.000
2	SF6	0.000	0	0	0.000	Linear	0.000000e+00	0.000000e+00	0.000000e+00	0.000000e+00	0	0	0.000	0.000

[Group Results(Ch1)]
# of Groups	0

[Group Results(Ch2)]
# of Groups	0

[Group Results(Ch3)]
# of Groups	0

[Chromatogram (Ch1)]
Interval(msec)	220
# of Points	1091
Start Time(min)	0.002
End Time(min)	3.998
R.Time (min)	Intensity
0.00167	-13
0.00533	-15
0.00900	-14
0.01267	-11
0.01633	-5
0.02000	2
0.02367	7
0.02733	7
0.03100	5
0.03467	6
0.03833	11
0.04200	13
0.04567	9
0.04933	3
0.05300	2
0.05667	3
0.06033	2
0.06400	-0
0.06767	-3
0.07133	-4
0.07500	-4
0.07867	-4
0.08233	-4
0.08600	-6
0.08967	-11
0.09333	-12
0.09700	-11
0.10067	-9
0.10433	-7
0.10800	-5
0.11167	-7
0.11533	-12
0.11900	-13
0.12267	-10
0.12633	-5
0.13000	-3
0.13367	-0
0.13733	2
0.14100	-1
0.14467	-9
0.14833	-15
0.15200	-19
0.15567	-25
0.15933	-28
0.16300	-28
0.16667	-25
0.17033	-23
0.17400	-22
0.17767	-22
0.18133	-22
0.18500	-19
0.18867	-16
0.19233	-17
0.19600	-22
0.19967	-27
0.20333	-30
0.20700	-29
0.21067	-27
0.21433	-29
0.21800	-30
0.22167	-30
0.22533	-30
0.22900	-29
0.23267	-26
0.23633	-23
0.24000	-23
0.24367	-24
0.24733	-23
0.25100	-19
0.25467	-15
0.25833	-12
0.26200	-9
0.26567	-8
0.26933	-12
0.27300	-16
0.27667	-22
0.28033	-25
0.28400	-26
0.28767	-25
0.29133	-27
0.29500	-31
0.29867	-38
0.30233	-48
0.30600	-55
0.30967	-58
0.31333	-55
0.31700	-48
0.32067	-39
0.32433	-29
0.32800	-22
0.33167	-18
0.33533	-19
0.33900	-22
0.34267	-26
0.34633	-30
0.35000	-33
0.35367	-36
0.35733	-39
0.36100	-38
0.36467	-35
0.36833	-33
0.37200	-34
0.37567	-35
0.37933	-35
0.38300	-31
0.38667	-24
0.39033	-18
0.39400	-17
0.39767	-19
0.40133	-19
0.40500	-17
0.40867	-13
0.41233	-13
0.41600	-19
0.41967	-28
0.42333	-36
0.42700	-42
0.43067	-46
0.43433	-47
0.43800	-38
0.44167	-28
0.44533	-22
0.44900	-25
0.45267	-31
0.45633	-36
0.46000	-39
0.46367	-45
0.46733	-50
0.47100	-52
0.47467	-54
0.47833	-52
0.48200	-48
0.48567	-43
0.48933	-38
0.49300	-37
0.49667	-38
0.50033	-37
0.50400	-36
0.50767	-35
0.51133	-34
0.51500	-34
0.51867	-37
0.52233	-41
0.52600	-44
0.52967	-45
0.53333	-42
0.53700	-38
0.54067	-35
0.54433	-37
0.54800	-41
0.55167	-45
0.55533	-46
0.55900	-43
0.56267	-43
0.56633	-47
0.57000	-51
0.57367	-54
0.57733	-57
0.58100	-62
0.58467	-68
0.58833	-74
0.59200	-75
0.59567	-71
0.59933	-65
0.60300	-62
0.60667	-57
0.61033	-54
0.61400	-51
0.61767	-46
0.62133	-43
0.62500	-41
0.62867	-36
0.63233	-30
0.63600	-27
0.63967	-30
0.64333	-37
0.64700	-44
0.65067	-51
0.65433	-57
0.65800	-63
0.66167	-68
0.66533	-71
0.66900	-70
0.67267	-70
0.67633	-70
0.68000	-67
0.68367	-63
0.68733	-58
0.69100	-56
0.69467	-59
0.69833	-64
0.70200	-73
0.70567	-80
0.70933	-84
0.71300	-84
0.71667	-80
0.72033	-75
0.72400	-74
0.72767	-73
0.73133	-74
0.73500	-75
0.73867	-78
0.74233	-81
0.74600	-80
0.74967	-79
0.75333	-79
0.75700	-79
0.76067	-78
0.76433	-76
0.76800	-76
0.77167	-78
0.77533	-77
0.77900	-71
0.78267	-63
0.78633	-59
0.79000	-57
0.79367	-57
0.79733	-58
0.80100	-58
0.80467	-60
0.80833	-65
0.81200	-72
0.81567	-78
0.81933	-82
0.82300	-84
0.82667	-81
0.83033	-73
0.83400	-68
0.83767	-66
0.84133	-66
0.84500	-67
0.84867	-70
0.85233	-77
0.85600	-86
0.85967	-94
0.86333	-96
0.86700	-91
0.87067	-85
0.87433	-83
0.87800	-86
0.88167	-92
0.88533	-97
0.88900	-99
0.89267	-97
0.89633	-93
0.90000	-87
0.90367	-83
0.90733	-80
0.91100	-76
0.91467	-72
0.91833	-69
0.92200	-72
0.92567	-78
0.92933	-85
0.93300	-91
0.93667	-95
0.94033	-96
0.94400	-95
0.94767	-93
0.95133	-92
0.95500	-94
0.95867	-96
0.96233	-94
0.96600	-92
0.96967	-89
0.97333	-83
0.97700	-77
0.98067	-75
0.98433	-77
0.98800	-83
0.99167	-88
0.99533	-88
0.99900	-87
1.00267	-88
1.00633	-91
1.01000	-96
1.01367	-101
1.01733	-105
1.02100	-106
1.02467	-105
1.02833	-104
1.03200	-102
1.03567	-97
1.03933	-94
1.04300	-92
1.04667	-92
1.05033	-93
1.05400	-95
1.05767	-99
1.06133	-98
1.06500	-93
1.06867	-91
1.07233	-94
1.07600	-97
1.07967	-98
1.08333	-100
1.08700	-104
1.09067	-106
1.09433	-107
1.09800	-106
1.10167	-103
1.10533	-99
1.10900	-94
1.11267	-91
1.11633	-94
1.12000	-99
1.12367	-100
1.12733	-96
1.13100	-90
1.13467	-87
1.13833	-84
1.14200	-82
1.14567	-82
1.14933	-85
1.15300	-88
1.15667	-91
1.16033	-96
1.16400	-101
1.16767	-105
1.17133	-103
1.17500	-97
1.17867	-91
1.18233	-90
1.18600	-91
1.18967	-95
1.19333	-103
1.19700	-109
1.20067	-110
1.20433	-107
1.20800	-104
1.21167	-103
1.21533	-104
1.21900	-107
1.22267	-114
1.22633	-121
1.23000	-123
1.23367	-123
1.23733	-121
1.24100	-118
1.24467	-115
1.24833	-115
1.25200	-117
1.25567	-119
1.25933	-121
1.26300	-120
1.26667	-112
1.27033	-104
1.27400	-99
1.27767	-98
1.28133	-99
1.28500	-105
1.28867	-113
1.29233	-120
1.29600	-123
1.29967	-124
1.30333	-122
1.30700	-115
1.31067	-106
1.31433	-99
1.31800	-99
1.32167	-102
1.32533	-107
1.32900	-113
1.33267	-116
1.33633	-119
1.34000	-126
1.34367	-131
1.34733	-130
1.35100	-127
1.35467	-125
1.35833	-124
1.36200	-122
1.36567	-123
1.36933	-121
1.37300	-113
1.37667	-106
1.38033	-102
1.38400	-102
1.38767	-107
1.39133	-115
1.39500	-120
1.39867	-124
1.40233	-128
1.40600	-127
1.40967	-122
1.41333	-116
1.41700	-113
1.42067	-113
1.42433	-117
1.42800	-126
1.43167	-136
1.43533	-140
1.43900	-131
1.44267	-63
1.44633	116
1.45000	417
1.45367	920
1.45733	1685
1.46100	2614
1.46467	3528
1.46833	4301
1.47200	4874
1.47567	5196
1.47933	5219
1.48300	4917
1.48667	4329
1.49033	3575
1.49400	2802
1.49767	2113
1.50133	1553
1.50500	1123
1.50867	801
1.51233	569
1.51600	407
1.51967	290
1.52333	204
1.52700	140
1.53067	95
1.53433	66
1.53800	58
1.54167	100
1.54533	256
1.54900	576
1.55267	1028
1.55633	1514
1.56000	1942
1.56367	2262
1.56733	2451
1.57100	2475
1.57467	2306
1.57833	1977
1.58200	1564
1.58567	1153
1.58933	802
1.59300	527
1.59667	326
1.60033	189
1.60400	100
1.60767	39
1.61133	-6
1.61500	-40
1.61867	-66
1.62233	-85
1.62600	-95
1.62967	-99
1.63333	-99
1.63700	-97
1.64067	-93
1.64433	-92
1.64800	-92
1.65167	-97
1.65533	-104
1.65900	-111
1.66267	-117
1.66633	-120
1.67000	-120
1.67367	-117
1.67733	-115
1.68100	-111
1.68467	-110
1.68833	-110
1.69200	-109
1.69567	-110
1.69933	-115
1.70300	-120
1.70667	-124
1.71033	-131
1.71400	-138
1.71767	-139
1.72133	-137
1.72500	-133
1.72867	-130
1.73233	-126
1.73600	-122
1.73967	-118
1.74333	-116
1.74700	-116
1.75067	-119
1.75433	-119
1.75800	-116
1.76167	-113
1.76533	-114
1.76900	-119
1.77267	-126
1.77633	-129
1.78000	-132
1.78367	-135
1.78733	-135
1.79100	-136
1.79467	-138
1.79833	-141
1.80200	-144
1.80567	-149
1.80933	-152
1.81300	-149
1.81667	-143
1.82033	-139
1.82400	-138
1.82767	-136
1.83133	-133
1.83500	-134
1.83867	-132
1.84233	-129
1.84600	-130
1.84967	-133
1.85333	-135
1.85700	-134
1.86067	-136
1.86433	-140
1.86800	-143
1.87167	-143
1.87533	-140
1.87900	-134
1.88267	-129
1.88633	-126
1.89000	-123
1.89367	-122
1.89733	-126
1.90100	-137
1.90467	-142
1.90833	-136
1.91200	-136
1.91567	-133
1.91933	-127
1.92300	-121
1.92667	-114
1.93033	-110
1.93400	-111
1.93767	-116
1.94133	-122
1.94500	-127
1.94867	-125
1.95233	-109
1.95600	-35
1.95967	385
1.96333	2415
1.96700	10004
1.97067	31670
1.97433	79677
1.97800	163215
1.98167	279293
1.98533	411166
1.98900	535883
1.99267	633105
1.99633	689000
2.00000	696379
2.00367	656136
2.00733	578223
2.01100	479192
2.01467	376533
2.01833	283530
2.02200	207073
2.02567	148464
2.02933	105685
2.03300	75466
2.03667	54542
2.04033	40197
2.04400	30380
2.04767	23621
2.05133	18911
2.05500	15574
2.05867	13156
2.06233	11359
2.06600	9988
2.06967	8914
2.07333	8053
2.07700	7343
2.08067	6754
2.08433	6256
2.08800	5832
2.09167	5462
2.09533	5137
2.09900	4850
2.10267	4595
2.10633	4365
2.11000	4159
2.11367	3969
2.11733	3790
2.12100	3626
2.12467	3475
2.12833	3334
2.13200	3201
2.13567	3079
2.13933	2967
2.14300	2864
2.14667	2767
2.15033	2675
2.15400	2592
2.15767	2516
2.16133	2445
2.16500	2373
2.16867	2301
2.17233	2229
2.17600	2159
2.17967	2098
2.18333	2047
2.18700	2001
2.19067	1958
2.19433	1915
2.19800	1869
2.20167	1818
2.20533	1765
2.20900	1714
2.21267	1667
2.21633	1623
2.22000	1580
2.22367	1543
2.22733	1511
2.23100	1481
2.23467	1450
2.23833	1418
2.24200	1386
2.24567	1355
2.24933	1331
2.25300	1312
2.25667	1296
2.26033	1280
2.26400	1260
2.26767	1238
2.27133	1218
2.27500	1197
2.27867	1177
2.28233	1158
2.28600	1141
2.28967	1123
2.29333	1105
2.29700	1088
2.30067	1073
2.30433	1058
2.30800	1045
2.31167	1029
2.31533	1009
2.31900	991
2.32267	976
2.32633	960
2.33000	943
2.33367	924
2.33733	910
2.34100	898
2.34467	885
2.34833	873
2.35200	862
2.35567	852
2.35933	841
2.36300	830
2.36667	819
2.37033	809
2.37400	799
2.37767	788
2.38133	781
2.38500	779
2.38867	776
2.39233	770
2.39600	762
2.39967	753
2.40333	741
2.40700	732
2.41067	725
2.41433	718
2.41800	712
2.42167	707
2.42533	707
2.42900	705
2.43267	700
2.43633	690
2.44000	680
2.44367	669
2.44733	660
2.45100	651
2.45467	645
2.45833	640
2.46200	635
2.46567	628
2.46933	618
2.47300	608
2.47667	602
2.48033	601
2.48400	601
2.48767	599
2.49133	597
2.49500	595
2.49867	593
2.50233	587
2.50600	582
2.50967	581
2.51333	583
2.51700	584
2.52067	581
2.52433	573
2.52800	560
2.53167	545
2.53533	531
2.53900	521
2.54267	516
2.54633	514
2.55000	517
2.55367	518
2.55733	519
2.56100	520
2.56467	520
2.56833	521
2.57200	521
2.57567	518
2.57933	512
2.58300	503
2.58667	493
2.59033	483
2.59400	479
2.59767	477
2.60133	478
2.60500	480
2.60867	481
2.61233	484
2.61600	486
2.61967	486
2.62333	485
2.62700	485
2.63067	482
2.63433	471
2.63800	458
2.64167	447
2.64533	442
2.64900	442
2.65267	443
2.65633	443
2.66000	441
2.66367	440
2.66733	442
2.67100	448
2.67467	452
2.67833	449
2.68200	443
2.68567	439
2.68933	436
2.69300	433
2.69667	430
2.70033	428
2.70400	429
2.70767	427
2.71133	424
2.71500	425
2.71867	429
2.72233	429
2.72600	423
2.72967	416
2.73333	412
2.73700	410
2.74067	412
2.74433	414
2.74800	416
2.75167	419
2.75533	422
2.75900	422
2.76267	422
2.76633	420
2.77000	415
2.77367	412
2.77733	410
2.78100	407
2.78467	403
2.78833	398
2.79200	391
2.79567	386
2.79933	385
2.80300	383
2.80667	382
2.81033	383
2.81400	384
2.81767	382
2.82133	378
2.82500	375
2.82867	370
2.83233	368
2.83600	370
2.83967	371
2.84333	372
2.84700	375
2.85067	378
2.85433	379
2.85800	379
2.86167	379
2.86533	379
2.86900	377
2.87267	377
2.87633	376
2.88000	372
2.88367	369
2.88733	369
2.89100	375
2.89467	381
2.89833	385
2.90200	386
2.90567	383
2.90933	377
2.91300	368
2.91667	360
2.92033	355
2.92400	353
2.92767	352
2.93133	354
2.93500	356
2.93867	356
2.94233	354
2.94600	351
2.94967	347
2.95333	343
2.95700	343
2.96067	344
2.96433	347
2.96800	349
2.97167	348
2.97533	346
2.97900	347
2.98267	351
2.98633	358
2.99000	363
2.99367	366
2.99733	368
3.00100	370
3.00467	372
3.00833	373
3.01200	372
3.01567	371
3.01933	368
3.02300	365
3.02667	359
3.03033	356
3.03400	355
3.03767	355
3.04133	355
3.04500	355
3.04867	357
3.05233	359
3.05600	359
3.05967	356
3.06333	348
3.06700	338
3.07067	324
3.07433	312
3.07800	305
3.08167	304
3.08533	306
3.08900	310
3.09267	312
3.09633	312
3.10000	315
3.10367	318
3.10733	320
3.11100	321
3.11467	322
3.11833	322
3.12200	322
3.12567	318
3.12933	312
3.13300	305
3.13667	299
3.14033	297
3.14400	301
3.14767	309
3.15133	312
3.15500	309
3.15867	306
3.16233	308
3.16600	312
3.16967	316
3.17333	317
3.17700	313
3.18067	306
3.18433	301
3.18800	296
3.19167	294
3.19533	297
3.19900	302
3.20267	308
3.20633	314
3.21000	316
3.21367	316
3.21733	311
3.22100	303
3.22467	295
3.22833	289
3.23200	286
3.23567	283
3.23933	280
3.24300	277
3.24667	274
3.25033	269
3.25400	268
3.25767	269
3.26133	272
3.26500	274
3.26867	275
3.27233	272
3.27600	270
3.27967	270
3.28333	273
3.28700	277
3.29067	281
3.29433	284
3.29800	284
3.30167	281
3.30533	279
3.30900	274
3.31267	268
3.31633	264
3.32000	266
3.32367	266
3.32733	266
3.33100	266
3.33467	269
3.33833	267
3.34200	260
3.34567	255
3.34933	252
3.35300	251
3.35667	251
3.36033	253
3.36400	251
3.36767	247
3.37133	243
3.37500	241
3.37867	241
3.38233	245
3.38600	246
3.38967	245
3.39333	247
3.39700	252
3.40067	258
3.40433	265
3.40800	273
3.41167	274
3.41533	271
3.41900	266
3.42267	260
3.42633	256
3.43000	251
3.43367	248
3.43733	244
3.44100	240
3.44467	234
3.44833	231
3.45200	230
3.45567	232
3.45933	234
3.46300	234
3.46667	235
3.47033	239
3.47400	240
3.47767	238
3.48133	238
3.48500	238
3.48867	237
3.49233	235
3.49600	232
3.49967	229
3.50333	222
3.50700	216
3.51067	212
3.51433	211
3.51800	211
3.52167	211
3.52533	212
3.52900	211
3.53267	210
3.53633	209
3.54000	206
3.54367	203
3.54733	201
3.55100	200
3.55467	201
3.55833	201
3.56200	202
3.56567	203
3.56933	205
3.57300	209
3.57667	212
3.58033	211
3.58400	207
3.58767	201
3.59133	197
3.59500	196
3.59867	194
3.60233	186
3.60600	178
3.60967	171
3.61333	170
3.61700	174
3.62067	180
3.62433	189
3.62800	201
3.63167	211
3.63533	213
3.63900	212
3.64267	211
3.64633	209
3.65000	205
3.65367	203
3.65733	205
3.66100	208
3.66467	205
3.66833	196
3.67200	188
3.67567	184
3.67933	183
3.68300	186
3.68667	191
3.69033	195
3.69400	199
3.69767	201
3.70133	201
3.70500	199
3.70867	196
3.71233	192
3.71600	189
3.71967	189
3.72333	188
3.72700	184
3.73067	178
3.73433	174
3.73800	173
3.74167	175
3.74533	175
3.74900	173
3.75267	170
3.75633	165
3.76000	161
3.76367	161
3.76733	165
3.77100	170
3.77467	175
3.77833	175
3.78200	172
3.78567	171
3.78933	174
3.79300	179
3.79667	182
3.80033	181
3.80400	177
3.80767	175
3.81133	174
3.81500	172
3.81867	169
3.82233	168
3.82600	167
3.82967	166
3.83333	164
3.83700	164
3.84067	168
3.84433	172
3.84800	174
3.85167	172
3.85533	165
3.85900	159
3.86267	155
3.86633	154
3.87000	155
3.87367	158
3.87733	160
3.88100	164
3.88467	170
3.88833	172
3.89200	168
3.89567	164
3.89933	160
3.90300	160
3.90667	162
3.91033	164
3.91400	162
3.91767	164
3.92133	168
3.92500	165
3.92867	161
3.93233	155
3.93600	153
3.93967	154
3.94333	155
3.94700	154
3.95067	151
3.95433	148
3.95800	145
3.96167	143
3.96533	144
3.96900	143
3.97267	142
3.97633	143
3.98000	149
3.98367	156
3.98733	162
3.99100	165
3.99467	166
3.99833	164

[Chromatogram (Ch2)]
Interval(msec)	220
# of Points	1091
Start Time(min)	0.002
End Time(min)	3.998
R.Time (min)	Intensity
0.00167	0
0.00533	0
0.00900	0
0.01267	0
0.01633	0
0.02000	0
0.02367	0
0.02733	0
0.03100	0
0.03467	0
0.03833	0
0.04200	1
0.04567	0
0.04933	0
0.05300	0
0.05667	0
0.06033	-0
0.06400	-0
0.06767	-0
0.07133	-1
0.07500	-1
0.07867	-1
0.08233	-2
0.08600	-2
0.08967	-2
0.09333	-2
0.09700	-1
0.10067	-1
0.10433	-1
0.10800	-1
0.11167	-1
0.11533	-1
0.11900	-1
0.12267	-1
0.12633	-1
0.13000	-2
0.13367	-2
0.13733	-2
0.14100	-2
0.14467	-2
0.14833	-2
0.15200	-2
0.15567	-2
0.15933	-2
0.16300	-2
0.16667	-2
0.17033	-2
0.17400	-2
0.17767	-3
0.18133	-3
0.18500	-3
0.18867	-4
0.19233	-4
0.19600	-4
0.19967	-5
0.20333	-5
0.20700	-5
0.21067	-5
0.21433	-5
0.21800	-5
0.22167	-5
0.22533	-5
0.22900	-5
0.23267	-5
0.23633	-5
0.24000	-5
0.24367	-5
0.24733	-5
0.25100	-5
0.25467	-5
0.25833	-4
0.26200	-4
0.26567	-4
0.26933	-4
0.27300	-4
0.27667	-3
0.28033	-3
0.28400	-3
0.28767	-3
0.29133	-3
0.29500	-3
0.29867	-3
0.30233	-3
0.30600	-3
0.30967	-3
0.31333	-3
0.31700	-3
0.32067	-3
0.32433	-3
0.32800	-3
0.33167	-3
0.33533	-2
0.33900	-2
0.34267	-2
0.34633	-2
0.35000	-2
0.35367	-2
0.35733	-2
0.36100	-2
0.36467	-2
0.36833	-2
0.37200	-2
0.37567	-2
0.37933	-2
0.38300	-3
0.38667	-2
0.39033	-2
0.39400	-2
0.39767	-2
0.40133	-2
0.40500	-2
0.40867	-2
0.41233	-2
0.41600	-2
0.41967	-2
0.42333	-2
0.42700	-2
0.43067	-2
0.43433	-2
0.43800	-3
0.44167	-3
0.44533	-3
0.44900	-3
0.45267	-3
0.45633	-3
0.46000	-3
0.46367	-3
0.46733	-3
0.47100	-3
0.47467	-3
0.47833	-4
0.48200	-4
0.48567	-4
0.48933	-3
0.49300	-3
0.49667	-3
0.50033	-3
0.50400	-3
0.50767	-3
0.51133	-3
0.51500	-3
0.51867	-3
0.52233	-3
0.52600	-3
0.52967	-3
0.53333	-3
0.53700	-4
0.54067	-4
0.54433	-4
0.54800	-4
0.55167	-4
0.55533	-4
0.55900	-4
0.56267	-4
0.56633	-4
0.57000	-4
0.57367	-4
0.57733	-4
0.58100	-4
0.58467	-4
0.58833	-5
0.59200	-5
0.59567	-4
0.59933	-4
0.60300	-4
0.60667	-4
0.61033	-4
0.61400	-4
0.61767	-4
0.62133	-4
0.62500	-4
0.62867	-4
0.63233	-4
0.63600	-4
0.63967	-4
0.64333	-4
0.64700	-4
0.65067	-4
0.65433	-3
0.65800	-3
0.66167	-3
0.66533	-3
0.66900	-3
0.67267	-3
0.67633	-2
0.68000	-2
0.68367	-2
0.68733	-2
0.69100	-3
0.69467	-3
0.69833	-3
0.70200	-3
0.70567	-3
0.70933	-3
0.71300	-3
0.71667	-3
0.72033	-3
0.72400	-4
0.72767	-4
0.73133	-4
0.73500	-4
0.73867	-4
0.74233	-4
0.74600	-4
0.74967	-4
0.75333	-4
0.75700	-4
0.76067	-4
0.76433	-3
0.76800	-3
0.77167	-3
0.77533	-3
0.77900	-3
0.78267	-3
0.78633	-3
0.79000	-3
0.79367	-3
0.79733	-3
0.80100	-3
0.80467	-3
0.80833	-3
0.81200	-3
0.81567	-3
0.81933	-3
0.82300	-3
0.82667	-3
0.83033	-4
0.83400	-4
0.83767	-4
0.84133	-4
0.84500	-4
0.84867	-4
0.85233	-4
0.85600	-4
0.85967	-4
0.86333	-4
0.86700	-4
0.87067	-4
0.87433	-4
0.87800	-4
0.88167	-4
0.88533	-3
0.88900	-4
0.89267	-4
0.89633	-4
0.90000	-3
0.90367	-3
0.90733	-3
0.91100	-3
0.91467	-3
0.91833	-3
0.92200	-3
0.92567	-3
0.92933	-3
0.93300	-3
0.93667	-3
0.94033	-3
0.94400	-4
0.94767	-4
0.95133	-4
0.95500	-4
0.95867	-4
0.96233	-4
0.96600	-4
0.96967	-4
0.97333	-5
0.97700	-5
0.98067	-5
0.98433	-5
0.98800	-4
0.99167	-4
0.99533	-4
0.99900	-4
1.00267	-4
1.00633	-4
1.01000	-4
1.01367	-4
1.01733	-4
1.02100	-4
1.02467	-4
1.02833	-4
1.03200	-4
1.03567	-4
1.03933	-4
1.04300	-4
1.04667	-3
1.05033	-3
1.05400	-3
1.05767	-3
1.06133	-3
1.06500	-3
1.06867	-3
1.07233	-3
1.07600	-3
1.07967	-3
1.08333	-3
1.08700	-3
1.09067	-3
1.09433	-3
1.09800	-3
1.10167	-3
1.10533	-3
1.10900	-3
1.11267	-3
1.11633	-4
1.12000	-4
1.12367	-4
1.12733	-5
1.13100	-5
1.13467	-5
1.13833	-5
1.14200	-4
1.14567	-4
1.14933	-4
1.15300	-4
1.15667	-4
1.16033	-4
1.16400	-4
1.16767	-5
1.17133	-5
1.17500	-5
1.17867	-5
1.18233	-5
1.18600	-5
1.18967	-6
1.19333	-6
1.19700	-6
1.20067	-6
1.20433	-5
1.20800	-5
1.21167	-5
1.21533	-5
1.21900	-5
1.22267	-5
1.22633	-5
1.23000	-5
1.23367	-5
1.23733	-4
1.24100	-4
1.24467	-4
1.24833	-4
1.25200	-4
1.25567	-4
1.25933	-4
1.26300	-4
1.26667	-4
1.27033	-4
1.27400	-4
1.27767	-4
1.28133	-4
1.28500	-4
1.28867	-4
1.29233	-4
1.29600	-4
1.29967	-4
1.30333	-4
1.30700	-4
1.31067	-4
1.31433	-4
1.31800	-4
1.32167	-4
1.32533	-5
1.32900	-5
1.33267	-5
1.33633	-5
1.34000	-5
1.34367	-5
1.34733	-5
1.35100	-5
1.35467	-5
1.35833	-5
1.36200	-6
1.36567	-6
1.36933	-6
1.37300	-6
1.37667	-5
1.38033	-5
1.38400	-5
1.38767	-5
1.39133	-5
1.39500	-5
1.39867	-5
1.40233	-5
1.40600	-5
1.40967	-6
1.41333	-6
1.41700	-6
1.42067	-6
1.42433	-6
1.42800	-6
1.43167	-6
1.43533	-6
1.43900	-6
1.44267	-5
1.44633	-5
1.45000	-5
1.45367	-5
1.45733	-6
1.46100	-6
1.46467	-6
1.46833	-5
1.47200	-5
1.47567	-5
1.47933	-5
1.48300	-4
1.48667	-4
1.49033	-4
1.49400	-4
1.49767	-4
1.50133	-4
1.50500	-4
1.50867	-4
1.51233	-4
1.51600	-4
1.51967	-4
1.52333	-4
1.52700	-4
1.53067	-4
1.53433	-4
1.53800	-4
1.54167	-5
1.54533	-5
1.54900	-5
1.55267	-5
1.55633	-5
1.56000	-5
1.56367	-5
1.56733	-5
1.57100	-5
1.57467	-5
1.57833	-5
1.58200	-5
1.58567	-5
1.58933	-5
1.59300	-5
1.59667	-6
1.60033	-7
1.60400	-8
1.60767	-9
1.61133	-11
1.61500	-13
1.61867	-15
1.62233	-18
1.62600	-21
1.62967	-24
1.63333	-28
1.63700	-31
1.64067	-35
1.64433	-38
1.64800	-42
1.65167	-46
1.65533	-50
1.65900	-53
1.66267	-57
1.66633	-61
1.67000	-66
1.67367	-70
1.67733	-75
1.68100	-80
1.68467	-85
1.68833	-89
1.69200	-93
1.69567	-96
1.69933	-99
1.70300	-102
1.70667	-104
1.71033	-106
1.71400	-108
1.71767	-109
1.72133	-111
1.72500	-112
1.72867	-113
1.73233	-114
1.73600	-114
1.73967	-115
1.74333	-116
1.74700	-116
1.75067	-116
1.75433	-116
1.75800	-115
1.76167	-115
1.76533	-115
1.76900	-114
1.77267	-114
1.77633	-114
1.78000	-116
1.78367	-117
1.78733	-118
1.79100	-119
1.79467	-119
1.79833	-120
1.80200	-121
1.80567	-121
1.80933	-121
1.81300	-121
1.81667	-121
1.82033	-121
1.82400	-121
1.82767	-122
1.83133	-122
1.83500	-122
1.83867	-122
1.84233	-122
1.84600	-122
1.84967	-122
1.85333	-122
1.85700	-122
1.86067	-121
1.86433	-121
1.86800	-120
1.87167	-120
1.87533	-120
1.87900	-120
1.88267	-120
1.88633	-120
1.89000	-121
1.89367	-121
1.89733	-121
1.90100	-121
1.90467	-122
1.90833	-122
1.91200	-122
1.91567	-122
1.91933	-121
1.92300	-121
1.92667	-120
1.93033	-119
1.93400	-118
1.93767	-118
1.94133	-118
1.94500	-118
1.94867	-117
1.95233	-117
1.95600	-116
1.95967	-116
1.96333	-115
1.96700	-115
1.97067	-114
1.97433	-114
1.97800	-114
1.98167	-114
1.98533	-115
1.98900	-115
1.99267	-115
1.99633	-115
2.00000	-115
2.00367	-114
2.00733	-114
2.01100	-113
2.01467	-112
2.01833	-112
2.02200	-112
2.02567	-112
2.02933	-112
2.03300	-112
2.03667	-112
2.04033	-111
2.04400	-111
2.04767	-111
2.05133	-111
2.05500	-111
2.05867	-110
2.06233	-110
2.06600	-110
2.06967	-109
2.07333	-109
2.07700	-109
2.08067	-108
2.08433	-108
2.08800	-108
2.09167	-108
2.09533	-108
2.09900	-108
2.10267	-107
2.10633	-107
2.11000	-106
2.11367	-106
2.11733	-105
2.12100	-105
2.12467	-105
2.12833	-105
2.13200	-105
2.13567	-105
2.13933	-105
2.14300	-105
2.14667	-105
2.15033	-104
2.15400	-103
2.15767	-102
2.16133	-101
2.16500	-100
2.16867	-99
2.17233	-99
2.17600	-98
2.17967	-98
2.18333	-98
2.18700	-98
2.19067	-98
2.19433	-98
2.19800	-98
2.20167	-98
2.20533	-98
2.20900	-97
2.21267	-97
2.21633	-97
2.22000	-97
2.22367	-96
2.22733	-96
2.23100	-97
2.23467	-97
2.23833	-98
2.24200	-98
2.24567	-98
2.24933	-98
2.25300	-97
2.25667	-97
2.26033	-96
2.26400	-96
2.26767	-95
2.27133	-95
2.27500	-95
2.27867	-94
2.28233	-94
2.28600	-93
2.28967	-93
2.29333	-93
2.29700	-93
2.30067	-92
2.30433	-92
2.30800	-92
2.31167	-91
2.31533	-90
2.31900	-89
2.32267	-88
2.32633	-87
2.33000	-86
2.33367	-85
2.33733	-84
2.34100	-83
2.34467	-83
2.34833	-82
2.35200	-82
2.35567	-82
2.35933	-81
2.36300	-80
2.36667	-79
2.37033	-77
2.37400	-75
2.37767	-73
2.38133	-70
2.38500	-67
2.38867	-63
2.39233	-60
2.39600	-56
2.39967	-52
2.40333	-49
2.40700	-45
2.41067	-41
2.41433	-38
2.41800	-34
2.42167	-31
2.42533	-28
2.42900	-26
2.43267	-23
2.43633	-21
2.44000	-18
2.44367	-16
2.44733	-14
2.45100	-12
2.45467	-10
2.45833	-9
2.46200	-7
2.46567	-6
2.46933	-4
2.47300	-3
2.47667	-1
2.48033	0
2.48400	1
2.48767	2
2.49133	3
2.49500	3
2.49867	4
2.50233	5
2.50600	6
2.50967	6
2.51333	7
2.51700	8
2.52067	9
2.52433	9
2.52800	10
2.53167	10
2.53533	10
2.53900	11
2.54267	11
2.54633	12
2.55000	12
2.55367	13
2.55733	13
2.56100	13
2.56467	14
2.56833	14
2.57200	15
2.57567	15
2.57933	16
2.58300	16
2.58667	16
2.59033	16
2.59400	15
2.59767	15
2.60133	15
2.60500	15
2.60867	14
2.61233	15
2.61600	15
2.61967	15
2.62333	16
2.62700	16
2.63067	17
2.63433	17
2.63800	17
2.64167	17
2.64533	17
2.64900	17
2.65267	17
2.65633	18
2.66000	18
2.66367	18
2.66733	18
2.67100	18
2.67467	18
2.67833	18
2.68200	18
2.68567	18
2.68933	18
2.69300	18
2.69667	19
2.70033	19
2.70400	20
2.70767	21
2.71133	21
2.71500	22
2.71867	23
2.72233	24
2.72600	24
2.72967	24
2.73333	24
2.73700	24
2.74067	24
2.74433	24
2.74800	24
2.75167	23
2.75533	23
2.75900	23
2.76267	23
2.76633	24
2.77000	24
2.77367	24
2.77733	24
2.78100	25
2.78467	25
2.78833	25
2.79200	25
2.79567	25
2.79933	25
2.80300	25
2.80667	25
2.81033	25
2.81400	25
2.81767	24
2.82133	24
2.82500	23
2.82867	23
2.83233	22
2.83600	22
2.83967	21
2.84333	21
2.84700	21
2.85067	20
2.85433	19
2.85800	16
2.86167	12
2.86533	5
2.86900	-4
2.87267	-17
2.87633	-34
2.88000	-55
2.88367	-79
2.88733	-108
2.89100	-141
2.89467	-178
2.89833	-218
2.90200	-261
2.90567	-306
2.90933	-354
2.91300	-403
2.91667	-454
2.92033	-506
2.92400	-557
2.92767	-609
2.93133	-661
2.93500	-712
2.93867	-762
2.94233	-811
2.94600	-862
2.94967	-917
2.95333	-977
2.95700	-1035
2.96067	-1080
2.96433	-1103
2.96800	-1100
2.97167	-1072
2.97533	-1023
2.97900	-959
2.98267	-884
2.98633	-805
2.99000	-724
2.99367	-645
2.99733	-570
3.00100	-500
3.00467	-437
3.00833	-379
3.01200	-327
3.01567	-282
3.01933	-241
3.02300	-206
3.02667	-176
3.03033	-149
3.03400	-126
3.03767	-106
3.04133	-89
3.04500	-75
3.04867	-63
3.05233	-52
3.05600	-43
3.05967	-35
3.06333	-28
3.06700	-22
3.07067	-17
3.07433	-13
3.07800	-9
3.08167	-6
3.08533	-4
3.08900	-2
3.09267	0
3.09633	2
3.10000	4
3.10367	5
3.10733	6
3.11100	8
3.11467	9
3.11833	10
3.12200	11
3.12567	12
3.12933	12
3.13300	13
3.13667	14
3.14033	14
3.14400	15
3.14767	15
3.15133	15
3.15500	15
3.15867	16
3.16233	16
3.16600	16
3.16967	16
3.17333	17
3.17700	17
3.18067	17
3.18433	17
3.18800	17
3.19167	17
3.19533	17
3.19900	17
3.20267	17
3.20633	17
3.21000	17
3.21367	18
3.21733	18
3.22100	18
3.22467	18
3.22833	18
3.23200	18
3.23567	18
3.23933	18
3.24300	18
3.24667	19
3.25033	18
3.25400	18
3.25767	18
3.26133	19
3.26500	19
3.26867	19
3.27233	20
3.27600	20
3.27967	21
3.28333	21
3.28700	21
3.29067	21
3.29433	21
3.29800	21
3.30167	21
3.30533	21
3.30900	21
3.31267	21
3.31633	21
3.32000	21
3.32367	21
3.32733	21
3.33100	21
3.33467	21
3.33833	21
3.34200	21
3.34567	21
3.34933	22
3.35300	22
3.35667	22
3.36033	22
3.36400	22
3.36767	22
3.37133	22
3.37500	23
3.37867	23
3.38233	23
3.38600	24
3.38967	24
3.39333	24
3.39700	24
3.40067	24
3.40433	24
3.40800	24
3.41167	24
3.41533	24
3.41900	24
3.42267	24
3.42633	25
3.43000	25
3.43367	25
3.43733	25
3.44100	25
3.44467	25
3.44833	25
3.45200	25
3.45567	25
3.45933	25
3.46300	25
3.46667	25
3.47033	25
3.47400	25
3.47767	25
3.48133	25
3.48500	25
3.48867	25
3.49233	25
3.49600	25
3.49967	25
3.50333	24
3.50700	24
3.51067	24
3.51433	24
3.51800	24
3.52167	24
3.52533	24
3.52900	24
3.53267	23
3.53633	23
3.54000	23
3.54367	23
3.54733	23
3.55100	23
3.55467	23
3.55833	23
3.56200	23
3.56567	23
3.56933	23
3.57300	23
3.57667	24
3.58033	24
3.58400	24
3.58767	24
3.59133	24
3.59500	23
3.59867	23
3.60233	23
3.60600	23
3.60967	23
3.61333	23
3.61700	24
3.62067	24
3.62433	24
3.62800	24
3.63167	25
3.63533	25
3.63900	25
3.64267	25
3.64633	25
3.65000	25
3.65367	25
3.65733	25
3.66100	25
3.66467	25
3.66833	25
3.67200	25
3.67567	25
3.67933	25
3.68300	25
3.68667	25
3.69033	25
3.69400	25
3.69767	25
3.70133	25
3.70500	25
3.70867	25
3.71233	25
3.71600	25
3.71967	25
3.72333	25
3.72700	25
3.73067	25
3.73433	25
3.73800	25
3.74167	24
3.74533	24
3.74900	24
3.75267	24
3.75633	24
3.76000	24
3.76367	24
3.76733	24
3.77100	24
3.77467	24
3.77833	24
3.78200	24
3.78567	24
3.78933	24
3.79300	24
3.79667	24
3.80033	24
3.80400	24
3.80767	24
3.81133	25
3.81500	25
3.81867	25
3.82233	25
3.82600	25
3.82967	25
3.83333	25
3.83700	25
3.84067	25
3.84433	25
3.84800	25
3.85167	24
3.85533	24
3.85900	24
3.86267	24
3.86633	24
3.87000	24
3.87367	24
3.87733	24
3.88100	24
3.88467	24
3.88833	24
3.89200	24
3.89567	25
3.89933	25
3.90300	25
3.90667	24
3.91033	24
3.91400	25
3.91767	25
3.92133	25
3.92500	25
3.92867	26
3.93233	26
3.93600	26
3.93967	26
3.94333	26
3.94700	26
3.95067	26
3.95433	26
3.95800	26
3.96167	26
3.96533	26
3.96900	25
3.97267	25
3.97633	25
3.98000	25
3.98367	25
3.98733	25
3.99100	25
3.99467	25
3.99833	25

[Chromatogram (Ch3)]
Interval(msec)	220
# of Points	1091
Start Time(min)	0.002
End Time(min)	3.998
R.Time (min)	Intensity
0.00167	1
0.00533	1
0.00900	-0
0.01267	-2
0.01633	-5
0.02000	-5
0.02367	-4
0.02733	-3
0.03100	-4
0.03467	-5
0.03833	-4
0.04200	-5
0.04567	-6
0.04933	-4
0.05300	-2
0.05667	-1
0.06033	-1
0.06400	0
0.06767	-1
0.07133	-2
0.07500	-2
0.07867	-2
0.08233	-2
0.08600	-0
0.08967	-1
0.09333	-2
0.09700	-3
0.10067	-3
0.10433	0
0.10800	5
0.11167	5
0.11533	3
0.11900	0
0.12267	-0
0.12633	-1
0.13000	-1
0.13367	-1
0.13733	-0
0.14100	0
0.14467	-0
0.14833	-0
0.15200	-2
0.15567	-3
0.15933	-2
0.16300	1
0.16667	2
0.17033	0
0.17400	-1
0.17767	-2
0.18133	-1
0.18500	-1
0.18867	-0
0.19233	-0
0.19600	-0
0.19967	2
0.20333	6
0.20700	8
0.21067	8
0.21433	7
0.21800	7
0.22167	5
0.22533	3
0.22900	4
0.23267	3
0.23633	4
0.24000	6
0.24367	6
0.24733	5
0.25100	6
0.25467	5
0.25833	4
0.26200	5
0.26567	5
0.26933	4
0.27300	4
0.27667	3
0.28033	5
0.28400	7
0.28767	8
0.29133	7
0.29500	7
0.29867	7
0.30233	8
0.30600	8
0.30967	7
0.31333	9
0.31700	9
0.32067	9
0.32433	6
0.32800	4
0.33167	3
0.33533	2
0.33900	3
0.34267	4
0.34633	3
0.35000	3
0.35367	3
0.35733	3
0.36100	3
0.36467	2
0.36833	2
0.37200	3
0.37567	5
0.37933	5
0.38300	4
0.38667	6
0.39033	8
0.39400	8
0.39767	6
0.40133	5
0.40500	7
0.40867	7
0.41233	5
0.41600	3
0.41967	1
0.42333	2
0.42700	2
0.43067	2
0.43433	3
0.43800	4
0.44167	5
0.44533	6
0.44900	8
0.45267	12
0.45633	12
0.46000	11
0.46367	8
0.46733	5
0.47100	4
0.47467	3
0.47833	1
0.48200	-1
0.48567	-1
0.48933	-2
0.49300	-2
0.49667	-1
0.50033	-0
0.50400	-0
0.50767	0
0.51133	0
0.51500	-0
0.51867	2
0.52233	5
0.52600	8
0.52967	8
0.53333	9
0.53700	8
0.54067	6
0.54433	8
0.54800	8
0.55167	9
0.55533	9
0.55900	8
0.56267	7
0.56633	7
0.57000	8
0.57367	9
0.57733	6
0.58100	4
0.58467	4
0.58833	5
0.59200	8
0.59567	9
0.59933	9
0.60300	10
0.60667	11
0.61033	11
0.61400	11
0.61767	11
0.62133	10
0.62500	9
0.62867	9
0.63233	10
0.63600	9
0.63967	6
0.64333	7
0.64700	9
0.65067	10
0.65433	8
0.65800	8
0.66167	9
0.66533	9
0.66900	8
0.67267	6
0.67633	7
0.68000	7
0.68367	6
0.68733	4
0.69100	5
0.69467	7
0.69833	7
0.70200	6
0.70567	6
0.70933	6
0.71300	6
0.71667	7
0.72033	9
0.72400	11
0.72767	10
0.73133	9
0.73500	8
0.73867	8
0.74233	9
0.74600	9
0.74967	6
0.75333	3
0.75700	2
0.76067	4
0.76433	5
0.76800	7
0.77167	9
0.77533	9
0.77900	7
0.78267	6
0.78633	4
0.79000	3
0.79367	3
0.79733	2
0.80100	1
0.80467	1
0.80833	-2
0.81200	-3
0.81567	-3
0.81933	-2
0.82300	-2
0.82667	-1
0.83033	1
0.83400	-0
0.83767	-2
0.84133	-2
0.84500	2
0.84867	3
0.85233	4
0.85600	3
0.85967	2
0.86333	2
0.86700	4
0.87067	4
0.87433	4
0.87800	4
0.88167	4
0.88533	5
0.88900	6
0.89267	7
0.89633	7
0.90000	5
0.90367	2
0.90733	2
0.91100	3
0.91467	4
0.91833	3
0.92200	2
0.92567	0
0.92933	-2
0.93300	-1
0.93667	0
0.94033	2
0.94400	2
0.94767	4
0.95133	4
0.95500	3
0.95867	2
0.96233	2
0.96600	0
0.96967	-2
0.97333	-1
0.97700	-2
0.98067	-4
0.98433	-3
0.98800	-2
0.99167	-3
0.99533	-3
0.99900	-3
1.00267	-3
1.00633	-2
1.01000	-1
1.01367	-2
1.01733	-1
1.02100	0
1.02467	1
1.02833	1
1.03200	-0
1.03567	-1
1.03933	-2
1.04300	-3
1.04667	-3
1.05033	-5
1.05400	-4
1.05767	-3
1.06133	-2
1.06500	-1
1.06867	-1
1.07233	0
1.07600	-0
1.07967	-1
1.08333	-3
1.08700	-6
1.09067	-8
1.09433	-8
1.09800	-6
1.10167	-5
1.10533	-6
1.10900	-8
1.11267	-8
1.11633	-7
1.12000	-4
1.12367	-2
1.12733	-2
1.13100	0
1.13467	2
1.13833	2
1.14200	2
1.14567	1
1.14933	1
1.15300	-0
1.15667	0
1.16033	-1
1.16400	-3
1.16767	-5
1.17133	-5
1.17500	-6
1.17867	-5
1.18233	-4
1.18600	-4
1.18967	-3
1.19333	-1
1.19700	-0
1.20067	-2
1.20433	-5
1.20800	-5
1.21167	-7
1.21533	-9
1.21900	-9
1.22267	-8
1.22633	-9
1.23000	-9
1.23367	-8
1.23733	-5
1.24100	-6
1.24467	-6
1.24833	-6
1.25200	-6
1.25567	-6
1.25933	-6
1.26300	-8
1.26667	-10
1.27033	-10
1.27400	-9
1.27767	-8
1.28133	-8
1.28500	-8
1.28867	-7
1.29233	-8
1.29600	-10
1.29967	-10
1.30333	-9
1.30700	-7
1.31067	-5
1.31433	-5
1.31800	-5
1.32167	-5
1.32533	-6
1.32900	-7
1.33267	-8
1.33633	-6
1.34000	-5
1.34367	-5
1.34733	-6
1.35100	-4
1.35467	-3
1.35833	-2
1.36200	-3
1.36567	-3
1.36933	-3
1.37300	-3
1.37667	-5
1.38033	-8
1.38400	-10
1.38767	-11
1.39133	-10
1.39500	-7
1.39867	-4
1.40233	-3
1.40600	-3
1.40967	-7
1.41333	-12
1.41700	-15
1.42067	-15
1.42433	-16
1.42800	-14
1.43167	-11
1.43533	-8
1.43900	-8
1.44267	-7
1.44633	-7
1.45000	-7
1.45367	-9
1.45733	-11
1.46100	-12
1.46467	-13
1.46833	-15
1.47200	-15
1.47567	-13
1.47933	-11
1.48300	-9
1.48667	-9
1.49033	-10
1.49400	-9
1.49767	-10
1.50133	-9
1.50500	-9
1.50867	-7
1.51233	-7
1.51600	-8
1.51967	-9
1.52333	-11
1.52700	-12
1.53067	-11
1.53433	-9
1.53800	-9
1.54167	-12
1.54533	-13
1.54900	-12
1.55267	-11
1.55633	-13
1.56000	-14
1.56367	-15
1.56733	-16
1.57100	-16
1.57467	-16
1.57833	-14
1.58200	-12
1.58567	-11
1.58933	-10
1.59300	-9
1.59667	-7
1.60033	-4
1.60400	-3
1.60767	-3
1.61133	-3
1.61500	-5
1.61867	-7
1.62233	-9
1.62600	-11
1.62967	-9
1.63333	-8
1.63700	-6
1.64067	-8
1.64433	-8
1.64800	-8
1.65167	-9
1.65533	-10
1.65900	-10
1.66267	-12
1.66633	-10
1.67000	-7
1.67367	-5
1.67733	-3
1.68100	-2
1.68467	-1
1.68833	-1
1.69200	2
1.69567	3
1.69933	5
1.70300	5
1.70667	5
1.71033	6
1.71400	7
1.71767	7
1.72133	7
1.72500	8
1.72867	7
1.73233	5
1.73600	3
1.73967	1
1.74333	1
1.74700	2
1.75067	1
1.75433	0
1.75800	3
1.76167	6
1.76533	7
1.76900	9
1.77267	12
1.77633	13
1.78000	13
1.78367	16
1.78733	16
1.79100	15
1.79467	17
1.79833	18
1.80200	18
1.80567	18
1.80933	17
1.81300	18
1.81667	19
1.82033	23
1.82400	25
1.82767	25
1.83133	23
1.83500	22
1.83867	22
1.84233	21
1.84600	21
1.84967	21
1.85333	22
1.85700	21
1.86067	21
1.86433	20
1.86800	19
1.87167	20
1.87533	20
1.87900	21
1.88267	23
1.88633	23
1.89000	25
1.89367	26
1.89733	28
1.90100	28
1.90467	27
1.90833	26
1.91200	26
1.91567	27
1.91933	30
1.92300	33
1.92667	34
1.93033	34
1.93400	32
1.93767	29
1.94133	26
1.94500	25
1.94867	25
1.95233	25
1.95600	29
1.95967	34
1.96333	39
1.96700	42
1.97067	42
1.97433	42
1.97800	44
1.98167	43
1.98533	40
1.98900	38
1.99267	38
1.99633	38
2.00000	37
2.00367	37
2.00733	40
2.01100	45
2.01467	50
2.01833	52
2.02200	50
2.02567	47
2.02933	46
2.03300	47
2.03667	49
2.04033	50
2.04400	52
2.04767	52
2.05133	53
2.05500	56
2.05867	57
2.06233	57
2.06600	59
2.06967	59
2.07333	59
2.07700	60
2.08067	60
2.08433	60
2.08800	61
2.09167	62
2.09533	60
2.09900	61
2.10267	65
2.10633	66
2.11000	67
2.11367	68
2.11733	69
2.12100	68
2.12467	69
2.12833	71
2.13200	72
2.13567	72
2.13933	76
2.14300	78
2.14667	78
2.15033	78
2.15400	80
2.15767	83
2.16133	84
2.16500	86
2.16867	87
2.17233	87
2.17600	86
2.17967	87
2.18333	86
2.18700	84
2.19067	85
2.19433	87
2.19800	89
2.20167	92
2.20533	92
2.20900	92
2.21267	93
2.21633	94
2.22000	95
2.22367	97
2.22733	100
2.23100	100
2.23467	99
2.23833	96
2.24200	96
2.24567	98
2.24933	99
2.25300	100
2.25667	100
2.26033	100
2.26400	99
2.26767	102
2.27133	105
2.27500	107
2.27867	108
2.28233	109
2.28600	110
2.28967	110
2.29333	111
2.29700	112
2.30067	113
2.30433	116
2.30800	117
2.31167	118
2.31533	119
2.31900	121
2.32267	122
2.32633	121
2.33000	123
2.33367	124
2.33733	126
2.34100	127
2.34467	130
2.34833	132
2.35200	134
2.35567	135
2.35933	134
2.36300	134
2.36667	137
2.37033	140
2.37400	140
2.37767	141
2.38133	141
2.38500	137
2.38867	131
2.39233	130
2.39600	133
2.39967	138
2.40333	144
2.40700	148
2.41067	152
2.41433	154
2.41800	155
2.42167	158
2.42533	161
2.42900	163
2.43267	166
2.43633	166
2.44000	167
2.44367	206
2.44733	313
2.45100	433
2.45467	524
2.45833	561
2.46200	564
2.46567	562
2.46933	559
2.47300	545
2.47667	516
2.48033	476
2.48400	436
2.48767	400
2.49133	374
2.49500	359
2.49867	355
2.50233	361
2.50600	374
2.50967	385
2.51333	390
2.51700	387
2.52067	375
2.52433	353
2.52800	329
2.53167	302
2.53533	278
2.53900	260
2.54267	245
2.54633	234
2.55000	227
2.55367	223
2.55733	221
2.56100	224
2.56467	227
2.56833	229
2.57200	231
2.57567	236
2.57933	241
2.58300	251
2.58667	264
2.59033	278
2.59400	291
2.59767	301
2.60133	308
2.60500	309
2.60867	299
2.61233	277
2.61600	247
2.61967	209
2.62333	165
2.62700	119
2.63067	75
2.63433	33
2.63800	-6
2.64167	-40
2.64533	-67
2.64900	-86
2.65267	-99
2.65633	-106
2.66000	-111
2.66367	-114
2.66733	-104
2.67100	-76
2.67467	-35
2.67833	9
2.68200	54
2.68567	103
2.68933	153
2.69300	209
2.69667	266
2.70033	322
2.70400	377
2.70767	429
2.71133	478
2.71500	522
2.71867	560
2.72233	596
2.72600	628
2.72967	657
2.73333	687
2.73700	718
2.74067	747
2.74433	775
2.74800	800
2.75167	825
2.75533	846
2.75900	863
2.76267	878
2.76633	892
2.77000	904
2.77367	912
2.77733	915
2.78100	914
2.78467	913
2.78833	908
2.79200	902
2.79567	896
2.79933	888
2.80300	879
2.80667	871
2.81033	864
2.81400	860
2.81767	860
2.82133	858
2.82500	858
2.82867	866
2.83233	895
2.83600	963
2.83967	1088
2.84333	1297
2.84700	1614
2.85067	2048
2.85433	2592
2.85800	3221
2.86167	3895
2.86533	4562
2.86900	5164
2.87267	5652
2.87633	5993
2.88000	6167
2.88367	6184
2.88733	6061
2.89100	5826
2.89467	5518
2.89833	5159
2.90200	4774
2.90567	4382
2.90933	4000
2.91300	3640
2.91667	3306
2.92033	3003
2.92400	2730
2.92767	2487
2.93133	2272
2.93500	2086
2.93867	1922
2.94233	1778
2.94600	1651
2.94967	1544
2.95333	1452
2.95700	1370
2.96067	1301
2.96433	1242
2.96800	1192
2.97167	1150
2.97533	1114
2.97900	1082
2.98267	1055
2.98633	1033
2.99000	1013
2.99367	994
2.99733	978
3.00100	967
3.00467	961
3.00833	955
3.01200	949
3.01567	945
3.01933	941
3.02300	939
3.02667	938
3.03033	936
3.03400	934
3.03767	930
3.04133	927
3.04500	925
3.04867	924
3.05233	921
3.05600	917
3.05967	916
3.06333	918
3.06700	919
3.07067	920
3.07433	919
3.07800	921
3.08167	921
3.08533	917
3.08900	913
3.09267	910
3.09633	908
3.10000	905
3.10367	901
3.10733	897
3.11100	893
3.11467	890
3.11833	886
3.12200	884
3.12567	882
3.12933	879
3.13300	872
3.13667	865
3.14033	860
3.14400	853
3.14767	846
3.15133	842
3.15500	838
3.15867	832
3.16233	826
3.16600	821
3.16967	819
3.17333	813
3.17700	810
3.18067	806
3.18433	802
3.18800	797
3.19167	791
3.19533	787
3.19900	781
3.20267	774
3.20633	769
3.21000	766
3.21367	765
3.21733	763
3.22100	758
3.22467	755
3.22833	754
3.23200	751
3.23567	748
3.23933	745
3.24300	742
3.24667	740
3.25033	739
3.25400	734
3.25767	728
3.26133	723
3.26500	716
3.26867	710
3.27233	705
3.27600	703
3.27967	699
3.28333	695
3.28700	691
3.29067	687
3.29433	684
3.29800	681
3.30167	678
3.30533	676
3.30900	672
3.31267	668
3.31633	665
3.32000	661
3.32367	655
3.32733	652
3.33100	650
3.33467	647
3.33833	642
3.34200	636
3.34567	633
3.34933	630
3.35300	627
3.35667	624
3.36033	622
3.36400	620
3.36767	619
3.37133	619
3.37500	619
3.37867	615
3.38233	610
3.38600	606
3.38967	601
3.39333	595
3.39700	594
3.40067	593
3.40433	591
3.40800	587
3.41167	583
3.41533	579
3.41900	575
3.42267	573
3.42633	571
3.43000	567
3.43367	563
3.43733	559
3.44100	554
3.44467	551
3.44833	551
3.45200	552
3.45567	549
3.45933	545
3.46300	540
3.46667	536
3.47033	535
3.47400	533
3.47767	531
3.48133	528
3.48500	526
3.48867	525
3.49233	523
3.49600	521
3.49967	519
3.50333	518
3.50700	519
3.51067	518
3.51433	516
3.51800	513
3.52167	511
3.52533	508
3.52900	504
3.53267	504
3.53633	502
3.54000	501
3.54367	500
3.54733	500
3.55100	498
3.55467	500
3.55833	500
3.56200	497
3.56567	494
3.56933	489
3.57300	488
3.57667	489
3.58033	489
3.58400	487
3.58767	482
3.59133	478
3.59500	477
3.59867	477
3.60233	476
3.60600	475
3.60967	474
3.61333	471
3.61700	469
3.62067	468
3.62433	466
3.62800	465
3.63167	464
3.63533	462
3.63900	461
3.64267	461
3.64633	462
3.65000	462
3.65367	461
3.65733	459
3.66100	457
3.66467	457
3.66833	455
3.67200	454
3.67567	450
3.67933	447
3.68300	444
3.68667	442
3.69033	440
3.69400	437
3.69767	434
3.70133	432
3.70500	431
3.70867	432
3.71233	436
3.71600	439
3.71967	440
3.72333	440
3.72700	439
3.73067	438
3.73433	436
3.73800	433
3.74167	432
3.74533	431
3.74900	432
3.75267	433
3.75633	432
3.76000	430
3.76367	427
3.76733	426
3.77100	426
3.77467	424
3.77833	425
3.78200	423
3.78567	420
3.78933	416
3.79300	413
3.79667	412
3.80033	412
3.80400	415
3.80767	417
3.81133	416
3.81500	412
3.81867	410
3.82233	409
3.82600	408
3.82967	407
3.83333	407
3.83700	407
3.84067	406
3.84433	406
3.84800	406
3.85167	407
3.85533	406
3.85900	403
3.86267	400
3.86633	398
3.87000	395
3.87367	396
3.87733	398
3.88100	397
3.88467	394
3.88833	391
3.89200	389
3.89567	387
3.89933	384
3.90300	383
3.90667	384
3.91033	383
3.91400	382
3.91767	383
3.92133	384
3.92500	383
3.92867	383
3.93233	381
3.93600	378
3.93967	373
3.94333	370
3.94700	368
3.95067	369
3.95433	370
3.95800	368
3.96167	367
3.96533	369
3.96900	370
3.97267	371
3.97633	371
3.98000	370
3.98367	367
3.98733	363
3.99100	359
3.99467	355
3.99833	353

[Status Trace (Column Oven Temperature)]
Interval(msec)	1000
# of Points	240
Start Time(min)	0.008
End Time(min)	3.992
Intensity Units	
Intensity Multiplier	1
R.Time (min)	Intensity
0.00843	35.01
0.02510	35.01
0.04177	35.00
0.05843	34.99
0.07510	34.99
0.09177	34.99
0.10843	35.00
0.12510	34.99
0.14177	34.99
0.15843	34.98
0.17510	34.99
0.19177	35.00
0.20843	35.00
0.22510	35.01
0.24177	35.01
0.25843	35.02
0.27510	35.02
0.29177	35.01
0.30843	35.01
0.32510	35.00
0.34177	34.99
0.35843	34.99
0.37510	34.99
0.39177	34.99
0.40843	34.98
0.42510	34.98
0.44177	34.97
0.45843	34.98
0.47510	34.99
0.49177	34.99
0.50843	34.99
0.52510	35.00
0.54177	35.00
0.55843	34.99
0.57510	34.99
0.59177	35.00
0.60843	35.00
0.62510	35.00
0.64177	34.99
0.65843	34.99
0.67510	34.98
0.69177	34.98
0.70843	34.98
0.72510	34.97
0.74177	34.98
0.75843	34.98
0.77510	34.98
0.79177	34.98
0.80843	34.98
0.82510	34.99
0.84177	34.99
0.85843	34.99
0.87510	34.99
0.89177	35.00
0.90843	35.00
0.92510	35.00
0.94177	35.00
0.95843	35.00
0.97510	34.99
0.99177	34.99
1.00843	34.99
1.02510	34.99
1.04177	34.99
1.05843	34.99
1.07510	34.99
1.09177	34.98
1.10843	34.98
1.12510	34.99
1.14177	34.99
1.15843	35.01
1.17510	35.00
1.19177	35.00
1.20843	35.00
1.22510	35.00
1.24177	35.00
1.25843	34.99
1.27510	34.98
1.29177	34.98
1.30843	34.98
1.32510	34.98
1.34177	34.99
1.35843	34.99
1.37510	34.99
1.39177	35.00
1.40843	35.00
1.42510	35.00
1.44177	35.00
1.45843	35.01
1.47510	34.99
1.49177	34.99
1.50843	34.99
1.52510	34.98
1.54177	34.99
1.55843	34.99
1.57510	34.99
1.59177	35.00
1.60843	35.06
1.62510	35.18
1.64177	35.37
1.65843	35.62
1.67510	35.97
1.69177	36.33
1.70843	36.69
1.72510	37.03
1.74177	37.37
1.75843	37.67
1.77510	38.00
1.79177	38.34
1.80843	38.67
1.82510	39.00
1.84177	39.35
1.85843	39.67
1.87510	39.99
1.89177	40.33
1.90843	40.66
1.92510	40.98
1.94177	41.30
1.95843	41.63
1.97510	41.94
1.99177	42.28
2.00843	42.57
2.02510	42.91
2.04177	43.24
2.05843	43.57
2.07510	43.90
2.09177	44.23
2.10843	44.55
2.12510	44.87
2.14177	45.20
2.15843	45.51
2.17510	45.84
2.19177	46.17
2.20843	46.50
2.22510	46.83
2.24177	47.20
2.25843	47.52
2.27510	47.84
2.29177	48.18
2.30843	48.51
2.32510	48.83
2.34177	49.15
2.35843	49.45
2.37510	49.64
2.39177	49.71
2.40843	49.71
2.42510	49.71
2.44177	49.70
2.45843	49.71
2.47510	49.72
2.49177	49.73
2.50843	49.74
2.52510	49.75
2.54177	49.76
2.55843	49.78
2.57510	49.78
2.59177	49.80
2.60843	49.82
2.62510	49.82
2.64177	49.84
2.65843	49.83
2.67510	49.85
2.69177	49.86
2.70843	49.85
2.72510	49.85
2.74177	49.86
2.75843	49.86
2.77510	49.86
2.79177	49.85
2.80843	49.85
2.82510	49.88
2.84177	49.91
2.85843	49.93
2.87510	49.94
2.89177	49.94
2.90843	49.94
2.92510	49.95
2.94177	49.95
2.95843	49.96
2.97510	49.96
2.99177	49.96
3.00843	49.95
3.02510	49.96
3.04177	49.97
3.05843	49.99
3.07510	50.00
3.09177	50.00
3.10843	50.00
3.12510	50.01
3.14177	50.01
3.15843	50.02
3.17510	50.02
3.19177	50.03
3.20843	50.05
3.22510	50.06
3.24177	50.06
3.25843	50.07
3.27510	50.08
3.29177	50.08
3.30843	50.09
3.32510	50.10
3.34177	50.10
3.35843	50.10
3.37510	50.10
3.39177	50.09
3.40843	50.08
3.42510	50.08
3.44177	50.07
3.45843	50.07
3.47510	50.06
3.49177	50.07
3.50843	50.07
3.52510	50.08
3.54177	50.08
3.55843	50.08
3.57510	50.08
3.59177	50.08
3.60843	50.08
3.62510	50.08
3.64177	50.07
3.65843	50.08
3.67510	50.08
3.69177	50.08
3.70843	50.08
3.72510	50.07
3.74177	50.08
3.75843	50.08
3.77510	50.08
3.79177	50.08
3.80843	50.08
3.82510	50.08
3.84177	50.09
3.85843	50.09
3.87510	50.08
3.89177	50.08
3.90843	50.08
3.92510	50.07
3.94177	50.07
3.95843	50.06
3.97510	50.06
3.99177	50.06

[Status Trace (Injection Unit Temperature)]
Interval(msec)	1000
# of Points	240
Start Time(min)	0.008
End Time(min)	3.992
Intensity Units	
Intensity Multiplier	1
R.Time (min)	Intensity
0.00843	99.98
0.02510	99.98
0.04177	99.98
0.05843	99.98
0.07510	99.98
0.09177	99.98
0.10843	99.98
0.12510	99.98
0.14177	99.98
0.15843	99.98
0.17510	99.98
0.19177	99.98
0.20843	99.98
0.22510	99.98
0.24177	99.98
0.25843	99.98
0.27510	99.98
0.29177	99.98
0.30843	99.98
0.32510	99.97
0.34177	99.97
0.35843	99.97
0.37510	99.98
0.39177	99.97
0.40843	99.98
0.42510	99.97
0.44177	99.98
0.45843	99.97
0.47510	99.97
0.49177	99.97
0.50843	99.98
0.52510	99.97
0.54177	99.97
0.55843	99.98
0.57510	99.98
0.59177	99.97
0.60843	99.97
0.62510	99.97
0.64177	99.97
0.65843	99.97
0.67510	99.97
0.69177	99.97
0.70843	99.97
0.72510	99.97
0.74177	99.97
0.75843	99.97
0.77510	99.97
0.79177	99.97
0.80843	99.97
0.82510	99.97
0.84177	99.97
0.85843	99.97
0.87510	99.97
0.89177	99.97
0.90843	99.97
0.92510	99.97
0.94177	99.97
0.95843	99.97
0.97510	99.98
0.99177	99.97
1.00843	99.98
1.02510	99.98
1.04177	99.97
1.05843	99.98
1.07510	99.98
1.09177	99.98
1.10843	99.98
1.12510	99.99
1.14177	99.98
1.15843	99.98
1.17510	99.98
1.19177	99.98
1.20843	99.99
1.22510	99.99
1.24177	99.99
1.25843	99.99
1.27510	99.99
1.29177	99.99
1.30843	99.99
1.32510	99.99
1.34177	99.99
1.35843	99.99
1.37510	100.00
1.39177	100.00
1.40843	99.99
1.42510	99.99
1.44177	99.99
1.45843	100.00
1.47510	100.00
1.49177	100.00
1.50843	100.00
1.52510	100.00
1.54177	99.99
1.55843	99.99
1.57510	100.00
1.59177	100.00
1.60843	99.99
1.62510	99.99
1.64177	99.99
1.65843	99.99
1.67510	99.99
1.69177	99.99
1.70843	99.99
1.72510	99.99
1.74177	99.99
1.75843	99.99
1.77510	99.99
1.79177	99.99
1.80843	99.99
1.82510	99.99
1.84177	99.98
1.85843	99.98
1.87510	99.99
1.89177	99.98
1.90843	99.98
1.92510	99.98
1.94177	99.98
1.95843	99.98
1.97510	99.98
1.99177	99.98
2.00843	99.98
2.02510	99.98
2.04177	99.98
2.05843	99.98
2.07510	99.97
2.09177	99.98
2.10843	99.97
2.12510	99.97
2.14177	99.97
2.15843	99.97
2.17510	99.97
2.19177	99.98
2.20843	99.97
2.22510	99.97
2.24177	99.97
2.25843	99.97
2.27510	99.97
2.29177	99.97
2.30843	99.97
2.32510	99.97
2.34177	99.97
2.35843	99.97
2.37510	99.97
2.39177	99.97
2.40843	99.97
2.42510	99.97
2.44177	99.97
2.45843	99.98
2.47510	99.97
2.49177	99.98
2.50843	99.97
2.52510	99.97
2.54177	99.97
2.55843	99.98
2.57510	99.98
2.59177	99.98
2.60843	99.98
2.62510	99.98
2.64177	99.98
2.65843	99.98
2.67510	99.98
2.69177	99.98
2.70843	99.98
2.72510	99.99
2.74177	99.98
2.75843	99.99
2.77510	99.99
2.79177	99.99
2.80843	99.99
2.82510	99.99
2.84177	99.99
2.85843	100.00
2.87510	100.00
2.89177	100.00
2.90843	100.00
2.92510	100.01
2.94177	100.01
2.95843	100.01
2.97510	100.01
2.99177	100.01
3.00843	100.01
3.02510	100.01
3.04177	100.01
3.05843	100.02
3.07510	100.02
3.09177	100.02
3.10843	100.02
3.12510	100.02
3.14177	100.02
3.15843	100.02
3.17510	100.02
3.19177	100.02
3.20843	100.03
3.22510	100.03
3.24177	100.03
3.25843	100.03
3.27510	100.03
3.29177	100.03
3.30843	100.03
3.32510	100.03
3.34177	100.03
3.35843	100.03
3.37510	100.04
3.39177	100.04
3.40843	100.04
3.42510	100.04
3.44177	100.04
3.45843	100.04
3.47510	100.04
3.49177	100.04
3.50843	100.04
3.52510	100.04
3.54177	100.04
3.55843	100.04
3.57510	100.04
3.59177	100.04
3.60843	100.04
3.62510	100.04
3.64177	100.04
3.65843	100.04
3.67510	100.04
3.69177	100.05
3.70843	100.04
3.72510	100.05
3.74177	100.04
3.75843	100.05
3.77510	100.05
3.79177	100.05
3.80843	100.05
3.82510	100.05
3.84177	100.04
3.85843	100.05
3.87510	100.04
3.89177	100.05
3.90843	100.04
3.92510	100.04
3.94177	100.05
3.95843	100.05
3.97510	100.05
3.99177	100.04

[Status Trace (Carrier Gas Pressure)]
Interval(msec)	1000
# of Points	240
Start Time(min)	0.008
End Time(min)	3.992
Intensity Units	
Intensity Multiplier	1
R.Time (min)	Intensity
0.00843	58.00
0.02510	55.29
0.04177	57.15
0.05843	59.32
0.07510	59.30
0.09177	58.05
0.10843	57.98
0.12510	58.01
0.14177	58.01
0.15843	58.00
0.17510	58.00
0.19177	58.00
0.20843	58.00
0.22510	58.00
0.24177	58.00
0.25843	58.00
0.27510	58.00
0.29177	58.00
0.30843	58.00
0.32510	58.00
0.34177	58.00
0.35843	58.00
0.37510	58.00
0.39177	58.00
0.40843	58.00
0.42510	58.00
0.44177	58.00
0.45843	58.00
0.47510	58.00
0.49177	58.00
0.50843	58.00
0.52510	58.00
0.54177	58.00
0.55843	58.00
0.57510	58.00
0.59177	58.00
0.60843	58.00
0.62510	58.00
0.64177	58.00
0.65843	58.00
0.67510	58.00
0.69177	58.00
0.70843	58.00
0.72510	58.00
0.74177	58.00
0.75843	58.00
0.77510	58.00
0.79177	58.00
0.80843	58.00
0.82510	58.00
0.84177	58.00
0.85843	58.00
0.87510	58.00
0.89177	58.00
0.90843	58.00
0.92510	58.00
0.94177	58.00
0.95843	58.00
0.97510	58.00
0.99177	58.00
1.00843	58.00
1.02510	58.00
1.04177	58.00
1.05843	58.00
1.07510	58.00
1.09177	58.00
1.10843	58.00
1.12510	58.00
1.14177	58.00
1.15843	58.00
1.17510	58.00
1.19177	58.00
1.20843	58.00
1.22510	58.00
1.24177	58.00
1.25843	58.00
1.27510	58.00
1.29177	58.00
1.30843	58.00
1.32510	58.00
1.34177	58.00
1.35843	58.00
1.37510	58.00
1.39177	58.00
1.40843	58.00
1.42510	58.00
1.44177	58.00
1.45843	58.00
1.47510	58.00
1.49177	58.00
1.50843	58.00
1.52510	58.00
1.54177	58.00
1.55843	58.00
1.57510	58.00
1.59177	58.00
1.60843	58.00
1.62510	58.00
1.64177	58.00
1.65843	58.00
1.67510	58.01
1.69177	58.00
1.70843	58.00
1.72510	58.00
1.74177	58.00
1.75843	58.00
1.77510	58.00
1.79177	58.00
1.80843	58.00
1.82510	58.00
1.84177	58.00
1.85843	58.00
1.87510	58.00
1.89177	58.00
1.90843	58.00
1.92510	58.00
1.94177	58.00
1.95843	58.00
1.97510	58.00
1.99177	58.00
2.00843	58.00
2.02510	58.00
2.04177	58.00
2.05843	58.00
2.07510	58.00
2.09177	58.00
2.10843	58.00
2.12510	58.00
2.14177	58.00
2.15843	58.00
2.17510	58.00
2.19177	58.00
2.20843	58.00
2.22510	58.00
2.24177	58.00
2.25843	58.00
2.27510	58.00
2.29177	58.00
2.30843	58.00
2.32510	58.00
2.34177	58.00
2.35843	58.00
2.37510	58.00
2.39177	57.99
2.40843	57.99
2.42510	58.00
2.44177	58.00
2.45843	58.00
2.47510	58.00
2.49177	58.00
2.50843	57.99
2.52510	57.98
2.54177	58.00
2.55843	58.00
2.57510	58.00
2.59177	58.00
2.60843	58.00
2.62510	58.00
2.64177	58.00
2.65843	58.00
2.67510	58.00
2.69177	58.00
2.70843	58.00
2.72510	58.00
2.74177	58.00
2.75843	58.00
2.77510	58.00
2.79177	58.00
2.80843	58.00
2.82510	58.00
2.84177	58.00
2.85843	58.00
2.87510	58.00
2.89177	58.00
2.90843	58.00
2.92510	58.00
2.94177	58.00
2.95843	58.00
2.97510	58.00
2.99177	58.00
3.00843	58.00
3.02510	58.00
3.04177	58.00
3.05843	58.00
3.07510	58.00
3.09177	58.00
3.10843	58.00
3.12510	58.00
3.14177	58.00
3.15843	58.00
3.17510	58.00
3.19177	58.00
3.20843	58.00
3.22510	58.00
3.24177	58.00
3.25843	58.00
3.27510	58.00
3.29177	58.00
3.30843	58.00
3.32510	58.00
3.34177	58.00
3.35843	58.00
3.37510	58.00
3.39177	58.00
3.40843	58.00
3.42510	58.00
3.44177	58.00
3.45843	58.00
3.47510	58.00
3.49177	58.00
3.50843	58.00
3.52510	58.00
3.54177	58.00
3.55843	58.00
3.57510	58.00
3.59177	58.00
3.60843	58.00
3.62510	58.00
3.64177	58.00
3.65843	58.00
3.67510	58.00
3.69177	58.00
3.70843	58.00
3.72510	58.00
3.74177	58.00
3.75843	58.00
3.77510	58.00
3.79177	58.00
3.80843	58.00
3.82510	58.00
3.84177	58.00
3.85843	58.00
3.87510	58.00
3.89177	58.00
3.90843	58.00
3.92510	58.00
3.94177	58.00
3.95843	58.00
3.97510	58.00
3.99177	58.00

[Status Trace (Carrier Gas Flow)]
Interval(msec)	1000
# of Points	240
Start Time(min)	0.008
End Time(min)	3.992
Intensity Units	
Intensity Multiplier	1
R.Time (min)	Intensity
0.00843	34.52
0.02510	34.54
0.04177	34.55
0.05843	34.54
0.07510	34.49
0.09177	34.52
0.10843	34.52
0.12510	34.52
0.14177	34.52
0.15843	34.52
0.17510	34.52
0.19177	34.52
0.20843	34.52
0.22510	34.52
0.24177	34.52
0.25843	34.52
0.27510	34.52
0.29177	34.52
0.30843	34.52
0.32510	34.53
0.34177	34.52
0.35843	34.52
0.37510	34.51
0.39177	34.51
0.40843	34.52
0.42510	34.52
0.44177	34.52
0.45843	34.53
0.47510	34.51
0.49177	34.52
0.50843	34.52
0.52510	34.53
0.54177	34.52
0.55843	34.51
0.57510	34.51
0.59177	34.52
0.60843	34.52
0.62510	34.52
0.64177	34.53
0.65843	34.51
0.67510	34.52
0.69177	34.51
0.70843	34.51
0.72510	34.52
0.74177	34.53
0.75843	34.51
0.77510	34.52
0.79177	34.53
0.80843	34.52
0.82510	34.52
0.84177	34.52
0.85843	34.52
0.87510	34.52
0.89177	34.52
0.90843	34.52
0.92510	34.52
0.94177	34.52
0.95843	34.52
0.97510	34.51
0.99177	34.51
1.00843	34.52
1.02510	34.51
1.04177	34.52
1.05843	34.52
1.07510	34.52
1.09177	34.52
1.10843	34.52
1.12510	34.51
1.14177	34.53
1.15843	34.52
1.17510	34.51
1.19177	34.52
1.20843	34.53
1.22510	34.52
1.24177	34.52
1.25843	34.52
1.27510	34.53
1.29177	34.52
1.30843	34.52
1.32510	34.52
1.34177	34.52
1.35843	34.52
1.37510	34.52
1.39177	34.52
1.40843	34.52
1.42510	34.52
1.44177	34.52
1.45843	34.52
1.47510	34.52
1.49177	34.52
1.50843	34.52
1.52510	34.52
1.54177	34.52
1.55843	34.52
1.57510	34.52
1.59177	34.52
1.60843	34.52
1.62510	34.51
1.64177	34.51
1.65843	34.51
1.67510	34.52
1.69177	34.52
1.70843	34.51
1.72510	34.51
1.74177	34.52
1.75843	34.52
1.77510	34.52
1.79177	34.51
1.80843	34.52
1.82510	34.52
1.84177	34.52
1.85843	34.52
1.87510	34.51
1.89177	34.52
1.90843	34.52
1.92510	34.52
1.94177	34.52
1.95843	34.52
1.97510	34.52
1.99177	34.52
2.00843	34.52
2.02510	34.52
2.04177	34.52
2.05843	34.52
2.07510	34.52
2.09177	34.52
2.10843	34.52
2.12510	34.52
2.14177	34.52
2.15843	34.52
2.17510	34.52
2.19177	34.52
2.20843	34.52
2.22510	34.52
2.24177	34.52
2.25843	34.52
2.27510	34.52
2.29177	34.52
2.30843	34.52
2.32510	34.52
2.34177	34.52
2.35843	34.52
2.37510	34.52
2.39177	34.52
2.40843	34.52
2.42510	34.52
2.44177	34.52
2.45843	34.52
2.47510	34.52
2.49177	34.52
2.50843	34.45
2.52510	34.52
2.54177	34.52
2.55843	34.52
2.57510	34.52
2.59177	34.52
2.60843	34.52
2.62510	34.52
2.64177	34.52
2.65843	34.52
2.67510	34.52
2.69177	34.52
2.70843	34.52
2.72510	34.52
2.74177	34.52
2.75843	34.52
2.77510	34.52
2.79177	34.52
2.80843	34.52
2.82510	34.52
2.84177	34.52
2.85843	34.52
2.87510	34.52
2.89177	34.51
2.90843	34.52
2.92510	34.52
2.94177	34.52
2.95843	34.52
2.97510	34.51
2.99177	34.52
3.00843	34.52
3.02510	34.52
3.04177	34.52
3.05843	34.52
3.07510	34.52
3.09177	34.53
3.10843	34.51
3.12510	34.51
3.14177	34.52
3.15843	34.52
3.17510	34.52
3.19177	34.52
3.20843	34.52
3.22510	34.52
3.24177	34.53
3.25843	34.51
3.27510	34.53
3.29177	34.52
3.30843	34.52
3.32510	34.52
3.34177	34.52
3.35843	34.52
3.37510	34.52
3.39177	34.52
3.40843	34.52
3.42510	34.52
3.44177	34.52
3.45843	34.52
3.47510	34.52
3.49177	34.52
3.50843	34.52
3.52510	34.52
3.54177	34.52
3.55843	34.52
3.57510	34.52
3.59177	34.52
3.60843	34.52
3.62510	34.52
3.64177	34.52
3.65843	34.52
3.67510	34.52
3.69177	34.52
3.70843	34.52
3.72510	34.52
3.74177	34.52
3.75843	34.52
3.77510	34.52
3.79177	34.52
3.80843	34.52
3.82510	34.52
3.84177	34.52
3.85843	34.52
3.87510	34.52
3.89177	34.52
3.90843	34.52
3.92510	34.52
3.94177	34.52
3.95843	34.52
3.97510	34.52
3.99177	34.52

[Status Trace (Column Flow)]
Interval(msec)	1000
# of Points	240
Start Time(min)	0.008
End Time(min)	3.992
Intensity Units	
Intensity Multiplier	1
R.Time (min)	Intensity
0.00843	5.56
0.02510	5.24
0.04177	5.46
0.05843	5.71
0.07510	5.71
0.09177	5.56
0.10843	5.55
0.12510	5.56
0.14177	5.56
0.15843	5.56
0.17510	5.56
0.19177	5.56
0.20843	5.56
0.22510	5.56
0.24177	5.56
0.25843	5.56
0.27510	5.56
0.29177	5.56
0.30843	5.56
0.32510	5.56
0.34177	5.56
0.35843	5.56
0.37510	5.56
0.39177	5.56
0.40843	5.56
0.42510	5.56
0.44177	5.56
0.45843	5.56
0.47510	5.56
0.49177	5.56
0.50843	5.56
0.52510	5.56
0.54177	5.56
0.55843	5.56
0.57510	5.56
0.59177	5.56
0.60843	5.56
0.62510	5.56
0.64177	5.56
0.65843	5.56
0.67510	5.56
0.69177	5.56
0.70843	5.56
0.72510	5.56
0.74177	5.56
0.75843	5.56
0.77510	5.56
0.79177	5.56
0.80843	5.56
0.82510	5.56
0.84177	5.56
0.85843	5.56
0.87510	5.56
0.89177	5.56
0.90843	5.56
0.92510	5.56
0.94177	5.56
0.95843	5.56
0.97510	5.56
0.99177	5.56
1.00843	5.56
1.02510	5.56
1.04177	5.56
1.05843	5.56
1.07510	5.56
1.09177	5.56
1.10843	5.56
1.12510	5.56
1.14177	5.56
1.15843	5.56
1.17510	5.56
1.19177	5.56
1.20843	5.56
1.22510	5.56
1.24177	5.56
1.25843	5.56
1.27510	5.56
1.29177	5.56
1.30843	5.56
1.32510	5.56
1.34177	5.56
1.35843	5.56
1.37510	5.56
1.39177	5.56
1.40843	5.56
1.42510	5.56
1.44177	5.56
1.45843	5.56
1.47510	5.56
1.49177	5.56
1.50843	5.56
1.52510	5.56
1.54177	5.56
1.55843	5.56
1.57510	5.56
1.59177	5.56
1.60843	5.55
1.62510	5.55
1.64177	5.54
1.65843	5.54
1.67510	5.53
1.69177	5.51
1.70843	5.50
1.72510	5.49
1.74177	5.48
1.75843	5.47
1.77510	5.46
1.79177	5.45
1.80843	5.44
1.82510	5.43
1.84177	5.42
1.85843	5.41
1.87510	5.40
1.89177	5.39
1.90843	5.38
1.92510	5.37
1.94177	5.36
1.95843	5.35
1.97510	5.34
1.99177	5.33
2.00843	5.32
2.02510	5.31
2.04177	5.30
2.05843	5.29
2.07510	5.28
2.09177	5.27
2.10843	5.27
2.12510	5.26
2.14177	5.25
2.15843	5.24
2.17510	5.23
2.19177	5.22
2.20843	5.21
2.22510	5.20
2.24177	5.19
2.25843	5.18
2.27510	5.17
2.29177	5.16
2.30843	5.15
2.32510	5.14
2.34177	5.13
2.35843	5.13
2.37510	5.12
2.39177	5.12
2.40843	5.12
2.42510	5.12
2.44177	5.12
2.45843	5.12
2.47510	5.12
2.49177	5.12
2.50843	5.12
2.52510	5.12
2.54177	5.12
2.55843	5.12
2.57510	5.12
2.59177	5.12
2.60843	5.12
2.62510	5.12
2.64177	5.11
2.65843	5.11
2.67510	5.11
2.69177	5.11
2.70843	5.11
2.72510	5.11
2.74177	5.11
2.75843	5.11
2.77510	5.11
2.79177	5.11
2.80843	5.11
2.82510	5.11
2.84177	5.11
2.85843	5.11
2.87510	5.11
2.89177	5.11
2.90843	5.11
2.92510	5.11
2.94177	5.11
2.95843	5.11
2.97510	5.11
2.99177	5.11
3.00843	5.11
3.02510	5.11
3.04177	5.11
3.05843	5.11
3.07510	5.11
3.09177	5.11
3.10843	5.11
3.12510	5.11
3.14177	5.11
3.15843	5.11
3.17510	5.11
3.19177	5.11
3.20843	5.11
3.22510	5.11
3.24177	5.11
3.25843	5.11
3.27510	5.11
3.29177	5.11
3.30843	5.11
3.32510	5.11
3.34177	5.11
3.35843	5.11
3.37510	5.11
3.39177	5.11
3.40843	5.11
3.42510	5.11
3.44177	5.11
3.45843	5.11
3.47510	5.11
3.49177	5.11
3.50843	5.11
3.52510	5.11
3.54177	5.11
3.55843	5.11
3.57510	5.11
3.59177	5.11
3.60843	5.11
3.62510	5.11
3.64177	5.11
3.65843	5.11
3.67510	5.11
3.69177	5.11
3.70843	5.11
3.72510	5.11
3.74177	5.11
3.75843	5.11
3.77510	5.11
3.79177	5.11
3.80843	5.11
3.82510	5.11
3.84177	5.11
3.85843	5.11
3.87510	5.11
3.89177	5.11
3.90843	5.11
3.92510	5.11
3.94177	5.11
3.95843	5.11
3.97510	5.11
3.99177	5.11

[Status Trace (Linear Velocity)]
Interval(msec)	1000
# of Points	240
Start Time(min)	0.008
End Time(min)	3.992
Intensity Units	
Intensity Multiplier	1
R.Time (min)	Intensity
0.00843	39.02
0.02510	37.24
0.04177	38.47
0.05843	39.89
0.07510	39.88
0.09177	39.06
0.10843	39.01
0.12510	39.03
0.14177	39.03
0.15843	39.03
0.17510	39.03
0.19177	39.03
0.20843	39.03
0.22510	39.03
0.24177	39.02
0.25843	39.02
0.27510	39.02
0.29177	39.02
0.30843	39.03
0.32510	39.03
0.34177	39.03
0.35843	39.02
0.37510	39.03
0.39177	39.03
0.40843	39.03
0.42510	39.03
0.44177	39.03
0.45843	39.03
0.47510	39.03
0.49177	39.03
0.50843	39.03
0.52510	39.03
0.54177	39.03
0.55843	39.03
0.57510	39.03
0.59177	39.03
0.60843	39.03
0.62510	39.02
0.64177	39.03
0.65843	39.03
0.67510	39.03
0.69177	39.03
0.70843	39.03
0.72510	39.03
0.74177	39.03
0.75843	39.03
0.77510	39.03
0.79177	39.03
0.80843	39.03
0.82510	39.03
0.84177	39.03
0.85843	39.03
0.87510	39.03
0.89177	39.02
0.90843	39.03
0.92510	39.03
0.94177	39.02
0.95843	39.03
0.97510	39.03
0.99177	39.03
1.00843	39.03
1.02510	39.03
1.04177	39.03
1.05843	39.03
1.07510	39.03
1.09177	39.03
1.10843	39.03
1.12510	39.03
1.14177	39.03
1.15843	39.02
1.17510	39.02
1.19177	39.02
1.20843	39.03
1.22510	39.03
1.24177	39.03
1.25843	39.03
1.27510	39.03
1.29177	39.03
1.30843	39.03
1.32510	39.03
1.34177	39.03
1.35843	39.03
1.37510	39.03
1.39177	39.02
1.40843	39.02
1.42510	39.02
1.44177	39.02
1.45843	39.02
1.47510	39.03
1.49177	39.03
1.50843	39.03
1.52510	39.03
1.54177	39.03
1.55843	39.03
1.57510	39.03
1.59177	39.03
1.60843	39.02
1.62510	39.01
1.64177	38.99
1.65843	38.97
1.67510	38.94
1.69177	38.90
1.70843	38.86
1.72510	38.83
1.74177	38.80
1.75843	38.77
1.77510	38.74
1.79177	38.71
1.80843	38.67
1.82510	38.64
1.84177	38.61
1.85843	38.58
1.87510	38.55
1.89177	38.52
1.90843	38.49
1.92510	38.46
1.94177	38.43
1.95843	38.40
1.97510	38.37
1.99177	38.34
2.00843	38.31
2.02510	38.28
2.04177	38.25
2.05843	38.22
2.07510	38.19
2.09177	38.16
2.10843	38.13
2.12510	38.10
2.14177	38.07
2.15843	38.04
2.17510	38.01
2.19177	37.98
2.20843	37.95
2.22510	37.92
2.24177	37.89
2.25843	37.86
2.27510	37.83
2.29177	37.80
2.30843	37.77
2.32510	37.74
2.34177	37.72
2.35843	37.69
2.37510	37.67
2.39177	37.66
2.40843	37.66
2.42510	37.67
2.44177	37.67
2.45843	37.66
2.47510	37.66
2.49177	37.66
2.50843	37.66
2.52510	37.65
2.54177	37.66
2.55843	37.66
2.57510	37.66
2.59177	37.66
2.60843	37.66
2.62510	37.66
2.64177	37.65
2.65843	37.66
2.67510	37.65
2.69177	37.65
2.70843	37.65
2.72510	37.65
2.74177	37.65
2.75843	37.65
2.77510	37.65
2.79177	37.65
2.80843	37.65
2.82510	37.65
2.84177	37.65
2.85843	37.65
2.87510	37.65
2.89177	37.65
2.90843	37.65
2.92510	37.64
2.94177	37.64
2.95843	37.64
2.97510	37.64
2.99177	37.64
3.00843	37.64
3.02510	37.64
3.04177	37.64
3.05843	37.64
3.07510	37.64
3.09177	37.64
3.10843	37.64
3.12510	37.64
3.14177	37.64
3.15843	37.64
3.17510	37.64
3.19177	37.64
3.20843	37.64
3.22510	37.64
3.24177	37.63
3.25843	37.63
3.27510	37.63
3.29177	37.63
3.30843	37.63
3.32510	37.63
3.34177	37.63
3.35843	37.63
3.37510	37.63
3.39177	37.63
3.40843	37.63
3.42510	37.63
3.44177	37.63
3.45843	37.63
3.47510	37.63
3.49177	37.63
3.50843	37.63
3.52510	37.63
3.54177	37.63
3.55843	37.63
3.57510	37.63
3.59177	37.63
3.60843	37.63
3.62510	37.63
3.64177	37.63
3.65843	37.63
3.67510	37.63
3.69177	37.63
3.70843	37.63
3.72510	37.63
3.74177	37.63
3.75843	37.63
3.77510	37.63
3.79177	37.63
3.80843	37.63
3.82510	37.63
3.84177	37.63
3.85843	37.63
3.87510	37.63
3.89177	37.63
3.90843	37.63
3.92510	37.63
3.94177	37.63
3.95843	37.64
3.97510	37.63
3.99177	37.63

