[Header]
Application Name	LabSolutions
Version	5.110
Data File Name	C:\Users\User\Desktop\GC Analyses\Jack\UIC Prairie Sampling\11.2.22\221102_065.gcd
Output Date	3/20/2023
Output Time	1:25:40 PM

[File Information]
Type	Data File
Generated	1/3/2023 11:10:30 AM
Generated by	System Administrator
Modified	1/3/2023 11:14:59 AM
Modified by	System Administrator

[Sample Information]
Operator Name	System Administrator
Acquired	1/3/2023 11:10:58 AM
Sample Type	1:Standard
Level	1
Sample Name	221102_UICPrairie
Sample ID	221102_UICPrairie
ISTD Amount1	1
ISTD Amount2	1
ISTD Amount3	1
ISTD Amount4	1
ISTD Amount5	1
ISTD Amount6	1
ISTD Amount7	1
ISTD Amount8	1
ISTD Amount9	1
ISTD Amount10	1
ISTD Amount11	1
ISTD Amount12	1
ISTD Amount13	1
ISTD Amount14	1
ISTD Amount15	1
ISTD Amount16	1
ISTD Amount17	1
ISTD Amount18	1
ISTD Amount19	1
ISTD Amount20	1
ISTD Amount21	1
ISTD Amount22	1
ISTD Amount23	1
ISTD Amount24	1
ISTD Amount25	1
ISTD Amount26	1
ISTD Amount27	1
ISTD Amount28	1
ISTD Amount29	1
ISTD Amount30	1
ISTD Amount31	1
ISTD Amount32	1
Sample Amount	1
Dilution Factor	1
Vial#	1
Injection Volume	1
Injection Count	1
Bar Code	

[Original Files]
Data File	C:\Users\User\Desktop\GC Analyses\Jack\UIC Prairie Sampling\11.2.22\221102_065.gcd
Method File	C:\LabSolutions\Data\GHG_4min_2022\ghg3_togas_w_acet_4 min_new_int.gcm
Batch File	
Report Format File	c:\LabSolutions\System\DEFAULT.lsr

[File Description]


[Configuration]
Instrument Name	C0B7VH3-Instrument1
Instrument #	1
Line #	1
# of Detectors	3
Detector ID	DET#1	DET#2	DET#3
Detector Name	FID	PTCD	ECD
# of Channels	1	1	1

[Peak Table(Ch1)]
# of Peaks	3
Peak#	R.Time	I.Time	F.Time	Area	Height	A/H	Conc.	Mark	ID#	Name	k'	Plate #	Plate Ht.	Tailing	Resolution	Sep.Factor	Area Ratio	Height Ratio	Conc. %	Norm Conc.
1	1.465	1.439	1.531	2888	943	3.061	100.000	   	1	CO	0.000	5542	27.067	0.000	0.000	0.000	0	0	16.667	16.667
2	1.571	1.531	1.666	20433	10327	1.979	100.000	 V 	2	CH4	0.073	11732	12.786	1.135	1.556	0.000	0	0	16.667	16.667
3	2.000	1.952	2.627	2064600	973745	2.120	400.000	   	3	CO2	0.365	17562	8.541	1.221	7.248	5.034	0	0	66.667	66.667

[Peak Table(Ch2)]
# of Peaks	0

[Peak Table(Ch3)]
# of Peaks	5
Peak#	R.Time	I.Time	F.Time	Area	Height	A/H	Conc.	Mark	ID#	Name	k'	Plate #	Plate Ht.	Tailing	Resolution	Sep.Factor	Area Ratio	Height Ratio	Conc. %	Norm Conc.
1	2.458	2.297	2.506	1859	387	4.807	0.000	   			0.000	7817	19.188	0.000	0.000	0.000	0	0	0.000	0.000
2	2.524	2.506	2.565	681	224	3.041	0.000	 V 			0.027	1521	98.615	0.000	0.357	0.000	0	0	0.000	0.000
3	2.609	2.565	2.649	726	203	3.581	0.000	 V 			0.061	1177	127.455	0.000	0.300	2.278	0	0	0.000	0.000
4	2.884	2.667	3.965	77893	16205	4.807	1.000	S  	1	N2O	0.173	12944	11.588	1.789	1.356	2.829	0	0	50.000	50.000
5	3.250	3.159	3.489	594	64	9.224	1.000	T  	2	SF6	0.322	3675	40.816	1.880	2.322	1.862	0	0	50.000	50.000

[Compound Results(Ch1)]
# of IDs	6
ID#	Name	R.Time	Area	Height	Conc.	Curve	3rd	2nd	1st	Constant	Area Ratio	Height Ratio	Conc. %	Norm Conc.
1	CO	1.465	2888	943	100.000	Linear	0.000000e+00	0.000000e+00	2.888004e+001	0.000000e+00	0	0	16.667	16.667
2	CH4	1.571	20433	10327	100.000	Linear	0.000000e+00	0.000000e+00	2.043253e+002	0.000000e+00	0	0	16.667	16.667
3	CO2	2.000	2064600	973745	400.000	Linear	0.000000e+00	0.000000e+00	5.161501e+003	0.000000e+00	0	0	66.667	66.667
4	Ethylene	0.000	0	0	0.000	Linear	0.000000e+00	0.000000e+00	0.000000e+00	0.000000e+00	0	0	0.000	0.000
5	Acetylene	0.000	0	0	0.000	Linear	0.000000e+00	0.000000e+00	0.000000e+00	0.000000e+00	0	0	0.000	0.000
6	Ethane	0.000	0	0	0.000	Linear	0.000000e+00	0.000000e+00	0.000000e+00	0.000000e+00	0	0	0.000	0.000

[Compound Results(Ch2)]
# of IDs	5
ID#	Name	R.Time	Area	Height	Conc.	Curve	3rd	2nd	1st	Constant	Area Ratio	Height Ratio	Conc. %	Norm Conc.
1	Hydrogen	0.000	0	0	0.000	Linear	0.000000e+00	0.000000e+00	0.000000e+00	0.000000e+00	0	0	0.000	0.000
2	Oxygen	0.000	0	0	0.000	Linear	0.000000e+00	0.000000e+00	0.000000e+00	0.000000e+00	0	0	0.000	0.000
3	Nitrogen	0.000	0	0	0.000	Linear	0.000000e+00	0.000000e+00	0.000000e+00	0.000000e+00	0	0	0.000	0.000
4	Methane	0.000	0	0	0.000	Linear	0.000000e+00	0.000000e+00	0.000000e+00	0.000000e+00	0	0	0.000	0.000
5	Carbon Monoxide	0.000	0	0	0.000	Linear	0.000000e+00	0.000000e+00	0.000000e+00	0.000000e+00	0	0	0.000	0.000

[Compound Results(Ch3)]
# of IDs	2
ID#	Name	R.Time	Area	Height	Conc.	Curve	3rd	2nd	1st	Constant	Area Ratio	Height Ratio	Conc. %	Norm Conc.
1	N2O	2.884	77893	16205	1.000	Linear	0.000000e+00	0.000000e+00	7.789311e+004	0.000000e+00	0	0	50.000	50.000
2	SF6	3.250	594	64	1.000	Linear	0.000000e+00	0.000000e+00	5.944191e+002	0.000000e+00	0	0	50.000	50.000

[Group Results(Ch1)]
# of Groups	0

[Group Results(Ch2)]
# of Groups	0

[Group Results(Ch3)]
# of Groups	0

[Chromatogram (Ch1)]
Interval(msec)	220
# of Points	1091
Start Time(min)	0.002
End Time(min)	3.998
R.Time (min)	Intensity
0.00167	9
0.00533	10
0.00900	7
0.01267	-0
0.01633	-9
0.02000	-15
0.02367	-16
0.02733	-15
0.03100	-14
0.03467	-15
0.03833	-20
0.04200	-22
0.04567	-22
0.04933	-20
0.05300	-18
0.05667	-18
0.06033	-18
0.06400	-14
0.06767	-10
0.07133	-8
0.07500	-8
0.07867	-8
0.08233	-8
0.08600	-12
0.08967	-14
0.09333	-12
0.09700	-8
0.10067	-8
0.10433	-11
0.10800	-17
0.11167	-21
0.11533	-24
0.11900	-26
0.12267	-31
0.12633	-37
0.13000	-42
0.13367	-42
0.13733	-41
0.14100	-39
0.14467	-34
0.14833	-27
0.15200	-22
0.15567	-19
0.15933	-19
0.16300	-21
0.16667	-25
0.17033	-29
0.17400	-33
0.17767	-39
0.18133	-42
0.18500	-41
0.18867	-41
0.19233	-43
0.19600	-46
0.19967	-47
0.20333	-47
0.20700	-46
0.21067	-45
0.21433	-44
0.21800	-39
0.22167	-32
0.22533	-26
0.22900	-20
0.23267	-19
0.23633	-23
0.24000	-29
0.24367	-35
0.24733	-40
0.25100	-43
0.25467	-44
0.25833	-44
0.26200	-42
0.26567	-39
0.26933	-38
0.27300	-40
0.27667	-43
0.28033	-45
0.28400	-47
0.28767	-48
0.29133	-49
0.29500	-51
0.29867	-52
0.30233	-52
0.30600	-48
0.30967	-44
0.31333	-39
0.31700	-34
0.32067	-32
0.32433	-33
0.32800	-34
0.33167	-34
0.33533	-36
0.33900	-39
0.34267	-44
0.34633	-49
0.35000	-55
0.35367	-60
0.35733	-64
0.36100	-61
0.36467	-54
0.36833	-48
0.37200	-42
0.37567	-39
0.37933	-36
0.38300	-38
0.38667	-44
0.39033	-51
0.39400	-55
0.39767	-56
0.40133	-55
0.40500	-52
0.40867	-49
0.41233	-48
0.41600	-49
0.41967	-51
0.42333	-55
0.42700	-59
0.43067	-63
0.43433	-65
0.43800	-64
0.44167	-58
0.44533	-51
0.44900	-46
0.45267	-43
0.45633	-44
0.46000	-48
0.46367	-54
0.46733	-59
0.47100	-65
0.47467	-68
0.47833	-69
0.48200	-66
0.48567	-64
0.48933	-63
0.49300	-63
0.49667	-66
0.50033	-71
0.50400	-79
0.50767	-83
0.51133	-84
0.51500	-82
0.51867	-78
0.52233	-74
0.52600	-72
0.52967	-77
0.53333	-80
0.53700	-79
0.54067	-75
0.54433	-68
0.54800	-64
0.55167	-62
0.55533	-60
0.55900	-63
0.56267	-68
0.56633	-74
0.57000	-74
0.57367	-69
0.57733	-65
0.58100	-64
0.58467	-67
0.58833	-72
0.59200	-77
0.59567	-81
0.59933	-83
0.60300	-85
0.60667	-87
0.61033	-89
0.61400	-89
0.61767	-87
0.62133	-84
0.62500	-79
0.62867	-73
0.63233	-74
0.63600	-75
0.63967	-75
0.64333	-71
0.64700	-68
0.65067	-68
0.65433	-74
0.65800	-84
0.66167	-96
0.66533	-103
0.66900	-100
0.67267	-95
0.67633	-92
0.68000	-91
0.68367	-90
0.68733	-90
0.69100	-89
0.69467	-86
0.69833	-84
0.70200	-85
0.70567	-87
0.70933	-87
0.71300	-84
0.71667	-79
0.72033	-78
0.72400	-77
0.72767	-77
0.73133	-79
0.73500	-81
0.73867	-83
0.74233	-83
0.74600	-82
0.74967	-83
0.75333	-86
0.75700	-89
0.76067	-89
0.76433	-89
0.76800	-88
0.77167	-89
0.77533	-90
0.77900	-89
0.78267	-86
0.78633	-84
0.79000	-82
0.79367	-84
0.79733	-91
0.80100	-100
0.80467	-108
0.80833	-113
0.81200	-117
0.81567	-119
0.81933	-119
0.82300	-118
0.82667	-115
0.83033	-108
0.83400	-102
0.83767	-99
0.84133	-95
0.84500	-94
0.84867	-94
0.85233	-94
0.85600	-98
0.85967	-102
0.86333	-106
0.86700	-109
0.87067	-110
0.87433	-109
0.87800	-105
0.88167	-99
0.88533	-96
0.88900	-93
0.89267	-92
0.89633	-91
0.90000	-92
0.90367	-95
0.90733	-97
0.91100	-97
0.91467	-97
0.91833	-99
0.92200	-104
0.92567	-111
0.92933	-117
0.93300	-119
0.93667	-120
0.94033	-118
0.94400	-116
0.94767	-115
0.95133	-116
0.95500	-118
0.95867	-119
0.96233	-118
0.96600	-117
0.96967	-118
0.97333	-118
0.97700	-117
0.98067	-116
0.98433	-115
0.98800	-116
0.99167	-120
0.99533	-121
0.99900	-120
1.00267	-120
1.00633	-119
1.01000	-115
1.01367	-112
1.01733	-111
1.02100	-114
1.02467	-121
1.02833	-126
1.03200	-128
1.03567	-128
1.03933	-129
1.04300	-131
1.04667	-133
1.05033	-133
1.05400	-129
1.05767	-125
1.06133	-122
1.06500	-121
1.06867	-119
1.07233	-114
1.07600	-108
1.07967	-105
1.08333	-107
1.08700	-111
1.09067	-117
1.09433	-120
1.09800	-121
1.10167	-120
1.10533	-117
1.10900	-115
1.11267	-117
1.11633	-122
1.12000	-129
1.12367	-135
1.12733	-138
1.13100	-138
1.13467	-139
1.13833	-140
1.14200	-143
1.14567	-144
1.14933	-141
1.15300	-134
1.15667	-129
1.16033	-126
1.16400	-126
1.16767	-127
1.17133	-129
1.17500	-128
1.17867	-128
1.18233	-131
1.18600	-134
1.18967	-136
1.19333	-137
1.19700	-138
1.20067	-139
1.20433	-138
1.20800	-136
1.21167	-135
1.21533	-135
1.21900	-135
1.22267	-136
1.22633	-137
1.23000	-136
1.23367	-133
1.23733	-132
1.24100	-135
1.24467	-139
1.24833	-141
1.25200	-142
1.25567	-141
1.25933	-141
1.26300	-143
1.26667	-146
1.27033	-147
1.27400	-146
1.27767	-142
1.28133	-138
1.28500	-134
1.28867	-134
1.29233	-140
1.29600	-149
1.29967	-157
1.30333	-163
1.30700	-163
1.31067	-160
1.31433	-152
1.31800	-144
1.32167	-144
1.32533	-148
1.32900	-152
1.33267	-153
1.33633	-154
1.34000	-156
1.34367	-160
1.34733	-165
1.35100	-168
1.35467	-169
1.35833	-167
1.36200	-163
1.36567	-158
1.36933	-156
1.37300	-155
1.37667	-156
1.38033	-156
1.38400	-154
1.38767	-148
1.39133	-140
1.39500	-135
1.39867	-133
1.40233	-135
1.40600	-139
1.40967	-145
1.41333	-150
1.41700	-158
1.42067	-163
1.42433	-166
1.42800	-167
1.43167	-166
1.43533	-164
1.43900	-152
1.44267	-83
1.44633	94
1.45000	335
1.45367	552
1.45733	698
1.46100	771
1.46467	791
1.46833	783
1.47200	766
1.47567	747
1.47933	728
1.48300	692
1.48667	631
1.49033	546
1.49400	449
1.49767	351
1.50133	261
1.50500	184
1.50867	119
1.51233	66
1.51600	23
1.51967	-10
1.52333	-35
1.52700	-52
1.53067	-63
1.53433	-64
1.53800	-23
1.54167	188
1.54533	845
1.54900	2178
1.55267	4072
1.55633	6117
1.56000	7926
1.56367	9292
1.56733	10089
1.57100	10172
1.57467	9456
1.57833	8081
1.58200	6387
1.58567	4729
1.58933	3324
1.59300	2239
1.59667	1455
1.60033	915
1.60400	553
1.60767	319
1.61133	168
1.61500	70
1.61867	6
1.62233	-35
1.62600	-61
1.62967	-79
1.63333	-91
1.63700	-98
1.64067	-104
1.64433	-113
1.64800	-123
1.65167	-134
1.65533	-143
1.65900	-148
1.66267	-153
1.66633	-158
1.67000	-164
1.67367	-169
1.67733	-169
1.68100	-163
1.68467	-156
1.68833	-152
1.69200	-152
1.69567	-155
1.69933	-158
1.70300	-162
1.70667	-164
1.71033	-166
1.71400	-165
1.71767	-159
1.72133	-151
1.72500	-146
1.72867	-147
1.73233	-153
1.73600	-161
1.73967	-167
1.74333	-169
1.74700	-169
1.75067	-167
1.75433	-166
1.75800	-163
1.76167	-164
1.76533	-167
1.76900	-170
1.77267	-173
1.77633	-177
1.78000	-180
1.78367	-180
1.78733	-176
1.79100	-171
1.79467	-167
1.79833	-161
1.80200	-156
1.80567	-155
1.80933	-159
1.81300	-165
1.81667	-164
1.82033	-159
1.82400	-154
1.82767	-150
1.83133	-147
1.83500	-148
1.83867	-147
1.84233	-146
1.84600	-148
1.84967	-152
1.85333	-156
1.85700	-157
1.86067	-156
1.86433	-154
1.86800	-153
1.87167	-151
1.87533	-149
1.87900	-150
1.88267	-155
1.88633	-161
1.89000	-164
1.89367	-162
1.89733	-160
1.90100	-159
1.90467	-157
1.90833	-154
1.91200	-148
1.91567	-141
1.91933	-139
1.92300	-142
1.92667	-148
1.93033	-152
1.93400	-151
1.93767	-148
1.94133	-140
1.94500	-133
1.94867	-130
1.95233	-125
1.95600	-64
1.95967	355
1.96333	2546
1.96700	11297
1.97067	37907
1.97433	100238
1.97800	213613
1.98167	376015
1.98533	563697
1.98900	742688
1.99267	882853
1.99633	963204
2.00000	973659
2.00367	916477
2.00733	806554
2.01100	667386
2.01467	523391
2.01833	393020
2.02200	285868
2.02567	203767
2.02933	143897
2.03300	101675
2.03667	72516
2.04033	52598
2.04400	39035
2.04767	29760
2.05133	23353
2.05500	18852
2.05867	15624
2.06233	13252
2.06600	11465
2.06967	10084
2.07333	8995
2.07700	8117
2.08067	7393
2.08433	6780
2.08800	6254
2.09167	5798
2.09533	5400
2.09900	5053
2.10267	4749
2.10633	4481
2.11000	4241
2.11367	4021
2.11733	3816
2.12100	3625
2.12467	3450
2.12833	3288
2.13200	3144
2.13567	3014
2.13933	2896
2.14300	2785
2.14667	2681
2.15033	2582
2.15400	2491
2.15767	2407
2.16133	2326
2.16500	2250
2.16867	2179
2.17233	2106
2.17600	2036
2.17967	1967
2.18333	1899
2.18700	1842
2.19067	1795
2.19433	1751
2.19800	1708
2.20167	1665
2.20533	1622
2.20900	1579
2.21267	1535
2.21633	1491
2.22000	1447
2.22367	1404
2.22733	1363
2.23100	1326
2.23467	1294
2.23833	1267
2.24200	1242
2.24567	1218
2.24933	1192
2.25300	1166
2.25667	1140
2.26033	1117
2.26400	1096
2.26767	1075
2.27133	1053
2.27500	1031
2.27867	1010
2.28233	989
2.28600	969
2.28967	951
2.29333	937
2.29700	926
2.30067	919
2.30433	908
2.30800	892
2.31167	872
2.31533	856
2.31900	846
2.32267	836
2.32633	824
2.33000	813
2.33367	803
2.33733	793
2.34100	785
2.34467	775
2.34833	763
2.35200	748
2.35567	732
2.35933	716
2.36300	702
2.36667	692
2.37033	685
2.37400	679
2.37767	675
2.38133	674
2.38500	676
2.38867	681
2.39233	684
2.39600	683
2.39967	675
2.40333	661
2.40700	645
2.41067	629
2.41433	617
2.41800	612
2.42167	614
2.42533	616
2.42900	616
2.43267	610
2.43633	603
2.44000	598
2.44367	592
2.44733	583
2.45100	571
2.45467	562
2.45833	558
2.46200	558
2.46567	554
2.46933	544
2.47300	532
2.47667	521
2.48033	516
2.48400	514
2.48767	514
2.49133	515
2.49500	513
2.49867	511
2.50233	512
2.50600	513
2.50967	508
2.51333	500
2.51700	490
2.52067	483
2.52433	481
2.52800	482
2.53167	483
2.53533	483
2.53900	485
2.54267	486
2.54633	479
2.55000	471
2.55367	465
2.55733	460
2.56100	456
2.56467	449
2.56833	441
2.57200	437
2.57567	438
2.57933	439
2.58300	441
2.58667	445
2.59033	450
2.59400	450
2.59767	444
2.60133	432
2.60500	424
2.60867	423
2.61233	427
2.61600	429
2.61967	427
2.62333	423
2.62700	420
2.63067	422
2.63433	425
2.63800	428
2.64167	432
2.64533	434
2.64900	433
2.65267	429
2.65633	422
2.66000	415
2.66367	411
2.66733	411
2.67100	412
2.67467	411
2.67833	409
2.68200	406
2.68567	407
2.68933	408
2.69300	407
2.69667	404
2.70033	399
2.70400	394
2.70767	389
2.71133	385
2.71500	386
2.71867	390
2.72233	396
2.72600	399
2.72967	398
2.73333	395
2.73700	396
2.74067	398
2.74433	399
2.74800	397
2.75167	394
2.75533	391
2.75900	391
2.76267	394
2.76633	400
2.77000	407
2.77367	412
2.77733	413
2.78100	413
2.78467	411
2.78833	406
2.79200	399
2.79567	392
2.79933	388
2.80300	385
2.80667	386
2.81033	387
2.81400	386
2.81767	383
2.82133	379
2.82500	374
2.82867	372
2.83233	373
2.83600	373
2.83967	376
2.84333	382
2.84700	387
2.85067	391
2.85433	394
2.85800	397
2.86167	399
2.86533	398
2.86900	396
2.87267	395
2.87633	395
2.88000	394
2.88367	390
2.88733	382
2.89100	375
2.89467	372
2.89833	371
2.90200	369
2.90567	365
2.90933	363
2.91300	363
2.91667	364
2.92033	365
2.92400	365
2.92767	368
2.93133	369
2.93500	368
2.93867	368
2.94233	367
2.94600	366
2.94967	365
2.95333	363
2.95700	358
2.96067	352
2.96433	345
2.96800	338
2.97167	332
2.97533	331
2.97900	334
2.98267	339
2.98633	346
2.99000	348
2.99367	349
2.99733	353
3.00100	358
3.00467	363
3.00833	368
3.01200	370
3.01567	369
3.01933	366
3.02300	363
3.02667	363
3.03033	364
3.03400	365
3.03767	362
3.04133	358
3.04500	354
3.04867	352
3.05233	351
3.05600	349
3.05967	345
3.06333	340
3.06700	338
3.07067	341
3.07433	349
3.07800	356
3.08167	358
3.08533	358
3.08900	356
3.09267	354
3.09633	349
3.10000	340
3.10367	331
3.10733	326
3.11100	330
3.11467	335
3.11833	338
3.12200	336
3.12567	334
3.12933	335
3.13300	334
3.13667	332
3.14033	330
3.14400	329
3.14767	330
3.15133	331
3.15500	333
3.15867	338
3.16233	342
3.16600	343
3.16967	342
3.17333	341
3.17700	340
3.18067	338
3.18433	333
3.18800	329
3.19167	327
3.19533	326
3.19900	325
3.20267	326
3.20633	327
3.21000	328
3.21367	327
3.21733	324
3.22100	323
3.22467	324
3.22833	327
3.23200	332
3.23567	336
3.23933	338
3.24300	340
3.24667	343
3.25033	347
3.25400	347
3.25767	344
3.26133	337
3.26500	325
3.26867	309
3.27233	297
3.27600	291
3.27967	294
3.28333	301
3.28700	306
3.29067	308
3.29433	310
3.29800	312
3.30167	314
3.30533	316
3.30900	312
3.31267	307
3.31633	303
3.32000	299
3.32367	298
3.32733	302
3.33100	309
3.33467	315
3.33833	315
3.34200	310
3.34567	301
3.34933	291
3.35300	286
3.35667	286
3.36033	291
3.36400	297
3.36767	305
3.37133	312
3.37500	313
3.37867	307
3.38233	298
3.38600	293
3.38967	292
3.39333	294
3.39700	296
3.40067	296
3.40433	290
3.40800	281
3.41167	273
3.41533	268
3.41900	270
3.42267	273
3.42633	276
3.43000	281
3.43367	285
3.43733	284
3.44100	283
3.44467	282
3.44833	276
3.45200	266
3.45567	255
3.45933	249
3.46300	246
3.46667	241
3.47033	239
3.47400	243
3.47767	251
3.48133	257
3.48500	263
3.48867	267
3.49233	269
3.49600	270
3.49967	272
3.50333	274
3.50700	275
3.51067	272
3.51433	268
3.51800	263
3.52167	259
3.52533	254
3.52900	251
3.53267	250
3.53633	249
3.54000	248
3.54367	251
3.54733	256
3.55100	263
3.55467	268
3.55833	270
3.56200	271
3.56567	268
3.56933	265
3.57300	262
3.57667	258
3.58033	253
3.58400	248
3.58767	232
3.59133	223
3.59500	224
3.59867	228
3.60233	232
3.60600	234
3.60967	234
3.61333	240
3.61700	246
3.62067	253
3.62433	259
3.62800	262
3.63167	264
3.63533	265
3.63900	264
3.64267	259
3.64633	252
3.65000	245
3.65367	236
3.65733	230
3.66100	228
3.66467	225
3.66833	225
3.67200	229
3.67567	236
3.67933	245
3.68300	252
3.68667	255
3.69033	253
3.69400	247
3.69767	238
3.70133	231
3.70500	223
3.70867	216
3.71233	213
3.71600	214
3.71967	218
3.72333	223
3.72700	229
3.73067	231
3.73433	229
3.73800	224
3.74167	220
3.74533	217
3.74900	215
3.75267	213
3.75633	214
3.76000	218
3.76367	221
3.76733	222
3.77100	222
3.77467	220
3.77833	217
3.78200	215
3.78567	215
3.78933	214
3.79300	212
3.79667	214
3.80033	218
3.80400	221
3.80767	225
3.81133	233
3.81500	239
3.81867	240
3.82233	234
3.82600	228
3.82967	223
3.83333	220
3.83700	216
3.84067	214
3.84433	213
3.84800	213
3.85167	212
3.85533	213
3.85900	215
3.86267	215
3.86633	211
3.87000	206
3.87367	199
3.87733	193
3.88100	192
3.88467	194
3.88833	199
3.89200	202
3.89567	203
3.89933	204
3.90300	206
3.90667	210
3.91033	210
3.91400	209
3.91767	209
3.92133	210
3.92500	212
3.92867	213
3.93233	213
3.93600	209
3.93967	202
3.94333	196
3.94700	193
3.95067	191
3.95433	189
3.95800	188
3.96167	188
3.96533	189
3.96900	190
3.97267	190
3.97633	188
3.98000	186
3.98367	186
3.98733	189
3.99100	192
3.99467	192
3.99833	191

[Chromatogram (Ch2)]
Interval(msec)	220
# of Points	1091
Start Time(min)	0.002
End Time(min)	3.998
R.Time (min)	Intensity
0.00167	0
0.00533	0
0.00900	-0
0.01267	-0
0.01633	-0
0.02000	-1
0.02367	-1
0.02733	-1
0.03100	-2
0.03467	-2
0.03833	-2
0.04200	-2
0.04567	-2
0.04933	-1
0.05300	-1
0.05667	-1
0.06033	-1
0.06400	-1
0.06767	-0
0.07133	0
0.07500	1
0.07867	1
0.08233	1
0.08600	2
0.08967	2
0.09333	2
0.09700	3
0.10067	3
0.10433	3
0.10800	3
0.11167	3
0.11533	3
0.11900	4
0.12267	3
0.12633	3
0.13000	3
0.13367	3
0.13733	3
0.14100	3
0.14467	3
0.14833	3
0.15200	3
0.15567	3
0.15933	3
0.16300	3
0.16667	3
0.17033	3
0.17400	2
0.17767	2
0.18133	2
0.18500	2
0.18867	2
0.19233	1
0.19600	1
0.19967	1
0.20333	1
0.20700	0
0.21067	0
0.21433	0
0.21800	0
0.22167	-0
0.22533	-0
0.22900	-0
0.23267	-1
0.23633	-1
0.24000	-1
0.24367	-0
0.24733	-0
0.25100	-0
0.25467	-0
0.25833	-0
0.26200	-0
0.26567	-1
0.26933	-0
0.27300	-0
0.27667	-0
0.28033	-0
0.28400	-0
0.28767	-0
0.29133	0
0.29500	0
0.29867	0
0.30233	0
0.30600	0
0.30967	-0
0.31333	-0
0.31700	-0
0.32067	0
0.32433	0
0.32800	0
0.33167	1
0.33533	1
0.33900	1
0.34267	1
0.34633	1
0.35000	1
0.35367	1
0.35733	1
0.36100	2
0.36467	2
0.36833	2
0.37200	2
0.37567	2
0.37933	3
0.38300	3
0.38667	2
0.39033	2
0.39400	2
0.39767	2
0.40133	2
0.40500	2
0.40867	2
0.41233	2
0.41600	2
0.41967	2
0.42333	2
0.42700	2
0.43067	2
0.43433	2
0.43800	2
0.44167	2
0.44533	2
0.44900	1
0.45267	1
0.45633	1
0.46000	1
0.46367	0
0.46733	0
0.47100	0
0.47467	-0
0.47833	-0
0.48200	-0
0.48567	-0
0.48933	-0
0.49300	-0
0.49667	-0
0.50033	-0
0.50400	-0
0.50767	-0
0.51133	-0
0.51500	0
0.51867	0
0.52233	1
0.52600	1
0.52967	1
0.53333	1
0.53700	1
0.54067	1
0.54433	0
0.54800	0
0.55167	0
0.55533	0
0.55900	0
0.56267	0
0.56633	-0
0.57000	-1
0.57367	-1
0.57733	-1
0.58100	-1
0.58467	-1
0.58833	-1
0.59200	-1
0.59567	-1
0.59933	-0
0.60300	-0
0.60667	0
0.61033	-0
0.61400	-0
0.61767	-0
0.62133	-1
0.62500	-1
0.62867	-1
0.63233	-1
0.63600	-1
0.63967	-2
0.64333	-2
0.64700	-2
0.65067	-2
0.65433	-2
0.65800	-1
0.66167	-1
0.66533	-1
0.66900	-1
0.67267	-1
0.67633	-0
0.68000	-0
0.68367	-0
0.68733	-0
0.69100	0
0.69467	-0
0.69833	-0
0.70200	-0
0.70567	-0
0.70933	-0
0.71300	-0
0.71667	-1
0.72033	-1
0.72400	-1
0.72767	-1
0.73133	-1
0.73500	-1
0.73867	-1
0.74233	-1
0.74600	-1
0.74967	-1
0.75333	-1
0.75700	-0
0.76067	-0
0.76433	-0
0.76800	-1
0.77167	-1
0.77533	-1
0.77900	-1
0.78267	-1
0.78633	-0
0.79000	-0
0.79367	-0
0.79733	-0
0.80100	-0
0.80467	-0
0.80833	-0
0.81200	-0
0.81567	-0
0.81933	-1
0.82300	-1
0.82667	-1
0.83033	-1
0.83400	-1
0.83767	-1
0.84133	-1
0.84500	-0
0.84867	-0
0.85233	-0
0.85600	-0
0.85967	-0
0.86333	-0
0.86700	-1
0.87067	-1
0.87433	-1
0.87800	-1
0.88167	-2
0.88533	-2
0.88900	-2
0.89267	-2
0.89633	-2
0.90000	-2
0.90367	-2
0.90733	-1
0.91100	-1
0.91467	-1
0.91833	-1
0.92200	-1
0.92567	-1
0.92933	-1
0.93300	-1
0.93667	-1
0.94033	-1
0.94400	-1
0.94767	-1
0.95133	-1
0.95500	-1
0.95867	-1
0.96233	-1
0.96600	-1
0.96967	-2
0.97333	-2
0.97700	-2
0.98067	-2
0.98433	-3
0.98800	-2
0.99167	-2
0.99533	-2
0.99900	-2
1.00267	-1
1.00633	-1
1.01000	-2
1.01367	-2
1.01733	-2
1.02100	-2
1.02467	-2
1.02833	-2
1.03200	-1
1.03567	-1
1.03933	-1
1.04300	-1
1.04667	-1
1.05033	-1
1.05400	-0
1.05767	-0
1.06133	-0
1.06500	-0
1.06867	-0
1.07233	-0
1.07600	-0
1.07967	-1
1.08333	-1
1.08700	-1
1.09067	-2
1.09433	-2
1.09800	-2
1.10167	-2
1.10533	-2
1.10900	-2
1.11267	-2
1.11633	-2
1.12000	-2
1.12367	-2
1.12733	-2
1.13100	-2
1.13467	-2
1.13833	-2
1.14200	-2
1.14567	-2
1.14933	-2
1.15300	-2
1.15667	-2
1.16033	-2
1.16400	-1
1.16767	-1
1.17133	-1
1.17500	-1
1.17867	-1
1.18233	-1
1.18600	-1
1.18967	-1
1.19333	-0
1.19700	-0
1.20067	-0
1.20433	-0
1.20800	-0
1.21167	-0
1.21533	-1
1.21900	-1
1.22267	-1
1.22633	-1
1.23000	-1
1.23367	-1
1.23733	-1
1.24100	-1
1.24467	-1
1.24833	-1
1.25200	-1
1.25567	-1
1.25933	-1
1.26300	-2
1.26667	-2
1.27033	-2
1.27400	-2
1.27767	-2
1.28133	-2
1.28500	-2
1.28867	-2
1.29233	-2
1.29600	-1
1.29967	-1
1.30333	-1
1.30700	-1
1.31067	-1
1.31433	-1
1.31800	-1
1.32167	-1
1.32533	-2
1.32900	-2
1.33267	-2
1.33633	-2
1.34000	-2
1.34367	-1
1.34733	-1
1.35100	-1
1.35467	-1
1.35833	-1
1.36200	-2
1.36567	-2
1.36933	-2
1.37300	-2
1.37667	-2
1.38033	-2
1.38400	-2
1.38767	-1
1.39133	-1
1.39500	-2
1.39867	-2
1.40233	-2
1.40600	-2
1.40967	-2
1.41333	-2
1.41700	-2
1.42067	-2
1.42433	-2
1.42800	-2
1.43167	-2
1.43533	-2
1.43900	-2
1.44267	-2
1.44633	-2
1.45000	-2
1.45367	-2
1.45733	-2
1.46100	-2
1.46467	-2
1.46833	-2
1.47200	-2
1.47567	-2
1.47933	-2
1.48300	-2
1.48667	-2
1.49033	-2
1.49400	-2
1.49767	-2
1.50133	-2
1.50500	-2
1.50867	-2
1.51233	-2
1.51600	-2
1.51967	-2
1.52333	-2
1.52700	-2
1.53067	-3
1.53433	-3
1.53800	-3
1.54167	-4
1.54533	-4
1.54900	-4
1.55267	-4
1.55633	-4
1.56000	-4
1.56367	-5
1.56733	-5
1.57100	-5
1.57467	-5
1.57833	-5
1.58200	-5
1.58567	-5
1.58933	-5
1.59300	-5
1.59667	-6
1.60033	-6
1.60400	-6
1.60767	-7
1.61133	-8
1.61500	-9
1.61867	-11
1.62233	-13
1.62600	-16
1.62967	-18
1.63333	-21
1.63700	-24
1.64067	-27
1.64433	-30
1.64800	-34
1.65167	-37
1.65533	-41
1.65900	-44
1.66267	-47
1.66633	-51
1.67000	-56
1.67367	-60
1.67733	-65
1.68100	-70
1.68467	-75
1.68833	-80
1.69200	-84
1.69567	-88
1.69933	-91
1.70300	-94
1.70667	-97
1.71033	-100
1.71400	-101
1.71767	-103
1.72133	-104
1.72500	-105
1.72867	-106
1.73233	-107
1.73600	-108
1.73967	-108
1.74333	-109
1.74700	-109
1.75067	-110
1.75433	-110
1.75800	-111
1.76167	-111
1.76533	-112
1.76900	-112
1.77267	-112
1.77633	-112
1.78000	-112
1.78367	-112
1.78733	-112
1.79100	-112
1.79467	-113
1.79833	-113
1.80200	-113
1.80567	-114
1.80933	-114
1.81300	-114
1.81667	-114
1.82033	-114
1.82400	-114
1.82767	-114
1.83133	-114
1.83500	-114
1.83867	-115
1.84233	-115
1.84600	-115
1.84967	-114
1.85333	-114
1.85700	-114
1.86067	-114
1.86433	-114
1.86800	-114
1.87167	-113
1.87533	-113
1.87900	-113
1.88267	-113
1.88633	-113
1.89000	-113
1.89367	-113
1.89733	-113
1.90100	-113
1.90467	-113
1.90833	-112
1.91200	-112
1.91567	-111
1.91933	-111
1.92300	-110
1.92667	-110
1.93033	-109
1.93400	-109
1.93767	-108
1.94133	-108
1.94500	-108
1.94867	-107
1.95233	-107
1.95600	-107
1.95967	-107
1.96333	-107
1.96700	-107
1.97067	-107
1.97433	-107
1.97800	-107
1.98167	-107
1.98533	-107
1.98900	-107
1.99267	-107
1.99633	-107
2.00000	-108
2.00367	-109
2.00733	-109
2.01100	-109
2.01467	-108
2.01833	-108
2.02200	-108
2.02567	-107
2.02933	-107
2.03300	-107
2.03667	-106
2.04033	-106
2.04400	-106
2.04767	-106
2.05133	-106
2.05500	-105
2.05867	-105
2.06233	-105
2.06600	-104
2.06967	-104
2.07333	-104
2.07700	-104
2.08067	-103
2.08433	-102
2.08800	-102
2.09167	-101
2.09533	-100
2.09900	-100
2.10267	-100
2.10633	-100
2.11000	-100
2.11367	-100
2.11733	-100
2.12100	-100
2.12467	-99
2.12833	-98
2.13200	-97
2.13567	-97
2.13933	-96
2.14300	-96
2.14667	-96
2.15033	-96
2.15400	-96
2.15767	-96
2.16133	-96
2.16500	-96
2.16867	-95
2.17233	-95
2.17600	-94
2.17967	-93
2.18333	-93
2.18700	-93
2.19067	-92
2.19433	-92
2.19800	-92
2.20167	-91
2.20533	-91
2.20900	-92
2.21267	-92
2.21633	-93
2.22000	-94
2.22367	-94
2.22733	-94
2.23100	-94
2.23467	-94
2.23833	-93
2.24200	-92
2.24567	-91
2.24933	-91
2.25300	-90
2.25667	-90
2.26033	-89
2.26400	-88
2.26767	-87
2.27133	-87
2.27500	-86
2.27867	-86
2.28233	-86
2.28600	-85
2.28967	-85
2.29333	-85
2.29700	-84
2.30067	-84
2.30433	-84
2.30800	-84
2.31167	-84
2.31533	-83
2.31900	-82
2.32267	-82
2.32633	-82
2.33000	-81
2.33367	-81
2.33733	-82
2.34100	-82
2.34467	-83
2.34833	-83
2.35200	-83
2.35567	-82
2.35933	-81
2.36300	-79
2.36667	-77
2.37033	-74
2.37400	-71
2.37767	-68
2.38133	-65
2.38500	-61
2.38867	-57
2.39233	-54
2.39600	-50
2.39967	-46
2.40333	-42
2.40700	-38
2.41067	-35
2.41433	-31
2.41800	-28
2.42167	-26
2.42533	-23
2.42900	-21
2.43267	-19
2.43633	-17
2.44000	-15
2.44367	-13
2.44733	-12
2.45100	-10
2.45467	-8
2.45833	-6
2.46200	-4
2.46567	-3
2.46933	-2
2.47300	-1
2.47667	0
2.48033	1
2.48400	2
2.48767	4
2.49133	5
2.49500	6
2.49867	7
2.50233	7
2.50600	8
2.50967	9
2.51333	9
2.51700	9
2.52067	9
2.52433	9
2.52800	9
2.53167	10
2.53533	10
2.53900	11
2.54267	11
2.54633	12
2.55000	12
2.55367	12
2.55733	13
2.56100	13
2.56467	13
2.56833	14
2.57200	14
2.57567	14
2.57933	15
2.58300	15
2.58667	16
2.59033	17
2.59400	18
2.59767	18
2.60133	19
2.60500	20
2.60867	21
2.61233	21
2.61600	22
2.61967	22
2.62333	22
2.62700	22
2.63067	22
2.63433	22
2.63800	22
2.64167	21
2.64533	21
2.64900	21
2.65267	21
2.65633	21
2.66000	21
2.66367	21
2.66733	21
2.67100	21
2.67467	22
2.67833	22
2.68200	22
2.68567	22
2.68933	22
2.69300	22
2.69667	22
2.70033	22
2.70400	22
2.70767	21
2.71133	21
2.71500	21
2.71867	21
2.72233	22
2.72600	22
2.72967	22
2.73333	23
2.73700	23
2.74067	24
2.74433	24
2.74800	24
2.75167	25
2.75533	25
2.75900	26
2.76267	26
2.76633	27
2.77000	27
2.77367	27
2.77733	27
2.78100	27
2.78467	26
2.78833	26
2.79200	25
2.79567	24
2.79933	24
2.80300	23
2.80667	23
2.81033	23
2.81400	22
2.81767	23
2.82133	23
2.82500	23
2.82867	23
2.83233	23
2.83600	24
2.83967	24
2.84333	24
2.84700	23
2.85067	22
2.85433	20
2.85800	15
2.86167	8
2.86533	-2
2.86900	-17
2.87267	-36
2.87633	-59
2.88000	-88
2.88367	-122
2.88733	-162
2.89100	-206
2.89467	-256
2.89833	-310
2.90200	-369
2.90567	-432
2.90933	-499
2.91300	-569
2.91667	-642
2.92033	-718
2.92400	-797
2.92767	-879
2.93133	-962
2.93500	-1048
2.93867	-1136
2.94233	-1226
2.94600	-1317
2.94967	-1404
2.95333	-1476
2.95700	-1521
2.96067	-1531
2.96433	-1506
2.96800	-1449
2.97167	-1367
2.97533	-1269
2.97900	-1161
2.98267	-1050
2.98633	-940
2.99000	-835
2.99367	-735
2.99733	-644
3.00100	-561
3.00467	-486
3.00833	-420
3.01200	-362
3.01567	-311
3.01933	-266
3.02300	-228
3.02667	-194
3.03033	-165
3.03400	-140
3.03767	-119
3.04133	-100
3.04500	-84
3.04867	-71
3.05233	-59
3.05600	-50
3.05967	-41
3.06333	-34
3.06700	-28
3.07067	-22
3.07433	-18
3.07800	-14
3.08167	-10
3.08533	-7
3.08900	-5
3.09267	-3
3.09633	-1
3.10000	1
3.10367	3
3.10733	4
3.11100	5
3.11467	6
3.11833	7
3.12200	8
3.12567	9
3.12933	10
3.13300	11
3.13667	11
3.14033	12
3.14400	12
3.14767	12
3.15133	13
3.15500	13
3.15867	13
3.16233	14
3.16600	14
3.16967	15
3.17333	15
3.17700	15
3.18067	16
3.18433	16
3.18800	16
3.19167	16
3.19533	16
3.19900	17
3.20267	17
3.20633	17
3.21000	18
3.21367	18
3.21733	18
3.22100	18
3.22467	19
3.22833	19
3.23200	19
3.23567	19
3.23933	19
3.24300	20
3.24667	20
3.25033	20
3.25400	20
3.25767	20
3.26133	20
3.26500	20
3.26867	21
3.27233	21
3.27600	21
3.27967	21
3.28333	21
3.28700	21
3.29067	21
3.29433	21
3.29800	21
3.30167	21
3.30533	22
3.30900	22
3.31267	22
3.31633	22
3.32000	22
3.32367	22
3.32733	22
3.33100	22
3.33467	22
3.33833	22
3.34200	22
3.34567	22
3.34933	22
3.35300	22
3.35667	22
3.36033	22
3.36400	22
3.36767	22
3.37133	22
3.37500	22
3.37867	23
3.38233	23
3.38600	23
3.38967	23
3.39333	23
3.39700	23
3.40067	23
3.40433	23
3.40800	24
3.41167	24
3.41533	24
3.41900	24
3.42267	25
3.42633	25
3.43000	25
3.43367	25
3.43733	25
3.44100	26
3.44467	26
3.44833	26
3.45200	26
3.45567	26
3.45933	26
3.46300	26
3.46667	26
3.47033	26
3.47400	26
3.47767	26
3.48133	26
3.48500	26
3.48867	26
3.49233	26
3.49600	25
3.49967	25
3.50333	25
3.50700	25
3.51067	25
3.51433	26
3.51800	26
3.52167	26
3.52533	26
3.52900	26
3.53267	26
3.53633	26
3.54000	26
3.54367	26
3.54733	26
3.55100	26
3.55467	26
3.55833	26
3.56200	26
3.56567	25
3.56933	25
3.57300	25
3.57667	25
3.58033	25
3.58400	25
3.58767	25
3.59133	25
3.59500	25
3.59867	25
3.60233	25
3.60600	25
3.60967	25
3.61333	25
3.61700	25
3.62067	25
3.62433	25
3.62800	26
3.63167	26
3.63533	26
3.63900	26
3.64267	25
3.64633	25
3.65000	25
3.65367	26
3.65733	26
3.66100	25
3.66467	25
3.66833	25
3.67200	25
3.67567	25
3.67933	25
3.68300	25
3.68667	25
3.69033	25
3.69400	26
3.69767	26
3.70133	26
3.70500	26
3.70867	26
3.71233	26
3.71600	26
3.71967	26
3.72333	26
3.72700	26
3.73067	26
3.73433	26
3.73800	26
3.74167	26
3.74533	25
3.74900	25
3.75267	25
3.75633	25
3.76000	25
3.76367	25
3.76733	25
3.77100	25
3.77467	25
3.77833	25
3.78200	25
3.78567	25
3.78933	25
3.79300	25
3.79667	25
3.80033	25
3.80400	25
3.80767	25
3.81133	25
3.81500	25
3.81867	24
3.82233	24
3.82600	24
3.82967	25
3.83333	25
3.83700	25
3.84067	25
3.84433	25
3.84800	25
3.85167	25
3.85533	25
3.85900	25
3.86267	25
3.86633	25
3.87000	25
3.87367	25
3.87733	25
3.88100	24
3.88467	24
3.88833	24
3.89200	24
3.89567	24
3.89933	24
3.90300	24
3.90667	24
3.91033	24
3.91400	24
3.91767	24
3.92133	24
3.92500	24
3.92867	24
3.93233	25
3.93600	25
3.93967	25
3.94333	25
3.94700	25
3.95067	25
3.95433	25
3.95800	25
3.96167	24
3.96533	24
3.96900	24
3.97267	24
3.97633	24
3.98000	25
3.98367	25
3.98733	25
3.99100	25
3.99467	25
3.99833	25

[Chromatogram (Ch3)]
Interval(msec)	220
# of Points	1091
Start Time(min)	0.002
End Time(min)	3.998
R.Time (min)	Intensity
0.00167	1
0.00533	1
0.00900	3
0.01267	4
0.01633	4
0.02000	3
0.02367	3
0.02733	5
0.03100	4
0.03467	3
0.03833	4
0.04200	6
0.04567	7
0.04933	7
0.05300	8
0.05667	10
0.06033	11
0.06400	10
0.06767	9
0.07133	9
0.07500	9
0.07867	10
0.08233	13
0.08600	10
0.08967	8
0.09333	9
0.09700	11
0.10067	10
0.10433	7
0.10800	6
0.11167	6
0.11533	6
0.11900	8
0.12267	7
0.12633	8
0.13000	9
0.13367	8
0.13733	7
0.14100	6
0.14467	4
0.14833	4
0.15200	6
0.15567	7
0.15933	9
0.16300	9
0.16667	10
0.17033	9
0.17400	9
0.17767	11
0.18133	11
0.18500	9
0.18867	10
0.19233	10
0.19600	10
0.19967	12
0.20333	15
0.20700	16
0.21067	16
0.21433	17
0.21800	18
0.22167	18
0.22533	18
0.22900	20
0.23267	22
0.23633	20
0.24000	19
0.24367	16
0.24733	13
0.25100	13
0.25467	13
0.25833	13
0.26200	14
0.26567	14
0.26933	13
0.27300	11
0.27667	11
0.28033	9
0.28400	9
0.28767	10
0.29133	11
0.29500	12
0.29867	14
0.30233	16
0.30600	16
0.30967	15
0.31333	14
0.31700	13
0.32067	13
0.32433	12
0.32800	15
0.33167	15
0.33533	13
0.33900	13
0.34267	14
0.34633	14
0.35000	14
0.35367	17
0.35733	18
0.36100	18
0.36467	17
0.36833	18
0.37200	20
0.37567	21
0.37933	22
0.38300	22
0.38667	23
0.39033	23
0.39400	23
0.39767	24
0.40133	25
0.40500	24
0.40867	23
0.41233	24
0.41600	25
0.41967	24
0.42333	24
0.42700	24
0.43067	24
0.43433	23
0.43800	23
0.44167	24
0.44533	26
0.44900	28
0.45267	30
0.45633	32
0.46000	32
0.46367	31
0.46733	29
0.47100	28
0.47467	27
0.47833	28
0.48200	28
0.48567	29
0.48933	28
0.49300	28
0.49667	26
0.50033	26
0.50400	25
0.50767	24
0.51133	25
0.51500	28
0.51867	30
0.52233	30
0.52600	29
0.52967	28
0.53333	28
0.53700	29
0.54067	30
0.54433	28
0.54800	24
0.55167	22
0.55533	23
0.55900	23
0.56267	23
0.56633	25
0.57000	28
0.57367	32
0.57733	34
0.58100	34
0.58467	31
0.58833	28
0.59200	28
0.59567	29
0.59933	28
0.60300	26
0.60667	24
0.61033	25
0.61400	27
0.61767	29
0.62133	29
0.62500	26
0.62867	25
0.63233	25
0.63600	26
0.63967	26
0.64333	28
0.64700	31
0.65067	31
0.65433	28
0.65800	24
0.66167	20
0.66533	18
0.66900	17
0.67267	18
0.67633	23
0.68000	26
0.68367	26
0.68733	26
0.69100	27
0.69467	27
0.69833	27
0.70200	25
0.70567	24
0.70933	27
0.71300	29
0.71667	30
0.72033	30
0.72400	28
0.72767	27
0.73133	26
0.73500	28
0.73867	30
0.74233	32
0.74600	30
0.74967	27
0.75333	27
0.75700	29
0.76067	30
0.76433	31
0.76800	32
0.77167	31
0.77533	31
0.77900	29
0.78267	27
0.78633	28
0.79000	30
0.79367	31
0.79733	32
0.80100	32
0.80467	32
0.80833	32
0.81200	32
0.81567	33
0.81933	34
0.82300	31
0.82667	32
0.83033	34
0.83400	37
0.83767	36
0.84133	32
0.84500	30
0.84867	28
0.85233	29
0.85600	30
0.85967	32
0.86333	30
0.86700	29
0.87067	32
0.87433	34
0.87800	36
0.88167	38
0.88533	39
0.88900	39
0.89267	37
0.89633	36
0.90000	35
0.90367	36
0.90733	38
0.91100	36
0.91467	34
0.91833	31
0.92200	29
0.92567	29
0.92933	30
0.93300	29
0.93667	28
0.94033	30
0.94400	29
0.94767	26
0.95133	26
0.95500	27
0.95867	32
0.96233	36
0.96600	36
0.96967	37
0.97333	38
0.97700	38
0.98067	36
0.98433	33
0.98800	30
0.99167	33
0.99533	35
0.99900	36
1.00267	38
1.00633	39
1.01000	41
1.01367	40
1.01733	37
1.02100	36
1.02467	32
1.02833	32
1.03200	35
1.03567	38
1.03933	41
1.04300	40
1.04667	39
1.05033	40
1.05400	36
1.05767	34
1.06133	35
1.06500	36
1.06867	38
1.07233	40
1.07600	42
1.07967	41
1.08333	42
1.08700	43
1.09067	42
1.09433	41
1.09800	40
1.10167	39
1.10533	38
1.10900	39
1.11267	38
1.11633	36
1.12000	33
1.12367	32
1.12733	33
1.13100	36
1.13467	36
1.13833	37
1.14200	37
1.14567	35
1.14933	36
1.15300	38
1.15667	38
1.16033	36
1.16400	35
1.16767	35
1.17133	35
1.17500	35
1.17867	34
1.18233	36
1.18600	36
1.18967	38
1.19333	40
1.19700	40
1.20067	40
1.20433	39
1.20800	39
1.21167	39
1.21533	39
1.21900	37
1.22267	36
1.22633	37
1.23000	37
1.23367	38
1.23733	39
1.24100	39
1.24467	40
1.24833	42
1.25200	41
1.25567	39
1.25933	37
1.26300	37
1.26667	38
1.27033	38
1.27400	39
1.27767	38
1.28133	36
1.28500	34
1.28867	32
1.29233	32
1.29600	34
1.29967	35
1.30333	36
1.30700	36
1.31067	36
1.31433	37
1.31800	36
1.32167	34
1.32533	33
1.32900	33
1.33267	34
1.33633	36
1.34000	38
1.34367	41
1.34733	42
1.35100	41
1.35467	40
1.35833	41
1.36200	42
1.36567	43
1.36933	43
1.37300	39
1.37667	36
1.38033	35
1.38400	35
1.38767	32
1.39133	32
1.39500	33
1.39867	31
1.40233	29
1.40600	31
1.40967	31
1.41333	30
1.41700	30
1.42067	32
1.42433	35
1.42800	36
1.43167	35
1.43533	33
1.43900	34
1.44267	35
1.44633	37
1.45000	36
1.45367	34
1.45733	32
1.46100	33
1.46467	35
1.46833	37
1.47200	35
1.47567	32
1.47933	30
1.48300	31
1.48667	31
1.49033	32
1.49400	32
1.49767	31
1.50133	29
1.50500	30
1.50867	31
1.51233	32
1.51600	31
1.51967	32
1.52333	34
1.52700	33
1.53067	32
1.53433	34
1.53800	36
1.54167	37
1.54533	38
1.54900	39
1.55267	41
1.55633	39
1.56000	35
1.56367	32
1.56733	31
1.57100	31
1.57467	32
1.57833	34
1.58200	35
1.58567	31
1.58933	28
1.59300	28
1.59667	28
1.60033	30
1.60400	33
1.60767	36
1.61133	37
1.61500	37
1.61867	35
1.62233	37
1.62600	37
1.62967	36
1.63333	35
1.63700	36
1.64067	37
1.64433	38
1.64800	36
1.65167	35
1.65533	36
1.65900	38
1.66267	40
1.66633	42
1.67000	44
1.67367	43
1.67733	45
1.68100	45
1.68467	47
1.68833	46
1.69200	47
1.69567	47
1.69933	45
1.70300	45
1.70667	49
1.71033	51
1.71400	48
1.71767	45
1.72133	45
1.72500	46
1.72867	46
1.73233	46
1.73600	47
1.73967	49
1.74333	49
1.74700	47
1.75067	47
1.75433	52
1.75800	55
1.76167	54
1.76533	51
1.76900	53
1.77267	56
1.77633	54
1.78000	53
1.78367	52
1.78733	53
1.79100	53
1.79467	55
1.79833	58
1.80200	57
1.80567	56
1.80933	57
1.81300	61
1.81667	63
1.82033	64
1.82400	65
1.82767	65
1.83133	65
1.83500	65
1.83867	65
1.84233	66
1.84600	65
1.84967	67
1.85333	69
1.85700	70
1.86067	68
1.86433	68
1.86800	68
1.87167	68
1.87533	67
1.87900	67
1.88267	68
1.88633	69
1.89000	70
1.89367	72
1.89733	72
1.90100	75
1.90467	77
1.90833	78
1.91200	80
1.91567	78
1.91933	78
1.92300	78
1.92667	81
1.93033	81
1.93400	81
1.93767	81
1.94133	80
1.94500	82
1.94867	87
1.95233	89
1.95600	88
1.95967	88
1.96333	88
1.96700	91
1.97067	93
1.97433	94
1.97800	96
1.98167	96
1.98533	94
1.98900	95
1.99267	94
1.99633	93
2.00000	94
2.00367	96
2.00733	99
2.01100	98
2.01467	97
2.01833	97
2.02200	100
2.02567	105
2.02933	110
2.03300	113
2.03667	115
2.04033	117
2.04400	116
2.04767	117
2.05133	119
2.05500	120
2.05867	119
2.06233	117
2.06600	117
2.06967	119
2.07333	121
2.07700	123
2.08067	125
2.08433	129
2.08800	131
2.09167	130
2.09533	130
2.09900	131
2.10267	131
2.10633	132
2.11000	132
2.11367	134
2.11733	135
2.12100	136
2.12467	137
2.12833	136
2.13200	136
2.13567	137
2.13933	141
2.14300	147
2.14667	150
2.15033	152
2.15400	152
2.15767	152
2.16133	155
2.16500	157
2.16867	159
2.17233	160
2.17600	160
2.17967	161
2.18333	162
2.18700	163
2.19067	163
2.19433	163
2.19800	163
2.20167	163
2.20533	165
2.20900	168
2.21267	169
2.21633	167
2.22000	167
2.22367	168
2.22733	171
2.23100	176
2.23467	181
2.23833	185
2.24200	189
2.24567	190
2.24933	189
2.25300	189
2.25667	190
2.26033	192
2.26400	194
2.26767	196
2.27133	201
2.27500	204
2.27867	204
2.28233	205
2.28600	204
2.28967	203
2.29333	206
2.29700	207
2.30067	207
2.30433	208
2.30800	213
2.31167	218
2.31533	218
2.31900	216
2.32267	216
2.32633	219
2.33000	221
2.33367	222
2.33733	224
2.34100	226
2.34467	229
2.34833	234
2.35200	236
2.35567	237
2.35933	238
2.36300	238
2.36667	239
2.37033	240
2.37400	242
2.37767	242
2.38133	242
2.38500	241
2.38867	243
2.39233	246
2.39600	248
2.39967	250
2.40333	251
2.40700	254
2.41067	256
2.41433	258
2.41800	257
2.42167	259
2.42533	260
2.42900	263
2.43267	265
2.43633	266
2.44000	267
2.44367	295
2.44733	358
2.45100	422
2.45467	467
2.45833	480
2.46200	471
2.46567	456
2.46933	444
2.47300	433
2.47667	417
2.48033	395
2.48400	371
2.48767	342
2.49133	315
2.49500	293
2.49867	276
2.50233	266
2.50600	261
2.50967	261
2.51333	266
2.51700	269
2.52067	271
2.52433	270
2.52800	264
2.53167	252
2.53533	239
2.53900	227
2.54267	214
2.54633	203
2.55000	196
2.55367	191
2.55733	186
2.56100	183
2.56467	181
2.56833	178
2.57200	179
2.57567	179
2.57933	180
2.58300	179
2.58667	176
2.59033	176
2.59400	181
2.59767	185
2.60133	189
2.60500	191
2.60867	190
2.61233	183
2.61600	168
2.61967	148
2.62333	120
2.62700	89
2.63067	60
2.63433	34
2.63800	12
2.64167	-10
2.64533	-28
2.64900	-42
2.65267	-51
2.65633	-56
2.66000	-56
2.66367	-56
2.66733	-51
2.67100	-45
2.67467	-39
2.67833	-35
2.68200	-28
2.68567	-21
2.68933	-14
2.69300	-8
2.69667	-2
2.70033	6
2.70400	13
2.70767	21
2.71133	27
2.71500	32
2.71867	37
2.72233	42
2.72600	46
2.72967	49
2.73333	55
2.73700	61
2.74067	65
2.74433	66
2.74800	68
2.75167	69
2.75533	67
2.75900	66
2.76267	66
2.76633	66
2.77000	67
2.77367	71
2.77733	76
2.78100	81
2.78467	81
2.78833	79
2.79200	78
2.79567	79
2.79933	82
2.80300	85
2.80667	86
2.81033	87
2.81400	89
2.81767	94
2.82133	102
2.82500	114
2.82867	146
2.83233	219
2.83600	374
2.83967	674
2.84333	1193
2.84700	2000
2.85067	3143
2.85433	4626
2.85800	6394
2.86167	8352
2.86533	10359
2.86900	12256
2.87267	13884
2.87633	15123
2.88000	15905
2.88367	16212
2.88733	16064
2.89100	15526
2.89467	14702
2.89833	13694
2.90200	12589
2.90567	11456
2.90933	10334
2.91300	9254
2.91667	8246
2.92033	7317
2.92400	6471
2.92767	5712
2.93133	5035
2.93500	4435
2.93867	3908
2.94233	3447
2.94600	3043
2.94967	2691
2.95333	2387
2.95700	2124
2.96067	1895
2.96433	1696
2.96800	1526
2.97167	1382
2.97533	1261
2.97900	1156
2.98267	1065
2.98633	985
2.99000	916
2.99367	859
2.99733	811
3.00100	769
3.00467	735
3.00833	705
3.01200	680
3.01567	660
3.01933	641
3.02300	624
3.02667	607
3.03033	593
3.03400	583
3.03767	575
3.04133	570
3.04500	565
3.04867	561
3.05233	558
3.05600	552
3.05967	547
3.06333	543
3.06700	544
3.07067	545
3.07433	543
3.07800	539
3.08167	539
3.08533	540
3.08900	537
3.09267	533
3.09633	531
3.10000	532
3.10367	530
3.10733	526
3.11100	525
3.11467	528
3.11833	529
3.12200	527
3.12567	528
3.12933	528
3.13300	527
3.13667	525
3.14033	524
3.14400	524
3.14767	523
3.15133	523
3.15500	525
3.15867	528
3.16233	528
3.16600	529
3.16967	531
3.17333	533
3.17700	535
3.18067	538
3.18433	537
3.18800	536
3.19167	539
3.19533	542
3.19900	545
3.20267	545
3.20633	547
3.21000	551
3.21367	553
3.21733	552
3.22100	551
3.22467	553
3.22833	553
3.23200	552
3.23567	553
3.23933	555
3.24300	557
3.24667	559
3.25033	561
3.25400	558
3.25767	553
3.26133	549
3.26500	547
3.26867	545
3.27233	543
3.27600	542
3.27967	540
3.28333	538
3.28700	537
3.29067	536
3.29433	536
3.29800	533
3.30167	529
3.30533	525
3.30900	521
3.31267	519
3.31633	516
3.32000	513
3.32367	509
3.32733	504
3.33100	498
3.33467	495
3.33833	496
3.34200	490
3.34567	488
3.34933	490
3.35300	489
3.35667	487
3.36033	487
3.36400	487
3.36767	486
3.37133	485
3.37500	484
3.37867	478
3.38233	474
3.38600	471
3.38967	469
3.39333	469
3.39700	467
3.40067	465
3.40433	461
3.40800	459
3.41167	459
3.41533	458
3.41900	454
3.42267	450
3.42633	447
3.43000	447
3.43367	443
3.43733	442
3.44100	442
3.44467	441
3.44833	438
3.45200	435
3.45567	433
3.45933	433
3.46300	431
3.46667	429
3.47033	428
3.47400	425
3.47767	423
3.48133	421
3.48500	417
3.48867	413
3.49233	413
3.49600	412
3.49967	408
3.50333	405
3.50700	405
3.51067	405
3.51433	406
3.51800	405
3.52167	403
3.52533	400
3.52900	398
3.53267	397
3.53633	397
3.54000	398
3.54367	399
3.54733	398
3.55100	396
3.55467	395
3.55833	394
3.56200	391
3.56567	390
3.56933	391
3.57300	393
3.57667	392
3.58033	390
3.58400	388
3.58767	385
3.59133	381
3.59500	382
3.59867	383
3.60233	383
3.60600	380
3.60967	375
3.61333	370
3.61700	367
3.62067	366
3.62433	365
3.62800	364
3.63167	362
3.63533	360
3.63900	358
3.64267	356
3.64633	355
3.65000	357
3.65367	357
3.65733	357
3.66100	358
3.66467	356
3.66833	352
3.67200	349
3.67567	347
3.67933	346
3.68300	349
3.68667	348
3.69033	348
3.69400	347
3.69767	345
3.70133	343
3.70500	342
3.70867	341
3.71233	341
3.71600	339
3.71967	337
3.72333	336
3.72700	335
3.73067	332
3.73433	332
3.73800	332
3.74167	334
3.74533	335
3.74900	334
3.75267	330
3.75633	329
3.76000	328
3.76367	329
3.76733	329
3.77100	328
3.77467	327
3.77833	325
3.78200	325
3.78567	328
3.78933	329
3.79300	330
3.79667	329
3.80033	328
3.80400	324
3.80767	320
3.81133	317
3.81500	314
3.81867	312
3.82233	312
3.82600	312
3.82967	314
3.83333	318
3.83700	317
3.84067	314
3.84433	312
3.84800	311
3.85167	308
3.85533	306
3.85900	306
3.86267	305
3.86633	304
3.87000	305
3.87367	306
3.87733	304
3.88100	302
3.88467	301
3.88833	301
3.89200	303
3.89567	302
3.89933	302
3.90300	302
3.90667	303
3.91033	304
3.91400	303
3.91767	301
3.92133	301
3.92500	305
3.92867	306
3.93233	304
3.93600	299
3.93967	294
3.94333	292
3.94700	291
3.95067	290
3.95433	290
3.95800	292
3.96167	292
3.96533	291
3.96900	288
3.97267	286
3.97633	286
3.98000	287
3.98367	289
3.98733	288
3.99100	288
3.99467	287
3.99833	284

[Status Trace (Column Oven Temperature)]
Interval(msec)	1000
# of Points	240
Start Time(min)	0.013
End Time(min)	3.996
Intensity Units	
Intensity Multiplier	1
R.Time (min)	Intensity
0.01298	35.02
0.02965	35.03
0.04632	35.03
0.06298	35.03
0.07965	35.02
0.09632	35.01
0.11298	35.00
0.12965	35.00
0.14632	35.01
0.16298	35.00
0.17965	34.99
0.19632	35.00
0.21298	35.01
0.22965	35.01
0.24632	35.02
0.26298	35.01
0.27965	35.01
0.29632	35.01
0.31298	35.02
0.32965	35.01
0.34632	35.00
0.36298	34.98
0.37965	34.98
0.39632	34.98
0.41298	34.98
0.42965	34.99
0.44632	34.99
0.46298	34.99
0.47965	34.99
0.49632	34.98
0.51298	34.98
0.52965	34.99
0.54632	34.99
0.56298	34.99
0.57965	34.99
0.59632	34.99
0.61298	34.98
0.62965	34.99
0.64632	35.00
0.66298	34.99
0.67965	34.99
0.69632	34.99
0.71298	35.00
0.72965	35.00
0.74632	35.00
0.76298	35.00
0.77965	35.00
0.79632	35.00
0.81298	34.99
0.82965	34.99
0.84632	34.99
0.86298	34.98
0.87965	34.97
0.89632	34.98
0.91298	34.97
0.92965	34.98
0.94632	34.98
0.96298	34.99
0.97965	35.00
0.99632	34.99
1.01298	35.00
1.02965	35.00
1.04632	34.99
1.06298	34.99
1.07965	34.99
1.09632	34.99
1.11298	34.98
1.12965	34.99
1.14632	35.00
1.16298	35.01
1.17965	35.00
1.19632	34.99
1.21298	34.99
1.22965	34.98
1.24632	34.99
1.26298	34.98
1.27965	34.98
1.29632	34.98
1.31298	34.98
1.32965	35.00
1.34632	35.00
1.36298	34.99
1.37965	35.00
1.39632	34.99
1.41298	34.99
1.42965	35.00
1.44632	35.00
1.46298	35.00
1.47965	34.99
1.49632	34.99
1.51298	34.99
1.52965	35.01
1.54632	35.01
1.56298	35.02
1.57965	35.03
1.59632	35.06
1.61298	35.12
1.62965	35.25
1.64632	35.44
1.66298	35.69
1.67965	36.04
1.69632	36.41
1.71298	36.75
1.72965	37.09
1.74632	37.43
1.76298	37.76
1.77965	38.08
1.79632	38.43
1.81298	38.75
1.82965	39.10
1.84632	39.42
1.86298	39.75
1.87965	40.07
1.89632	40.41
1.91298	40.73
1.92965	41.04
1.94632	41.36
1.96298	41.66
1.97965	41.97
1.99632	42.31
2.01298	42.63
2.02965	42.96
2.04632	43.30
2.06298	43.62
2.07965	43.96
2.09632	44.26
2.11298	44.61
2.12965	44.92
2.14632	45.26
2.16298	45.58
2.17965	45.91
2.19632	46.23
2.21298	46.58
2.22965	46.92
2.24632	47.26
2.26298	47.58
2.27965	47.92
2.29632	48.25
2.31298	48.58
2.32965	48.91
2.34632	49.28
2.36298	49.53
2.37965	49.67
2.39632	49.69
2.41298	49.68
2.42965	49.69
2.44632	49.69
2.46298	49.70
2.47965	49.72
2.49632	49.72
2.51298	49.74
2.52965	49.76
2.54632	49.79
2.56298	49.80
2.57965	49.81
2.59632	49.81
2.61298	49.80
2.62965	49.81
2.64632	49.83
2.66298	49.84
2.67965	49.84
2.69632	49.85
2.71298	49.86
2.72965	49.87
2.74632	49.86
2.76298	49.85
2.77965	49.85
2.79632	49.88
2.81298	49.90
2.82965	49.90
2.84632	49.89
2.86298	49.90
2.87965	49.90
2.89632	49.90
2.91298	49.91
2.92965	49.93
2.94632	49.95
2.96298	49.97
2.97965	49.98
2.99632	49.98
3.01298	49.98
3.02965	50.00
3.04632	50.01
3.06298	50.01
3.07965	50.02
3.09632	50.03
3.11298	50.03
3.12965	50.04
3.14632	50.04
3.16298	50.04
3.17965	50.04
3.19632	50.06
3.21298	50.06
3.22965	50.06
3.24632	50.06
3.26298	50.06
3.27965	50.07
3.29632	50.09
3.31298	50.09
3.32965	50.09
3.34632	50.10
3.36298	50.10
3.37965	50.10
3.39632	50.10
3.41298	50.10
3.42965	50.09
3.44632	50.07
3.46298	50.07
3.47965	50.07
3.49632	50.07
3.51298	50.07
3.52965	50.06
3.54632	50.06
3.56298	50.06
3.57965	50.06
3.59632	50.06
3.61298	50.05
3.62965	50.06
3.64632	50.05
3.66298	50.06
3.67965	50.06
3.69632	50.05
3.71298	50.05
3.72965	50.06
3.74632	50.06
3.76298	50.06
3.77965	50.07
3.79632	50.07
3.81298	50.07
3.82965	50.07
3.84632	50.06
3.86298	50.06
3.87965	50.07
3.89632	50.07
3.91298	50.07
3.92965	50.06
3.94632	50.06
3.96298	50.07
3.97965	50.07
3.99632	50.07

[Status Trace (Injection Unit Temperature)]
Interval(msec)	1000
# of Points	240
Start Time(min)	0.013
End Time(min)	3.996
Intensity Units	
Intensity Multiplier	1
R.Time (min)	Intensity
0.01298	99.99
0.02965	99.99
0.04632	99.99
0.06298	99.99
0.07965	99.98
0.09632	99.99
0.11298	99.98
0.12965	99.98
0.14632	99.98
0.16298	99.98
0.17965	99.98
0.19632	99.99
0.21298	99.98
0.22965	99.98
0.24632	99.98
0.26298	99.98
0.27965	99.98
0.29632	99.99
0.31298	99.98
0.32965	99.98
0.34632	99.98
0.36298	99.98
0.37965	99.98
0.39632	99.98
0.41298	99.98
0.42965	99.98
0.44632	99.98
0.46298	99.98
0.47965	99.98
0.49632	99.98
0.51298	99.98
0.52965	99.98
0.54632	99.98
0.56298	99.98
0.57965	99.98
0.59632	99.98
0.61298	99.98
0.62965	99.98
0.64632	99.99
0.66298	99.98
0.67965	99.98
0.69632	99.98
0.71298	99.98
0.72965	99.98
0.74632	99.99
0.76298	99.98
0.77965	99.98
0.79632	99.98
0.81298	99.98
0.82965	99.99
0.84632	99.98
0.86298	99.99
0.87965	99.98
0.89632	99.99
0.91298	99.99
0.92965	99.99
0.94632	99.99
0.96298	99.98
0.97965	99.99
0.99632	99.99
1.01298	99.99
1.02965	99.99
1.04632	99.99
1.06298	99.99
1.07965	99.99
1.09632	99.99
1.11298	99.99
1.12965	99.99
1.14632	99.99
1.16298	99.99
1.17965	99.98
1.19632	99.99
1.21298	99.99
1.22965	99.99
1.24632	99.99
1.26298	99.99
1.27965	99.99
1.29632	99.99
1.31298	99.99
1.32965	99.99
1.34632	99.99
1.36298	99.99
1.37965	99.99
1.39632	99.99
1.41298	99.99
1.42965	99.99
1.44632	99.98
1.46298	99.98
1.47965	99.99
1.49632	99.98
1.51298	99.99
1.52965	99.98
1.54632	99.99
1.56298	99.99
1.57965	99.98
1.59632	99.99
1.61298	99.99
1.62965	99.99
1.64632	99.99
1.66298	99.99
1.67965	99.99
1.69632	99.99
1.71298	99.99
1.72965	99.99
1.74632	99.99
1.76298	99.97
1.77965	99.98
1.79632	99.98
1.81298	99.98
1.82965	99.98
1.84632	99.98
1.86298	99.98
1.87965	99.98
1.89632	99.98
1.91298	99.98
1.92965	99.98
1.94632	99.98
1.96298	99.98
1.97965	99.98
1.99632	99.98
2.01298	99.98
2.02965	99.98
2.04632	99.98
2.06298	99.98
2.07965	99.97
2.09632	99.97
2.11298	99.97
2.12965	99.97
2.14632	99.97
2.16298	99.97
2.17965	99.97
2.19632	99.97
2.21298	99.97
2.22965	99.96
2.24632	99.97
2.26298	99.96
2.27965	99.97
2.29632	99.96
2.31298	99.97
2.32965	99.97
2.34632	99.96
2.36298	99.96
2.37965	99.96
2.39632	99.96
2.41298	99.96
2.42965	99.96
2.44632	99.96
2.46298	99.97
2.47965	99.96
2.49632	99.96
2.51298	99.96
2.52965	99.97
2.54632	99.97
2.56298	99.97
2.57965	99.97
2.59632	99.97
2.61298	99.98
2.62965	99.98
2.64632	99.98
2.66298	99.98
2.67965	99.98
2.69632	99.98
2.71298	99.99
2.72965	99.99
2.74632	99.99
2.76298	99.99
2.77965	99.99
2.79632	99.99
2.81298	100.00
2.82965	100.00
2.84632	100.00
2.86298	100.00
2.87965	100.00
2.89632	100.01
2.91298	100.01
2.92965	100.01
2.94632	100.01
2.96298	100.01
2.97965	100.01
2.99632	100.01
3.01298	100.02
3.02965	100.01
3.04632	100.02
3.06298	100.02
3.07965	100.02
3.09632	100.02
3.11298	100.03
3.12965	100.02
3.14632	100.03
3.16298	100.03
3.17965	100.03
3.19632	100.03
3.21298	100.03
3.22965	100.03
3.24632	100.03
3.26298	100.03
3.27965	100.03
3.29632	100.04
3.31298	100.03
3.32965	100.04
3.34632	100.04
3.36298	100.04
3.37965	100.04
3.39632	100.04
3.41298	100.04
3.42965	100.04
3.44632	100.04
3.46298	100.04
3.47965	100.04
3.49632	100.04
3.51298	100.04
3.52965	100.04
3.54632	100.04
3.56298	100.04
3.57965	100.04
3.59632	100.04
3.61298	100.04
3.62965	100.04
3.64632	100.04
3.66298	100.04
3.67965	100.05
3.69632	100.04
3.71298	100.05
3.72965	100.05
3.74632	100.05
3.76298	100.05
3.77965	100.05
3.79632	100.05
3.81298	100.05
3.82965	100.05
3.84632	100.05
3.86298	100.05
3.87965	100.05
3.89632	100.05
3.91298	100.05
3.92965	100.05
3.94632	100.05
3.96298	100.05
3.97965	100.05
3.99632	100.05

[Status Trace (Carrier Gas Pressure)]
Interval(msec)	1000
# of Points	240
Start Time(min)	0.013
End Time(min)	3.996
Intensity Units	
Intensity Multiplier	1
R.Time (min)	Intensity
0.01298	57.90
0.02965	54.98
0.04632	57.83
0.06298	59.82
0.07965	58.78
0.09632	57.98
0.11298	58.00
0.12965	58.01
0.14632	58.01
0.16298	58.00
0.17965	58.00
0.19632	58.00
0.21298	58.00
0.22965	58.00
0.24632	58.00
0.26298	58.00
0.27965	58.00
0.29632	58.00
0.31298	58.00
0.32965	58.00
0.34632	58.00
0.36298	58.00
0.37965	58.00
0.39632	58.00
0.41298	58.00
0.42965	58.00
0.44632	58.00
0.46298	58.00
0.47965	58.00
0.49632	58.00
0.51298	58.00
0.52965	58.00
0.54632	58.00
0.56298	58.00
0.57965	58.00
0.59632	58.00
0.61298	58.00
0.62965	58.00
0.64632	58.00
0.66298	58.00
0.67965	58.00
0.69632	58.00
0.71298	58.00
0.72965	58.00
0.74632	58.00
0.76298	58.00
0.77965	58.00
0.79632	58.00
0.81298	58.00
0.82965	58.00
0.84632	58.00
0.86298	58.00
0.87965	58.00
0.89632	58.00
0.91298	58.00
0.92965	58.00
0.94632	58.00
0.96298	58.00
0.97965	58.00
0.99632	58.00
1.01298	58.00
1.02965	58.00
1.04632	58.00
1.06298	58.00
1.07965	58.00
1.09632	58.00
1.11298	58.00
1.12965	58.00
1.14632	58.00
1.16298	58.00
1.17965	58.00
1.19632	58.00
1.21298	58.00
1.22965	58.00
1.24632	58.00
1.26298	58.00
1.27965	58.00
1.29632	58.00
1.31298	58.00
1.32965	58.00
1.34632	58.00
1.36298	58.00
1.37965	58.00
1.39632	58.00
1.41298	58.00
1.42965	58.00
1.44632	58.00
1.46298	58.00
1.47965	58.00
1.49632	58.00
1.51298	58.00
1.52965	58.00
1.54632	58.00
1.56298	58.00
1.57965	58.00
1.59632	58.00
1.61298	58.00
1.62965	58.00
1.64632	58.00
1.66298	58.00
1.67965	58.01
1.69632	58.00
1.71298	58.00
1.72965	58.00
1.74632	58.00
1.76298	58.00
1.77965	58.00
1.79632	58.00
1.81298	58.00
1.82965	58.00
1.84632	58.00
1.86298	58.00
1.87965	58.00
1.89632	58.00
1.91298	58.00
1.92965	58.00
1.94632	58.00
1.96298	58.00
1.97965	58.00
1.99632	58.00
2.01298	58.00
2.02965	58.00
2.04632	58.00
2.06298	58.00
2.07965	58.00
2.09632	58.00
2.11298	58.00
2.12965	58.00
2.14632	58.00
2.16298	58.00
2.17965	58.00
2.19632	58.00
2.21298	58.00
2.22965	58.00
2.24632	58.00
2.26298	58.00
2.27965	58.00
2.29632	58.00
2.31298	58.00
2.32965	58.00
2.34632	58.00
2.36298	58.00
2.37965	57.99
2.39632	57.99
2.41298	58.00
2.42965	58.00
2.44632	58.00
2.46298	58.00
2.47965	58.00
2.49632	58.00
2.51298	57.99
2.52965	57.98
2.54632	58.00
2.56298	58.00
2.57965	58.00
2.59632	58.00
2.61298	58.00
2.62965	58.00
2.64632	58.00
2.66298	58.00
2.67965	58.00
2.69632	58.00
2.71298	58.00
2.72965	58.00
2.74632	58.00
2.76298	58.00
2.77965	58.00
2.79632	58.00
2.81298	58.00
2.82965	58.00
2.84632	58.00
2.86298	58.00
2.87965	58.00
2.89632	58.00
2.91298	58.00
2.92965	58.00
2.94632	58.00
2.96298	58.00
2.97965	58.00
2.99632	58.00
3.01298	58.00
3.02965	58.00
3.04632	58.00
3.06298	58.00
3.07965	58.00
3.09632	58.00
3.11298	58.00
3.12965	58.00
3.14632	58.00
3.16298	58.00
3.17965	58.00
3.19632	58.00
3.21298	58.00
3.22965	58.00
3.24632	58.00
3.26298	58.00
3.27965	58.00
3.29632	58.00
3.31298	58.00
3.32965	58.00
3.34632	58.00
3.36298	58.00
3.37965	58.00
3.39632	58.00
3.41298	58.00
3.42965	58.00
3.44632	58.00
3.46298	58.00
3.47965	58.00
3.49632	58.00
3.51298	58.00
3.52965	58.00
3.54632	58.00
3.56298	58.00
3.57965	58.00
3.59632	58.00
3.61298	58.00
3.62965	58.00
3.64632	58.00
3.66298	58.00
3.67965	58.00
3.69632	58.00
3.71298	58.00
3.72965	58.00
3.74632	58.00
3.76298	58.00
3.77965	58.00
3.79632	58.00
3.81298	58.00
3.82965	58.00
3.84632	58.00
3.86298	58.00
3.87965	58.00
3.89632	58.00
3.91298	58.00
3.92965	58.00
3.94632	58.00
3.96298	58.00
3.97965	58.00
3.99632	58.00

[Status Trace (Carrier Gas Flow)]
Interval(msec)	1000
# of Points	240
Start Time(min)	0.013
End Time(min)	3.996
Intensity Units	
Intensity Multiplier	1
R.Time (min)	Intensity
0.01298	34.65
0.02965	34.54
0.04632	34.55
0.06298	34.53
0.07965	34.51
0.09632	34.52
0.11298	34.52
0.12965	34.52
0.14632	34.52
0.16298	34.52
0.17965	34.52
0.19632	34.52
0.21298	34.52
0.22965	34.52
0.24632	34.52
0.26298	34.52
0.27965	34.52
0.29632	34.52
0.31298	34.52
0.32965	34.52
0.34632	34.52
0.36298	34.52
0.37965	34.52
0.39632	34.52
0.41298	34.52
0.42965	34.52
0.44632	34.52
0.46298	34.52
0.47965	34.52
0.49632	34.52
0.51298	34.52
0.52965	34.52
0.54632	34.52
0.56298	34.52
0.57965	34.52
0.59632	34.52
0.61298	34.52
0.62965	34.52
0.64632	34.52
0.66298	34.52
0.67965	34.52
0.69632	34.52
0.71298	34.52
0.72965	34.52
0.74632	34.52
0.76298	34.52
0.77965	34.52
0.79632	34.52
0.81298	34.52
0.82965	34.52
0.84632	34.52
0.86298	34.52
0.87965	34.52
0.89632	34.52
0.91298	34.52
0.92965	34.52
0.94632	34.52
0.96298	34.52
0.97965	34.52
0.99632	34.52
1.01298	34.52
1.02965	34.52
1.04632	34.51
1.06298	34.52
1.07965	34.51
1.09632	34.52
1.11298	34.52
1.12965	34.52
1.14632	34.52
1.16298	34.52
1.17965	34.51
1.19632	34.52
1.21298	34.52
1.22965	34.52
1.24632	34.52
1.26298	34.52
1.27965	34.52
1.29632	34.52
1.31298	34.52
1.32965	34.52
1.34632	34.52
1.36298	34.52
1.37965	34.52
1.39632	34.52
1.41298	34.52
1.42965	34.52
1.44632	34.52
1.46298	34.52
1.47965	34.52
1.49632	34.52
1.51298	34.52
1.52965	34.52
1.54632	34.52
1.56298	34.52
1.57965	34.52
1.59632	34.52
1.61298	34.52
1.62965	34.52
1.64632	34.52
1.66298	34.52
1.67965	34.52
1.69632	34.52
1.71298	34.51
1.72965	34.52
1.74632	34.52
1.76298	34.52
1.77965	34.52
1.79632	34.52
1.81298	34.52
1.82965	34.52
1.84632	34.52
1.86298	34.52
1.87965	34.52
1.89632	34.52
1.91298	34.52
1.92965	34.52
1.94632	34.52
1.96298	34.52
1.97965	34.52
1.99632	34.52
2.01298	34.52
2.02965	34.52
2.04632	34.52
2.06298	34.52
2.07965	34.52
2.09632	34.52
2.11298	34.52
2.12965	34.52
2.14632	34.52
2.16298	34.52
2.17965	34.52
2.19632	34.52
2.21298	34.52
2.22965	34.52
2.24632	34.52
2.26298	34.52
2.27965	34.52
2.29632	34.52
2.31298	34.52
2.32965	34.52
2.34632	34.52
2.36298	34.52
2.37965	34.52
2.39632	34.52
2.41298	34.52
2.42965	34.52
2.44632	34.52
2.46298	34.52
2.47965	34.52
2.49632	34.52
2.51298	34.52
2.52965	34.52
2.54632	34.52
2.56298	34.52
2.57965	34.52
2.59632	34.52
2.61298	34.52
2.62965	34.52
2.64632	34.52
2.66298	34.52
2.67965	34.52
2.69632	34.52
2.71298	34.52
2.72965	34.52
2.74632	34.52
2.76298	34.52
2.77965	34.52
2.79632	34.52
2.81298	34.52
2.82965	34.52
2.84632	34.52
2.86298	34.52
2.87965	34.52
2.89632	34.52
2.91298	34.52
2.92965	34.52
2.94632	34.52
2.96298	34.52
2.97965	34.52
2.99632	34.52
3.01298	34.52
3.02965	34.52
3.04632	34.52
3.06298	34.52
3.07965	34.52
3.09632	34.52
3.11298	34.52
3.12965	34.52
3.14632	34.52
3.16298	34.52
3.17965	34.52
3.19632	34.51
3.21298	34.53
3.22965	34.50
3.24632	34.51
3.26298	34.52
3.27965	34.52
3.29632	34.51
3.31298	34.52
3.32965	34.53
3.34632	34.53
3.36298	34.52
3.37965	34.51
3.39632	34.52
3.41298	34.52
3.42965	34.52
3.44632	34.52
3.46298	34.52
3.47965	34.52
3.49632	34.52
3.51298	34.52
3.52965	34.52
3.54632	34.52
3.56298	34.52
3.57965	34.52
3.59632	34.52
3.61298	34.52
3.62965	34.52
3.64632	34.52
3.66298	34.52
3.67965	34.52
3.69632	34.52
3.71298	34.52
3.72965	34.52
3.74632	34.52
3.76298	34.52
3.77965	34.52
3.79632	34.52
3.81298	34.52
3.82965	34.52
3.84632	34.52
3.86298	34.52
3.87965	34.52
3.89632	34.52
3.91298	34.52
3.92965	34.52
3.94632	34.52
3.96298	34.52
3.97965	34.52
3.99632	34.52

[Status Trace (Column Flow)]
Interval(msec)	1000
# of Points	240
Start Time(min)	0.013
End Time(min)	3.996
Intensity Units	
Intensity Multiplier	1
R.Time (min)	Intensity
0.01298	5.43
0.02965	5.10
0.04632	5.42
0.06298	5.66
0.07965	5.54
0.09632	5.44
0.11298	5.45
0.12965	5.45
0.14632	5.45
0.16298	5.45
0.17965	5.45
0.19632	5.45
0.21298	5.45
0.22965	5.45
0.24632	5.45
0.26298	5.45
0.27965	5.45
0.29632	5.45
0.31298	5.45
0.32965	5.45
0.34632	5.45
0.36298	5.45
0.37965	5.45
0.39632	5.45
0.41298	5.45
0.42965	5.45
0.44632	5.45
0.46298	5.45
0.47965	5.45
0.49632	5.45
0.51298	5.45
0.52965	5.45
0.54632	5.45
0.56298	5.45
0.57965	5.45
0.59632	5.45
0.61298	5.45
0.62965	5.45
0.64632	5.45
0.66298	5.45
0.67965	5.45
0.69632	5.45
0.71298	5.45
0.72965	5.45
0.74632	5.45
0.76298	5.45
0.77965	5.45
0.79632	5.45
0.81298	5.45
0.82965	5.45
0.84632	5.45
0.86298	5.45
0.87965	5.45
0.89632	5.45
0.91298	5.45
0.92965	5.45
0.94632	5.45
0.96298	5.45
0.97965	5.45
0.99632	5.45
1.01298	5.45
1.02965	5.45
1.04632	5.45
1.06298	5.45
1.07965	5.45
1.09632	5.45
1.11298	5.45
1.12965	5.45
1.14632	5.45
1.16298	5.45
1.17965	5.45
1.19632	5.45
1.21298	5.45
1.22965	5.45
1.24632	5.45
1.26298	5.45
1.27965	5.45
1.29632	5.45
1.31298	5.45
1.32965	5.45
1.34632	5.45
1.36298	5.45
1.37965	5.45
1.39632	5.45
1.41298	5.45
1.42965	5.45
1.44632	5.45
1.46298	5.45
1.47965	5.45
1.49632	5.45
1.51298	5.45
1.52965	5.45
1.54632	5.45
1.56298	5.45
1.57965	5.45
1.59632	5.44
1.61298	5.44
1.62965	5.44
1.64632	5.43
1.66298	5.43
1.67965	5.42
1.69632	5.40
1.71298	5.39
1.72965	5.38
1.74632	5.37
1.76298	5.36
1.77965	5.35
1.79632	5.34
1.81298	5.33
1.82965	5.32
1.84632	5.31
1.86298	5.30
1.87965	5.29
1.89632	5.28
1.91298	5.27
1.92965	5.26
1.94632	5.25
1.96298	5.24
1.97965	5.24
1.99632	5.23
2.01298	5.22
2.02965	5.21
2.04632	5.20
2.06298	5.19
2.07965	5.18
2.09632	5.17
2.11298	5.16
2.12965	5.15
2.14632	5.14
2.16298	5.13
2.17965	5.12
2.19632	5.11
2.21298	5.10
2.22965	5.09
2.24632	5.09
2.26298	5.08
2.27965	5.07
2.29632	5.06
2.31298	5.05
2.32965	5.04
2.34632	5.03
2.36298	5.02
2.37965	5.02
2.39632	5.02
2.41298	5.02
2.42965	5.02
2.44632	5.02
2.46298	5.02
2.47965	5.02
2.49632	5.02
2.51298	5.02
2.52965	5.01
2.54632	5.01
2.56298	5.01
2.57965	5.01
2.59632	5.01
2.61298	5.01
2.62965	5.01
2.64632	5.01
2.66298	5.01
2.67965	5.01
2.69632	5.01
2.71298	5.01
2.72965	5.01
2.74632	5.01
2.76298	5.01
2.77965	5.01
2.79632	5.01
2.81298	5.01
2.82965	5.01
2.84632	5.01
2.86298	5.01
2.87965	5.01
2.89632	5.01
2.91298	5.01
2.92965	5.01
2.94632	5.01
2.96298	5.01
2.97965	5.01
2.99632	5.01
3.01298	5.01
3.02965	5.01
3.04632	5.01
3.06298	5.01
3.07965	5.01
3.09632	5.01
3.11298	5.01
3.12965	5.01
3.14632	5.01
3.16298	5.01
3.17965	5.01
3.19632	5.01
3.21298	5.01
3.22965	5.01
3.24632	5.01
3.26298	5.01
3.27965	5.01
3.29632	5.01
3.31298	5.01
3.32965	5.01
3.34632	5.01
3.36298	5.01
3.37965	5.01
3.39632	5.01
3.41298	5.01
3.42965	5.01
3.44632	5.01
3.46298	5.01
3.47965	5.01
3.49632	5.01
3.51298	5.01
3.52965	5.01
3.54632	5.01
3.56298	5.01
3.57965	5.01
3.59632	5.01
3.61298	5.01
3.62965	5.01
3.64632	5.01
3.66298	5.01
3.67965	5.01
3.69632	5.01
3.71298	5.01
3.72965	5.01
3.74632	5.01
3.76298	5.01
3.77965	5.01
3.79632	5.01
3.81298	5.01
3.82965	5.01
3.84632	5.01
3.86298	5.01
3.87965	5.01
3.89632	5.01
3.91298	5.01
3.92965	5.01
3.94632	5.01
3.96298	5.01
3.97965	5.01
3.99632	5.01

[Status Trace (Linear Velocity)]
Interval(msec)	1000
# of Points	240
Start Time(min)	0.013
End Time(min)	3.996
Intensity Units	
Intensity Multiplier	1
R.Time (min)	Intensity
0.01298	38.93
0.02965	37.01
0.04632	38.88
0.06298	40.18
0.07965	39.51
0.09632	38.99
0.11298	39.00
0.12965	39.01
0.14632	39.00
0.16298	39.00
0.17965	39.00
0.19632	39.00
0.21298	39.00
0.22965	39.00
0.24632	39.00
0.26298	39.00
0.27965	39.00
0.29632	39.00
0.31298	39.00
0.32965	39.00
0.34632	39.00
0.36298	39.00
0.37965	39.00
0.39632	39.00
0.41298	39.00
0.42965	39.00
0.44632	39.00
0.46298	39.00
0.47965	39.00
0.49632	39.00
0.51298	39.00
0.52965	39.00
0.54632	39.00
0.56298	39.00
0.57965	39.00
0.59632	39.00
0.61298	39.00
0.62965	39.00
0.64632	39.00
0.66298	39.00
0.67965	39.00
0.69632	39.00
0.71298	39.00
0.72965	39.00
0.74632	39.00
0.76298	39.00
0.77965	39.00
0.79632	39.00
0.81298	39.00
0.82965	39.00
0.84632	39.00
0.86298	39.00
0.87965	39.00
0.89632	39.00
0.91298	39.00
0.92965	39.00
0.94632	39.00
0.96298	39.00
0.97965	39.00
0.99632	39.00
1.01298	39.00
1.02965	39.00
1.04632	39.00
1.06298	39.00
1.07965	39.00
1.09632	39.00
1.11298	39.00
1.12965	39.00
1.14632	39.00
1.16298	39.00
1.17965	39.00
1.19632	39.00
1.21298	39.00
1.22965	39.00
1.24632	39.00
1.26298	39.00
1.27965	39.00
1.29632	39.00
1.31298	39.00
1.32965	39.00
1.34632	39.00
1.36298	39.00
1.37965	39.00
1.39632	39.00
1.41298	39.00
1.42965	39.00
1.44632	39.00
1.46298	39.00
1.47965	39.00
1.49632	39.00
1.51298	39.00
1.52965	39.00
1.54632	39.00
1.56298	39.00
1.57965	39.00
1.59632	38.99
1.61298	38.99
1.62965	38.98
1.64632	38.96
1.66298	38.94
1.67965	38.90
1.69632	38.87
1.71298	38.83
1.72965	38.80
1.74632	38.77
1.76298	38.74
1.77965	38.70
1.79632	38.67
1.81298	38.64
1.82965	38.61
1.84632	38.58
1.86298	38.55
1.87965	38.52
1.89632	38.49
1.91298	38.46
1.92965	38.43
1.94632	38.40
1.96298	38.37
1.97965	38.34
1.99632	38.31
2.01298	38.28
2.02965	38.25
2.04632	38.22
2.06298	38.19
2.07965	38.16
2.09632	38.13
2.11298	38.10
2.12965	38.07
2.14632	38.04
2.16298	38.01
2.17965	37.98
2.19632	37.95
2.21298	37.92
2.22965	37.89
2.24632	37.86
2.26298	37.83
2.27965	37.80
2.29632	37.77
2.31298	37.74
2.32965	37.71
2.34632	37.68
2.36298	37.65
2.37965	37.64
2.39632	37.64
2.41298	37.64
2.42965	37.64
2.44632	37.64
2.46298	37.64
2.47965	37.64
2.49632	37.64
2.51298	37.63
2.52965	37.63
2.54632	37.63
2.56298	37.63
2.57965	37.63
2.59632	37.63
2.61298	37.63
2.62965	37.63
2.64632	37.63
2.66298	37.63
2.67965	37.63
2.69632	37.63
2.71298	37.63
2.72965	37.63
2.74632	37.63
2.76298	37.63
2.77965	37.63
2.79632	37.63
2.81298	37.62
2.82965	37.62
2.84632	37.63
2.86298	37.62
2.87965	37.62
2.89632	37.62
2.91298	37.62
2.92965	37.62
2.94632	37.62
2.96298	37.62
2.97965	37.62
2.99632	37.62
3.01298	37.62
3.02965	37.62
3.04632	37.61
3.06298	37.61
3.07965	37.61
3.09632	37.61
3.11298	37.61
3.12965	37.61
3.14632	37.61
3.16298	37.61
3.17965	37.61
3.19632	37.61
3.21298	37.61
3.22965	37.61
3.24632	37.61
3.26298	37.61
3.27965	37.61
3.29632	37.61
3.31298	37.61
3.32965	37.61
3.34632	37.61
3.36298	37.61
3.37965	37.61
3.39632	37.61
3.41298	37.61
3.42965	37.61
3.44632	37.61
3.46298	37.61
3.47965	37.61
3.49632	37.61
3.51298	37.61
3.52965	37.61
3.54632	37.61
3.56298	37.61
3.57965	37.61
3.59632	37.61
3.61298	37.61
3.62965	37.61
3.64632	37.61
3.66298	37.61
3.67965	37.61
3.69632	37.61
3.71298	37.61
3.72965	37.61
3.74632	37.61
3.76298	37.61
3.77965	37.61
3.79632	37.61
3.81298	37.61
3.82965	37.61
3.84632	37.61
3.86298	37.61
3.87965	37.61
3.89632	37.61
3.91298	37.61
3.92965	37.61
3.94632	37.61
3.96298	37.61
3.97965	37.61
3.99632	37.61

