[Header]
Application Name	LabSolutions
Version	5.110
Data File Name	C:\Users\User\Desktop\GC Analyses\Jack\UIC Prairie Sampling\11.2.22\221102_094.gcd
Output Date	3/20/2023
Output Time	1:25:42 PM

[File Information]
Type	Data File
Generated	1/4/2023 10:29:00 AM
Generated by	System Administrator
Modified	1/4/2023 10:33:21 AM
Modified by	System Administrator

[Sample Information]
Operator Name	System Administrator
Acquired	1/4/2023 10:29:20 AM
Sample Type	1:Standard
Level	1
Sample Name	221102_UICPrairie
Sample ID	221102_UICPrairie
ISTD Amount1	1
ISTD Amount2	1
ISTD Amount3	1
ISTD Amount4	1
ISTD Amount5	1
ISTD Amount6	1
ISTD Amount7	1
ISTD Amount8	1
ISTD Amount9	1
ISTD Amount10	1
ISTD Amount11	1
ISTD Amount12	1
ISTD Amount13	1
ISTD Amount14	1
ISTD Amount15	1
ISTD Amount16	1
ISTD Amount17	1
ISTD Amount18	1
ISTD Amount19	1
ISTD Amount20	1
ISTD Amount21	1
ISTD Amount22	1
ISTD Amount23	1
ISTD Amount24	1
ISTD Amount25	1
ISTD Amount26	1
ISTD Amount27	1
ISTD Amount28	1
ISTD Amount29	1
ISTD Amount30	1
ISTD Amount31	1
ISTD Amount32	1
Sample Amount	1
Dilution Factor	1
Vial#	1
Injection Volume	1
Injection Count	1
Bar Code	

[Original Files]
Data File	C:\Users\User\Desktop\GC Analyses\Jack\UIC Prairie Sampling\11.2.22\221102_094.gcd
Method File	C:\LabSolutions\Data\GHG_4min_2022\ghg3_togas_w_acet_4 min_new_int.gcm
Batch File	
Report Format File	c:\LabSolutions\System\DEFAULT.lsr

[File Description]


[Configuration]
Instrument Name	C0B7VH3-Instrument1
Instrument #	1
Line #	1
# of Detectors	3
Detector ID	DET#1	DET#2	DET#3
Detector Name	FID	PTCD	ECD
# of Channels	1	1	1

[Peak Table(Ch1)]
# of Peaks	3
Peak#	R.Time	I.Time	F.Time	Area	Height	A/H	Conc.	Mark	ID#	Name	k'	Plate #	Plate Ht.	Tailing	Resolution	Sep.Factor	Area Ratio	Height Ratio	Conc. %	Norm Conc.
1	1.465	1.439	1.531	3680	1250	2.943	100.000	   	1	CO	0.000	5873	25.542	0.000	0.000	0.000	0	0	16.667	16.667
2	1.567	1.531	1.666	20037	10098	1.984	100.000	 V 	2	CH4	0.070	11349	13.217	1.239	1.518	0.000	0	0	16.667	16.667
3	1.996	1.949	2.726	2023531	943669	2.144	400.000	   	3	CO2	0.363	16988	8.830	1.295	7.143	5.179	0	0	66.667	66.667

[Peak Table(Ch2)]
# of Peaks	0

[Peak Table(Ch3)]
# of Peaks	5
Peak#	R.Time	I.Time	F.Time	Area	Height	A/H	Conc.	Mark	ID#	Name	k'	Plate #	Plate Ht.	Tailing	Resolution	Sep.Factor	Area Ratio	Height Ratio	Conc. %	Norm Conc.
1	2.458	2.290	2.502	2110	409	5.154	0.000	   			0.000	7054	21.266	0.000	0.000	0.000	0	0	0.000	0.000
2	2.513	2.502	2.550	659	263	2.504	0.000	 V 			0.022	1272	117.968	0.000	0.276	0.000	0	0	0.000	0.000
3	2.601	2.550	2.649	1187	301	3.947	0.000	 V 			0.058	4839	30.999	0.000	0.408	2.600	0	0	0.000	0.000
4	2.884	2.664	3.573	68382	16435	4.161	1.000	S  	1	N2O	0.173	12747	11.768	1.543	2.243	2.974	0	0	50.000	50.000
5	3.302	3.181	3.448	228	26	8.597	1.000	T  	2	SF6	0.343	3219	46.602	1.097	2.496	1.983	0	0	50.000	50.000

[Compound Results(Ch1)]
# of IDs	6
ID#	Name	R.Time	Area	Height	Conc.	Curve	3rd	2nd	1st	Constant	Area Ratio	Height Ratio	Conc. %	Norm Conc.
1	CO	1.465	3680	1250	100.000	Linear	0.000000e+00	0.000000e+00	3.679893e+001	0.000000e+00	0	0	16.667	16.667
2	CH4	1.567	20037	10098	100.000	Linear	0.000000e+00	0.000000e+00	2.003742e+002	0.000000e+00	0	0	16.667	16.667
3	CO2	1.996	2023531	943669	400.000	Linear	0.000000e+00	0.000000e+00	5.058827e+003	0.000000e+00	0	0	66.667	66.667
4	Ethylene	0.000	0	0	0.000	Linear	0.000000e+00	0.000000e+00	0.000000e+00	0.000000e+00	0	0	0.000	0.000
5	Acetylene	0.000	0	0	0.000	Linear	0.000000e+00	0.000000e+00	0.000000e+00	0.000000e+00	0	0	0.000	0.000
6	Ethane	0.000	0	0	0.000	Linear	0.000000e+00	0.000000e+00	0.000000e+00	0.000000e+00	0	0	0.000	0.000

[Compound Results(Ch2)]
# of IDs	5
ID#	Name	R.Time	Area	Height	Conc.	Curve	3rd	2nd	1st	Constant	Area Ratio	Height Ratio	Conc. %	Norm Conc.
1	Hydrogen	0.000	0	0	0.000	Linear	0.000000e+00	0.000000e+00	0.000000e+00	0.000000e+00	0	0	0.000	0.000
2	Oxygen	0.000	0	0	0.000	Linear	0.000000e+00	0.000000e+00	0.000000e+00	0.000000e+00	0	0	0.000	0.000
3	Nitrogen	0.000	0	0	0.000	Linear	0.000000e+00	0.000000e+00	0.000000e+00	0.000000e+00	0	0	0.000	0.000
4	Methane	0.000	0	0	0.000	Linear	0.000000e+00	0.000000e+00	0.000000e+00	0.000000e+00	0	0	0.000	0.000
5	Carbon Monoxide	0.000	0	0	0.000	Linear	0.000000e+00	0.000000e+00	0.000000e+00	0.000000e+00	0	0	0.000	0.000

[Compound Results(Ch3)]
# of IDs	2
ID#	Name	R.Time	Area	Height	Conc.	Curve	3rd	2nd	1st	Constant	Area Ratio	Height Ratio	Conc. %	Norm Conc.
1	N2O	2.884	68382	16435	1.000	Linear	0.000000e+00	0.000000e+00	6.838246e+004	0.000000e+00	0	0	50.000	50.000
2	SF6	3.302	228	26	1.000	Linear	0.000000e+00	0.000000e+00	2.275422e+002	0.000000e+00	0	0	50.000	50.000

[Group Results(Ch1)]
# of Groups	0

[Group Results(Ch2)]
# of Groups	0

[Group Results(Ch3)]
# of Groups	0

[Chromatogram (Ch1)]
Interval(msec)	220
# of Points	1091
Start Time(min)	0.002
End Time(min)	3.998
R.Time (min)	Intensity
0.00167	2
0.00533	7
0.00900	12
0.01267	14
0.01633	14
0.02000	13
0.02367	13
0.02733	13
0.03100	11
0.03467	9
0.03833	7
0.04200	3
0.04567	1
0.04933	-2
0.05300	-6
0.05667	-8
0.06033	-9
0.06400	-8
0.06767	-7
0.07133	-6
0.07500	-2
0.07867	4
0.08233	11
0.08600	16
0.08967	18
0.09333	15
0.09700	12
0.10067	11
0.10433	11
0.10800	9
0.11167	8
0.11533	8
0.11900	5
0.12267	-1
0.12633	-3
0.13000	-0
0.13367	4
0.13733	7
0.14100	8
0.14467	9
0.14833	9
0.15200	4
0.15567	-3
0.15933	-12
0.16300	-18
0.16667	-19
0.17033	-17
0.17400	-16
0.17767	-15
0.18133	-16
0.18500	-17
0.18867	-15
0.19233	-10
0.19600	-4
0.19967	0
0.20333	4
0.20700	6
0.21067	6
0.21433	3
0.21800	-0
0.22167	-5
0.22533	-7
0.22900	-7
0.23267	-7
0.23633	-6
0.24000	-6
0.24367	-4
0.24733	-2
0.25100	-0
0.25467	2
0.25833	5
0.26200	5
0.26567	8
0.26933	10
0.27300	10
0.27667	8
0.28033	5
0.28400	-0
0.28767	-5
0.29133	-7
0.29500	-9
0.29867	-11
0.30233	-12
0.30600	-14
0.30967	-13
0.31333	-8
0.31700	-2
0.32067	2
0.32433	3
0.32800	0
0.33167	-2
0.33533	-2
0.33900	3
0.34267	10
0.34633	15
0.35000	13
0.35367	7
0.35733	2
0.36100	-1
0.36467	-5
0.36833	-7
0.37200	-7
0.37567	-7
0.37933	-5
0.38300	-1
0.38667	-0
0.39033	-0
0.39400	-1
0.39767	-1
0.40133	-6
0.40500	-18
0.40867	-30
0.41233	-36
0.41600	-37
0.41967	-36
0.42333	-35
0.42700	-36
0.43067	-36
0.43433	-33
0.43800	-29
0.44167	-23
0.44533	-15
0.44900	-9
0.45267	-7
0.45633	-4
0.46000	0
0.46367	3
0.46733	2
0.47100	-3
0.47467	-9
0.47833	-16
0.48200	-19
0.48567	-17
0.48933	-13
0.49300	-11
0.49667	-12
0.50033	-11
0.50400	-7
0.50767	-0
0.51133	8
0.51500	11
0.51867	9
0.52233	5
0.52600	-0
0.52967	-4
0.53333	-8
0.53700	-12
0.54067	-15
0.54433	-13
0.54800	-12
0.55167	-9
0.55533	-5
0.55900	-2
0.56267	2
0.56633	3
0.57000	0
0.57367	-3
0.57733	-8
0.58100	-14
0.58467	-22
0.58833	-26
0.59200	-24
0.59567	-19
0.59933	-12
0.60300	-9
0.60667	-6
0.61033	-4
0.61400	-5
0.61767	-7
0.62133	-10
0.62500	-12
0.62867	-9
0.63233	-4
0.63600	1
0.63967	1
0.64333	-3
0.64700	-8
0.65067	-15
0.65433	-21
0.65800	-25
0.66167	-25
0.66533	-23
0.66900	-21
0.67267	-18
0.67633	-14
0.68000	-15
0.68367	-17
0.68733	-15
0.69100	-10
0.69467	-5
0.69833	-1
0.70200	-2
0.70567	-5
0.70933	-4
0.71300	-5
0.71667	-4
0.72033	2
0.72400	4
0.72767	2
0.73133	-5
0.73500	-15
0.73867	-28
0.74233	-37
0.74600	-38
0.74967	-37
0.75333	-35
0.75700	-32
0.76067	-28
0.76433	-25
0.76800	-21
0.77167	-15
0.77533	-10
0.77900	-3
0.78267	5
0.78633	2
0.79000	2
0.79367	0
0.79733	9
0.80100	7
0.80467	1
0.80833	5
0.81200	4
0.81567	-2
0.81933	-4
0.82300	-4
0.82667	-7
0.83033	-15
0.83400	-28
0.83767	-20
0.84133	-8
0.84500	-2
0.84867	-0
0.85233	-1
0.85600	-1
0.85967	-3
0.86333	-4
0.86700	-3
0.87067	-3
0.87433	-3
0.87800	-7
0.88167	-15
0.88533	-29
0.88900	-31
0.89267	-25
0.89633	-22
0.90000	-23
0.90367	-22
0.90733	-24
0.91100	-17
0.91467	-19
0.91833	-21
0.92200	-9
0.92567	1
0.92933	2
0.93300	-5
0.93667	-10
0.94033	-12
0.94400	-10
0.94767	-10
0.95133	-8
0.95500	-8
0.95867	-6
0.96233	-2
0.96600	-5
0.96967	-11
0.97333	-4
0.97700	8
0.98067	11
0.98433	8
0.98800	0
0.99167	-8
0.99533	-12
0.99900	-12
1.00267	-7
1.00633	-3
1.01000	-0
1.01367	1
1.01733	2
1.02100	2
1.02467	-1
1.02833	-3
1.03200	-4
1.03567	-5
1.03933	-9
1.04300	-12
1.04667	-12
1.05033	-11
1.05400	-10
1.05767	-5
1.06133	-5
1.06500	-4
1.06867	-1
1.07233	2
1.07600	7
1.07967	12
1.08333	13
1.08700	9
1.09067	4
1.09433	-2
1.09800	-5
1.10167	-8
1.10533	-10
1.10900	-12
1.11267	-17
1.11633	-22
1.12000	-21
1.12367	-18
1.12733	-24
1.13100	-25
1.13467	-23
1.13833	-26
1.14200	-26
1.14567	-27
1.14933	-30
1.15300	-30
1.15667	-25
1.16033	-28
1.16400	-24
1.16767	-18
1.17133	-9
1.17500	-4
1.17867	1
1.18233	7
1.18600	13
1.18967	13
1.19333	12
1.19700	6
1.20067	-2
1.20433	-11
1.20800	-18
1.21167	-20
1.21533	-14
1.21900	-12
1.22267	-7
1.22633	-2
1.23000	3
1.23367	4
1.23733	3
1.24100	2
1.24467	2
1.24833	0
1.25200	-2
1.25567	-7
1.25933	-13
1.26300	-16
1.26667	-18
1.27033	-16
1.27400	-10
1.27767	-9
1.28133	-12
1.28500	-8
1.28867	-4
1.29233	-3
1.29600	-8
1.29967	-11
1.30333	-10
1.30700	-6
1.31067	0
1.31433	8
1.31800	14
1.32167	13
1.32533	8
1.32900	1
1.33267	-8
1.33633	-10
1.34000	-6
1.34367	-2
1.34733	-2
1.35100	-4
1.35467	-19
1.35833	-24
1.36200	-16
1.36567	-17
1.36933	-13
1.37300	-15
1.37667	-7
1.38033	3
1.38400	5
1.38767	6
1.39133	5
1.39500	2
1.39867	-1
1.40233	-4
1.40600	-4
1.40967	-5
1.41333	-4
1.41700	2
1.42067	4
1.42433	2
1.42800	-5
1.43167	-13
1.43533	-12
1.43900	28
1.44267	189
1.44633	489
1.45000	809
1.45367	1054
1.45733	1204
1.46100	1270
1.46467	1280
1.46833	1260
1.47200	1228
1.47567	1189
1.47933	1135
1.48300	1056
1.48667	951
1.49033	826
1.49400	695
1.49767	572
1.50133	467
1.50500	384
1.50867	319
1.51233	269
1.51600	229
1.51967	197
1.52333	171
1.52700	153
1.53067	143
1.53433	146
1.53800	226
1.54167	584
1.54533	1512
1.54900	3098
1.55267	5053
1.55633	6960
1.56000	8530
1.56367	9627
1.56733	10131
1.57100	9908
1.57467	8937
1.57833	7438
1.58200	5768
1.58567	4230
1.58933	2982
1.59300	2049
1.59667	1389
1.60033	943
1.60400	646
1.60767	449
1.61133	318
1.61500	229
1.61867	170
1.62233	135
1.62600	114
1.62967	100
1.63333	90
1.63700	84
1.64067	80
1.64433	76
1.64800	71
1.65167	66
1.65533	59
1.65900	52
1.66267	44
1.66633	38
1.67000	33
1.67367	28
1.67733	27
1.68100	27
1.68467	23
1.68833	22
1.69200	24
1.69567	26
1.69933	23
1.70300	24
1.70667	23
1.71033	22
1.71400	18
1.71767	18
1.72133	19
1.72500	27
1.72867	32
1.73233	33
1.73600	34
1.73967	35
1.74333	31
1.74700	28
1.75067	23
1.75433	18
1.75800	15
1.76167	14
1.76533	10
1.76900	8
1.77267	13
1.77633	18
1.78000	15
1.78367	16
1.78733	10
1.79100	17
1.79467	25
1.79833	37
1.80200	48
1.80567	49
1.80933	47
1.81300	39
1.81667	30
1.82033	25
1.82400	21
1.82767	16
1.83133	14
1.83500	15
1.83867	14
1.84233	17
1.84600	23
1.84967	30
1.85333	26
1.85700	26
1.86067	32
1.86433	38
1.86800	38
1.87167	37
1.87533	43
1.87900	39
1.88267	33
1.88633	24
1.89000	20
1.89367	19
1.89733	20
1.90100	30
1.90467	37
1.90833	42
1.91200	45
1.91567	47
1.91933	49
1.92300	49
1.92667	53
1.93033	60
1.93400	62
1.93767	63
1.94133	63
1.94500	62
1.94867	64
1.95233	85
1.95600	280
1.95967	1437
1.96333	6599
1.96700	23976
1.97067	68772
1.97433	158046
1.97800	297105
1.98167	470613
1.98533	648912
1.98900	801155
1.99267	904056
1.99633	943772
2.00000	917005
2.00367	832309
2.00733	708688
2.01100	569871
2.01467	436883
2.01833	322989
2.02200	233044
2.02567	165998
2.02933	117970
2.03300	84448
2.03667	61391
2.04033	45614
2.04400	34797
2.04767	27316
2.05133	22068
2.05500	18310
2.05867	15565
2.06233	13507
2.06600	11923
2.06967	10669
2.07333	9650
2.07700	8813
2.08067	8115
2.08433	7521
2.08800	6997
2.09167	6551
2.09533	6164
2.09900	5819
2.10267	5511
2.10633	5230
2.11000	4974
2.11367	4742
2.11733	4529
2.12100	4326
2.12467	4139
2.12833	3967
2.13200	3806
2.13567	3660
2.13933	3525
2.14300	3402
2.14667	3291
2.15033	3186
2.15400	3087
2.15767	2987
2.16133	2891
2.16500	2801
2.16867	2732
2.17233	2653
2.17600	2576
2.17967	2505
2.18333	2445
2.18700	2387
2.19067	2331
2.19433	2274
2.19800	2221
2.20167	2171
2.20533	2125
2.20900	2079
2.21267	2034
2.21633	1987
2.22000	1943
2.22367	1901
2.22733	1860
2.23100	1828
2.23467	1802
2.23833	1771
2.24200	1735
2.24567	1692
2.24933	1654
2.25300	1621
2.25667	1594
2.26033	1578
2.26400	1565
2.26767	1548
2.27133	1524
2.27500	1498
2.27867	1470
2.28233	1442
2.28600	1414
2.28967	1389
2.29333	1367
2.29700	1348
2.30067	1333
2.30433	1324
2.30800	1317
2.31167	1300
2.31533	1282
2.31900	1266
2.32267	1254
2.32633	1246
2.33000	1234
2.33367	1220
2.33733	1201
2.34100	1183
2.34467	1167
2.34833	1154
2.35200	1144
2.35567	1133
2.35933	1122
2.36300	1106
2.36667	1094
2.37033	1085
2.37400	1076
2.37767	1064
2.38133	1054
2.38500	1046
2.38867	1037
2.39233	1032
2.39600	1034
2.39967	1037
2.40333	1037
2.40700	1036
2.41067	1028
2.41433	1018
2.41800	1005
2.42167	993
2.42533	984
2.42900	977
2.43267	971
2.43633	967
2.44000	965
2.44367	960
2.44733	951
2.45100	940
2.45467	931
2.45833	924
2.46200	917
2.46567	912
2.46933	906
2.47300	900
2.47667	896
2.48033	891
2.48400	893
2.48767	879
2.49133	878
2.49500	880
2.49867	880
2.50233	876
2.50600	874
2.50967	869
2.51333	864
2.51700	861
2.52067	858
2.52433	857
2.52800	856
2.53167	856
2.53533	855
2.53900	849
2.54267	840
2.54633	832
2.55000	818
2.55367	820
2.55733	821
2.56100	819
2.56467	815
2.56833	807
2.57200	800
2.57567	791
2.57933	789
2.58300	785
2.58667	777
2.59033	770
2.59400	766
2.59767	764
2.60133	765
2.60500	768
2.60867	770
2.61233	768
2.61600	757
2.61967	752
2.62333	755
2.62700	763
2.63067	768
2.63433	765
2.63800	758
2.64167	751
2.64533	744
2.64900	742
2.65267	741
2.65633	739
2.66000	736
2.66367	734
2.66733	734
2.67100	733
2.67467	734
2.67833	731
2.68200	730
2.68567	729
2.68933	723
2.69300	719
2.69667	719
2.70033	719
2.70400	715
2.70767	711
2.71133	707
2.71500	703
2.71867	700
2.72233	698
2.72600	699
2.72967	704
2.73333	708
2.73700	710
2.74067	710
2.74433	706
2.74800	703
2.75167	702
2.75533	705
2.75900	705
2.76267	702
2.76633	697
2.77000	699
2.77367	698
2.77733	692
2.78100	691
2.78467	693
2.78833	696
2.79200	698
2.79567	698
2.79933	696
2.80300	697
2.80667	696
2.81033	691
2.81400	684
2.81767	680
2.82133	683
2.82500	686
2.82867	688
2.83233	690
2.83600	694
2.83967	696
2.84333	701
2.84700	704
2.85067	699
2.85433	689
2.85800	679
2.86167	672
2.86533	670
2.86900	674
2.87267	682
2.87633	692
2.88000	698
2.88367	694
2.88733	683
2.89100	667
2.89467	656
2.89833	650
2.90200	648
2.90567	646
2.90933	648
2.91300	656
2.91667	663
2.92033	662
2.92400	659
2.92767	666
2.93133	672
2.93500	671
2.93867	665
2.94233	657
2.94600	649
2.94967	650
2.95333	649
2.95700	658
2.96067	673
2.96433	681
2.96800	675
2.97167	672
2.97533	670
2.97900	668
2.98267	665
2.98633	662
2.99000	662
2.99367	659
2.99733	657
3.00100	654
3.00467	655
3.00833	655
3.01200	654
3.01567	655
3.01933	660
3.02300	665
3.02667	668
3.03033	666
3.03400	658
3.03767	651
3.04133	645
3.04500	643
3.04867	645
3.05233	649
3.05600	645
3.05967	638
3.06333	641
3.06700	645
3.07067	642
3.07433	639
3.07800	633
3.08167	623
3.08533	618
3.08900	623
3.09267	623
3.09633	623
3.10000	625
3.10367	628
3.10733	633
3.11100	633
3.11467	644
3.11833	649
3.12200	645
3.12567	639
3.12933	637
3.13300	636
3.13667	634
3.14033	627
3.14400	628
3.14767	629
3.15133	626
3.15500	623
3.15867	621
3.16233	617
3.16600	615
3.16967	617
3.17333	622
3.17700	628
3.18067	631
3.18433	631
3.18800	628
3.19167	625
3.19533	617
3.19900	611
3.20267	609
3.20633	608
3.21000	608
3.21367	610
3.21733	613
3.22100	614
3.22467	617
3.22833	617
3.23200	617
3.23567	614
3.23933	611
3.24300	609
3.24667	608
3.25033	606
3.25400	606
3.25767	605
3.26133	604
3.26500	608
3.26867	611
3.27233	618
3.27600	624
3.27967	625
3.28333	619
3.28700	609
3.29067	601
3.29433	596
3.29800	593
3.30167	599
3.30533	608
3.30900	612
3.31267	613
3.31633	613
3.32000	611
3.32367	609
3.32733	607
3.33100	606
3.33467	606
3.33833	605
3.34200	604
3.34567	602
3.34933	597
3.35300	592
3.35667	590
3.36033	588
3.36400	583
3.36767	576
3.37133	571
3.37500	570
3.37867	569
3.38233	572
3.38600	579
3.38967	585
3.39333	589
3.39700	592
3.40067	594
3.40433	594
3.40800	592
3.41167	588
3.41533	585
3.41900	581
3.42267	574
3.42633	568
3.43000	564
3.43367	559
3.43733	558
3.44100	557
3.44467	558
3.44833	560
3.45200	560
3.45567	559
3.45933	559
3.46300	561
3.46667	563
3.47033	565
3.47400	568
3.47767	570
3.48133	567
3.48500	562
3.48867	562
3.49233	569
3.49600	576
3.49967	580
3.50333	581
3.50700	577
3.51067	571
3.51433	565
3.51800	560
3.52167	558
3.52533	557
3.52900	556
3.53267	556
3.53633	550
3.54000	545
3.54367	548
3.54733	553
3.55100	555
3.55467	554
3.55833	552
3.56200	552
3.56567	552
3.56933	554
3.57300	555
3.57667	555
3.58033	554
3.58400	553
3.58767	553
3.59133	556
3.59500	559
3.59867	560
3.60233	555
3.60600	547
3.60967	542
3.61333	541
3.61700	544
3.62067	547
3.62433	545
3.62800	537
3.63167	529
3.63533	526
3.63900	527
3.64267	528
3.64633	527
3.65000	528
3.65367	530
3.65733	533
3.66100	530
3.66467	526
3.66833	520
3.67200	520
3.67567	518
3.67933	515
3.68300	512
3.68667	512
3.69033	514
3.69400	517
3.69767	521
3.70133	525
3.70500	530
3.70867	531
3.71233	529
3.71600	527
3.71967	524
3.72333	515
3.72700	501
3.73067	490
3.73433	494
3.73800	496
3.74167	500
3.74533	506
3.74900	511
3.75267	511
3.75633	507
3.76000	504
3.76367	503
3.76733	504
3.77100	508
3.77467	514
3.77833	516
3.78200	515
3.78567	517
3.78933	513
3.79300	507
3.79667	506
3.80033	515
3.80400	515
3.80767	507
3.81133	499
3.81500	491
3.81867	487
3.82233	489
3.82600	493
3.82967	498
3.83333	498
3.83700	494
3.84067	488
3.84433	480
3.84800	473
3.85167	471
3.85533	473
3.85900	475
3.86267	477
3.86633	479
3.87000	482
3.87367	485
3.87733	487
3.88100	487
3.88467	483
3.88833	476
3.89200	473
3.89567	473
3.89933	472
3.90300	469
3.90667	466
3.91033	467
3.91400	472
3.91767	476
3.92133	477
3.92500	475
3.92867	473
3.93233	474
3.93600	476
3.93967	476
3.94333	473
3.94700	469
3.95067	469
3.95433	472
3.95800	471
3.96167	468
3.96533	468
3.96900	467
3.97267	469
3.97633	469
3.98000	466
3.98367	466
3.98733	465
3.99100	463
3.99467	463
3.99833	462

[Chromatogram (Ch2)]
Interval(msec)	220
# of Points	1091
Start Time(min)	0.002
End Time(min)	3.998
R.Time (min)	Intensity
0.00167	0
0.00533	0
0.00900	0
0.01267	1
0.01633	0
0.02000	0
0.02367	0
0.02733	-0
0.03100	-0
0.03467	-0
0.03833	-0
0.04200	-1
0.04567	-1
0.04933	-1
0.05300	-1
0.05667	-1
0.06033	-1
0.06400	-1
0.06767	-1
0.07133	-1
0.07500	-1
0.07867	-1
0.08233	-1
0.08600	-1
0.08967	-1
0.09333	-1
0.09700	-1
0.10067	-1
0.10433	-0
0.10800	-0
0.11167	-0
0.11533	-0
0.11900	-0
0.12267	-1
0.12633	-1
0.13000	-1
0.13367	-1
0.13733	-2
0.14100	-2
0.14467	-2
0.14833	-1
0.15200	-1
0.15567	-1
0.15933	-1
0.16300	-1
0.16667	-1
0.17033	-0
0.17400	-0
0.17767	-0
0.18133	0
0.18500	0
0.18867	1
0.19233	1
0.19600	1
0.19967	1
0.20333	1
0.20700	1
0.21067	1
0.21433	1
0.21800	1
0.22167	1
0.22533	1
0.22900	1
0.23267	1
0.23633	0
0.24000	-0
0.24367	-0
0.24733	-0
0.25100	-1
0.25467	-1
0.25833	-1
0.26200	-2
0.26567	-2
0.26933	-2
0.27300	-2
0.27667	-2
0.28033	-2
0.28400	-2
0.28767	-2
0.29133	-2
0.29500	-2
0.29867	-1
0.30233	-1
0.30600	-1
0.30967	-1
0.31333	-1
0.31700	-1
0.32067	-1
0.32433	-1
0.32800	-1
0.33167	-1
0.33533	-1
0.33900	-1
0.34267	-1
0.34633	-1
0.35000	-1
0.35367	-1
0.35733	-1
0.36100	-1
0.36467	-1
0.36833	-1
0.37200	-1
0.37567	-1
0.37933	-1
0.38300	-1
0.38667	-1
0.39033	-1
0.39400	-1
0.39767	-1
0.40133	-1
0.40500	-1
0.40867	-1
0.41233	-1
0.41600	-1
0.41967	-1
0.42333	-1
0.42700	-1
0.43067	-1
0.43433	-1
0.43800	-1
0.44167	-1
0.44533	-1
0.44900	-1
0.45267	-1
0.45633	-1
0.46000	-1
0.46367	-1
0.46733	-1
0.47100	-1
0.47467	-1
0.47833	-1
0.48200	-1
0.48567	-1
0.48933	-1
0.49300	-1
0.49667	-1
0.50033	-1
0.50400	-1
0.50767	-1
0.51133	-1
0.51500	-1
0.51867	-1
0.52233	-1
0.52600	-1
0.52967	-1
0.53333	-1
0.53700	-1
0.54067	-1
0.54433	-1
0.54800	-1
0.55167	-1
0.55533	-1
0.55900	-1
0.56267	-1
0.56633	-1
0.57000	-1
0.57367	-1
0.57733	-1
0.58100	-1
0.58467	-1
0.58833	-1
0.59200	-1
0.59567	-1
0.59933	-1
0.60300	-1
0.60667	-1
0.61033	-1
0.61400	-1
0.61767	-1
0.62133	-1
0.62500	-1
0.62867	-1
0.63233	-1
0.63600	-1
0.63967	-1
0.64333	-1
0.64700	-1
0.65067	-1
0.65433	-1
0.65800	-1
0.66167	-1
0.66533	-1
0.66900	-1
0.67267	-1
0.67633	-1
0.68000	-0
0.68367	-0
0.68733	-0
0.69100	0
0.69467	0
0.69833	-0
0.70200	-0
0.70567	-1
0.70933	-1
0.71300	-1
0.71667	-1
0.72033	-1
0.72400	-1
0.72767	-2
0.73133	-2
0.73500	-2
0.73867	-2
0.74233	-2
0.74600	-2
0.74967	-2
0.75333	-2
0.75700	-2
0.76067	-2
0.76433	-2
0.76800	-2
0.77167	-2
0.77533	-2
0.77900	-2
0.78267	-2
0.78633	-2
0.79000	-2
0.79367	-2
0.79733	-2
0.80100	-2
0.80467	-2
0.80833	-2
0.81200	-2
0.81567	-2
0.81933	-2
0.82300	-2
0.82667	-2
0.83033	-2
0.83400	-2
0.83767	-2
0.84133	-2
0.84500	-3
0.84867	-3
0.85233	-3
0.85600	-2
0.85967	-2
0.86333	-2
0.86700	-2
0.87067	-2
0.87433	-1
0.87800	-1
0.88167	-1
0.88533	-1
0.88900	-1
0.89267	-1
0.89633	-1
0.90000	-1
0.90367	-1
0.90733	-1
0.91100	-1
0.91467	-1
0.91833	-1
0.92200	-1
0.92567	-1
0.92933	-1
0.93300	-1
0.93667	-1
0.94033	-1
0.94400	-1
0.94767	-1
0.95133	-1
0.95500	-1
0.95867	-1
0.96233	-1
0.96600	-1
0.96967	-2
0.97333	-2
0.97700	-2
0.98067	-2
0.98433	-2
0.98800	-2
0.99167	-2
0.99533	-2
0.99900	-2
1.00267	-2
1.00633	-2
1.01000	-2
1.01367	-2
1.01733	-1
1.02100	-1
1.02467	-1
1.02833	-1
1.03200	-0
1.03567	-0
1.03933	-0
1.04300	0
1.04667	-0
1.05033	-0
1.05400	-0
1.05767	0
1.06133	0
1.06500	0
1.06867	0
1.07233	0
1.07600	0
1.07967	0
1.08333	0
1.08700	0
1.09067	0
1.09433	-0
1.09800	-0
1.10167	-0
1.10533	-0
1.10900	-1
1.11267	-1
1.11633	-1
1.12000	-1
1.12367	-1
1.12733	-2
1.13100	-2
1.13467	-2
1.13833	-2
1.14200	-2
1.14567	-2
1.14933	-2
1.15300	-1
1.15667	-1
1.16033	-1
1.16400	-1
1.16767	-1
1.17133	-1
1.17500	-1
1.17867	-1
1.18233	-1
1.18600	-1
1.18967	-1
1.19333	-2
1.19700	-2
1.20067	-2
1.20433	-2
1.20800	-3
1.21167	-3
1.21533	-3
1.21900	-3
1.22267	-3
1.22633	-3
1.23000	-3
1.23367	-3
1.23733	-2
1.24100	-2
1.24467	-2
1.24833	-2
1.25200	-2
1.25567	-2
1.25933	-2
1.26300	-2
1.26667	-2
1.27033	-2
1.27400	-1
1.27767	-1
1.28133	-1
1.28500	-1
1.28867	-1
1.29233	-1
1.29600	-1
1.29967	-1
1.30333	-1
1.30700	-1
1.31067	-2
1.31433	-2
1.31800	-2
1.32167	-2
1.32533	-2
1.32900	-2
1.33267	-2
1.33633	-2
1.34000	-2
1.34367	-2
1.34733	-2
1.35100	-2
1.35467	-2
1.35833	-2
1.36200	-2
1.36567	-2
1.36933	-2
1.37300	-2
1.37667	-2
1.38033	-2
1.38400	-2
1.38767	-2
1.39133	-2
1.39500	-2
1.39867	-2
1.40233	-2
1.40600	-2
1.40967	-2
1.41333	-2
1.41700	-2
1.42067	-3
1.42433	-3
1.42800	-3
1.43167	-3
1.43533	-3
1.43900	-3
1.44267	-3
1.44633	-3
1.45000	-3
1.45367	-2
1.45733	-2
1.46100	-2
1.46467	-2
1.46833	-2
1.47200	-2
1.47567	-2
1.47933	-2
1.48300	-2
1.48667	-2
1.49033	-2
1.49400	-1
1.49767	-1
1.50133	-1
1.50500	-1
1.50867	-1
1.51233	-1
1.51600	-1
1.51967	-1
1.52333	-2
1.52700	-2
1.53067	-2
1.53433	-2
1.53800	-2
1.54167	-2
1.54533	-2
1.54900	-2
1.55267	-3
1.55633	-3
1.56000	-3
1.56367	-3
1.56733	-3
1.57100	-3
1.57467	-3
1.57833	-3
1.58200	-3
1.58567	-3
1.58933	-3
1.59300	-4
1.59667	-4
1.60033	-5
1.60400	-5
1.60767	-7
1.61133	-8
1.61500	-10
1.61867	-12
1.62233	-15
1.62600	-17
1.62967	-20
1.63333	-23
1.63700	-27
1.64067	-30
1.64433	-33
1.64800	-37
1.65167	-41
1.65533	-44
1.65900	-48
1.66267	-52
1.66633	-56
1.67000	-60
1.67367	-65
1.67733	-70
1.68100	-75
1.68467	-80
1.68833	-85
1.69200	-89
1.69567	-93
1.69933	-96
1.70300	-98
1.70667	-100
1.71033	-102
1.71400	-104
1.71767	-105
1.72133	-106
1.72500	-107
1.72867	-108
1.73233	-109
1.73600	-110
1.73967	-110
1.74333	-110
1.74700	-110
1.75067	-110
1.75433	-110
1.75800	-110
1.76167	-110
1.76533	-111
1.76900	-111
1.77267	-112
1.77633	-112
1.78000	-113
1.78367	-114
1.78733	-114
1.79100	-114
1.79467	-114
1.79833	-115
1.80200	-115
1.80567	-115
1.80933	-115
1.81300	-115
1.81667	-115
1.82033	-115
1.82400	-114
1.82767	-114
1.83133	-114
1.83500	-114
1.83867	-115
1.84233	-115
1.84600	-116
1.84967	-116
1.85333	-116
1.85700	-116
1.86067	-116
1.86433	-116
1.86800	-117
1.87167	-117
1.87533	-117
1.87900	-117
1.88267	-116
1.88633	-116
1.89000	-116
1.89367	-116
1.89733	-116
1.90100	-117
1.90467	-117
1.90833	-117
1.91200	-116
1.91567	-115
1.91933	-114
1.92300	-114
1.92667	-113
1.93033	-113
1.93400	-113
1.93767	-112
1.94133	-112
1.94500	-112
1.94867	-111
1.95233	-111
1.95600	-110
1.95967	-110
1.96333	-110
1.96700	-110
1.97067	-110
1.97433	-110
1.97800	-110
1.98167	-110
1.98533	-109
1.98900	-108
1.99267	-107
1.99633	-106
2.00000	-106
2.00367	-106
2.00733	-106
2.01100	-106
2.01467	-105
2.01833	-105
2.02200	-105
2.02567	-105
2.02933	-104
2.03300	-104
2.03667	-104
2.04033	-103
2.04400	-103
2.04767	-103
2.05133	-103
2.05500	-103
2.05867	-103
2.06233	-103
2.06600	-102
2.06967	-102
2.07333	-102
2.07700	-102
2.08067	-102
2.08433	-102
2.08800	-102
2.09167	-102
2.09533	-101
2.09900	-101
2.10267	-101
2.10633	-100
2.11000	-100
2.11367	-100
2.11733	-101
2.12100	-100
2.12467	-100
2.12833	-99
2.13200	-99
2.13567	-98
2.13933	-98
2.14300	-97
2.14667	-97
2.15033	-96
2.15400	-96
2.15767	-96
2.16133	-96
2.16500	-95
2.16867	-95
2.17233	-94
2.17600	-93
2.17967	-93
2.18333	-93
2.18700	-93
2.19067	-93
2.19433	-94
2.19800	-94
2.20167	-95
2.20533	-94
2.20900	-94
2.21267	-94
2.21633	-93
2.22000	-92
2.22367	-92
2.22733	-91
2.23100	-91
2.23467	-90
2.23833	-90
2.24200	-90
2.24567	-90
2.24933	-89
2.25300	-89
2.25667	-88
2.26033	-88
2.26400	-88
2.26767	-88
2.27133	-89
2.27500	-89
2.27867	-89
2.28233	-88
2.28600	-87
2.28967	-87
2.29333	-86
2.29700	-86
2.30067	-86
2.30433	-86
2.30800	-86
2.31167	-86
2.31533	-85
2.31900	-85
2.32267	-84
2.32633	-83
2.33000	-82
2.33367	-80
2.33733	-79
2.34100	-79
2.34467	-78
2.34833	-77
2.35200	-76
2.35567	-76
2.35933	-75
2.36300	-75
2.36667	-75
2.37033	-74
2.37400	-73
2.37767	-71
2.38133	-69
2.38500	-66
2.38867	-63
2.39233	-59
2.39600	-55
2.39967	-52
2.40333	-48
2.40700	-44
2.41067	-40
2.41433	-36
2.41800	-32
2.42167	-29
2.42533	-26
2.42900	-23
2.43267	-21
2.43633	-18
2.44000	-16
2.44367	-14
2.44733	-12
2.45100	-11
2.45467	-9
2.45833	-8
2.46200	-6
2.46567	-4
2.46933	-3
2.47300	-2
2.47667	-1
2.48033	0
2.48400	1
2.48767	2
2.49133	3
2.49500	4
2.49867	5
2.50233	6
2.50600	7
2.50967	8
2.51333	9
2.51700	10
2.52067	11
2.52433	12
2.52800	12
2.53167	13
2.53533	14
2.53900	14
2.54267	14
2.54633	15
2.55000	15
2.55367	15
2.55733	16
2.56100	16
2.56467	17
2.56833	17
2.57200	18
2.57567	18
2.57933	18
2.58300	19
2.58667	19
2.59033	19
2.59400	19
2.59767	20
2.60133	20
2.60500	20
2.60867	20
2.61233	20
2.61600	19
2.61967	19
2.62333	19
2.62700	19
2.63067	19
2.63433	20
2.63800	20
2.64167	20
2.64533	20
2.64900	21
2.65267	21
2.65633	21
2.66000	21
2.66367	21
2.66733	21
2.67100	22
2.67467	22
2.67833	22
2.68200	23
2.68567	23
2.68933	23
2.69300	24
2.69667	24
2.70033	24
2.70400	24
2.70767	24
2.71133	24
2.71500	24
2.71867	23
2.72233	23
2.72600	23
2.72967	23
2.73333	23
2.73700	23
2.74067	23
2.74433	23
2.74800	23
2.75167	23
2.75533	23
2.75900	24
2.76267	24
2.76633	25
2.77000	25
2.77367	26
2.77733	26
2.78100	26
2.78467	27
2.78833	27
2.79200	27
2.79567	27
2.79933	27
2.80300	27
2.80667	27
2.81033	27
2.81400	27
2.81767	26
2.82133	26
2.82500	26
2.82867	26
2.83233	26
2.83600	26
2.83967	25
2.84333	25
2.84700	23
2.85067	21
2.85433	17
2.85800	11
2.86167	1
2.86533	-12
2.86900	-29
2.87267	-51
2.87633	-78
2.88000	-110
2.88367	-147
2.88733	-190
2.89100	-238
2.89467	-291
2.89833	-349
2.90200	-410
2.90567	-476
2.90933	-545
2.91300	-617
2.91667	-693
2.92033	-770
2.92400	-851
2.92767	-933
2.93133	-1018
2.93500	-1103
2.93867	-1191
2.94233	-1280
2.94600	-1368
2.94967	-1445
2.95333	-1498
2.95700	-1518
2.96067	-1502
2.96433	-1453
2.96800	-1379
2.97167	-1285
2.97533	-1181
2.97900	-1071
2.98267	-961
2.98633	-855
2.99000	-755
2.99367	-663
2.99733	-579
3.00100	-503
3.00467	-435
3.00833	-375
3.01200	-322
3.01567	-276
3.01933	-236
3.02300	-201
3.02667	-171
3.03033	-145
3.03400	-123
3.03767	-104
3.04133	-88
3.04500	-74
3.04867	-62
3.05233	-51
3.05600	-43
3.05967	-35
3.06333	-29
3.06700	-23
3.07067	-19
3.07433	-14
3.07800	-11
3.08167	-8
3.08533	-5
3.08900	-3
3.09267	-1
3.09633	0
3.10000	2
3.10367	3
3.10733	4
3.11100	6
3.11467	7
3.11833	8
3.12200	9
3.12567	9
3.12933	10
3.13300	11
3.13667	11
3.14033	12
3.14400	13
3.14767	13
3.15133	13
3.15500	13
3.15867	14
3.16233	14
3.16600	14
3.16967	15
3.17333	15
3.17700	15
3.18067	15
3.18433	15
3.18800	16
3.19167	16
3.19533	16
3.19900	16
3.20267	16
3.20633	16
3.21000	17
3.21367	17
3.21733	17
3.22100	17
3.22467	17
3.22833	18
3.23200	18
3.23567	19
3.23933	19
3.24300	20
3.24667	20
3.25033	21
3.25400	21
3.25767	22
3.26133	22
3.26500	22
3.26867	23
3.27233	23
3.27600	23
3.27967	23
3.28333	23
3.28700	23
3.29067	24
3.29433	24
3.29800	24
3.30167	24
3.30533	25
3.30900	25
3.31267	25
3.31633	25
3.32000	25
3.32367	25
3.32733	25
3.33100	25
3.33467	25
3.33833	25
3.34200	25
3.34567	25
3.34933	25
3.35300	25
3.35667	25
3.36033	25
3.36400	25
3.36767	25
3.37133	25
3.37500	25
3.37867	25
3.38233	25
3.38600	25
3.38967	25
3.39333	25
3.39700	25
3.40067	26
3.40433	26
3.40800	26
3.41167	26
3.41533	26
3.41900	25
3.42267	25
3.42633	25
3.43000	25
3.43367	25
3.43733	25
3.44100	25
3.44467	25
3.44833	25
3.45200	25
3.45567	25
3.45933	26
3.46300	26
3.46667	26
3.47033	26
3.47400	26
3.47767	26
3.48133	25
3.48500	25
3.48867	25
3.49233	25
3.49600	25
3.49967	25
3.50333	25
3.50700	25
3.51067	25
3.51433	25
3.51800	25
3.52167	25
3.52533	25
3.52900	25
3.53267	24
3.53633	24
3.54000	24
3.54367	24
3.54733	24
3.55100	24
3.55467	24
3.55833	24
3.56200	24
3.56567	24
3.56933	24
3.57300	25
3.57667	25
3.58033	25
3.58400	25
3.58767	25
3.59133	25
3.59500	25
3.59867	25
3.60233	25
3.60600	25
3.60967	25
3.61333	25
3.61700	25
3.62067	25
3.62433	24
3.62800	24
3.63167	24
3.63533	24
3.63900	24
3.64267	24
3.64633	24
3.65000	24
3.65367	24
3.65733	24
3.66100	24
3.66467	25
3.66833	25
3.67200	25
3.67567	25
3.67933	25
3.68300	25
3.68667	25
3.69033	25
3.69400	25
3.69767	25
3.70133	25
3.70500	25
3.70867	25
3.71233	25
3.71600	25
3.71967	25
3.72333	25
3.72700	25
3.73067	25
3.73433	25
3.73800	25
3.74167	25
3.74533	25
3.74900	25
3.75267	25
3.75633	25
3.76000	25
3.76367	25
3.76733	25
3.77100	25
3.77467	25
3.77833	25
3.78200	26
3.78567	26
3.78933	26
3.79300	26
3.79667	26
3.80033	26
3.80400	26
3.80767	26
3.81133	25
3.81500	25
3.81867	25
3.82233	25
3.82600	25
3.82967	26
3.83333	26
3.83700	26
3.84067	26
3.84433	26
3.84800	26
3.85167	26
3.85533	26
3.85900	26
3.86267	26
3.86633	26
3.87000	26
3.87367	25
3.87733	25
3.88100	25
3.88467	25
3.88833	25
3.89200	25
3.89567	25
3.89933	25
3.90300	25
3.90667	25
3.91033	25
3.91400	25
3.91767	25
3.92133	25
3.92500	25
3.92867	25
3.93233	25
3.93600	25
3.93967	25
3.94333	25
3.94700	25
3.95067	25
3.95433	25
3.95800	25
3.96167	25
3.96533	25
3.96900	25
3.97267	25
3.97633	25
3.98000	25
3.98367	25
3.98733	25
3.99100	25
3.99467	25
3.99833	25

[Chromatogram (Ch3)]
Interval(msec)	220
# of Points	1091
Start Time(min)	0.002
End Time(min)	3.998
R.Time (min)	Intensity
0.00167	-0
0.00533	-1
0.00900	-1
0.01267	-2
0.01633	-2
0.02000	-3
0.02367	-2
0.02733	-1
0.03100	-2
0.03467	-2
0.03833	-3
0.04200	-3
0.04567	-3
0.04933	-5
0.05300	-7
0.05667	-7
0.06033	-8
0.06400	-7
0.06767	-5
0.07133	-2
0.07500	0
0.07867	0
0.08233	0
0.08600	-0
0.08967	-0
0.09333	-1
0.09700	-5
0.10067	-7
0.10433	-10
0.10800	-11
0.11167	-11
0.11533	-9
0.11900	-7
0.12267	-4
0.12633	-5
0.13000	-6
0.13367	-7
0.13733	-7
0.14100	-6
0.14467	-4
0.14833	-2
0.15200	-2
0.15567	-3
0.15933	-4
0.16300	-6
0.16667	-6
0.17033	-7
0.17400	-8
0.17767	-7
0.18133	-7
0.18500	-6
0.18867	-6
0.19233	-7
0.19600	-8
0.19967	-11
0.20333	-12
0.20700	-13
0.21067	-11
0.21433	-10
0.21800	-9
0.22167	-5
0.22533	-6
0.22900	-6
0.23267	-4
0.23633	-4
0.24000	-6
0.24367	-7
0.24733	-8
0.25100	-10
0.25467	-11
0.25833	-11
0.26200	-12
0.26567	-12
0.26933	-12
0.27300	-11
0.27667	-12
0.28033	-11
0.28400	-10
0.28767	-10
0.29133	-9
0.29500	-8
0.29867	-8
0.30233	-6
0.30600	-4
0.30967	-1
0.31333	-1
0.31700	0
0.32067	-1
0.32433	-2
0.32800	-4
0.33167	-4
0.33533	-4
0.33900	-3
0.34267	-5
0.34633	-7
0.35000	-10
0.35367	-12
0.35733	-12
0.36100	-13
0.36467	-12
0.36833	-10
0.37200	-8
0.37567	-7
0.37933	-6
0.38300	-6
0.38667	-8
0.39033	-8
0.39400	-8
0.39767	-8
0.40133	-7
0.40500	-4
0.40867	-4
0.41233	-5
0.41600	-6
0.41967	-7
0.42333	-8
0.42700	-5
0.43067	-5
0.43433	-6
0.43800	-8
0.44167	-8
0.44533	-9
0.44900	-9
0.45267	-7
0.45633	-4
0.46000	-4
0.46367	-6
0.46733	-6
0.47100	-6
0.47467	-6
0.47833	-6
0.48200	-8
0.48567	-11
0.48933	-12
0.49300	-11
0.49667	-10
0.50033	-9
0.50400	-8
0.50767	-8
0.51133	-8
0.51500	-10
0.51867	-9
0.52233	-8
0.52600	-11
0.52967	-13
0.53333	-12
0.53700	-13
0.54067	-14
0.54433	-14
0.54800	-13
0.55167	-12
0.55533	-11
0.55900	-11
0.56267	-14
0.56633	-15
0.57000	-15
0.57367	-13
0.57733	-11
0.58100	-9
0.58467	-8
0.58833	-10
0.59200	-10
0.59567	-10
0.59933	-10
0.60300	-11
0.60667	-12
0.61033	-11
0.61400	-10
0.61767	-8
0.62133	-8
0.62500	-10
0.62867	-13
0.63233	-15
0.63600	-16
0.63967	-16
0.64333	-15
0.64700	-15
0.65067	-14
0.65433	-13
0.65800	-13
0.66167	-12
0.66533	-13
0.66900	-11
0.67267	-11
0.67633	-11
0.68000	-9
0.68367	-7
0.68733	-6
0.69100	-10
0.69467	-13
0.69833	-16
0.70200	-17
0.70567	-17
0.70933	-17
0.71300	-15
0.71667	-13
0.72033	-14
0.72400	-15
0.72767	-16
0.73133	-17
0.73500	-18
0.73867	-18
0.74233	-18
0.74600	-17
0.74967	-15
0.75333	-15
0.75700	-14
0.76067	-12
0.76433	-8
0.76800	-6
0.77167	-6
0.77533	-5
0.77900	-4
0.78267	-6
0.78633	-6
0.79000	-8
0.79367	-7
0.79733	-8
0.80100	-10
0.80467	-13
0.80833	-15
0.81200	-14
0.81567	-13
0.81933	-13
0.82300	-14
0.82667	-15
0.83033	-14
0.83400	-13
0.83767	-13
0.84133	-13
0.84500	-13
0.84867	-13
0.85233	-12
0.85600	-12
0.85967	-14
0.86333	-18
0.86700	-18
0.87067	-18
0.87433	-17
0.87800	-16
0.88167	-16
0.88533	-18
0.88900	-19
0.89267	-20
0.89633	-20
0.90000	-21
0.90367	-20
0.90733	-19
0.91100	-19
0.91467	-17
0.91833	-16
0.92200	-16
0.92567	-16
0.92933	-14
0.93300	-14
0.93667	-14
0.94033	-15
0.94400	-16
0.94767	-17
0.95133	-18
0.95500	-18
0.95867	-17
0.96233	-16
0.96600	-15
0.96967	-14
0.97333	-14
0.97700	-16
0.98067	-19
0.98433	-19
0.98800	-18
0.99167	-17
0.99533	-19
0.99900	-21
1.00267	-20
1.00633	-20
1.01000	-20
1.01367	-22
1.01733	-25
1.02100	-27
1.02467	-29
1.02833	-25
1.03200	-20
1.03567	-17
1.03933	-17
1.04300	-20
1.04667	-21
1.05033	-20
1.05400	-20
1.05767	-20
1.06133	-20
1.06500	-19
1.06867	-19
1.07233	-20
1.07600	-19
1.07967	-19
1.08333	-20
1.08700	-20
1.09067	-22
1.09433	-23
1.09800	-23
1.10167	-22
1.10533	-22
1.10900	-22
1.11267	-22
1.11633	-22
1.12000	-21
1.12367	-20
1.12733	-20
1.13100	-19
1.13467	-20
1.13833	-18
1.14200	-16
1.14567	-17
1.14933	-18
1.15300	-19
1.15667	-22
1.16033	-25
1.16400	-27
1.16767	-26
1.17133	-26
1.17500	-25
1.17867	-24
1.18233	-22
1.18600	-19
1.18967	-19
1.19333	-19
1.19700	-19
1.20067	-20
1.20433	-20
1.20800	-22
1.21167	-23
1.21533	-23
1.21900	-21
1.22267	-21
1.22633	-20
1.23000	-19
1.23367	-20
1.23733	-20
1.24100	-21
1.24467	-20
1.24833	-19
1.25200	-18
1.25567	-18
1.25933	-17
1.26300	-17
1.26667	-19
1.27033	-19
1.27400	-19
1.27767	-20
1.28133	-22
1.28500	-24
1.28867	-27
1.29233	-26
1.29600	-25
1.29967	-24
1.30333	-22
1.30700	-21
1.31067	-20
1.31433	-19
1.31800	-19
1.32167	-19
1.32533	-19
1.32900	-21
1.33267	-24
1.33633	-25
1.34000	-27
1.34367	-27
1.34733	-24
1.35100	-23
1.35467	-23
1.35833	-25
1.36200	-26
1.36567	-24
1.36933	-23
1.37300	-21
1.37667	-19
1.38033	-21
1.38400	-22
1.38767	-25
1.39133	-26
1.39500	-23
1.39867	-21
1.40233	-21
1.40600	-22
1.40967	-24
1.41333	-26
1.41700	-24
1.42067	-22
1.42433	-21
1.42800	-21
1.43167	-20
1.43533	-20
1.43900	-19
1.44267	-20
1.44633	-21
1.45000	-20
1.45367	-20
1.45733	-19
1.46100	-19
1.46467	-19
1.46833	-21
1.47200	-24
1.47567	-27
1.47933	-28
1.48300	-26
1.48667	-24
1.49033	-24
1.49400	-22
1.49767	-21
1.50133	-21
1.50500	-26
1.50867	-27
1.51233	-24
1.51600	-23
1.51967	-26
1.52333	-27
1.52700	-28
1.53067	-31
1.53433	-32
1.53800	-32
1.54167	-29
1.54533	-25
1.54900	-25
1.55267	-23
1.55633	-24
1.56000	-26
1.56367	-27
1.56733	-29
1.57100	-27
1.57467	-26
1.57833	-25
1.58200	-26
1.58567	-26
1.58933	-27
1.59300	-27
1.59667	-27
1.60033	-27
1.60400	-29
1.60767	-28
1.61133	-28
1.61500	-27
1.61867	-26
1.62233	-25
1.62600	-22
1.62967	-23
1.63333	-24
1.63700	-24
1.64067	-21
1.64433	-19
1.64800	-18
1.65167	-20
1.65533	-20
1.65900	-16
1.66267	-13
1.66633	-12
1.67000	-10
1.67367	-6
1.67733	-3
1.68100	-1
1.68467	-3
1.68833	-4
1.69200	-7
1.69567	-8
1.69933	-8
1.70300	-10
1.70667	-11
1.71033	-10
1.71400	-8
1.71767	-6
1.72133	-5
1.72500	-3
1.72867	-1
1.73233	1
1.73600	2
1.73967	2
1.74333	-1
1.74700	-3
1.75067	-1
1.75433	2
1.75800	5
1.76167	7
1.76533	8
1.76900	9
1.77267	6
1.77633	2
1.78000	-1
1.78367	-2
1.78733	-0
1.79100	2
1.79467	4
1.79833	6
1.80200	8
1.80567	8
1.80933	7
1.81300	8
1.81667	9
1.82033	8
1.82400	8
1.82767	9
1.83133	11
1.83500	14
1.83867	19
1.84233	22
1.84600	22
1.84967	22
1.85333	21
1.85700	20
1.86067	21
1.86433	23
1.86800	24
1.87167	27
1.87533	28
1.87900	26
1.88267	24
1.88633	23
1.89000	23
1.89367	25
1.89733	25
1.90100	26
1.90467	28
1.90833	30
1.91200	30
1.91567	30
1.91933	31
1.92300	33
1.92667	35
1.93033	36
1.93400	37
1.93767	36
1.94133	37
1.94500	38
1.94867	42
1.95233	44
1.95600	45
1.95967	46
1.96333	47
1.96700	46
1.97067	47
1.97433	48
1.97800	50
1.98167	50
1.98533	50
1.98900	53
1.99267	54
1.99633	54
2.00000	55
2.00367	57
2.00733	56
2.01100	53
2.01467	52
2.01833	53
2.02200	57
2.02567	59
2.02933	59
2.03300	60
2.03667	62
2.04033	62
2.04400	60
2.04767	61
2.05133	62
2.05500	64
2.05867	62
2.06233	61
2.06600	63
2.06967	67
2.07333	71
2.07700	72
2.08067	72
2.08433	72
2.08800	71
2.09167	72
2.09533	73
2.09900	75
2.10267	77
2.10633	80
2.11000	82
2.11367	84
2.11733	86
2.12100	86
2.12467	85
2.12833	84
2.13200	85
2.13567	87
2.13933	90
2.14300	92
2.14667	94
2.15033	96
2.15400	97
2.15767	95
2.16133	96
2.16500	97
2.16867	98
2.17233	102
2.17600	104
2.17967	108
2.18333	109
2.18700	107
2.19067	110
2.19433	114
2.19800	115
2.20167	113
2.20533	110
2.20900	110
2.21267	113
2.21633	115
2.22000	117
2.22367	118
2.22733	119
2.23100	121
2.23467	122
2.23833	124
2.24200	127
2.24567	128
2.24933	128
2.25300	130
2.25667	134
2.26033	139
2.26400	144
2.26767	147
2.27133	148
2.27500	149
2.27867	148
2.28233	148
2.28600	151
2.28967	151
2.29333	151
2.29700	152
2.30067	153
2.30433	153
2.30800	154
2.31167	156
2.31533	158
2.31900	159
2.32267	162
2.32633	164
2.33000	166
2.33367	167
2.33733	168
2.34100	171
2.34467	172
2.34833	175
2.35200	180
2.35567	185
2.35933	189
2.36300	192
2.36667	193
2.37033	192
2.37400	192
2.37767	196
2.38133	196
2.38500	193
2.38867	191
2.39233	190
2.39600	191
2.39967	194
2.40333	196
2.40700	201
2.41067	207
2.41433	210
2.41800	213
2.42167	216
2.42533	218
2.42900	221
2.43267	220
2.43633	218
2.44000	217
2.44367	241
2.44733	298
2.45100	361
2.45467	401
2.45833	409
2.46200	400
2.46567	389
2.46933	377
2.47300	360
2.47667	334
2.48033	304
2.48400	273
2.48767	248
2.49133	228
2.49500	212
2.49867	206
2.50233	205
2.50600	207
2.50967	210
2.51333	213
2.51700	208
2.52067	196
2.52433	181
2.52800	166
2.53167	151
2.53533	139
2.53900	128
2.54267	120
2.54633	115
2.55000	112
2.55367	110
2.55733	110
2.56100	109
2.56467	112
2.56833	116
2.57200	120
2.57567	124
2.57933	132
2.58300	139
2.58667	147
2.59033	156
2.59400	163
2.59767	169
2.60133	171
2.60500	166
2.60867	153
2.61233	130
2.61600	102
2.61967	68
2.62333	29
2.62700	-13
2.63067	-50
2.63433	-84
2.63800	-114
2.64167	-138
2.64533	-158
2.64900	-173
2.65267	-179
2.65633	-177
2.66000	-176
2.66367	-170
2.66733	-161
2.67100	-153
2.67467	-147
2.67833	-140
2.68200	-130
2.68567	-119
2.68933	-109
2.69300	-98
2.69667	-88
2.70033	-77
2.70400	-65
2.70767	-57
2.71133	-51
2.71500	-45
2.71867	-38
2.72233	-31
2.72600	-22
2.72967	-13
2.73333	-5
2.73700	3
2.74067	10
2.74433	18
2.74800	24
2.75167	28
2.75533	30
2.75900	34
2.76267	39
2.76633	45
2.77000	49
2.77367	52
2.77733	57
2.78100	64
2.78467	71
2.78833	75
2.79200	78
2.79567	80
2.79933	83
2.80300	85
2.80667	86
2.81033	90
2.81400	91
2.81767	94
2.82133	102
2.82500	123
2.82867	173
2.83233	289
2.83600	532
2.83967	970
2.84333	1672
2.84700	2698
2.85067	4064
2.85433	5740
2.85800	7645
2.86167	9653
2.86533	11609
2.86900	13361
2.87267	14771
2.87633	15749
2.88000	16253
2.88367	16291
2.88733	15925
2.89100	15237
2.89467	14316
2.89833	13246
2.90200	12106
2.90567	10954
2.90933	9831
2.91300	8767
2.91667	7773
2.92033	6863
2.92400	6037
2.92767	5298
2.93133	4634
2.93500	4044
2.93867	3523
2.94233	3065
2.94600	2660
2.94967	2310
2.95333	2004
2.95700	1736
2.96067	1504
2.96433	1301
2.96800	1125
2.97167	974
2.97533	844
2.97900	732
2.98267	637
2.98633	553
2.99000	481
2.99367	420
2.99733	366
3.00100	321
3.00467	283
3.00833	251
3.01200	222
3.01567	194
3.01933	172
3.02300	155
3.02667	138
3.03033	124
3.03400	111
3.03767	99
3.04133	88
3.04500	78
3.04867	74
3.05233	73
3.05600	70
3.05967	66
3.06333	60
3.06700	59
3.07067	57
3.07433	55
3.07800	55
3.08167	54
3.08533	52
3.08900	49
3.09267	46
3.09633	43
3.10000	41
3.10367	40
3.10733	38
3.11100	37
3.11467	37
3.11833	38
3.12200	39
3.12567	40
3.12933	41
3.13300	39
3.13667	36
3.14033	31
3.14400	29
3.14767	31
3.15133	32
3.15500	32
3.15867	34
3.16233	34
3.16600	35
3.16967	34
3.17333	33
3.17700	32
3.18067	33
3.18433	34
3.18800	36
3.19167	37
3.19533	39
3.19900	40
3.20267	41
3.20633	42
3.21000	42
3.21367	44
3.21733	46
3.22100	45
3.22467	43
3.22833	43
3.23200	41
3.23567	40
3.23933	39
3.24300	36
3.24667	34
3.25033	31
3.25400	31
3.25767	31
3.26133	30
3.26500	30
3.26867	29
3.27233	29
3.27600	25
3.27967	24
3.28333	23
3.28700	22
3.29067	23
3.29433	23
3.29800	24
3.30167	26
3.30533	24
3.30900	21
3.31267	19
3.31633	17
3.32000	16
3.32367	14
3.32733	11
3.33100	10
3.33467	9
3.33833	7
3.34200	4
3.34567	2
3.34933	1
3.35300	-1
3.35667	-3
3.36033	-4
3.36400	-5
3.36767	-7
3.37133	-10
3.37500	-10
3.37867	-12
3.38233	-14
3.38600	-15
3.38967	-14
3.39333	-15
3.39700	-18
3.40067	-23
3.40433	-25
3.40800	-27
3.41167	-27
3.41533	-27
3.41900	-31
3.42267	-32
3.42633	-31
3.43000	-31
3.43367	-34
3.43733	-36
3.44100	-37
3.44467	-39
3.44833	-41
3.45200	-42
3.45567	-42
3.45933	-45
3.46300	-50
3.46667	-50
3.47033	-51
3.47400	-52
3.47767	-51
3.48133	-50
3.48500	-52
3.48867	-53
3.49233	-51
3.49600	-52
3.49967	-53
3.50333	-53
3.50700	-53
3.51067	-50
3.51433	-49
3.51800	-50
3.52167	-52
3.52533	-56
3.52900	-59
3.53267	-58
3.53633	-57
3.54000	-56
3.54367	-54
3.54733	-51
3.55100	-50
3.55467	-50
3.55833	-51
3.56200	-55
3.56567	-57
3.56933	-58
3.57300	-59
3.57667	-59
3.58033	-58
3.58400	-58
3.58767	-55
3.59133	-54
3.59500	-55
3.59867	-55
3.60233	-57
3.60600	-58
3.60967	-58
3.61333	-57
3.61700	-57
3.62067	-57
3.62433	-55
3.62800	-54
3.63167	-54
3.63533	-55
3.63900	-54
3.64267	-53
3.64633	-52
3.65000	-52
3.65367	-52
3.65733	-52
3.66100	-52
3.66467	-49
3.66833	-48
3.67200	-48
3.67567	-49
3.67933	-49
3.68300	-48
3.68667	-48
3.69033	-48
3.69400	-48
3.69767	-49
3.70133	-51
3.70500	-48
3.70867	-48
3.71233	-48
3.71600	-47
3.71967	-46
3.72333	-46
3.72700	-44
3.73067	-42
3.73433	-40
3.73800	-40
3.74167	-42
3.74533	-42
3.74900	-44
3.75267	-44
3.75633	-42
3.76000	-43
3.76367	-44
3.76733	-42
3.77100	-40
3.77467	-39
3.77833	-39
3.78200	-38
3.78567	-37
3.78933	-37
3.79300	-39
3.79667	-40
3.80033	-40
3.80400	-40
3.80767	-40
3.81133	-38
3.81500	-39
3.81867	-39
3.82233	-38
3.82600	-36
3.82967	-31
3.83333	-30
3.83700	-33
3.84067	-32
3.84433	-31
3.84800	-30
3.85167	-31
3.85533	-30
3.85900	-29
3.86267	-30
3.86633	-29
3.87000	-29
3.87367	-29
3.87733	-30
3.88100	-28
3.88467	-25
3.88833	-25
3.89200	-24
3.89567	-23
3.89933	-23
3.90300	-22
3.90667	-24
3.91033	-25
3.91400	-25
3.91767	-25
3.92133	-22
3.92500	-21
3.92867	-20
3.93233	-19
3.93600	-18
3.93967	-18
3.94333	-19
3.94700	-20
3.95067	-22
3.95433	-22
3.95800	-21
3.96167	-21
3.96533	-18
3.96900	-17
3.97267	-18
3.97633	-16
3.98000	-14
3.98367	-12
3.98733	-11
3.99100	-11
3.99467	-13
3.99833	-16

[Status Trace (Column Oven Temperature)]
Interval(msec)	1000
# of Points	240
Start Time(min)	0.008
End Time(min)	3.992
Intensity Units	
Intensity Multiplier	1
R.Time (min)	Intensity
0.00835	35.01
0.02502	35.00
0.04168	35.00
0.05835	35.00
0.07502	35.00
0.09168	35.01
0.10835	35.01
0.12502	35.02
0.14168	35.02
0.15835	35.01
0.17502	35.02
0.19168	35.00
0.20835	34.99
0.22502	34.99
0.24168	34.99
0.25835	35.00
0.27502	35.01
0.29168	35.00
0.30835	35.00
0.32502	35.00
0.34168	35.00
0.35835	35.00
0.37502	35.00
0.39168	35.00
0.40835	35.00
0.42502	35.01
0.44168	35.00
0.45835	35.01
0.47502	35.00
0.49168	35.00
0.50835	35.01
0.52502	35.00
0.54168	35.00
0.55835	35.01
0.57502	35.01
0.59168	35.00
0.60835	35.00
0.62502	35.01
0.64168	35.00
0.65835	34.99
0.67502	34.99
0.69168	35.00
0.70835	34.99
0.72502	34.99
0.74168	35.00
0.75835	34.99
0.77502	35.00
0.79168	35.00
0.80835	35.01
0.82502	35.01
0.84168	35.02
0.85835	35.02
0.87502	35.02
0.89168	35.01
0.90835	35.01
0.92502	35.01
0.94168	35.01
0.95835	35.01
0.97502	35.01
0.99168	35.01
1.00835	35.01
1.02502	35.01
1.04168	35.00
1.05835	35.00
1.07502	35.00
1.09168	34.99
1.10835	35.00
1.12502	35.00
1.14168	34.99
1.15835	34.99
1.17502	34.99
1.19168	34.99
1.20835	35.00
1.22502	35.00
1.24168	35.00
1.25835	35.01
1.27502	35.00
1.29168	35.00
1.30835	35.00
1.32502	35.00
1.34168	35.00
1.35835	35.01
1.37502	35.01
1.39168	35.01
1.40835	35.00
1.42502	35.00
1.44168	35.00
1.45835	35.00
1.47502	35.00
1.49168	34.99
1.50835	34.99
1.52502	34.99
1.54168	34.99
1.55835	34.99
1.57502	34.99
1.59168	35.00
1.60835	35.06
1.62502	35.19
1.64168	35.38
1.65835	35.63
1.67502	35.98
1.69168	36.35
1.70835	36.70
1.72502	37.03
1.74168	37.36
1.75835	37.69
1.77502	38.03
1.79168	38.37
1.80835	38.68
1.82502	39.01
1.84168	39.36
1.85835	39.69
1.87502	40.02
1.89168	40.35
1.90835	40.68
1.92502	41.01
1.94168	41.33
1.95835	41.66
1.97502	41.99
1.99168	42.29
2.00835	42.61
2.02502	42.92
2.04168	43.24
2.05835	43.55
2.07502	43.87
2.09168	44.20
2.10835	44.54
2.12502	44.85
2.14168	45.17
2.15835	45.51
2.17502	45.83
2.19168	46.18
2.20835	46.52
2.22502	46.84
2.24168	47.17
2.25835	47.51
2.27502	47.86
2.29168	48.18
2.30835	48.53
2.32502	48.85
2.34168	49.15
2.35835	49.47
2.37502	49.70
2.39168	49.77
2.40835	49.78
2.42502	49.78
2.44168	49.78
2.45835	49.79
2.47502	49.80
2.49168	49.82
2.50835	49.82
2.52502	49.81
2.54168	49.82
2.55835	49.82
2.57502	49.83
2.59168	49.83
2.60835	49.84
2.62502	49.85
2.64168	49.84
2.65835	49.86
2.67502	49.85
2.69168	49.85
2.70835	49.87
2.72502	49.87
2.74168	49.87
2.75835	49.87
2.77502	49.87
2.79168	49.87
2.80835	49.87
2.82502	49.87
2.84168	49.89
2.85835	49.90
2.87502	49.92
2.89168	49.94
2.90835	49.97
2.92502	49.98
2.94168	49.98
2.95835	49.98
2.97502	49.99
2.99168	50.01
3.00835	50.01
3.02502	50.03
3.04168	50.04
3.05835	50.04
3.07502	50.06
3.09168	50.06
3.10835	50.07
3.12502	50.08
3.14168	50.08
3.15835	50.10
3.17502	50.10
3.19168	50.10
3.20835	50.11
3.22502	50.10
3.24168	50.10
3.25835	50.09
3.27502	50.08
3.29168	50.07
3.30835	50.06
3.32502	50.05
3.34168	50.04
3.35835	50.04
3.37502	50.04
3.39168	50.04
3.40835	50.04
3.42502	50.04
3.44168	50.04
3.45835	50.03
3.47502	50.03
3.49168	50.03
3.50835	50.04
3.52502	50.04
3.54168	50.05
3.55835	50.05
3.57502	50.05
3.59168	50.06
3.60835	50.07
3.62502	50.07
3.64168	50.07
3.65835	50.08
3.67502	50.07
3.69168	50.08
3.70835	50.08
3.72502	50.08
3.74168	50.08
3.75835	50.08
3.77502	50.08
3.79168	50.09
3.80835	50.09
3.82502	50.07
3.84168	50.07
3.85835	50.07
3.87502	50.07
3.89168	50.07
3.90835	50.07
3.92502	50.07
3.94168	50.08
3.95835	50.07
3.97502	50.07
3.99168	50.07

[Status Trace (Injection Unit Temperature)]
Interval(msec)	1000
# of Points	240
Start Time(min)	0.008
End Time(min)	3.992
Intensity Units	
Intensity Multiplier	1
R.Time (min)	Intensity
0.00835	100.00
0.02502	100.00
0.04168	100.00
0.05835	100.00
0.07502	100.00
0.09168	100.00
0.10835	100.00
0.12502	100.00
0.14168	100.00
0.15835	100.00
0.17502	100.00
0.19168	100.00
0.20835	100.00
0.22502	100.00
0.24168	100.00
0.25835	100.00
0.27502	100.00
0.29168	100.00
0.30835	100.00
0.32502	100.00
0.34168	100.00
0.35835	100.00
0.37502	100.00
0.39168	100.00
0.40835	100.00
0.42502	100.00
0.44168	100.00
0.45835	100.00
0.47502	100.01
0.49168	100.00
0.50835	100.00
0.52502	100.00
0.54168	100.00
0.55835	100.00
0.57502	100.00
0.59168	100.00
0.60835	100.00
0.62502	100.00
0.64168	100.01
0.65835	100.00
0.67502	100.01
0.69168	100.01
0.70835	100.01
0.72502	100.01
0.74168	100.00
0.75835	100.00
0.77502	100.01
0.79168	100.01
0.80835	100.00
0.82502	100.00
0.84168	100.00
0.85835	100.00
0.87502	100.01
0.89168	100.00
0.90835	100.01
0.92502	100.00
0.94168	100.01
0.95835	100.00
0.97502	100.00
0.99168	100.00
1.00835	100.00
1.02502	100.00
1.04168	100.00
1.05835	100.00
1.07502	100.00
1.09168	100.00
1.10835	100.00
1.12502	100.00
1.14168	100.00
1.15835	100.00
1.17502	100.00
1.19168	100.00
1.20835	100.00
1.22502	100.00
1.24168	100.00
1.25835	100.00
1.27502	100.00
1.29168	100.00
1.30835	100.00
1.32502	100.00
1.34168	100.00
1.35835	99.99
1.37502	100.00
1.39168	100.00
1.40835	100.00
1.42502	100.00
1.44168	100.00
1.45835	100.00
1.47502	100.00
1.49168	100.00
1.50835	100.00
1.52502	100.00
1.54168	100.00
1.55835	100.00
1.57502	100.00
1.59168	100.00
1.60835	100.00
1.62502	100.00
1.64168	100.00
1.65835	100.00
1.67502	100.00
1.69168	100.00
1.70835	100.00
1.72502	100.00
1.74168	99.99
1.75835	100.00
1.77502	100.00
1.79168	100.00
1.80835	100.00
1.82502	99.99
1.84168	99.99
1.85835	99.99
1.87502	99.99
1.89168	99.99
1.90835	99.99
1.92502	99.99
1.94168	99.99
1.95835	99.99
1.97502	99.99
1.99168	99.99
2.00835	99.99
2.02502	99.99
2.04168	99.99
2.05835	99.99
2.07502	99.99
2.09168	99.98
2.10835	99.98
2.12502	99.98
2.14168	99.98
2.15835	99.98
2.17502	99.99
2.19168	99.98
2.20835	99.98
2.22502	99.98
2.24168	99.98
2.25835	99.98
2.27502	99.98
2.29168	99.99
2.30835	99.98
2.32502	99.98
2.34168	99.98
2.35835	99.98
2.37502	99.98
2.39168	99.98
2.40835	99.98
2.42502	99.98
2.44168	99.98
2.45835	99.98
2.47502	99.98
2.49168	99.98
2.50835	99.98
2.52502	99.98
2.54168	99.99
2.55835	99.99
2.57502	99.99
2.59168	99.99
2.60835	99.99
2.62502	99.99
2.64168	99.99
2.65835	99.99
2.67502	100.00
2.69168	99.99
2.70835	100.00
2.72502	100.00
2.74168	100.00
2.75835	100.00
2.77502	100.00
2.79168	100.01
2.80835	100.01
2.82502	100.01
2.84168	100.01
2.85835	100.01
2.87502	100.01
2.89168	100.01
2.90835	100.01
2.92502	100.02
2.94168	100.02
2.95835	100.01
2.97502	100.01
2.99168	100.02
3.00835	100.02
3.02502	100.02
3.04168	100.02
3.05835	100.02
3.07502	100.03
3.09168	100.03
3.10835	100.03
3.12502	100.03
3.14168	100.03
3.15835	100.03
3.17502	100.03
3.19168	100.03
3.20835	100.04
3.22502	100.04
3.24168	100.04
3.25835	100.03
3.27502	100.04
3.29168	100.04
3.30835	100.04
3.32502	100.04
3.34168	100.04
3.35835	100.04
3.37502	100.04
3.39168	100.05
3.40835	100.05
3.42502	100.05
3.44168	100.05
3.45835	100.05
3.47502	100.05
3.49168	100.05
3.50835	100.05
3.52502	100.05
3.54168	100.05
3.55835	100.05
3.57502	100.05
3.59168	100.05
3.60835	100.05
3.62502	100.06
3.64168	100.06
3.65835	100.06
3.67502	100.06
3.69168	100.06
3.70835	100.06
3.72502	100.06
3.74168	100.05
3.75835	100.06
3.77502	100.06
3.79168	100.06
3.80835	100.06
3.82502	100.06
3.84168	100.06
3.85835	100.06
3.87502	100.06
3.89168	100.05
3.90835	100.06
3.92502	100.06
3.94168	100.05
3.95835	100.05
3.97502	100.06
3.99168	100.06

[Status Trace (Carrier Gas Pressure)]
Interval(msec)	1000
# of Points	240
Start Time(min)	0.008
End Time(min)	3.992
Intensity Units	
Intensity Multiplier	1
R.Time (min)	Intensity
0.00835	58.00
0.02502	55.35
0.04168	57.23
0.05835	59.31
0.07502	59.22
0.09168	58.03
0.10835	57.99
0.12502	58.01
0.14168	58.01
0.15835	58.00
0.17502	58.00
0.19168	58.00
0.20835	58.00
0.22502	58.00
0.24168	58.00
0.25835	58.00
0.27502	58.00
0.29168	58.00
0.30835	58.00
0.32502	58.00
0.34168	58.00
0.35835	58.00
0.37502	58.00
0.39168	58.00
0.40835	58.00
0.42502	58.00
0.44168	58.00
0.45835	58.00
0.47502	58.00
0.49168	58.00
0.50835	58.00
0.52502	58.00
0.54168	58.00
0.55835	58.00
0.57502	58.00
0.59168	58.00
0.60835	58.00
0.62502	58.00
0.64168	58.00
0.65835	58.00
0.67502	58.00
0.69168	58.00
0.70835	58.00
0.72502	58.00
0.74168	58.00
0.75835	58.00
0.77502	58.00
0.79168	58.00
0.80835	58.00
0.82502	58.00
0.84168	58.00
0.85835	58.00
0.87502	58.00
0.89168	58.00
0.90835	58.00
0.92502	58.00
0.94168	58.00
0.95835	58.00
0.97502	58.00
0.99168	58.00
1.00835	58.00
1.02502	58.00
1.04168	58.00
1.05835	58.00
1.07502	58.00
1.09168	58.00
1.10835	58.00
1.12502	58.00
1.14168	58.00
1.15835	58.00
1.17502	58.00
1.19168	58.00
1.20835	58.00
1.22502	58.00
1.24168	58.00
1.25835	58.00
1.27502	58.00
1.29168	58.00
1.30835	58.00
1.32502	58.00
1.34168	58.00
1.35835	58.00
1.37502	58.00
1.39168	58.00
1.40835	58.00
1.42502	58.00
1.44168	58.00
1.45835	58.00
1.47502	58.00
1.49168	58.00
1.50835	58.00
1.52502	58.00
1.54168	58.00
1.55835	58.00
1.57502	58.00
1.59168	58.00
1.60835	58.00
1.62502	58.00
1.64168	58.00
1.65835	58.00
1.67502	58.01
1.69168	58.00
1.70835	58.00
1.72502	58.00
1.74168	58.00
1.75835	58.00
1.77502	58.00
1.79168	58.00
1.80835	58.00
1.82502	58.00
1.84168	58.00
1.85835	58.00
1.87502	58.00
1.89168	58.00
1.90835	58.00
1.92502	58.00
1.94168	58.00
1.95835	58.00
1.97502	58.00
1.99168	58.00
2.00835	58.00
2.02502	58.00
2.04168	58.00
2.05835	58.00
2.07502	58.00
2.09168	58.00
2.10835	58.00
2.12502	58.00
2.14168	58.00
2.15835	58.00
2.17502	58.00
2.19168	58.00
2.20835	58.00
2.22502	58.00
2.24168	58.00
2.25835	58.00
2.27502	58.00
2.29168	58.00
2.30835	58.00
2.32502	58.00
2.34168	58.00
2.35835	58.00
2.37502	58.00
2.39168	57.99
2.40835	57.99
2.42502	58.00
2.44168	58.00
2.45835	58.00
2.47502	58.00
2.49168	58.00
2.50835	57.99
2.52502	57.97
2.54168	58.00
2.55835	58.00
2.57502	58.00
2.59168	58.00
2.60835	58.00
2.62502	58.00
2.64168	58.00
2.65835	58.00
2.67502	58.00
2.69168	58.00
2.70835	58.00
2.72502	58.00
2.74168	58.00
2.75835	58.00
2.77502	58.00
2.79168	58.00
2.80835	58.00
2.82502	58.00
2.84168	58.00
2.85835	58.00
2.87502	58.00
2.89168	58.00
2.90835	58.00
2.92502	58.00
2.94168	58.00
2.95835	58.00
2.97502	58.00
2.99168	58.00
3.00835	58.00
3.02502	58.00
3.04168	58.00
3.05835	58.00
3.07502	58.00
3.09168	58.00
3.10835	58.00
3.12502	58.00
3.14168	58.00
3.15835	58.00
3.17502	58.00
3.19168	58.00
3.20835	58.00
3.22502	58.00
3.24168	58.00
3.25835	58.00
3.27502	58.00
3.29168	58.00
3.30835	58.00
3.32502	58.00
3.34168	58.00
3.35835	58.00
3.37502	58.00
3.39168	58.00
3.40835	58.00
3.42502	58.00
3.44168	58.00
3.45835	58.00
3.47502	58.00
3.49168	58.00
3.50835	58.00
3.52502	58.00
3.54168	58.00
3.55835	58.00
3.57502	58.00
3.59168	58.00
3.60835	58.00
3.62502	58.00
3.64168	58.00
3.65835	58.00
3.67502	58.00
3.69168	58.00
3.70835	58.00
3.72502	58.00
3.74168	58.00
3.75835	58.00
3.77502	58.00
3.79168	58.00
3.80835	58.00
3.82502	58.00
3.84168	58.00
3.85835	58.00
3.87502	58.00
3.89168	58.00
3.90835	58.00
3.92502	58.00
3.94168	58.00
3.95835	58.00
3.97502	58.00
3.99168	58.00

[Status Trace (Carrier Gas Flow)]
Interval(msec)	1000
# of Points	240
Start Time(min)	0.008
End Time(min)	3.992
Intensity Units	
Intensity Multiplier	1
R.Time (min)	Intensity
0.00835	34.52
0.02502	34.54
0.04168	34.55
0.05835	34.55
0.07502	34.50
0.09168	34.52
0.10835	34.52
0.12502	34.52
0.14168	34.52
0.15835	34.52
0.17502	34.52
0.19168	34.52
0.20835	34.52
0.22502	34.52
0.24168	34.52
0.25835	34.52
0.27502	34.52
0.29168	34.52
0.30835	34.52
0.32502	34.52
0.34168	34.52
0.35835	34.52
0.37502	34.52
0.39168	34.52
0.40835	34.52
0.42502	34.52
0.44168	34.52
0.45835	34.52
0.47502	34.52
0.49168	34.52
0.50835	34.51
0.52502	34.52
0.54168	34.51
0.55835	34.52
0.57502	34.52
0.59168	34.52
0.60835	34.52
0.62502	34.52
0.64168	34.52
0.65835	34.52
0.67502	34.52
0.69168	34.52
0.70835	34.52
0.72502	34.52
0.74168	34.52
0.75835	34.52
0.77502	34.52
0.79168	34.52
0.80835	34.52
0.82502	34.52
0.84168	34.52
0.85835	34.52
0.87502	34.52
0.89168	34.52
0.90835	34.52
0.92502	34.52
0.94168	34.52
0.95835	34.52
0.97502	34.52
0.99168	34.52
1.00835	34.52
1.02502	34.52
1.04168	34.52
1.05835	34.52
1.07502	34.52
1.09168	34.52
1.10835	34.52
1.12502	34.52
1.14168	34.52
1.15835	34.52
1.17502	34.52
1.19168	34.52
1.20835	34.52
1.22502	34.52
1.24168	34.52
1.25835	34.52
1.27502	34.52
1.29168	34.52
1.30835	34.52
1.32502	34.52
1.34168	34.52
1.35835	34.52
1.37502	34.52
1.39168	34.52
1.40835	34.52
1.42502	34.52
1.44168	34.52
1.45835	34.52
1.47502	34.52
1.49168	34.52
1.50835	34.52
1.52502	34.52
1.54168	34.52
1.55835	34.52
1.57502	34.52
1.59168	34.52
1.60835	34.52
1.62502	34.52
1.64168	34.52
1.65835	34.52
1.67502	34.52
1.69168	34.52
1.70835	34.52
1.72502	34.52
1.74168	34.52
1.75835	34.52
1.77502	34.52
1.79168	34.52
1.80835	34.52
1.82502	34.52
1.84168	34.52
1.85835	34.52
1.87502	34.52
1.89168	34.52
1.90835	34.52
1.92502	34.52
1.94168	34.52
1.95835	34.52
1.97502	34.52
1.99168	34.52
2.00835	34.52
2.02502	34.52
2.04168	34.52
2.05835	34.52
2.07502	34.52
2.09168	34.52
2.10835	34.52
2.12502	34.52
2.14168	34.52
2.15835	34.52
2.17502	34.52
2.19168	34.52
2.20835	34.52
2.22502	34.52
2.24168	34.52
2.25835	34.52
2.27502	34.52
2.29168	34.52
2.30835	34.52
2.32502	34.52
2.34168	34.52
2.35835	34.52
2.37502	34.52
2.39168	34.52
2.40835	34.52
2.42502	34.52
2.44168	34.52
2.45835	34.52
2.47502	34.52
2.49168	34.52
2.50835	34.41
2.52502	34.52
2.54168	34.52
2.55835	34.52
2.57502	34.52
2.59168	34.52
2.60835	34.52
2.62502	34.52
2.64168	34.52
2.65835	34.52
2.67502	34.52
2.69168	34.51
2.70835	34.52
2.72502	34.52
2.74168	34.52
2.75835	34.52
2.77502	34.52
2.79168	34.52
2.80835	34.52
2.82502	34.52
2.84168	34.52
2.85835	34.52
2.87502	34.52
2.89168	34.52
2.90835	34.52
2.92502	34.52
2.94168	34.52
2.95835	34.52
2.97502	34.52
2.99168	34.52
3.00835	34.52
3.02502	34.52
3.04168	34.52
3.05835	34.52
3.07502	34.52
3.09168	34.52
3.10835	34.52
3.12502	34.52
3.14168	34.52
3.15835	34.52
3.17502	34.52
3.19168	34.52
3.20835	34.52
3.22502	34.52
3.24168	34.52
3.25835	34.52
3.27502	34.52
3.29168	34.52
3.30835	34.52
3.32502	34.52
3.34168	34.51
3.35835	34.52
3.37502	34.52
3.39168	34.52
3.40835	34.52
3.42502	34.52
3.44168	34.52
3.45835	34.52
3.47502	34.52
3.49168	34.52
3.50835	34.52
3.52502	34.52
3.54168	34.52
3.55835	34.52
3.57502	34.52
3.59168	34.52
3.60835	34.52
3.62502	34.52
3.64168	34.52
3.65835	34.52
3.67502	34.52
3.69168	34.52
3.70835	34.52
3.72502	34.52
3.74168	34.52
3.75835	34.52
3.77502	34.52
3.79168	34.52
3.80835	34.52
3.82502	34.52
3.84168	34.52
3.85835	34.52
3.87502	34.52
3.89168	34.52
3.90835	34.52
3.92502	34.52
3.94168	34.52
3.95835	34.52
3.97502	34.52
3.99168	34.52

[Status Trace (Column Flow)]
Interval(msec)	1000
# of Points	240
Start Time(min)	0.008
End Time(min)	3.992
Intensity Units	
Intensity Multiplier	1
R.Time (min)	Intensity
0.00835	5.46
0.02502	5.16
0.04168	5.38
0.05835	5.62
0.07502	5.61
0.09168	5.47
0.10835	5.46
0.12502	5.47
0.14168	5.47
0.15835	5.47
0.17502	5.47
0.19168	5.47
0.20835	5.47
0.22502	5.47
0.24168	5.47
0.25835	5.47
0.27502	5.47
0.29168	5.47
0.30835	5.47
0.32502	5.47
0.34168	5.47
0.35835	5.47
0.37502	5.47
0.39168	5.47
0.40835	5.47
0.42502	5.47
0.44168	5.47
0.45835	5.47
0.47502	5.47
0.49168	5.47
0.50835	5.47
0.52502	5.47
0.54168	5.47
0.55835	5.47
0.57502	5.47
0.59168	5.47
0.60835	5.47
0.62502	5.47
0.64168	5.47
0.65835	5.47
0.67502	5.47
0.69168	5.47
0.70835	5.47
0.72502	5.47
0.74168	5.47
0.75835	5.47
0.77502	5.47
0.79168	5.47
0.80835	5.47
0.82502	5.47
0.84168	5.46
0.85835	5.46
0.87502	5.46
0.89168	5.47
0.90835	5.47
0.92502	5.47
0.94168	5.47
0.95835	5.47
0.97502	5.47
0.99168	5.47
1.00835	5.47
1.02502	5.47
1.04168	5.47
1.05835	5.47
1.07502	5.47
1.09168	5.47
1.10835	5.47
1.12502	5.47
1.14168	5.47
1.15835	5.47
1.17502	5.47
1.19168	5.47
1.20835	5.47
1.22502	5.47
1.24168	5.47
1.25835	5.47
1.27502	5.47
1.29168	5.47
1.30835	5.47
1.32502	5.47
1.34168	5.47
1.35835	5.47
1.37502	5.47
1.39168	5.47
1.40835	5.47
1.42502	5.47
1.44168	5.47
1.45835	5.47
1.47502	5.47
1.49168	5.47
1.50835	5.47
1.52502	5.47
1.54168	5.47
1.55835	5.47
1.57502	5.47
1.59168	5.47
1.60835	5.46
1.62502	5.46
1.64168	5.45
1.65835	5.45
1.67502	5.44
1.69168	5.42
1.70835	5.41
1.72502	5.40
1.74168	5.39
1.75835	5.38
1.77502	5.37
1.79168	5.36
1.80835	5.35
1.82502	5.34
1.84168	5.33
1.85835	5.32
1.87502	5.31
1.89168	5.30
1.90835	5.29
1.92502	5.28
1.94168	5.27
1.95835	5.26
1.97502	5.25
1.99168	5.24
2.00835	5.24
2.02502	5.23
2.04168	5.22
2.05835	5.21
2.07502	5.20
2.09168	5.19
2.10835	5.18
2.12502	5.17
2.14168	5.16
2.15835	5.15
2.17502	5.14
2.19168	5.13
2.20835	5.12
2.22502	5.12
2.24168	5.11
2.25835	5.10
2.27502	5.09
2.29168	5.08
2.30835	5.07
2.32502	5.06
2.34168	5.05
2.35835	5.04
2.37502	5.04
2.39168	5.03
2.40835	5.03
2.42502	5.03
2.44168	5.03
2.45835	5.03
2.47502	5.03
2.49168	5.03
2.50835	5.03
2.52502	5.03
2.54168	5.03
2.55835	5.03
2.57502	5.03
2.59168	5.03
2.60835	5.03
2.62502	5.03
2.64168	5.03
2.65835	5.03
2.67502	5.03
2.69168	5.03
2.70835	5.03
2.72502	5.03
2.74168	5.03
2.75835	5.03
2.77502	5.03
2.79168	5.03
2.80835	5.03
2.82502	5.03
2.84168	5.03
2.85835	5.03
2.87502	5.03
2.89168	5.03
2.90835	5.03
2.92502	5.03
2.94168	5.03
2.95835	5.03
2.97502	5.03
2.99168	5.03
3.00835	5.03
3.02502	5.03
3.04168	5.03
3.05835	5.03
3.07502	5.03
3.09168	5.02
3.10835	5.02
3.12502	5.02
3.14168	5.02
3.15835	5.02
3.17502	5.02
3.19168	5.02
3.20835	5.02
3.22502	5.02
3.24168	5.02
3.25835	5.02
3.27502	5.02
3.29168	5.02
3.30835	5.02
3.32502	5.03
3.34168	5.03
3.35835	5.03
3.37502	5.03
3.39168	5.03
3.40835	5.03
3.42502	5.03
3.44168	5.03
3.45835	5.03
3.47502	5.03
3.49168	5.03
3.50835	5.03
3.52502	5.03
3.54168	5.03
3.55835	5.03
3.57502	5.02
3.59168	5.02
3.60835	5.02
3.62502	5.02
3.64168	5.02
3.65835	5.02
3.67502	5.02
3.69168	5.02
3.70835	5.02
3.72502	5.02
3.74168	5.02
3.75835	5.02
3.77502	5.02
3.79168	5.02
3.80835	5.02
3.82502	5.02
3.84168	5.02
3.85835	5.02
3.87502	5.02
3.89168	5.02
3.90835	5.02
3.92502	5.02
3.94168	5.02
3.95835	5.02
3.97502	5.02
3.99168	5.02

[Status Trace (Linear Velocity)]
Interval(msec)	1000
# of Points	240
Start Time(min)	0.008
End Time(min)	3.992
Intensity Units	
Intensity Multiplier	1
R.Time (min)	Intensity
0.00835	39.00
0.02502	37.26
0.04168	38.50
0.05835	39.86
0.07502	39.80
0.09168	39.02
0.10835	38.99
0.12502	39.01
0.14168	39.01
0.15835	39.01
0.17502	39.00
0.19168	39.00
0.20835	39.01
0.22502	39.01
0.24168	39.01
0.25835	39.00
0.27502	39.00
0.29168	39.00
0.30835	39.00
0.32502	39.00
0.34168	39.00
0.35835	39.00
0.37502	39.00
0.39168	39.00
0.40835	39.00
0.42502	39.00
0.44168	39.00
0.45835	39.00
0.47502	39.00
0.49168	39.00
0.50835	39.00
0.52502	39.00
0.54168	39.00
0.55835	39.00
0.57502	39.00
0.59168	39.00
0.60835	39.00
0.62502	39.00
0.64168	39.00
0.65835	39.00
0.67502	39.00
0.69168	39.00
0.70835	39.00
0.72502	39.00
0.74168	39.00
0.75835	39.00
0.77502	39.00
0.79168	39.00
0.80835	39.00
0.82502	39.00
0.84168	39.00
0.85835	39.00
0.87502	39.00
0.89168	39.00
0.90835	39.00
0.92502	39.00
0.94168	39.00
0.95835	39.00
0.97502	39.00
0.99168	39.00
1.00835	39.00
1.02502	39.00
1.04168	39.00
1.05835	39.00
1.07502	39.00
1.09168	39.00
1.10835	39.00
1.12502	39.00
1.14168	39.00
1.15835	39.00
1.17502	39.00
1.19168	39.00
1.20835	39.00
1.22502	39.00
1.24168	39.00
1.25835	39.00
1.27502	39.00
1.29168	39.00
1.30835	39.00
1.32502	39.00
1.34168	39.00
1.35835	39.00
1.37502	39.00
1.39168	39.00
1.40835	39.00
1.42502	39.00
1.44168	39.00
1.45835	39.00
1.47502	39.00
1.49168	39.00
1.50835	39.00
1.52502	39.00
1.54168	39.00
1.55835	39.00
1.57502	39.00
1.59168	39.00
1.60835	39.00
1.62502	38.99
1.64168	38.97
1.65835	38.95
1.67502	38.92
1.69168	38.88
1.70835	38.84
1.72502	38.81
1.74168	38.78
1.75835	38.75
1.77502	38.72
1.79168	38.68
1.80835	38.66
1.82502	38.62
1.84168	38.59
1.85835	38.56
1.87502	38.53
1.89168	38.50
1.90835	38.47
1.92502	38.44
1.94168	38.40
1.95835	38.38
1.97502	38.35
1.99168	38.31
2.00835	38.29
2.02502	38.26
2.04168	38.23
2.05835	38.20
2.07502	38.17
2.09168	38.14
2.10835	38.11
2.12502	38.08
2.14168	38.05
2.15835	38.02
2.17502	38.00
2.19168	37.96
2.20835	37.93
2.22502	37.90
2.24168	37.87
2.25835	37.85
2.27502	37.81
2.29168	37.78
2.30835	37.75
2.32502	37.72
2.34168	37.69
2.35835	37.67
2.37502	37.65
2.39168	37.63
2.40835	37.63
2.42502	37.64
2.44168	37.64
2.45835	37.64
2.47502	37.64
2.49168	37.64
2.50835	37.63
2.52502	37.62
2.54168	37.64
2.55835	37.64
2.57502	37.63
2.59168	37.63
2.60835	37.63
2.62502	37.63
2.64168	37.63
2.65835	37.63
2.67502	37.63
2.69168	37.63
2.70835	37.63
2.72502	37.63
2.74168	37.63
2.75835	37.63
2.77502	37.63
2.79168	37.63
2.80835	37.63
2.82502	37.63
2.84168	37.63
2.85835	37.63
2.87502	37.63
2.89168	37.63
2.90835	37.62
2.92502	37.62
2.94168	37.62
2.95835	37.62
2.97502	37.62
2.99168	37.62
3.00835	37.62
3.02502	37.62
3.04168	37.62
3.05835	37.62
3.07502	37.62
3.09168	37.61
3.10835	37.61
3.12502	37.61
3.14168	37.61
3.15835	37.61
3.17502	37.61
3.19168	37.61
3.20835	37.61
3.22502	37.61
3.24168	37.61
3.25835	37.61
3.27502	37.61
3.29168	37.61
3.30835	37.61
3.32502	37.62
3.34168	37.62
3.35835	37.62
3.37502	37.62
3.39168	37.62
3.40835	37.62
3.42502	37.62
3.44168	37.62
3.45835	37.62
3.47502	37.62
3.49168	37.62
3.50835	37.62
3.52502	37.62
3.54168	37.62
3.55835	37.62
3.57502	37.61
3.59168	37.61
3.60835	37.61
3.62502	37.61
3.64168	37.61
3.65835	37.61
3.67502	37.61
3.69168	37.61
3.70835	37.61
3.72502	37.61
3.74168	37.61
3.75835	37.61
3.77502	37.61
3.79168	37.61
3.80835	37.61
3.82502	37.61
3.84168	37.61
3.85835	37.61
3.87502	37.61
3.89168	37.61
3.90835	37.61
3.92502	37.61
3.94168	37.61
3.95835	37.61
3.97502	37.61
3.99168	37.61

