[Header]
Application Name	LabSolutions
Version	5.110
Data File Name	C:\Users\User\Desktop\GC Analyses\Jack\UIC Prairie Sampling\11.2.22\221102_098.gcd
Output Date	3/20/2023
Output Time	1:25:42 PM

[File Information]
Type	Data File
Generated	1/4/2023 10:59:01 AM
Generated by	System Administrator
Modified	1/4/2023 11:03:29 AM
Modified by	System Administrator

[Sample Information]
Operator Name	System Administrator
Acquired	1/4/2023 10:59:29 AM
Sample Type	1:Standard
Level	1
Sample Name	221102_UICPrairie
Sample ID	221102_UICPrairie
ISTD Amount1	1
ISTD Amount2	1
ISTD Amount3	1
ISTD Amount4	1
ISTD Amount5	1
ISTD Amount6	1
ISTD Amount7	1
ISTD Amount8	1
ISTD Amount9	1
ISTD Amount10	1
ISTD Amount11	1
ISTD Amount12	1
ISTD Amount13	1
ISTD Amount14	1
ISTD Amount15	1
ISTD Amount16	1
ISTD Amount17	1
ISTD Amount18	1
ISTD Amount19	1
ISTD Amount20	1
ISTD Amount21	1
ISTD Amount22	1
ISTD Amount23	1
ISTD Amount24	1
ISTD Amount25	1
ISTD Amount26	1
ISTD Amount27	1
ISTD Amount28	1
ISTD Amount29	1
ISTD Amount30	1
ISTD Amount31	1
ISTD Amount32	1
Sample Amount	1
Dilution Factor	1
Vial#	1
Injection Volume	1
Injection Count	1
Bar Code	

[Original Files]
Data File	C:\Users\User\Desktop\GC Analyses\Jack\UIC Prairie Sampling\11.2.22\221102_098.gcd
Method File	C:\LabSolutions\Data\GHG_4min_2022\ghg3_togas_w_acet_4 min_new_int.gcm
Batch File	
Report Format File	c:\LabSolutions\System\DEFAULT.lsr

[File Description]


[Configuration]
Instrument Name	C0B7VH3-Instrument1
Instrument #	1
Line #	1
# of Detectors	3
Detector ID	DET#1	DET#2	DET#3
Detector Name	FID	PTCD	ECD
# of Channels	1	1	1

[Peak Table(Ch1)]
# of Peaks	3
Peak#	R.Time	I.Time	F.Time	Area	Height	A/H	Conc.	Mark	ID#	Name	k'	Plate #	Plate Ht.	Tailing	Resolution	Sep.Factor	Area Ratio	Height Ratio	Conc. %	Norm Conc.
1	1.476	1.435	1.531	2558	784	3.264	100.000	   	1	CO	0.000	5284	28.386	0.000	0.000	0.000	0	0	16.667	16.667
2	1.567	1.531	1.659	20476	10414	1.966	100.000	 V 	2	CH4	0.062	11538	13.001	1.245	1.314	0.000	0	0	16.667	16.667
3	1.996	1.949	2.722	2045238	957944	2.135	400.000	   	3	CO2	0.353	17259	8.691	1.319	7.201	5.680	0	0	66.667	66.667

[Peak Table(Ch2)]
# of Peaks	0

[Peak Table(Ch3)]
# of Peaks	5
Peak#	R.Time	I.Time	F.Time	Area	Height	A/H	Conc.	Mark	ID#	Name	k'	Plate #	Plate Ht.	Tailing	Resolution	Sep.Factor	Area Ratio	Height Ratio	Conc. %	Norm Conc.
1	2.462	2.161	2.510	3309	516	6.410	0.000	   			0.000	5883	25.499	0.000	0.000	0.000	0	0	0.000	0.000
2	2.521	2.510	2.565	987	351	2.814	0.000	 V 			0.024	949	158.112	0.000	0.257	0.000	0	0	0.000	0.000
3	2.601	2.565	2.656	1031	276	3.730	0.000	 V 			0.057	1707	87.851	0.000	0.279	2.375	0	0	0.000	0.000
4	2.884	2.825	3.107	69758	17130	4.072	1.000	   	1	N2O	0.171	12529	11.972	1.713	1.591	3.026	0	0	50.000	50.000
5	3.188	3.107	3.947	10003	408	24.541	1.000	 V 	2	SF6	0.295	18	8379.559	0.000	0.195	1.722	0	0	50.000	50.000

[Compound Results(Ch1)]
# of IDs	6
ID#	Name	R.Time	Area	Height	Conc.	Curve	3rd	2nd	1st	Constant	Area Ratio	Height Ratio	Conc. %	Norm Conc.
1	CO	1.476	2558	784	100.000	Linear	0.000000e+00	0.000000e+00	2.558431e+001	0.000000e+00	0	0	16.667	16.667
2	CH4	1.567	20476	10414	100.000	Linear	0.000000e+00	0.000000e+00	2.047598e+002	0.000000e+00	0	0	16.667	16.667
3	CO2	1.996	2045238	957944	400.000	Linear	0.000000e+00	0.000000e+00	5.113094e+003	0.000000e+00	0	0	66.667	66.667
4	Ethylene	0.000	0	0	0.000	Linear	0.000000e+00	0.000000e+00	0.000000e+00	0.000000e+00	0	0	0.000	0.000
5	Acetylene	0.000	0	0	0.000	Linear	0.000000e+00	0.000000e+00	0.000000e+00	0.000000e+00	0	0	0.000	0.000
6	Ethane	0.000	0	0	0.000	Linear	0.000000e+00	0.000000e+00	0.000000e+00	0.000000e+00	0	0	0.000	0.000

[Compound Results(Ch2)]
# of IDs	5
ID#	Name	R.Time	Area	Height	Conc.	Curve	3rd	2nd	1st	Constant	Area Ratio	Height Ratio	Conc. %	Norm Conc.
1	Hydrogen	0.000	0	0	0.000	Linear	0.000000e+00	0.000000e+00	0.000000e+00	0.000000e+00	0	0	0.000	0.000
2	Oxygen	0.000	0	0	0.000	Linear	0.000000e+00	0.000000e+00	0.000000e+00	0.000000e+00	0	0	0.000	0.000
3	Nitrogen	0.000	0	0	0.000	Linear	0.000000e+00	0.000000e+00	0.000000e+00	0.000000e+00	0	0	0.000	0.000
4	Methane	0.000	0	0	0.000	Linear	0.000000e+00	0.000000e+00	0.000000e+00	0.000000e+00	0	0	0.000	0.000
5	Carbon Monoxide	0.000	0	0	0.000	Linear	0.000000e+00	0.000000e+00	0.000000e+00	0.000000e+00	0	0	0.000	0.000

[Compound Results(Ch3)]
# of IDs	2
ID#	Name	R.Time	Area	Height	Conc.	Curve	3rd	2nd	1st	Constant	Area Ratio	Height Ratio	Conc. %	Norm Conc.
1	N2O	2.884	69758	17130	1.000	Linear	0.000000e+00	0.000000e+00	6.975806e+004	0.000000e+00	0	0	50.000	50.000
2	SF6	3.188	10003	408	1.000	Linear	0.000000e+00	0.000000e+00	1.000253e+004	0.000000e+00	0	0	50.000	50.000

[Group Results(Ch1)]
# of Groups	0

[Group Results(Ch2)]
# of Groups	0

[Group Results(Ch3)]
# of Groups	0

[Chromatogram (Ch1)]
Interval(msec)	220
# of Points	1091
Start Time(min)	0.002
End Time(min)	3.998
R.Time (min)	Intensity
0.00167	-1
0.00533	-1
0.00900	1
0.01267	-0
0.01633	-2
0.02000	-3
0.02367	-3
0.02733	-2
0.03100	-5
0.03467	-8
0.03833	-11
0.04200	-15
0.04567	-18
0.04933	-20
0.05300	-21
0.05667	-20
0.06033	-17
0.06400	-15
0.06767	-14
0.07133	-14
0.07500	-14
0.07867	-11
0.08233	-10
0.08600	-12
0.08967	-15
0.09333	-15
0.09700	-13
0.10067	-12
0.10433	-10
0.10800	-10
0.11167	-15
0.11533	-21
0.11900	-25
0.12267	-26
0.12633	-24
0.13000	-19
0.13367	-14
0.13733	-11
0.14100	-12
0.14467	-16
0.14833	-22
0.15200	-25
0.15567	-26
0.15933	-27
0.16300	-25
0.16667	-22
0.17033	-16
0.17400	-9
0.17767	-4
0.18133	-2
0.18500	-2
0.18867	-3
0.19233	-4
0.19600	-4
0.19967	-5
0.20333	-6
0.20700	-9
0.21067	-14
0.21433	-17
0.21800	-19
0.22167	-23
0.22533	-29
0.22900	-33
0.23267	-36
0.23633	-34
0.24000	-29
0.24367	-25
0.24733	-23
0.25100	-25
0.25467	-27
0.25833	-27
0.26200	-22
0.26567	-20
0.26933	-20
0.27300	-23
0.27667	-26
0.28033	-26
0.28400	-26
0.28767	-29
0.29133	-34
0.29500	-35
0.29867	-33
0.30233	-30
0.30600	-32
0.30967	-36
0.31333	-36
0.31700	-32
0.32067	-27
0.32433	-22
0.32800	-20
0.33167	-20
0.33533	-24
0.33900	-30
0.34267	-33
0.34633	-34
0.35000	-33
0.35367	-27
0.35733	-19
0.36100	-12
0.36467	-8
0.36833	-8
0.37200	-10
0.37567	-12
0.37933	-14
0.38300	-18
0.38667	-27
0.39033	-38
0.39400	-45
0.39767	-47
0.40133	-46
0.40500	-41
0.40867	-40
0.41233	-45
0.41600	-49
0.41967	-50
0.42333	-47
0.42700	-45
0.43067	-43
0.43433	-41
0.43800	-40
0.44167	-42
0.44533	-47
0.44900	-52
0.45267	-51
0.45633	-43
0.46000	-34
0.46367	-28
0.46733	-23
0.47100	-21
0.47467	-18
0.47833	-13
0.48200	-9
0.48567	-10
0.48933	-16
0.49300	-20
0.49667	-21
0.50033	-19
0.50400	-13
0.50767	-9
0.51133	-7
0.51500	-8
0.51867	-9
0.52233	-9
0.52600	-9
0.52967	-10
0.53333	-14
0.53700	-20
0.54067	-30
0.54433	-37
0.54800	-36
0.55167	-31
0.55533	-29
0.55900	-27
0.56267	-23
0.56633	-19
0.57000	-14
0.57367	-8
0.57733	-4
0.58100	-3
0.58467	-2
0.58833	-2
0.59200	-1
0.59567	1
0.59933	1
0.60300	2
0.60667	2
0.61033	-2
0.61400	-12
0.61767	-21
0.62133	-24
0.62500	-25
0.62867	-24
0.63233	-25
0.63600	-28
0.63967	-31
0.64333	-34
0.64700	-35
0.65067	-31
0.65433	-23
0.65800	-17
0.66167	-19
0.66533	-26
0.66900	-32
0.67267	-36
0.67633	-37
0.68000	-36
0.68367	-32
0.68733	-27
0.69100	-23
0.69467	-18
0.69833	-13
0.70200	-9
0.70567	-7
0.70933	-4
0.71300	-2
0.71667	-2
0.72033	-2
0.72400	-2
0.72767	-3
0.73133	-4
0.73500	-7
0.73867	-9
0.74233	-11
0.74600	-17
0.74967	-24
0.75333	-30
0.75700	-34
0.76067	-35
0.76433	-34
0.76800	-31
0.77167	-29
0.77533	-30
0.77900	-29
0.78267	-27
0.78633	-25
0.79000	-23
0.79367	-22
0.79733	-24
0.80100	-26
0.80467	-29
0.80833	-31
0.81200	-30
0.81567	-26
0.81933	-22
0.82300	-20
0.82667	-17
0.83033	-15
0.83400	-17
0.83767	-23
0.84133	-29
0.84500	-34
0.84867	-37
0.85233	-36
0.85600	-33
0.85967	-30
0.86333	-28
0.86700	-27
0.87067	-25
0.87433	-25
0.87800	-27
0.88167	-29
0.88533	-30
0.88900	-30
0.89267	-25
0.89633	-22
0.90000	-21
0.90367	-20
0.90733	-21
0.91100	-22
0.91467	-24
0.91833	-25
0.92200	-26
0.92567	-28
0.92933	-30
0.93300	-30
0.93667	-28
0.94033	-28
0.94400	-31
0.94767	-34
0.95133	-36
0.95500	-35
0.95867	-31
0.96233	-29
0.96600	-29
0.96967	-30
0.97333	-32
0.97700	-32
0.98067	-30
0.98433	-29
0.98800	-31
0.99167	-35
0.99533	-37
0.99900	-36
1.00267	-37
1.00633	-41
1.01000	-43
1.01367	-44
1.01733	-46
1.02100	-46
1.02467	-45
1.02833	-47
1.03200	-49
1.03567	-49
1.03933	-50
1.04300	-51
1.04667	-54
1.05033	-58
1.05400	-61
1.05767	-62
1.06133	-60
1.06500	-57
1.06867	-52
1.07233	-45
1.07600	-40
1.07967	-40
1.08333	-44
1.08700	-46
1.09067	-47
1.09433	-44
1.09800	-39
1.10167	-33
1.10533	-28
1.10900	-28
1.11267	-32
1.11633	-38
1.12000	-41
1.12367	-41
1.12733	-41
1.13100	-42
1.13467	-45
1.13833	-49
1.14200	-53
1.14567	-56
1.14933	-56
1.15300	-56
1.15667	-54
1.16033	-49
1.16400	-44
1.16767	-41
1.17133	-40
1.17500	-40
1.17867	-41
1.18233	-42
1.18600	-47
1.18967	-49
1.19333	-50
1.19700	-49
1.20067	-47
1.20433	-48
1.20800	-50
1.21167	-51
1.21533	-52
1.21900	-51
1.22267	-48
1.22633	-45
1.23000	-45
1.23367	-48
1.23733	-52
1.24100	-56
1.24467	-61
1.24833	-64
1.25200	-67
1.25567	-70
1.25933	-69
1.26300	-68
1.26667	-66
1.27033	-65
1.27400	-64
1.27767	-64
1.28133	-65
1.28500	-66
1.28867	-68
1.29233	-70
1.29600	-70
1.29967	-68
1.30333	-64
1.30700	-57
1.31067	-51
1.31433	-48
1.31800	-47
1.32167	-48
1.32533	-49
1.32900	-48
1.33267	-47
1.33633	-47
1.34000	-47
1.34367	-46
1.34733	-47
1.35100	-49
1.35467	-54
1.35833	-62
1.36200	-69
1.36567	-74
1.36933	-77
1.37300	-79
1.37667	-83
1.38033	-85
1.38400	-87
1.38767	-84
1.39133	-78
1.39500	-74
1.39867	-72
1.40233	-71
1.40600	-69
1.40967	-68
1.41333	-66
1.41700	-65
1.42067	-65
1.42433	-66
1.42800	-67
1.43167	-65
1.43533	-60
1.43900	-38
1.44267	52
1.44633	232
1.45000	430
1.45367	578
1.45733	667
1.46100	706
1.46467	713
1.46833	712
1.47200	715
1.47567	723
1.47933	720
1.48300	693
1.48667	635
1.49033	555
1.49400	464
1.49767	377
1.50133	299
1.50500	231
1.50867	178
1.51233	138
1.51600	107
1.51967	79
1.52333	55
1.52700	34
1.53067	20
1.53433	23
1.53800	98
1.54167	434
1.54533	1329
1.54900	2910
1.55267	4922
1.55633	6927
1.56000	8602
1.56367	9785
1.56733	10351
1.57100	10155
1.57467	9174
1.57833	7632
1.58200	5903
1.58567	4306
1.58933	3005
1.59300	2029
1.59667	1337
1.60033	861
1.60400	539
1.60767	327
1.61133	196
1.61500	122
1.61867	82
1.62233	53
1.62600	27
1.62967	5
1.63333	-11
1.63700	-24
1.64067	-34
1.64433	-44
1.64800	-51
1.65167	-58
1.65533	-63
1.65900	-66
1.66267	-70
1.66633	-73
1.67000	-75
1.67367	-82
1.67733	-85
1.68100	-86
1.68467	-84
1.68833	-83
1.69200	-83
1.69567	-83
1.69933	-82
1.70300	-80
1.70667	-81
1.71033	-86
1.71400	-93
1.71767	-99
1.72133	-104
1.72500	-105
1.72867	-103
1.73233	-98
1.73600	-92
1.73967	-87
1.74333	-84
1.74700	-81
1.75067	-76
1.75433	-70
1.75800	-64
1.76167	-61
1.76533	-61
1.76900	-66
1.77267	-73
1.77633	-81
1.78000	-87
1.78367	-87
1.78733	-83
1.79100	-79
1.79467	-76
1.79833	-73
1.80200	-69
1.80567	-65
1.80933	-61
1.81300	-58
1.81667	-61
1.82033	-67
1.82400	-74
1.82767	-77
1.83133	-74
1.83500	-72
1.83867	-72
1.84233	-76
1.84600	-79
1.84967	-81
1.85333	-82
1.85700	-81
1.86067	-75
1.86433	-71
1.86800	-71
1.87167	-72
1.87533	-69
1.87900	-62
1.88267	-57
1.88633	-56
1.89000	-58
1.89367	-59
1.89733	-59
1.90100	-60
1.90467	-63
1.90833	-61
1.91200	-54
1.91567	-47
1.91933	-41
1.92300	-38
1.92667	-41
1.93033	-45
1.93400	-48
1.93767	-49
1.94133	-52
1.94500	-58
1.94867	-57
1.95233	-37
1.95600	117
1.95967	1028
1.96333	5257
1.96700	20114
1.97067	59991
1.97433	142692
1.97800	276811
1.98167	450276
1.98533	634071
1.98900	795535
1.99267	908813
1.99633	957925
2.00000	938024
2.00367	856866
2.00733	733473
2.01100	592426
2.01467	455772
2.01833	337774
2.02200	244028
2.02567	173853
2.02933	123440
2.03300	88183
2.03667	63910
2.04033	47308
2.04400	35937
2.04767	28092
2.05133	22603
2.05500	18694
2.05867	15847
2.06233	13723
2.06600	12092
2.06967	10803
2.07333	9759
2.07700	8895
2.08067	8171
2.08433	7559
2.08800	7033
2.09167	6574
2.09533	6169
2.09900	5809
2.10267	5485
2.10633	5197
2.11000	4940
2.11367	4707
2.11733	4494
2.12100	4298
2.12467	4118
2.12833	3952
2.13200	3797
2.13567	3649
2.13933	3507
2.14300	3372
2.14667	3249
2.15033	3141
2.15400	3049
2.15767	2963
2.16133	2872
2.16500	2778
2.16867	2687
2.17233	2603
2.17600	2523
2.17967	2447
2.18333	2378
2.18700	2315
2.19067	2256
2.19433	2201
2.19800	2150
2.20167	2100
2.20533	2049
2.20900	2000
2.21267	1953
2.21633	1909
2.22000	1867
2.22367	1828
2.22733	1790
2.23100	1751
2.23467	1709
2.23833	1668
2.24200	1631
2.24567	1598
2.24933	1569
2.25300	1542
2.25667	1519
2.26033	1498
2.26400	1477
2.26767	1454
2.27133	1428
2.27500	1400
2.27867	1373
2.28233	1350
2.28600	1331
2.28967	1314
2.29333	1296
2.29700	1275
2.30067	1254
2.30433	1234
2.30800	1218
2.31167	1206
2.31533	1196
2.31900	1186
2.32267	1175
2.32633	1159
2.33000	1140
2.33367	1121
2.33733	1105
2.34100	1090
2.34467	1078
2.34833	1064
2.35200	1046
2.35567	1026
2.35933	1008
2.36300	993
2.36667	984
2.37033	977
2.37400	970
2.37767	964
2.38133	959
2.38500	952
2.38867	944
2.39233	934
2.39600	928
2.39967	923
2.40333	915
2.40700	908
2.41067	901
2.41433	896
2.41800	891
2.42167	887
2.42533	881
2.42900	876
2.43267	870
2.43633	861
2.44000	850
2.44367	838
2.44733	829
2.45100	826
2.45467	823
2.45833	814
2.46200	806
2.46567	802
2.46933	801
2.47300	797
2.47667	787
2.48033	773
2.48400	760
2.48767	752
2.49133	748
2.49500	744
2.49867	738
2.50233	730
2.50600	724
2.50967	722
2.51333	720
2.51700	720
2.52067	719
2.52433	716
2.52800	710
2.53167	703
2.53533	695
2.53900	689
2.54267	686
2.54633	683
2.55000	680
2.55367	676
2.55733	674
2.56100	675
2.56467	675
2.56833	674
2.57200	672
2.57567	671
2.57933	671
2.58300	666
2.58667	656
2.59033	643
2.59400	634
2.59767	632
2.60133	635
2.60500	638
2.60867	638
2.61233	635
2.61600	631
2.61967	628
2.62333	627
2.62700	626
2.63067	624
2.63433	621
2.63800	618
2.64167	620
2.64533	621
2.64900	623
2.65267	623
2.65633	622
2.66000	621
2.66367	619
2.66733	615
2.67100	611
2.67467	607
2.67833	602
2.68200	598
2.68567	595
2.68933	594
2.69300	595
2.69667	595
2.70033	591
2.70400	588
2.70767	588
2.71133	587
2.71500	584
2.71867	581
2.72233	577
2.72600	576
2.72967	575
2.73333	575
2.73700	578
2.74067	581
2.74433	586
2.74800	592
2.75167	598
2.75533	600
2.75900	599
2.76267	593
2.76633	589
2.77000	584
2.77367	578
2.77733	571
2.78100	566
2.78467	564
2.78833	564
2.79200	564
2.79567	559
2.79933	550
2.80300	543
2.80667	538
2.81033	537
2.81400	540
2.81767	543
2.82133	547
2.82500	551
2.82867	553
2.83233	552
2.83600	552
2.83967	554
2.84333	556
2.84700	557
2.85067	560
2.85433	563
2.85800	563
2.86167	558
2.86533	551
2.86900	544
2.87267	536
2.87633	533
2.88000	533
2.88367	536
2.88733	539
2.89100	543
2.89467	545
2.89833	545
2.90200	543
2.90567	539
2.90933	533
2.91300	530
2.91667	532
2.92033	536
2.92400	540
2.92767	539
2.93133	534
2.93500	533
2.93867	535
2.94233	536
2.94600	535
2.94967	531
2.95333	526
2.95700	522
2.96067	516
2.96433	509
2.96800	506
2.97167	507
2.97533	511
2.97900	516
2.98267	519
2.98633	521
2.99000	522
2.99367	524
2.99733	522
3.00100	517
3.00467	515
3.00833	513
3.01200	514
3.01567	515
3.01933	514
3.02300	515
3.02667	514
3.03033	512
3.03400	513
3.03767	513
3.04133	510
3.04500	505
3.04867	501
3.05233	499
3.05600	498
3.05967	491
3.06333	482
3.06700	473
3.07067	467
3.07433	463
3.07800	464
3.08167	469
3.08533	471
3.08900	472
3.09267	473
3.09633	474
3.10000	479
3.10367	485
3.10733	493
3.11100	499
3.11467	501
3.11833	501
3.12200	496
3.12567	489
3.12933	482
3.13300	477
3.13667	473
3.14033	470
3.14400	463
3.14767	458
3.15133	456
3.15500	459
3.15867	463
3.16233	467
3.16600	469
3.16967	470
3.17333	468
3.17700	465
3.18067	461
3.18433	460
3.18800	460
3.19167	464
3.19533	467
3.19900	464
3.20267	459
3.20633	455
3.21000	452
3.21367	449
3.21733	447
3.22100	446
3.22467	449
3.22833	455
3.23200	465
3.23567	472
3.23933	473
3.24300	468
3.24667	459
3.25033	447
3.25400	436
3.25767	430
3.26133	424
3.26500	420
3.26867	417
3.27233	416
3.27600	416
3.27967	418
3.28333	423
3.28700	428
3.29067	430
3.29433	427
3.29800	420
3.30167	413
3.30533	409
3.30900	409
3.31267	414
3.31633	422
3.32000	432
3.32367	438
3.32733	438
3.33100	430
3.33467	419
3.33833	413
3.34200	414
3.34567	418
3.34933	420
3.35300	420
3.35667	421
3.36033	422
3.36400	425
3.36767	428
3.37133	432
3.37500	432
3.37867	429
3.38233	424
3.38600	417
3.38967	411
3.39333	404
3.39700	400
3.40067	397
3.40433	395
3.40800	396
3.41167	400
3.41533	405
3.41900	409
3.42267	409
3.42633	407
3.43000	406
3.43367	404
3.43733	400
3.44100	396
3.44467	394
3.44833	395
3.45200	400
3.45567	406
3.45933	407
3.46300	404
3.46667	398
3.47033	389
3.47400	382
3.47767	379
3.48133	380
3.48500	388
3.48867	395
3.49233	394
3.49600	386
3.49967	378
3.50333	372
3.50700	369
3.51067	369
3.51433	369
3.51800	368
3.52167	370
3.52533	374
3.52900	375
3.53267	370
3.53633	364
3.54000	364
3.54367	368
3.54733	370
3.55100	369
3.55467	366
3.55833	361
3.56200	355
3.56567	351
3.56933	351
3.57300	354
3.57667	357
3.58033	359
3.58400	359
3.58767	358
3.59133	356
3.59500	354
3.59867	351
3.60233	349
3.60600	344
3.60967	338
3.61333	334
3.61700	330
3.62067	330
3.62433	332
3.62800	336
3.63167	336
3.63533	334
3.63900	334
3.64267	334
3.64633	333
3.65000	333
3.65367	331
3.65733	328
3.66100	324
3.66467	320
3.66833	317
3.67200	316
3.67567	318
3.67933	322
3.68300	326
3.68667	328
3.69033	327
3.69400	323
3.69767	322
3.70133	325
3.70500	327
3.70867	326
3.71233	323
3.71600	322
3.71967	324
3.72333	325
3.72700	325
3.73067	325
3.73433	322
3.73800	319
3.74167	317
3.74533	316
3.74900	315
3.75267	315
3.75633	315
3.76000	314
3.76367	316
3.76733	316
3.77100	313
3.77467	312
3.77833	311
3.78200	310
3.78567	309
3.78933	307
3.79300	302
3.79667	298
3.80033	297
3.80400	298
3.80767	299
3.81133	299
3.81500	294
3.81867	286
3.82233	280
3.82600	278
3.82967	280
3.83333	284
3.83700	289
3.84067	298
3.84433	306
3.84800	311
3.85167	311
3.85533	308
3.85900	306
3.86267	304
3.86633	300
3.87000	294
3.87367	285
3.87733	279
3.88100	276
3.88467	274
3.88833	273
3.89200	269
3.89567	260
3.89933	253
3.90300	252
3.90667	255
3.91033	260
3.91400	265
3.91767	270
3.92133	273
3.92500	273
3.92867	274
3.93233	273
3.93600	272
3.93967	270
3.94333	269
3.94700	268
3.95067	268
3.95433	267
3.95800	267
3.96167	270
3.96533	271
3.96900	272
3.97267	273
3.97633	275
3.98000	273
3.98367	270
3.98733	267
3.99100	269
3.99467	271
3.99833	272

[Chromatogram (Ch2)]
Interval(msec)	220
# of Points	1091
Start Time(min)	0.002
End Time(min)	3.998
R.Time (min)	Intensity
0.00167	0
0.00533	0
0.00900	1
0.01267	0
0.01633	0
0.02000	0
0.02367	0
0.02733	0
0.03100	1
0.03467	1
0.03833	1
0.04200	1
0.04567	1
0.04933	1
0.05300	1
0.05667	1
0.06033	1
0.06400	1
0.06767	0
0.07133	0
0.07500	0
0.07867	0
0.08233	0
0.08600	0
0.08967	0
0.09333	0
0.09700	1
0.10067	1
0.10433	1
0.10800	1
0.11167	1
0.11533	2
0.11900	2
0.12267	2
0.12633	2
0.13000	2
0.13367	2
0.13733	2
0.14100	2
0.14467	2
0.14833	2
0.15200	2
0.15567	2
0.15933	2
0.16300	2
0.16667	2
0.17033	1
0.17400	1
0.17767	1
0.18133	1
0.18500	1
0.18867	0
0.19233	0
0.19600	0
0.19967	-0
0.20333	-0
0.20700	-0
0.21067	-0
0.21433	-0
0.21800	-0
0.22167	-0
0.22533	0
0.22900	1
0.23267	1
0.23633	1
0.24000	1
0.24367	2
0.24733	2
0.25100	2
0.25467	2
0.25833	2
0.26200	2
0.26567	2
0.26933	2
0.27300	2
0.27667	2
0.28033	2
0.28400	2
0.28767	2
0.29133	2
0.29500	2
0.29867	2
0.30233	2
0.30600	2
0.30967	2
0.31333	1
0.31700	1
0.32067	1
0.32433	1
0.32800	1
0.33167	1
0.33533	1
0.33900	1
0.34267	1
0.34633	1
0.35000	1
0.35367	1
0.35733	1
0.36100	1
0.36467	1
0.36833	1
0.37200	1
0.37567	1
0.37933	1
0.38300	0
0.38667	0
0.39033	0
0.39400	0
0.39767	0
0.40133	0
0.40500	0
0.40867	0
0.41233	0
0.41600	0
0.41967	0
0.42333	0
0.42700	0
0.43067	-0
0.43433	-0
0.43800	-1
0.44167	-1
0.44533	-1
0.44900	-1
0.45267	-1
0.45633	-1
0.46000	-1
0.46367	-1
0.46733	-0
0.47100	-0
0.47467	-0
0.47833	-0
0.48200	-0
0.48567	-0
0.48933	-1
0.49300	-1
0.49667	-1
0.50033	-1
0.50400	-1
0.50767	-1
0.51133	-1
0.51500	-1
0.51867	-1
0.52233	-1
0.52600	-1
0.52967	-1
0.53333	-0
0.53700	-0
0.54067	-0
0.54433	-0
0.54800	0
0.55167	0
0.55533	0
0.55900	-0
0.56267	-0
0.56633	-0
0.57000	-0
0.57367	-0
0.57733	-1
0.58100	-1
0.58467	-1
0.58833	-1
0.59200	-1
0.59567	-1
0.59933	-1
0.60300	-1
0.60667	-1
0.61033	-1
0.61400	-1
0.61767	-1
0.62133	-1
0.62500	-1
0.62867	-1
0.63233	-0
0.63600	-0
0.63967	-0
0.64333	-0
0.64700	-0
0.65067	-0
0.65433	-1
0.65800	-1
0.66167	-1
0.66533	-1
0.66900	-1
0.67267	-1
0.67633	-1
0.68000	-1
0.68367	-1
0.68733	-1
0.69100	-0
0.69467	-0
0.69833	-0
0.70200	-0
0.70567	-0
0.70933	-1
0.71300	-1
0.71667	-1
0.72033	-1
0.72400	-1
0.72767	-1
0.73133	-1
0.73500	-1
0.73867	-1
0.74233	-1
0.74600	-0
0.74967	-0
0.75333	-0
0.75700	-0
0.76067	-0
0.76433	-0
0.76800	-0
0.77167	-0
0.77533	-0
0.77900	-0
0.78267	-0
0.78633	-0
0.79000	-0
0.79367	-0
0.79733	-0
0.80100	-1
0.80467	-1
0.80833	-1
0.81200	-1
0.81567	-1
0.81933	-1
0.82300	-1
0.82667	-1
0.83033	-1
0.83400	-0
0.83767	-0
0.84133	0
0.84500	0
0.84867	0
0.85233	0
0.85600	0
0.85967	0
0.86333	-0
0.86700	-0
0.87067	-1
0.87433	-1
0.87800	-1
0.88167	-1
0.88533	-1
0.88900	-1
0.89267	-1
0.89633	-1
0.90000	-1
0.90367	-1
0.90733	-1
0.91100	-1
0.91467	-1
0.91833	-2
0.92200	-2
0.92567	-1
0.92933	-1
0.93300	-1
0.93667	-1
0.94033	-1
0.94400	-1
0.94767	-1
0.95133	-1
0.95500	-1
0.95867	-1
0.96233	-1
0.96600	-1
0.96967	-1
0.97333	-1
0.97700	-1
0.98067	-1
0.98433	-1
0.98800	-1
0.99167	-1
0.99533	-1
0.99900	-1
1.00267	-1
1.00633	-1
1.01000	-1
1.01367	-1
1.01733	-1
1.02100	-1
1.02467	-1
1.02833	-1
1.03200	-1
1.03567	-1
1.03933	-1
1.04300	-1
1.04667	-1
1.05033	-1
1.05400	-1
1.05767	-1
1.06133	-1
1.06500	-1
1.06867	-1
1.07233	-1
1.07600	-2
1.07967	-2
1.08333	-2
1.08700	-2
1.09067	-2
1.09433	-2
1.09800	-2
1.10167	-2
1.10533	-2
1.10900	-2
1.11267	-2
1.11633	-2
1.12000	-2
1.12367	-2
1.12733	-2
1.13100	-2
1.13467	-2
1.13833	-2
1.14200	-2
1.14567	-2
1.14933	-2
1.15300	-2
1.15667	-2
1.16033	-2
1.16400	-2
1.16767	-2
1.17133	-2
1.17500	-2
1.17867	-2
1.18233	-2
1.18600	-2
1.18967	-2
1.19333	-1
1.19700	-1
1.20067	-1
1.20433	-1
1.20800	-0
1.21167	-0
1.21533	-0
1.21900	-0
1.22267	-0
1.22633	-0
1.23000	-0
1.23367	-0
1.23733	-0
1.24100	-0
1.24467	-0
1.24833	-1
1.25200	-1
1.25567	-1
1.25933	-1
1.26300	-1
1.26667	-1
1.27033	-1
1.27400	-2
1.27767	-2
1.28133	-2
1.28500	-2
1.28867	-2
1.29233	-2
1.29600	-2
1.29967	-2
1.30333	-2
1.30700	-2
1.31067	-2
1.31433	-2
1.31800	-2
1.32167	-2
1.32533	-2
1.32900	-2
1.33267	-2
1.33633	-2
1.34000	-2
1.34367	-2
1.34733	-1
1.35100	-1
1.35467	-1
1.35833	-1
1.36200	-1
1.36567	-1
1.36933	-1
1.37300	-1
1.37667	-2
1.38033	-2
1.38400	-2
1.38767	-2
1.39133	-2
1.39500	-2
1.39867	-2
1.40233	-2
1.40600	-2
1.40967	-2
1.41333	-2
1.41700	-2
1.42067	-2
1.42433	-2
1.42800	-2
1.43167	-2
1.43533	-2
1.43900	-2
1.44267	-2
1.44633	-2
1.45000	-2
1.45367	-2
1.45733	-2
1.46100	-2
1.46467	-2
1.46833	-1
1.47200	-1
1.47567	-1
1.47933	-1
1.48300	-1
1.48667	-1
1.49033	-1
1.49400	-1
1.49767	-1
1.50133	-2
1.50500	-2
1.50867	-2
1.51233	-2
1.51600	-2
1.51967	-2
1.52333	-3
1.52700	-2
1.53067	-2
1.53433	-2
1.53800	-2
1.54167	-2
1.54533	-2
1.54900	-2
1.55267	-2
1.55633	-2
1.56000	-2
1.56367	-2
1.56733	-1
1.57100	-1
1.57467	-1
1.57833	-1
1.58200	-1
1.58567	-1
1.58933	-2
1.59300	-3
1.59667	-3
1.60033	-4
1.60400	-5
1.60767	-7
1.61133	-8
1.61500	-10
1.61867	-12
1.62233	-14
1.62600	-17
1.62967	-20
1.63333	-22
1.63700	-26
1.64067	-29
1.64433	-33
1.64800	-36
1.65167	-40
1.65533	-43
1.65900	-47
1.66267	-51
1.66633	-55
1.67000	-60
1.67367	-65
1.67733	-70
1.68100	-75
1.68467	-79
1.68833	-84
1.69200	-88
1.69567	-91
1.69933	-94
1.70300	-96
1.70667	-99
1.71033	-101
1.71400	-102
1.71767	-103
1.72133	-104
1.72500	-105
1.72867	-106
1.73233	-107
1.73600	-109
1.73967	-109
1.74333	-110
1.74700	-110
1.75067	-110
1.75433	-110
1.75800	-111
1.76167	-111
1.76533	-112
1.76900	-112
1.77267	-113
1.77633	-113
1.78000	-114
1.78367	-115
1.78733	-115
1.79100	-115
1.79467	-115
1.79833	-114
1.80200	-113
1.80567	-113
1.80933	-112
1.81300	-113
1.81667	-113
1.82033	-114
1.82400	-114
1.82767	-115
1.83133	-115
1.83500	-115
1.83867	-115
1.84233	-115
1.84600	-115
1.84967	-115
1.85333	-115
1.85700	-114
1.86067	-114
1.86433	-113
1.86800	-113
1.87167	-113
1.87533	-113
1.87900	-113
1.88267	-113
1.88633	-114
1.89000	-114
1.89367	-114
1.89733	-114
1.90100	-114
1.90467	-114
1.90833	-114
1.91200	-114
1.91567	-114
1.91933	-114
1.92300	-113
1.92667	-113
1.93033	-112
1.93400	-112
1.93767	-111
1.94133	-111
1.94500	-111
1.94867	-110
1.95233	-110
1.95600	-111
1.95967	-111
1.96333	-111
1.96700	-111
1.97067	-111
1.97433	-111
1.97800	-111
1.98167	-111
1.98533	-111
1.98900	-111
1.99267	-110
1.99633	-110
2.00000	-110
2.00367	-110
2.00733	-109
2.01100	-109
2.01467	-109
2.01833	-108
2.02200	-108
2.02567	-108
2.02933	-108
2.03300	-108
2.03667	-108
2.04033	-107
2.04400	-107
2.04767	-107
2.05133	-106
2.05500	-106
2.05867	-106
2.06233	-105
2.06600	-105
2.06967	-104
2.07333	-104
2.07700	-103
2.08067	-103
2.08433	-102
2.08800	-102
2.09167	-101
2.09533	-101
2.09900	-101
2.10267	-100
2.10633	-100
2.11000	-100
2.11367	-100
2.11733	-100
2.12100	-100
2.12467	-100
2.12833	-100
2.13200	-99
2.13567	-98
2.13933	-97
2.14300	-97
2.14667	-96
2.15033	-96
2.15400	-95
2.15767	-95
2.16133	-95
2.16500	-94
2.16867	-94
2.17233	-94
2.17600	-94
2.17967	-93
2.18333	-93
2.18700	-92
2.19067	-92
2.19433	-92
2.19800	-92
2.20167	-92
2.20533	-92
2.20900	-91
2.21267	-91
2.21633	-91
2.22000	-91
2.22367	-91
2.22733	-91
2.23100	-91
2.23467	-91
2.23833	-91
2.24200	-90
2.24567	-90
2.24933	-89
2.25300	-88
2.25667	-88
2.26033	-87
2.26400	-86
2.26767	-86
2.27133	-86
2.27500	-86
2.27867	-86
2.28233	-86
2.28600	-87
2.28967	-87
2.29333	-87
2.29700	-87
2.30067	-86
2.30433	-85
2.30800	-84
2.31167	-82
2.31533	-81
2.31900	-80
2.32267	-80
2.32633	-80
2.33000	-81
2.33367	-81
2.33733	-82
2.34100	-82
2.34467	-82
2.34833	-82
2.35200	-81
2.35567	-80
2.35933	-78
2.36300	-75
2.36667	-73
2.37033	-70
2.37400	-66
2.37767	-63
2.38133	-59
2.38500	-55
2.38867	-52
2.39233	-48
2.39600	-44
2.39967	-40
2.40333	-37
2.40700	-33
2.41067	-31
2.41433	-28
2.41800	-26
2.42167	-24
2.42533	-22
2.42900	-19
2.43267	-17
2.43633	-15
2.44000	-13
2.44367	-11
2.44733	-9
2.45100	-8
2.45467	-6
2.45833	-4
2.46200	-3
2.46567	-1
2.46933	-0
2.47300	1
2.47667	2
2.48033	3
2.48400	4
2.48767	5
2.49133	5
2.49500	5
2.49867	6
2.50233	6
2.50600	6
2.50967	7
2.51333	8
2.51700	9
2.52067	10
2.52433	11
2.52800	11
2.53167	11
2.53533	11
2.53900	11
2.54267	11
2.54633	12
2.55000	12
2.55367	13
2.55733	14
2.56100	14
2.56467	14
2.56833	15
2.57200	15
2.57567	15
2.57933	15
2.58300	15
2.58667	16
2.59033	16
2.59400	16
2.59767	16
2.60133	16
2.60500	17
2.60867	17
2.61233	18
2.61600	18
2.61967	18
2.62333	17
2.62700	17
2.63067	17
2.63433	18
2.63800	18
2.64167	18
2.64533	18
2.64900	19
2.65267	19
2.65633	19
2.66000	20
2.66367	20
2.66733	20
2.67100	20
2.67467	20
2.67833	20
2.68200	20
2.68567	19
2.68933	19
2.69300	19
2.69667	20
2.70033	20
2.70400	20
2.70767	20
2.71133	21
2.71500	21
2.71867	22
2.72233	23
2.72600	23
2.72967	24
2.73333	25
2.73700	26
2.74067	26
2.74433	27
2.74800	27
2.75167	27
2.75533	27
2.75900	27
2.76267	26
2.76633	26
2.77000	26
2.77367	25
2.77733	25
2.78100	25
2.78467	25
2.78833	25
2.79200	25
2.79567	25
2.79933	25
2.80300	25
2.80667	25
2.81033	25
2.81400	25
2.81767	25
2.82133	25
2.82500	25
2.82867	26
2.83233	26
2.83600	26
2.83967	27
2.84333	26
2.84700	26
2.85067	24
2.85433	20
2.85800	14
2.86167	5
2.86533	-8
2.86900	-25
2.87267	-47
2.87633	-73
2.88000	-105
2.88367	-142
2.88733	-185
2.89100	-233
2.89467	-285
2.89833	-342
2.90200	-404
2.90567	-469
2.90933	-538
2.91300	-611
2.91667	-686
2.92033	-764
2.92400	-845
2.92767	-928
2.93133	-1014
2.93500	-1101
2.93867	-1191
2.94233	-1282
2.94600	-1372
2.94967	-1453
2.95333	-1512
2.95700	-1539
2.96067	-1530
2.96433	-1486
2.96800	-1415
2.97167	-1323
2.97533	-1219
2.97900	-1109
2.98267	-997
2.98633	-889
2.99000	-787
2.99367	-691
2.99733	-604
3.00100	-526
3.00467	-456
3.00833	-393
3.01200	-339
3.01567	-291
3.01933	-249
3.02300	-213
3.02667	-182
3.03033	-155
3.03400	-132
3.03767	-112
3.04133	-95
3.04500	-80
3.04867	-67
3.05233	-57
3.05600	-47
3.05967	-39
3.06333	-32
3.06700	-26
3.07067	-21
3.07433	-16
3.07800	-12
3.08167	-9
3.08533	-6
3.08900	-3
3.09267	-1
3.09633	1
3.10000	2
3.10367	4
3.10733	5
3.11100	6
3.11467	7
3.11833	7
3.12200	8
3.12567	9
3.12933	10
3.13300	10
3.13667	11
3.14033	11
3.14400	12
3.14767	12
3.15133	12
3.15500	13
3.15867	13
3.16233	14
3.16600	14
3.16967	15
3.17333	15
3.17700	16
3.18067	16
3.18433	16
3.18800	17
3.19167	17
3.19533	17
3.19900	17
3.20267	18
3.20633	18
3.21000	18
3.21367	18
3.21733	18
3.22100	18
3.22467	18
3.22833	18
3.23200	18
3.23567	18
3.23933	18
3.24300	19
3.24667	19
3.25033	19
3.25400	19
3.25767	20
3.26133	20
3.26500	20
3.26867	20
3.27233	20
3.27600	21
3.27967	21
3.28333	21
3.28700	21
3.29067	21
3.29433	21
3.29800	21
3.30167	21
3.30533	21
3.30900	21
3.31267	21
3.31633	21
3.32000	21
3.32367	21
3.32733	22
3.33100	22
3.33467	22
3.33833	23
3.34200	23
3.34567	23
3.34933	24
3.35300	24
3.35667	24
3.36033	25
3.36400	25
3.36767	25
3.37133	25
3.37500	25
3.37867	25
3.38233	26
3.38600	26
3.38967	26
3.39333	26
3.39700	26
3.40067	27
3.40433	27
3.40800	27
3.41167	27
3.41533	27
3.41900	27
3.42267	27
3.42633	26
3.43000	26
3.43367	26
3.43733	26
3.44100	26
3.44467	25
3.44833	25
3.45200	25
3.45567	24
3.45933	24
3.46300	24
3.46667	24
3.47033	24
3.47400	24
3.47767	24
3.48133	25
3.48500	25
3.48867	25
3.49233	25
3.49600	26
3.49967	26
3.50333	26
3.50700	26
3.51067	27
3.51433	27
3.51800	27
3.52167	27
3.52533	27
3.52900	27
3.53267	27
3.53633	27
3.54000	27
3.54367	27
3.54733	27
3.55100	27
3.55467	27
3.55833	27
3.56200	27
3.56567	27
3.56933	27
3.57300	27
3.57667	27
3.58033	27
3.58400	27
3.58767	26
3.59133	26
3.59500	26
3.59867	26
3.60233	26
3.60600	26
3.60967	26
3.61333	26
3.61700	26
3.62067	26
3.62433	26
3.62800	26
3.63167	26
3.63533	26
3.63900	26
3.64267	26
3.64633	26
3.65000	26
3.65367	27
3.65733	27
3.66100	27
3.66467	27
3.66833	27
3.67200	27
3.67567	27
3.67933	27
3.68300	27
3.68667	27
3.69033	27
3.69400	27
3.69767	26
3.70133	26
3.70500	26
3.70867	26
3.71233	26
3.71600	26
3.71967	26
3.72333	26
3.72700	25
3.73067	25
3.73433	25
3.73800	25
3.74167	25
3.74533	25
3.74900	25
3.75267	25
3.75633	25
3.76000	25
3.76367	26
3.76733	26
3.77100	26
3.77467	26
3.77833	26
3.78200	26
3.78567	26
3.78933	26
3.79300	26
3.79667	26
3.80033	26
3.80400	26
3.80767	26
3.81133	26
3.81500	26
3.81867	27
3.82233	27
3.82600	27
3.82967	27
3.83333	26
3.83700	26
3.84067	26
3.84433	26
3.84800	25
3.85167	25
3.85533	25
3.85900	25
3.86267	25
3.86633	25
3.87000	25
3.87367	25
3.87733	25
3.88100	25
3.88467	25
3.88833	25
3.89200	25
3.89567	26
3.89933	26
3.90300	26
3.90667	26
3.91033	26
3.91400	27
3.91767	27
3.92133	27
3.92500	27
3.92867	28
3.93233	28
3.93600	27
3.93967	27
3.94333	27
3.94700	27
3.95067	27
3.95433	27
3.95800	27
3.96167	27
3.96533	27
3.96900	27
3.97267	27
3.97633	27
3.98000	27
3.98367	27
3.98733	27
3.99100	27
3.99467	27
3.99833	27

[Chromatogram (Ch3)]
Interval(msec)	220
# of Points	1091
Start Time(min)	0.002
End Time(min)	3.998
R.Time (min)	Intensity
0.00167	-1
0.00533	-2
0.00900	-5
0.01267	-6
0.01633	-5
0.02000	-5
0.02367	-7
0.02733	-9
0.03100	-8
0.03467	-8
0.03833	-7
0.04200	-6
0.04567	-4
0.04933	-1
0.05300	-1
0.05667	-0
0.06033	-1
0.06400	-4
0.06767	-5
0.07133	-5
0.07500	-6
0.07867	-6
0.08233	-7
0.08600	-7
0.08967	-6
0.09333	-5
0.09700	-3
0.10067	-1
0.10433	-1
0.10800	-3
0.11167	-6
0.11533	-8
0.11900	-7
0.12267	-6
0.12633	-6
0.13000	-4
0.13367	-2
0.13733	-1
0.14100	-1
0.14467	0
0.14833	1
0.15200	0
0.15567	-0
0.15933	-2
0.16300	-2
0.16667	-3
0.17033	-3
0.17400	-2
0.17767	-3
0.18133	-5
0.18500	-6
0.18867	-7
0.19233	-8
0.19600	-6
0.19967	-5
0.20333	-4
0.20700	-4
0.21067	-3
0.21433	-2
0.21800	-2
0.22167	-4
0.22533	-6
0.22900	-7
0.23267	-5
0.23633	-3
0.24000	-2
0.24367	-2
0.24733	-4
0.25100	-5
0.25467	-5
0.25833	-6
0.26200	-8
0.26567	-9
0.26933	-6
0.27300	-6
0.27667	-4
0.28033	-1
0.28400	-2
0.28767	-2
0.29133	-1
0.29500	-1
0.29867	-2
0.30233	-4
0.30600	-6
0.30967	-5
0.31333	-4
0.31700	-6
0.32067	-6
0.32433	-5
0.32800	-6
0.33167	-6
0.33533	-7
0.33900	-7
0.34267	-8
0.34633	-10
0.35000	-11
0.35367	-10
0.35733	-7
0.36100	-8
0.36467	-9
0.36833	-9
0.37200	-6
0.37567	-4
0.37933	-5
0.38300	-6
0.38667	-9
0.39033	-10
0.39400	-10
0.39767	-10
0.40133	-11
0.40500	-10
0.40867	-10
0.41233	-9
0.41600	-8
0.41967	-7
0.42333	-7
0.42700	-6
0.43067	-7
0.43433	-5
0.43800	-4
0.44167	-3
0.44533	-1
0.44900	-1
0.45267	-3
0.45633	-4
0.46000	-6
0.46367	-8
0.46733	-6
0.47100	-7
0.47467	-8
0.47833	-9
0.48200	-10
0.48567	-13
0.48933	-13
0.49300	-14
0.49667	-12
0.50033	-10
0.50400	-9
0.50767	-11
0.51133	-10
0.51500	-9
0.51867	-8
0.52233	-7
0.52600	-7
0.52967	-8
0.53333	-8
0.53700	-10
0.54067	-12
0.54433	-11
0.54800	-9
0.55167	-9
0.55533	-10
0.55900	-9
0.56267	-9
0.56633	-8
0.57000	-10
0.57367	-10
0.57733	-8
0.58100	-8
0.58467	-11
0.58833	-12
0.59200	-9
0.59567	-6
0.59933	-6
0.60300	-6
0.60667	-5
0.61033	-5
0.61400	-6
0.61767	-8
0.62133	-10
0.62500	-11
0.62867	-9
0.63233	-8
0.63600	-8
0.63967	-11
0.64333	-11
0.64700	-10
0.65067	-10
0.65433	-8
0.65800	-7
0.66167	-7
0.66533	-9
0.66900	-9
0.67267	-9
0.67633	-9
0.68000	-8
0.68367	-6
0.68733	-5
0.69100	-6
0.69467	-7
0.69833	-8
0.70200	-9
0.70567	-7
0.70933	-8
0.71300	-9
0.71667	-8
0.72033	-8
0.72400	-7
0.72767	-6
0.73133	-7
0.73500	-8
0.73867	-7
0.74233	-8
0.74600	-11
0.74967	-13
0.75333	-10
0.75700	-8
0.76067	-7
0.76433	-5
0.76800	-4
0.77167	-3
0.77533	-3
0.77900	-1
0.78267	-2
0.78633	-5
0.79000	-7
0.79367	-7
0.79733	-7
0.80100	-9
0.80467	-11
0.80833	-12
0.81200	-12
0.81567	-13
0.81933	-14
0.82300	-14
0.82667	-12
0.83033	-9
0.83400	-7
0.83767	-7
0.84133	-8
0.84500	-9
0.84867	-9
0.85233	-8
0.85600	-7
0.85967	-5
0.86333	-2
0.86700	-4
0.87067	-7
0.87433	-10
0.87800	-10
0.88167	-10
0.88533	-11
0.88900	-12
0.89267	-14
0.89633	-16
0.90000	-17
0.90367	-17
0.90733	-15
0.91100	-15
0.91467	-15
0.91833	-14
0.92200	-13
0.92567	-12
0.92933	-12
0.93300	-12
0.93667	-12
0.94033	-11
0.94400	-13
0.94767	-15
0.95133	-14
0.95500	-13
0.95867	-13
0.96233	-12
0.96600	-10
0.96967	-9
0.97333	-9
0.97700	-9
0.98067	-9
0.98433	-13
0.98800	-14
0.99167	-13
0.99533	-12
0.99900	-10
1.00267	-10
1.00633	-11
1.01000	-12
1.01367	-12
1.01733	-12
1.02100	-13
1.02467	-13
1.02833	-12
1.03200	-12
1.03567	-14
1.03933	-15
1.04300	-14
1.04667	-14
1.05033	-15
1.05400	-16
1.05767	-16
1.06133	-17
1.06500	-18
1.06867	-16
1.07233	-13
1.07600	-13
1.07967	-11
1.08333	-12
1.08700	-13
1.09067	-13
1.09433	-14
1.09800	-15
1.10167	-15
1.10533	-15
1.10900	-14
1.11267	-16
1.11633	-18
1.12000	-19
1.12367	-19
1.12733	-18
1.13100	-17
1.13467	-17
1.13833	-17
1.14200	-16
1.14567	-14
1.14933	-14
1.15300	-15
1.15667	-15
1.16033	-17
1.16400	-17
1.16767	-17
1.17133	-17
1.17500	-18
1.17867	-19
1.18233	-14
1.18600	-13
1.18967	-13
1.19333	-13
1.19700	-14
1.20067	-16
1.20433	-15
1.20800	-15
1.21167	-15
1.21533	-14
1.21900	-14
1.22267	-14
1.22633	-14
1.23000	-13
1.23367	-13
1.23733	-12
1.24100	-13
1.24467	-14
1.24833	-14
1.25200	-14
1.25567	-12
1.25933	-10
1.26300	-10
1.26667	-12
1.27033	-14
1.27400	-14
1.27767	-13
1.28133	-15
1.28500	-16
1.28867	-17
1.29233	-17
1.29600	-19
1.29967	-20
1.30333	-18
1.30700	-16
1.31067	-15
1.31433	-15
1.31800	-16
1.32167	-17
1.32533	-17
1.32900	-19
1.33267	-21
1.33633	-22
1.34000	-22
1.34367	-22
1.34733	-22
1.35100	-21
1.35467	-22
1.35833	-21
1.36200	-19
1.36567	-18
1.36933	-19
1.37300	-21
1.37667	-22
1.38033	-21
1.38400	-20
1.38767	-18
1.39133	-17
1.39500	-15
1.39867	-16
1.40233	-17
1.40600	-19
1.40967	-22
1.41333	-22
1.41700	-22
1.42067	-23
1.42433	-22
1.42800	-21
1.43167	-22
1.43533	-23
1.43900	-23
1.44267	-22
1.44633	-21
1.45000	-22
1.45367	-20
1.45733	-19
1.46100	-17
1.46467	-18
1.46833	-19
1.47200	-20
1.47567	-22
1.47933	-20
1.48300	-17
1.48667	-16
1.49033	-18
1.49400	-20
1.49767	-21
1.50133	-20
1.50500	-19
1.50867	-19
1.51233	-17
1.51600	-16
1.51967	-16
1.52333	-16
1.52700	-17
1.53067	-17
1.53433	-17
1.53800	-18
1.54167	-20
1.54533	-22
1.54900	-21
1.55267	-21
1.55633	-19
1.56000	-19
1.56367	-18
1.56733	-20
1.57100	-21
1.57467	-22
1.57833	-22
1.58200	-20
1.58567	-19
1.58933	-21
1.59300	-21
1.59667	-22
1.60033	-22
1.60400	-22
1.60767	-21
1.61133	-20
1.61500	-20
1.61867	-20
1.62233	-19
1.62600	-18
1.62967	-18
1.63333	-16
1.63700	-17
1.64067	-19
1.64433	-19
1.64800	-19
1.65167	-19
1.65533	-17
1.65900	-15
1.66267	-16
1.66633	-15
1.67000	-13
1.67367	-10
1.67733	-8
1.68100	-6
1.68467	-7
1.68833	-7
1.69200	-7
1.69567	-8
1.69933	-8
1.70300	-10
1.70667	-10
1.71033	-10
1.71400	-8
1.71767	-8
1.72133	-9
1.72500	-9
1.72867	-6
1.73233	-5
1.73600	-6
1.73967	-7
1.74333	-8
1.74700	-9
1.75067	-6
1.75433	-6
1.75800	-7
1.76167	-6
1.76533	-3
1.76900	-2
1.77267	0
1.77633	1
1.78000	2
1.78367	2
1.78733	1
1.79100	1
1.79467	1
1.79833	1
1.80200	1
1.80567	2
1.80933	3
1.81300	5
1.81667	7
1.82033	9
1.82400	8
1.82767	7
1.83133	7
1.83500	10
1.83867	12
1.84233	14
1.84600	14
1.84967	11
1.85333	9
1.85700	8
1.86067	7
1.86433	7
1.86800	9
1.87167	11
1.87533	14
1.87900	14
1.88267	14
1.88633	15
1.89000	15
1.89367	16
1.89733	14
1.90100	13
1.90467	12
1.90833	12
1.91200	15
1.91567	18
1.91933	18
1.92300	19
1.92667	20
1.93033	20
1.93400	20
1.93767	21
1.94133	22
1.94500	24
1.94867	26
1.95233	27
1.95600	25
1.95967	23
1.96333	26
1.96700	28
1.97067	29
1.97433	28
1.97800	28
1.98167	29
1.98533	30
1.98900	30
1.99267	30
1.99633	31
2.00000	34
2.00367	35
2.00733	35
2.01100	37
2.01467	37
2.01833	36
2.02200	35
2.02567	33
2.02933	32
2.03300	34
2.03667	37
2.04033	38
2.04400	39
2.04767	40
2.05133	41
2.05500	43
2.05867	44
2.06233	44
2.06600	44
2.06967	43
2.07333	45
2.07700	48
2.08067	48
2.08433	48
2.08800	48
2.09167	49
2.09533	50
2.09900	51
2.10267	52
2.10633	52
2.11000	54
2.11367	56
2.11733	59
2.12100	60
2.12467	62
2.12833	64
2.13200	64
2.13567	63
2.13933	63
2.14300	62
2.14667	64
2.15033	65
2.15400	64
2.15767	64
2.16133	65
2.16500	67
2.16867	68
2.17233	70
2.17600	71
2.17967	70
2.18333	68
2.18700	70
2.19067	72
2.19433	74
2.19800	76
2.20167	78
2.20533	80
2.20900	81
2.21267	80
2.21633	80
2.22000	79
2.22367	79
2.22733	79
2.23100	80
2.23467	82
2.23833	84
2.24200	89
2.24567	90
2.24933	89
2.25300	87
2.25667	86
2.26033	84
2.26400	85
2.26767	89
2.27133	92
2.27500	92
2.27867	95
2.28233	98
2.28600	100
2.28967	100
2.29333	99
2.29700	98
2.30067	101
2.30433	104
2.30800	104
2.31167	105
2.31533	105
2.31900	105
2.32267	107
2.32633	110
2.33000	114
2.33367	116
2.33733	119
2.34100	122
2.34467	124
2.34833	121
2.35200	121
2.35567	125
2.35933	127
2.36300	127
2.36667	127
2.37033	128
2.37400	128
2.37767	127
2.38133	126
2.38500	124
2.38867	121
2.39233	122
2.39600	125
2.39967	129
2.40333	134
2.40700	138
2.41067	142
2.41433	143
2.41800	145
2.42167	147
2.42533	146
2.42900	148
2.43267	149
2.43633	149
2.44000	152
2.44367	189
2.44733	277
2.45100	370
2.45467	436
2.45833	461
2.46200	460
2.46567	453
2.46933	447
2.47300	435
2.47667	412
2.48033	384
2.48400	354
2.48767	324
2.49133	300
2.49500	282
2.49867	271
2.50233	266
2.50600	263
2.50967	264
2.51333	268
2.51700	271
2.52067	270
2.52433	263
2.52800	249
2.53167	232
2.53533	217
2.53900	202
2.54267	188
2.54633	178
2.55000	169
2.55367	162
2.55733	154
2.56100	148
2.56467	149
2.56833	150
2.57200	150
2.57567	149
2.57933	146
2.58300	145
2.58667	149
2.59033	154
2.59400	159
2.59767	162
2.60133	163
2.60500	161
2.60867	154
2.61233	140
2.61600	120
2.61967	92
2.62333	61
2.62700	30
2.63067	-2
2.63433	-33
2.63800	-60
2.64167	-84
2.64533	-102
2.64900	-116
2.65267	-127
2.65633	-135
2.66000	-139
2.66367	-139
2.66733	-136
2.67100	-132
2.67467	-128
2.67833	-120
2.68200	-112
2.68567	-103
2.68933	-96
2.69300	-88
2.69667	-80
2.70033	-70
2.70400	-62
2.70767	-55
2.71133	-47
2.71500	-39
2.71867	-34
2.72233	-30
2.72600	-24
2.72967	-16
2.73333	-11
2.73700	-7
2.74067	-2
2.74433	2
2.74800	4
2.75167	6
2.75533	10
2.75900	16
2.76267	22
2.76633	27
2.77000	31
2.77367	34
2.77733	36
2.78100	39
2.78467	44
2.78833	47
2.79200	51
2.79567	53
2.79933	57
2.80300	63
2.80667	66
2.81033	68
2.81400	69
2.81767	56
2.82133	37
2.82500	40
2.82867	91
2.83233	216
2.83600	470
2.83967	927
2.84333	1665
2.84700	2744
2.85067	4179
2.85433	5935
2.85800	7929
2.86167	10040
2.86533	12103
2.86900	13956
2.87267	15461
2.87633	16521
2.88000	17091
2.88367	17182
2.88733	16846
2.89100	16171
2.89467	15250
2.89833	14174
2.90200	13018
2.90567	11843
2.90933	10692
2.91300	9596
2.91667	8570
2.92033	7627
2.92400	6770
2.92767	6002
2.93133	5314
2.93500	4699
2.93867	4154
2.94233	3677
2.94600	3259
2.94967	2891
2.95333	2569
2.95700	2285
2.96067	2038
2.96433	1823
2.96800	1636
2.97167	1475
2.97533	1336
2.97900	1217
2.98267	1114
2.98633	1024
2.99000	947
2.99367	881
2.99733	824
3.00100	776
3.00467	735
3.00833	698
3.01200	666
3.01567	638
3.01933	614
3.02300	595
3.02667	577
3.03033	562
3.03400	548
3.03767	538
3.04133	530
3.04500	520
3.04867	512
3.05233	506
3.05600	501
3.05967	500
3.06333	498
3.06700	494
3.07067	490
3.07433	489
3.07800	487
3.08167	485
3.08533	487
3.08900	488
3.09267	487
3.09633	487
3.10000	487
3.10367	487
3.10733	488
3.11100	489
3.11467	491
3.11833	493
3.12200	493
3.12567	493
3.12933	494
3.13300	497
3.13667	498
3.14033	498
3.14400	498
3.14767	499
3.15133	503
3.15500	508
3.15867	510
3.16233	510
3.16600	509
3.16967	509
3.17333	511
3.17700	515
3.18067	519
3.18433	521
3.18800	522
3.19167	521
3.19533	518
3.19900	517
3.20267	519
3.20633	522
3.21000	523
3.21367	524
3.21733	522
3.22100	521
3.22467	520
3.22833	518
3.23200	518
3.23567	516
3.23933	516
3.24300	513
3.24667	509
3.25033	508
3.25400	511
3.25767	512
3.26133	508
3.26500	505
3.26867	501
3.27233	498
3.27600	496
3.27967	494
3.28333	493
3.28700	492
3.29067	489
3.29433	486
3.29800	483
3.30167	480
3.30533	478
3.30900	476
3.31267	473
3.31633	469
3.32000	465
3.32367	461
3.32733	459
3.33100	460
3.33467	460
3.33833	458
3.34200	454
3.34567	450
3.34933	448
3.35300	446
3.35667	444
3.36033	445
3.36400	443
3.36767	441
3.37133	437
3.37500	435
3.37867	432
3.38233	429
3.38600	429
3.38967	430
3.39333	430
3.39700	426
3.40067	423
3.40433	416
3.40800	410
3.41167	405
3.41533	402
3.41900	403
3.42267	403
3.42633	402
3.43000	403
3.43367	403
3.43733	403
3.44100	401
3.44467	399
3.44833	397
3.45200	393
3.45567	390
3.45933	388
3.46300	386
3.46667	384
3.47033	383
3.47400	383
3.47767	381
3.48133	379
3.48500	375
3.48867	372
3.49233	372
3.49600	374
3.49967	374
3.50333	373
3.50700	372
3.51067	368
3.51433	363
3.51800	361
3.52167	360
3.52533	360
3.52900	361
3.53267	359
3.53633	356
3.54000	353
3.54367	353
3.54733	353
3.55100	353
3.55467	353
3.55833	351
3.56200	348
3.56567	347
3.56933	349
3.57300	349
3.57667	347
3.58033	346
3.58400	344
3.58767	344
3.59133	342
3.59500	340
3.59867	339
3.60233	339
3.60600	336
3.60967	333
3.61333	332
3.61700	333
3.62067	335
3.62433	334
3.62800	331
3.63167	329
3.63533	329
3.63900	329
3.64267	328
3.64633	326
3.65000	324
3.65367	321
3.65733	322
3.66100	324
3.66467	324
3.66833	322
3.67200	319
3.67567	318
3.67933	317
3.68300	317
3.68667	318
3.69033	316
3.69400	312
3.69767	312
3.70133	312
3.70500	311
3.70867	310
3.71233	308
3.71600	306
3.71967	306
3.72333	306
3.72700	304
3.73067	305
3.73433	306
3.73800	308
3.74167	307
3.74533	308
3.74900	306
3.75267	303
3.75633	302
3.76000	300
3.76367	298
3.76733	296
3.77100	295
3.77467	293
3.77833	294
3.78200	293
3.78567	290
3.78933	288
3.79300	286
3.79667	282
3.80033	283
3.80400	285
3.80767	288
3.81133	287
3.81500	286
3.81867	284
3.82233	283
3.82600	282
3.82967	281
3.83333	282
3.83700	284
3.84067	285
3.84433	286
3.84800	287
3.85167	288
3.85533	287
3.85900	284
3.86267	280
3.86633	280
3.87000	282
3.87367	282
3.87733	282
3.88100	283
3.88467	283
3.88833	281
3.89200	281
3.89567	280
3.89933	280
3.90300	278
3.90667	276
3.91033	277
3.91400	278
3.91767	278
3.92133	277
3.92500	276
3.92867	276
3.93233	275
3.93600	275
3.93967	274
3.94333	272
3.94700	270
3.95067	270
3.95433	269
3.95800	269
3.96167	272
3.96533	275
3.96900	276
3.97267	279
3.97633	280
3.98000	277
3.98367	276
3.98733	275
3.99100	274
3.99467	272
3.99833	267

[Status Trace (Column Oven Temperature)]
Interval(msec)	1000
# of Points	240
Start Time(min)	0.001
End Time(min)	3.984
Intensity Units	
Intensity Multiplier	1
R.Time (min)	Intensity
0.00080	35.00
0.01747	34.99
0.03413	35.00
0.05080	34.99
0.06747	35.00
0.08413	35.01
0.10080	35.01
0.11747	35.01
0.13413	35.02
0.15080	35.01
0.16747	35.01
0.18413	35.02
0.20080	35.01
0.21747	35.02
0.23413	35.01
0.25080	34.99
0.26747	35.00
0.28413	34.99
0.30080	34.99
0.31747	34.99
0.33413	34.98
0.35080	34.98
0.36747	34.97
0.38413	34.98
0.40080	34.98
0.41747	34.98
0.43413	34.98
0.45080	34.99
0.46747	35.00
0.48413	35.00
0.50080	34.99
0.51747	34.99
0.53413	34.99
0.55080	35.00
0.56747	35.00
0.58413	34.99
0.60080	34.99
0.61747	34.99
0.63413	34.98
0.65080	34.99
0.66747	34.99
0.68413	34.99
0.70080	34.99
0.71747	34.99
0.73413	35.00
0.75080	35.00
0.76747	35.00
0.78413	35.01
0.80080	35.00
0.81747	35.00
0.83413	34.99
0.85080	34.99
0.86747	34.99
0.88413	35.00
0.90080	35.00
0.91747	35.00
0.93413	35.01
0.95080	35.01
0.96747	35.00
0.98413	34.99
1.00080	34.99
1.01747	34.99
1.03413	34.99
1.05080	35.00
1.06747	35.01
1.08413	35.00
1.10080	35.00
1.11747	35.00
1.13413	35.01
1.15080	35.01
1.16747	35.01
1.18413	35.00
1.20080	35.00
1.21747	35.00
1.23413	35.00
1.25080	35.00
1.26747	35.00
1.28413	34.99
1.30080	34.99
1.31747	35.00
1.33413	34.99
1.35080	34.99
1.36747	34.99
1.38413	35.01
1.40080	35.00
1.41747	34.99
1.43413	34.99
1.45080	34.99
1.46747	34.99
1.48413	34.99
1.50080	34.98
1.51747	34.99
1.53413	34.99
1.55080	34.99
1.56747	34.99
1.58413	34.99
1.60080	35.03
1.61747	35.13
1.63413	35.29
1.65080	35.51
1.66747	35.81
1.68413	36.17
1.70080	36.53
1.71747	36.87
1.73413	37.22
1.75080	37.55
1.76747	37.89
1.78413	38.22
1.80080	38.53
1.81747	38.87
1.83413	39.20
1.85080	39.53
1.86747	39.85
1.88413	40.17
1.90080	40.49
1.91747	40.83
1.93413	41.14
1.95080	41.48
1.96747	41.80
1.98413	42.13
2.00080	42.46
2.01747	42.78
2.03413	43.11
2.05080	43.44
2.06747	43.78
2.08413	44.10
2.10080	44.42
2.11747	44.75
2.13413	45.07
2.15080	45.40
2.16747	45.75
2.18413	46.06
2.20080	46.39
2.21747	46.72
2.23413	47.05
2.25080	47.35
2.26747	47.68
2.28413	48.03
2.30080	48.36
2.31747	48.68
2.33413	49.07
2.35080	49.37
2.36747	49.55
2.38413	49.61
2.40080	49.60
2.41747	49.61
2.43413	49.61
2.45080	49.62
2.46747	49.63
2.48413	49.65
2.50080	49.67
2.51747	49.67
2.53413	49.71
2.55080	49.72
2.56747	49.74
2.58413	49.75
2.60080	49.76
2.61747	49.79
2.63413	49.82
2.65080	49.82
2.66747	49.83
2.68413	49.85
2.70080	49.87
2.71747	49.87
2.73413	49.84
2.75080	49.84
2.76747	49.86
2.78413	49.87
2.80080	49.88
2.81747	49.88
2.83413	49.87
2.85080	49.85
2.86747	49.86
2.88413	49.87
2.90080	49.89
2.91747	49.91
2.93413	49.93
2.95080	49.94
2.96747	49.97
2.98413	49.98
3.00080	49.99
3.01747	50.01
3.03413	50.03
3.05080	50.04
3.06747	50.04
3.08413	50.04
3.10080	50.04
3.11747	50.04
3.13413	50.04
3.15080	50.05
3.16747	50.05
3.18413	50.06
3.20080	50.06
3.21747	50.06
3.23413	50.07
3.25080	50.08
3.26747	50.09
3.28413	50.09
3.30080	50.10
3.31747	50.10
3.33413	50.10
3.35080	50.09
3.36747	50.08
3.38413	50.07
3.40080	50.07
3.41747	50.06
3.43413	50.07
3.45080	50.08
3.46747	50.08
3.48413	50.07
3.50080	50.07
3.51747	50.06
3.53413	50.05
3.55080	50.05
3.56747	50.05
3.58413	50.05
3.60080	50.05
3.61747	50.05
3.63413	50.05
3.65080	50.04
3.66747	50.05
3.68413	50.04
3.70080	50.05
3.71747	50.04
3.73413	50.05
3.75080	50.06
3.76747	50.07
3.78413	50.07
3.80080	50.06
3.81747	50.05
3.83413	50.06
3.85080	50.07
3.86747	50.07
3.88413	50.06
3.90080	50.06
3.91747	50.06
3.93413	50.05
3.95080	50.05
3.96747	50.05
3.98413	50.06

[Status Trace (Injection Unit Temperature)]
Interval(msec)	1000
# of Points	240
Start Time(min)	0.001
End Time(min)	3.984
Intensity Units	
Intensity Multiplier	1
R.Time (min)	Intensity
0.00080	99.98
0.01747	99.98
0.03413	99.98
0.05080	99.98
0.06747	99.98
0.08413	99.98
0.10080	99.98
0.11747	99.98
0.13413	99.98
0.15080	99.98
0.16747	99.98
0.18413	99.98
0.20080	99.98
0.21747	99.98
0.23413	99.98
0.25080	99.98
0.26747	99.98
0.28413	99.99
0.30080	99.98
0.31747	99.99
0.33413	99.99
0.35080	99.99
0.36747	99.98
0.38413	99.98
0.40080	99.99
0.41747	99.99
0.43413	99.99
0.45080	99.99
0.46747	99.98
0.48413	99.98
0.50080	99.98
0.51747	99.98
0.53413	99.98
0.55080	99.98
0.56747	99.98
0.58413	99.98
0.60080	99.98
0.61747	99.98
0.63413	99.98
0.65080	99.98
0.66747	99.98
0.68413	99.98
0.70080	99.98
0.71747	99.98
0.73413	99.98
0.75080	99.98
0.76747	99.98
0.78413	99.98
0.80080	99.98
0.81747	99.98
0.83413	99.98
0.85080	99.98
0.86747	99.98
0.88413	99.98
0.90080	99.98
0.91747	99.98
0.93413	99.98
0.95080	99.98
0.96747	99.98
0.98413	99.98
1.00080	99.98
1.01747	99.98
1.03413	99.98
1.05080	99.98
1.06747	99.98
1.08413	99.98
1.10080	99.98
1.11747	99.98
1.13413	99.98
1.15080	99.98
1.16747	99.99
1.18413	99.98
1.20080	99.98
1.21747	99.98
1.23413	99.99
1.25080	99.98
1.26747	99.98
1.28413	99.98
1.30080	99.98
1.31747	99.98
1.33413	99.98
1.35080	99.99
1.36747	99.98
1.38413	99.98
1.40080	99.99
1.41747	99.99
1.43413	99.98
1.45080	99.98
1.46747	99.98
1.48413	99.99
1.50080	99.99
1.51747	99.98
1.53413	99.99
1.55080	99.99
1.56747	99.98
1.58413	99.99
1.60080	99.98
1.61747	99.99
1.63413	99.98
1.65080	99.98
1.66747	99.98
1.68413	99.99
1.70080	99.98
1.71747	99.98
1.73413	99.98
1.75080	99.98
1.76747	99.98
1.78413	99.99
1.80080	99.98
1.81747	99.98
1.83413	99.98
1.85080	99.99
1.86747	99.98
1.88413	99.98
1.90080	99.98
1.91747	99.98
1.93413	99.98
1.95080	99.98
1.96747	99.98
1.98413	99.98
2.00080	99.98
2.01747	99.98
2.03413	99.98
2.05080	99.98
2.06747	99.98
2.08413	99.98
2.10080	99.98
2.11747	99.97
2.13413	99.98
2.15080	99.97
2.16747	99.98
2.18413	99.98
2.20080	99.97
2.21747	99.97
2.23413	99.97
2.25080	99.97
2.26747	99.98
2.28413	99.98
2.30080	99.97
2.31747	99.97
2.33413	99.97
2.35080	99.97
2.36747	99.97
2.38413	99.97
2.40080	99.97
2.41747	99.97
2.43413	99.97
2.45080	99.97
2.46747	99.98
2.48413	99.98
2.50080	99.98
2.51747	99.98
2.53413	99.98
2.55080	99.98
2.56747	99.98
2.58413	99.98
2.60080	99.98
2.61747	99.98
2.63413	99.99
2.65080	99.99
2.66747	99.99
2.68413	99.99
2.70080	99.99
2.71747	99.99
2.73413	100.00
2.75080	100.00
2.76747	100.00
2.78413	99.99
2.80080	100.00
2.81747	100.00
2.83413	100.00
2.85080	100.00
2.86747	100.00
2.88413	100.01
2.90080	100.00
2.91747	100.01
2.93413	100.00
2.95080	100.01
2.96747	100.01
2.98413	100.01
3.00080	100.01
3.01747	100.01
3.03413	100.01
3.05080	100.01
3.06747	100.01
3.08413	100.02
3.10080	100.02
3.11747	100.02
3.13413	100.02
3.15080	100.02
3.16747	100.02
3.18413	100.02
3.20080	100.02
3.21747	100.02
3.23413	100.02
3.25080	100.02
3.26747	100.02
3.28413	100.03
3.30080	100.03
3.31747	100.03
3.33413	100.03
3.35080	100.03
3.36747	100.03
3.38413	100.03
3.40080	100.03
3.41747	100.03
3.43413	100.03
3.45080	100.03
3.46747	100.04
3.48413	100.03
3.50080	100.04
3.51747	100.04
3.53413	100.04
3.55080	100.04
3.56747	100.04
3.58413	100.04
3.60080	100.04
3.61747	100.04
3.63413	100.04
3.65080	100.04
3.66747	100.04
3.68413	100.04
3.70080	100.04
3.71747	100.04
3.73413	100.05
3.75080	100.04
3.76747	100.05
3.78413	100.05
3.80080	100.05
3.81747	100.05
3.83413	100.05
3.85080	100.05
3.86747	100.04
3.88413	100.05
3.90080	100.05
3.91747	100.05
3.93413	100.05
3.95080	100.05
3.96747	100.05
3.98413	100.04

[Status Trace (Carrier Gas Pressure)]
Interval(msec)	1000
# of Points	240
Start Time(min)	0.001
End Time(min)	3.984
Intensity Units	
Intensity Multiplier	1
R.Time (min)	Intensity
0.00080	58.00
0.01747	56.70
0.03413	56.06
0.05080	58.44
0.06747	59.90
0.08413	58.36
0.10080	57.97
0.11747	58.00
0.13413	58.01
0.15080	58.01
0.16747	58.00
0.18413	58.00
0.20080	58.00
0.21747	58.00
0.23413	58.00
0.25080	58.00
0.26747	58.00
0.28413	58.00
0.30080	58.00
0.31747	58.00
0.33413	58.00
0.35080	58.00
0.36747	58.00
0.38413	58.00
0.40080	58.00
0.41747	58.00
0.43413	58.00
0.45080	58.00
0.46747	58.00
0.48413	58.00
0.50080	58.00
0.51747	58.00
0.53413	58.00
0.55080	58.00
0.56747	58.00
0.58413	58.00
0.60080	58.00
0.61747	58.00
0.63413	58.00
0.65080	58.00
0.66747	58.00
0.68413	58.00
0.70080	58.00
0.71747	58.00
0.73413	58.00
0.75080	58.00
0.76747	58.00
0.78413	58.00
0.80080	58.00
0.81747	58.00
0.83413	58.00
0.85080	58.00
0.86747	58.00
0.88413	58.00
0.90080	58.00
0.91747	58.00
0.93413	58.00
0.95080	58.00
0.96747	58.00
0.98413	58.00
1.00080	58.00
1.01747	58.00
1.03413	58.00
1.05080	58.00
1.06747	58.00
1.08413	58.00
1.10080	58.00
1.11747	58.00
1.13413	58.00
1.15080	58.00
1.16747	58.00
1.18413	58.00
1.20080	58.00
1.21747	58.00
1.23413	58.00
1.25080	58.00
1.26747	58.00
1.28413	58.00
1.30080	58.00
1.31747	58.00
1.33413	58.00
1.35080	58.00
1.36747	58.00
1.38413	58.00
1.40080	58.00
1.41747	58.00
1.43413	58.00
1.45080	58.00
1.46747	58.00
1.48413	58.00
1.50080	58.00
1.51747	58.00
1.53413	58.00
1.55080	58.00
1.56747	58.00
1.58413	58.00
1.60080	58.00
1.61747	58.00
1.63413	58.00
1.65080	58.00
1.66747	58.01
1.68413	58.01
1.70080	58.00
1.71747	58.00
1.73413	58.00
1.75080	58.00
1.76747	58.00
1.78413	58.00
1.80080	58.00
1.81747	58.00
1.83413	58.00
1.85080	58.00
1.86747	58.00
1.88413	58.00
1.90080	58.00
1.91747	58.00
1.93413	58.00
1.95080	58.00
1.96747	58.00
1.98413	58.00
2.00080	58.00
2.01747	58.00
2.03413	58.00
2.05080	58.00
2.06747	58.00
2.08413	58.00
2.10080	58.00
2.11747	58.00
2.13413	58.00
2.15080	58.00
2.16747	58.00
2.18413	58.00
2.20080	58.00
2.21747	58.00
2.23413	58.00
2.25080	58.00
2.26747	58.00
2.28413	58.00
2.30080	58.00
2.31747	58.00
2.33413	58.00
2.35080	58.00
2.36747	57.99
2.38413	57.99
2.40080	57.99
2.41747	58.00
2.43413	58.00
2.45080	58.00
2.46747	58.00
2.48413	58.00
2.50080	58.00
2.51747	57.98
2.53413	57.99
2.55080	58.00
2.56747	58.00
2.58413	58.00
2.60080	58.00
2.61747	58.00
2.63413	58.00
2.65080	58.00
2.66747	58.00
2.68413	58.00
2.70080	58.00
2.71747	58.00
2.73413	58.00
2.75080	58.00
2.76747	58.00
2.78413	58.00
2.80080	58.00
2.81747	58.00
2.83413	58.00
2.85080	58.00
2.86747	58.00
2.88413	58.00
2.90080	58.00
2.91747	58.00
2.93413	58.00
2.95080	58.00
2.96747	58.00
2.98413	58.00
3.00080	58.00
3.01747	58.00
3.03413	58.00
3.05080	58.00
3.06747	58.00
3.08413	58.00
3.10080	58.00
3.11747	58.00
3.13413	58.00
3.15080	58.00
3.16747	58.00
3.18413	58.00
3.20080	58.00
3.21747	58.00
3.23413	58.00
3.25080	58.00
3.26747	58.00
3.28413	58.00
3.30080	58.00
3.31747	58.00
3.33413	58.00
3.35080	58.00
3.36747	58.00
3.38413	58.00
3.40080	58.00
3.41747	58.00
3.43413	58.00
3.45080	58.00
3.46747	58.00
3.48413	58.00
3.50080	58.00
3.51747	58.00
3.53413	58.00
3.55080	58.00
3.56747	58.00
3.58413	58.00
3.60080	58.00
3.61747	58.00
3.63413	58.00
3.65080	58.00
3.66747	58.00
3.68413	58.00
3.70080	58.00
3.71747	58.00
3.73413	58.00
3.75080	58.00
3.76747	58.00
3.78413	58.00
3.80080	58.00
3.81747	58.00
3.83413	58.00
3.85080	58.00
3.86747	58.00
3.88413	58.00
3.90080	58.00
3.91747	58.00
3.93413	58.00
3.95080	58.00
3.96747	58.00
3.98413	58.00

[Status Trace (Carrier Gas Flow)]
Interval(msec)	1000
# of Points	240
Start Time(min)	0.001
End Time(min)	3.984
Intensity Units	
Intensity Multiplier	1
R.Time (min)	Intensity
0.00080	34.52
0.01747	33.69
0.03413	34.54
0.05080	34.55
0.06747	34.49
0.08413	34.51
0.10080	34.52
0.11747	34.52
0.13413	34.52
0.15080	34.52
0.16747	34.52
0.18413	34.52
0.20080	34.52
0.21747	34.52
0.23413	34.52
0.25080	34.52
0.26747	34.52
0.28413	34.52
0.30080	34.52
0.31747	34.52
0.33413	34.52
0.35080	34.52
0.36747	34.52
0.38413	34.52
0.40080	34.52
0.41747	34.52
0.43413	34.52
0.45080	34.52
0.46747	34.52
0.48413	34.52
0.50080	34.52
0.51747	34.52
0.53413	34.52
0.55080	34.52
0.56747	34.52
0.58413	34.52
0.60080	34.52
0.61747	34.52
0.63413	34.52
0.65080	34.52
0.66747	34.52
0.68413	34.52
0.70080	34.52
0.71747	34.52
0.73413	34.52
0.75080	34.52
0.76747	34.52
0.78413	34.52
0.80080	34.52
0.81747	34.52
0.83413	34.52
0.85080	34.52
0.86747	34.52
0.88413	34.52
0.90080	34.52
0.91747	34.52
0.93413	34.52
0.95080	34.52
0.96747	34.52
0.98413	34.52
1.00080	34.52
1.01747	34.52
1.03413	34.52
1.05080	34.52
1.06747	34.52
1.08413	34.52
1.10080	34.52
1.11747	34.52
1.13413	34.52
1.15080	34.52
1.16747	34.52
1.18413	34.52
1.20080	34.52
1.21747	34.52
1.23413	34.52
1.25080	34.52
1.26747	34.52
1.28413	34.52
1.30080	34.52
1.31747	34.52
1.33413	34.52
1.35080	34.52
1.36747	34.52
1.38413	34.52
1.40080	34.52
1.41747	34.52
1.43413	34.52
1.45080	34.52
1.46747	34.52
1.48413	34.52
1.50080	34.52
1.51747	34.52
1.53413	34.52
1.55080	34.52
1.56747	34.52
1.58413	34.52
1.60080	34.52
1.61747	34.52
1.63413	34.52
1.65080	34.52
1.66747	34.52
1.68413	34.52
1.70080	34.52
1.71747	34.52
1.73413	34.52
1.75080	34.52
1.76747	34.52
1.78413	34.52
1.80080	34.52
1.81747	34.52
1.83413	34.52
1.85080	34.52
1.86747	34.52
1.88413	34.52
1.90080	34.52
1.91747	34.52
1.93413	34.52
1.95080	34.52
1.96747	34.52
1.98413	34.52
2.00080	34.52
2.01747	34.52
2.03413	34.52
2.05080	34.52
2.06747	34.52
2.08413	34.52
2.10080	34.52
2.11747	34.52
2.13413	34.52
2.15080	34.52
2.16747	34.52
2.18413	34.52
2.20080	34.53
2.21747	34.52
2.23413	34.52
2.25080	34.52
2.26747	34.52
2.28413	34.52
2.30080	34.52
2.31747	34.52
2.33413	34.52
2.35080	34.52
2.36747	34.52
2.38413	34.53
2.40080	34.51
2.41747	34.52
2.43413	34.52
2.45080	34.52
2.46747	34.52
2.48413	34.52
2.50080	34.52
2.51747	34.52
2.53413	34.52
2.55080	34.52
2.56747	34.52
2.58413	34.52
2.60080	34.52
2.61747	34.52
2.63413	34.52
2.65080	34.52
2.66747	34.52
2.68413	34.52
2.70080	34.51
2.71747	34.52
2.73413	34.51
2.75080	34.52
2.76747	34.52
2.78413	34.51
2.80080	34.52
2.81747	34.52
2.83413	34.52
2.85080	34.52
2.86747	34.53
2.88413	34.52
2.90080	34.52
2.91747	34.52
2.93413	34.52
2.95080	34.52
2.96747	34.52
2.98413	34.52
3.00080	34.52
3.01747	34.52
3.03413	34.52
3.05080	34.52
3.06747	34.52
3.08413	34.52
3.10080	34.52
3.11747	34.52
3.13413	34.52
3.15080	34.52
3.16747	34.52
3.18413	34.52
3.20080	34.52
3.21747	34.52
3.23413	34.52
3.25080	34.52
3.26747	34.52
3.28413	34.52
3.30080	34.52
3.31747	34.52
3.33413	34.52
3.35080	34.52
3.36747	34.52
3.38413	34.52
3.40080	34.52
3.41747	34.52
3.43413	34.52
3.45080	34.52
3.46747	34.52
3.48413	34.52
3.50080	34.52
3.51747	34.52
3.53413	34.52
3.55080	34.52
3.56747	34.52
3.58413	34.52
3.60080	34.52
3.61747	34.52
3.63413	34.52
3.65080	34.52
3.66747	34.52
3.68413	34.52
3.70080	34.52
3.71747	34.52
3.73413	34.52
3.75080	34.52
3.76747	34.52
3.78413	34.52
3.80080	34.52
3.81747	34.52
3.83413	34.52
3.85080	34.52
3.86747	34.52
3.88413	34.52
3.90080	34.52
3.91747	34.52
3.93413	34.52
3.95080	34.52
3.96747	34.52
3.98413	34.52

[Status Trace (Column Flow)]
Interval(msec)	1000
# of Points	240
Start Time(min)	0.001
End Time(min)	3.984
Intensity Units	
Intensity Multiplier	1
R.Time (min)	Intensity
0.00080	5.46
0.01747	5.31
0.03413	5.24
0.05080	5.51
0.06747	5.68
0.08413	5.50
0.10080	5.46
0.11747	5.46
0.13413	5.46
0.15080	5.46
0.16747	5.46
0.18413	5.46
0.20080	5.46
0.21747	5.46
0.23413	5.46
0.25080	5.46
0.26747	5.46
0.28413	5.46
0.30080	5.46
0.31747	5.46
0.33413	5.46
0.35080	5.46
0.36747	5.46
0.38413	5.46
0.40080	5.46
0.41747	5.46
0.43413	5.46
0.45080	5.46
0.46747	5.46
0.48413	5.46
0.50080	5.46
0.51747	5.46
0.53413	5.46
0.55080	5.46
0.56747	5.46
0.58413	5.46
0.60080	5.46
0.61747	5.46
0.63413	5.46
0.65080	5.46
0.66747	5.46
0.68413	5.46
0.70080	5.46
0.71747	5.46
0.73413	5.46
0.75080	5.46
0.76747	5.46
0.78413	5.46
0.80080	5.46
0.81747	5.46
0.83413	5.46
0.85080	5.46
0.86747	5.46
0.88413	5.46
0.90080	5.46
0.91747	5.46
0.93413	5.46
0.95080	5.46
0.96747	5.46
0.98413	5.46
1.00080	5.46
1.01747	5.46
1.03413	5.46
1.05080	5.46
1.06747	5.46
1.08413	5.46
1.10080	5.46
1.11747	5.46
1.13413	5.46
1.15080	5.46
1.16747	5.46
1.18413	5.46
1.20080	5.46
1.21747	5.46
1.23413	5.46
1.25080	5.46
1.26747	5.46
1.28413	5.46
1.30080	5.46
1.31747	5.46
1.33413	5.46
1.35080	5.46
1.36747	5.46
1.38413	5.46
1.40080	5.46
1.41747	5.46
1.43413	5.46
1.45080	5.46
1.46747	5.46
1.48413	5.46
1.50080	5.46
1.51747	5.46
1.53413	5.46
1.55080	5.46
1.56747	5.46
1.58413	5.46
1.60080	5.46
1.61747	5.46
1.63413	5.46
1.65080	5.45
1.66747	5.44
1.68413	5.43
1.70080	5.42
1.71747	5.41
1.73413	5.40
1.75080	5.38
1.76747	5.38
1.78413	5.36
1.80080	5.35
1.81747	5.35
1.83413	5.34
1.85080	5.32
1.86747	5.32
1.88413	5.31
1.90080	5.30
1.91747	5.29
1.93413	5.28
1.95080	5.27
1.96747	5.26
1.98413	5.25
2.00080	5.24
2.01747	5.23
2.03413	5.22
2.05080	5.21
2.06747	5.20
2.08413	5.19
2.10080	5.18
2.11747	5.17
2.13413	5.16
2.15080	5.15
2.16747	5.14
2.18413	5.13
2.20080	5.12
2.21747	5.12
2.23413	5.11
2.25080	5.10
2.26747	5.09
2.28413	5.08
2.30080	5.07
2.31747	5.06
2.33413	5.05
2.35080	5.04
2.36747	5.04
2.38413	5.03
2.40080	5.03
2.41747	5.03
2.43413	5.03
2.45080	5.03
2.46747	5.03
2.48413	5.03
2.50080	5.03
2.51747	5.03
2.53413	5.03
2.55080	5.03
2.56747	5.03
2.58413	5.03
2.60080	5.03
2.61747	5.03
2.63413	5.03
2.65080	5.03
2.66747	5.03
2.68413	5.03
2.70080	5.03
2.71747	5.03
2.73413	5.03
2.75080	5.03
2.76747	5.03
2.78413	5.03
2.80080	5.03
2.81747	5.03
2.83413	5.03
2.85080	5.03
2.86747	5.03
2.88413	5.03
2.90080	5.03
2.91747	5.03
2.93413	5.03
2.95080	5.03
2.96747	5.03
2.98413	5.02
3.00080	5.02
3.01747	5.02
3.03413	5.02
3.05080	5.02
3.06747	5.02
3.08413	5.02
3.10080	5.02
3.11747	5.02
3.13413	5.02
3.15080	5.02
3.16747	5.02
3.18413	5.02
3.20080	5.02
3.21747	5.02
3.23413	5.02
3.25080	5.02
3.26747	5.02
3.28413	5.02
3.30080	5.02
3.31747	5.02
3.33413	5.02
3.35080	5.02
3.36747	5.02
3.38413	5.02
3.40080	5.02
3.41747	5.02
3.43413	5.02
3.45080	5.02
3.46747	5.02
3.48413	5.02
3.50080	5.02
3.51747	5.02
3.53413	5.02
3.55080	5.02
3.56747	5.02
3.58413	5.02
3.60080	5.02
3.61747	5.02
3.63413	5.02
3.65080	5.02
3.66747	5.02
3.68413	5.02
3.70080	5.02
3.71747	5.02
3.73413	5.02
3.75080	5.02
3.76747	5.02
3.78413	5.02
3.80080	5.02
3.81747	5.02
3.83413	5.02
3.85080	5.02
3.86747	5.02
3.88413	5.02
3.90080	5.02
3.91747	5.02
3.93413	5.02
3.95080	5.02
3.96747	5.02
3.98413	5.02

[Status Trace (Linear Velocity)]
Interval(msec)	1000
# of Points	240
Start Time(min)	0.001
End Time(min)	3.984
Intensity Units	
Intensity Multiplier	1
R.Time (min)	Intensity
0.00080	39.00
0.01747	38.15
0.03413	37.73
0.05080	39.29
0.06747	40.24
0.08413	39.24
0.10080	38.98
0.11747	39.00
0.13413	39.01
0.15080	39.01
0.16747	39.00
0.18413	39.00
0.20080	39.00
0.21747	39.00
0.23413	39.00
0.25080	39.00
0.26747	39.00
0.28413	39.00
0.30080	39.00
0.31747	39.01
0.33413	39.01
0.35080	39.00
0.36747	39.01
0.38413	39.00
0.40080	39.01
0.41747	39.00
0.43413	39.01
0.45080	39.00
0.46747	39.00
0.48413	39.00
0.50080	39.00
0.51747	39.00
0.53413	39.00
0.55080	39.00
0.56747	39.00
0.58413	39.00
0.60080	39.00
0.61747	39.00
0.63413	39.00
0.65080	39.00
0.66747	39.00
0.68413	39.00
0.70080	39.00
0.71747	39.00
0.73413	39.00
0.75080	39.00
0.76747	39.00
0.78413	39.00
0.80080	39.00
0.81747	39.00
0.83413	39.00
0.85080	39.00
0.86747	39.00
0.88413	39.00
0.90080	39.00
0.91747	39.00
0.93413	39.00
0.95080	39.00
0.96747	39.00
0.98413	39.00
1.00080	39.00
1.01747	39.00
1.03413	39.00
1.05080	39.00
1.06747	39.00
1.08413	39.00
1.10080	39.00
1.11747	39.00
1.13413	39.00
1.15080	39.00
1.16747	39.00
1.18413	39.00
1.20080	39.00
1.21747	39.00
1.23413	39.00
1.25080	39.00
1.26747	39.00
1.28413	39.00
1.30080	39.00
1.31747	39.00
1.33413	39.00
1.35080	39.00
1.36747	39.00
1.38413	39.00
1.40080	39.00
1.41747	39.00
1.43413	39.00
1.45080	39.00
1.46747	39.00
1.48413	39.00
1.50080	39.00
1.51747	39.00
1.53413	39.00
1.55080	39.00
1.56747	39.00
1.58413	39.00
1.60080	39.00
1.61747	38.99
1.63413	38.98
1.65080	38.96
1.66747	38.93
1.68413	38.90
1.70080	38.86
1.71747	38.83
1.73413	38.79
1.75080	38.76
1.76747	38.73
1.78413	38.70
1.80080	38.67
1.81747	38.64
1.83413	38.61
1.85080	38.57
1.86747	38.55
1.88413	38.52
1.90080	38.48
1.91747	38.45
1.93413	38.42
1.95080	38.39
1.96747	38.36
1.98413	38.33
2.00080	38.30
2.01747	38.27
2.03413	38.24
2.05080	38.21
2.06747	38.18
2.08413	38.15
2.10080	38.12
2.11747	38.09
2.13413	38.06
2.15080	38.03
2.16747	38.00
2.18413	37.97
2.20080	37.94
2.21747	37.91
2.23413	37.89
2.25080	37.85
2.26747	37.83
2.28413	37.80
2.30080	37.76
2.31747	37.74
2.33413	37.71
2.35080	37.67
2.36747	37.66
2.38413	37.65
2.40080	37.65
2.41747	37.65
2.43413	37.65
2.45080	37.65
2.46747	37.65
2.48413	37.65
2.50080	37.65
2.51747	37.64
2.53413	37.64
2.55080	37.64
2.56747	37.64
2.58413	37.64
2.60080	37.64
2.61747	37.64
2.63413	37.64
2.65080	37.63
2.66747	37.63
2.68413	37.63
2.70080	37.63
2.71747	37.63
2.73413	37.63
2.75080	37.63
2.76747	37.63
2.78413	37.63
2.80080	37.63
2.81747	37.63
2.83413	37.63
2.85080	37.63
2.86747	37.63
2.88413	37.63
2.90080	37.63
2.91747	37.63
2.93413	37.63
2.95080	37.62
2.96747	37.62
2.98413	37.62
3.00080	37.62
3.01747	37.62
3.03413	37.62
3.05080	37.62
3.06747	37.62
3.08413	37.62
3.10080	37.62
3.11747	37.62
3.13413	37.62
3.15080	37.62
3.16747	37.61
3.18413	37.61
3.20080	37.61
3.21747	37.61
3.23413	37.61
3.25080	37.61
3.26747	37.61
3.28413	37.61
3.30080	37.61
3.31747	37.61
3.33413	37.61
3.35080	37.61
3.36747	37.61
3.38413	37.61
3.40080	37.61
3.41747	37.61
3.43413	37.61
3.45080	37.61
3.46747	37.61
3.48413	37.61
3.50080	37.61
3.51747	37.61
3.53413	37.61
3.55080	37.61
3.56747	37.62
3.58413	37.61
3.60080	37.61
3.61747	37.61
3.63413	37.61
3.65080	37.62
3.66747	37.62
3.68413	37.62
3.70080	37.62
3.71747	37.62
3.73413	37.62
3.75080	37.61
3.76747	37.61
3.78413	37.61
3.80080	37.61
3.81747	37.61
3.83413	37.61
3.85080	37.61
3.86747	37.61
3.88413	37.61
3.90080	37.61
3.91747	37.61
3.93413	37.61
3.95080	37.61
3.96747	37.61
3.98413	37.61

