[Header]
Application Name	LabSolutions
Version	5.110
Data File Name	C:\Users\User\Desktop\GC Analyses\Jack\UIC Prairie Sampling\11.2.22\221102_091.gcd
Output Date	3/20/2023
Output Time	1:25:41 PM

[File Information]
Type	Data File
Generated	1/3/2023 2:34:41 PM
Generated by	System Administrator
Modified	1/3/2023 2:39:15 PM
Modified by	System Administrator

[Sample Information]
Operator Name	System Administrator
Acquired	1/3/2023 2:35:14 PM
Sample Type	1:Standard
Level	1
Sample Name	221102_UICPrairie
Sample ID	221102_UICPrairie
ISTD Amount1	1
ISTD Amount2	1
ISTD Amount3	1
ISTD Amount4	1
ISTD Amount5	1
ISTD Amount6	1
ISTD Amount7	1
ISTD Amount8	1
ISTD Amount9	1
ISTD Amount10	1
ISTD Amount11	1
ISTD Amount12	1
ISTD Amount13	1
ISTD Amount14	1
ISTD Amount15	1
ISTD Amount16	1
ISTD Amount17	1
ISTD Amount18	1
ISTD Amount19	1
ISTD Amount20	1
ISTD Amount21	1
ISTD Amount22	1
ISTD Amount23	1
ISTD Amount24	1
ISTD Amount25	1
ISTD Amount26	1
ISTD Amount27	1
ISTD Amount28	1
ISTD Amount29	1
ISTD Amount30	1
ISTD Amount31	1
ISTD Amount32	1
Sample Amount	1
Dilution Factor	1
Vial#	1
Injection Volume	1
Injection Count	1
Bar Code	

[Original Files]
Data File	C:\Users\User\Desktop\GC Analyses\Jack\UIC Prairie Sampling\11.2.22\221102_091.gcd
Method File	C:\LabSolutions\Data\GHG_4min_2022\ghg3_togas_w_acet_4 min_new_int.gcm
Batch File	
Report Format File	c:\LabSolutions\System\DEFAULT.lsr

[File Description]


[Configuration]
Instrument Name	C0B7VH3-Instrument1
Instrument #	1
Line #	1
# of Detectors	3
Detector ID	DET#1	DET#2	DET#3
Detector Name	FID	PTCD	ECD
# of Channels	1	1	1

[Peak Table(Ch1)]
# of Peaks	3
Peak#	R.Time	I.Time	F.Time	Area	Height	A/H	Conc.	Mark	ID#	Name	k'	Plate #	Plate Ht.	Tailing	Resolution	Sep.Factor	Area Ratio	Height Ratio	Conc. %	Norm Conc.
1	1.476	1.439	1.538	13355	6087	2.194	100.000	   	1	CO	0.000	8872	16.907	1.341	0.000	0.000	0	0	16.667	16.667
2	1.567	1.538	1.641	5073	2510	2.021	100.000	 V 	2	CH4	0.062	11071	13.549	0.000	1.500	0.000	0	0	16.667	16.667
3	1.996	1.952	2.598	1508391	716742	2.105	400.000	   	3	CO2	0.353	17762	8.445	1.355	7.180	5.680	0	0	66.667	66.667

[Peak Table(Ch2)]
# of Peaks	0

[Peak Table(Ch3)]
# of Peaks	5
Peak#	R.Time	I.Time	F.Time	Area	Height	A/H	Conc.	Mark	ID#	Name	k'	Plate #	Plate Ht.	Tailing	Resolution	Sep.Factor	Area Ratio	Height Ratio	Conc. %	Norm Conc.
1	2.458	2.337	2.506	1095	338	3.243	0.000	   			0.000	14463	10.372	0.000	0.000	0.000	0	0	0.000	0.000
2	2.524	2.506	2.572	341	133	2.573	0.000	 V 			0.027	8063	18.604	0.000	0.680	0.000	0	0	0.000	0.000
3	2.601	2.572	2.612	125	74	1.689	0.000	 V 			0.058	20751	7.229	0.000	0.834	2.167	0	0	0.000	0.000
4	2.785	2.620	2.825	5597	640	8.748	0.158	   	1	N2O	0.133	683	219.713	0.000	0.735	2.282	0	0	15.770	15.770
5	2.884	2.825	3.738	29892	5370	5.566	0.842	 V 	1	N2O	0.173	11912	12.592	0.000	0.372	1.303	0	0	84.230	84.230

[Compound Results(Ch1)]
# of IDs	6
ID#	Name	R.Time	Area	Height	Conc.	Curve	3rd	2nd	1st	Constant	Area Ratio	Height Ratio	Conc. %	Norm Conc.
1	CO	1.476	13355	6087	100.000	Linear	0.000000e+00	0.000000e+00	1.335519e+002	0.000000e+00	0	0	16.667	16.667
2	CH4	1.567	5073	2510	100.000	Linear	0.000000e+00	0.000000e+00	5.073154e+001	0.000000e+00	0	0	16.667	16.667
3	CO2	1.996	1508391	716742	400.000	Linear	0.000000e+00	0.000000e+00	3.770978e+003	0.000000e+00	0	0	66.667	66.667
4	Ethylene	0.000	0	0	0.000	Linear	0.000000e+00	0.000000e+00	0.000000e+00	0.000000e+00	0	0	0.000	0.000
5	Acetylene	0.000	0	0	0.000	Linear	0.000000e+00	0.000000e+00	0.000000e+00	0.000000e+00	0	0	0.000	0.000
6	Ethane	0.000	0	0	0.000	Linear	0.000000e+00	0.000000e+00	0.000000e+00	0.000000e+00	0	0	0.000	0.000

[Compound Results(Ch2)]
# of IDs	5
ID#	Name	R.Time	Area	Height	Conc.	Curve	3rd	2nd	1st	Constant	Area Ratio	Height Ratio	Conc. %	Norm Conc.
1	Hydrogen	0.000	0	0	0.000	Linear	0.000000e+00	0.000000e+00	0.000000e+00	0.000000e+00	0	0	0.000	0.000
2	Oxygen	0.000	0	0	0.000	Linear	0.000000e+00	0.000000e+00	0.000000e+00	0.000000e+00	0	0	0.000	0.000
3	Nitrogen	0.000	0	0	0.000	Linear	0.000000e+00	0.000000e+00	0.000000e+00	0.000000e+00	0	0	0.000	0.000
4	Methane	0.000	0	0	0.000	Linear	0.000000e+00	0.000000e+00	0.000000e+00	0.000000e+00	0	0	0.000	0.000
5	Carbon Monoxide	0.000	0	0	0.000	Linear	0.000000e+00	0.000000e+00	0.000000e+00	0.000000e+00	0	0	0.000	0.000

[Compound Results(Ch3)]
# of IDs	2
ID#	Name	R.Time	Area	Height	Conc.	Curve	3rd	2nd	1st	Constant	Area Ratio	Height Ratio	Conc. %	Norm Conc.
1	N2O	2.884	35489	6010	1.000	Linear	0.000000e+00	0.000000e+00	3.548881e+004	0.000000e+00	0	0	100.000	100.000
2	SF6	0.000	0	0	0.000	Linear	0.000000e+00	0.000000e+00	0.000000e+00	0.000000e+00	0	0	0.000	0.000

[Group Results(Ch1)]
# of Groups	0

[Group Results(Ch2)]
# of Groups	0

[Group Results(Ch3)]
# of Groups	0

[Chromatogram (Ch1)]
Interval(msec)	220
# of Points	1091
Start Time(min)	0.002
End Time(min)	3.998
R.Time (min)	Intensity
0.00167	-35
0.00533	-37
0.00900	-41
0.01267	-45
0.01633	-47
0.02000	-48
0.02367	-49
0.02733	-47
0.03100	-44
0.03467	-43
0.03833	-45
0.04200	-47
0.04567	-47
0.04933	-45
0.05300	-43
0.05667	-40
0.06033	-38
0.06400	-40
0.06767	-42
0.07133	-41
0.07500	-37
0.07867	-34
0.08233	-36
0.08600	-39
0.08967	-42
0.09333	-48
0.09700	-49
0.10067	-48
0.10433	-49
0.10800	-46
0.11167	-45
0.11533	-42
0.11900	-38
0.12267	-34
0.12633	-32
0.13000	-28
0.13367	-27
0.13733	-26
0.14100	-29
0.14467	-30
0.14833	-32
0.15200	-36
0.15567	-39
0.15933	-40
0.16300	-40
0.16667	-43
0.17033	-41
0.17400	-35
0.17767	-28
0.18133	-23
0.18500	-17
0.18867	-13
0.19233	-9
0.19600	-10
0.19967	-17
0.20333	-23
0.20700	-24
0.21067	-24
0.21433	-23
0.21800	-23
0.22167	-24
0.22533	-30
0.22900	-35
0.23267	-39
0.23633	-45
0.24000	-52
0.24367	-56
0.24733	-59
0.25100	-60
0.25467	-57
0.25833	-53
0.26200	-50
0.26567	-52
0.26933	-56
0.27300	-59
0.27667	-63
0.28033	-64
0.28400	-63
0.28767	-59
0.29133	-54
0.29500	-46
0.29867	-38
0.30233	-30
0.30600	-25
0.30967	-23
0.31333	-26
0.31700	-31
0.32067	-36
0.32433	-41
0.32800	-48
0.33167	-52
0.33533	-53
0.33900	-50
0.34267	-48
0.34633	-48
0.35000	-51
0.35367	-53
0.35733	-53
0.36100	-54
0.36467	-55
0.36833	-55
0.37200	-54
0.37567	-51
0.37933	-49
0.38300	-48
0.38667	-46
0.39033	-44
0.39400	-43
0.39767	-40
0.40133	-38
0.40500	-39
0.40867	-42
0.41233	-45
0.41600	-46
0.41967	-45
0.42333	-43
0.42700	-42
0.43067	-39
0.43433	-37
0.43800	-37
0.44167	-39
0.44533	-43
0.44900	-48
0.45267	-55
0.45633	-62
0.46000	-67
0.46367	-69
0.46733	-65
0.47100	-56
0.47467	-47
0.47833	-46
0.48200	-48
0.48567	-48
0.48933	-47
0.49300	-48
0.49667	-49
0.50033	-53
0.50400	-56
0.50767	-60
0.51133	-63
0.51500	-63
0.51867	-61
0.52233	-59
0.52600	-57
0.52967	-58
0.53333	-61
0.53700	-62
0.54067	-61
0.54433	-56
0.54800	-50
0.55167	-44
0.55533	-42
0.55900	-44
0.56267	-48
0.56633	-56
0.57000	-64
0.57367	-65
0.57733	-64
0.58100	-61
0.58467	-60
0.58833	-63
0.59200	-66
0.59567	-67
0.59933	-65
0.60300	-65
0.60667	-66
0.61033	-66
0.61400	-69
0.61767	-72
0.62133	-73
0.62500	-73
0.62867	-71
0.63233	-70
0.63600	-70
0.63967	-67
0.64333	-65
0.64700	-67
0.65067	-68
0.65433	-67
0.65800	-66
0.66167	-64
0.66533	-63
0.66900	-60
0.67267	-62
0.67633	-64
0.68000	-67
0.68367	-74
0.68733	-81
0.69100	-87
0.69467	-90
0.69833	-90
0.70200	-89
0.70567	-88
0.70933	-84
0.71300	-77
0.71667	-70
0.72033	-68
0.72400	-69
0.72767	-72
0.73133	-76
0.73500	-77
0.73867	-77
0.74233	-77
0.74600	-75
0.74967	-66
0.75333	-58
0.75700	-56
0.76067	-59
0.76433	-62
0.76800	-68
0.77167	-74
0.77533	-77
0.77900	-78
0.78267	-80
0.78633	-85
0.79000	-89
0.79367	-91
0.79733	-89
0.80100	-83
0.80467	-74
0.80833	-67
0.81200	-62
0.81567	-63
0.81933	-70
0.82300	-76
0.82667	-80
0.83033	-82
0.83400	-86
0.83767	-92
0.84133	-97
0.84500	-98
0.84867	-92
0.85233	-85
0.85600	-79
0.85967	-80
0.86333	-87
0.86700	-96
0.87067	-101
0.87433	-104
0.87800	-105
0.88167	-104
0.88533	-101
0.88900	-95
0.89267	-90
0.89633	-87
0.90000	-85
0.90367	-84
0.90733	-84
0.91100	-82
0.91467	-81
0.91833	-81
0.92200	-84
0.92567	-87
0.92933	-87
0.93300	-86
0.93667	-83
0.94033	-82
0.94400	-85
0.94767	-86
0.95133	-86
0.95500	-88
0.95867	-93
0.96233	-97
0.96600	-102
0.96967	-110
0.97333	-118
0.97700	-120
0.98067	-115
0.98433	-107
0.98800	-96
0.99167	-89
0.99533	-88
0.99900	-90
1.00267	-95
1.00633	-100
1.01000	-103
1.01367	-102
1.01733	-99
1.02100	-99
1.02467	-105
1.02833	-110
1.03200	-110
1.03567	-109
1.03933	-112
1.04300	-116
1.04667	-120
1.05033	-118
1.05400	-113
1.05767	-107
1.06133	-105
1.06500	-105
1.06867	-102
1.07233	-100
1.07600	-100
1.07967	-98
1.08333	-99
1.08700	-104
1.09067	-109
1.09433	-111
1.09800	-109
1.10167	-106
1.10533	-104
1.10900	-101
1.11267	-99
1.11633	-99
1.12000	-101
1.12367	-103
1.12733	-103
1.13100	-105
1.13467	-108
1.13833	-109
1.14200	-110
1.14567	-112
1.14933	-114
1.15300	-114
1.15667	-113
1.16033	-113
1.16400	-114
1.16767	-115
1.17133	-112
1.17500	-106
1.17867	-97
1.18233	-89
1.18600	-87
1.18967	-92
1.19333	-102
1.19700	-117
1.20067	-130
1.20433	-137
1.20800	-137
1.21167	-134
1.21533	-128
1.21900	-122
1.22267	-116
1.22633	-110
1.23000	-110
1.23367	-113
1.23733	-115
1.24100	-118
1.24467	-120
1.24833	-124
1.25200	-132
1.25567	-142
1.25933	-148
1.26300	-150
1.26667	-148
1.27033	-143
1.27400	-139
1.27767	-137
1.28133	-135
1.28500	-133
1.28867	-131
1.29233	-130
1.29600	-129
1.29967	-128
1.30333	-126
1.30700	-124
1.31067	-124
1.31433	-125
1.31800	-129
1.32167	-133
1.32533	-137
1.32900	-139
1.33267	-138
1.33633	-137
1.34000	-136
1.34367	-137
1.34733	-137
1.35100	-137
1.35467	-138
1.35833	-142
1.36200	-144
1.36567	-142
1.36933	-138
1.37300	-135
1.37667	-132
1.38033	-132
1.38400	-136
1.38767	-141
1.39133	-146
1.39500	-147
1.39867	-147
1.40233	-143
1.40600	-137
1.40967	-136
1.41333	-139
1.41700	-140
1.42067	-141
1.42433	-143
1.42800	-145
1.43167	-148
1.43533	-151
1.43900	-139
1.44267	-64
1.44633	124
1.45000	461
1.45367	1061
1.45733	1991
1.46100	3105
1.46467	4178
1.46833	5058
1.47200	5669
1.47567	5950
1.47933	5846
1.48300	5363
1.48667	4595
1.49033	3704
1.49400	2843
1.49767	2109
1.50133	1533
1.50500	1100
1.50867	782
1.51233	551
1.51600	386
1.51967	269
1.52333	183
1.52700	123
1.53067	81
1.53433	51
1.53800	39
1.54167	84
1.54533	247
1.54900	575
1.55267	1030
1.55633	1504
1.56000	1913
1.56367	2214
1.56733	2376
1.57100	2358
1.57467	2149
1.57833	1795
1.58200	1385
1.58567	997
1.58933	672
1.59300	426
1.59667	249
1.60033	128
1.60400	44
1.60767	-14
1.61133	-55
1.61500	-81
1.61867	-94
1.62233	-99
1.62600	-101
1.62967	-106
1.63333	-116
1.63700	-124
1.64067	-132
1.64433	-138
1.64800	-140
1.65167	-140
1.65533	-136
1.65900	-129
1.66267	-122
1.66633	-119
1.67000	-117
1.67367	-119
1.67733	-123
1.68100	-125
1.68467	-126
1.68833	-125
1.69200	-127
1.69567	-130
1.69933	-130
1.70300	-129
1.70667	-128
1.71033	-132
1.71400	-136
1.71767	-139
1.72133	-142
1.72500	-146
1.72867	-155
1.73233	-162
1.73600	-164
1.73967	-162
1.74333	-158
1.74700	-151
1.75067	-145
1.75433	-140
1.75800	-140
1.76167	-139
1.76533	-143
1.76900	-149
1.77267	-152
1.77633	-149
1.78000	-144
1.78367	-139
1.78733	-133
1.79100	-130
1.79467	-129
1.79833	-129
1.80200	-128
1.80567	-126
1.80933	-128
1.81300	-129
1.81667	-125
1.82033	-122
1.82400	-119
1.82767	-119
1.83133	-119
1.83500	-119
1.83867	-118
1.84233	-115
1.84600	-115
1.84967	-120
1.85333	-127
1.85700	-131
1.86067	-131
1.86433	-132
1.86800	-135
1.87167	-138
1.87533	-141
1.87900	-145
1.88267	-144
1.88633	-139
1.89000	-132
1.89367	-126
1.89733	-124
1.90100	-124
1.90467	-124
1.90833	-126
1.91200	-127
1.91567	-124
1.91933	-116
1.92300	-109
1.92667	-106
1.93033	-105
1.93400	-108
1.93767	-108
1.94133	-106
1.94500	-106
1.94867	-107
1.95233	-98
1.95600	-29
1.95967	423
1.96333	2677
1.96700	11125
1.97067	35145
1.97433	87909
1.97800	178694
1.98167	302990
1.98533	441856
1.98900	570735
1.99267	667433
1.99633	716671
2.00000	712217
2.00367	658131
2.00733	568264
2.01100	461609
2.01467	356107
2.01833	263908
2.02200	190164
2.02567	134777
2.02933	94954
2.03300	67143
2.03667	48056
2.04033	35064
2.04400	26226
2.04767	20172
2.05133	15973
2.05500	13010
2.05867	10871
2.06233	9288
2.06600	8088
2.06967	7156
2.07333	6414
2.07700	5811
2.08067	5311
2.08433	4886
2.08800	4525
2.09167	4211
2.09533	3936
2.09900	3693
2.10267	3475
2.10633	3280
2.11000	3105
2.11367	2945
2.11733	2799
2.12100	2666
2.12467	2547
2.12833	2435
2.13200	2332
2.13567	2240
2.13933	2155
2.14300	2073
2.14667	1997
2.15033	1925
2.15400	1856
2.15767	1791
2.16133	1733
2.16500	1678
2.16867	1627
2.17233	1579
2.17600	1530
2.17967	1479
2.18333	1430
2.18700	1383
2.19067	1339
2.19433	1300
2.19800	1267
2.20167	1234
2.20533	1202
2.20900	1170
2.21267	1139
2.21633	1111
2.22000	1086
2.22367	1064
2.22733	1042
2.23100	1023
2.23467	1005
2.23833	986
2.24200	965
2.24567	944
2.24933	928
2.25300	913
2.25667	896
2.26033	874
2.26400	850
2.26767	832
2.27133	814
2.27500	796
2.27867	776
2.28233	758
2.28600	744
2.28967	734
2.29333	727
2.29700	718
2.30067	713
2.30433	709
2.30800	700
2.31167	682
2.31533	663
2.31900	644
2.32267	626
2.32633	609
2.33000	597
2.33367	588
2.33733	584
2.34100	580
2.34467	579
2.34833	578
2.35200	577
2.35567	573
2.35933	564
2.36300	554
2.36667	543
2.37033	531
2.37400	521
2.37767	513
2.38133	509
2.38500	504
2.38867	495
2.39233	487
2.39600	484
2.39967	481
2.40333	477
2.40700	472
2.41067	466
2.41433	460
2.41800	453
2.42167	447
2.42533	444
2.42900	445
2.43267	443
2.43633	438
2.44000	432
2.44367	429
2.44733	428
2.45100	426
2.45467	421
2.45833	414
2.46200	406
2.46567	402
2.46933	400
2.47300	402
2.47667	406
2.48033	406
2.48400	398
2.48767	386
2.49133	371
2.49500	358
2.49867	353
2.50233	350
2.50600	347
2.50967	345
2.51333	344
2.51700	347
2.52067	354
2.52433	361
2.52800	365
2.53167	368
2.53533	365
2.53900	356
2.54267	349
2.54633	343
2.55000	334
2.55367	325
2.55733	319
2.56100	317
2.56467	319
2.56833	320
2.57200	324
2.57567	331
2.57933	333
2.58300	326
2.58667	315
2.59033	301
2.59400	293
2.59767	291
2.60133	290
2.60500	292
2.60867	296
2.61233	300
2.61600	303
2.61967	302
2.62333	298
2.62700	294
2.63067	292
2.63433	292
2.63800	293
2.64167	289
2.64533	281
2.64900	274
2.65267	269
2.65633	264
2.66000	258
2.66367	255
2.66733	258
2.67100	264
2.67467	269
2.67833	272
2.68200	270
2.68567	267
2.68933	265
2.69300	262
2.69667	260
2.70033	258
2.70400	256
2.70767	254
2.71133	255
2.71500	260
2.71867	267
2.72233	269
2.72600	267
2.72967	263
2.73333	259
2.73700	257
2.74067	255
2.74433	256
2.74800	257
2.75167	253
2.75533	246
2.75900	239
2.76267	234
2.76633	233
2.77000	237
2.77367	239
2.77733	239
2.78100	236
2.78467	232
2.78833	229
2.79200	228
2.79567	229
2.79933	230
2.80300	230
2.80667	227
2.81033	222
2.81400	221
2.81767	223
2.82133	226
2.82500	230
2.82867	233
2.83233	234
2.83600	234
2.83967	237
2.84333	239
2.84700	239
2.85067	236
2.85433	232
2.85800	227
2.86167	222
2.86533	221
2.86900	223
2.87267	229
2.87633	237
2.88000	239
2.88367	235
2.88733	229
2.89100	226
2.89467	227
2.89833	231
2.90200	233
2.90567	234
2.90933	232
2.91300	223
2.91667	216
2.92033	212
2.92400	211
2.92767	212
2.93133	213
2.93500	212
2.93867	209
2.94233	205
2.94600	202
2.94967	200
2.95333	203
2.95700	210
2.96067	216
2.96433	217
2.96800	216
2.97167	212
2.97533	205
2.97900	199
2.98267	195
2.98633	197
2.99000	202
2.99367	207
2.99733	212
3.00100	217
3.00467	223
3.00833	226
3.01200	225
3.01567	225
3.01933	228
3.02300	231
3.02667	230
3.03033	227
3.03400	222
3.03767	215
3.04133	207
3.04500	200
3.04867	193
3.05233	187
3.05600	183
3.05967	182
3.06333	186
3.06700	193
3.07067	198
3.07433	201
3.07800	203
3.08167	203
3.08533	201
3.08900	196
3.09267	189
3.09633	187
3.10000	184
3.10367	179
3.10733	176
3.11100	175
3.11467	181
3.11833	190
3.12200	197
3.12567	197
3.12933	193
3.13300	188
3.13667	184
3.14033	180
3.14400	177
3.14767	173
3.15133	170
3.15500	169
3.15867	169
3.16233	169
3.16600	169
3.16967	167
3.17333	165
3.17700	166
3.18067	168
3.18433	168
3.18800	170
3.19167	174
3.19533	178
3.19900	181
3.20267	180
3.20633	178
3.21000	174
3.21367	172
3.21733	173
3.22100	178
3.22467	182
3.22833	182
3.23200	180
3.23567	175
3.23933	171
3.24300	171
3.24667	172
3.25033	171
3.25400	167
3.25767	160
3.26133	155
3.26500	152
3.26867	149
3.27233	147
3.27600	146
3.27967	143
3.28333	138
3.28700	134
3.29067	136
3.29433	144
3.29800	153
3.30167	160
3.30533	162
3.30900	161
3.31267	157
3.31633	154
3.32000	151
3.32367	147
3.32733	144
3.33100	144
3.33467	145
3.33833	148
3.34200	154
3.34567	156
3.34933	154
3.35300	151
3.35667	145
3.36033	139
3.36400	134
3.36767	135
3.37133	139
3.37500	141
3.37867	142
3.38233	143
3.38600	144
3.38967	144
3.39333	144
3.39700	144
3.40067	148
3.40433	152
3.40800	154
3.41167	151
3.41533	145
3.41900	136
3.42267	128
3.42633	123
3.43000	120
3.43367	124
3.43733	130
3.44100	134
3.44467	136
3.44833	138
3.45200	137
3.45567	134
3.45933	131
3.46300	134
3.46667	140
3.47033	145
3.47400	146
3.47767	143
3.48133	136
3.48500	126
3.48867	115
3.49233	106
3.49600	105
3.49967	108
3.50333	111
3.50700	112
3.51067	112
3.51433	113
3.51800	113
3.52167	113
3.52533	114
3.52900	114
3.53267	113
3.53633	113
3.54000	115
3.54367	114
3.54733	111
3.55100	112
3.55467	116
3.55833	123
3.56200	128
3.56567	129
3.56933	129
3.57300	127
3.57667	121
3.58033	117
3.58400	115
3.58767	111
3.59133	110
3.59500	108
3.59867	104
3.60233	101
3.60600	105
3.60967	112
3.61333	117
3.61700	120
3.62067	120
3.62433	117
3.62800	117
3.63167	116
3.63533	119
3.63900	124
3.64267	127
3.64633	127
3.65000	123
3.65367	119
3.65733	116
3.66100	115
3.66467	111
3.66833	101
3.67200	89
3.67567	81
3.67933	81
3.68300	84
3.68667	88
3.69033	94
3.69400	101
3.69767	106
3.70133	108
3.70500	108
3.70867	106
3.71233	105
3.71600	105
3.71967	102
3.72333	99
3.72700	96
3.73067	93
3.73433	90
3.73800	90
3.74167	91
3.74533	92
3.74900	93
3.75267	94
3.75633	96
3.76000	97
3.76367	102
3.76733	108
3.77100	109
3.77467	105
3.77833	98
3.78200	91
3.78567	86
3.78933	83
3.79300	82
3.79667	83
3.80033	85
3.80400	87
3.80767	89
3.81133	89
3.81500	87
3.81867	83
3.82233	80
3.82600	79
3.82967	83
3.83333	87
3.83700	90
3.84067	91
3.84433	91
3.84800	91
3.85167	89
3.85533	86
3.85900	80
3.86267	74
3.86633	70
3.87000	70
3.87367	73
3.87733	78
3.88100	83
3.88467	86
3.88833	83
3.89200	78
3.89567	75
3.89933	76
3.90300	79
3.90667	85
3.91033	89
3.91400	88
3.91767	85
3.92133	85
3.92500	86
3.92867	86
3.93233	86
3.93600	88
3.93967	87
3.94333	84
3.94700	80
3.95067	78
3.95433	77
3.95800	74
3.96167	71
3.96533	67
3.96900	65
3.97267	68
3.97633	73
3.98000	82
3.98367	94
3.98733	103
3.99100	107
3.99467	104
3.99833	95

[Chromatogram (Ch2)]
Interval(msec)	220
# of Points	1091
Start Time(min)	0.002
End Time(min)	3.998
R.Time (min)	Intensity
0.00167	1
0.00533	1
0.00900	1
0.01267	1
0.01633	1
0.02000	0
0.02367	0
0.02733	0
0.03100	0
0.03467	0
0.03833	0
0.04200	0
0.04567	0
0.04933	0
0.05300	-0
0.05667	-0
0.06033	-0
0.06400	-1
0.06767	-1
0.07133	-1
0.07500	-1
0.07867	-1
0.08233	-1
0.08600	-1
0.08967	-2
0.09333	-2
0.09700	-2
0.10067	-2
0.10433	-2
0.10800	-3
0.11167	-3
0.11533	-3
0.11900	-3
0.12267	-3
0.12633	-3
0.13000	-3
0.13367	-2
0.13733	-2
0.14100	-2
0.14467	-2
0.14833	-2
0.15200	-2
0.15567	-1
0.15933	-1
0.16300	-1
0.16667	-0
0.17033	-0
0.17400	0
0.17767	0
0.18133	0
0.18500	0
0.18867	0
0.19233	0
0.19600	0
0.19967	1
0.20333	1
0.20700	1
0.21067	1
0.21433	1
0.21800	1
0.22167	1
0.22533	1
0.22900	1
0.23267	1
0.23633	1
0.24000	1
0.24367	1
0.24733	1
0.25100	1
0.25467	1
0.25833	1
0.26200	1
0.26567	1
0.26933	0
0.27300	0
0.27667	0
0.28033	1
0.28400	1
0.28767	1
0.29133	1
0.29500	1
0.29867	1
0.30233	1
0.30600	1
0.30967	0
0.31333	0
0.31700	-0
0.32067	-0
0.32433	-0
0.32800	-0
0.33167	-0
0.33533	-0
0.33900	-0
0.34267	0
0.34633	0
0.35000	0
0.35367	0
0.35733	0
0.36100	1
0.36467	1
0.36833	1
0.37200	1
0.37567	1
0.37933	0
0.38300	0
0.38667	-0
0.39033	-0
0.39400	-0
0.39767	-1
0.40133	-1
0.40500	-1
0.40867	-1
0.41233	-1
0.41600	-1
0.41967	-1
0.42333	-1
0.42700	-1
0.43067	-1
0.43433	-1
0.43800	-1
0.44167	-1
0.44533	-1
0.44900	-1
0.45267	-1
0.45633	-1
0.46000	-1
0.46367	-1
0.46733	-2
0.47100	-2
0.47467	-2
0.47833	-2
0.48200	-2
0.48567	-2
0.48933	-3
0.49300	-3
0.49667	-2
0.50033	-2
0.50400	-2
0.50767	-2
0.51133	-2
0.51500	-2
0.51867	-2
0.52233	-2
0.52600	-2
0.52967	-2
0.53333	-2
0.53700	-2
0.54067	-2
0.54433	-2
0.54800	-2
0.55167	-3
0.55533	-3
0.55900	-3
0.56267	-3
0.56633	-3
0.57000	-2
0.57367	-2
0.57733	-2
0.58100	-2
0.58467	-2
0.58833	-2
0.59200	-2
0.59567	-2
0.59933	-2
0.60300	-2
0.60667	-2
0.61033	-2
0.61400	-2
0.61767	-1
0.62133	-1
0.62500	-1
0.62867	-1
0.63233	-0
0.63600	-0
0.63967	-0
0.64333	-0
0.64700	0
0.65067	0
0.65433	0
0.65800	0
0.66167	0
0.66533	-0
0.66900	-0
0.67267	-0
0.67633	-0
0.68000	-1
0.68367	-1
0.68733	-1
0.69100	-1
0.69467	-1
0.69833	-1
0.70200	-1
0.70567	-0
0.70933	-0
0.71300	-1
0.71667	-1
0.72033	-1
0.72400	-1
0.72767	-2
0.73133	-2
0.73500	-2
0.73867	-3
0.74233	-3
0.74600	-3
0.74967	-4
0.75333	-4
0.75700	-4
0.76067	-4
0.76433	-3
0.76800	-3
0.77167	-3
0.77533	-2
0.77900	-2
0.78267	-2
0.78633	-2
0.79000	-2
0.79367	-2
0.79733	-2
0.80100	-2
0.80467	-2
0.80833	-2
0.81200	-1
0.81567	-1
0.81933	-1
0.82300	-1
0.82667	-1
0.83033	-1
0.83400	-1
0.83767	-1
0.84133	-1
0.84500	-1
0.84867	-1
0.85233	-1
0.85600	-1
0.85967	-1
0.86333	-2
0.86700	-2
0.87067	-2
0.87433	-3
0.87800	-3
0.88167	-3
0.88533	-3
0.88900	-3
0.89267	-3
0.89633	-3
0.90000	-3
0.90367	-3
0.90733	-3
0.91100	-2
0.91467	-2
0.91833	-2
0.92200	-2
0.92567	-2
0.92933	-2
0.93300	-2
0.93667	-2
0.94033	-2
0.94400	-2
0.94767	-2
0.95133	-2
0.95500	-2
0.95867	-2
0.96233	-2
0.96600	-2
0.96967	-2
0.97333	-2
0.97700	-2
0.98067	-2
0.98433	-2
0.98800	-2
0.99167	-3
0.99533	-3
0.99900	-3
1.00267	-3
1.00633	-4
1.01000	-4
1.01367	-4
1.01733	-4
1.02100	-4
1.02467	-4
1.02833	-3
1.03200	-3
1.03567	-3
1.03933	-3
1.04300	-3
1.04667	-3
1.05033	-3
1.05400	-3
1.05767	-3
1.06133	-3
1.06500	-3
1.06867	-3
1.07233	-3
1.07600	-3
1.07967	-3
1.08333	-3
1.08700	-3
1.09067	-3
1.09433	-4
1.09800	-4
1.10167	-4
1.10533	-4
1.10900	-4
1.11267	-4
1.11633	-4
1.12000	-4
1.12367	-4
1.12733	-3
1.13100	-3
1.13467	-3
1.13833	-3
1.14200	-3
1.14567	-3
1.14933	-3
1.15300	-3
1.15667	-3
1.16033	-3
1.16400	-3
1.16767	-3
1.17133	-3
1.17500	-3
1.17867	-3
1.18233	-3
1.18600	-3
1.18967	-3
1.19333	-3
1.19700	-2
1.20067	-2
1.20433	-3
1.20800	-3
1.21167	-2
1.21533	-3
1.21900	-3
1.22267	-3
1.22633	-3
1.23000	-3
1.23367	-2
1.23733	-2
1.24100	-2
1.24467	-2
1.24833	-2
1.25200	-2
1.25567	-2
1.25933	-3
1.26300	-3
1.26667	-3
1.27033	-3
1.27400	-3
1.27767	-3
1.28133	-3
1.28500	-2
1.28867	-2
1.29233	-2
1.29600	-2
1.29967	-2
1.30333	-2
1.30700	-2
1.31067	-2
1.31433	-2
1.31800	-2
1.32167	-2
1.32533	-2
1.32900	-2
1.33267	-3
1.33633	-3
1.34000	-3
1.34367	-3
1.34733	-3
1.35100	-3
1.35467	-3
1.35833	-3
1.36200	-3
1.36567	-4
1.36933	-4
1.37300	-4
1.37667	-5
1.38033	-5
1.38400	-5
1.38767	-5
1.39133	-5
1.39500	-5
1.39867	-5
1.40233	-5
1.40600	-5
1.40967	-5
1.41333	-5
1.41700	-4
1.42067	-4
1.42433	-4
1.42800	-4
1.43167	-4
1.43533	-4
1.43900	-4
1.44267	-4
1.44633	-4
1.45000	-4
1.45367	-4
1.45733	-4
1.46100	-3
1.46467	-3
1.46833	-3
1.47200	-3
1.47567	-3
1.47933	-3
1.48300	-3
1.48667	-3
1.49033	-3
1.49400	-3
1.49767	-3
1.50133	-3
1.50500	-3
1.50867	-3
1.51233	-3
1.51600	-3
1.51967	-2
1.52333	-2
1.52700	-2
1.53067	-2
1.53433	-2
1.53800	-2
1.54167	-3
1.54533	-3
1.54900	-3
1.55267	-3
1.55633	-3
1.56000	-4
1.56367	-4
1.56733	-4
1.57100	-4
1.57467	-3
1.57833	-3
1.58200	-3
1.58567	-3
1.58933	-3
1.59300	-3
1.59667	-3
1.60033	-4
1.60400	-5
1.60767	-6
1.61133	-8
1.61500	-10
1.61867	-12
1.62233	-15
1.62600	-17
1.62967	-20
1.63333	-24
1.63700	-27
1.64067	-30
1.64433	-34
1.64800	-37
1.65167	-40
1.65533	-44
1.65900	-47
1.66267	-51
1.66633	-55
1.67000	-60
1.67367	-64
1.67733	-69
1.68100	-74
1.68467	-79
1.68833	-84
1.69200	-88
1.69567	-91
1.69933	-94
1.70300	-96
1.70667	-98
1.71033	-100
1.71400	-101
1.71767	-102
1.72133	-103
1.72500	-104
1.72867	-105
1.73233	-105
1.73600	-106
1.73967	-107
1.74333	-108
1.74700	-108
1.75067	-109
1.75433	-109
1.75800	-110
1.76167	-111
1.76533	-112
1.76900	-112
1.77267	-113
1.77633	-113
1.78000	-113
1.78367	-113
1.78733	-112
1.79100	-112
1.79467	-111
1.79833	-111
1.80200	-111
1.80567	-112
1.80933	-112
1.81300	-113
1.81667	-113
1.82033	-114
1.82400	-115
1.82767	-115
1.83133	-116
1.83500	-116
1.83867	-116
1.84233	-116
1.84600	-116
1.84967	-116
1.85333	-116
1.85700	-116
1.86067	-116
1.86433	-116
1.86800	-116
1.87167	-116
1.87533	-115
1.87900	-115
1.88267	-115
1.88633	-114
1.89000	-114
1.89367	-114
1.89733	-114
1.90100	-113
1.90467	-113
1.90833	-113
1.91200	-113
1.91567	-113
1.91933	-113
1.92300	-114
1.92667	-114
1.93033	-114
1.93400	-114
1.93767	-114
1.94133	-114
1.94500	-113
1.94867	-113
1.95233	-112
1.95600	-112
1.95967	-112
1.96333	-112
1.96700	-113
1.97067	-113
1.97433	-113
1.97800	-112
1.98167	-112
1.98533	-111
1.98900	-110
1.99267	-110
1.99633	-109
2.00000	-109
2.00367	-109
2.00733	-108
2.01100	-107
2.01467	-107
2.01833	-107
2.02200	-106
2.02567	-106
2.02933	-106
2.03300	-105
2.03667	-105
2.04033	-105
2.04400	-106
2.04767	-106
2.05133	-106
2.05500	-106
2.05867	-106
2.06233	-105
2.06600	-105
2.06967	-104
2.07333	-103
2.07700	-103
2.08067	-102
2.08433	-102
2.08800	-102
2.09167	-102
2.09533	-102
2.09900	-102
2.10267	-101
2.10633	-101
2.11000	-100
2.11367	-100
2.11733	-99
2.12100	-99
2.12467	-99
2.12833	-98
2.13200	-98
2.13567	-98
2.13933	-97
2.14300	-97
2.14667	-98
2.15033	-98
2.15400	-97
2.15767	-97
2.16133	-97
2.16500	-96
2.16867	-96
2.17233	-95
2.17600	-95
2.17967	-94
2.18333	-93
2.18700	-93
2.19067	-92
2.19433	-91
2.19800	-91
2.20167	-90
2.20533	-90
2.20900	-90
2.21267	-90
2.21633	-90
2.22000	-90
2.22367	-89
2.22733	-89
2.23100	-89
2.23467	-88
2.23833	-88
2.24200	-88
2.24567	-89
2.24933	-89
2.25300	-89
2.25667	-90
2.26033	-89
2.26400	-89
2.26767	-88
2.27133	-88
2.27500	-88
2.27867	-87
2.28233	-87
2.28600	-87
2.28967	-86
2.29333	-85
2.29700	-85
2.30067	-85
2.30433	-84
2.30800	-84
2.31167	-85
2.31533	-85
2.31900	-85
2.32267	-85
2.32633	-85
2.33000	-85
2.33367	-84
2.33733	-83
2.34100	-81
2.34467	-80
2.34833	-79
2.35200	-78
2.35567	-76
2.35933	-76
2.36300	-75
2.36667	-74
2.37033	-73
2.37400	-72
2.37767	-70
2.38133	-67
2.38500	-64
2.38867	-60
2.39233	-57
2.39600	-54
2.39967	-50
2.40333	-47
2.40700	-43
2.41067	-39
2.41433	-36
2.41800	-33
2.42167	-29
2.42533	-27
2.42900	-24
2.43267	-21
2.43633	-19
2.44000	-17
2.44367	-14
2.44733	-12
2.45100	-10
2.45467	-7
2.45833	-6
2.46200	-5
2.46567	-3
2.46933	-2
2.47300	-0
2.47667	1
2.48033	2
2.48400	2
2.48767	3
2.49133	4
2.49500	5
2.49867	6
2.50233	6
2.50600	7
2.50967	8
2.51333	9
2.51700	9
2.52067	9
2.52433	10
2.52800	10
2.53167	10
2.53533	11
2.53900	12
2.54267	12
2.54633	13
2.55000	13
2.55367	13
2.55733	14
2.56100	14
2.56467	14
2.56833	14
2.57200	14
2.57567	14
2.57933	14
2.58300	14
2.58667	14
2.59033	14
2.59400	14
2.59767	14
2.60133	14
2.60500	15
2.60867	15
2.61233	15
2.61600	16
2.61967	16
2.62333	16
2.62700	17
2.63067	17
2.63433	17
2.63800	17
2.64167	18
2.64533	18
2.64900	18
2.65267	19
2.65633	19
2.66000	19
2.66367	20
2.66733	20
2.67100	20
2.67467	20
2.67833	21
2.68200	20
2.68567	20
2.68933	20
2.69300	20
2.69667	20
2.70033	20
2.70400	20
2.70767	20
2.71133	20
2.71500	20
2.71867	20
2.72233	20
2.72600	20
2.72967	21
2.73333	21
2.73700	21
2.74067	21
2.74433	21
2.74800	21
2.75167	21
2.75533	21
2.75900	21
2.76267	21
2.76633	22
2.77000	22
2.77367	23
2.77733	23
2.78100	24
2.78467	24
2.78833	25
2.79200	25
2.79567	26
2.79933	26
2.80300	26
2.80667	26
2.81033	26
2.81400	26
2.81767	26
2.82133	26
2.82500	26
2.82867	26
2.83233	26
2.83600	25
2.83967	25
2.84333	24
2.84700	23
2.85067	22
2.85433	19
2.85800	15
2.86167	8
2.86533	-1
2.86900	-13
2.87267	-30
2.87633	-50
2.88000	-74
2.88367	-102
2.88733	-135
2.89100	-171
2.89467	-211
2.89833	-254
2.90200	-299
2.90567	-346
2.90933	-396
2.91300	-446
2.91667	-498
2.92033	-549
2.92400	-601
2.92767	-652
2.93133	-703
2.93500	-752
2.93867	-801
2.94233	-853
2.94600	-908
2.94967	-968
2.95333	-1023
2.95700	-1063
2.96067	-1080
2.96433	-1072
2.96800	-1038
2.97167	-986
2.97533	-920
2.97900	-845
2.98267	-766
2.98633	-687
2.99000	-610
2.99367	-538
2.99733	-471
3.00100	-410
3.00467	-354
3.00833	-305
3.01200	-262
3.01567	-224
3.01933	-191
3.02300	-162
3.02667	-137
3.03033	-115
3.03400	-97
3.03767	-81
3.04133	-67
3.04500	-56
3.04867	-46
3.05233	-38
3.05600	-30
3.05967	-24
3.06333	-19
3.06700	-15
3.07067	-11
3.07433	-7
3.07800	-4
3.08167	-2
3.08533	1
3.08900	3
3.09267	4
3.09633	6
3.10000	7
3.10367	8
3.10733	8
3.11100	9
3.11467	10
3.11833	10
3.12200	11
3.12567	11
3.12933	12
3.13300	12
3.13667	13
3.14033	13
3.14400	14
3.14767	14
3.15133	15
3.15500	15
3.15867	15
3.16233	15
3.16600	16
3.16967	16
3.17333	16
3.17700	17
3.18067	17
3.18433	17
3.18800	18
3.19167	18
3.19533	19
3.19900	19
3.20267	19
3.20633	19
3.21000	19
3.21367	19
3.21733	19
3.22100	19
3.22467	19
3.22833	19
3.23200	20
3.23567	20
3.23933	20
3.24300	20
3.24667	20
3.25033	20
3.25400	20
3.25767	21
3.26133	21
3.26500	21
3.26867	21
3.27233	21
3.27600	21
3.27967	21
3.28333	21
3.28700	21
3.29067	21
3.29433	21
3.29800	21
3.30167	21
3.30533	21
3.30900	21
3.31267	21
3.31633	21
3.32000	21
3.32367	21
3.32733	21
3.33100	21
3.33467	21
3.33833	21
3.34200	21
3.34567	21
3.34933	21
3.35300	21
3.35667	21
3.36033	21
3.36400	21
3.36767	21
3.37133	22
3.37500	22
3.37867	22
3.38233	22
3.38600	22
3.38967	23
3.39333	23
3.39700	23
3.40067	23
3.40433	23
3.40800	23
3.41167	23
3.41533	24
3.41900	24
3.42267	24
3.42633	25
3.43000	25
3.43367	25
3.43733	26
3.44100	26
3.44467	26
3.44833	26
3.45200	27
3.45567	27
3.45933	27
3.46300	27
3.46667	27
3.47033	27
3.47400	27
3.47767	27
3.48133	27
3.48500	27
3.48867	27
3.49233	27
3.49600	27
3.49967	26
3.50333	26
3.50700	26
3.51067	26
3.51433	27
3.51800	26
3.52167	26
3.52533	26
3.52900	26
3.53267	26
3.53633	26
3.54000	26
3.54367	26
3.54733	26
3.55100	26
3.55467	26
3.55833	26
3.56200	26
3.56567	26
3.56933	26
3.57300	26
3.57667	26
3.58033	26
3.58400	26
3.58767	26
3.59133	25
3.59500	25
3.59867	25
3.60233	25
3.60600	25
3.60967	25
3.61333	25
3.61700	25
3.62067	25
3.62433	26
3.62800	26
3.63167	26
3.63533	26
3.63900	26
3.64267	26
3.64633	26
3.65000	25
3.65367	25
3.65733	25
3.66100	25
3.66467	25
3.66833	25
3.67200	25
3.67567	25
3.67933	25
3.68300	25
3.68667	25
3.69033	25
3.69400	25
3.69767	25
3.70133	25
3.70500	25
3.70867	25
3.71233	25
3.71600	24
3.71967	24
3.72333	24
3.72700	24
3.73067	24
3.73433	24
3.73800	24
3.74167	24
3.74533	25
3.74900	25
3.75267	25
3.75633	25
3.76000	25
3.76367	25
3.76733	25
3.77100	24
3.77467	24
3.77833	24
3.78200	24
3.78567	24
3.78933	24
3.79300	24
3.79667	24
3.80033	24
3.80400	24
3.80767	24
3.81133	24
3.81500	25
3.81867	25
3.82233	25
3.82600	25
3.82967	24
3.83333	24
3.83700	24
3.84067	24
3.84433	24
3.84800	24
3.85167	24
3.85533	24
3.85900	24
3.86267	24
3.86633	24
3.87000	24
3.87367	24
3.87733	24
3.88100	24
3.88467	24
3.88833	24
3.89200	24
3.89567	24
3.89933	24
3.90300	24
3.90667	24
3.91033	25
3.91400	25
3.91767	25
3.92133	25
3.92500	25
3.92867	25
3.93233	25
3.93600	25
3.93967	25
3.94333	25
3.94700	25
3.95067	24
3.95433	24
3.95800	24
3.96167	24
3.96533	24
3.96900	24
3.97267	24
3.97633	24
3.98000	24
3.98367	24
3.98733	24
3.99100	24
3.99467	23
3.99833	23

[Chromatogram (Ch3)]
Interval(msec)	220
# of Points	1091
Start Time(min)	0.002
End Time(min)	3.998
R.Time (min)	Intensity
0.00167	-1
0.00533	1
0.00900	1
0.01267	1
0.01633	1
0.02000	2
0.02367	-0
0.02733	-1
0.03100	-4
0.03467	-7
0.03833	-7
0.04200	-7
0.04567	-8
0.04933	-8
0.05300	-7
0.05667	-3
0.06033	-2
0.06400	-3
0.06767	-0
0.07133	2
0.07500	3
0.07867	6
0.08233	6
0.08600	2
0.08967	3
0.09333	4
0.09700	6
0.10067	5
0.10433	6
0.10800	5
0.11167	2
0.11533	1
0.11900	2
0.12267	3
0.12633	3
0.13000	1
0.13367	1
0.13733	3
0.14100	5
0.14467	3
0.14833	2
0.15200	2
0.15567	1
0.15933	1
0.16300	0
0.16667	-3
0.17033	-6
0.17400	-5
0.17767	-2
0.18133	1
0.18500	3
0.18867	3
0.19233	5
0.19600	5
0.19967	7
0.20333	8
0.20700	7
0.21067	8
0.21433	8
0.21800	8
0.22167	7
0.22533	5
0.22900	2
0.23267	-0
0.23633	2
0.24000	6
0.24367	7
0.24733	9
0.25100	8
0.25467	4
0.25833	0
0.26200	-3
0.26567	-5
0.26933	-3
0.27300	0
0.27667	5
0.28033	7
0.28400	7
0.28767	9
0.29133	11
0.29500	10
0.29867	9
0.30233	8
0.30600	6
0.30967	3
0.31333	4
0.31700	4
0.32067	6
0.32433	9
0.32800	10
0.33167	12
0.33533	12
0.33900	14
0.34267	15
0.34633	15
0.35000	12
0.35367	10
0.35733	10
0.36100	9
0.36467	12
0.36833	15
0.37200	14
0.37567	9
0.37933	6
0.38300	6
0.38667	6
0.39033	8
0.39400	10
0.39767	12
0.40133	14
0.40500	14
0.40867	12
0.41233	12
0.41600	14
0.41967	15
0.42333	15
0.42700	17
0.43067	17
0.43433	17
0.43800	14
0.44167	14
0.44533	15
0.44900	15
0.45267	16
0.45633	18
0.46000	18
0.46367	17
0.46733	18
0.47100	18
0.47467	18
0.47833	19
0.48200	19
0.48567	21
0.48933	19
0.49300	18
0.49667	16
0.50033	15
0.50400	15
0.50767	14
0.51133	14
0.51500	13
0.51867	11
0.52233	12
0.52600	14
0.52967	17
0.53333	18
0.53700	20
0.54067	20
0.54433	18
0.54800	16
0.55167	15
0.55533	17
0.55900	16
0.56267	17
0.56633	21
0.57000	22
0.57367	21
0.57733	22
0.58100	22
0.58467	20
0.58833	18
0.59200	18
0.59567	21
0.59933	21
0.60300	19
0.60667	21
0.61033	23
0.61400	22
0.61767	21
0.62133	21
0.62500	19
0.62867	19
0.63233	19
0.63600	20
0.63967	22
0.64333	21
0.64700	21
0.65067	23
0.65433	23
0.65800	23
0.66167	22
0.66533	21
0.66900	21
0.67267	21
0.67633	21
0.68000	22
0.68367	23
0.68733	24
0.69100	25
0.69467	24
0.69833	23
0.70200	23
0.70567	25
0.70933	28
0.71300	27
0.71667	25
0.72033	23
0.72400	20
0.72767	19
0.73133	21
0.73500	22
0.73867	23
0.74233	24
0.74600	24
0.74967	25
0.75333	26
0.75700	28
0.76067	29
0.76433	27
0.76800	26
0.77167	26
0.77533	28
0.77900	27
0.78267	27
0.78633	27
0.79000	29
0.79367	29
0.79733	28
0.80100	27
0.80467	26
0.80833	24
0.81200	23
0.81567	21
0.81933	22
0.82300	23
0.82667	24
0.83033	23
0.83400	23
0.83767	23
0.84133	22
0.84500	22
0.84867	23
0.85233	26
0.85600	28
0.85967	28
0.86333	28
0.86700	28
0.87067	27
0.87433	30
0.87800	31
0.88167	29
0.88533	27
0.88900	28
0.89267	27
0.89633	26
0.90000	25
0.90367	27
0.90733	28
0.91100	29
0.91467	29
0.91833	29
0.92200	29
0.92567	27
0.92933	26
0.93300	27
0.93667	27
0.94033	29
0.94400	30
0.94767	29
0.95133	29
0.95500	31
0.95867	32
0.96233	30
0.96600	27
0.96967	26
0.97333	28
0.97700	29
0.98067	32
0.98433	33
0.98800	32
0.99167	29
0.99533	24
0.99900	23
1.00267	24
1.00633	28
1.01000	31
1.01367	31
1.01733	31
1.02100	30
1.02467	29
1.02833	27
1.03200	25
1.03567	24
1.03933	25
1.04300	28
1.04667	32
1.05033	33
1.05400	31
1.05767	33
1.06133	34
1.06500	34
1.06867	31
1.07233	28
1.07600	26
1.07967	25
1.08333	25
1.08700	25
1.09067	26
1.09433	26
1.09800	28
1.10167	28
1.10533	28
1.10900	28
1.11267	29
1.11633	28
1.12000	28
1.12367	31
1.12733	30
1.13100	27
1.13467	26
1.13833	24
1.14200	22
1.14567	20
1.14933	19
1.15300	20
1.15667	22
1.16033	21
1.16400	20
1.16767	22
1.17133	23
1.17500	22
1.17867	22
1.18233	26
1.18600	28
1.18967	31
1.19333	31
1.19700	30
1.20067	30
1.20433	30
1.20800	29
1.21167	29
1.21533	30
1.21900	30
1.22267	30
1.22633	30
1.23000	30
1.23367	30
1.23733	30
1.24100	31
1.24467	31
1.24833	33
1.25200	31
1.25567	30
1.25933	30
1.26300	28
1.26667	26
1.27033	26
1.27400	24
1.27767	25
1.28133	27
1.28500	29
1.28867	29
1.29233	28
1.29600	27
1.29967	27
1.30333	26
1.30700	27
1.31067	26
1.31433	28
1.31800	29
1.32167	29
1.32533	30
1.32900	29
1.33267	25
1.33633	24
1.34000	25
1.34367	29
1.34733	30
1.35100	28
1.35467	26
1.35833	25
1.36200	26
1.36567	26
1.36933	26
1.37300	26
1.37667	28
1.38033	29
1.38400	30
1.38767	31
1.39133	32
1.39500	32
1.39867	34
1.40233	37
1.40600	37
1.40967	36
1.41333	32
1.41700	29
1.42067	26
1.42433	22
1.42800	23
1.43167	25
1.43533	24
1.43900	24
1.44267	26
1.44633	29
1.45000	29
1.45367	28
1.45733	27
1.46100	26
1.46467	24
1.46833	22
1.47200	23
1.47567	21
1.47933	20
1.48300	21
1.48667	24
1.49033	27
1.49400	28
1.49767	28
1.50133	29
1.50500	29
1.50867	27
1.51233	24
1.51600	23
1.51967	22
1.52333	24
1.52700	25
1.53067	25
1.53433	24
1.53800	24
1.54167	25
1.54533	26
1.54900	27
1.55267	30
1.55633	32
1.56000	32
1.56367	32
1.56733	29
1.57100	27
1.57467	26
1.57833	24
1.58200	23
1.58567	22
1.58933	20
1.59300	21
1.59667	23
1.60033	26
1.60400	27
1.60767	28
1.61133	30
1.61500	30
1.61867	31
1.62233	31
1.62600	27
1.62967	26
1.63333	26
1.63700	29
1.64067	28
1.64433	29
1.64800	32
1.65167	34
1.65533	33
1.65900	33
1.66267	30
1.66633	29
1.67000	31
1.67367	33
1.67733	37
1.68100	39
1.68467	40
1.68833	39
1.69200	38
1.69567	39
1.69933	41
1.70300	43
1.70667	45
1.71033	47
1.71400	46
1.71767	45
1.72133	44
1.72500	45
1.72867	47
1.73233	48
1.73600	47
1.73967	46
1.74333	45
1.74700	44
1.75067	45
1.75433	46
1.75800	46
1.76167	47
1.76533	47
1.76900	49
1.77267	48
1.77633	45
1.78000	45
1.78367	46
1.78733	45
1.79100	45
1.79467	47
1.79833	49
1.80200	50
1.80567	51
1.80933	52
1.81300	54
1.81667	54
1.82033	53
1.82400	54
1.82767	57
1.83133	61
1.83500	63
1.83867	65
1.84233	63
1.84600	60
1.84967	59
1.85333	59
1.85700	61
1.86067	61
1.86433	61
1.86800	61
1.87167	62
1.87533	62
1.87900	63
1.88267	66
1.88633	67
1.89000	67
1.89367	67
1.89733	66
1.90100	65
1.90467	66
1.90833	67
1.91200	69
1.91567	71
1.91933	71
1.92300	70
1.92667	71
1.93033	74
1.93400	78
1.93767	79
1.94133	79
1.94500	78
1.94867	76
1.95233	76
1.95600	76
1.95967	77
1.96333	79
1.96700	81
1.97067	83
1.97433	83
1.97800	84
1.98167	85
1.98533	83
1.98900	82
1.99267	84
1.99633	87
2.00000	88
2.00367	87
2.00733	88
2.01100	90
2.01467	92
2.01833	90
2.02200	90
2.02567	90
2.02933	92
2.03300	93
2.03667	93
2.04033	95
2.04400	98
2.04767	99
2.05133	100
2.05500	102
2.05867	106
2.06233	105
2.06600	103
2.06967	102
2.07333	103
2.07700	103
2.08067	103
2.08433	105
2.08800	107
2.09167	108
2.09533	108
2.09900	109
2.10267	110
2.10633	109
2.11000	109
2.11367	110
2.11733	112
2.12100	116
2.12467	118
2.12833	119
2.13200	120
2.13567	123
2.13933	124
2.14300	123
2.14667	120
2.15033	121
2.15400	125
2.15767	128
2.16133	128
2.16500	128
2.16867	128
2.17233	129
2.17600	132
2.17967	134
2.18333	136
2.18700	137
2.19067	140
2.19433	143
2.19800	145
2.20167	147
2.20533	147
2.20900	148
2.21267	146
2.21633	147
2.22000	148
2.22367	149
2.22733	151
2.23100	154
2.23467	153
2.23833	152
2.24200	154
2.24567	156
2.24933	157
2.25300	159
2.25667	159
2.26033	158
2.26400	158
2.26767	159
2.27133	160
2.27500	163
2.27867	164
2.28233	163
2.28600	162
2.28967	161
2.29333	162
2.29700	164
2.30067	164
2.30433	166
2.30800	168
2.31167	171
2.31533	174
2.31900	174
2.32267	173
2.32633	173
2.33000	174
2.33367	178
2.33733	184
2.34100	188
2.34467	186
2.34833	184
2.35200	184
2.35567	187
2.35933	188
2.36300	189
2.36667	190
2.37033	192
2.37400	190
2.37767	191
2.38133	194
2.38500	195
2.38867	192
2.39233	191
2.39600	192
2.39967	195
2.40333	200
2.40700	203
2.41067	201
2.41433	200
2.41800	200
2.42167	202
2.42533	203
2.42900	202
2.43267	202
2.43633	202
2.44000	204
2.44367	239
2.44733	316
2.45100	392
2.45467	445
2.45833	455
2.46200	440
2.46567	420
2.46933	403
2.47300	387
2.47667	365
2.48033	338
2.48400	308
2.48767	277
2.49133	248
2.49500	224
2.49867	207
2.50233	197
2.50600	193
2.50967	197
2.51333	203
2.51700	209
2.52067	214
2.52433	213
2.52800	206
2.53167	195
2.53533	183
2.53900	167
2.54267	150
2.54633	135
2.55000	122
2.55367	111
2.55733	103
2.56100	100
2.56467	98
2.56833	97
2.57200	95
2.57567	96
2.57933	96
2.58300	97
2.58667	100
2.59033	105
2.59400	108
2.59767	110
2.60133	111
2.60500	93
2.60867	56
2.61233	31
2.61600	30
2.61967	50
2.62333	81
2.62700	104
2.63067	120
2.63433	135
2.63800	152
2.64167	175
2.64533	198
2.64900	226
2.65267	254
2.65633	282
2.66000	308
2.66367	332
2.66733	357
2.67100	383
2.67467	405
2.67833	425
2.68200	441
2.68567	457
2.68933	472
2.69300	493
2.69667	514
2.70033	531
2.70400	545
2.70767	561
2.71133	575
2.71500	587
2.71867	598
2.72233	611
2.72600	625
2.72967	637
2.73333	649
2.73700	658
2.74067	668
2.74433	678
2.74800	684
2.75167	690
2.75533	695
2.75900	700
2.76267	704
2.76633	706
2.77000	707
2.77367	708
2.77733	710
2.78100	713
2.78467	717
2.78833	715
2.79200	712
2.79567	710
2.79933	702
2.80300	693
2.80667	685
2.81033	677
2.81400	669
2.81767	659
2.82133	647
2.82500	641
2.82867	645
2.83233	667
2.83600	715
2.83967	808
2.84333	969
2.84700	1225
2.85067	1590
2.85433	2065
2.85800	2627
2.86167	3244
2.86533	3866
2.86900	4436
2.87267	4909
2.87633	5246
2.88000	5431
2.88367	5463
2.88733	5359
2.89100	5147
2.89467	4859
2.89833	4522
2.90200	4161
2.90567	3797
2.90933	3442
2.91300	3106
2.91667	2795
2.92033	2510
2.92400	2254
2.92767	2026
2.93133	1828
2.93500	1654
2.93867	1503
2.94233	1369
2.94600	1249
2.94967	1146
2.95333	1057
2.95700	978
2.96067	912
2.96433	855
2.96800	806
2.97167	765
2.97533	732
2.97900	700
2.98267	674
2.98633	652
2.99000	633
2.99367	617
2.99733	599
3.00100	584
3.00467	574
3.00833	562
3.01200	553
3.01567	545
3.01933	538
3.02300	533
3.02667	528
3.03033	524
3.03400	520
3.03767	515
3.04133	511
3.04500	509
3.04867	508
3.05233	505
3.05600	502
3.05967	501
3.06333	502
3.06700	502
3.07067	502
3.07433	501
3.07800	498
3.08167	494
3.08533	494
3.08900	493
3.09267	492
3.09633	492
3.10000	491
3.10367	489
3.10733	485
3.11100	483
3.11467	480
3.11833	477
3.12200	471
3.12567	469
3.12933	467
3.13300	463
3.13667	460
3.14033	459
3.14400	459
3.14767	455
3.15133	450
3.15500	446
3.15867	443
3.16233	440
3.16600	437
3.16967	432
3.17333	428
3.17700	425
3.18067	424
3.18433	421
3.18800	418
3.19167	415
3.19533	412
3.19900	411
3.20267	409
3.20633	403
3.21000	397
3.21367	392
3.21733	390
3.22100	389
3.22467	389
3.22833	390
3.23200	388
3.23567	387
3.23933	386
3.24300	383
3.24667	379
3.25033	377
3.25400	375
3.25767	371
3.26133	368
3.26500	364
3.26867	360
3.27233	359
3.27600	356
3.27967	351
3.28333	345
3.28700	340
3.29067	338
3.29433	335
3.29800	333
3.30167	333
3.30533	333
3.30900	330
3.31267	327
3.31633	323
3.32000	320
3.32367	316
3.32733	312
3.33100	311
3.33467	311
3.33833	312
3.34200	312
3.34567	313
3.34933	313
3.35300	312
3.35667	311
3.36033	310
3.36400	306
3.36767	303
3.37133	300
3.37500	297
3.37867	292
3.38233	288
3.38600	287
3.38967	286
3.39333	282
3.39700	281
3.40067	279
3.40433	279
3.40800	281
3.41167	283
3.41533	285
3.41900	284
3.42267	283
3.42633	283
3.43000	284
3.43367	282
3.43733	277
3.44100	272
3.44467	267
3.44833	263
3.45200	262
3.45567	261
3.45933	262
3.46300	262
3.46667	263
3.47033	266
3.47400	266
3.47767	263
3.48133	260
3.48500	259
3.48867	259
3.49233	260
3.49600	260
3.49967	258
3.50333	256
3.50700	257
3.51067	258
3.51433	260
3.51800	258
3.52167	255
3.52533	253
3.52900	250
3.53267	249
3.53633	249
3.54000	248
3.54367	246
3.54733	245
3.55100	245
3.55467	242
3.55833	242
3.56200	244
3.56567	242
3.56933	242
3.57300	243
3.57667	244
3.58033	245
3.58400	242
3.58767	238
3.59133	238
3.59500	235
3.59867	233
3.60233	231
3.60600	233
3.60967	234
3.61333	235
3.61700	234
3.62067	235
3.62433	237
3.62800	237
3.63167	238
3.63533	238
3.63900	237
3.64267	238
3.64633	239
3.65000	238
3.65367	237
3.65733	237
3.66100	239
3.66467	238
3.66833	236
3.67200	234
3.67567	234
3.67933	236
3.68300	238
3.68667	235
3.69033	231
3.69400	229
3.69767	228
3.70133	227
3.70500	227
3.70867	227
3.71233	228
3.71600	230
3.71967	233
3.72333	235
3.72700	234
3.73067	234
3.73433	231
3.73800	230
3.74167	230
3.74533	232
3.74900	231
3.75267	229
3.75633	230
3.76000	232
3.76367	233
3.76733	235
3.77100	235
3.77467	236
3.77833	238
3.78200	239
3.78567	238
3.78933	236
3.79300	234
3.79667	232
3.80033	232
3.80400	232
3.80767	233
3.81133	233
3.81500	228
3.81867	225
3.82233	224
3.82600	222
3.82967	223
3.83333	225
3.83700	226
3.84067	227
3.84433	227
3.84800	226
3.85167	227
3.85533	229
3.85900	228
3.86267	226
3.86633	226
3.87000	228
3.87367	228
3.87733	227
3.88100	225
3.88467	226
3.88833	227
3.89200	226
3.89567	224
3.89933	225
3.90300	226
3.90667	226
3.91033	226
3.91400	227
3.91767	228
3.92133	228
3.92500	229
3.92867	230
3.93233	228
3.93600	225
3.93967	223
3.94333	221
3.94700	220
3.95067	223
3.95433	226
3.95800	225
3.96167	222
3.96533	222
3.96900	222
3.97267	222
3.97633	225
3.98000	226
3.98367	226
3.98733	222
3.99100	221
3.99467	220
3.99833	217

[Status Trace (Column Oven Temperature)]
Interval(msec)	1000
# of Points	240
Start Time(min)	0.004
End Time(min)	3.988
Intensity Units	
Intensity Multiplier	1
R.Time (min)	Intensity
0.00435	35.02
0.02102	35.01
0.03768	35.01
0.05435	35.01
0.07102	35.02
0.08768	35.03
0.10435	35.05
0.12102	35.05
0.13768	35.05
0.15435	35.05
0.17102	35.04
0.18768	35.03
0.20435	35.02
0.22102	35.01
0.23768	35.01
0.25435	35.00
0.27102	35.01
0.28768	35.00
0.30435	35.00
0.32102	34.99
0.33768	35.00
0.35435	34.99
0.37102	34.99
0.38768	34.98
0.40435	34.98
0.42102	34.99
0.43768	34.98
0.45435	34.99
0.47102	34.99
0.48768	35.00
0.50435	34.99
0.52102	34.99
0.53768	34.99
0.55435	35.00
0.57102	35.00
0.58768	35.01
0.60435	35.01
0.62102	35.00
0.63768	35.00
0.65435	35.00
0.67102	34.99
0.68768	34.99
0.70435	35.00
0.72102	34.99
0.73768	35.00
0.75435	35.01
0.77102	35.01
0.78768	35.01
0.80435	35.00
0.82102	35.00
0.83768	35.00
0.85435	34.99
0.87102	35.00
0.88768	35.01
0.90435	35.00
0.92102	35.01
0.93768	35.00
0.95435	35.00
0.97102	35.01
0.98768	35.01
1.00435	35.01
1.02102	35.00
1.03768	35.00
1.05435	35.00
1.07102	35.01
1.08768	35.01
1.10435	35.01
1.12102	35.01
1.13768	35.00
1.15435	35.00
1.17102	35.00
1.18768	35.00
1.20435	35.00
1.22102	35.00
1.23768	35.00
1.25435	35.00
1.27102	35.00
1.28768	35.00
1.30435	34.99
1.32102	34.98
1.33768	34.99
1.35435	35.00
1.37102	35.00
1.38768	35.01
1.40435	35.00
1.42102	35.01
1.43768	35.02
1.45435	35.02
1.47102	35.01
1.48768	35.01
1.50435	35.00
1.52102	34.99
1.53768	35.00
1.55435	35.00
1.57102	35.00
1.58768	35.00
1.60435	35.05
1.62102	35.14
1.63768	35.31
1.65435	35.55
1.67102	35.87
1.68768	36.24
1.70435	36.59
1.72102	36.94
1.73768	37.27
1.75435	37.60
1.77102	37.95
1.78768	38.25
1.80435	38.58
1.82102	38.92
1.83768	39.25
1.85435	39.58
1.87102	39.90
1.88768	40.24
1.90435	40.56
1.92102	40.89
1.93768	41.22
1.95435	41.54
1.97102	41.88
1.98768	42.19
2.00435	42.51
2.02102	42.83
2.03768	43.16
2.05435	43.49
2.07102	43.81
2.08768	44.13
2.10435	44.46
2.12102	44.77
2.13768	45.11
2.15435	45.43
2.17102	45.76
2.18768	46.08
2.20435	46.41
2.22102	46.74
2.23768	47.09
2.25435	47.43
2.27102	47.75
2.28768	48.08
2.30435	48.41
2.32102	48.78
2.33768	49.08
2.35435	49.37
2.37102	49.61
2.38768	49.72
2.40435	49.73
2.42102	49.73
2.43768	49.73
2.45435	49.73
2.47102	49.72
2.48768	49.74
2.50435	49.74
2.52102	49.76
2.53768	49.76
2.55435	49.78
2.57102	49.79
2.58768	49.80
2.60435	49.80
2.62102	49.81
2.63768	49.83
2.65435	49.82
2.67102	49.83
2.68768	49.84
2.70435	49.85
2.72102	49.85
2.73768	49.86
2.75435	49.87
2.77102	49.87
2.78768	49.86
2.80435	49.85
2.82102	49.85
2.83768	49.87
2.85435	49.90
2.87102	49.91
2.88768	49.91
2.90435	49.92
2.92102	49.92
2.93768	49.92
2.95435	49.92
2.97102	49.94
2.98768	49.95
3.00435	49.96
3.02102	49.96
3.03768	49.97
3.05435	49.98
3.07102	49.99
3.08768	49.99
3.10435	50.00
3.12102	50.01
3.13768	50.01
3.15435	50.02
3.17102	50.02
3.18768	50.03
3.20435	50.05
3.22102	50.04
3.23768	50.04
3.25435	50.05
3.27102	50.06
3.28768	50.07
3.30435	50.07
3.32102	50.08
3.33768	50.09
3.35435	50.10
3.37102	50.11
3.38768	50.10
3.40435	50.10
3.42102	50.09
3.43768	50.08
3.45435	50.06
3.47102	50.06
3.48768	50.06
3.50435	50.05
3.52102	50.04
3.53768	50.04
3.55435	50.04
3.57102	50.04
3.58768	50.04
3.60435	50.04
3.62102	50.03
3.63768	50.03
3.65435	50.03
3.67102	50.03
3.68768	50.03
3.70435	50.03
3.72102	50.03
3.73768	50.04
3.75435	50.04
3.77102	50.04
3.78768	50.04
3.80435	50.04
3.82102	50.04
3.83768	50.05
3.85435	50.04
3.87102	50.04
3.88768	50.05
3.90435	50.05
3.92102	50.04
3.93768	50.05
3.95435	50.05
3.97102	50.06
3.98768	50.06

[Status Trace (Injection Unit Temperature)]
Interval(msec)	1000
# of Points	240
Start Time(min)	0.004
End Time(min)	3.988
Intensity Units	
Intensity Multiplier	1
R.Time (min)	Intensity
0.00435	99.98
0.02102	99.99
0.03768	99.99
0.05435	99.98
0.07102	99.99
0.08768	99.99
0.10435	99.98
0.12102	99.98
0.13768	99.99
0.15435	99.99
0.17102	99.98
0.18768	99.98
0.20435	99.98
0.22102	99.98
0.23768	99.98
0.25435	99.98
0.27102	99.99
0.28768	99.98
0.30435	99.98
0.32102	99.98
0.33768	99.98
0.35435	99.98
0.37102	99.98
0.38768	99.98
0.40435	99.98
0.42102	99.98
0.43768	99.98
0.45435	99.98
0.47102	99.98
0.48768	99.98
0.50435	99.98
0.52102	99.98
0.53768	99.99
0.55435	99.98
0.57102	99.98
0.58768	99.98
0.60435	99.98
0.62102	99.98
0.63768	99.98
0.65435	99.98
0.67102	99.98
0.68768	99.98
0.70435	99.98
0.72102	99.98
0.73768	99.99
0.75435	99.98
0.77102	99.98
0.78768	99.98
0.80435	99.98
0.82102	99.98
0.83768	99.98
0.85435	99.98
0.87102	99.98
0.88768	99.98
0.90435	99.98
0.92102	99.98
0.93768	99.98
0.95435	99.99
0.97102	99.99
0.98768	99.98
1.00435	99.98
1.02102	99.99
1.03768	99.99
1.05435	99.99
1.07102	99.99
1.08768	99.99
1.10435	99.99
1.12102	99.99
1.13768	99.99
1.15435	99.99
1.17102	99.99
1.18768	99.99
1.20435	99.99
1.22102	99.99
1.23768	99.99
1.25435	99.99
1.27102	99.99
1.28768	99.99
1.30435	99.99
1.32102	99.99
1.33768	99.99
1.35435	99.99
1.37102	99.99
1.38768	99.99
1.40435	99.99
1.42102	99.99
1.43768	99.99
1.45435	99.99
1.47102	99.99
1.48768	99.99
1.50435	99.99
1.52102	99.99
1.53768	99.99
1.55435	99.99
1.57102	99.99
1.58768	99.99
1.60435	99.99
1.62102	99.99
1.63768	99.99
1.65435	99.99
1.67102	99.99
1.68768	99.99
1.70435	99.99
1.72102	99.99
1.73768	99.99
1.75435	99.99
1.77102	100.00
1.78768	99.99
1.80435	99.99
1.82102	99.99
1.83768	99.99
1.85435	99.99
1.87102	99.99
1.88768	99.99
1.90435	99.99
1.92102	99.99
1.93768	99.99
1.95435	99.99
1.97102	99.99
1.98768	99.99
2.00435	99.98
2.02102	99.99
2.03768	99.98
2.05435	99.98
2.07102	99.98
2.08768	99.98
2.10435	99.98
2.12102	99.98
2.13768	99.98
2.15435	99.98
2.17102	99.98
2.18768	99.98
2.20435	99.98
2.22102	99.98
2.23768	99.98
2.25435	99.98
2.27102	99.98
2.28768	99.97
2.30435	99.97
2.32102	99.97
2.33768	99.98
2.35435	99.97
2.37102	99.97
2.38768	99.97
2.40435	99.97
2.42102	99.97
2.43768	99.97
2.45435	99.97
2.47102	99.98
2.48768	99.97
2.50435	99.97
2.52102	99.97
2.53768	99.97
2.55435	99.97
2.57102	99.97
2.58768	99.98
2.60435	99.98
2.62102	99.98
2.63768	99.98
2.65435	99.98
2.67102	99.98
2.68768	99.98
2.70435	99.98
2.72102	99.99
2.73768	99.99
2.75435	99.99
2.77102	99.99
2.78768	99.99
2.80435	99.99
2.82102	99.99
2.83768	100.00
2.85435	100.00
2.87102	100.00
2.88768	100.00
2.90435	100.00
2.92102	100.00
2.93768	100.01
2.95435	100.01
2.97102	100.01
2.98768	100.01
3.00435	100.01
3.02102	100.01
3.03768	100.02
3.05435	100.02
3.07102	100.02
3.08768	100.02
3.10435	100.02
3.12102	100.02
3.13768	100.02
3.15435	100.02
3.17102	100.01
3.18768	100.02
3.20435	100.03
3.22102	100.03
3.23768	100.03
3.25435	100.02
3.27102	100.02
3.28768	100.03
3.30435	100.03
3.32102	100.02
3.33768	100.02
3.35435	100.03
3.37102	100.02
3.38768	100.03
3.40435	100.03
3.42102	100.02
3.43768	100.03
3.45435	100.02
3.47102	100.03
3.48768	100.03
3.50435	100.03
3.52102	100.03
3.53768	100.03
3.55435	100.03
3.57102	100.03
3.58768	100.03
3.60435	100.03
3.62102	100.03
3.63768	100.03
3.65435	100.03
3.67102	100.03
3.68768	100.03
3.70435	100.03
3.72102	100.03
3.73768	100.03
3.75435	100.03
3.77102	100.03
3.78768	100.03
3.80435	100.04
3.82102	100.04
3.83768	100.04
3.85435	100.04
3.87102	100.04
3.88768	100.04
3.90435	100.04
3.92102	100.04
3.93768	100.04
3.95435	100.04
3.97102	100.04
3.98768	100.04

[Status Trace (Carrier Gas Pressure)]
Interval(msec)	1000
# of Points	240
Start Time(min)	0.004
End Time(min)	3.988
Intensity Units	
Intensity Multiplier	1
R.Time (min)	Intensity
0.00435	58.00
0.02102	55.94
0.03768	56.65
0.05435	58.80
0.07102	59.74
0.08768	58.16
0.10435	57.97
0.12102	58.01
0.13768	58.01
0.15435	58.01
0.17102	58.00
0.18768	58.00
0.20435	58.00
0.22102	58.00
0.23768	58.00
0.25435	58.00
0.27102	58.00
0.28768	58.00
0.30435	58.00
0.32102	58.00
0.33768	58.00
0.35435	58.00
0.37102	58.00
0.38768	58.00
0.40435	58.00
0.42102	58.00
0.43768	58.00
0.45435	58.00
0.47102	58.00
0.48768	58.00
0.50435	58.00
0.52102	58.00
0.53768	58.00
0.55435	58.00
0.57102	58.00
0.58768	58.00
0.60435	58.00
0.62102	58.00
0.63768	58.00
0.65435	58.00
0.67102	58.00
0.68768	58.00
0.70435	58.00
0.72102	58.00
0.73768	58.00
0.75435	58.00
0.77102	58.00
0.78768	58.00
0.80435	58.00
0.82102	58.00
0.83768	58.00
0.85435	58.00
0.87102	58.00
0.88768	58.00
0.90435	58.00
0.92102	58.00
0.93768	58.00
0.95435	58.00
0.97102	58.00
0.98768	58.00
1.00435	58.00
1.02102	58.00
1.03768	58.00
1.05435	58.00
1.07102	58.00
1.08768	58.00
1.10435	58.00
1.12102	58.00
1.13768	58.00
1.15435	58.00
1.17102	58.00
1.18768	58.00
1.20435	58.00
1.22102	58.00
1.23768	58.00
1.25435	58.00
1.27102	58.00
1.28768	58.00
1.30435	58.00
1.32102	58.00
1.33768	58.00
1.35435	58.00
1.37102	58.00
1.38768	58.00
1.40435	58.00
1.42102	58.00
1.43768	58.00
1.45435	58.00
1.47102	58.00
1.48768	58.00
1.50435	58.00
1.52102	58.00
1.53768	58.00
1.55435	58.00
1.57102	58.00
1.58768	58.00
1.60435	58.00
1.62102	58.00
1.63768	58.00
1.65435	58.00
1.67102	58.01
1.68768	58.01
1.70435	58.00
1.72102	58.00
1.73768	58.00
1.75435	58.00
1.77102	58.00
1.78768	58.00
1.80435	58.00
1.82102	58.00
1.83768	58.00
1.85435	58.00
1.87102	58.00
1.88768	58.00
1.90435	58.00
1.92102	58.00
1.93768	58.00
1.95435	58.00
1.97102	58.00
1.98768	58.00
2.00435	58.00
2.02102	58.00
2.03768	58.00
2.05435	58.00
2.07102	58.00
2.08768	58.00
2.10435	58.00
2.12102	58.00
2.13768	58.00
2.15435	58.00
2.17102	58.00
2.18768	58.00
2.20435	58.00
2.22102	58.00
2.23768	58.00
2.25435	58.00
2.27102	58.00
2.28768	58.00
2.30435	58.00
2.32102	58.00
2.33768	58.00
2.35435	58.00
2.37102	58.00
2.38768	57.99
2.40435	57.99
2.42102	58.00
2.43768	58.00
2.45435	58.00
2.47102	58.00
2.48768	58.00
2.50435	57.98
2.52102	57.99
2.53768	57.99
2.55435	58.00
2.57102	58.00
2.58768	58.00
2.60435	58.00
2.62102	58.00
2.63768	58.00
2.65435	58.00
2.67102	58.00
2.68768	58.00
2.70435	58.00
2.72102	58.00
2.73768	58.00
2.75435	58.00
2.77102	58.00
2.78768	58.00
2.80435	58.00
2.82102	58.00
2.83768	58.00
2.85435	58.00
2.87102	58.00
2.88768	58.00
2.90435	58.00
2.92102	58.00
2.93768	58.00
2.95435	58.00
2.97102	58.00
2.98768	58.00
3.00435	58.00
3.02102	58.00
3.03768	58.00
3.05435	58.00
3.07102	58.00
3.08768	58.00
3.10435	58.00
3.12102	58.00
3.13768	58.00
3.15435	58.00
3.17102	58.00
3.18768	58.00
3.20435	58.00
3.22102	58.00
3.23768	58.00
3.25435	58.00
3.27102	58.00
3.28768	58.00
3.30435	58.00
3.32102	58.00
3.33768	58.00
3.35435	58.00
3.37102	58.00
3.38768	58.00
3.40435	58.00
3.42102	58.00
3.43768	58.00
3.45435	58.00
3.47102	58.00
3.48768	58.00
3.50435	58.00
3.52102	58.00
3.53768	58.00
3.55435	58.00
3.57102	58.00
3.58768	58.00
3.60435	58.00
3.62102	58.00
3.63768	58.00
3.65435	58.00
3.67102	58.00
3.68768	58.00
3.70435	58.00
3.72102	58.00
3.73768	58.00
3.75435	58.00
3.77102	58.00
3.78768	58.00
3.80435	58.00
3.82102	58.00
3.83768	58.00
3.85435	58.00
3.87102	58.00
3.88768	58.00
3.90435	58.00
3.92102	58.00
3.93768	58.00
3.95435	58.00
3.97102	58.00
3.98768	58.00

[Status Trace (Carrier Gas Flow)]
Interval(msec)	1000
# of Points	240
Start Time(min)	0.004
End Time(min)	3.988
Intensity Units	
Intensity Multiplier	1
R.Time (min)	Intensity
0.00435	34.52
0.02102	34.55
0.03768	34.54
0.05435	34.54
0.07102	34.49
0.08768	34.52
0.10435	34.52
0.12102	34.51
0.13768	34.52
0.15435	34.53
0.17102	34.52
0.18768	34.52
0.20435	34.52
0.22102	34.52
0.23768	34.51
0.25435	34.51
0.27102	34.52
0.28768	34.52
0.30435	34.52
0.32102	34.52
0.33768	34.52
0.35435	34.52
0.37102	34.52
0.38768	34.52
0.40435	34.52
0.42102	34.52
0.43768	34.52
0.45435	34.52
0.47102	34.52
0.48768	34.52
0.50435	34.52
0.52102	34.52
0.53768	34.52
0.55435	34.52
0.57102	34.52
0.58768	34.52
0.60435	34.52
0.62102	34.52
0.63768	34.52
0.65435	34.52
0.67102	34.52
0.68768	34.52
0.70435	34.52
0.72102	34.52
0.73768	34.52
0.75435	34.52
0.77102	34.52
0.78768	34.52
0.80435	34.52
0.82102	34.52
0.83768	34.52
0.85435	34.52
0.87102	34.52
0.88768	34.52
0.90435	34.52
0.92102	34.52
0.93768	34.52
0.95435	34.52
0.97102	34.52
0.98768	34.52
1.00435	34.52
1.02102	34.52
1.03768	34.52
1.05435	34.52
1.07102	34.52
1.08768	34.52
1.10435	34.52
1.12102	34.52
1.13768	34.52
1.15435	34.52
1.17102	34.52
1.18768	34.52
1.20435	34.52
1.22102	34.52
1.23768	34.52
1.25435	34.52
1.27102	34.52
1.28768	34.52
1.30435	34.52
1.32102	34.52
1.33768	34.52
1.35435	34.52
1.37102	34.52
1.38768	34.52
1.40435	34.52
1.42102	34.52
1.43768	34.52
1.45435	34.52
1.47102	34.52
1.48768	34.52
1.50435	34.52
1.52102	34.52
1.53768	34.52
1.55435	34.52
1.57102	34.52
1.58768	34.52
1.60435	34.52
1.62102	34.52
1.63768	34.52
1.65435	34.52
1.67102	34.52
1.68768	34.52
1.70435	34.52
1.72102	34.52
1.73768	34.52
1.75435	34.52
1.77102	34.52
1.78768	34.52
1.80435	34.52
1.82102	34.52
1.83768	34.52
1.85435	34.52
1.87102	34.52
1.88768	34.52
1.90435	34.52
1.92102	34.52
1.93768	34.52
1.95435	34.52
1.97102	34.52
1.98768	34.52
2.00435	34.52
2.02102	34.52
2.03768	34.52
2.05435	34.52
2.07102	34.52
2.08768	34.52
2.10435	34.52
2.12102	34.52
2.13768	34.52
2.15435	34.52
2.17102	34.52
2.18768	34.52
2.20435	34.52
2.22102	34.52
2.23768	34.52
2.25435	34.52
2.27102	34.52
2.28768	34.52
2.30435	34.52
2.32102	34.52
2.33768	34.52
2.35435	34.52
2.37102	34.52
2.38768	34.53
2.40435	34.52
2.42102	34.52
2.43768	34.52
2.45435	34.53
2.47102	34.52
2.48768	34.52
2.50435	34.62
2.52102	34.52
2.53768	34.52
2.55435	34.52
2.57102	34.52
2.58768	34.52
2.60435	34.52
2.62102	34.52
2.63768	34.52
2.65435	34.52
2.67102	34.52
2.68768	34.52
2.70435	34.52
2.72102	34.52
2.73768	34.52
2.75435	34.52
2.77102	34.52
2.78768	34.52
2.80435	34.52
2.82102	34.52
2.83768	34.52
2.85435	34.52
2.87102	34.52
2.88768	34.52
2.90435	34.52
2.92102	34.52
2.93768	34.52
2.95435	34.52
2.97102	34.52
2.98768	34.52
3.00435	34.52
3.02102	34.52
3.03768	34.52
3.05435	34.52
3.07102	34.52
3.08768	34.52
3.10435	34.52
3.12102	34.52
3.13768	34.52
3.15435	34.52
3.17102	34.52
3.18768	34.52
3.20435	34.52
3.22102	34.52
3.23768	34.52
3.25435	34.52
3.27102	34.52
3.28768	34.52
3.30435	34.52
3.32102	34.52
3.33768	34.52
3.35435	34.52
3.37102	34.52
3.38768	34.52
3.40435	34.52
3.42102	34.52
3.43768	34.52
3.45435	34.52
3.47102	34.52
3.48768	34.52
3.50435	34.52
3.52102	34.52
3.53768	34.52
3.55435	34.52
3.57102	34.52
3.58768	34.52
3.60435	34.52
3.62102	34.52
3.63768	34.52
3.65435	34.52
3.67102	34.52
3.68768	34.52
3.70435	34.52
3.72102	34.52
3.73768	34.52
3.75435	34.52
3.77102	34.52
3.78768	34.52
3.80435	34.52
3.82102	34.52
3.83768	34.52
3.85435	34.52
3.87102	34.52
3.88768	34.52
3.90435	34.52
3.92102	34.52
3.93768	34.52
3.95435	34.52
3.97102	34.52
3.98768	34.52

[Status Trace (Column Flow)]
Interval(msec)	1000
# of Points	240
Start Time(min)	0.004
End Time(min)	3.988
Intensity Units	
Intensity Multiplier	1
R.Time (min)	Intensity
0.00435	5.44
0.02102	5.21
0.03768	5.29
0.05435	5.53
0.07102	5.64
0.08768	5.46
0.10435	5.44
0.12102	5.44
0.13768	5.44
0.15435	5.44
0.17102	5.44
0.18768	5.44
0.20435	5.44
0.22102	5.44
0.23768	5.44
0.25435	5.44
0.27102	5.44
0.28768	5.44
0.30435	5.44
0.32102	5.44
0.33768	5.44
0.35435	5.44
0.37102	5.44
0.38768	5.44
0.40435	5.44
0.42102	5.44
0.43768	5.44
0.45435	5.44
0.47102	5.44
0.48768	5.44
0.50435	5.44
0.52102	5.44
0.53768	5.44
0.55435	5.44
0.57102	5.44
0.58768	5.44
0.60435	5.44
0.62102	5.44
0.63768	5.44
0.65435	5.44
0.67102	5.44
0.68768	5.44
0.70435	5.44
0.72102	5.44
0.73768	5.44
0.75435	5.44
0.77102	5.44
0.78768	5.44
0.80435	5.44
0.82102	5.44
0.83768	5.44
0.85435	5.44
0.87102	5.44
0.88768	5.44
0.90435	5.44
0.92102	5.44
0.93768	5.44
0.95435	5.44
0.97102	5.44
0.98768	5.44
1.00435	5.44
1.02102	5.44
1.03768	5.44
1.05435	5.44
1.07102	5.44
1.08768	5.44
1.10435	5.44
1.12102	5.44
1.13768	5.44
1.15435	5.44
1.17102	5.44
1.18768	5.44
1.20435	5.44
1.22102	5.44
1.23768	5.44
1.25435	5.44
1.27102	5.44
1.28768	5.44
1.30435	5.44
1.32102	5.44
1.33768	5.44
1.35435	5.44
1.37102	5.44
1.38768	5.44
1.40435	5.44
1.42102	5.44
1.43768	5.44
1.45435	5.44
1.47102	5.44
1.48768	5.44
1.50435	5.44
1.52102	5.44
1.53768	5.44
1.55435	5.44
1.57102	5.44
1.58768	5.44
1.60435	5.44
1.62102	5.44
1.63768	5.43
1.65435	5.43
1.67102	5.42
1.68768	5.40
1.70435	5.39
1.72102	5.38
1.73768	5.37
1.75435	5.36
1.77102	5.35
1.78768	5.34
1.80435	5.33
1.82102	5.32
1.83768	5.31
1.85435	5.30
1.87102	5.29
1.88768	5.28
1.90435	5.27
1.92102	5.26
1.93768	5.25
1.95435	5.24
1.97102	5.24
1.98768	5.23
2.00435	5.22
2.02102	5.21
2.03768	5.20
2.05435	5.19
2.07102	5.18
2.08768	5.17
2.10435	5.16
2.12102	5.15
2.13768	5.14
2.15435	5.13
2.17102	5.12
2.18768	5.11
2.20435	5.11
2.22102	5.10
2.23768	5.09
2.25435	5.08
2.27102	5.07
2.28768	5.06
2.30435	5.05
2.32102	5.04
2.33768	5.03
2.35435	5.02
2.37102	5.02
2.38768	5.01
2.40435	5.01
2.42102	5.01
2.43768	5.01
2.45435	5.01
2.47102	5.01
2.48768	5.01
2.50435	5.01
2.52102	5.01
2.53768	5.01
2.55435	5.01
2.57102	5.01
2.58768	5.01
2.60435	5.01
2.62102	5.01
2.63768	5.01
2.65435	5.01
2.67102	5.01
2.68768	5.01
2.70435	5.01
2.72102	5.01
2.73768	5.01
2.75435	5.01
2.77102	5.01
2.78768	5.01
2.80435	5.01
2.82102	5.01
2.83768	5.01
2.85435	5.01
2.87102	5.01
2.88768	5.01
2.90435	5.01
2.92102	5.01
2.93768	5.01
2.95435	5.01
2.97102	5.01
2.98768	5.01
3.00435	5.01
3.02102	5.01
3.03768	5.01
3.05435	5.01
3.07102	5.01
3.08768	5.01
3.10435	5.01
3.12102	5.01
3.13768	5.01
3.15435	5.01
3.17102	5.00
3.18768	5.00
3.20435	5.00
3.22102	5.00
3.23768	5.00
3.25435	5.00
3.27102	5.00
3.28768	5.00
3.30435	5.00
3.32102	5.00
3.33768	5.00
3.35435	5.00
3.37102	5.00
3.38768	5.00
3.40435	5.00
3.42102	5.00
3.43768	5.00
3.45435	5.00
3.47102	5.00
3.48768	5.00
3.50435	5.00
3.52102	5.00
3.53768	5.00
3.55435	5.00
3.57102	5.00
3.58768	5.00
3.60435	5.00
3.62102	5.01
3.63768	5.01
3.65435	5.01
3.67102	5.00
3.68768	5.01
3.70435	5.00
3.72102	5.00
3.73768	5.00
3.75435	5.00
3.77102	5.00
3.78768	5.00
3.80435	5.00
3.82102	5.00
3.83768	5.00
3.85435	5.00
3.87102	5.00
3.88768	5.00
3.90435	5.00
3.92102	5.00
3.93768	5.00
3.95435	5.00
3.97102	5.00
3.98768	5.00

[Status Trace (Linear Velocity)]
Interval(msec)	1000
# of Points	240
Start Time(min)	0.004
End Time(min)	3.988
Intensity Units	
Intensity Multiplier	1
R.Time (min)	Intensity
0.00435	39.00
0.02102	37.64
0.03768	38.11
0.05435	39.52
0.07102	40.13
0.08768	39.10
0.10435	38.97
0.12102	39.00
0.13768	39.00
0.15435	39.00
0.17102	39.00
0.18768	39.00
0.20435	39.00
0.22102	39.00
0.23768	39.00
0.25435	39.00
0.27102	39.00
0.28768	39.00
0.30435	39.00
0.32102	39.00
0.33768	39.00
0.35435	39.00
0.37102	39.00
0.38768	39.00
0.40435	39.00
0.42102	39.00
0.43768	39.00
0.45435	39.00
0.47102	39.00
0.48768	39.00
0.50435	39.00
0.52102	39.00
0.53768	39.00
0.55435	39.00
0.57102	39.00
0.58768	39.00
0.60435	39.00
0.62102	39.00
0.63768	39.00
0.65435	39.00
0.67102	39.00
0.68768	39.00
0.70435	39.00
0.72102	39.00
0.73768	39.00
0.75435	39.00
0.77102	39.00
0.78768	39.00
0.80435	39.00
0.82102	39.00
0.83768	39.00
0.85435	39.00
0.87102	39.00
0.88768	39.00
0.90435	39.00
0.92102	39.00
0.93768	39.00
0.95435	39.00
0.97102	39.00
0.98768	39.00
1.00435	39.00
1.02102	39.00
1.03768	39.00
1.05435	39.00
1.07102	39.00
1.08768	39.00
1.10435	39.00
1.12102	39.00
1.13768	39.00
1.15435	39.00
1.17102	39.00
1.18768	39.00
1.20435	39.00
1.22102	39.00
1.23768	39.00
1.25435	39.00
1.27102	39.00
1.28768	39.00
1.30435	39.00
1.32102	39.00
1.33768	39.00
1.35435	39.00
1.37102	39.00
1.38768	39.00
1.40435	39.00
1.42102	39.00
1.43768	39.00
1.45435	39.00
1.47102	39.00
1.48768	39.00
1.50435	39.00
1.52102	39.00
1.53768	39.00
1.55435	39.00
1.57102	39.00
1.58768	39.00
1.60435	38.99
1.62102	38.99
1.63768	38.97
1.65435	38.95
1.67102	38.92
1.68768	38.88
1.70435	38.85
1.72102	38.81
1.73768	38.78
1.75435	38.75
1.77102	38.72
1.78768	38.69
1.80435	38.66
1.82102	38.63
1.83768	38.59
1.85435	38.56
1.87102	38.53
1.88768	38.50
1.90435	38.47
1.92102	38.44
1.93768	38.41
1.95435	38.38
1.97102	38.35
1.98768	38.32
2.00435	38.29
2.02102	38.26
2.03768	38.23
2.05435	38.20
2.07102	38.17
2.08768	38.14
2.10435	38.11
2.12102	38.08
2.13768	38.05
2.15435	38.02
2.17102	37.99
2.18768	37.96
2.20435	37.93
2.22102	37.91
2.23768	37.87
2.25435	37.84
2.27102	37.81
2.28768	37.78
2.30435	37.76
2.32102	37.72
2.33768	37.69
2.35435	37.67
2.37102	37.65
2.38768	37.63
2.40435	37.63
2.42102	37.64
2.43768	37.64
2.45435	37.64
2.47102	37.64
2.48768	37.64
2.50435	37.62
2.52102	37.63
2.53768	37.63
2.55435	37.63
2.57102	37.63
2.58768	37.63
2.60435	37.63
2.62102	37.63
2.63768	37.63
2.65435	37.63
2.67102	37.63
2.68768	37.63
2.70435	37.63
2.72102	37.63
2.73768	37.63
2.75435	37.63
2.77102	37.63
2.78768	37.63
2.80435	37.63
2.82102	37.63
2.83768	37.63
2.85435	37.62
2.87102	37.62
2.88768	37.62
2.90435	37.62
2.92102	37.62
2.93768	37.62
2.95435	37.62
2.97102	37.62
2.98768	37.62
3.00435	37.62
3.02102	37.62
3.03768	37.62
3.05435	37.62
3.07102	37.62
3.08768	37.62
3.10435	37.61
3.12102	37.61
3.13768	37.61
3.15435	37.61
3.17102	37.61
3.18768	37.61
3.20435	37.61
3.22102	37.61
3.23768	37.61
3.25435	37.61
3.27102	37.61
3.28768	37.61
3.30435	37.61
3.32102	37.61
3.33768	37.61
3.35435	37.61
3.37102	37.60
3.38768	37.61
3.40435	37.61
3.42102	37.61
3.43768	37.61
3.45435	37.61
3.47102	37.61
3.48768	37.61
3.50435	37.61
3.52102	37.61
3.53768	37.61
3.55435	37.61
3.57102	37.61
3.58768	37.61
3.60435	37.61
3.62102	37.61
3.63768	37.61
3.65435	37.61
3.67102	37.61
3.68768	37.61
3.70435	37.61
3.72102	37.61
3.73768	37.61
3.75435	37.61
3.77102	37.61
3.78768	37.61
3.80435	37.61
3.82102	37.61
3.83768	37.61
3.85435	37.61
3.87102	37.61
3.88768	37.61
3.90435	37.61
3.92102	37.61
3.93768	37.61
3.95435	37.61
3.97102	37.61
3.98768	37.61

