[Header]
Application Name	LabSolutions
Version	5.110
Data File Name	C:\Users\User\Desktop\GC Analyses\Jack\UIC Prairie Sampling\11.2.22\221102_050.gcd
Output Date	3/20/2023
Output Time	1:25:38 PM

[File Information]
Type	Data File
Generated	12/21/2022 1:17:33 PM
Generated by	System Administrator
Modified	12/21/2022 1:22:04 PM
Modified by	System Administrator

[Sample Information]
Operator Name	System Administrator
Acquired	12/21/2022 1:18:03 PM
Sample Type	1:Standard
Level	1
Sample Name	221102_UICPrairie
Sample ID	221102_UICPrairie
ISTD Amount1	1
ISTD Amount2	1
ISTD Amount3	1
ISTD Amount4	1
ISTD Amount5	1
ISTD Amount6	1
ISTD Amount7	1
ISTD Amount8	1
ISTD Amount9	1
ISTD Amount10	1
ISTD Amount11	1
ISTD Amount12	1
ISTD Amount13	1
ISTD Amount14	1
ISTD Amount15	1
ISTD Amount16	1
ISTD Amount17	1
ISTD Amount18	1
ISTD Amount19	1
ISTD Amount20	1
ISTD Amount21	1
ISTD Amount22	1
ISTD Amount23	1
ISTD Amount24	1
ISTD Amount25	1
ISTD Amount26	1
ISTD Amount27	1
ISTD Amount28	1
ISTD Amount29	1
ISTD Amount30	1
ISTD Amount31	1
ISTD Amount32	1
Sample Amount	1
Dilution Factor	1
Vial#	1
Injection Volume	1
Injection Count	1
Bar Code	

[Original Files]
Data File	C:\Users\User\Desktop\GC Analyses\Jack\UIC Prairie Sampling\11.2.22\221102_050.gcd
Method File	C:\LabSolutions\Data\GHG_4min_2022\ghg3_togas_w_acet_4 min_new_int.gcm
Batch File	
Report Format File	c:\LabSolutions\System\DEFAULT.lsr

[File Description]


[Configuration]
Instrument Name	C0B7VH3-Instrument1
Instrument #	1
Line #	1
# of Detectors	3
Detector ID	DET#1	DET#2	DET#3
Detector Name	FID	PTCD	ECD
# of Channels	1	1	1

[Peak Table(Ch1)]
# of Peaks	3
Peak#	R.Time	I.Time	F.Time	Area	Height	A/H	Conc.	Mark	ID#	Name	k'	Plate #	Plate Ht.	Tailing	Resolution	Sep.Factor	Area Ratio	Height Ratio	Conc. %	Norm Conc.
1	1.476	1.439	1.538	11305	4960	2.279	100.000	   	1	CO	0.000	8340	17.985	1.342	0.000	0.000	0	0	16.667	16.667
2	1.571	1.538	1.630	5334	2646	2.016	100.000	 V 	2	CH4	0.065	11073	13.546	0.000	1.533	0.000	0	0	16.667	16.667
3	2.000	1.952	2.616	1182476	546594	2.163	400.000	   	3	CO2	0.355	17247	8.697	1.223	7.112	5.500	0	0	66.667	66.667

[Peak Table(Ch2)]
# of Peaks	0

[Peak Table(Ch3)]
# of Peaks	5
Peak#	R.Time	I.Time	F.Time	Area	Height	A/H	Conc.	Mark	ID#	Name	k'	Plate #	Plate Ht.	Tailing	Resolution	Sep.Factor	Area Ratio	Height Ratio	Conc. %	Norm Conc.
1	2.462	2.381	2.499	1497	530	2.825	0.000	   			0.000	9986	15.021	0.000	0.000	0.000	0	0	0.000	0.000
2	2.517	2.499	2.561	1080	368	2.933	0.000	 V 			0.022	3704	40.491	0.000	0.417	0.000	0	0	0.000	0.000
3	2.609	2.561	2.656	1191	332	3.586	0.000	 V 			0.060	6630	22.624	0.000	0.625	2.667	0	0	0.000	0.000
4	2.792	2.686	2.825	5157	901	5.724	0.109	   	1	N2O	0.134	595	252.255	0.000	0.626	2.250	0	0	10.884	10.884
5	2.884	2.825	3.566	42222	6151	6.864	0.891	 V 	1	N2O	0.171	10920	13.737	0.000	0.323	1.278	0	0	89.116	89.116

[Compound Results(Ch1)]
# of IDs	6
ID#	Name	R.Time	Area	Height	Conc.	Curve	3rd	2nd	1st	Constant	Area Ratio	Height Ratio	Conc. %	Norm Conc.
1	CO	1.476	11305	4960	100.000	Linear	0.000000e+00	0.000000e+00	1.130495e+002	0.000000e+00	0	0	16.667	16.667
2	CH4	1.571	5334	2646	100.000	Linear	0.000000e+00	0.000000e+00	5.334389e+001	0.000000e+00	0	0	16.667	16.667
3	CO2	2.000	1182476	546594	400.000	Linear	0.000000e+00	0.000000e+00	2.956189e+003	0.000000e+00	0	0	66.667	66.667
4	Ethylene	0.000	0	0	0.000	Linear	0.000000e+00	0.000000e+00	0.000000e+00	0.000000e+00	0	0	0.000	0.000
5	Acetylene	0.000	0	0	0.000	Linear	0.000000e+00	0.000000e+00	0.000000e+00	0.000000e+00	0	0	0.000	0.000
6	Ethane	0.000	0	0	0.000	Linear	0.000000e+00	0.000000e+00	0.000000e+00	0.000000e+00	0	0	0.000	0.000

[Compound Results(Ch2)]
# of IDs	5
ID#	Name	R.Time	Area	Height	Conc.	Curve	3rd	2nd	1st	Constant	Area Ratio	Height Ratio	Conc. %	Norm Conc.
1	Hydrogen	0.000	0	0	0.000	Linear	0.000000e+00	0.000000e+00	0.000000e+00	0.000000e+00	0	0	0.000	0.000
2	Oxygen	0.000	0	0	0.000	Linear	0.000000e+00	0.000000e+00	0.000000e+00	0.000000e+00	0	0	0.000	0.000
3	Nitrogen	0.000	0	0	0.000	Linear	0.000000e+00	0.000000e+00	0.000000e+00	0.000000e+00	0	0	0.000	0.000
4	Methane	0.000	0	0	0.000	Linear	0.000000e+00	0.000000e+00	0.000000e+00	0.000000e+00	0	0	0.000	0.000
5	Carbon Monoxide	0.000	0	0	0.000	Linear	0.000000e+00	0.000000e+00	0.000000e+00	0.000000e+00	0	0	0.000	0.000

[Compound Results(Ch3)]
# of IDs	2
ID#	Name	R.Time	Area	Height	Conc.	Curve	3rd	2nd	1st	Constant	Area Ratio	Height Ratio	Conc. %	Norm Conc.
1	N2O	2.884	47379	7052	1.000	Linear	0.000000e+00	0.000000e+00	4.737861e+004	0.000000e+00	0	0	100.000	100.000
2	SF6	0.000	0	0	0.000	Linear	0.000000e+00	0.000000e+00	0.000000e+00	0.000000e+00	0	0	0.000	0.000

[Group Results(Ch1)]
# of Groups	0

[Group Results(Ch2)]
# of Groups	0

[Group Results(Ch3)]
# of Groups	0

[Chromatogram (Ch1)]
Interval(msec)	220
# of Points	1091
Start Time(min)	0.002
End Time(min)	3.998
R.Time (min)	Intensity
0.00167	18
0.00533	21
0.00900	28
0.01267	35
0.01633	39
0.02000	36
0.02367	28
0.02733	19
0.03100	10
0.03467	1
0.03833	-3
0.04200	-4
0.04567	-3
0.04933	-3
0.05300	-5
0.05667	-3
0.06033	2
0.06400	10
0.06767	18
0.07133	21
0.07500	21
0.07867	18
0.08233	15
0.08600	13
0.08967	11
0.09333	9
0.09700	9
0.10067	11
0.10433	13
0.10800	17
0.11167	21
0.11533	23
0.11900	23
0.12267	18
0.12633	10
0.13000	2
0.13367	-0
0.13733	0
0.14100	2
0.14467	3
0.14833	6
0.15200	12
0.15567	21
0.15933	30
0.16300	31
0.16667	24
0.17033	18
0.17400	15
0.17767	12
0.18133	9
0.18500	6
0.18867	1
0.19233	-5
0.19600	-11
0.19967	-13
0.20333	-13
0.20700	-12
0.21067	-14
0.21433	-13
0.21800	-9
0.22167	-4
0.22533	-0
0.22900	0
0.23267	-2
0.23633	-3
0.24000	1
0.24367	7
0.24733	16
0.25100	26
0.25467	32
0.25833	33
0.26200	28
0.26567	19
0.26933	7
0.27300	-2
0.27667	-6
0.28033	-8
0.28400	-8
0.28767	-9
0.29133	-11
0.29500	-15
0.29867	-17
0.30233	-15
0.30600	-15
0.30967	-14
0.31333	-12
0.31700	-10
0.32067	-10
0.32433	-12
0.32800	-13
0.33167	-12
0.33533	-9
0.33900	-7
0.34267	-8
0.34633	-10
0.35000	-10
0.35367	-10
0.35733	-8
0.36100	-5
0.36467	-0
0.36833	5
0.37200	10
0.37567	12
0.37933	12
0.38300	10
0.38667	9
0.39033	7
0.39400	4
0.39767	-4
0.40133	-13
0.40500	-22
0.40867	-26
0.41233	-25
0.41600	-23
0.41967	-21
0.42333	-18
0.42700	-14
0.43067	-7
0.43433	2
0.43800	5
0.44167	2
0.44533	1
0.44900	2
0.45267	1
0.45633	-1
0.46000	-6
0.46367	-13
0.46733	-15
0.47100	-12
0.47467	-8
0.47833	-7
0.48200	-10
0.48567	-12
0.48933	-13
0.49300	-14
0.49667	-15
0.50033	-17
0.50400	-15
0.50767	-13
0.51133	-12
0.51500	-15
0.51867	-18
0.52233	-18
0.52600	-13
0.52967	-7
0.53333	-4
0.53700	-6
0.54067	-10
0.54433	-16
0.54800	-21
0.55167	-25
0.55533	-28
0.55900	-32
0.56267	-34
0.56633	-32
0.57000	-29
0.57367	-17
0.57733	5
0.58100	26
0.58467	41
0.58833	47
0.59200	45
0.59567	38
0.59933	34
0.60300	33
0.60667	34
0.61033	36
0.61400	36
0.61767	33
0.62133	27
0.62500	21
0.62867	16
0.63233	10
0.63600	4
0.63967	0
0.64333	4
0.64700	13
0.65067	18
0.65433	19
0.65800	18
0.66167	17
0.66533	11
0.66900	5
0.67267	0
0.67633	-3
0.68000	-4
0.68367	-3
0.68733	-5
0.69100	-8
0.69467	-10
0.69833	-9
0.70200	-4
0.70567	-0
0.70933	3
0.71300	8
0.71667	11
0.72033	14
0.72400	16
0.72767	15
0.73133	11
0.73500	6
0.73867	0
0.74233	-3
0.74600	-5
0.74967	-7
0.75333	-7
0.75700	-6
0.76067	-6
0.76433	-5
0.76800	-5
0.77167	-6
0.77533	-7
0.77900	-8
0.78267	-9
0.78633	-12
0.79000	-14
0.79367	-13
0.79733	-9
0.80100	-2
0.80467	5
0.80833	11
0.81200	16
0.81567	17
0.81933	15
0.82300	10
0.82667	3
0.83033	-4
0.83400	-9
0.83767	-12
0.84133	-12
0.84500	-10
0.84867	-9
0.85233	-5
0.85600	0
0.85967	3
0.86333	4
0.86700	5
0.87067	4
0.87433	2
0.87800	0
0.88167	-2
0.88533	-4
0.88900	-8
0.89267	-11
0.89633	-11
0.90000	-9
0.90367	-4
0.90733	-2
0.91100	-4
0.91467	-9
0.91833	-14
0.92200	-19
0.92567	-23
0.92933	-21
0.93300	-19
0.93667	-19
0.94033	-20
0.94400	-22
0.94767	-23
0.95133	-20
0.95500	-16
0.95867	-17
0.96233	-21
0.96600	-26
0.96967	-29
0.97333	-31
0.97700	-33
0.98067	-34
0.98433	-33
0.98800	-29
0.99167	-28
0.99533	-29
0.99900	-30
1.00267	-31
1.00633	-31
1.01000	-28
1.01367	-24
1.01733	-19
1.02100	-18
1.02467	-22
1.02833	-28
1.03200	-30
1.03567	-31
1.03933	-34
1.04300	-37
1.04667	-41
1.05033	-47
1.05400	-53
1.05767	-53
1.06133	-49
1.06500	-43
1.06867	-36
1.07233	-30
1.07600	-30
1.07967	-32
1.08333	-34
1.08700	-33
1.09067	-30
1.09433	-31
1.09800	-36
1.10167	-40
1.10533	-40
1.10900	-37
1.11267	-36
1.11633	-39
1.12000	-47
1.12367	-59
1.12733	-69
1.13100	-73
1.13467	-73
1.13833	-66
1.14200	-59
1.14567	-54
1.14933	-52
1.15300	-49
1.15667	-49
1.16033	-52
1.16400	-55
1.16767	-56
1.17133	-55
1.17500	-54
1.17867	-54
1.18233	-53
1.18600	-48
1.18967	-47
1.19333	-49
1.19700	-52
1.20067	-50
1.20433	-45
1.20800	-43
1.21167	-47
1.21533	-54
1.21900	-60
1.22267	-66
1.22633	-67
1.23000	-64
1.23367	-58
1.23733	-55
1.24100	-53
1.24467	-50
1.24833	-46
1.25200	-44
1.25567	-45
1.25933	-45
1.26300	-43
1.26667	-41
1.27033	-39
1.27400	-42
1.27767	-45
1.28133	-47
1.28500	-51
1.28867	-55
1.29233	-57
1.29600	-58
1.29967	-61
1.30333	-63
1.30700	-66
1.31067	-72
1.31433	-79
1.31800	-83
1.32167	-80
1.32533	-73
1.32900	-66
1.33267	-60
1.33633	-59
1.34000	-62
1.34367	-65
1.34733	-68
1.35100	-68
1.35467	-66
1.35833	-66
1.36200	-70
1.36567	-75
1.36933	-78
1.37300	-83
1.37667	-87
1.38033	-89
1.38400	-86
1.38767	-76
1.39133	-68
1.39500	-68
1.39867	-70
1.40233	-73
1.40600	-74
1.40967	-74
1.41333	-73
1.41700	-71
1.42067	-68
1.42433	-65
1.42800	-66
1.43167	-69
1.43533	-68
1.43900	-51
1.44267	25
1.44633	202
1.45000	487
1.45367	965
1.45733	1691
1.46100	2568
1.46467	3421
1.46833	4128
1.47200	4636
1.47567	4909
1.47933	4908
1.48300	4609
1.48667	4057
1.49033	3362
1.49400	2651
1.49767	2019
1.50133	1503
1.50500	1103
1.50867	804
1.51233	588
1.51600	431
1.51967	314
1.52333	229
1.52700	170
1.53067	129
1.53433	102
1.53800	96
1.54167	147
1.54533	323
1.54900	668
1.55267	1140
1.55633	1636
1.56000	2064
1.56367	2385
1.56733	2574
1.57100	2598
1.57467	2426
1.57833	2085
1.58200	1656
1.58567	1228
1.58933	856
1.59300	565
1.59667	353
1.60033	208
1.60400	116
1.60767	59
1.61133	23
1.61500	1
1.61867	-14
1.62233	-29
1.62600	-41
1.62967	-47
1.63333	-49
1.63700	-51
1.64067	-56
1.64433	-61
1.64800	-64
1.65167	-64
1.65533	-61
1.65900	-59
1.66267	-59
1.66633	-61
1.67000	-64
1.67367	-66
1.67733	-68
1.68100	-72
1.68467	-76
1.68833	-75
1.69200	-68
1.69567	-62
1.69933	-63
1.70300	-71
1.70667	-82
1.71033	-91
1.71400	-96
1.71767	-96
1.72133	-95
1.72500	-95
1.72867	-97
1.73233	-98
1.73600	-100
1.73967	-104
1.74333	-108
1.74700	-111
1.75067	-112
1.75433	-112
1.75800	-111
1.76167	-109
1.76533	-108
1.76900	-107
1.77267	-105
1.77633	-100
1.78000	-98
1.78367	-98
1.78733	-98
1.79100	-94
1.79467	-86
1.79833	-77
1.80200	-74
1.80567	-77
1.80933	-82
1.81300	-88
1.81667	-95
1.82033	-101
1.82400	-104
1.82767	-106
1.83133	-106
1.83500	-105
1.83867	-104
1.84233	-101
1.84600	-97
1.84967	-93
1.85333	-90
1.85700	-87
1.86067	-82
1.86433	-76
1.86800	-73
1.87167	-76
1.87533	-82
1.87900	-86
1.88267	-86
1.88633	-86
1.89000	-83
1.89367	-80
1.89733	-80
1.90100	-82
1.90467	-88
1.90833	-93
1.91200	-95
1.91567	-96
1.91933	-96
1.92300	-94
1.92667	-86
1.93033	-79
1.93400	-73
1.93767	-71
1.94133	-69
1.94500	-71
1.94867	-77
1.95233	-79
1.95600	-25
1.95967	328
1.96333	2025
1.96700	8242
1.97067	25714
1.97433	63893
1.97800	129666
1.98167	220459
1.98533	323319
1.98900	420810
1.99267	497181
1.99633	541102
2.00000	546556
2.00367	514279
2.00733	452350
2.01100	374036
2.01467	293258
2.01833	220417
2.02200	160744
2.02567	115125
2.02933	81903
2.03300	58473
2.03667	42269
2.04033	31171
2.04400	23577
2.04767	18350
2.05133	14706
2.05500	12122
2.05867	10250
2.06233	8861
2.06600	7805
2.06967	6983
2.07333	6321
2.07700	5774
2.08067	5316
2.08433	4923
2.08800	4583
2.09167	4287
2.09533	4032
2.09900	3811
2.10267	3616
2.10633	3440
2.11000	3280
2.11367	3131
2.11733	2991
2.12100	2863
2.12467	2745
2.12833	2637
2.13200	2535
2.13567	2443
2.13933	2358
2.14300	2280
2.14667	2207
2.15033	2138
2.15400	2069
2.15767	2003
2.16133	1942
2.16500	1885
2.16867	1830
2.17233	1781
2.17600	1738
2.17967	1696
2.18333	1651
2.18700	1606
2.19067	1563
2.19433	1523
2.19800	1487
2.20167	1454
2.20533	1424
2.20900	1397
2.21267	1372
2.21633	1346
2.22000	1320
2.22367	1291
2.22733	1260
2.23100	1230
2.23467	1200
2.23833	1171
2.24200	1144
2.24567	1120
2.24933	1101
2.25300	1091
2.25667	1078
2.26033	1058
2.26400	1039
2.26767	1025
2.27133	1014
2.27500	999
2.27867	978
2.28233	960
2.28600	945
2.28967	936
2.29333	927
2.29700	913
2.30067	896
2.30433	877
2.30800	863
2.31167	853
2.31533	845
2.31900	837
2.32267	830
2.32633	817
2.33000	803
2.33367	790
2.33733	780
2.34100	771
2.34467	763
2.34833	758
2.35200	755
2.35567	756
2.35933	759
2.36300	753
2.36667	742
2.37033	730
2.37400	718
2.37767	710
2.38133	707
2.38500	703
2.38867	697
2.39233	690
2.39600	683
2.39967	674
2.40333	660
2.40700	647
2.41067	637
2.41433	633
2.41800	636
2.42167	641
2.42533	644
2.42900	642
2.43267	637
2.43633	634
2.44000	631
2.44367	623
2.44733	610
2.45100	595
2.45467	582
2.45833	575
2.46200	575
2.46567	580
2.46933	583
2.47300	582
2.47667	578
2.48033	574
2.48400	569
2.48767	563
2.49133	554
2.49500	548
2.49867	546
2.50233	546
2.50600	547
2.50967	550
2.51333	555
2.51700	559
2.52067	561
2.52433	557
2.52800	547
2.53167	535
2.53533	525
2.53900	519
2.54267	522
2.54633	528
2.55000	532
2.55367	531
2.55733	526
2.56100	521
2.56467	519
2.56833	519
2.57200	521
2.57567	519
2.57933	515
2.58300	508
2.58667	503
2.59033	503
2.59400	504
2.59767	509
2.60133	514
2.60500	512
2.60867	503
2.61233	493
2.61600	484
2.61967	479
2.62333	479
2.62700	482
2.63067	487
2.63433	495
2.63800	500
2.64167	499
2.64533	498
2.64900	497
2.65267	494
2.65633	490
2.66000	487
2.66367	486
2.66733	487
2.67100	490
2.67467	493
2.67833	493
2.68200	491
2.68567	488
2.68933	483
2.69300	476
2.69667	473
2.70033	472
2.70400	473
2.70767	476
2.71133	480
2.71500	486
2.71867	493
2.72233	496
2.72600	493
2.72967	487
2.73333	481
2.73700	479
2.74067	481
2.74433	481
2.74800	476
2.75167	471
2.75533	465
2.75900	458
2.76267	451
2.76633	448
2.77000	447
2.77367	449
2.77733	454
2.78100	458
2.78467	460
2.78833	456
2.79200	453
2.79567	457
2.79933	462
2.80300	466
2.80667	468
2.81033	472
2.81400	475
2.81767	475
2.82133	473
2.82500	469
2.82867	464
2.83233	460
2.83600	456
2.83967	450
2.84333	448
2.84700	450
2.85067	454
2.85433	458
2.85800	461
2.86167	461
2.86533	461
2.86900	459
2.87267	458
2.87633	459
2.88000	459
2.88367	464
2.88733	474
2.89100	482
2.89467	484
2.89833	483
2.90200	479
2.90567	475
2.90933	472
2.91300	469
2.91667	465
2.92033	465
2.92400	468
2.92767	469
2.93133	469
2.93500	466
2.93867	463
2.94233	461
2.94600	463
2.94967	469
2.95333	476
2.95700	481
2.96067	479
2.96433	471
2.96800	459
2.97167	450
2.97533	447
2.97900	448
2.98267	442
2.98633	443
2.99000	466
2.99367	480
2.99733	491
3.00100	502
3.00467	507
3.00833	505
3.01200	494
3.01567	486
3.01933	487
3.02300	487
3.02667	482
3.03033	478
3.03400	477
3.03767	476
3.04133	470
3.04500	460
3.04867	449
3.05233	441
3.05600	437
3.05967	439
3.06333	445
3.06700	448
3.07067	446
3.07433	443
3.07800	444
3.08167	447
3.08533	451
3.08900	453
3.09267	451
3.09633	449
3.10000	449
3.10367	443
3.10733	428
3.11100	417
3.11467	415
3.11833	415
3.12200	415
3.12567	415
3.12933	421
3.13300	430
3.13667	435
3.14033	438
3.14400	446
3.14767	449
3.15133	446
3.15500	438
3.15867	430
3.16233	426
3.16600	426
3.16967	426
3.17333	427
3.17700	429
3.18067	429
3.18433	428
3.18800	428
3.19167	426
3.19533	423
3.19900	417
3.20267	413
3.20633	409
3.21000	411
3.21367	417
3.21733	423
3.22100	423
3.22467	420
3.22833	418
3.23200	421
3.23567	425
3.23933	428
3.24300	427
3.24667	422
3.25033	420
3.25400	422
3.25767	422
3.26133	420
3.26500	419
3.26867	420
3.27233	422
3.27600	423
3.27967	422
3.28333	415
3.28700	406
3.29067	398
3.29433	394
3.29800	394
3.30167	397
3.30533	405
3.30900	413
3.31267	420
3.31633	423
3.32000	422
3.32367	420
3.32733	415
3.33100	410
3.33467	407
3.33833	405
3.34200	403
3.34567	402
3.34933	404
3.35300	403
3.35667	402
3.36033	405
3.36400	405
3.36767	398
3.37133	391
3.37500	390
3.37867	393
3.38233	393
3.38600	392
3.38967	391
3.39333	389
3.39700	390
3.40067	391
3.40433	393
3.40800	392
3.41167	387
3.41533	380
3.41900	372
3.42267	369
3.42633	369
3.43000	371
3.43367	373
3.43733	371
3.44100	366
3.44467	367
3.44833	373
3.45200	379
3.45567	382
3.45933	382
3.46300	380
3.46667	375
3.47033	372
3.47400	368
3.47767	367
3.48133	368
3.48500	371
3.48867	375
3.49233	378
3.49600	377
3.49967	372
3.50333	367
3.50700	365
3.51067	362
3.51433	359
3.51800	357
3.52167	356
3.52533	357
3.52900	359
3.53267	357
3.53633	353
3.54000	349
3.54367	347
3.54733	348
3.55100	349
3.55467	346
3.55833	341
3.56200	337
3.56567	337
3.56933	341
3.57300	348
3.57667	355
3.58033	361
3.58400	365
3.58767	364
3.59133	359
3.59500	352
3.59867	345
3.60233	338
3.60600	331
3.60967	325
3.61333	321
3.61700	319
3.62067	316
3.62433	314
3.62800	313
3.63167	314
3.63533	320
3.63900	330
3.64267	336
3.64633	337
3.65000	333
3.65367	326
3.65733	322
3.66100	323
3.66467	328
3.66833	327
3.67200	323
3.67567	317
3.67933	311
3.68300	305
3.68667	300
3.69033	298
3.69400	300
3.69767	304
3.70133	307
3.70500	309
3.70867	311
3.71233	312
3.71600	313
3.71967	315
3.72333	312
3.72700	303
3.73067	292
3.73433	285
3.73800	283
3.74167	287
3.74533	295
3.74900	305
3.75267	310
3.75633	310
3.76000	309
3.76367	310
3.76733	310
3.77100	309
3.77467	308
3.77833	306
3.78200	302
3.78567	300
3.78933	299
3.79300	298
3.79667	299
3.80033	298
3.80400	298
3.80767	302
3.81133	304
3.81500	305
3.81867	305
3.82233	299
3.82600	291
3.82967	285
3.83333	283
3.83700	283
3.84067	285
3.84433	288
3.84800	288
3.85167	286
3.85533	287
3.85900	285
3.86267	283
3.86633	283
3.87000	281
3.87367	279
3.87733	277
3.88100	275
3.88467	274
3.88833	276
3.89200	283
3.89567	288
3.89933	293
3.90300	294
3.90667	294
3.91033	294
3.91400	293
3.91767	290
3.92133	283
3.92500	275
3.92867	269
3.93233	268
3.93600	268
3.93967	267
3.94333	268
3.94700	267
3.95067	266
3.95433	266
3.95800	267
3.96167	269
3.96533	272
3.96900	274
3.97267	272
3.97633	267
3.98000	265
3.98367	264
3.98733	264
3.99100	269
3.99467	275
3.99833	279

[Chromatogram (Ch2)]
Interval(msec)	220
# of Points	1091
Start Time(min)	0.002
End Time(min)	3.998
R.Time (min)	Intensity
0.00167	-1
0.00533	-1
0.00900	-1
0.01267	-2
0.01633	-2
0.02000	-2
0.02367	-2
0.02733	-2
0.03100	-2
0.03467	-2
0.03833	-2
0.04200	-2
0.04567	-2
0.04933	-3
0.05300	-3
0.05667	-3
0.06033	-3
0.06400	-3
0.06767	-3
0.07133	-3
0.07500	-3
0.07867	-3
0.08233	-3
0.08600	-2
0.08967	-2
0.09333	-2
0.09700	-1
0.10067	-1
0.10433	-0
0.10800	0
0.11167	1
0.11533	1
0.11900	2
0.12267	2
0.12633	2
0.13000	2
0.13367	2
0.13733	2
0.14100	2
0.14467	2
0.14833	2
0.15200	2
0.15567	1
0.15933	1
0.16300	1
0.16667	1
0.17033	1
0.17400	1
0.17767	1
0.18133	1
0.18500	1
0.18867	1
0.19233	1
0.19600	1
0.19967	2
0.20333	2
0.20700	2
0.21067	1
0.21433	1
0.21800	1
0.22167	1
0.22533	1
0.22900	1
0.23267	1
0.23633	1
0.24000	1
0.24367	1
0.24733	1
0.25100	1
0.25467	0
0.25833	-0
0.26200	-1
0.26567	-1
0.26933	-1
0.27300	-1
0.27667	-1
0.28033	-1
0.28400	-1
0.28767	-1
0.29133	-1
0.29500	-1
0.29867	-1
0.30233	-1
0.30600	-1
0.30967	-1
0.31333	-1
0.31700	-1
0.32067	-1
0.32433	-1
0.32800	-1
0.33167	-0
0.33533	-0
0.33900	-0
0.34267	-0
0.34633	-0
0.35000	-0
0.35367	-0
0.35733	-0
0.36100	-0
0.36467	-0
0.36833	-0
0.37200	-0
0.37567	-0
0.37933	-0
0.38300	-0
0.38667	-1
0.39033	-1
0.39400	-1
0.39767	-1
0.40133	-1
0.40500	-1
0.40867	-1
0.41233	-2
0.41600	-2
0.41967	-2
0.42333	-2
0.42700	-2
0.43067	-2
0.43433	-1
0.43800	-1
0.44167	-1
0.44533	-1
0.44900	-1
0.45267	-1
0.45633	-1
0.46000	-1
0.46367	-0
0.46733	-0
0.47100	-0
0.47467	-0
0.47833	-0
0.48200	0
0.48567	0
0.48933	0
0.49300	0
0.49667	0
0.50033	1
0.50400	1
0.50767	1
0.51133	1
0.51500	0
0.51867	0
0.52233	0
0.52600	0
0.52967	-0
0.53333	-0
0.53700	-0
0.54067	-0
0.54433	-0
0.54800	-1
0.55167	-1
0.55533	-1
0.55900	-1
0.56267	-1
0.56633	-1
0.57000	-1
0.57367	-1
0.57733	-1
0.58100	-0
0.58467	-0
0.58833	-0
0.59200	0
0.59567	0
0.59933	0
0.60300	0
0.60667	-0
0.61033	-0
0.61400	-0
0.61767	-0
0.62133	-0
0.62500	-1
0.62867	-1
0.63233	-1
0.63600	-1
0.63967	-2
0.64333	-2
0.64700	-2
0.65067	-2
0.65433	-2
0.65800	-2
0.66167	-2
0.66533	-3
0.66900	-3
0.67267	-3
0.67633	-3
0.68000	-3
0.68367	-3
0.68733	-3
0.69100	-3
0.69467	-3
0.69833	-3
0.70200	-3
0.70567	-3
0.70933	-3
0.71300	-3
0.71667	-3
0.72033	-3
0.72400	-3
0.72767	-3
0.73133	-3
0.73500	-2
0.73867	-2
0.74233	-2
0.74600	-1
0.74967	-1
0.75333	-1
0.75700	-1
0.76067	-1
0.76433	-1
0.76800	-1
0.77167	-1
0.77533	-1
0.77900	-1
0.78267	-1
0.78633	-1
0.79000	-1
0.79367	-1
0.79733	-1
0.80100	-1
0.80467	-1
0.80833	-1
0.81200	-1
0.81567	-1
0.81933	-1
0.82300	-1
0.82667	-1
0.83033	-2
0.83400	-2
0.83767	-2
0.84133	-2
0.84500	-2
0.84867	-2
0.85233	-2
0.85600	-3
0.85967	-3
0.86333	-3
0.86700	-3
0.87067	-3
0.87433	-3
0.87800	-2
0.88167	-2
0.88533	-2
0.88900	-2
0.89267	-2
0.89633	-2
0.90000	-2
0.90367	-2
0.90733	-2
0.91100	-2
0.91467	-2
0.91833	-2
0.92200	-2
0.92567	-2
0.92933	-3
0.93300	-3
0.93667	-3
0.94033	-3
0.94400	-3
0.94767	-3
0.95133	-4
0.95500	-4
0.95867	-4
0.96233	-4
0.96600	-4
0.96967	-3
0.97333	-3
0.97700	-3
0.98067	-3
0.98433	-3
0.98800	-3
0.99167	-3
0.99533	-2
0.99900	-2
1.00267	-2
1.00633	-2
1.01000	-2
1.01367	-2
1.01733	-3
1.02100	-3
1.02467	-3
1.02833	-3
1.03200	-3
1.03567	-3
1.03933	-2
1.04300	-2
1.04667	-2
1.05033	-2
1.05400	-2
1.05767	-2
1.06133	-2
1.06500	-1
1.06867	-1
1.07233	-1
1.07600	-1
1.07967	-2
1.08333	-2
1.08700	-2
1.09067	-2
1.09433	-1
1.09800	-1
1.10167	-1
1.10533	-1
1.10900	-1
1.11267	-1
1.11633	-1
1.12000	-1
1.12367	-1
1.12733	-1
1.13100	-1
1.13467	-1
1.13833	-1
1.14200	-2
1.14567	-2
1.14933	-2
1.15300	-2
1.15667	-3
1.16033	-3
1.16400	-3
1.16767	-3
1.17133	-3
1.17500	-3
1.17867	-4
1.18233	-4
1.18600	-4
1.18967	-4
1.19333	-4
1.19700	-4
1.20067	-4
1.20433	-3
1.20800	-3
1.21167	-3
1.21533	-3
1.21900	-3
1.22267	-2
1.22633	-2
1.23000	-2
1.23367	-2
1.23733	-2
1.24100	-2
1.24467	-1
1.24833	-1
1.25200	-1
1.25567	-1
1.25933	-1
1.26300	-1
1.26667	-1
1.27033	-2
1.27400	-2
1.27767	-2
1.28133	-2
1.28500	-1
1.28867	-1
1.29233	-1
1.29600	-1
1.29967	-0
1.30333	-0
1.30700	-0
1.31067	-0
1.31433	-1
1.31800	-1
1.32167	-1
1.32533	-1
1.32900	-1
1.33267	-1
1.33633	-1
1.34000	-1
1.34367	-1
1.34733	-1
1.35100	-1
1.35467	-2
1.35833	-2
1.36200	-2
1.36567	-2
1.36933	-3
1.37300	-3
1.37667	-3
1.38033	-3
1.38400	-3
1.38767	-3
1.39133	-3
1.39500	-3
1.39867	-3
1.40233	-3
1.40600	-3
1.40967	-3
1.41333	-3
1.41700	-3
1.42067	-3
1.42433	-3
1.42800	-3
1.43167	-3
1.43533	-3
1.43900	-3
1.44267	-3
1.44633	-3
1.45000	-3
1.45367	-3
1.45733	-2
1.46100	-2
1.46467	-2
1.46833	-2
1.47200	-2
1.47567	-2
1.47933	-2
1.48300	-2
1.48667	-2
1.49033	-2
1.49400	-2
1.49767	-2
1.50133	-2
1.50500	-3
1.50867	-3
1.51233	-3
1.51600	-3
1.51967	-3
1.52333	-3
1.52700	-3
1.53067	-3
1.53433	-3
1.53800	-3
1.54167	-3
1.54533	-3
1.54900	-3
1.55267	-3
1.55633	-2
1.56000	-2
1.56367	-2
1.56733	-2
1.57100	-2
1.57467	-2
1.57833	-2
1.58200	-2
1.58567	-2
1.58933	-2
1.59300	-2
1.59667	-3
1.60033	-4
1.60400	-5
1.60767	-6
1.61133	-8
1.61500	-10
1.61867	-13
1.62233	-15
1.62600	-18
1.62967	-22
1.63333	-25
1.63700	-29
1.64067	-32
1.64433	-36
1.64800	-40
1.65167	-44
1.65533	-48
1.65900	-52
1.66267	-56
1.66633	-60
1.67000	-64
1.67367	-69
1.67733	-74
1.68100	-79
1.68467	-83
1.68833	-87
1.69200	-91
1.69567	-95
1.69933	-98
1.70300	-101
1.70667	-103
1.71033	-105
1.71400	-106
1.71767	-107
1.72133	-108
1.72500	-109
1.72867	-109
1.73233	-110
1.73600	-110
1.73967	-111
1.74333	-111
1.74700	-112
1.75067	-112
1.75433	-112
1.75800	-113
1.76167	-113
1.76533	-114
1.76900	-115
1.77267	-115
1.77633	-116
1.78000	-117
1.78367	-118
1.78733	-118
1.79100	-118
1.79467	-118
1.79833	-119
1.80200	-119
1.80567	-119
1.80933	-119
1.81300	-120
1.81667	-120
1.82033	-120
1.82400	-120
1.82767	-120
1.83133	-120
1.83500	-120
1.83867	-120
1.84233	-120
1.84600	-119
1.84967	-119
1.85333	-118
1.85700	-118
1.86067	-117
1.86433	-117
1.86800	-118
1.87167	-118
1.87533	-118
1.87900	-118
1.88267	-118
1.88633	-119
1.89000	-119
1.89367	-119
1.89733	-119
1.90100	-118
1.90467	-118
1.90833	-118
1.91200	-118
1.91567	-118
1.91933	-118
1.92300	-118
1.92667	-118
1.93033	-117
1.93400	-117
1.93767	-117
1.94133	-116
1.94500	-116
1.94867	-115
1.95233	-115
1.95600	-114
1.95967	-114
1.96333	-113
1.96700	-113
1.97067	-113
1.97433	-113
1.97800	-112
1.98167	-112
1.98533	-112
1.98900	-112
1.99267	-112
1.99633	-112
2.00000	-112
2.00367	-112
2.00733	-112
2.01100	-111
2.01467	-111
2.01833	-110
2.02200	-109
2.02567	-109
2.02933	-108
2.03300	-107
2.03667	-107
2.04033	-107
2.04400	-107
2.04767	-107
2.05133	-107
2.05500	-107
2.05867	-107
2.06233	-107
2.06600	-107
2.06967	-107
2.07333	-107
2.07700	-106
2.08067	-106
2.08433	-106
2.08800	-105
2.09167	-105
2.09533	-105
2.09900	-105
2.10267	-104
2.10633	-104
2.11000	-104
2.11367	-103
2.11733	-103
2.12100	-102
2.12467	-102
2.12833	-101
2.13200	-101
2.13567	-101
2.13933	-101
2.14300	-101
2.14667	-101
2.15033	-101
2.15400	-101
2.15767	-101
2.16133	-101
2.16500	-101
2.16867	-101
2.17233	-100
2.17600	-100
2.17967	-99
2.18333	-99
2.18700	-99
2.19067	-98
2.19433	-98
2.19800	-98
2.20167	-97
2.20533	-97
2.20900	-97
2.21267	-97
2.21633	-96
2.22000	-96
2.22367	-96
2.22733	-95
2.23100	-95
2.23467	-94
2.23833	-93
2.24200	-92
2.24567	-92
2.24933	-91
2.25300	-91
2.25667	-90
2.26033	-90
2.26400	-89
2.26767	-88
2.27133	-88
2.27500	-88
2.27867	-88
2.28233	-88
2.28600	-89
2.28967	-89
2.29333	-89
2.29700	-89
2.30067	-88
2.30433	-87
2.30800	-86
2.31167	-85
2.31533	-84
2.31900	-84
2.32267	-83
2.32633	-83
2.33000	-82
2.33367	-81
2.33733	-81
2.34100	-80
2.34467	-79
2.34833	-79
2.35200	-79
2.35567	-79
2.35933	-79
2.36300	-79
2.36667	-78
2.37033	-76
2.37400	-75
2.37767	-72
2.38133	-69
2.38500	-66
2.38867	-63
2.39233	-59
2.39600	-55
2.39967	-51
2.40333	-47
2.40700	-43
2.41067	-39
2.41433	-35
2.41800	-32
2.42167	-28
2.42533	-25
2.42900	-23
2.43267	-20
2.43633	-18
2.44000	-16
2.44367	-14
2.44733	-12
2.45100	-10
2.45467	-9
2.45833	-7
2.46200	-6
2.46567	-5
2.46933	-3
2.47300	-2
2.47667	-0
2.48033	1
2.48400	2
2.48767	3
2.49133	4
2.49500	4
2.49867	5
2.50233	6
2.50600	6
2.50967	7
2.51333	7
2.51700	8
2.52067	9
2.52433	9
2.52800	10
2.53167	11
2.53533	11
2.53900	12
2.54267	13
2.54633	13
2.55000	13
2.55367	13
2.55733	14
2.56100	14
2.56467	14
2.56833	15
2.57200	15
2.57567	16
2.57933	16
2.58300	16
2.58667	16
2.59033	16
2.59400	16
2.59767	16
2.60133	15
2.60500	15
2.60867	15
2.61233	16
2.61600	16
2.61967	16
2.62333	17
2.62700	18
2.63067	18
2.63433	19
2.63800	19
2.64167	20
2.64533	20
2.64900	20
2.65267	20
2.65633	20
2.66000	20
2.66367	20
2.66733	20
2.67100	21
2.67467	21
2.67833	21
2.68200	21
2.68567	21
2.68933	22
2.69300	22
2.69667	22
2.70033	22
2.70400	22
2.70767	22
2.71133	22
2.71500	22
2.71867	22
2.72233	22
2.72600	22
2.72967	22
2.73333	22
2.73700	22
2.74067	22
2.74433	23
2.74800	23
2.75167	23
2.75533	24
2.75900	24
2.76267	25
2.76633	25
2.77000	26
2.77367	26
2.77733	27
2.78100	27
2.78467	27
2.78833	27
2.79200	27
2.79567	26
2.79933	25
2.80300	25
2.80667	24
2.81033	24
2.81400	24
2.81767	24
2.82133	24
2.82500	24
2.82867	24
2.83233	24
2.83600	25
2.83967	25
2.84333	25
2.84700	25
2.85067	25
2.85433	24
2.85800	22
2.86167	17
2.86533	11
2.86900	1
2.87267	-12
2.87633	-28
2.88000	-49
2.88367	-74
2.88733	-103
2.89100	-136
2.89467	-173
2.89833	-212
2.90200	-255
2.90567	-301
2.90933	-349
2.91300	-399
2.91667	-450
2.92033	-501
2.92400	-554
2.92767	-606
2.93133	-658
2.93500	-710
2.93867	-761
2.94233	-812
2.94600	-863
2.94967	-919
2.95333	-980
2.95700	-1038
2.96067	-1083
2.96433	-1106
2.96800	-1102
2.97167	-1074
2.97533	-1024
2.97900	-959
2.98267	-884
2.98633	-805
2.99000	-724
2.99367	-645
2.99733	-571
3.00100	-501
3.00467	-437
3.00833	-379
3.01200	-328
3.01567	-282
3.01933	-242
3.02300	-207
3.02667	-176
3.03033	-149
3.03400	-126
3.03767	-106
3.04133	-88
3.04500	-73
3.04867	-60
3.05233	-49
3.05600	-40
3.05967	-31
3.06333	-25
3.06700	-19
3.07067	-14
3.07433	-10
3.07800	-6
3.08167	-3
3.08533	-0
3.08900	2
3.09267	4
3.09633	5
3.10000	6
3.10367	7
3.10733	8
3.11100	9
3.11467	10
3.11833	11
3.12200	11
3.12567	12
3.12933	13
3.13300	13
3.13667	14
3.14033	14
3.14400	14
3.14767	15
3.15133	15
3.15500	15
3.15867	16
3.16233	16
3.16600	16
3.16967	17
3.17333	17
3.17700	17
3.18067	17
3.18433	17
3.18800	17
3.19167	17
3.19533	18
3.19900	18
3.20267	18
3.20633	18
3.21000	18
3.21367	18
3.21733	18
3.22100	19
3.22467	19
3.22833	20
3.23200	20
3.23567	20
3.23933	21
3.24300	21
3.24667	21
3.25033	21
3.25400	22
3.25767	22
3.26133	22
3.26500	22
3.26867	23
3.27233	23
3.27600	23
3.27967	23
3.28333	23
3.28700	22
3.29067	22
3.29433	22
3.29800	22
3.30167	23
3.30533	23
3.30900	23
3.31267	23
3.31633	23
3.32000	23
3.32367	23
3.32733	23
3.33100	23
3.33467	23
3.33833	23
3.34200	24
3.34567	23
3.34933	23
3.35300	23
3.35667	24
3.36033	24
3.36400	24
3.36767	24
3.37133	25
3.37500	25
3.37867	26
3.38233	26
3.38600	27
3.38967	27
3.39333	27
3.39700	28
3.40067	28
3.40433	28
3.40800	28
3.41167	28
3.41533	28
3.41900	28
3.42267	28
3.42633	29
3.43000	29
3.43367	29
3.43733	29
3.44100	29
3.44467	29
3.44833	29
3.45200	29
3.45567	29
3.45933	29
3.46300	29
3.46667	29
3.47033	29
3.47400	29
3.47767	29
3.48133	29
3.48500	29
3.48867	29
3.49233	29
3.49600	29
3.49967	28
3.50333	28
3.50700	28
3.51067	29
3.51433	29
3.51800	29
3.52167	29
3.52533	28
3.52900	28
3.53267	28
3.53633	28
3.54000	28
3.54367	28
3.54733	28
3.55100	28
3.55467	28
3.55833	28
3.56200	28
3.56567	28
3.56933	27
3.57300	27
3.57667	27
3.58033	27
3.58400	27
3.58767	27
3.59133	27
3.59500	27
3.59867	27
3.60233	26
3.60600	26
3.60967	26
3.61333	26
3.61700	26
3.62067	26
3.62433	26
3.62800	26
3.63167	26
3.63533	26
3.63900	26
3.64267	26
3.64633	26
3.65000	26
3.65367	26
3.65733	26
3.66100	26
3.66467	26
3.66833	26
3.67200	26
3.67567	26
3.67933	26
3.68300	26
3.68667	26
3.69033	26
3.69400	26
3.69767	27
3.70133	27
3.70500	26
3.70867	26
3.71233	26
3.71600	26
3.71967	26
3.72333	26
3.72700	26
3.73067	26
3.73433	26
3.73800	25
3.74167	26
3.74533	26
3.74900	26
3.75267	26
3.75633	26
3.76000	26
3.76367	26
3.76733	26
3.77100	26
3.77467	26
3.77833	26
3.78200	27
3.78567	27
3.78933	27
3.79300	27
3.79667	27
3.80033	27
3.80400	27
3.80767	27
3.81133	27
3.81500	27
3.81867	27
3.82233	27
3.82600	27
3.82967	27
3.83333	27
3.83700	27
3.84067	27
3.84433	27
3.84800	27
3.85167	27
3.85533	27
3.85900	27
3.86267	27
3.86633	27
3.87000	27
3.87367	27
3.87733	27
3.88100	27
3.88467	27
3.88833	27
3.89200	27
3.89567	27
3.89933	27
3.90300	27
3.90667	27
3.91033	27
3.91400	27
3.91767	27
3.92133	27
3.92500	27
3.92867	27
3.93233	27
3.93600	27
3.93967	27
3.94333	27
3.94700	27
3.95067	27
3.95433	27
3.95800	27
3.96167	27
3.96533	27
3.96900	28
3.97267	28
3.97633	28
3.98000	28
3.98367	27
3.98733	27
3.99100	27
3.99467	27
3.99833	27

[Chromatogram (Ch3)]
Interval(msec)	220
# of Points	1091
Start Time(min)	0.002
End Time(min)	3.998
R.Time (min)	Intensity
0.00167	1
0.00533	3
0.00900	4
0.01267	5
0.01633	5
0.02000	7
0.02367	5
0.02733	5
0.03100	7
0.03467	9
0.03833	8
0.04200	5
0.04567	5
0.04933	7
0.05300	8
0.05667	8
0.06033	7
0.06400	6
0.06767	6
0.07133	7
0.07500	8
0.07867	7
0.08233	6
0.08600	5
0.08967	7
0.09333	8
0.09700	10
0.10067	12
0.10433	12
0.10800	10
0.11167	11
0.11533	13
0.11900	12
0.12267	9
0.12633	7
0.13000	6
0.13367	6
0.13733	7
0.14100	9
0.14467	7
0.14833	7
0.15200	10
0.15567	10
0.15933	9
0.16300	11
0.16667	14
0.17033	12
0.17400	8
0.17767	7
0.18133	9
0.18500	8
0.18867	6
0.19233	6
0.19600	8
0.19967	9
0.20333	8
0.20700	7
0.21067	7
0.21433	8
0.21800	9
0.22167	9
0.22533	11
0.22900	13
0.23267	14
0.23633	13
0.24000	11
0.24367	11
0.24733	13
0.25100	13
0.25467	13
0.25833	11
0.26200	10
0.26567	9
0.26933	9
0.27300	9
0.27667	7
0.28033	7
0.28400	10
0.28767	11
0.29133	10
0.29500	11
0.29867	11
0.30233	12
0.30600	13
0.30967	17
0.31333	18
0.31700	18
0.32067	17
0.32433	15
0.32800	12
0.33167	11
0.33533	9
0.33900	8
0.34267	10
0.34633	12
0.35000	14
0.35367	14
0.35733	12
0.36100	10
0.36467	9
0.36833	10
0.37200	12
0.37567	14
0.37933	15
0.38300	16
0.38667	15
0.39033	14
0.39400	12
0.39767	12
0.40133	11
0.40500	9
0.40867	9
0.41233	11
0.41600	13
0.41967	15
0.42333	18
0.42700	18
0.43067	16
0.43433	16
0.43800	16
0.44167	16
0.44533	15
0.44900	16
0.45267	18
0.45633	18
0.46000	18
0.46367	17
0.46733	16
0.47100	16
0.47467	16
0.47833	17
0.48200	19
0.48567	22
0.48933	20
0.49300	17
0.49667	15
0.50033	15
0.50400	15
0.50767	19
0.51133	23
0.51500	22
0.51867	18
0.52233	16
0.52600	16
0.52967	16
0.53333	18
0.53700	18
0.54067	19
0.54433	17
0.54800	14
0.55167	12
0.55533	9
0.55900	9
0.56267	10
0.56633	11
0.57000	13
0.57367	14
0.57733	17
0.58100	18
0.58467	18
0.58833	16
0.59200	15
0.59567	16
0.59933	16
0.60300	17
0.60667	17
0.61033	15
0.61400	13
0.61767	11
0.62133	13
0.62500	18
0.62867	19
0.63233	19
0.63600	18
0.63967	17
0.64333	18
0.64700	19
0.65067	18
0.65433	16
0.65800	15
0.66167	13
0.66533	12
0.66900	11
0.67267	9
0.67633	7
0.68000	7
0.68367	9
0.68733	8
0.69100	7
0.69467	7
0.69833	8
0.70200	9
0.70567	10
0.70933	11
0.71300	12
0.71667	12
0.72033	11
0.72400	10
0.72767	9
0.73133	10
0.73500	9
0.73867	10
0.74233	14
0.74600	17
0.74967	18
0.75333	18
0.75700	17
0.76067	16
0.76433	15
0.76800	16
0.77167	16
0.77533	16
0.77900	16
0.78267	15
0.78633	15
0.79000	18
0.79367	22
0.79733	23
0.80100	24
0.80467	22
0.80833	20
0.81200	18
0.81567	16
0.81933	15
0.82300	14
0.82667	14
0.83033	12
0.83400	14
0.83767	17
0.84133	18
0.84500	17
0.84867	17
0.85233	17
0.85600	18
0.85967	18
0.86333	19
0.86700	18
0.87067	17
0.87433	16
0.87800	15
0.88167	15
0.88533	17
0.88900	17
0.89267	16
0.89633	15
0.90000	15
0.90367	14
0.90733	16
0.91100	16
0.91467	16
0.91833	14
0.92200	15
0.92567	16
0.92933	15
0.93300	16
0.93667	15
0.94033	16
0.94400	17
0.94767	16
0.95133	15
0.95500	15
0.95867	17
0.96233	17
0.96600	17
0.96967	17
0.97333	17
0.97700	18
0.98067	16
0.98433	13
0.98800	12
0.99167	11
0.99533	10
0.99900	12
1.00267	14
1.00633	16
1.01000	16
1.01367	15
1.01733	13
1.02100	13
1.02467	14
1.02833	14
1.03200	14
1.03567	16
1.03933	19
1.04300	18
1.04667	16
1.05033	13
1.05400	12
1.05767	13
1.06133	14
1.06500	14
1.06867	11
1.07233	12
1.07600	12
1.07967	13
1.08333	15
1.08700	16
1.09067	17
1.09433	16
1.09800	16
1.10167	15
1.10533	13
1.10900	11
1.11267	10
1.11633	9
1.12000	8
1.12367	7
1.12733	9
1.13100	11
1.13467	10
1.13833	9
1.14200	10
1.14567	10
1.14933	9
1.15300	8
1.15667	9
1.16033	10
1.16400	10
1.16767	9
1.17133	10
1.17500	10
1.17867	10
1.18233	12
1.18600	12
1.18967	13
1.19333	14
1.19700	14
1.20067	14
1.20433	13
1.20800	12
1.21167	9
1.21533	8
1.21900	10
1.22267	12
1.22633	12
1.23000	13
1.23367	12
1.23733	10
1.24100	9
1.24467	10
1.24833	11
1.25200	10
1.25567	8
1.25933	8
1.26300	8
1.26667	7
1.27033	8
1.27400	11
1.27767	11
1.28133	10
1.28500	9
1.28867	10
1.29233	11
1.29600	10
1.29967	6
1.30333	5
1.30700	6
1.31067	8
1.31433	8
1.31800	9
1.32167	9
1.32533	11
1.32900	12
1.33267	11
1.33633	9
1.34000	9
1.34367	8
1.34733	7
1.35100	8
1.35467	10
1.35833	12
1.36200	11
1.36567	11
1.36933	11
1.37300	10
1.37667	9
1.38033	8
1.38400	8
1.38767	5
1.39133	4
1.39500	4
1.39867	4
1.40233	4
1.40600	4
1.40967	3
1.41333	2
1.41700	3
1.42067	5
1.42433	7
1.42800	6
1.43167	6
1.43533	6
1.43900	7
1.44267	8
1.44633	10
1.45000	10
1.45367	9
1.45733	7
1.46100	8
1.46467	6
1.46833	4
1.47200	3
1.47567	4
1.47933	5
1.48300	5
1.48667	4
1.49033	3
1.49400	2
1.49767	3
1.50133	3
1.50500	1
1.50867	-1
1.51233	-1
1.51600	0
1.51967	3
1.52333	4
1.52700	5
1.53067	7
1.53433	6
1.53800	5
1.54167	5
1.54533	5
1.54900	3
1.55267	-0
1.55633	0
1.56000	0
1.56367	2
1.56733	3
1.57100	6
1.57467	7
1.57833	5
1.58200	6
1.58567	5
1.58933	3
1.59300	1
1.59667	-1
1.60033	-3
1.60400	-3
1.60767	-3
1.61133	-2
1.61500	-1
1.61867	1
1.62233	3
1.62600	6
1.62967	4
1.63333	2
1.63700	2
1.64067	2
1.64433	2
1.64800	3
1.65167	3
1.65533	3
1.65900	4
1.66267	4
1.66633	5
1.67000	6
1.67367	9
1.67733	9
1.68100	10
1.68467	12
1.68833	14
1.69200	15
1.69567	15
1.69933	14
1.70300	14
1.70667	14
1.71033	14
1.71400	13
1.71767	16
1.72133	14
1.72500	12
1.72867	12
1.73233	14
1.73600	16
1.73967	15
1.74333	16
1.74700	16
1.75067	17
1.75433	15
1.75800	13
1.76167	12
1.76533	15
1.76900	19
1.77267	22
1.77633	23
1.78000	22
1.78367	24
1.78733	23
1.79100	22
1.79467	21
1.79833	22
1.80200	24
1.80567	25
1.80933	26
1.81300	28
1.81667	30
1.82033	29
1.82400	29
1.82767	28
1.83133	28
1.83500	28
1.83867	27
1.84233	27
1.84600	27
1.84967	29
1.85333	31
1.85700	30
1.86067	27
1.86433	24
1.86800	21
1.87167	18
1.87533	20
1.87900	23
1.88267	25
1.88633	26
1.89000	28
1.89367	29
1.89733	29
1.90100	29
1.90467	30
1.90833	31
1.91200	32
1.91567	35
1.91933	37
1.92300	37
1.92667	36
1.93033	33
1.93400	32
1.93767	33
1.94133	35
1.94500	37
1.94867	38
1.95233	37
1.95600	38
1.95967	41
1.96333	44
1.96700	46
1.97067	46
1.97433	45
1.97800	46
1.98167	46
1.98533	46
1.98900	45
1.99267	44
1.99633	43
2.00000	44
2.00367	46
2.00733	47
2.01100	45
2.01467	46
2.01833	48
2.02200	50
2.02567	50
2.02933	51
2.03300	52
2.03667	54
2.04033	54
2.04400	56
2.04767	58
2.05133	61
2.05500	60
2.05867	59
2.06233	61
2.06600	61
2.06967	59
2.07333	59
2.07700	61
2.08067	62
2.08433	62
2.08800	63
2.09167	64
2.09533	65
2.09900	66
2.10267	67
2.10633	67
2.11000	68
2.11367	70
2.11733	72
2.12100	74
2.12467	76
2.12833	77
2.13200	76
2.13567	78
2.13933	81
2.14300	82
2.14667	84
2.15033	84
2.15400	82
2.15767	81
2.16133	82
2.16500	80
2.16867	79
2.17233	81
2.17600	84
2.17967	88
2.18333	88
2.18700	87
2.19067	84
2.19433	83
2.19800	85
2.20167	87
2.20533	91
2.20900	96
2.21267	100
2.21633	101
2.22000	97
2.22367	93
2.22733	93
2.23100	94
2.23467	96
2.23833	102
2.24200	106
2.24567	107
2.24933	107
2.25300	107
2.25667	107
2.26033	107
2.26400	107
2.26767	107
2.27133	108
2.27500	109
2.27867	110
2.28233	112
2.28600	113
2.28967	114
2.29333	116
2.29700	117
2.30067	118
2.30433	119
2.30800	120
2.31167	120
2.31533	120
2.31900	122
2.32267	123
2.32633	122
2.33000	123
2.33367	124
2.33733	126
2.34100	127
2.34467	128
2.34833	129
2.35200	129
2.35567	131
2.35933	131
2.36300	132
2.36667	135
2.37033	138
2.37400	139
2.37767	139
2.38133	140
2.38500	139
2.38867	138
2.39233	137
2.39600	138
2.39967	141
2.40333	146
2.40700	149
2.41067	155
2.41433	160
2.41800	160
2.42167	160
2.42533	160
2.42900	162
2.43267	163
2.43633	162
2.44000	164
2.44367	210
2.44733	328
2.45100	461
2.45467	567
2.45833	613
2.46200	615
2.46567	606
2.46933	597
2.47300	582
2.47667	554
2.48033	514
2.48400	469
2.48767	430
2.49133	401
2.49500	382
2.49867	371
2.50233	372
2.50600	385
2.50967	402
2.51333	414
2.51700	416
2.52067	407
2.52433	387
2.52800	361
2.53167	334
2.53533	307
2.53900	282
2.54267	262
2.54633	249
2.55000	239
2.55367	233
2.55733	230
2.56100	228
2.56467	226
2.56833	229
2.57200	230
2.57567	232
2.57933	239
2.58300	249
2.58667	261
2.59033	275
2.59400	290
2.59767	304
2.60133	314
2.60500	320
2.60867	318
2.61233	307
2.61600	284
2.61967	251
2.62333	212
2.62700	172
2.63067	133
2.63433	93
2.63800	57
2.64167	25
2.64533	-1
2.64900	-23
2.65267	-38
2.65633	-46
2.66000	-50
2.66367	-51
2.66733	-49
2.67100	-48
2.67467	-56
2.67833	-72
2.68200	-79
2.68567	-69
2.68933	-42
2.69300	-4
2.69667	34
2.70033	70
2.70400	105
2.70767	146
2.71133	196
2.71500	249
2.71867	301
2.72233	351
2.72600	401
2.72967	449
2.73333	497
2.73700	540
2.74067	581
2.74433	620
2.74800	654
2.75167	685
2.75533	715
2.75900	743
2.76267	772
2.76633	799
2.77000	823
2.77367	845
2.77733	863
2.78100	876
2.78467	885
2.78833	891
2.79200	894
2.79567	895
2.79933	896
2.80300	892
2.80667	887
2.81033	879
2.81400	870
2.81767	861
2.82133	855
2.82500	852
2.82867	858
2.83233	884
2.83600	949
2.83967	1073
2.84333	1282
2.84700	1601
2.85067	2039
2.85433	2588
2.85800	3228
2.86167	3912
2.86533	4584
2.86900	5186
2.87267	5673
2.87633	6011
2.88000	6185
2.88367	6198
2.88733	6067
2.89100	5821
2.89467	5498
2.89833	5127
2.90200	4734
2.90567	4336
2.90933	3952
2.91300	3590
2.91667	3255
2.92033	2952
2.92400	2678
2.92767	2434
2.93133	2217
2.93500	2026
2.93867	1858
2.94233	1715
2.94600	1592
2.94967	1484
2.95333	1390
2.95700	1311
2.96067	1245
2.96433	1186
2.96800	1135
2.97167	1093
2.97533	1055
2.97900	1022
2.98267	994
2.98633	973
2.99000	954
2.99367	938
2.99733	925
3.00100	914
3.00467	904
3.00833	896
3.01200	890
3.01567	887
3.01933	885
3.02300	883
3.02667	879
3.03033	876
3.03400	874
3.03767	874
3.04133	874
3.04500	875
3.04867	876
3.05233	879
3.05600	882
3.05967	885
3.06333	886
3.06700	886
3.07067	888
3.07433	891
3.07800	893
3.08167	893
3.08533	895
3.08900	898
3.09267	898
3.09633	895
3.10000	892
3.10367	891
3.10733	889
3.11100	888
3.11467	887
3.11833	886
3.12200	883
3.12567	883
3.12933	881
3.13300	876
3.13667	873
3.14033	871
3.14400	869
3.14767	866
3.15133	863
3.15500	859
3.15867	854
3.16233	849
3.16600	844
3.16967	843
3.17333	843
3.17700	839
3.18067	832
3.18433	828
3.18800	823
3.19167	817
3.19533	811
3.19900	805
3.20267	804
3.20633	801
3.21000	800
3.21367	796
3.21733	793
3.22100	791
3.22467	787
3.22833	783
3.23200	778
3.23567	774
3.23933	771
3.24300	769
3.24667	765
3.25033	759
3.25400	754
3.25767	748
3.26133	742
3.26500	738
3.26867	736
3.27233	735
3.27600	731
3.27967	727
3.28333	721
3.28700	715
3.29067	709
3.29433	706
3.29800	702
3.30167	700
3.30533	695
3.30900	692
3.31267	689
3.31633	685
3.32000	683
3.32367	682
3.32733	679
3.33100	673
3.33467	668
3.33833	663
3.34200	661
3.34567	659
3.34933	655
3.35300	651
3.35667	650
3.36033	646
3.36400	643
3.36767	638
3.37133	631
3.37500	626
3.37867	622
3.38233	619
3.38600	615
3.38967	614
3.39333	612
3.39700	608
3.40067	605
3.40433	600
3.40800	594
3.41167	590
3.41533	586
3.41900	581
3.42267	577
3.42633	573
3.43000	570
3.43367	568
3.43733	563
3.44100	556
3.44467	551
3.44833	549
3.45200	547
3.45567	546
3.45933	544
3.46300	540
3.46667	534
3.47033	530
3.47400	526
3.47767	525
3.48133	523
3.48500	522
3.48867	517
3.49233	515
3.49600	514
3.49967	510
3.50333	508
3.50700	504
3.51067	501
3.51433	495
3.51800	490
3.52167	485
3.52533	482
3.52900	479
3.53267	477
3.53633	474
3.54000	471
3.54367	469
3.54733	466
3.55100	463
3.55467	458
3.55833	453
3.56200	449
3.56567	445
3.56933	443
3.57300	440
3.57667	438
3.58033	438
3.58400	434
3.58767	431
3.59133	429
3.59500	425
3.59867	420
3.60233	416
3.60600	416
3.60967	413
3.61333	409
3.61700	403
3.62067	400
3.62433	398
3.62800	398
3.63167	397
3.63533	393
3.63900	388
3.64267	382
3.64633	378
3.65000	373
3.65367	369
3.65733	367
3.66100	367
3.66467	364
3.66833	357
3.67200	351
3.67567	345
3.67933	340
3.68300	338
3.68667	336
3.69033	332
3.69400	328
3.69767	324
3.70133	318
3.70500	313
3.70867	310
3.71233	309
3.71600	307
3.71967	306
3.72333	302
3.72700	298
3.73067	294
3.73433	289
3.73800	287
3.74167	284
3.74533	281
3.74900	277
3.75267	273
3.75633	270
3.76000	266
3.76367	263
3.76733	259
3.77100	256
3.77467	254
3.77833	250
3.78200	245
3.78567	243
3.78933	240
3.79300	236
3.79667	233
3.80033	232
3.80400	230
3.80767	227
3.81133	224
3.81500	222
3.81867	219
3.82233	214
3.82600	209
3.82967	205
3.83333	202
3.83700	201
3.84067	201
3.84433	202
3.84800	202
3.85167	199
3.85533	194
3.85900	190
3.86267	189
3.86633	189
3.87000	187
3.87367	185
3.87733	184
3.88100	185
3.88467	185
3.88833	182
3.89200	180
3.89567	176
3.89933	171
3.90300	168
3.90667	167
3.91033	167
3.91400	168
3.91767	169
3.92133	169
3.92500	168
3.92867	166
3.93233	164
3.93600	162
3.93967	162
3.94333	161
3.94700	157
3.95067	156
3.95433	153
3.95800	148
3.96167	143
3.96533	140
3.96900	138
3.97267	137
3.97633	139
3.98000	141
3.98367	141
3.98733	139
3.99100	137
3.99467	138
3.99833	138

[Status Trace (Column Oven Temperature)]
Interval(msec)	1000
# of Points	240
Start Time(min)	0.004
End Time(min)	3.987
Intensity Units	
Intensity Multiplier	1
R.Time (min)	Intensity
0.00377	35.02
0.02043	35.03
0.03710	35.04
0.05377	35.05
0.07043	35.06
0.08710	35.05
0.10377	35.04
0.12043	35.02
0.13710	35.01
0.15377	35.01
0.17043	35.00
0.18710	35.00
0.20377	34.99
0.22043	34.98
0.23710	34.98
0.25377	34.98
0.27043	34.98
0.28710	34.98
0.30377	34.99
0.32043	34.99
0.33710	34.98
0.35377	34.97
0.37043	34.98
0.38710	34.98
0.40377	34.99
0.42043	35.00
0.43710	35.00
0.45377	34.99
0.47043	35.00
0.48710	34.99
0.50377	34.99
0.52043	34.99
0.53710	34.99
0.55377	34.99
0.57043	35.00
0.58710	35.00
0.60377	34.99
0.62043	34.99
0.63710	34.99
0.65377	34.98
0.67043	34.99
0.68710	34.99
0.70377	35.00
0.72043	34.99
0.73710	34.99
0.75377	34.99
0.77043	34.99
0.78710	34.98
0.80377	34.99
0.82043	34.99
0.83710	35.00
0.85377	34.99
0.87043	34.99
0.88710	34.99
0.90377	34.98
0.92043	34.98
0.93710	34.99
0.95377	35.00
0.97043	35.00
0.98710	35.00
1.00377	35.00
1.02043	35.00
1.03710	34.99
1.05377	34.99
1.07043	35.00
1.08710	34.99
1.10377	34.99
1.12043	34.99
1.13710	34.99
1.15377	34.99
1.17043	35.00
1.18710	35.01
1.20377	35.01
1.22043	35.01
1.23710	35.01
1.25377	35.00
1.27043	35.00
1.28710	35.00
1.30377	34.98
1.32043	34.98
1.33710	34.99
1.35377	34.99
1.37043	34.99
1.38710	34.99
1.40377	34.99
1.42043	34.99
1.43710	34.99
1.45377	34.99
1.47043	35.00
1.48710	35.00
1.50377	35.00
1.52043	34.99
1.53710	34.99
1.55377	35.00
1.57043	34.99
1.58710	34.99
1.60377	35.03
1.62043	35.15
1.63710	35.33
1.65377	35.55
1.67043	35.87
1.68710	36.24
1.70377	36.59
1.72043	36.92
1.73710	37.26
1.75377	37.58
1.77043	37.92
1.78710	38.25
1.80377	38.58
1.82043	38.93
1.83710	39.26
1.85377	39.58
1.87043	39.91
1.88710	40.25
1.90377	40.57
1.92043	40.90
1.93710	41.23
1.95377	41.53
1.97043	41.86
1.98710	42.18
2.00377	42.52
2.02043	42.82
2.03710	43.13
2.05377	43.46
2.07043	43.80
2.08710	44.11
2.10377	44.45
2.12043	44.76
2.13710	45.09
2.15377	45.42
2.17043	45.76
2.18710	46.10
2.20377	46.42
2.22043	46.76
2.23710	47.08
2.25377	47.40
2.27043	47.72
2.28710	48.09
2.30377	48.40
2.32043	48.74
2.33710	49.04
2.35377	49.36
2.37043	49.60
2.38710	49.70
2.40377	49.70
2.42043	49.68
2.43710	49.70
2.45377	49.71
2.47043	49.72
2.48710	49.74
2.50377	49.74
2.52043	49.76
2.53710	49.77
2.55377	49.79
2.57043	49.78
2.58710	49.80
2.60377	49.82
2.62043	49.83
2.63710	49.83
2.65377	49.83
2.67043	49.84
2.68710	49.83
2.70377	49.83
2.72043	49.85
2.73710	49.87
2.75377	49.86
2.77043	49.85
2.78710	49.86
2.80377	49.89
2.82043	49.90
2.83710	49.90
2.85377	49.89
2.87043	49.89
2.88710	49.89
2.90377	49.91
2.92043	49.92
2.93710	49.94
2.95377	49.95
2.97043	49.96
2.98710	49.97
3.00377	49.98
3.02043	49.99
3.03710	49.98
3.05377	49.98
3.07043	49.98
3.08710	49.99
3.10377	50.00
3.12043	50.00
3.13710	50.01
3.15377	50.01
3.17043	50.02
3.18710	50.03
3.20377	50.05
3.22043	50.06
3.23710	50.06
3.25377	50.06
3.27043	50.07
3.28710	50.08
3.30377	50.08
3.32043	50.10
3.33710	50.11
3.35377	50.12
3.37043	50.11
3.38710	50.09
3.40377	50.07
3.42043	50.05
3.43710	50.04
3.45377	50.02
3.47043	50.02
3.48710	50.01
3.50377	50.01
3.52043	50.01
3.53710	50.01
3.55377	50.00
3.57043	49.99
3.58710	50.00
3.60377	50.00
3.62043	50.01
3.63710	50.01
3.65377	50.01
3.67043	50.02
3.68710	50.02
3.70377	50.03
3.72043	50.04
3.73710	50.05
3.75377	50.06
3.77043	50.06
3.78710	50.06
3.80377	50.06
3.82043	50.05
3.83710	50.06
3.85377	50.06
3.87043	50.06
3.88710	50.06
3.90377	50.06
3.92043	50.06
3.93710	50.06
3.95377	50.06
3.97043	50.07
3.98710	50.07

[Status Trace (Injection Unit Temperature)]
Interval(msec)	1000
# of Points	240
Start Time(min)	0.004
End Time(min)	3.987
Intensity Units	
Intensity Multiplier	1
R.Time (min)	Intensity
0.00377	99.97
0.02043	99.97
0.03710	99.97
0.05377	99.97
0.07043	99.98
0.08710	99.98
0.10377	99.98
0.12043	99.97
0.13710	99.98
0.15377	99.98
0.17043	99.98
0.18710	99.98
0.20377	99.98
0.22043	99.98
0.23710	99.98
0.25377	99.98
0.27043	99.98
0.28710	99.98
0.30377	99.98
0.32043	99.98
0.33710	99.98
0.35377	99.98
0.37043	99.99
0.38710	99.98
0.40377	99.98
0.42043	99.99
0.43710	99.99
0.45377	99.99
0.47043	99.99
0.48710	99.99
0.50377	99.99
0.52043	99.99
0.53710	99.98
0.55377	99.99
0.57043	99.99
0.58710	99.99
0.60377	99.99
0.62043	99.99
0.63710	99.99
0.65377	99.99
0.67043	99.99
0.68710	99.99
0.70377	99.99
0.72043	99.99
0.73710	99.99
0.75377	99.99
0.77043	99.99
0.78710	99.99
0.80377	99.99
0.82043	99.99
0.83710	99.99
0.85377	99.99
0.87043	99.99
0.88710	99.99
0.90377	99.99
0.92043	99.99
0.93710	99.98
0.95377	99.99
0.97043	99.98
0.98710	99.99
1.00377	99.98
1.02043	99.98
1.03710	99.98
1.05377	99.99
1.07043	99.98
1.08710	99.99
1.10377	99.99
1.12043	99.99
1.13710	99.99
1.15377	99.99
1.17043	99.99
1.18710	99.99
1.20377	99.99
1.22043	99.99
1.23710	99.99
1.25377	99.99
1.27043	99.99
1.28710	99.99
1.30377	99.99
1.32043	99.99
1.33710	99.99
1.35377	99.99
1.37043	99.99
1.38710	99.99
1.40377	99.99
1.42043	99.99
1.43710	99.99
1.45377	99.99
1.47043	99.99
1.48710	99.99
1.50377	99.99
1.52043	99.99
1.53710	99.99
1.55377	99.99
1.57043	99.99
1.58710	100.00
1.60377	99.99
1.62043	99.99
1.63710	99.99
1.65377	99.99
1.67043	99.99
1.68710	99.99
1.70377	99.99
1.72043	99.99
1.73710	99.99
1.75377	99.99
1.77043	99.99
1.78710	99.99
1.80377	99.99
1.82043	99.99
1.83710	99.98
1.85377	99.99
1.87043	99.98
1.88710	99.99
1.90377	99.99
1.92043	99.98
1.93710	99.98
1.95377	99.98
1.97043	99.98
1.98710	99.98
2.00377	99.98
2.02043	99.98
2.03710	99.98
2.05377	99.98
2.07043	99.98
2.08710	99.98
2.10377	99.98
2.12043	99.98
2.13710	99.97
2.15377	99.97
2.17043	99.97
2.18710	99.97
2.20377	99.97
2.22043	99.97
2.23710	99.97
2.25377	99.97
2.27043	99.97
2.28710	99.97
2.30377	99.97
2.32043	99.97
2.33710	99.97
2.35377	99.97
2.37043	99.97
2.38710	99.97
2.40377	99.97
2.42043	99.97
2.43710	99.97
2.45377	99.97
2.47043	99.97
2.48710	99.97
2.50377	99.97
2.52043	99.97
2.53710	99.97
2.55377	99.97
2.57043	99.97
2.58710	99.97
2.60377	99.98
2.62043	99.98
2.63710	99.98
2.65377	99.98
2.67043	99.98
2.68710	99.98
2.70377	99.99
2.72043	99.99
2.73710	99.99
2.75377	99.99
2.77043	99.99
2.78710	99.99
2.80377	99.99
2.82043	100.00
2.83710	100.00
2.85377	99.99
2.87043	100.00
2.88710	100.00
2.90377	100.00
2.92043	100.00
2.93710	100.00
2.95377	100.01
2.97043	100.01
2.98710	100.01
3.00377	100.01
3.02043	100.01
3.03710	100.01
3.05377	100.01
3.07043	100.02
3.08710	100.01
3.10377	100.02
3.12043	100.02
3.13710	100.02
3.15377	100.02
3.17043	100.02
3.18710	100.03
3.20377	100.02
3.22043	100.03
3.23710	100.03
3.25377	100.03
3.27043	100.03
3.28710	100.03
3.30377	100.03
3.32043	100.03
3.33710	100.03
3.35377	100.04
3.37043	100.04
3.38710	100.03
3.40377	100.04
3.42043	100.03
3.43710	100.04
3.45377	100.04
3.47043	100.04
3.48710	100.04
3.50377	100.04
3.52043	100.04
3.53710	100.04
3.55377	100.04
3.57043	100.04
3.58710	100.04
3.60377	100.04
3.62043	100.04
3.63710	100.04
3.65377	100.04
3.67043	100.04
3.68710	100.04
3.70377	100.04
3.72043	100.04
3.73710	100.04
3.75377	100.04
3.77043	100.04
3.78710	100.04
3.80377	100.04
3.82043	100.04
3.83710	100.04
3.85377	100.05
3.87043	100.05
3.88710	100.05
3.90377	100.05
3.92043	100.05
3.93710	100.05
3.95377	100.05
3.97043	100.05
3.98710	100.05

[Status Trace (Carrier Gas Pressure)]
Interval(msec)	1000
# of Points	240
Start Time(min)	0.004
End Time(min)	3.987
Intensity Units	
Intensity Multiplier	1
R.Time (min)	Intensity
0.00377	58.00
0.02043	56.03
0.03710	56.58
0.05377	58.73
0.07043	59.77
0.08710	58.19
0.10377	57.97
0.12043	58.01
0.13710	58.01
0.15377	58.01
0.17043	58.00
0.18710	58.00
0.20377	58.00
0.22043	58.00
0.23710	58.00
0.25377	58.00
0.27043	58.00
0.28710	58.00
0.30377	58.00
0.32043	58.00
0.33710	58.00
0.35377	58.00
0.37043	58.00
0.38710	58.00
0.40377	58.00
0.42043	58.00
0.43710	58.00
0.45377	58.00
0.47043	58.00
0.48710	58.00
0.50377	58.00
0.52043	58.00
0.53710	58.00
0.55377	58.00
0.57043	58.00
0.58710	58.00
0.60377	58.00
0.62043	58.00
0.63710	58.00
0.65377	58.00
0.67043	58.00
0.68710	58.00
0.70377	58.00
0.72043	58.00
0.73710	58.00
0.75377	58.00
0.77043	58.00
0.78710	58.00
0.80377	58.00
0.82043	58.00
0.83710	58.00
0.85377	58.00
0.87043	58.00
0.88710	58.00
0.90377	58.00
0.92043	58.00
0.93710	58.00
0.95377	58.00
0.97043	58.00
0.98710	58.00
1.00377	58.00
1.02043	58.00
1.03710	58.00
1.05377	58.00
1.07043	58.00
1.08710	58.00
1.10377	58.00
1.12043	58.00
1.13710	58.00
1.15377	58.00
1.17043	58.00
1.18710	58.00
1.20377	58.00
1.22043	58.00
1.23710	58.00
1.25377	58.00
1.27043	58.00
1.28710	58.00
1.30377	58.00
1.32043	58.00
1.33710	58.00
1.35377	58.00
1.37043	58.00
1.38710	58.00
1.40377	58.00
1.42043	58.00
1.43710	58.00
1.45377	58.00
1.47043	58.00
1.48710	58.00
1.50377	58.00
1.52043	58.00
1.53710	58.00
1.55377	58.00
1.57043	58.00
1.58710	58.00
1.60377	58.00
1.62043	58.00
1.63710	58.00
1.65377	58.00
1.67043	58.01
1.68710	58.00
1.70377	58.00
1.72043	58.00
1.73710	58.00
1.75377	58.00
1.77043	58.00
1.78710	58.00
1.80377	58.00
1.82043	58.00
1.83710	58.00
1.85377	58.00
1.87043	58.00
1.88710	58.00
1.90377	58.00
1.92043	58.00
1.93710	58.00
1.95377	58.00
1.97043	58.00
1.98710	58.00
2.00377	58.00
2.02043	58.00
2.03710	58.00
2.05377	58.00
2.07043	58.00
2.08710	58.00
2.10377	58.00
2.12043	58.00
2.13710	58.00
2.15377	58.00
2.17043	58.00
2.18710	58.00
2.20377	58.00
2.22043	58.00
2.23710	58.00
2.25377	58.00
2.27043	58.00
2.28710	58.00
2.30377	58.00
2.32043	58.00
2.33710	58.00
2.35377	58.00
2.37043	58.00
2.38710	57.99
2.40377	57.99
2.42043	58.00
2.43710	58.00
2.45377	58.00
2.47043	58.00
2.48710	58.00
2.50377	57.97
2.52043	57.99
2.53710	57.99
2.55377	58.00
2.57043	58.00
2.58710	58.00
2.60377	58.00
2.62043	58.00
2.63710	58.00
2.65377	58.00
2.67043	58.00
2.68710	58.00
2.70377	58.00
2.72043	58.00
2.73710	58.00
2.75377	58.00
2.77043	58.00
2.78710	58.00
2.80377	58.00
2.82043	58.00
2.83710	58.00
2.85377	58.00
2.87043	58.00
2.88710	58.00
2.90377	58.00
2.92043	58.00
2.93710	58.00
2.95377	58.00
2.97043	58.00
2.98710	58.00
3.00377	58.00
3.02043	58.00
3.03710	58.00
3.05377	58.00
3.07043	58.00
3.08710	58.00
3.10377	58.00
3.12043	58.00
3.13710	58.00
3.15377	58.00
3.17043	58.00
3.18710	58.00
3.20377	58.00
3.22043	58.00
3.23710	58.00
3.25377	58.00
3.27043	58.00
3.28710	58.00
3.30377	58.00
3.32043	58.00
3.33710	58.00
3.35377	58.00
3.37043	58.00
3.38710	58.00
3.40377	58.00
3.42043	58.00
3.43710	58.00
3.45377	58.00
3.47043	58.00
3.48710	58.00
3.50377	58.00
3.52043	58.00
3.53710	58.00
3.55377	58.00
3.57043	58.00
3.58710	58.00
3.60377	58.00
3.62043	58.00
3.63710	58.00
3.65377	58.00
3.67043	58.00
3.68710	58.00
3.70377	58.00
3.72043	58.00
3.73710	58.00
3.75377	58.00
3.77043	58.00
3.78710	58.00
3.80377	58.00
3.82043	58.00
3.83710	58.00
3.85377	58.00
3.87043	58.00
3.88710	58.00
3.90377	58.00
3.92043	58.00
3.93710	58.00
3.95377	58.00
3.97043	58.00
3.98710	58.00

[Status Trace (Carrier Gas Flow)]
Interval(msec)	1000
# of Points	240
Start Time(min)	0.004
End Time(min)	3.987
Intensity Units	
Intensity Multiplier	1
R.Time (min)	Intensity
0.00377	34.52
0.02043	34.58
0.03710	34.55
0.05377	34.55
0.07043	34.49
0.08710	34.52
0.10377	34.52
0.12043	34.52
0.13710	34.52
0.15377	34.52
0.17043	34.52
0.18710	34.52
0.20377	34.52
0.22043	34.52
0.23710	34.52
0.25377	34.52
0.27043	34.52
0.28710	34.52
0.30377	34.52
0.32043	34.52
0.33710	34.52
0.35377	34.52
0.37043	34.52
0.38710	34.52
0.40377	34.52
0.42043	34.52
0.43710	34.52
0.45377	34.52
0.47043	34.52
0.48710	34.52
0.50377	34.52
0.52043	34.52
0.53710	34.52
0.55377	34.52
0.57043	34.52
0.58710	34.52
0.60377	34.52
0.62043	34.52
0.63710	34.52
0.65377	34.52
0.67043	34.52
0.68710	34.52
0.70377	34.52
0.72043	34.52
0.73710	34.52
0.75377	34.52
0.77043	34.52
0.78710	34.52
0.80377	34.52
0.82043	34.52
0.83710	34.52
0.85377	34.52
0.87043	34.52
0.88710	34.52
0.90377	34.52
0.92043	34.52
0.93710	34.52
0.95377	34.52
0.97043	34.52
0.98710	34.52
1.00377	34.52
1.02043	34.52
1.03710	34.52
1.05377	34.52
1.07043	34.52
1.08710	34.52
1.10377	34.52
1.12043	34.52
1.13710	34.52
1.15377	34.52
1.17043	34.52
1.18710	34.52
1.20377	34.52
1.22043	34.52
1.23710	34.52
1.25377	34.52
1.27043	34.52
1.28710	34.52
1.30377	34.52
1.32043	34.52
1.33710	34.52
1.35377	34.52
1.37043	34.52
1.38710	34.52
1.40377	34.52
1.42043	34.52
1.43710	34.52
1.45377	34.52
1.47043	34.52
1.48710	34.52
1.50377	34.52
1.52043	34.52
1.53710	34.52
1.55377	34.52
1.57043	34.52
1.58710	34.52
1.60377	34.52
1.62043	34.51
1.63710	34.52
1.65377	34.52
1.67043	34.51
1.68710	34.52
1.70377	34.52
1.72043	34.51
1.73710	34.52
1.75377	34.52
1.77043	34.53
1.78710	34.52
1.80377	34.50
1.82043	34.52
1.83710	34.52
1.85377	34.53
1.87043	34.53
1.88710	34.51
1.90377	34.53
1.92043	34.51
1.93710	34.52
1.95377	34.52
1.97043	34.52
1.98710	34.52
2.00377	34.52
2.02043	34.53
2.03710	34.51
2.05377	34.51
2.07043	34.54
2.08710	34.52
2.10377	34.52
2.12043	34.51
2.13710	34.52
2.15377	34.52
2.17043	34.52
2.18710	34.52
2.20377	34.53
2.22043	34.52
2.23710	34.52
2.25377	34.52
2.27043	34.52
2.28710	34.53
2.30377	34.52
2.32043	34.52
2.33710	34.52
2.35377	34.52
2.37043	34.52
2.38710	34.54
2.40377	34.52
2.42043	34.52
2.43710	34.52
2.45377	34.51
2.47043	34.52
2.48710	34.52
2.50377	34.68
2.52043	34.52
2.53710	34.52
2.55377	34.52
2.57043	34.52
2.58710	34.52
2.60377	34.52
2.62043	34.52
2.63710	34.52
2.65377	34.52
2.67043	34.52
2.68710	34.52
2.70377	34.52
2.72043	34.52
2.73710	34.52
2.75377	34.52
2.77043	34.52
2.78710	34.52
2.80377	34.52
2.82043	34.52
2.83710	34.52
2.85377	34.52
2.87043	34.52
2.88710	34.52
2.90377	34.52
2.92043	34.52
2.93710	34.52
2.95377	34.52
2.97043	34.52
2.98710	34.52
3.00377	34.52
3.02043	34.52
3.03710	34.52
3.05377	34.52
3.07043	34.52
3.08710	34.52
3.10377	34.52
3.12043	34.52
3.13710	34.52
3.15377	34.52
3.17043	34.52
3.18710	34.52
3.20377	34.52
3.22043	34.52
3.23710	34.52
3.25377	34.52
3.27043	34.52
3.28710	34.52
3.30377	34.52
3.32043	34.52
3.33710	34.52
3.35377	34.52
3.37043	34.52
3.38710	34.52
3.40377	34.52
3.42043	34.52
3.43710	34.52
3.45377	34.52
3.47043	34.52
3.48710	34.52
3.50377	34.52
3.52043	34.52
3.53710	34.52
3.55377	34.52
3.57043	34.52
3.58710	34.52
3.60377	34.52
3.62043	34.52
3.63710	34.52
3.65377	34.52
3.67043	34.52
3.68710	34.52
3.70377	34.52
3.72043	34.52
3.73710	34.52
3.75377	34.52
3.77043	34.52
3.78710	34.52
3.80377	34.52
3.82043	34.52
3.83710	34.52
3.85377	34.52
3.87043	34.52
3.88710	34.52
3.90377	34.52
3.92043	34.52
3.93710	34.52
3.95377	34.52
3.97043	34.52
3.98710	34.52

[Status Trace (Column Flow)]
Interval(msec)	1000
# of Points	240
Start Time(min)	0.004
End Time(min)	3.987
Intensity Units	
Intensity Multiplier	1
R.Time (min)	Intensity
0.00377	5.55
0.02043	5.32
0.03710	5.38
0.05377	5.63
0.07043	5.76
0.08710	5.57
0.10377	5.55
0.12043	5.55
0.13710	5.55
0.15377	5.55
0.17043	5.55
0.18710	5.55
0.20377	5.55
0.22043	5.55
0.23710	5.55
0.25377	5.55
0.27043	5.55
0.28710	5.55
0.30377	5.55
0.32043	5.55
0.33710	5.55
0.35377	5.55
0.37043	5.55
0.38710	5.55
0.40377	5.55
0.42043	5.55
0.43710	5.55
0.45377	5.55
0.47043	5.55
0.48710	5.55
0.50377	5.55
0.52043	5.55
0.53710	5.55
0.55377	5.55
0.57043	5.55
0.58710	5.55
0.60377	5.55
0.62043	5.55
0.63710	5.55
0.65377	5.55
0.67043	5.55
0.68710	5.55
0.70377	5.55
0.72043	5.55
0.73710	5.55
0.75377	5.55
0.77043	5.55
0.78710	5.55
0.80377	5.55
0.82043	5.55
0.83710	5.55
0.85377	5.55
0.87043	5.55
0.88710	5.55
0.90377	5.55
0.92043	5.55
0.93710	5.55
0.95377	5.55
0.97043	5.55
0.98710	5.55
1.00377	5.55
1.02043	5.55
1.03710	5.55
1.05377	5.55
1.07043	5.55
1.08710	5.55
1.10377	5.55
1.12043	5.55
1.13710	5.55
1.15377	5.55
1.17043	5.55
1.18710	5.55
1.20377	5.55
1.22043	5.55
1.23710	5.55
1.25377	5.55
1.27043	5.55
1.28710	5.55
1.30377	5.55
1.32043	5.55
1.33710	5.55
1.35377	5.55
1.37043	5.55
1.38710	5.55
1.40377	5.55
1.42043	5.55
1.43710	5.55
1.45377	5.55
1.47043	5.55
1.48710	5.55
1.50377	5.55
1.52043	5.55
1.53710	5.55
1.55377	5.55
1.57043	5.55
1.58710	5.55
1.60377	5.55
1.62043	5.55
1.63710	5.54
1.65377	5.53
1.67043	5.52
1.68710	5.51
1.70377	5.50
1.72043	5.49
1.73710	5.48
1.75377	5.47
1.77043	5.46
1.78710	5.45
1.80377	5.44
1.82043	5.43
1.83710	5.42
1.85377	5.41
1.87043	5.40
1.88710	5.39
1.90377	5.38
1.92043	5.37
1.93710	5.36
1.95377	5.35
1.97043	5.34
1.98710	5.33
2.00377	5.32
2.02043	5.31
2.03710	5.30
2.05377	5.29
2.07043	5.28
2.08710	5.27
2.10377	5.26
2.12043	5.25
2.13710	5.24
2.15377	5.24
2.17043	5.22
2.18710	5.22
2.20377	5.21
2.22043	5.20
2.23710	5.19
2.25377	5.18
2.27043	5.17
2.28710	5.16
2.30377	5.15
2.32043	5.14
2.33710	5.13
2.35377	5.12
2.37043	5.12
2.38710	5.11
2.40377	5.11
2.42043	5.11
2.43710	5.11
2.45377	5.11
2.47043	5.11
2.48710	5.11
2.50377	5.11
2.52043	5.11
2.53710	5.11
2.55377	5.11
2.57043	5.11
2.58710	5.11
2.60377	5.11
2.62043	5.11
2.63710	5.11
2.65377	5.11
2.67043	5.11
2.68710	5.11
2.70377	5.11
2.72043	5.11
2.73710	5.11
2.75377	5.11
2.77043	5.11
2.78710	5.11
2.80377	5.11
2.82043	5.11
2.83710	5.11
2.85377	5.11
2.87043	5.11
2.88710	5.11
2.90377	5.11
2.92043	5.11
2.93710	5.11
2.95377	5.11
2.97043	5.11
2.98710	5.11
3.00377	5.11
3.02043	5.11
3.03710	5.11
3.05377	5.11
3.07043	5.11
3.08710	5.11
3.10377	5.10
3.12043	5.10
3.13710	5.10
3.15377	5.10
3.17043	5.10
3.18710	5.10
3.20377	5.10
3.22043	5.10
3.23710	5.10
3.25377	5.10
3.27043	5.10
3.28710	5.10
3.30377	5.10
3.32043	5.10
3.33710	5.10
3.35377	5.10
3.37043	5.10
3.38710	5.10
3.40377	5.10
3.42043	5.10
3.43710	5.10
3.45377	5.10
3.47043	5.10
3.48710	5.10
3.50377	5.10
3.52043	5.10
3.53710	5.10
3.55377	5.10
3.57043	5.10
3.58710	5.10
3.60377	5.10
3.62043	5.10
3.63710	5.10
3.65377	5.10
3.67043	5.10
3.68710	5.10
3.70377	5.10
3.72043	5.10
3.73710	5.10
3.75377	5.10
3.77043	5.10
3.78710	5.10
3.80377	5.10
3.82043	5.10
3.83710	5.10
3.85377	5.10
3.87043	5.10
3.88710	5.10
3.90377	5.10
3.92043	5.10
3.93710	5.10
3.95377	5.10
3.97043	5.10
3.98710	5.10

[Status Trace (Linear Velocity)]
Interval(msec)	1000
# of Points	240
Start Time(min)	0.004
End Time(min)	3.987
Intensity Units	
Intensity Multiplier	1
R.Time (min)	Intensity
0.00377	39.02
0.02043	37.73
0.03710	38.09
0.05377	39.49
0.07043	40.18
0.08710	39.14
0.10377	39.00
0.12043	39.03
0.13710	39.03
0.15377	39.03
0.17043	39.03
0.18710	39.03
0.20377	39.03
0.22043	39.03
0.23710	39.03
0.25377	39.03
0.27043	39.03
0.28710	39.03
0.30377	39.03
0.32043	39.03
0.33710	39.03
0.35377	39.03
0.37043	39.02
0.38710	39.03
0.40377	39.02
0.42043	39.02
0.43710	39.02
0.45377	39.02
0.47043	39.02
0.48710	39.02
0.50377	39.02
0.52043	39.02
0.53710	39.02
0.55377	39.02
0.57043	39.02
0.58710	39.02
0.60377	39.02
0.62043	39.03
0.63710	39.02
0.65377	39.03
0.67043	39.03
0.68710	39.02
0.70377	39.02
0.72043	39.02
0.73710	39.02
0.75377	39.02
0.77043	39.03
0.78710	39.02
0.80377	39.02
0.82043	39.02
0.83710	39.02
0.85377	39.02
0.87043	39.02
0.88710	39.02
0.90377	39.02
0.92043	39.03
0.93710	39.02
0.95377	39.02
0.97043	39.02
0.98710	39.02
1.00377	39.02
1.02043	39.02
1.03710	39.02
1.05377	39.02
1.07043	39.02
1.08710	39.02
1.10377	39.02
1.12043	39.02
1.13710	39.02
1.15377	39.02
1.17043	39.02
1.18710	39.02
1.20377	39.02
1.22043	39.02
1.23710	39.02
1.25377	39.02
1.27043	39.02
1.28710	39.02
1.30377	39.02
1.32043	39.03
1.33710	39.03
1.35377	39.02
1.37043	39.02
1.38710	39.02
1.40377	39.02
1.42043	39.03
1.43710	39.02
1.45377	39.02
1.47043	39.02
1.48710	39.02
1.50377	39.02
1.52043	39.02
1.53710	39.02
1.55377	39.02
1.57043	39.02
1.58710	39.02
1.60377	39.02
1.62043	39.01
1.63710	38.99
1.65377	38.97
1.67043	38.94
1.68710	38.91
1.70377	38.87
1.72043	38.84
1.73710	38.81
1.75377	38.78
1.77043	38.75
1.78710	38.71
1.80377	38.68
1.82043	38.65
1.83710	38.62
1.85377	38.59
1.87043	38.56
1.88710	38.53
1.90377	38.50
1.92043	38.47
1.93710	38.43
1.95377	38.41
1.97043	38.38
1.98710	38.35
2.00377	38.31
2.02043	38.29
2.03710	38.26
2.05377	38.23
2.07043	38.20
2.08710	38.17
2.10377	38.14
2.12043	38.11
2.13710	38.08
2.15377	38.05
2.17043	38.02
2.18710	37.99
2.20377	37.96
2.22043	37.93
2.23710	37.90
2.25377	37.87
2.27043	37.84
2.28710	37.81
2.30377	37.78
2.32043	37.75
2.33710	37.72
2.35377	37.70
2.37043	37.67
2.38710	37.66
2.40377	37.66
2.42043	37.67
2.43710	37.67
2.45377	37.66
2.47043	37.66
2.48710	37.66
2.50377	37.64
2.52043	37.66
2.53710	37.66
2.55377	37.66
2.57043	37.66
2.58710	37.66
2.60377	37.66
2.62043	37.65
2.63710	37.65
2.65377	37.65
2.67043	37.65
2.68710	37.65
2.70377	37.65
2.72043	37.65
2.73710	37.65
2.75377	37.65
2.77043	37.65
2.78710	37.65
2.80377	37.65
2.82043	37.65
2.83710	37.65
2.85377	37.65
2.87043	37.65
2.88710	37.65
2.90377	37.65
2.92043	37.65
2.93710	37.64
2.95377	37.64
2.97043	37.64
2.98710	37.64
3.00377	37.64
3.02043	37.64
3.03710	37.64
3.05377	37.64
3.07043	37.64
3.08710	37.64
3.10377	37.64
3.12043	37.64
3.13710	37.64
3.15377	37.64
3.17043	37.64
3.18710	37.64
3.20377	37.63
3.22043	37.63
3.23710	37.63
3.25377	37.63
3.27043	37.63
3.28710	37.63
3.30377	37.63
3.32043	37.63
3.33710	37.63
3.35377	37.63
3.37043	37.63
3.38710	37.63
3.40377	37.63
3.42043	37.63
3.43710	37.64
3.45377	37.64
3.47043	37.64
3.48710	37.64
3.50377	37.64
3.52043	37.64
3.53710	37.64
3.55377	37.64
3.57043	37.64
3.58710	37.64
3.60377	37.64
3.62043	37.64
3.63710	37.64
3.65377	37.64
3.67043	37.64
3.68710	37.64
3.70377	37.64
3.72043	37.64
3.73710	37.64
3.75377	37.63
3.77043	37.63
3.78710	37.63
3.80377	37.63
3.82043	37.63
3.83710	37.63
3.85377	37.63
3.87043	37.63
3.88710	37.63
3.90377	37.63
3.92043	37.63
3.93710	37.63
3.95377	37.63
3.97043	37.63
3.98710	37.63

