[Header]
Application Name	LabSolutions
Version	5.110
Data File Name	C:\Users\User\Desktop\GC Analyses\Jack\UIC Prairie Sampling\11.2.22\221102_057.gcd
Output Date	3/20/2023
Output Time	1:25:39 PM

[File Information]
Type	Data File
Generated	12/21/2022 2:09:59 PM
Generated by	System Administrator
Modified	12/21/2022 2:14:25 PM
Modified by	System Administrator

[Sample Information]
Operator Name	System Administrator
Acquired	12/21/2022 2:10:24 PM
Sample Type	1:Standard
Level	1
Sample Name	221102_UICPrairie
Sample ID	221102_UICPrairie
ISTD Amount1	1
ISTD Amount2	1
ISTD Amount3	1
ISTD Amount4	1
ISTD Amount5	1
ISTD Amount6	1
ISTD Amount7	1
ISTD Amount8	1
ISTD Amount9	1
ISTD Amount10	1
ISTD Amount11	1
ISTD Amount12	1
ISTD Amount13	1
ISTD Amount14	1
ISTD Amount15	1
ISTD Amount16	1
ISTD Amount17	1
ISTD Amount18	1
ISTD Amount19	1
ISTD Amount20	1
ISTD Amount21	1
ISTD Amount22	1
ISTD Amount23	1
ISTD Amount24	1
ISTD Amount25	1
ISTD Amount26	1
ISTD Amount27	1
ISTD Amount28	1
ISTD Amount29	1
ISTD Amount30	1
ISTD Amount31	1
ISTD Amount32	1
Sample Amount	1
Dilution Factor	1
Vial#	1
Injection Volume	1
Injection Count	1
Bar Code	

[Original Files]
Data File	C:\Users\User\Desktop\GC Analyses\Jack\UIC Prairie Sampling\11.2.22\221102_057.gcd
Method File	C:\LabSolutions\Data\GHG_4min_2022\ghg3_togas_w_acet_4 min_new_int.gcm
Batch File	
Report Format File	c:\LabSolutions\System\DEFAULT.lsr

[File Description]


[Configuration]
Instrument Name	C0B7VH3-Instrument1
Instrument #	1
Line #	1
# of Detectors	3
Detector ID	DET#1	DET#2	DET#3
Detector Name	FID	PTCD	ECD
# of Channels	1	1	1

[Peak Table(Ch1)]
# of Peaks	3
Peak#	R.Time	I.Time	F.Time	Area	Height	A/H	Conc.	Mark	ID#	Name	k'	Plate #	Plate Ht.	Tailing	Resolution	Sep.Factor	Area Ratio	Height Ratio	Conc. %	Norm Conc.
1	1.479	1.439	1.538	9593	4143	2.316	100.000	   	1	CO	0.000	7962	18.840	1.224	0.000	0.000	0	0	16.667	16.667
2	1.571	1.538	1.626	4991	2476	2.016	100.000	 V 	2	CH4	0.062	11067	13.554	0.000	1.454	0.000	0	0	16.667	16.667
3	2.000	1.952	2.590	1515856	702670	2.157	400.000	   	3	CO2	0.352	17256	8.693	1.224	7.112	5.680	0	0	66.667	66.667

[Peak Table(Ch2)]
# of Peaks	0

[Peak Table(Ch3)]
# of Peaks	6
Peak#	R.Time	I.Time	F.Time	Area	Height	A/H	Conc.	Mark	ID#	Name	k'	Plate #	Plate Ht.	Tailing	Resolution	Sep.Factor	Area Ratio	Height Ratio	Conc. %	Norm Conc.
1	1.039	0.772	1.270	204	17	12.097	0.000	   			0.000	1204	124.628	1.040	0.000	0.000	0	0	0.000	0.000
2	2.458	2.268	2.499	2457	600	4.096	0.000	   			1.365	9082	16.516	0.000	12.726	0.000	0	0	0.000	0.000
3	2.517	2.499	2.561	1237	411	3.011	0.000	 V 			1.422	2859	52.460	0.000	0.403	1.041	0	0	0.000	0.000
4	2.605	2.561	2.656	1342	367	3.654	0.000	 V 			1.506	5349	28.040	0.000	0.532	1.060	0	0	0.000	0.000
5	2.884	2.748	3.038	30446	6025	5.054	1.000	   	1	N2O	1.775	10963	13.683	0.000	2.206	1.178	0	0	50.000	50.000
6	3.115	3.038	3.932	21163	779	27.160	1.000	 V 	2	SF6	1.997	30	5025.909	0.000	0.193	1.125	0	0	50.000	50.000

[Compound Results(Ch1)]
# of IDs	6
ID#	Name	R.Time	Area	Height	Conc.	Curve	3rd	2nd	1st	Constant	Area Ratio	Height Ratio	Conc. %	Norm Conc.
1	CO	1.479	9593	4143	100.000	Linear	0.000000e+00	0.000000e+00	9.592820e+001	0.000000e+00	0	0	16.667	16.667
2	CH4	1.571	4991	2476	100.000	Linear	0.000000e+00	0.000000e+00	4.991116e+001	0.000000e+00	0	0	16.667	16.667
3	CO2	2.000	1515856	702670	400.000	Linear	0.000000e+00	0.000000e+00	3.789640e+003	0.000000e+00	0	0	66.667	66.667
4	Ethylene	0.000	0	0	0.000	Linear	0.000000e+00	0.000000e+00	0.000000e+00	0.000000e+00	0	0	0.000	0.000
5	Acetylene	0.000	0	0	0.000	Linear	0.000000e+00	0.000000e+00	0.000000e+00	0.000000e+00	0	0	0.000	0.000
6	Ethane	0.000	0	0	0.000	Linear	0.000000e+00	0.000000e+00	0.000000e+00	0.000000e+00	0	0	0.000	0.000

[Compound Results(Ch2)]
# of IDs	5
ID#	Name	R.Time	Area	Height	Conc.	Curve	3rd	2nd	1st	Constant	Area Ratio	Height Ratio	Conc. %	Norm Conc.
1	Hydrogen	0.000	0	0	0.000	Linear	0.000000e+00	0.000000e+00	0.000000e+00	0.000000e+00	0	0	0.000	0.000
2	Oxygen	0.000	0	0	0.000	Linear	0.000000e+00	0.000000e+00	0.000000e+00	0.000000e+00	0	0	0.000	0.000
3	Nitrogen	0.000	0	0	0.000	Linear	0.000000e+00	0.000000e+00	0.000000e+00	0.000000e+00	0	0	0.000	0.000
4	Methane	0.000	0	0	0.000	Linear	0.000000e+00	0.000000e+00	0.000000e+00	0.000000e+00	0	0	0.000	0.000
5	Carbon Monoxide	0.000	0	0	0.000	Linear	0.000000e+00	0.000000e+00	0.000000e+00	0.000000e+00	0	0	0.000	0.000

[Compound Results(Ch3)]
# of IDs	2
ID#	Name	R.Time	Area	Height	Conc.	Curve	3rd	2nd	1st	Constant	Area Ratio	Height Ratio	Conc. %	Norm Conc.
1	N2O	2.884	30446	6025	1.000	Linear	0.000000e+00	0.000000e+00	3.044615e+004	0.000000e+00	0	0	50.000	50.000
2	SF6	3.115	21163	779	1.000	Linear	0.000000e+00	0.000000e+00	2.116336e+004	0.000000e+00	0	0	50.000	50.000

[Group Results(Ch1)]
# of Groups	0

[Group Results(Ch2)]
# of Groups	0

[Group Results(Ch3)]
# of Groups	0

[Chromatogram (Ch1)]
Interval(msec)	220
# of Points	1091
Start Time(min)	0.002
End Time(min)	3.998
R.Time (min)	Intensity
0.00167	1
0.00533	-6
0.00900	-12
0.01267	-15
0.01633	-16
0.02000	-15
0.02367	-14
0.02733	-13
0.03100	-12
0.03467	-10
0.03833	-8
0.04200	-3
0.04567	7
0.04933	17
0.05300	20
0.05667	10
0.06033	-6
0.06400	-17
0.06767	-22
0.07133	-23
0.07500	-22
0.07867	-24
0.08233	-29
0.08600	-35
0.08967	-36
0.09333	-32
0.09700	-25
0.10067	-16
0.10433	-8
0.10800	-4
0.11167	-5
0.11533	-6
0.11900	-6
0.12267	-3
0.12633	4
0.13000	11
0.13367	13
0.13733	7
0.14100	-3
0.14467	-13
0.14833	-19
0.15200	-23
0.15567	-28
0.15933	-29
0.16300	-27
0.16667	-26
0.17033	-25
0.17400	-26
0.17767	-27
0.18133	-27
0.18500	-23
0.18867	-19
0.19233	-19
0.19600	-21
0.19967	-23
0.20333	-22
0.20700	-20
0.21067	-23
0.21433	-29
0.21800	-31
0.22167	-32
0.22533	-33
0.22900	-33
0.23267	-32
0.23633	-30
0.24000	-30
0.24367	-28
0.24733	-24
0.25100	-21
0.25467	-22
0.25833	-22
0.26200	-20
0.26567	-17
0.26933	-12
0.27300	-8
0.27667	-8
0.28033	-12
0.28400	-16
0.28767	-22
0.29133	-28
0.29500	-32
0.29867	-34
0.30233	-36
0.30600	-36
0.30967	-38
0.31333	-40
0.31700	-41
0.32067	-42
0.32433	-42
0.32800	-39
0.33167	-36
0.33533	-34
0.33900	-33
0.34267	-31
0.34633	-28
0.35000	-27
0.35367	-28
0.35733	-29
0.36100	-26
0.36467	-23
0.36833	-22
0.37200	-23
0.37567	-27
0.37933	-32
0.38300	-38
0.38667	-43
0.39033	-47
0.39400	-47
0.39767	-48
0.40133	-47
0.40500	-43
0.40867	-39
0.41233	-37
0.41600	-32
0.41967	-28
0.42333	-24
0.42700	-22
0.43067	-22
0.43433	-27
0.43800	-34
0.44167	-39
0.44533	-45
0.44900	-52
0.45267	-55
0.45633	-53
0.46000	-50
0.46367	-48
0.46733	-50
0.47100	-53
0.47467	-51
0.47833	-47
0.48200	-42
0.48567	-38
0.48933	-42
0.49300	-50
0.49667	-56
0.50033	-58
0.50400	-57
0.50767	-58
0.51133	-59
0.51500	-57
0.51867	-56
0.52233	-59
0.52600	-63
0.52967	-63
0.53333	-60
0.53700	-55
0.54067	-53
0.54433	-53
0.54800	-55
0.55167	-54
0.55533	-52
0.55900	-50
0.56267	-46
0.56633	-45
0.57000	-48
0.57367	-54
0.57733	-57
0.58100	-57
0.58467	-55
0.58833	-56
0.59200	-58
0.59567	-59
0.59933	-57
0.60300	-56
0.60667	-58
0.61033	-61
0.61400	-63
0.61767	-62
0.62133	-55
0.62500	-46
0.62867	-43
0.63233	-47
0.63600	-51
0.63967	-55
0.64333	-60
0.64700	-63
0.65067	-64
0.65433	-65
0.65800	-68
0.66167	-74
0.66533	-79
0.66900	-81
0.67267	-79
0.67633	-76
0.68000	-72
0.68367	-68
0.68733	-65
0.69100	-65
0.69467	-67
0.69833	-67
0.70200	-66
0.70567	-69
0.70933	-75
0.71300	-79
0.71667	-82
0.72033	-84
0.72400	-84
0.72767	-84
0.73133	-84
0.73500	-86
0.73867	-89
0.74233	-90
0.74600	-89
0.74967	-85
0.75333	-80
0.75700	-75
0.76067	-70
0.76433	-68
0.76800	-67
0.77167	-70
0.77533	-75
0.77900	-79
0.78267	-79
0.78633	-79
0.79000	-80
0.79367	-79
0.79733	-78
0.80100	-77
0.80467	-76
0.80833	-76
0.81200	-76
0.81567	-76
0.81933	-77
0.82300	-78
0.82667	-79
0.83033	-80
0.83400	-84
0.83767	-91
0.84133	-100
0.84500	-106
0.84867	-109
0.85233	-109
0.85600	-107
0.85967	-101
0.86333	-96
0.86700	-91
0.87067	-86
0.87433	-85
0.87800	-91
0.88167	-99
0.88533	-105
0.88900	-103
0.89267	-94
0.89633	-87
0.90000	-84
0.90367	-80
0.90733	-75
0.91100	-71
0.91467	-75
0.91833	-85
0.92200	-93
0.92567	-100
0.92933	-106
0.93300	-110
0.93667	-112
0.94033	-110
0.94400	-104
0.94767	-95
0.95133	-88
0.95500	-83
0.95867	-81
0.96233	-83
0.96600	-85
0.96967	-88
0.97333	-92
0.97700	-96
0.98067	-99
0.98433	-103
0.98800	-104
0.99167	-99
0.99533	-90
0.99900	-83
1.00267	-79
1.00633	-80
1.01000	-84
1.01367	-86
1.01733	-87
1.02100	-86
1.02467	-84
1.02833	-85
1.03200	-88
1.03567	-92
1.03933	-94
1.04300	-95
1.04667	-96
1.05033	-98
1.05400	-104
1.05767	-113
1.06133	-121
1.06500	-129
1.06867	-133
1.07233	-134
1.07600	-132
1.07967	-130
1.08333	-127
1.08700	-126
1.09067	-129
1.09433	-131
1.09800	-129
1.10167	-125
1.10533	-120
1.10900	-114
1.11267	-111
1.11633	-113
1.12000	-118
1.12367	-122
1.12733	-120
1.13100	-114
1.13467	-109
1.13833	-110
1.14200	-112
1.14567	-115
1.14933	-116
1.15300	-110
1.15667	-103
1.16033	-98
1.16400	-99
1.16767	-105
1.17133	-114
1.17500	-120
1.17867	-121
1.18233	-119
1.18600	-115
1.18967	-111
1.19333	-108
1.19700	-108
1.20067	-108
1.20433	-110
1.20800	-115
1.21167	-122
1.21533	-125
1.21900	-124
1.22267	-124
1.22633	-124
1.23000	-127
1.23367	-133
1.23733	-137
1.24100	-136
1.24467	-131
1.24833	-129
1.25200	-129
1.25567	-129
1.25933	-126
1.26300	-122
1.26667	-118
1.27033	-115
1.27400	-117
1.27767	-122
1.28133	-124
1.28500	-122
1.28867	-119
1.29233	-117
1.29600	-119
1.29967	-119
1.30333	-118
1.30700	-118
1.31067	-120
1.31433	-124
1.31800	-130
1.32167	-136
1.32533	-143
1.32900	-147
1.33267	-148
1.33633	-147
1.34000	-144
1.34367	-138
1.34733	-133
1.35100	-132
1.35467	-129
1.35833	-122
1.36200	-114
1.36567	-113
1.36933	-118
1.37300	-122
1.37667	-127
1.38033	-131
1.38400	-136
1.38767	-141
1.39133	-147
1.39500	-151
1.39867	-152
1.40233	-150
1.40600	-145
1.40967	-139
1.41333	-135
1.41700	-133
1.42067	-132
1.42433	-134
1.42800	-137
1.43167	-138
1.43533	-137
1.43900	-123
1.44267	-55
1.44633	112
1.45000	368
1.45367	760
1.45733	1344
1.46100	2051
1.46467	2748
1.46833	3335
1.47200	3765
1.47567	4007
1.47933	4020
1.48300	3789
1.48667	3346
1.49033	2780
1.49400	2195
1.49767	1669
1.50133	1234
1.50500	895
1.50867	642
1.51233	459
1.51600	328
1.51967	229
1.52333	153
1.52700	97
1.53067	54
1.53433	24
1.53800	12
1.54167	46
1.54533	193
1.54900	500
1.55267	939
1.55633	1411
1.56000	1827
1.56367	2142
1.56733	2329
1.57100	2354
1.57467	2198
1.57833	1884
1.58200	1488
1.58567	1097
1.58933	761
1.59300	498
1.59667	302
1.60033	161
1.60400	61
1.60767	-8
1.61133	-53
1.61500	-84
1.61867	-103
1.62233	-115
1.62600	-121
1.62967	-124
1.63333	-125
1.63700	-125
1.64067	-123
1.64433	-120
1.64800	-119
1.65167	-120
1.65533	-124
1.65900	-134
1.66267	-148
1.66633	-158
1.67000	-161
1.67367	-159
1.67733	-152
1.68100	-143
1.68467	-139
1.68833	-138
1.69200	-140
1.69567	-146
1.69933	-151
1.70300	-150
1.70667	-145
1.71033	-141
1.71400	-138
1.71767	-137
1.72133	-139
1.72500	-146
1.72867	-150
1.73233	-155
1.73600	-155
1.73967	-150
1.74333	-147
1.74700	-143
1.75067	-141
1.75433	-141
1.75800	-142
1.76167	-140
1.76533	-138
1.76900	-137
1.77267	-140
1.77633	-144
1.78000	-149
1.78367	-151
1.78733	-152
1.79100	-148
1.79467	-142
1.79833	-138
1.80200	-137
1.80567	-137
1.80933	-137
1.81300	-141
1.81667	-148
1.82033	-156
1.82400	-165
1.82767	-174
1.83133	-179
1.83500	-180
1.83867	-176
1.84233	-171
1.84600	-164
1.84967	-156
1.85333	-151
1.85700	-151
1.86067	-155
1.86433	-156
1.86800	-153
1.87167	-147
1.87533	-141
1.87900	-138
1.88267	-137
1.88633	-138
1.89000	-139
1.89367	-139
1.89733	-136
1.90100	-133
1.90467	-129
1.90833	-127
1.91200	-126
1.91567	-130
1.91933	-136
1.92300	-140
1.92667	-141
1.93033	-140
1.93400	-138
1.93767	-137
1.94133	-136
1.94500	-134
1.94867	-131
1.95233	-123
1.95600	-57
1.95967	349
1.96333	2350
1.96700	9887
1.97067	31525
1.97433	79659
1.97800	163675
1.98167	280568
1.98533	413489
1.98900	539515
1.99267	638044
1.99633	694795
2.00000	702598
2.00367	662225
2.00733	583517
2.01100	483241
2.01467	379297
2.01833	285224
2.02200	207971
2.02567	148807
2.02933	105670
2.03300	75237
2.03667	54202
2.04033	39812
2.04400	29982
2.04767	23237
2.05133	18543
2.05500	15219
2.05867	12815
2.06233	11036
2.06600	9690
2.06967	8643
2.07333	7809
2.07700	7129
2.08067	6560
2.08433	6074
2.08800	5659
2.09167	5302
2.09533	4991
2.09900	4713
2.10267	4463
2.10633	4235
2.11000	4025
2.11367	3832
2.11733	3658
2.12100	3503
2.12467	3360
2.12833	3223
2.13200	3093
2.13567	2973
2.13933	2865
2.14300	2767
2.14667	2673
2.15033	2581
2.15400	2492
2.15767	2409
2.16133	2335
2.16500	2271
2.16867	2212
2.17233	2153
2.17600	2096
2.17967	2040
2.18333	1985
2.18700	1932
2.19067	1881
2.19433	1831
2.19800	1781
2.20167	1734
2.20533	1691
2.20900	1652
2.21267	1617
2.21633	1584
2.22000	1552
2.22367	1520
2.22733	1490
2.23100	1460
2.23467	1433
2.23833	1407
2.24200	1380
2.24567	1349
2.24933	1318
2.25300	1290
2.25667	1264
2.26033	1240
2.26400	1221
2.26767	1200
2.27133	1179
2.27500	1159
2.27867	1141
2.28233	1124
2.28600	1109
2.28967	1095
2.29333	1081
2.29700	1067
2.30067	1054
2.30433	1041
2.30800	1025
2.31167	1007
2.31533	987
2.31900	968
2.32267	953
2.32633	939
2.33000	929
2.33367	922
2.33733	916
2.34100	907
2.34467	898
2.34833	889
2.35200	880
2.35567	871
2.35933	858
2.36300	842
2.36667	828
2.37033	814
2.37400	802
2.37767	793
2.38133	788
2.38500	783
2.38867	776
2.39233	768
2.39600	760
2.39967	753
2.40333	749
2.40700	743
2.41067	737
2.41433	730
2.41800	722
2.42167	713
2.42533	706
2.42900	704
2.43267	703
2.43633	702
2.44000	699
2.44367	691
2.44733	682
2.45100	674
2.45467	667
2.45833	659
2.46200	648
2.46567	636
2.46933	624
2.47300	616
2.47667	610
2.48033	609
2.48400	614
2.48767	624
2.49133	632
2.49500	630
2.49867	623
2.50233	615
2.50600	607
2.50967	596
2.51333	587
2.51700	581
2.52067	578
2.52433	579
2.52800	585
2.53167	590
2.53533	592
2.53900	590
2.54267	586
2.54633	581
2.55000	575
2.55367	569
2.55733	560
2.56100	553
2.56467	550
2.56833	550
2.57200	551
2.57567	550
2.57933	548
2.58300	546
2.58667	544
2.59033	544
2.59400	543
2.59767	544
2.60133	546
2.60500	549
2.60867	554
2.61233	558
2.61600	558
2.61967	554
2.62333	546
2.62700	534
2.63067	525
2.63433	520
2.63800	512
2.64167	503
2.64533	497
2.64900	495
2.65267	497
2.65633	503
2.66000	507
2.66367	506
2.66733	501
2.67100	497
2.67467	495
2.67833	499
2.68200	503
2.68567	503
2.68933	497
2.69300	489
2.69667	483
2.70033	480
2.70400	479
2.70767	483
2.71133	488
2.71500	493
2.71867	497
2.72233	500
2.72600	502
2.72967	502
2.73333	499
2.73700	496
2.74067	495
2.74433	493
2.74800	489
2.75167	485
2.75533	484
2.75900	483
2.76267	480
2.76633	476
2.77000	476
2.77367	482
2.77733	489
2.78100	496
2.78467	500
2.78833	498
2.79200	492
2.79567	485
2.79933	481
2.80300	480
2.80667	482
2.81033	484
2.81400	484
2.81767	484
2.82133	481
2.82500	475
2.82867	471
2.83233	467
2.83600	465
2.83967	463
2.84333	462
2.84700	463
2.85067	463
2.85433	462
2.85800	469
2.86167	480
2.86533	483
2.86900	481
2.87267	478
2.87633	475
2.88000	476
2.88367	476
2.88733	474
2.89100	472
2.89467	472
2.89833	474
2.90200	480
2.90567	486
2.90933	487
2.91300	483
2.91667	478
2.92033	473
2.92400	468
2.92767	463
2.93133	461
2.93500	462
2.93867	467
2.94233	472
2.94600	474
2.94967	471
2.95333	465
2.95700	462
2.96067	461
2.96433	458
2.96800	454
2.97167	453
2.97533	457
2.97900	462
2.98267	467
2.98633	476
2.99000	485
2.99367	489
2.99733	488
3.00100	485
3.00467	486
3.00833	488
3.01200	491
3.01567	492
3.01933	491
3.02300	487
3.02667	480
3.03033	470
3.03400	460
3.03767	453
3.04133	453
3.04500	456
3.04867	457
3.05233	458
3.05600	460
3.05967	461
3.06333	458
3.06700	452
3.07067	445
3.07433	438
3.07800	436
3.08167	437
3.08533	438
3.08900	437
3.09267	433
3.09633	427
3.10000	421
3.10367	420
3.10733	426
3.11100	436
3.11467	444
3.11833	448
3.12200	451
3.12567	451
3.12933	450
3.13300	447
3.13667	445
3.14033	443
3.14400	439
3.14767	436
3.15133	431
3.15500	419
3.15867	408
3.16233	400
3.16600	401
3.16967	410
3.17333	421
3.17700	427
3.18067	431
3.18433	433
3.18800	435
3.19167	437
3.19533	435
3.19900	430
3.20267	423
3.20633	416
3.21000	411
3.21367	410
3.21733	412
3.22100	416
3.22467	420
3.22833	423
3.23200	425
3.23567	423
3.23933	420
3.24300	415
3.24667	413
3.25033	413
3.25400	417
3.25767	426
3.26133	434
3.26500	436
3.26867	433
3.27233	428
3.27600	423
3.27967	421
3.28333	422
3.28700	421
3.29067	417
3.29433	411
3.29800	406
3.30167	400
3.30533	396
3.30900	391
3.31267	387
3.31633	386
3.32000	391
3.32367	397
3.32733	402
3.33100	403
3.33467	403
3.33833	402
3.34200	403
3.34567	400
3.34933	395
3.35300	391
3.35667	390
3.36033	390
3.36400	392
3.36767	395
3.37133	395
3.37500	394
3.37867	396
3.38233	401
3.38600	405
3.38967	405
3.39333	404
3.39700	403
3.40067	400
3.40433	395
3.40800	391
3.41167	395
3.41533	406
3.41900	417
3.42267	416
3.42633	409
3.43000	396
3.43367	384
3.43733	376
3.44100	369
3.44467	363
3.44833	363
3.45200	367
3.45567	374
3.45933	378
3.46300	378
3.46667	376
3.47033	373
3.47400	368
3.47767	363
3.48133	363
3.48500	366
3.48867	368
3.49233	367
3.49600	366
3.49967	365
3.50333	363
3.50700	363
3.51067	365
3.51433	367
3.51800	367
3.52167	364
3.52533	363
3.52900	363
3.53267	361
3.53633	356
3.54000	350
3.54367	343
3.54733	336
3.55100	333
3.55467	333
3.55833	334
3.56200	334
3.56567	337
3.56933	338
3.57300	340
3.57667	344
3.58033	344
3.58400	341
3.58767	342
3.59133	344
3.59500	342
3.59867	339
3.60233	338
3.60600	336
3.60967	334
3.61333	332
3.61700	326
3.62067	320
3.62433	314
3.62800	306
3.63167	301
3.63533	299
3.63900	298
3.64267	299
3.64633	301
3.65000	302
3.65367	301
3.65733	303
3.66100	307
3.66467	311
3.66833	311
3.67200	312
3.67567	314
3.67933	316
3.68300	319
3.68667	324
3.69033	328
3.69400	325
3.69767	318
3.70133	312
3.70500	309
3.70867	306
3.71233	302
3.71600	294
3.71967	287
3.72333	284
3.72700	281
3.73067	275
3.73433	268
3.73800	266
3.74167	266
3.74533	269
3.74900	273
3.75267	278
3.75633	282
3.76000	287
3.76367	292
3.76733	295
3.77100	298
3.77467	295
3.77833	290
3.78200	285
3.78567	281
3.78933	278
3.79300	279
3.79667	282
3.80033	284
3.80400	287
3.80767	292
3.81133	296
3.81500	296
3.81867	297
3.82233	295
3.82600	289
3.82967	284
3.83333	279
3.83700	275
3.84067	276
3.84433	276
3.84800	273
3.85167	270
3.85533	269
3.85900	268
3.86267	270
3.86633	273
3.87000	273
3.87367	268
3.87733	261
3.88100	256
3.88467	254
3.88833	253
3.89200	251
3.89567	249
3.89933	247
3.90300	245
3.90667	243
3.91033	244
3.91400	247
3.91767	251
3.92133	255
3.92500	259
3.92867	263
3.93233	267
3.93600	269
3.93967	266
3.94333	260
3.94700	254
3.95067	249
3.95433	244
3.95800	239
3.96167	231
3.96533	227
3.96900	228
3.97267	231
3.97633	233
3.98000	236
3.98367	240
3.98733	246
3.99100	254
3.99467	264
3.99833	272

[Chromatogram (Ch2)]
Interval(msec)	220
# of Points	1091
Start Time(min)	0.002
End Time(min)	3.998
R.Time (min)	Intensity
0.00167	0
0.00533	0
0.00900	1
0.01267	1
0.01633	1
0.02000	1
0.02367	1
0.02733	1
0.03100	1
0.03467	1
0.03833	1
0.04200	1
0.04567	1
0.04933	1
0.05300	1
0.05667	0
0.06033	0
0.06400	-0
0.06767	-0
0.07133	-0
0.07500	-0
0.07867	-0
0.08233	0
0.08600	0
0.08967	1
0.09333	1
0.09700	1
0.10067	1
0.10433	2
0.10800	2
0.11167	2
0.11533	2
0.11900	2
0.12267	1
0.12633	1
0.13000	1
0.13367	1
0.13733	1
0.14100	1
0.14467	1
0.14833	1
0.15200	1
0.15567	1
0.15933	1
0.16300	1
0.16667	0
0.17033	0
0.17400	0
0.17767	-0
0.18133	-0
0.18500	-1
0.18867	-1
0.19233	-1
0.19600	-2
0.19967	-2
0.20333	-2
0.20700	-3
0.21067	-3
0.21433	-3
0.21800	-3
0.22167	-3
0.22533	-3
0.22900	-3
0.23267	-3
0.23633	-3
0.24000	-3
0.24367	-3
0.24733	-3
0.25100	-4
0.25467	-4
0.25833	-4
0.26200	-4
0.26567	-4
0.26933	-4
0.27300	-4
0.27667	-4
0.28033	-3
0.28400	-3
0.28767	-3
0.29133	-3
0.29500	-3
0.29867	-3
0.30233	-2
0.30600	-2
0.30967	-2
0.31333	-2
0.31700	-2
0.32067	-2
0.32433	-2
0.32800	-2
0.33167	-1
0.33533	-1
0.33900	-1
0.34267	-1
0.34633	-0
0.35000	-1
0.35367	-1
0.35733	-1
0.36100	-1
0.36467	-1
0.36833	-1
0.37200	-1
0.37567	-1
0.37933	-1
0.38300	-2
0.38667	-2
0.39033	-2
0.39400	-2
0.39767	-2
0.40133	-3
0.40500	-3
0.40867	-3
0.41233	-3
0.41600	-3
0.41967	-3
0.42333	-3
0.42700	-3
0.43067	-3
0.43433	-3
0.43800	-3
0.44167	-3
0.44533	-3
0.44900	-3
0.45267	-3
0.45633	-3
0.46000	-3
0.46367	-2
0.46733	-2
0.47100	-3
0.47467	-3
0.47833	-3
0.48200	-3
0.48567	-3
0.48933	-3
0.49300	-3
0.49667	-3
0.50033	-3
0.50400	-3
0.50767	-3
0.51133	-3
0.51500	-3
0.51867	-4
0.52233	-4
0.52600	-4
0.52967	-4
0.53333	-4
0.53700	-4
0.54067	-4
0.54433	-4
0.54800	-4
0.55167	-4
0.55533	-4
0.55900	-4
0.56267	-4
0.56633	-4
0.57000	-4
0.57367	-4
0.57733	-3
0.58100	-3
0.58467	-3
0.58833	-3
0.59200	-3
0.59567	-3
0.59933	-3
0.60300	-3
0.60667	-3
0.61033	-3
0.61400	-3
0.61767	-3
0.62133	-3
0.62500	-3
0.62867	-3
0.63233	-3
0.63600	-3
0.63967	-3
0.64333	-3
0.64700	-3
0.65067	-4
0.65433	-4
0.65800	-4
0.66167	-3
0.66533	-3
0.66900	-3
0.67267	-2
0.67633	-2
0.68000	-2
0.68367	-2
0.68733	-2
0.69100	-2
0.69467	-2
0.69833	-2
0.70200	-2
0.70567	-2
0.70933	-2
0.71300	-1
0.71667	-1
0.72033	-1
0.72400	-1
0.72767	-1
0.73133	-1
0.73500	-1
0.73867	-1
0.74233	-1
0.74600	-1
0.74967	-1
0.75333	-2
0.75700	-2
0.76067	-2
0.76433	-2
0.76800	-2
0.77167	-2
0.77533	-2
0.77900	-3
0.78267	-3
0.78633	-2
0.79000	-2
0.79367	-3
0.79733	-3
0.80100	-3
0.80467	-3
0.80833	-3
0.81200	-4
0.81567	-4
0.81933	-4
0.82300	-4
0.82667	-4
0.83033	-4
0.83400	-4
0.83767	-4
0.84133	-4
0.84500	-4
0.84867	-4
0.85233	-4
0.85600	-4
0.85967	-3
0.86333	-3
0.86700	-3
0.87067	-3
0.87433	-3
0.87800	-2
0.88167	-2
0.88533	-2
0.88900	-2
0.89267	-2
0.89633	-2
0.90000	-2
0.90367	-2
0.90733	-2
0.91100	-2
0.91467	-2
0.91833	-2
0.92200	-2
0.92567	-1
0.92933	-1
0.93300	-1
0.93667	-1
0.94033	-2
0.94400	-2
0.94767	-2
0.95133	-2
0.95500	-2
0.95867	-1
0.96233	-1
0.96600	-2
0.96967	-2
0.97333	-2
0.97700	-2
0.98067	-2
0.98433	-2
0.98800	-3
0.99167	-3
0.99533	-3
0.99900	-3
1.00267	-4
1.00633	-4
1.01000	-4
1.01367	-4
1.01733	-4
1.02100	-4
1.02467	-4
1.02833	-5
1.03200	-5
1.03567	-4
1.03933	-4
1.04300	-4
1.04667	-4
1.05033	-4
1.05400	-4
1.05767	-4
1.06133	-4
1.06500	-4
1.06867	-4
1.07233	-4
1.07600	-4
1.07967	-4
1.08333	-4
1.08700	-4
1.09067	-4
1.09433	-4
1.09800	-3
1.10167	-3
1.10533	-3
1.10900	-3
1.11267	-3
1.11633	-3
1.12000	-3
1.12367	-3
1.12733	-3
1.13100	-4
1.13467	-4
1.13833	-4
1.14200	-5
1.14567	-5
1.14933	-5
1.15300	-4
1.15667	-4
1.16033	-4
1.16400	-4
1.16767	-4
1.17133	-4
1.17500	-4
1.17867	-4
1.18233	-4
1.18600	-4
1.18967	-3
1.19333	-3
1.19700	-3
1.20067	-3
1.20433	-3
1.20800	-3
1.21167	-3
1.21533	-3
1.21900	-3
1.22267	-4
1.22633	-4
1.23000	-4
1.23367	-4
1.23733	-4
1.24100	-4
1.24467	-4
1.24833	-4
1.25200	-4
1.25567	-4
1.25933	-4
1.26300	-4
1.26667	-4
1.27033	-4
1.27400	-4
1.27767	-3
1.28133	-3
1.28500	-3
1.28867	-3
1.29233	-3
1.29600	-3
1.29967	-4
1.30333	-4
1.30700	-4
1.31067	-4
1.31433	-5
1.31800	-4
1.32167	-4
1.32533	-4
1.32900	-4
1.33267	-4
1.33633	-4
1.34000	-4
1.34367	-4
1.34733	-4
1.35100	-5
1.35467	-5
1.35833	-5
1.36200	-5
1.36567	-5
1.36933	-5
1.37300	-5
1.37667	-5
1.38033	-5
1.38400	-5
1.38767	-5
1.39133	-5
1.39500	-4
1.39867	-4
1.40233	-4
1.40600	-4
1.40967	-4
1.41333	-4
1.41700	-4
1.42067	-4
1.42433	-4
1.42800	-4
1.43167	-4
1.43533	-3
1.43900	-3
1.44267	-3
1.44633	-3
1.45000	-3
1.45367	-3
1.45733	-3
1.46100	-3
1.46467	-3
1.46833	-4
1.47200	-4
1.47567	-4
1.47933	-4
1.48300	-4
1.48667	-4
1.49033	-4
1.49400	-4
1.49767	-5
1.50133	-5
1.50500	-5
1.50867	-5
1.51233	-5
1.51600	-5
1.51967	-5
1.52333	-5
1.52700	-5
1.53067	-5
1.53433	-5
1.53800	-5
1.54167	-5
1.54533	-5
1.54900	-5
1.55267	-5
1.55633	-5
1.56000	-5
1.56367	-5
1.56733	-5
1.57100	-5
1.57467	-5
1.57833	-5
1.58200	-5
1.58567	-5
1.58933	-6
1.59300	-6
1.59667	-7
1.60033	-7
1.60400	-9
1.60767	-10
1.61133	-12
1.61500	-14
1.61867	-16
1.62233	-19
1.62600	-22
1.62967	-25
1.63333	-28
1.63700	-32
1.64067	-35
1.64433	-39
1.64800	-42
1.65167	-45
1.65533	-49
1.65900	-52
1.66267	-55
1.66633	-59
1.67000	-63
1.67367	-67
1.67733	-72
1.68100	-76
1.68467	-81
1.68833	-86
1.69200	-90
1.69567	-93
1.69933	-96
1.70300	-99
1.70667	-101
1.71033	-103
1.71400	-105
1.71767	-106
1.72133	-107
1.72500	-109
1.72867	-110
1.73233	-111
1.73600	-112
1.73967	-113
1.74333	-114
1.74700	-114
1.75067	-115
1.75433	-115
1.75800	-116
1.76167	-117
1.76533	-118
1.76900	-118
1.77267	-119
1.77633	-120
1.78000	-120
1.78367	-120
1.78733	-120
1.79100	-120
1.79467	-119
1.79833	-118
1.80200	-118
1.80567	-117
1.80933	-116
1.81300	-116
1.81667	-116
1.82033	-117
1.82400	-118
1.82767	-118
1.83133	-119
1.83500	-119
1.83867	-120
1.84233	-119
1.84600	-119
1.84967	-119
1.85333	-119
1.85700	-118
1.86067	-118
1.86433	-119
1.86800	-119
1.87167	-119
1.87533	-119
1.87900	-119
1.88267	-119
1.88633	-119
1.89000	-120
1.89367	-120
1.89733	-120
1.90100	-120
1.90467	-120
1.90833	-120
1.91200	-119
1.91567	-119
1.91933	-118
1.92300	-118
1.92667	-118
1.93033	-117
1.93400	-117
1.93767	-117
1.94133	-116
1.94500	-116
1.94867	-115
1.95233	-115
1.95600	-115
1.95967	-115
1.96333	-115
1.96700	-115
1.97067	-115
1.97433	-115
1.97800	-115
1.98167	-116
1.98533	-116
1.98900	-116
1.99267	-116
1.99633	-116
2.00000	-115
2.00367	-114
2.00733	-113
2.01100	-113
2.01467	-112
2.01833	-111
2.02200	-111
2.02567	-110
2.02933	-110
2.03300	-110
2.03667	-111
2.04033	-111
2.04400	-111
2.04767	-111
2.05133	-111
2.05500	-110
2.05867	-109
2.06233	-109
2.06600	-108
2.06967	-108
2.07333	-108
2.07700	-107
2.08067	-107
2.08433	-107
2.08800	-107
2.09167	-107
2.09533	-107
2.09900	-107
2.10267	-107
2.10633	-106
2.11000	-105
2.11367	-104
2.11733	-103
2.12100	-102
2.12467	-102
2.12833	-102
2.13200	-102
2.13567	-102
2.13933	-101
2.14300	-101
2.14667	-100
2.15033	-100
2.15400	-99
2.15767	-99
2.16133	-98
2.16500	-98
2.16867	-98
2.17233	-98
2.17600	-98
2.17967	-98
2.18333	-98
2.18700	-98
2.19067	-98
2.19433	-98
2.19800	-98
2.20167	-97
2.20533	-97
2.20900	-96
2.21267	-96
2.21633	-96
2.22000	-96
2.22367	-97
2.22733	-98
2.23100	-98
2.23467	-98
2.23833	-98
2.24200	-97
2.24567	-97
2.24933	-96
2.25300	-95
2.25667	-95
2.26033	-95
2.26400	-95
2.26767	-95
2.27133	-94
2.27500	-94
2.27867	-93
2.28233	-92
2.28600	-91
2.28967	-90
2.29333	-89
2.29700	-89
2.30067	-88
2.30433	-88
2.30800	-87
2.31167	-86
2.31533	-86
2.31900	-86
2.32267	-85
2.32633	-85
2.33000	-85
2.33367	-85
2.33733	-85
2.34100	-84
2.34467	-84
2.34833	-83
2.35200	-83
2.35567	-83
2.35933	-82
2.36300	-82
2.36667	-81
2.37033	-80
2.37400	-78
2.37767	-75
2.38133	-72
2.38500	-69
2.38867	-66
2.39233	-62
2.39600	-58
2.39967	-53
2.40333	-49
2.40700	-45
2.41067	-42
2.41433	-38
2.41800	-35
2.42167	-32
2.42533	-29
2.42900	-27
2.43267	-24
2.43633	-21
2.44000	-19
2.44367	-16
2.44733	-14
2.45100	-12
2.45467	-11
2.45833	-9
2.46200	-7
2.46567	-5
2.46933	-4
2.47300	-3
2.47667	-1
2.48033	0
2.48400	1
2.48767	2
2.49133	3
2.49500	4
2.49867	5
2.50233	6
2.50600	7
2.50967	8
2.51333	8
2.51700	9
2.52067	9
2.52433	10
2.52800	10
2.53167	11
2.53533	11
2.53900	12
2.54267	13
2.54633	14
2.55000	15
2.55367	16
2.55733	16
2.56100	16
2.56467	15
2.56833	15
2.57200	14
2.57567	14
2.57933	13
2.58300	13
2.58667	13
2.59033	14
2.59400	14
2.59767	15
2.60133	15
2.60500	15
2.60867	16
2.61233	16
2.61600	16
2.61967	16
2.62333	16
2.62700	16
2.63067	16
2.63433	16
2.63800	16
2.64167	17
2.64533	18
2.64900	19
2.65267	19
2.65633	20
2.66000	20
2.66367	20
2.66733	20
2.67100	20
2.67467	20
2.67833	20
2.68200	20
2.68567	20
2.68933	20
2.69300	20
2.69667	20
2.70033	20
2.70400	21
2.70767	21
2.71133	22
2.71500	22
2.71867	23
2.72233	23
2.72600	24
2.72967	24
2.73333	24
2.73700	24
2.74067	24
2.74433	23
2.74800	23
2.75167	22
2.75533	22
2.75900	22
2.76267	21
2.76633	21
2.77000	22
2.77367	22
2.77733	22
2.78100	23
2.78467	23
2.78833	23
2.79200	24
2.79567	24
2.79933	24
2.80300	24
2.80667	24
2.81033	24
2.81400	24
2.81767	24
2.82133	24
2.82500	24
2.82867	25
2.83233	25
2.83600	25
2.83967	25
2.84333	25
2.84700	25
2.85067	25
2.85433	23
2.85800	20
2.86167	16
2.86533	9
2.86900	-0
2.87267	-13
2.87633	-30
2.88000	-50
2.88367	-75
2.88733	-104
2.89100	-137
2.89467	-173
2.89833	-213
2.90200	-256
2.90567	-302
2.90933	-350
2.91300	-400
2.91667	-451
2.92033	-502
2.92400	-555
2.92767	-607
2.93133	-659
2.93500	-711
2.93867	-762
2.94233	-812
2.94600	-864
2.94967	-919
2.95333	-979
2.95700	-1038
2.96067	-1084
2.96433	-1108
2.96800	-1105
2.97167	-1078
2.97533	-1029
2.97900	-964
2.98267	-890
2.98633	-810
2.99000	-729
2.99367	-650
2.99733	-575
3.00100	-505
3.00467	-441
3.00833	-383
3.01200	-331
3.01567	-285
3.01933	-244
3.02300	-209
3.02667	-178
3.03033	-151
3.03400	-128
3.03767	-108
3.04133	-91
3.04500	-76
3.04867	-63
3.05233	-52
3.05600	-43
3.05967	-36
3.06333	-29
3.06700	-23
3.07067	-19
3.07433	-14
3.07800	-11
3.08167	-8
3.08533	-5
3.08900	-3
3.09267	-1
3.09633	1
3.10000	3
3.10367	5
3.10733	6
3.11100	7
3.11467	9
3.11833	9
3.12200	10
3.12567	11
3.12933	11
3.13300	11
3.13667	12
3.14033	12
3.14400	13
3.14767	13
3.15133	14
3.15500	14
3.15867	15
3.16233	15
3.16600	16
3.16967	16
3.17333	16
3.17700	16
3.18067	16
3.18433	16
3.18800	16
3.19167	16
3.19533	16
3.19900	16
3.20267	16
3.20633	16
3.21000	16
3.21367	17
3.21733	17
3.22100	17
3.22467	17
3.22833	17
3.23200	17
3.23567	17
3.23933	17
3.24300	17
3.24667	17
3.25033	18
3.25400	18
3.25767	18
3.26133	18
3.26500	19
3.26867	19
3.27233	19
3.27600	20
3.27967	20
3.28333	21
3.28700	21
3.29067	22
3.29433	22
3.29800	22
3.30167	23
3.30533	23
3.30900	24
3.31267	24
3.31633	24
3.32000	24
3.32367	24
3.32733	25
3.33100	25
3.33467	25
3.33833	25
3.34200	25
3.34567	25
3.34933	25
3.35300	25
3.35667	25
3.36033	25
3.36400	25
3.36767	25
3.37133	25
3.37500	25
3.37867	25
3.38233	25
3.38600	25
3.38967	25
3.39333	25
3.39700	25
3.40067	25
3.40433	25
3.40800	26
3.41167	25
3.41533	25
3.41900	25
3.42267	25
3.42633	25
3.43000	25
3.43367	25
3.43733	25
3.44100	25
3.44467	25
3.44833	25
3.45200	25
3.45567	24
3.45933	24
3.46300	24
3.46667	24
3.47033	24
3.47400	24
3.47767	24
3.48133	24
3.48500	24
3.48867	24
3.49233	24
3.49600	23
3.49967	23
3.50333	23
3.50700	23
3.51067	23
3.51433	23
3.51800	22
3.52167	22
3.52533	22
3.52900	22
3.53267	22
3.53633	22
3.54000	21
3.54367	21
3.54733	22
3.55100	22
3.55467	22
3.55833	22
3.56200	22
3.56567	23
3.56933	23
3.57300	23
3.57667	23
3.58033	23
3.58400	23
3.58767	23
3.59133	23
3.59500	23
3.59867	23
3.60233	23
3.60600	23
3.60967	23
3.61333	23
3.61700	23
3.62067	24
3.62433	24
3.62800	23
3.63167	23
3.63533	23
3.63900	23
3.64267	23
3.64633	23
3.65000	23
3.65367	23
3.65733	24
3.66100	24
3.66467	24
3.66833	23
3.67200	23
3.67567	23
3.67933	23
3.68300	23
3.68667	23
3.69033	23
3.69400	23
3.69767	23
3.70133	23
3.70500	23
3.70867	23
3.71233	24
3.71600	24
3.71967	24
3.72333	24
3.72700	24
3.73067	24
3.73433	24
3.73800	24
3.74167	24
3.74533	24
3.74900	24
3.75267	24
3.75633	24
3.76000	24
3.76367	24
3.76733	24
3.77100	24
3.77467	24
3.77833	23
3.78200	23
3.78567	23
3.78933	22
3.79300	22
3.79667	22
3.80033	22
3.80400	21
3.80767	21
3.81133	21
3.81500	21
3.81867	21
3.82233	21
3.82600	22
3.82967	22
3.83333	22
3.83700	23
3.84067	23
3.84433	23
3.84800	23
3.85167	23
3.85533	23
3.85900	23
3.86267	23
3.86633	23
3.87000	23
3.87367	23
3.87733	24
3.88100	24
3.88467	24
3.88833	24
3.89200	24
3.89567	24
3.89933	24
3.90300	24
3.90667	24
3.91033	24
3.91400	24
3.91767	24
3.92133	23
3.92500	23
3.92867	23
3.93233	22
3.93600	22
3.93967	22
3.94333	22
3.94700	22
3.95067	23
3.95433	23
3.95800	23
3.96167	23
3.96533	23
3.96900	23
3.97267	24
3.97633	24
3.98000	24
3.98367	24
3.98733	24
3.99100	24
3.99467	24
3.99833	24

[Chromatogram (Ch3)]
Interval(msec)	220
# of Points	1091
Start Time(min)	0.002
End Time(min)	3.998
R.Time (min)	Intensity
0.00167	0
0.00533	-0
0.00900	-1
0.01267	-2
0.01633	-2
0.02000	-2
0.02367	-4
0.02733	-5
0.03100	-7
0.03467	-8
0.03833	-9
0.04200	-8
0.04567	-4
0.04933	-2
0.05300	-2
0.05667	-3
0.06033	-2
0.06400	-1
0.06767	-2
0.07133	-3
0.07500	-3
0.07867	-0
0.08233	3
0.08600	5
0.08967	4
0.09333	3
0.09700	4
0.10067	5
0.10433	4
0.10800	2
0.11167	0
0.11533	-1
0.11900	-2
0.12267	-0
0.12633	1
0.13000	1
0.13367	0
0.13733	0
0.14100	2
0.14467	6
0.14833	10
0.15200	10
0.15567	9
0.15933	9
0.16300	7
0.16667	7
0.17033	8
0.17400	6
0.17767	5
0.18133	6
0.18500	6
0.18867	5
0.19233	5
0.19600	6
0.19967	5
0.20333	4
0.20700	3
0.21067	4
0.21433	5
0.21800	5
0.22167	6
0.22533	6
0.22900	5
0.23267	5
0.23633	5
0.24000	6
0.24367	6
0.24733	7
0.25100	9
0.25467	11
0.25833	11
0.26200	11
0.26567	10
0.26933	9
0.27300	9
0.27667	7
0.28033	7
0.28400	7
0.28767	8
0.29133	9
0.29500	10
0.29867	11
0.30233	10
0.30600	10
0.30967	13
0.31333	13
0.31700	14
0.32067	15
0.32433	16
0.32800	15
0.33167	17
0.33533	16
0.33900	14
0.34267	13
0.34633	14
0.35000	12
0.35367	10
0.35733	11
0.36100	12
0.36467	11
0.36833	11
0.37200	12
0.37567	12
0.37933	13
0.38300	14
0.38667	15
0.39033	14
0.39400	15
0.39767	15
0.40133	14
0.40500	11
0.40867	7
0.41233	8
0.41600	7
0.41967	10
0.42333	11
0.42700	12
0.43067	11
0.43433	11
0.43800	12
0.44167	13
0.44533	13
0.44900	13
0.45267	13
0.45633	15
0.46000	19
0.46367	22
0.46733	23
0.47100	23
0.47467	21
0.47833	20
0.48200	21
0.48567	20
0.48933	19
0.49300	17
0.49667	17
0.50033	16
0.50400	16
0.50767	16
0.51133	16
0.51500	17
0.51867	18
0.52233	17
0.52600	14
0.52967	13
0.53333	15
0.53700	16
0.54067	14
0.54433	13
0.54800	13
0.55167	12
0.55533	12
0.55900	13
0.56267	11
0.56633	10
0.57000	15
0.57367	17
0.57733	17
0.58100	16
0.58467	18
0.58833	19
0.59200	20
0.59567	21
0.59933	19
0.60300	18
0.60667	18
0.61033	17
0.61400	18
0.61767	20
0.62133	20
0.62500	18
0.62867	16
0.63233	14
0.63600	16
0.63967	17
0.64333	16
0.64700	17
0.65067	17
0.65433	16
0.65800	18
0.66167	18
0.66533	15
0.66900	14
0.67267	15
0.67633	15
0.68000	15
0.68367	16
0.68733	17
0.69100	16
0.69467	16
0.69833	15
0.70200	15
0.70567	17
0.70933	20
0.71300	19
0.71667	17
0.72033	16
0.72400	16
0.72767	17
0.73133	18
0.73500	18
0.73867	19
0.74233	19
0.74600	18
0.74967	17
0.75333	15
0.75700	15
0.76067	13
0.76433	12
0.76800	11
0.77167	11
0.77533	13
0.77900	14
0.78267	16
0.78633	18
0.79000	21
0.79367	21
0.79733	20
0.80100	20
0.80467	19
0.80833	18
0.81200	19
0.81567	19
0.81933	18
0.82300	18
0.82667	18
0.83033	17
0.83400	15
0.83767	13
0.84133	12
0.84500	12
0.84867	12
0.85233	13
0.85600	14
0.85967	17
0.86333	16
0.86700	14
0.87067	15
0.87433	18
0.87800	19
0.88167	19
0.88533	20
0.88900	21
0.89267	19
0.89633	17
0.90000	16
0.90367	16
0.90733	17
0.91100	17
0.91467	17
0.91833	19
0.92200	19
0.92567	22
0.92933	24
0.93300	23
0.93667	21
0.94033	21
0.94400	21
0.94767	23
0.95133	25
0.95500	24
0.95867	23
0.96233	20
0.96600	17
0.96967	16
0.97333	16
0.97700	16
0.98067	16
0.98433	19
0.98800	21
0.99167	22
0.99533	19
0.99900	16
1.00267	18
1.00633	21
1.01000	23
1.01367	23
1.01733	24
1.02100	23
1.02467	23
1.02833	25
1.03200	26
1.03567	27
1.03933	28
1.04300	27
1.04667	23
1.05033	20
1.05400	19
1.05767	20
1.06133	22
1.06500	18
1.06867	17
1.07233	16
1.07600	15
1.07967	15
1.08333	16
1.08700	18
1.09067	18
1.09433	17
1.09800	15
1.10167	15
1.10533	17
1.10900	15
1.11267	15
1.11633	18
1.12000	19
1.12367	18
1.12733	18
1.13100	18
1.13467	18
1.13833	18
1.14200	19
1.14567	18
1.14933	18
1.15300	17
1.15667	17
1.16033	16
1.16400	14
1.16767	13
1.17133	13
1.17500	14
1.17867	16
1.18233	17
1.18600	17
1.18967	17
1.19333	17
1.19700	16
1.20067	15
1.20433	13
1.20800	14
1.21167	17
1.21533	18
1.21900	17
1.22267	16
1.22633	17
1.23000	16
1.23367	16
1.23733	14
1.24100	13
1.24467	12
1.24833	12
1.25200	16
1.25567	17
1.25933	16
1.26300	14
1.26667	13
1.27033	11
1.27400	10
1.27767	11
1.28133	14
1.28500	15
1.28867	14
1.29233	11
1.29600	10
1.29967	10
1.30333	12
1.30700	11
1.31067	12
1.31433	13
1.31800	12
1.32167	11
1.32533	11
1.32900	11
1.33267	12
1.33633	12
1.34000	12
1.34367	12
1.34733	12
1.35100	13
1.35467	13
1.35833	10
1.36200	10
1.36567	10
1.36933	11
1.37300	13
1.37667	13
1.38033	12
1.38400	11
1.38767	12
1.39133	12
1.39500	10
1.39867	8
1.40233	9
1.40600	9
1.40967	8
1.41333	7
1.41700	6
1.42067	5
1.42433	5
1.42800	5
1.43167	6
1.43533	7
1.43900	7
1.44267	9
1.44633	9
1.45000	8
1.45367	8
1.45733	8
1.46100	9
1.46467	10
1.46833	10
1.47200	9
1.47567	8
1.47933	6
1.48300	6
1.48667	8
1.49033	9
1.49400	9
1.49767	7
1.50133	7
1.50500	7
1.50867	7
1.51233	5
1.51600	2
1.51967	-0
1.52333	1
1.52700	6
1.53067	8
1.53433	8
1.53800	6
1.54167	6
1.54533	8
1.54900	7
1.55267	4
1.55633	3
1.56000	1
1.56367	1
1.56733	4
1.57100	8
1.57467	9
1.57833	8
1.58200	9
1.58567	8
1.58933	7
1.59300	5
1.59667	3
1.60033	3
1.60400	4
1.60767	4
1.61133	4
1.61500	4
1.61867	4
1.62233	3
1.62600	4
1.62967	6
1.63333	8
1.63700	13
1.64067	16
1.64433	17
1.64800	19
1.65167	19
1.65533	16
1.65900	14
1.66267	13
1.66633	16
1.67000	19
1.67367	20
1.67733	21
1.68100	20
1.68467	20
1.68833	20
1.69200	19
1.69567	17
1.69933	17
1.70300	19
1.70667	19
1.71033	17
1.71400	19
1.71767	21
1.72133	21
1.72500	20
1.72867	20
1.73233	22
1.73600	25
1.73967	27
1.74333	26
1.74700	27
1.75067	27
1.75433	27
1.75800	25
1.76167	25
1.76533	25
1.76900	24
1.77267	23
1.77633	21
1.78000	22
1.78367	25
1.78733	27
1.79100	29
1.79467	31
1.79833	30
1.80200	27
1.80567	25
1.80933	25
1.81300	23
1.81667	23
1.82033	23
1.82400	23
1.82767	26
1.83133	27
1.83500	30
1.83867	31
1.84233	32
1.84600	32
1.84967	32
1.85333	32
1.85700	31
1.86067	30
1.86433	30
1.86800	32
1.87167	33
1.87533	35
1.87900	36
1.88267	36
1.88633	37
1.89000	40
1.89367	40
1.89733	40
1.90100	42
1.90467	41
1.90833	39
1.91200	37
1.91567	37
1.91933	38
1.92300	40
1.92667	44
1.93033	47
1.93400	45
1.93767	43
1.94133	44
1.94500	45
1.94867	46
1.95233	46
1.95600	48
1.95967	47
1.96333	47
1.96700	48
1.97067	49
1.97433	51
1.97800	51
1.98167	50
1.98533	49
1.98900	48
1.99267	51
1.99633	52
2.00000	53
2.00367	53
2.00733	54
2.01100	56
2.01467	59
2.01833	61
2.02200	61
2.02567	61
2.02933	62
2.03300	61
2.03667	60
2.04033	63
2.04400	65
2.04767	65
2.05133	66
2.05500	67
2.05867	66
2.06233	66
2.06600	66
2.06967	67
2.07333	69
2.07700	70
2.08067	71
2.08433	72
2.08800	74
2.09167	77
2.09533	78
2.09900	79
2.10267	79
2.10633	79
2.11000	80
2.11367	80
2.11733	81
2.12100	80
2.12467	78
2.12833	77
2.13200	79
2.13567	81
2.13933	84
2.14300	84
2.14667	86
2.15033	88
2.15400	89
2.15767	89
2.16133	88
2.16500	88
2.16867	87
2.17233	87
2.17600	89
2.17967	93
2.18333	95
2.18700	96
2.19067	96
2.19433	96
2.19800	95
2.20167	96
2.20533	100
2.20900	102
2.21267	103
2.21633	102
2.22000	102
2.22367	105
2.22733	108
2.23100	108
2.23467	109
2.23833	112
2.24200	112
2.24567	112
2.24933	114
2.25300	117
2.25667	119
2.26033	119
2.26400	117
2.26767	116
2.27133	117
2.27500	116
2.27867	118
2.28233	119
2.28600	119
2.28967	118
2.29333	120
2.29700	122
2.30067	124
2.30433	127
2.30800	130
2.31167	133
2.31533	132
2.31900	130
2.32267	128
2.32633	129
2.33000	129
2.33367	131
2.33733	133
2.34100	134
2.34467	135
2.34833	136
2.35200	139
2.35567	142
2.35933	146
2.36300	148
2.36667	148
2.37033	149
2.37400	146
2.37767	144
2.38133	143
2.38500	142
2.38867	142
2.39233	144
2.39600	144
2.39967	148
2.40333	153
2.40700	158
2.41067	161
2.41433	165
2.41800	168
2.42167	168
2.42533	169
2.42900	170
2.43267	171
2.43633	171
2.44000	173
2.44367	217
2.44733	330
2.45100	457
2.45467	554
2.45833	592
2.46200	588
2.46567	572
2.46933	562
2.47300	549
2.47667	521
2.48033	477
2.48400	427
2.48767	383
2.49133	350
2.49500	329
2.49867	321
2.50233	324
2.50600	335
2.50967	351
2.51333	364
2.51700	365
2.52067	354
2.52433	334
2.52800	308
2.53167	280
2.53533	255
2.53900	233
2.54267	214
2.54633	197
2.55000	186
2.55367	180
2.55733	175
2.56100	171
2.56467	169
2.56833	171
2.57200	176
2.57567	180
2.57933	187
2.58300	198
2.58667	211
2.59033	224
2.59400	237
2.59767	250
2.60133	260
2.60500	264
2.60867	262
2.61233	249
2.61600	223
2.61967	187
2.62333	146
2.62700	101
2.63067	54
2.63433	10
2.63800	-30
2.64167	-63
2.64533	-89
2.64900	-111
2.65267	-126
2.65633	-137
2.66000	-141
2.66367	-143
2.66733	-141
2.67100	-136
2.67467	-128
2.67833	-117
2.68200	-107
2.68567	-99
2.68933	-91
2.69300	-82
2.69667	-73
2.70033	-67
2.70400	-60
2.70767	-54
2.71133	-44
2.71500	-33
2.71867	-22
2.72233	-15
2.72600	-8
2.72967	1
2.73333	8
2.73700	6
2.74067	-3
2.74433	-9
2.74800	-2
2.75167	21
2.75533	45
2.75900	67
2.76267	91
2.76633	121
2.77000	165
2.77367	218
2.77733	276
2.78100	336
2.78467	395
2.78833	454
2.79200	511
2.79567	563
2.79933	610
2.80300	649
2.80667	682
2.81033	708
2.81400	727
2.81767	742
2.82133	756
2.82500	769
2.82867	787
2.83233	822
2.83600	889
2.83967	1010
2.84333	1215
2.84700	1524
2.85067	1949
2.85433	2487
2.85800	3109
2.86167	3776
2.86533	4436
2.86900	5030
2.87267	5512
2.87633	5851
2.88000	6028
2.88367	6049
2.88733	5929
2.89100	5698
2.89467	5385
2.89833	5022
2.90200	4636
2.90567	4243
2.90933	3863
2.91300	3504
2.91667	3168
2.92033	2863
2.92400	2591
2.92767	2349
2.93133	2131
2.93500	1941
2.93867	1772
2.94233	1627
2.94600	1505
2.94967	1398
2.95333	1301
2.95700	1218
2.96067	1148
2.96433	1090
2.96800	1038
2.97167	994
2.97533	959
2.97900	929
2.98267	901
2.98633	877
2.99000	857
2.99367	842
2.99733	831
3.00100	822
3.00467	814
3.00833	808
3.01200	804
3.01567	802
3.01933	799
3.02300	798
3.02667	797
3.03033	794
3.03400	792
3.03767	794
3.04133	796
3.04500	799
3.04867	801
3.05233	804
3.05600	804
3.05967	806
3.06333	809
3.06700	811
3.07067	814
3.07433	817
3.07800	820
3.08167	821
3.08533	826
3.08900	832
3.09267	837
3.09633	840
3.10000	842
3.10367	844
3.10733	844
3.11100	846
3.11467	848
3.11833	847
3.12200	845
3.12567	843
3.12933	844
3.13300	844
3.13667	843
3.14033	840
3.14400	838
3.14767	835
3.15133	832
3.15500	831
3.15867	829
3.16233	827
3.16600	824
3.16967	821
3.17333	819
3.17700	819
3.18067	817
3.18433	814
3.18800	811
3.19167	809
3.19533	805
3.19900	801
3.20267	798
3.20633	793
3.21000	790
3.21367	788
3.21733	785
3.22100	780
3.22467	776
3.22833	773
3.23200	772
3.23567	768
3.23933	763
3.24300	758
3.24667	753
3.25033	748
3.25400	742
3.25767	738
3.26133	734
3.26500	729
3.26867	723
3.27233	722
3.27600	719
3.27967	713
3.28333	709
3.28700	704
3.29067	700
3.29433	695
3.29800	690
3.30167	686
3.30533	683
3.30900	680
3.31267	675
3.31633	670
3.32000	667
3.32367	665
3.32733	663
3.33100	657
3.33467	651
3.33833	647
3.34200	642
3.34567	635
3.34933	630
3.35300	628
3.35667	625
3.36033	623
3.36400	619
3.36767	614
3.37133	611
3.37500	609
3.37867	606
3.38233	601
3.38600	595
3.38967	590
3.39333	586
3.39700	583
3.40067	578
3.40433	574
3.40800	569
3.41167	565
3.41533	561
3.41900	558
3.42267	555
3.42633	555
3.43000	554
3.43367	550
3.43733	549
3.44100	550
3.44467	547
3.44833	543
3.45200	536
3.45567	531
3.45933	528
3.46300	527
3.46667	526
3.47033	524
3.47400	520
3.47767	517
3.48133	516
3.48500	516
3.48867	515
3.49233	513
3.49600	508
3.49967	501
3.50333	496
3.50700	495
3.51067	494
3.51433	491
3.51800	489
3.52167	486
3.52533	483
3.52900	479
3.53267	475
3.53633	471
3.54000	467
3.54367	464
3.54733	459
3.55100	453
3.55467	449
3.55833	448
3.56200	447
3.56567	445
3.56933	443
3.57300	443
3.57667	444
3.58033	443
3.58400	438
3.58767	437
3.59133	436
3.59500	432
3.59867	425
3.60233	419
3.60600	413
3.60967	410
3.61333	406
3.61700	405
3.62067	404
3.62433	404
3.62800	406
3.63167	405
3.63533	405
3.63900	403
3.64267	401
3.64633	396
3.65000	392
3.65367	389
3.65733	386
3.66100	382
3.66467	378
3.66833	377
3.67200	375
3.67567	372
3.67933	369
3.68300	365
3.68667	363
3.69033	363
3.69400	363
3.69767	360
3.70133	357
3.70500	356
3.70867	353
3.71233	352
3.71600	349
3.71967	346
3.72333	344
3.72700	344
3.73067	342
3.73433	340
3.73800	338
3.74167	335
3.74533	334
3.74900	334
3.75267	332
3.75633	331
3.76000	328
3.76367	325
3.76733	322
3.77100	319
3.77467	317
3.77833	316
3.78200	315
3.78567	310
3.78933	307
3.79300	304
3.79667	301
3.80033	300
3.80400	297
3.80767	293
3.81133	286
3.81500	281
3.81867	280
3.82233	280
3.82600	278
3.82967	277
3.83333	275
3.83700	274
3.84067	274
3.84433	273
3.84800	271
3.85167	268
3.85533	266
3.85900	266
3.86267	265
3.86633	263
3.87000	260
3.87367	259
3.87733	257
3.88100	255
3.88467	254
3.88833	250
3.89200	247
3.89567	246
3.89933	245
3.90300	243
3.90667	241
3.91033	239
3.91400	237
3.91767	235
3.92133	233
3.92500	232
3.92867	231
3.93233	228
3.93600	223
3.93967	220
3.94333	220
3.94700	221
3.95067	223
3.95433	224
3.95800	221
3.96167	218
3.96533	214
3.96900	210
3.97267	207
3.97633	204
3.98000	202
3.98367	203
3.98733	202
3.99100	200
3.99467	199
3.99833	198

[Status Trace (Column Oven Temperature)]
Interval(msec)	1000
# of Points	240
Start Time(min)	0.003
End Time(min)	3.986
Intensity Units	
Intensity Multiplier	1
R.Time (min)	Intensity
0.00302	35.04
0.01968	35.03
0.03635	35.02
0.05302	35.01
0.06968	35.01
0.08635	35.01
0.10302	34.99
0.11968	34.99
0.13635	34.98
0.15302	34.98
0.16968	34.98
0.18635	34.98
0.20302	34.98
0.21968	34.99
0.23635	34.99
0.25302	35.00
0.26968	35.00
0.28635	35.00
0.30302	35.00
0.31968	34.99
0.33635	34.99
0.35302	34.98
0.36968	34.98
0.38635	34.97
0.40302	34.98
0.41968	34.98
0.43635	34.98
0.45302	34.98
0.46968	34.99
0.48635	34.98
0.50302	34.99
0.51968	34.99
0.53635	35.00
0.55302	35.00
0.56968	35.00
0.58635	35.01
0.60302	35.00
0.61968	35.00
0.63635	35.01
0.65302	35.00
0.66968	35.01
0.68635	35.01
0.70302	35.00
0.71968	34.99
0.73635	34.99
0.75302	34.98
0.76968	34.98
0.78635	34.98
0.80302	34.99
0.81968	35.00
0.83635	35.00
0.85302	35.01
0.86968	35.01
0.88635	35.00
0.90302	35.00
0.91968	35.01
0.93635	35.00
0.95302	34.99
0.96968	34.98
0.98635	34.98
1.00302	34.99
1.01968	35.00
1.03635	35.00
1.05302	34.99
1.06968	34.99
1.08635	34.99
1.10302	34.99
1.11968	35.00
1.13635	35.00
1.15302	35.00
1.16968	35.00
1.18635	35.00
1.20302	35.00
1.21968	35.00
1.23635	35.00
1.25302	35.00
1.26968	35.00
1.28635	35.00
1.30302	35.00
1.31968	35.00
1.33635	34.99
1.35302	34.99
1.36968	34.99
1.38635	34.99
1.40302	34.99
1.41968	34.99
1.43635	34.98
1.45302	34.98
1.46968	34.98
1.48635	34.99
1.50302	34.99
1.51968	35.00
1.53635	35.00
1.55302	35.00
1.56968	35.00
1.58635	35.01
1.60302	35.05
1.61968	35.17
1.63635	35.33
1.65302	35.56
1.66968	35.85
1.68635	36.20
1.70302	36.56
1.71968	36.90
1.73635	37.25
1.75302	37.58
1.76968	37.92
1.78635	38.24
1.80302	38.55
1.81968	38.89
1.83635	39.23
1.85302	39.55
1.86968	39.89
1.88635	40.22
1.90302	40.55
1.91968	40.86
1.93635	41.19
1.95302	41.52
1.96968	41.84
1.98635	42.17
2.00302	42.48
2.01968	42.79
2.03635	43.14
2.05302	43.46
2.06968	43.79
2.08635	44.13
2.10302	44.43
2.11968	44.75
2.13635	45.09
2.15302	45.40
2.16968	45.72
2.18635	46.06
2.20302	46.38
2.21968	46.76
2.23635	47.09
2.25302	47.42
2.26968	47.75
2.28635	48.08
2.30302	48.40
2.31968	48.73
2.33635	49.05
2.35302	49.36
2.36968	49.63
2.38635	49.74
2.40302	49.75
2.41968	49.76
2.43635	49.76
2.45302	49.78
2.46968	49.77
2.48635	49.78
2.50302	49.78
2.51968	49.81
2.53635	49.81
2.55302	49.80
2.56968	49.84
2.58635	49.84
2.60302	49.83
2.61968	49.85
2.63635	49.86
2.65302	49.84
2.66968	49.85
2.68635	49.87
2.70302	49.86
2.71968	49.84
2.73635	49.86
2.75302	49.89
2.76968	49.88
2.78635	49.88
2.80302	49.88
2.81968	49.88
2.83635	49.88
2.85302	49.89
2.86968	49.90
2.88635	49.91
2.90302	49.93
2.91968	49.94
2.93635	49.95
2.95302	49.95
2.96968	49.96
2.98635	49.96
3.00302	49.98
3.01968	49.99
3.03635	50.00
3.05302	50.01
3.06968	50.03
3.08635	50.04
3.10302	50.05
3.11968	50.04
3.13635	50.04
3.15302	50.05
3.16968	50.06
3.18635	50.06
3.20302	50.07
3.21968	50.08
3.23635	50.10
3.25302	50.10
3.26968	50.10
3.28635	50.10
3.30302	50.08
3.31968	50.07
3.33635	50.06
3.35302	50.05
3.36968	50.05
3.38635	50.04
3.40302	50.04
3.41968	50.04
3.43635	50.03
3.45302	50.03
3.46968	50.03
3.48635	50.03
3.50302	50.04
3.51968	50.06
3.53635	50.07
3.55302	50.07
3.56968	50.07
3.58635	50.07
3.60302	50.07
3.61968	50.07
3.63635	50.08
3.65302	50.08
3.66968	50.08
3.68635	50.08
3.70302	50.08
3.71968	50.08
3.73635	50.07
3.75302	50.06
3.76968	50.06
3.78635	50.07
3.80302	50.09
3.81968	50.09
3.83635	50.09
3.85302	50.08
3.86968	50.08
3.88635	50.07
3.90302	50.07
3.91968	50.06
3.93635	50.07
3.95302	50.07
3.96968	50.06
3.98635	50.06

[Status Trace (Injection Unit Temperature)]
Interval(msec)	1000
# of Points	240
Start Time(min)	0.003
End Time(min)	3.986
Intensity Units	
Intensity Multiplier	1
R.Time (min)	Intensity
0.00302	99.99
0.01968	99.98
0.03635	99.99
0.05302	99.99
0.06968	99.99
0.08635	99.99
0.10302	99.99
0.11968	99.99
0.13635	99.99
0.15302	99.99
0.16968	99.99
0.18635	99.99
0.20302	99.99
0.21968	99.98
0.23635	99.99
0.25302	99.99
0.26968	99.98
0.28635	99.99
0.30302	99.98
0.31968	99.98
0.33635	99.99
0.35302	99.99
0.36968	99.98
0.38635	99.98
0.40302	99.99
0.41968	99.99
0.43635	99.98
0.45302	99.98
0.46968	99.98
0.48635	99.98
0.50302	99.98
0.51968	99.98
0.53635	99.98
0.55302	99.98
0.56968	99.98
0.58635	99.98
0.60302	99.98
0.61968	99.98
0.63635	99.98
0.65302	99.98
0.66968	99.98
0.68635	99.98
0.70302	99.98
0.71968	99.98
0.73635	99.98
0.75302	99.98
0.76968	99.98
0.78635	99.97
0.80302	99.98
0.81968	99.98
0.83635	99.98
0.85302	99.98
0.86968	99.98
0.88635	99.98
0.90302	99.98
0.91968	99.98
0.93635	99.98
0.95302	99.98
0.96968	99.99
0.98635	99.99
1.00302	99.98
1.01968	99.98
1.03635	99.98
1.05302	99.98
1.06968	99.98
1.08635	99.98
1.10302	99.99
1.11968	99.98
1.13635	99.98
1.15302	99.99
1.16968	99.99
1.18635	99.99
1.20302	99.99
1.21968	99.98
1.23635	99.99
1.25302	99.99
1.26968	99.99
1.28635	99.99
1.30302	99.99
1.31968	99.99
1.33635	99.99
1.35302	99.99
1.36968	99.99
1.38635	99.98
1.40302	99.99
1.41968	99.99
1.43635	99.99
1.45302	99.99
1.46968	99.99
1.48635	99.99
1.50302	99.99
1.51968	99.99
1.53635	99.99
1.55302	99.99
1.56968	99.99
1.58635	99.99
1.60302	99.99
1.61968	99.99
1.63635	99.99
1.65302	99.99
1.66968	99.99
1.68635	99.98
1.70302	99.98
1.71968	99.99
1.73635	99.99
1.75302	99.99
1.76968	99.99
1.78635	99.99
1.80302	99.99
1.81968	99.98
1.83635	99.98
1.85302	99.99
1.86968	99.98
1.88635	99.98
1.90302	99.98
1.91968	99.98
1.93635	99.98
1.95302	99.98
1.96968	99.98
1.98635	99.97
2.00302	99.98
2.01968	99.98
2.03635	99.98
2.05302	99.97
2.06968	99.98
2.08635	99.98
2.10302	99.98
2.11968	99.97
2.13635	99.98
2.15302	99.97
2.16968	99.98
2.18635	99.97
2.20302	99.97
2.21968	99.97
2.23635	99.97
2.25302	99.97
2.26968	99.97
2.28635	99.97
2.30302	99.97
2.31968	99.96
2.33635	99.97
2.35302	99.97
2.36968	99.97
2.38635	99.97
2.40302	99.97
2.41968	99.97
2.43635	99.97
2.45302	99.97
2.46968	99.97
2.48635	99.97
2.50302	99.97
2.51968	99.97
2.53635	99.97
2.55302	99.97
2.56968	99.98
2.58635	99.97
2.60302	99.98
2.61968	99.97
2.63635	99.97
2.65302	99.98
2.66968	99.98
2.68635	99.99
2.70302	99.98
2.71968	99.98
2.73635	99.99
2.75302	99.99
2.76968	99.99
2.78635	99.99
2.80302	99.99
2.81968	100.00
2.83635	99.99
2.85302	100.01
2.86968	100.01
2.88635	100.00
2.90302	100.00
2.91968	100.01
2.93635	100.01
2.95302	100.01
2.96968	100.01
2.98635	100.01
3.00302	100.02
3.01968	100.02
3.03635	100.02
3.05302	100.02
3.06968	100.02
3.08635	100.02
3.10302	100.02
3.11968	100.02
3.13635	100.02
3.15302	100.03
3.16968	100.02
3.18635	100.02
3.20302	100.03
3.21968	100.03
3.23635	100.03
3.25302	100.03
3.26968	100.03
3.28635	100.03
3.30302	100.03
3.31968	100.04
3.33635	100.04
3.35302	100.03
3.36968	100.04
3.38635	100.04
3.40302	100.04
3.41968	100.04
3.43635	100.04
3.45302	100.04
3.46968	100.04
3.48635	100.04
3.50302	100.04
3.51968	100.04
3.53635	100.05
3.55302	100.05
3.56968	100.05
3.58635	100.05
3.60302	100.05
3.61968	100.05
3.63635	100.05
3.65302	100.04
3.66968	100.05
3.68635	100.05
3.70302	100.05
3.71968	100.05
3.73635	100.05
3.75302	100.05
3.76968	100.05
3.78635	100.05
3.80302	100.05
3.81968	100.05
3.83635	100.05
3.85302	100.05
3.86968	100.05
3.88635	100.05
3.90302	100.05
3.91968	100.05
3.93635	100.05
3.95302	100.05
3.96968	100.05
3.98635	100.05

[Status Trace (Carrier Gas Pressure)]
Interval(msec)	1000
# of Points	240
Start Time(min)	0.003
End Time(min)	3.986
Intensity Units	
Intensity Multiplier	1
R.Time (min)	Intensity
0.00302	58.00
0.01968	56.23
0.03635	56.42
0.05302	58.70
0.06968	59.85
0.08635	58.25
0.10302	57.97
0.11968	58.01
0.13635	58.01
0.15302	58.01
0.16968	58.00
0.18635	58.00
0.20302	58.00
0.21968	58.00
0.23635	58.00
0.25302	58.00
0.26968	58.00
0.28635	58.00
0.30302	58.00
0.31968	58.00
0.33635	58.00
0.35302	58.00
0.36968	58.00
0.38635	58.00
0.40302	58.00
0.41968	58.00
0.43635	58.00
0.45302	58.00
0.46968	58.00
0.48635	58.00
0.50302	58.00
0.51968	58.00
0.53635	58.00
0.55302	58.00
0.56968	58.00
0.58635	58.00
0.60302	58.00
0.61968	58.00
0.63635	58.00
0.65302	58.00
0.66968	58.00
0.68635	58.00
0.70302	58.00
0.71968	58.00
0.73635	58.00
0.75302	58.00
0.76968	58.00
0.78635	58.00
0.80302	58.00
0.81968	58.00
0.83635	58.00
0.85302	58.00
0.86968	58.00
0.88635	58.00
0.90302	58.00
0.91968	58.00
0.93635	58.00
0.95302	58.00
0.96968	58.00
0.98635	58.00
1.00302	58.00
1.01968	58.00
1.03635	58.00
1.05302	58.00
1.06968	58.00
1.08635	58.00
1.10302	58.00
1.11968	58.00
1.13635	58.00
1.15302	58.00
1.16968	58.00
1.18635	58.00
1.20302	58.00
1.21968	58.00
1.23635	58.00
1.25302	58.00
1.26968	58.00
1.28635	58.00
1.30302	58.00
1.31968	58.00
1.33635	58.00
1.35302	58.00
1.36968	58.00
1.38635	58.00
1.40302	58.00
1.41968	58.00
1.43635	58.00
1.45302	58.00
1.46968	58.00
1.48635	58.00
1.50302	58.00
1.51968	58.00
1.53635	58.00
1.55302	58.00
1.56968	58.00
1.58635	58.00
1.60302	58.00
1.61968	58.00
1.63635	58.00
1.65302	58.00
1.66968	58.01
1.68635	58.01
1.70302	58.00
1.71968	58.00
1.73635	58.00
1.75302	58.00
1.76968	58.00
1.78635	58.00
1.80302	58.00
1.81968	58.00
1.83635	58.00
1.85302	58.00
1.86968	58.00
1.88635	58.00
1.90302	58.00
1.91968	58.00
1.93635	58.00
1.95302	58.00
1.96968	58.00
1.98635	58.00
2.00302	58.00
2.01968	58.00
2.03635	58.00
2.05302	58.00
2.06968	58.00
2.08635	58.00
2.10302	58.00
2.11968	58.00
2.13635	58.00
2.15302	58.00
2.16968	58.00
2.18635	58.00
2.20302	58.00
2.21968	58.00
2.23635	58.00
2.25302	58.00
2.26968	58.00
2.28635	58.00
2.30302	58.00
2.31968	58.00
2.33635	58.00
2.35302	58.00
2.36968	58.00
2.38635	57.99
2.40302	57.99
2.41968	58.00
2.43635	58.00
2.45302	58.00
2.46968	58.00
2.48635	58.00
2.50302	57.96
2.51968	58.02
2.53635	57.99
2.55302	58.00
2.56968	58.00
2.58635	58.00
2.60302	58.00
2.61968	58.00
2.63635	58.00
2.65302	58.00
2.66968	58.00
2.68635	58.00
2.70302	58.00
2.71968	58.00
2.73635	58.00
2.75302	58.00
2.76968	58.00
2.78635	58.00
2.80302	58.00
2.81968	58.00
2.83635	58.00
2.85302	58.00
2.86968	58.00
2.88635	58.00
2.90302	58.00
2.91968	58.00
2.93635	58.00
2.95302	58.00
2.96968	58.00
2.98635	58.00
3.00302	58.00
3.01968	58.00
3.03635	58.00
3.05302	58.00
3.06968	58.00
3.08635	58.00
3.10302	58.00
3.11968	58.00
3.13635	58.00
3.15302	58.00
3.16968	58.00
3.18635	58.00
3.20302	58.00
3.21968	58.00
3.23635	58.00
3.25302	58.00
3.26968	58.00
3.28635	58.00
3.30302	58.00
3.31968	58.00
3.33635	58.00
3.35302	58.00
3.36968	58.00
3.38635	58.00
3.40302	58.00
3.41968	58.00
3.43635	58.00
3.45302	58.00
3.46968	58.00
3.48635	58.00
3.50302	58.00
3.51968	58.00
3.53635	58.00
3.55302	58.00
3.56968	58.00
3.58635	58.00
3.60302	58.00
3.61968	58.00
3.63635	58.00
3.65302	58.00
3.66968	58.00
3.68635	58.00
3.70302	58.00
3.71968	58.00
3.73635	58.00
3.75302	58.00
3.76968	58.00
3.78635	58.00
3.80302	58.00
3.81968	58.00
3.83635	58.00
3.85302	58.00
3.86968	58.00
3.88635	58.00
3.90302	58.00
3.91968	58.00
3.93635	58.00
3.95302	58.00
3.96968	58.00
3.98635	58.00

[Status Trace (Carrier Gas Flow)]
Interval(msec)	1000
# of Points	240
Start Time(min)	0.003
End Time(min)	3.986
Intensity Units	
Intensity Multiplier	1
R.Time (min)	Intensity
0.00302	34.52
0.01968	34.60
0.03635	34.55
0.05302	34.54
0.06968	34.50
0.08635	34.51
0.10302	34.52
0.11968	34.51
0.13635	34.52
0.15302	34.52
0.16968	34.52
0.18635	34.52
0.20302	34.52
0.21968	34.52
0.23635	34.52
0.25302	34.52
0.26968	34.52
0.28635	34.52
0.30302	34.53
0.31968	34.51
0.33635	34.52
0.35302	34.52
0.36968	34.52
0.38635	34.53
0.40302	34.52
0.41968	34.53
0.43635	34.52
0.45302	34.52
0.46968	34.52
0.48635	34.53
0.50302	34.51
0.51968	34.51
0.53635	34.52
0.55302	34.52
0.56968	34.52
0.58635	34.52
0.60302	34.52
0.61968	34.52
0.63635	34.52
0.65302	34.52
0.66968	34.52
0.68635	34.52
0.70302	34.52
0.71968	34.52
0.73635	34.52
0.75302	34.52
0.76968	34.52
0.78635	34.52
0.80302	34.52
0.81968	34.52
0.83635	34.52
0.85302	34.52
0.86968	34.52
0.88635	34.52
0.90302	34.52
0.91968	34.52
0.93635	34.52
0.95302	34.52
0.96968	34.52
0.98635	34.52
1.00302	34.52
1.01968	34.52
1.03635	34.52
1.05302	34.52
1.06968	34.52
1.08635	34.52
1.10302	34.52
1.11968	34.52
1.13635	34.52
1.15302	34.52
1.16968	34.52
1.18635	34.52
1.20302	34.52
1.21968	34.52
1.23635	34.52
1.25302	34.52
1.26968	34.52
1.28635	34.52
1.30302	34.52
1.31968	34.52
1.33635	34.52
1.35302	34.52
1.36968	34.52
1.38635	34.52
1.40302	34.52
1.41968	34.52
1.43635	34.52
1.45302	34.52
1.46968	34.52
1.48635	34.52
1.50302	34.52
1.51968	34.52
1.53635	34.52
1.55302	34.52
1.56968	34.52
1.58635	34.52
1.60302	34.52
1.61968	34.52
1.63635	34.52
1.65302	34.52
1.66968	34.52
1.68635	34.52
1.70302	34.52
1.71968	34.52
1.73635	34.52
1.75302	34.52
1.76968	34.52
1.78635	34.52
1.80302	34.52
1.81968	34.52
1.83635	34.52
1.85302	34.52
1.86968	34.52
1.88635	34.52
1.90302	34.52
1.91968	34.52
1.93635	34.52
1.95302	34.52
1.96968	34.52
1.98635	34.52
2.00302	34.52
2.01968	34.52
2.03635	34.52
2.05302	34.52
2.06968	34.52
2.08635	34.52
2.10302	34.52
2.11968	34.52
2.13635	34.52
2.15302	34.52
2.16968	34.52
2.18635	34.52
2.20302	34.52
2.21968	34.52
2.23635	34.52
2.25302	34.52
2.26968	34.52
2.28635	34.52
2.30302	34.52
2.31968	34.52
2.33635	34.52
2.35302	34.52
2.36968	34.52
2.38635	34.52
2.40302	34.52
2.41968	34.52
2.43635	34.52
2.45302	34.52
2.46968	34.52
2.48635	34.52
2.50302	34.70
2.51968	34.52
2.53635	34.52
2.55302	34.52
2.56968	34.52
2.58635	34.52
2.60302	34.52
2.61968	34.52
2.63635	34.52
2.65302	34.52
2.66968	34.51
2.68635	34.52
2.70302	34.52
2.71968	34.52
2.73635	34.52
2.75302	34.52
2.76968	34.52
2.78635	34.52
2.80302	34.52
2.81968	34.52
2.83635	34.52
2.85302	34.52
2.86968	34.52
2.88635	34.52
2.90302	34.52
2.91968	34.52
2.93635	34.52
2.95302	34.52
2.96968	34.52
2.98635	34.52
3.00302	34.52
3.01968	34.52
3.03635	34.52
3.05302	34.52
3.06968	34.52
3.08635	34.52
3.10302	34.52
3.11968	34.52
3.13635	34.52
3.15302	34.52
3.16968	34.52
3.18635	34.52
3.20302	34.52
3.21968	34.52
3.23635	34.52
3.25302	34.52
3.26968	34.52
3.28635	34.52
3.30302	34.52
3.31968	34.52
3.33635	34.52
3.35302	34.52
3.36968	34.52
3.38635	34.52
3.40302	34.52
3.41968	34.52
3.43635	34.52
3.45302	34.52
3.46968	34.52
3.48635	34.52
3.50302	34.52
3.51968	34.52
3.53635	34.52
3.55302	34.52
3.56968	34.52
3.58635	34.52
3.60302	34.52
3.61968	34.52
3.63635	34.52
3.65302	34.52
3.66968	34.52
3.68635	34.52
3.70302	34.52
3.71968	34.52
3.73635	34.52
3.75302	34.52
3.76968	34.52
3.78635	34.52
3.80302	34.52
3.81968	34.52
3.83635	34.52
3.85302	34.52
3.86968	34.52
3.88635	34.52
3.90302	34.52
3.91968	34.52
3.93635	34.52
3.95302	34.52
3.96968	34.52
3.98635	34.52

[Status Trace (Column Flow)]
Interval(msec)	1000
# of Points	240
Start Time(min)	0.003
End Time(min)	3.986
Intensity Units	
Intensity Multiplier	1
R.Time (min)	Intensity
0.00302	5.55
0.01968	5.34
0.03635	5.36
0.05302	5.63
0.06968	5.76
0.08635	5.58
0.10302	5.54
0.11968	5.55
0.13635	5.55
0.15302	5.55
0.16968	5.55
0.18635	5.55
0.20302	5.55
0.21968	5.55
0.23635	5.55
0.25302	5.55
0.26968	5.55
0.28635	5.55
0.30302	5.55
0.31968	5.55
0.33635	5.55
0.35302	5.55
0.36968	5.55
0.38635	5.55
0.40302	5.55
0.41968	5.55
0.43635	5.55
0.45302	5.55
0.46968	5.55
0.48635	5.55
0.50302	5.55
0.51968	5.55
0.53635	5.55
0.55302	5.55
0.56968	5.55
0.58635	5.55
0.60302	5.55
0.61968	5.55
0.63635	5.55
0.65302	5.55
0.66968	5.55
0.68635	5.55
0.70302	5.55
0.71968	5.55
0.73635	5.55
0.75302	5.55
0.76968	5.55
0.78635	5.55
0.80302	5.55
0.81968	5.55
0.83635	5.55
0.85302	5.55
0.86968	5.55
0.88635	5.55
0.90302	5.55
0.91968	5.55
0.93635	5.55
0.95302	5.55
0.96968	5.55
0.98635	5.55
1.00302	5.55
1.01968	5.55
1.03635	5.55
1.05302	5.55
1.06968	5.55
1.08635	5.55
1.10302	5.55
1.11968	5.55
1.13635	5.55
1.15302	5.55
1.16968	5.55
1.18635	5.55
1.20302	5.55
1.21968	5.55
1.23635	5.55
1.25302	5.55
1.26968	5.55
1.28635	5.55
1.30302	5.55
1.31968	5.55
1.33635	5.55
1.35302	5.55
1.36968	5.55
1.38635	5.55
1.40302	5.55
1.41968	5.55
1.43635	5.55
1.45302	5.55
1.46968	5.55
1.48635	5.55
1.50302	5.55
1.51968	5.55
1.53635	5.55
1.55302	5.55
1.56968	5.55
1.58635	5.55
1.60302	5.54
1.61968	5.54
1.63635	5.54
1.65302	5.53
1.66968	5.52
1.68635	5.51
1.70302	5.50
1.71968	5.49
1.73635	5.48
1.75302	5.47
1.76968	5.46
1.78635	5.44
1.80302	5.44
1.81968	5.43
1.83635	5.41
1.85302	5.40
1.86968	5.39
1.88635	5.38
1.90302	5.37
1.91968	5.37
1.93635	5.36
1.95302	5.35
1.96968	5.34
1.98635	5.33
2.00302	5.32
2.01968	5.31
2.03635	5.30
2.05302	5.29
2.06968	5.28
2.08635	5.27
2.10302	5.26
2.11968	5.25
2.13635	5.24
2.15302	5.23
2.16968	5.22
2.18635	5.21
2.20302	5.20
2.21968	5.19
2.23635	5.18
2.25302	5.17
2.26968	5.16
2.28635	5.16
2.30302	5.15
2.31968	5.14
2.33635	5.13
2.35302	5.12
2.36968	5.11
2.38635	5.11
2.40302	5.11
2.41968	5.11
2.43635	5.11
2.45302	5.11
2.46968	5.11
2.48635	5.11
2.50302	5.10
2.51968	5.11
2.53635	5.11
2.55302	5.11
2.56968	5.11
2.58635	5.11
2.60302	5.11
2.61968	5.11
2.63635	5.11
2.65302	5.11
2.66968	5.11
2.68635	5.11
2.70302	5.10
2.71968	5.11
2.73635	5.11
2.75302	5.10
2.76968	5.10
2.78635	5.10
2.80302	5.10
2.81968	5.10
2.83635	5.10
2.85302	5.10
2.86968	5.10
2.88635	5.10
2.90302	5.10
2.91968	5.10
2.93635	5.10
2.95302	5.10
2.96968	5.10
2.98635	5.10
3.00302	5.10
3.01968	5.10
3.03635	5.10
3.05302	5.10
3.06968	5.10
3.08635	5.10
3.10302	5.10
3.11968	5.10
3.13635	5.10
3.15302	5.10
3.16968	5.10
3.18635	5.10
3.20302	5.10
3.21968	5.10
3.23635	5.10
3.25302	5.10
3.26968	5.10
3.28635	5.10
3.30302	5.10
3.31968	5.10
3.33635	5.10
3.35302	5.10
3.36968	5.10
3.38635	5.10
3.40302	5.10
3.41968	5.10
3.43635	5.10
3.45302	5.10
3.46968	5.10
3.48635	5.10
3.50302	5.10
3.51968	5.10
3.53635	5.10
3.55302	5.10
3.56968	5.10
3.58635	5.10
3.60302	5.10
3.61968	5.10
3.63635	5.10
3.65302	5.10
3.66968	5.10
3.68635	5.10
3.70302	5.10
3.71968	5.10
3.73635	5.10
3.75302	5.10
3.76968	5.10
3.78635	5.10
3.80302	5.10
3.81968	5.10
3.83635	5.10
3.85302	5.10
3.86968	5.10
3.88635	5.10
3.90302	5.10
3.91968	5.10
3.93635	5.10
3.95302	5.10
3.96968	5.10
3.98635	5.10

[Status Trace (Linear Velocity)]
Interval(msec)	1000
# of Points	240
Start Time(min)	0.003
End Time(min)	3.986
Intensity Units	
Intensity Multiplier	1
R.Time (min)	Intensity
0.00302	39.02
0.01968	37.86
0.03635	37.98
0.05302	39.48
0.06968	40.23
0.08635	39.18
0.10302	39.00
0.11968	39.03
0.13635	39.03
0.15302	39.03
0.16968	39.03
0.18635	39.03
0.20302	39.03
0.21968	39.02
0.23635	39.02
0.25302	39.02
0.26968	39.02
0.28635	39.02
0.30302	39.02
0.31968	39.02
0.33635	39.02
0.35302	39.02
0.36968	39.02
0.38635	39.03
0.40302	39.03
0.41968	39.02
0.43635	39.02
0.45302	39.02
0.46968	39.02
0.48635	39.02
0.50302	39.02
0.51968	39.02
0.53635	39.02
0.55302	39.02
0.56968	39.02
0.58635	39.02
0.60302	39.02
0.61968	39.02
0.63635	39.02
0.65302	39.02
0.66968	39.02
0.68635	39.02
0.70302	39.02
0.71968	39.02
0.73635	39.02
0.75302	39.02
0.76968	39.02
0.78635	39.02
0.80302	39.02
0.81968	39.02
0.83635	39.02
0.85302	39.02
0.86968	39.02
0.88635	39.02
0.90302	39.02
0.91968	39.02
0.93635	39.02
0.95302	39.02
0.96968	39.02
0.98635	39.02
1.00302	39.02
1.01968	39.02
1.03635	39.02
1.05302	39.02
1.06968	39.02
1.08635	39.02
1.10302	39.02
1.11968	39.02
1.13635	39.02
1.15302	39.02
1.16968	39.02
1.18635	39.02
1.20302	39.02
1.21968	39.02
1.23635	39.02
1.25302	39.02
1.26968	39.02
1.28635	39.02
1.30302	39.02
1.31968	39.02
1.33635	39.02
1.35302	39.02
1.36968	39.02
1.38635	39.02
1.40302	39.02
1.41968	39.02
1.43635	39.02
1.45302	39.02
1.46968	39.02
1.48635	39.02
1.50302	39.02
1.51968	39.02
1.53635	39.02
1.55302	39.02
1.56968	39.02
1.58635	39.02
1.60302	39.02
1.61968	39.01
1.63635	38.99
1.65302	38.97
1.66968	38.94
1.68635	38.91
1.70302	38.87
1.71968	38.84
1.73635	38.81
1.75302	38.78
1.76968	38.74
1.78635	38.71
1.80302	38.68
1.81968	38.65
1.83635	38.62
1.85302	38.59
1.86968	38.56
1.88635	38.53
1.90302	38.50
1.91968	38.47
1.93635	38.44
1.95302	38.41
1.96968	38.38
1.98635	38.35
2.00302	38.32
2.01968	38.29
2.03635	38.26
2.05302	38.23
2.06968	38.20
2.08635	38.17
2.10302	38.14
2.11968	38.11
2.13635	38.08
2.15302	38.05
2.16968	38.02
2.18635	37.99
2.20302	37.96
2.21968	37.93
2.23635	37.90
2.25302	37.87
2.26968	37.84
2.28635	37.81
2.30302	37.78
2.31968	37.75
2.33635	37.72
2.35302	37.69
2.36968	37.67
2.38635	37.66
2.40302	37.66
2.41968	37.66
2.43635	37.66
2.45302	37.66
2.46968	37.66
2.48635	37.66
2.50302	37.63
2.51968	37.67
2.53635	37.65
2.55302	37.66
2.56968	37.65
2.58635	37.65
2.60302	37.65
2.61968	37.65
2.63635	37.65
2.65302	37.65
2.66968	37.65
2.68635	37.65
2.70302	37.65
2.71968	37.65
2.73635	37.65
2.75302	37.65
2.76968	37.65
2.78635	37.65
2.80302	37.65
2.81968	37.65
2.83635	37.65
2.85302	37.65
2.86968	37.65
2.88635	37.65
2.90302	37.64
2.91968	37.64
2.93635	37.64
2.95302	37.64
2.96968	37.64
2.98635	37.64
3.00302	37.64
3.01968	37.64
3.03635	37.64
3.05302	37.64
3.06968	37.64
3.08635	37.63
3.10302	37.63
3.11968	37.63
3.13635	37.63
3.15302	37.63
3.16968	37.63
3.18635	37.63
3.20302	37.63
3.21968	37.63
3.23635	37.63
3.25302	37.63
3.26968	37.63
3.28635	37.63
3.30302	37.63
3.31968	37.63
3.33635	37.63
3.35302	37.63
3.36968	37.63
3.38635	37.64
3.40302	37.63
3.41968	37.63
3.43635	37.64
3.45302	37.64
3.46968	37.64
3.48635	37.64
3.50302	37.63
3.51968	37.63
3.53635	37.63
3.55302	37.63
3.56968	37.63
3.58635	37.63
3.60302	37.63
3.61968	37.63
3.63635	37.63
3.65302	37.63
3.66968	37.63
3.68635	37.63
3.70302	37.63
3.71968	37.63
3.73635	37.63
3.75302	37.63
3.76968	37.63
3.78635	37.63
3.80302	37.63
3.81968	37.63
3.83635	37.63
3.85302	37.63
3.86968	37.63
3.88635	37.63
3.90302	37.63
3.91968	37.63
3.93635	37.63
3.95302	37.63
3.96968	37.63
3.98635	37.63

