[Header]
Application Name	LabSolutions
Version	5.110
Data File Name	C:\Users\User\Desktop\GC Analyses\Jack\UIC Prairie Sampling\11.2.22\221102_062.gcd
Output Date	3/20/2023
Output Time	1:25:39 PM

[File Information]
Type	Data File
Generated	1/3/2023 10:47:17 AM
Generated by	System Administrator
Modified	1/3/2023 10:51:45 AM
Modified by	System Administrator

[Sample Information]
Operator Name	System Administrator
Acquired	1/3/2023 10:47:43 AM
Sample Type	1:Standard
Level	1
Sample Name	221102_UICPrairie
Sample ID	221102_UICPrairie
ISTD Amount1	1
ISTD Amount2	1
ISTD Amount3	1
ISTD Amount4	1
ISTD Amount5	1
ISTD Amount6	1
ISTD Amount7	1
ISTD Amount8	1
ISTD Amount9	1
ISTD Amount10	1
ISTD Amount11	1
ISTD Amount12	1
ISTD Amount13	1
ISTD Amount14	1
ISTD Amount15	1
ISTD Amount16	1
ISTD Amount17	1
ISTD Amount18	1
ISTD Amount19	1
ISTD Amount20	1
ISTD Amount21	1
ISTD Amount22	1
ISTD Amount23	1
ISTD Amount24	1
ISTD Amount25	1
ISTD Amount26	1
ISTD Amount27	1
ISTD Amount28	1
ISTD Amount29	1
ISTD Amount30	1
ISTD Amount31	1
ISTD Amount32	1
Sample Amount	1
Dilution Factor	1
Vial#	1
Injection Volume	1
Injection Count	1
Bar Code	

[Original Files]
Data File	C:\Users\User\Desktop\GC Analyses\Jack\UIC Prairie Sampling\11.2.22\221102_062.gcd
Method File	C:\LabSolutions\Data\GHG_4min_2022\ghg3_togas_w_acet_4 min_new_int.gcm
Batch File	
Report Format File	c:\LabSolutions\System\DEFAULT.lsr

[File Description]


[Configuration]
Instrument Name	C0B7VH3-Instrument1
Instrument #	1
Line #	1
# of Detectors	3
Detector ID	DET#1	DET#2	DET#3
Detector Name	FID	PTCD	ECD
# of Channels	1	1	1

[Peak Table(Ch1)]
# of Peaks	3
Peak#	R.Time	I.Time	F.Time	Area	Height	A/H	Conc.	Mark	ID#	Name	k'	Plate #	Plate Ht.	Tailing	Resolution	Sep.Factor	Area Ratio	Height Ratio	Conc. %	Norm Conc.
1	1.465	1.439	1.534	5085	1844	2.758	100.000	   	1	CO	0.000	6524	22.992	0.000	0.000	0.000	0	0	16.667	16.667
2	1.571	1.534	1.655	20083	10040	2.000	100.000	 V 	2	CH4	0.073	11545	12.992	1.140	1.623	0.000	0	0	16.667	16.667
3	2.000	1.949	2.664	2052071	961579	2.134	400.000	   	3	CO2	0.365	17447	8.598	1.206	7.207	5.034	0	0	66.667	66.667

[Peak Table(Ch2)]
# of Peaks	0

[Peak Table(Ch3)]
# of Peaks	5
Peak#	R.Time	I.Time	F.Time	Area	Height	A/H	Conc.	Mark	ID#	Name	k'	Plate #	Plate Ht.	Tailing	Resolution	Sep.Factor	Area Ratio	Height Ratio	Conc. %	Norm Conc.
1	2.458	2.297	2.502	1789	371	4.815	0.000	   			0.000	8745	17.152	0.000	0.000	0.000	0	0	0.000	0.000
2	2.517	2.502	2.561	646	212	3.053	0.000	 V 			0.024	1957	76.634	0.000	0.353	0.000	0	0	0.000	0.000
3	2.609	2.561	2.653	839	233	3.605	0.000	 V 			0.061	5382	27.870	0.000	0.496	2.563	0	0	0.000	0.000
4	2.884	2.671	3.602	64366	15767	4.082	1.000	S  	1	N2O	0.173	12974	11.562	1.605	2.259	2.829	0	0	50.000	50.000
5	3.280	3.170	3.503	370	34	11.036	1.000	T  	2	SF6	0.334	1954	76.779	1.531	1.990	1.931	0	0	50.000	50.000

[Compound Results(Ch1)]
# of IDs	6
ID#	Name	R.Time	Area	Height	Conc.	Curve	3rd	2nd	1st	Constant	Area Ratio	Height Ratio	Conc. %	Norm Conc.
1	CO	1.465	5085	1844	100.000	Linear	0.000000e+00	0.000000e+00	5.084763e+001	0.000000e+00	0	0	16.667	16.667
2	CH4	1.571	20083	10040	100.000	Linear	0.000000e+00	0.000000e+00	2.008293e+002	0.000000e+00	0	0	16.667	16.667
3	CO2	2.000	2052071	961579	400.000	Linear	0.000000e+00	0.000000e+00	5.130179e+003	0.000000e+00	0	0	66.667	66.667
4	Ethylene	0.000	0	0	0.000	Linear	0.000000e+00	0.000000e+00	0.000000e+00	0.000000e+00	0	0	0.000	0.000
5	Acetylene	0.000	0	0	0.000	Linear	0.000000e+00	0.000000e+00	0.000000e+00	0.000000e+00	0	0	0.000	0.000
6	Ethane	0.000	0	0	0.000	Linear	0.000000e+00	0.000000e+00	0.000000e+00	0.000000e+00	0	0	0.000	0.000

[Compound Results(Ch2)]
# of IDs	5
ID#	Name	R.Time	Area	Height	Conc.	Curve	3rd	2nd	1st	Constant	Area Ratio	Height Ratio	Conc. %	Norm Conc.
1	Hydrogen	0.000	0	0	0.000	Linear	0.000000e+00	0.000000e+00	0.000000e+00	0.000000e+00	0	0	0.000	0.000
2	Oxygen	0.000	0	0	0.000	Linear	0.000000e+00	0.000000e+00	0.000000e+00	0.000000e+00	0	0	0.000	0.000
3	Nitrogen	0.000	0	0	0.000	Linear	0.000000e+00	0.000000e+00	0.000000e+00	0.000000e+00	0	0	0.000	0.000
4	Methane	0.000	0	0	0.000	Linear	0.000000e+00	0.000000e+00	0.000000e+00	0.000000e+00	0	0	0.000	0.000
5	Carbon Monoxide	0.000	0	0	0.000	Linear	0.000000e+00	0.000000e+00	0.000000e+00	0.000000e+00	0	0	0.000	0.000

[Compound Results(Ch3)]
# of IDs	2
ID#	Name	R.Time	Area	Height	Conc.	Curve	3rd	2nd	1st	Constant	Area Ratio	Height Ratio	Conc. %	Norm Conc.
1	N2O	2.884	64366	15767	1.000	Linear	0.000000e+00	0.000000e+00	6.436642e+004	0.000000e+00	0	0	50.000	50.000
2	SF6	3.280	370	34	1.000	Linear	0.000000e+00	0.000000e+00	3.697387e+002	0.000000e+00	0	0	50.000	50.000

[Group Results(Ch1)]
# of Groups	0

[Group Results(Ch2)]
# of Groups	0

[Group Results(Ch3)]
# of Groups	0

[Chromatogram (Ch1)]
Interval(msec)	220
# of Points	1091
Start Time(min)	0.002
End Time(min)	3.998
R.Time (min)	Intensity
0.00167	-10
0.00533	-13
0.00900	-16
0.01267	-18
0.01633	-17
0.02000	-13
0.02367	-4
0.02733	7
0.03100	14
0.03467	16
0.03833	17
0.04200	17
0.04567	11
0.04933	-3
0.05300	-22
0.05667	-39
0.06033	-49
0.06400	-53
0.06767	-50
0.07133	-44
0.07500	-38
0.07867	-33
0.08233	-28
0.08600	-23
0.08967	-19
0.09333	-13
0.09700	-8
0.10067	-4
0.10433	-2
0.10800	0
0.11167	0
0.11533	-1
0.11900	-3
0.12267	-4
0.12633	-4
0.13000	-3
0.13367	-4
0.13733	-10
0.14100	-18
0.14467	-22
0.14833	-21
0.15200	-15
0.15567	-6
0.15933	-1
0.16300	-4
0.16667	-12
0.17033	-22
0.17400	-28
0.17767	-31
0.18133	-29
0.18500	-23
0.18867	-21
0.19233	-22
0.19600	-27
0.19967	-32
0.20333	-36
0.20700	-38
0.21067	-40
0.21433	-40
0.21800	-35
0.22167	-26
0.22533	-17
0.22900	-8
0.23267	-3
0.23633	-1
0.24000	-1
0.24367	-5
0.24733	-11
0.25100	-17
0.25467	-21
0.25833	-23
0.26200	-22
0.26567	-20
0.26933	-18
0.27300	-14
0.27667	-10
0.28033	-7
0.28400	-5
0.28767	-6
0.29133	-10
0.29500	-17
0.29867	-22
0.30233	-24
0.30600	-24
0.30967	-22
0.31333	-17
0.31700	-6
0.32067	9
0.32433	19
0.32800	15
0.33167	6
0.33533	-6
0.33900	-18
0.34267	-26
0.34633	-29
0.35000	-30
0.35367	-29
0.35733	-26
0.36100	-24
0.36467	-24
0.36833	-24
0.37200	-21
0.37567	-17
0.37933	-12
0.38300	-8
0.38667	-7
0.39033	-5
0.39400	-5
0.39767	-6
0.40133	-7
0.40500	-9
0.40867	-11
0.41233	-10
0.41600	-8
0.41967	-6
0.42333	-6
0.42700	-6
0.43067	-4
0.43433	-0
0.43800	3
0.44167	-1
0.44533	-5
0.44900	-8
0.45267	-9
0.45633	-10
0.46000	-9
0.46367	-9
0.46733	-13
0.47100	-20
0.47467	-28
0.47833	-35
0.48200	-39
0.48567	-40
0.48933	-37
0.49300	-29
0.49667	-19
0.50033	-9
0.50400	-6
0.50767	-8
0.51133	-14
0.51500	-21
0.51867	-29
0.52233	-34
0.52600	-36
0.52967	-35
0.53333	-33
0.53700	-29
0.54067	-24
0.54433	-18
0.54800	-14
0.55167	-10
0.55533	-10
0.55900	-15
0.56267	-23
0.56633	-28
0.57000	-31
0.57367	-30
0.57733	-24
0.58100	-20
0.58467	-20
0.58833	-22
0.59200	-25
0.59567	-26
0.59933	-25
0.60300	-22
0.60667	-26
0.61033	-31
0.61400	-35
0.61767	-33
0.62133	-30
0.62500	-28
0.62867	-25
0.63233	-20
0.63600	-16
0.63967	-16
0.64333	-20
0.64700	-26
0.65067	-30
0.65433	-27
0.65800	-20
0.66167	-13
0.66533	-10
0.66900	-9
0.67267	-10
0.67633	-16
0.68000	-26
0.68367	-34
0.68733	-37
0.69100	-35
0.69467	-31
0.69833	-27
0.70200	-19
0.70567	-12
0.70933	-10
0.71300	-12
0.71667	-17
0.72033	-21
0.72400	-23
0.72767	-23
0.73133	-22
0.73500	-22
0.73867	-23
0.74233	-24
0.74600	-27
0.74967	-32
0.75333	-34
0.75700	-35
0.76067	-35
0.76433	-38
0.76800	-42
0.77167	-46
0.77533	-48
0.77900	-47
0.78267	-47
0.78633	-44
0.79000	-39
0.79367	-32
0.79733	-28
0.80100	-28
0.80467	-30
0.80833	-31
0.81200	-29
0.81567	-23
0.81933	-15
0.82300	-8
0.82667	-7
0.83033	-8
0.83400	-11
0.83767	-15
0.84133	-18
0.84500	-16
0.84867	-10
0.85233	-5
0.85600	-8
0.85967	-15
0.86333	-20
0.86700	-25
0.87067	-27
0.87433	-27
0.87800	-26
0.88167	-28
0.88533	-31
0.88900	-29
0.89267	-24
0.89633	-16
0.90000	-7
0.90367	-3
0.90733	-3
0.91100	-6
0.91467	-12
0.91833	-20
0.92200	-29
0.92567	-39
0.92933	-51
0.93300	-63
0.93667	-73
0.94033	-80
0.94400	-78
0.94767	-69
0.95133	-59
0.95500	-56
0.95867	-58
0.96233	-60
0.96600	-61
0.96967	-61
0.97333	-58
0.97700	-54
0.98067	-49
0.98433	-41
0.98800	-31
0.99167	-27
0.99533	-27
0.99900	-29
1.00267	-30
1.00633	-32
1.01000	-36
1.01367	-38
1.01733	-38
1.02100	-34
1.02467	-26
1.02833	-21
1.03200	-16
1.03567	-14
1.03933	-13
1.04300	-16
1.04667	-21
1.05033	-29
1.05400	-34
1.05767	-35
1.06133	-32
1.06500	-28
1.06867	-23
1.07233	-18
1.07600	-18
1.07967	-23
1.08333	-28
1.08700	-28
1.09067	-23
1.09433	-17
1.09800	-13
1.10167	-15
1.10533	-20
1.10900	-22
1.11267	-22
1.11633	-18
1.12000	-11
1.12367	-8
1.12733	-9
1.13100	-12
1.13467	-15
1.13833	-19
1.14200	-24
1.14567	-30
1.14933	-35
1.15300	-40
1.15667	-45
1.16033	-47
1.16400	-46
1.16767	-42
1.17133	-35
1.17500	-32
1.17867	-34
1.18233	-38
1.18600	-40
1.18967	-37
1.19333	-31
1.19700	-27
1.20067	-23
1.20433	-20
1.20800	-20
1.21167	-26
1.21533	-33
1.21900	-39
1.22267	-37
1.22633	-31
1.23000	-25
1.23367	-21
1.23733	-19
1.24100	-17
1.24467	-18
1.24833	-24
1.25200	-30
1.25567	-35
1.25933	-35
1.26300	-34
1.26667	-33
1.27033	-33
1.27400	-33
1.27767	-36
1.28133	-40
1.28500	-44
1.28867	-48
1.29233	-50
1.29600	-49
1.29967	-42
1.30333	-33
1.30700	-25
1.31067	-21
1.31433	-21
1.31800	-23
1.32167	-27
1.32533	-31
1.32900	-33
1.33267	-34
1.33633	-36
1.34000	-39
1.34367	-44
1.34733	-48
1.35100	-50
1.35467	-48
1.35833	-41
1.36200	-35
1.36567	-32
1.36933	-29
1.37300	-29
1.37667	-33
1.38033	-37
1.38400	-40
1.38767	-40
1.39133	-39
1.39500	-38
1.39867	-35
1.40233	-30
1.40600	-28
1.40967	-29
1.41333	-31
1.41700	-34
1.42067	-36
1.42433	-39
1.42800	-43
1.43167	-47
1.43533	-49
1.43900	-28
1.44267	113
1.44633	487
1.45000	987
1.45367	1410
1.45733	1677
1.46100	1797
1.46467	1817
1.46833	1779
1.47200	1716
1.47567	1635
1.47933	1526
1.48300	1382
1.48667	1204
1.49033	1012
1.49400	825
1.49767	661
1.50133	523
1.50500	413
1.50867	328
1.51233	265
1.51600	220
1.51967	187
1.52333	161
1.52700	138
1.53067	117
1.53433	102
1.53800	133
1.54167	354
1.54533	1041
1.54900	2400
1.55267	4280
1.55633	6263
1.56000	7984
1.56367	9259
1.56733	9980
1.57100	10015
1.57467	9290
1.57833	7941
1.58200	6298
1.58567	4698
1.58933	3347
1.59300	2312
1.59667	1566
1.60033	1051
1.60400	705
1.60767	479
1.61133	334
1.61500	235
1.61867	163
1.62233	112
1.62600	79
1.62967	57
1.63333	38
1.63700	23
1.64067	11
1.64433	5
1.64800	-3
1.65167	-13
1.65533	-23
1.65900	-28
1.66267	-29
1.66633	-32
1.67000	-36
1.67367	-37
1.67733	-32
1.68100	-26
1.68467	-21
1.68833	-18
1.69200	-17
1.69567	-16
1.69933	-17
1.70300	-22
1.70667	-22
1.71033	-21
1.71400	-18
1.71767	-10
1.72133	-4
1.72500	-4
1.72867	-6
1.73233	-7
1.73600	-5
1.73967	-2
1.74333	1
1.74700	3
1.75067	0
1.75433	-4
1.75800	-8
1.76167	-10
1.76533	-9
1.76900	-5
1.77267	-2
1.77633	-1
1.78000	-1
1.78367	0
1.78733	3
1.79100	7
1.79467	9
1.79833	12
1.80200	15
1.80567	17
1.80933	18
1.81300	19
1.81667	22
1.82033	24
1.82400	25
1.82767	23
1.83133	21
1.83500	18
1.83867	14
1.84233	12
1.84600	12
1.84967	13
1.85333	12
1.85700	17
1.86067	26
1.86433	33
1.86800	39
1.87167	42
1.87533	39
1.87900	33
1.88267	25
1.88633	18
1.89000	11
1.89367	7
1.89733	5
1.90100	7
1.90467	12
1.90833	17
1.91200	19
1.91567	20
1.91933	22
1.92300	26
1.92667	30
1.93033	35
1.93400	39
1.93767	39
1.94133	37
1.94500	37
1.94867	42
1.95233	61
1.95600	150
1.95967	674
1.96333	3305
1.96700	13471
1.97067	43361
1.97433	111096
1.97800	230150
1.98167	395113
1.98533	580812
1.98900	754085
1.99267	886404
1.99633	958390
2.00000	961666
2.00367	899555
2.00733	787445
2.01100	648553
2.01467	506616
2.01833	379263
2.02200	275274
2.02567	195964
2.02933	138318
2.03300	97757
2.03667	69789
2.04033	50705
2.04400	37714
2.04767	28831
2.05133	22689
2.05500	18368
2.05867	15263
2.06233	12980
2.06600	11261
2.06967	9932
2.07333	8881
2.07700	8029
2.08067	7326
2.08433	6734
2.08800	6230
2.09167	5795
2.09533	5419
2.09900	5085
2.10267	4786
2.10633	4520
2.11000	4283
2.11367	4067
2.11733	3870
2.12100	3692
2.12467	3531
2.12833	3386
2.13200	3251
2.13567	3124
2.13933	3004
2.14300	2892
2.14667	2790
2.15033	2698
2.15400	2613
2.15767	2532
2.16133	2450
2.16500	2369
2.16867	2295
2.17233	2229
2.17600	2170
2.17967	2112
2.18333	2054
2.18700	1999
2.19067	1943
2.19433	1890
2.19800	1840
2.20167	1794
2.20533	1753
2.20900	1716
2.21267	1685
2.21633	1656
2.22000	1625
2.22367	1594
2.22733	1561
2.23100	1528
2.23467	1496
2.23833	1467
2.24200	1436
2.24567	1407
2.24933	1382
2.25300	1356
2.25667	1331
2.26033	1309
2.26400	1292
2.26767	1276
2.27133	1261
2.27500	1245
2.27867	1229
2.28233	1211
2.28600	1193
2.28967	1178
2.29333	1164
2.29700	1148
2.30067	1131
2.30433	1113
2.30800	1096
2.31167	1082
2.31533	1069
2.31900	1059
2.32267	1050
2.32633	1042
2.33000	1033
2.33367	1024
2.33733	1012
2.34100	1001
2.34467	991
2.34833	981
2.35200	971
2.35567	959
2.35933	946
2.36300	938
2.36667	933
2.37033	929
2.37400	923
2.37767	918
2.38133	911
2.38500	904
2.38867	898
2.39233	890
2.39600	884
2.39967	880
2.40333	877
2.40700	870
2.41067	862
2.41433	856
2.41800	853
2.42167	850
2.42533	846
2.42900	840
2.43267	833
2.43633	827
2.44000	822
2.44367	818
2.44733	814
2.45100	806
2.45467	795
2.45833	785
2.46200	779
2.46567	777
2.46933	776
2.47300	774
2.47667	770
2.48033	766
2.48400	762
2.48767	760
2.49133	758
2.49500	757
2.49867	756
2.50233	757
2.50600	758
2.50967	759
2.51333	756
2.51700	754
2.52067	753
2.52433	752
2.52800	752
2.53167	749
2.53533	744
2.53900	741
2.54267	741
2.54633	738
2.55000	732
2.55367	726
2.55733	721
2.56100	718
2.56467	716
2.56833	717
2.57200	717
2.57567	715
2.57933	712
2.58300	709
2.58667	707
2.59033	711
2.59400	719
2.59767	723
2.60133	721
2.60500	715
2.60867	705
2.61233	694
2.61600	687
2.61967	685
2.62333	689
2.62700	693
2.63067	692
2.63433	688
2.63800	683
2.64167	678
2.64533	677
2.64900	676
2.65267	675
2.65633	672
2.66000	668
2.66367	663
2.66733	658
2.67100	654
2.67467	649
2.67833	648
2.68200	651
2.68567	657
2.68933	666
2.69300	675
2.69667	681
2.70033	683
2.70400	682
2.70767	684
2.71133	685
2.71500	684
2.71867	680
2.72233	676
2.72600	673
2.72967	671
2.73333	667
2.73700	665
2.74067	667
2.74433	671
2.74800	677
2.75167	680
2.75533	677
2.75900	671
2.76267	668
2.76633	666
2.77000	666
2.77367	669
2.77733	673
2.78100	674
2.78467	672
2.78833	668
2.79200	664
2.79567	662
2.79933	662
2.80300	661
2.80667	661
2.81033	661
2.81400	660
2.81767	659
2.82133	657
2.82500	654
2.82867	654
2.83233	659
2.83600	664
2.83967	669
2.84333	674
2.84700	678
2.85067	680
2.85433	683
2.85800	684
2.86167	682
2.86533	680
2.86900	676
2.87267	673
2.87633	671
2.88000	666
2.88367	657
2.88733	648
2.89100	643
2.89467	641
2.89833	640
2.90200	641
2.90567	645
2.90933	651
2.91300	658
2.91667	662
2.92033	662
2.92400	664
2.92767	666
2.93133	663
2.93500	658
2.93867	655
2.94233	652
2.94600	648
2.94967	642
2.95333	638
2.95700	635
2.96067	635
2.96433	635
2.96800	638
2.97167	642
2.97533	645
2.97900	649
2.98267	654
2.98633	661
2.99000	670
2.99367	677
2.99733	683
3.00100	688
3.00467	693
3.00833	696
3.01200	697
3.01567	693
3.01933	684
3.02300	675
3.02667	668
3.03033	665
3.03400	661
3.03767	656
3.04133	653
3.04500	652
3.04867	652
3.05233	652
3.05600	652
3.05967	653
3.06333	650
3.06700	645
3.07067	645
3.07433	651
3.07800	658
3.08167	660
3.08533	659
3.08900	655
3.09267	648
3.09633	641
3.10000	636
3.10367	632
3.10733	628
3.11100	624
3.11467	623
3.11833	626
3.12200	628
3.12567	632
3.12933	634
3.13300	636
3.13667	639
3.14033	641
3.14400	644
3.14767	651
3.15133	658
3.15500	661
3.15867	659
3.16233	652
3.16600	645
3.16967	639
3.17333	636
3.17700	636
3.18067	637
3.18433	640
3.18800	643
3.19167	643
3.19533	641
3.19900	639
3.20267	640
3.20633	643
3.21000	647
3.21367	650
3.21733	650
3.22100	644
3.22467	637
3.22833	633
3.23200	630
3.23567	629
3.23933	629
3.24300	628
3.24667	626
3.25033	622
3.25400	621
3.25767	622
3.26133	624
3.26500	627
3.26867	627
3.27233	622
3.27600	617
3.27967	614
3.28333	612
3.28700	613
3.29067	614
3.29433	616
3.29800	618
3.30167	616
3.30533	615
3.30900	617
3.31267	623
3.31633	631
3.32000	634
3.32367	632
3.32733	627
3.33100	621
3.33467	618
3.33833	617
3.34200	618
3.34567	619
3.34933	622
3.35300	624
3.35667	627
3.36033	631
3.36400	638
3.36767	641
3.37133	640
3.37500	635
3.37867	628
3.38233	622
3.38600	616
3.38967	614
3.39333	614
3.39700	617
3.40067	621
3.40433	623
3.40800	620
3.41167	613
3.41533	605
3.41900	596
3.42267	591
3.42633	589
3.43000	591
3.43367	593
3.43733	596
3.44100	599
3.44467	602
3.44833	606
3.45200	609
3.45567	612
3.45933	613
3.46300	613
3.46667	611
3.47033	608
3.47400	605
3.47767	603
3.48133	601
3.48500	597
3.48867	593
3.49233	592
3.49600	592
3.49967	591
3.50333	591
3.50700	594
3.51067	594
3.51433	593
3.51800	593
3.52167	594
3.52533	595
3.52900	597
3.53267	597
3.53633	594
3.54000	592
3.54367	593
3.54733	594
3.55100	594
3.55467	592
3.55833	588
3.56200	586
3.56567	585
3.56933	588
3.57300	594
3.57667	599
3.58033	604
3.58400	608
3.58767	610
3.59133	614
3.59500	615
3.59867	608
3.60233	598
3.60600	585
3.60967	571
3.61333	562
3.61700	558
3.62067	563
3.62433	570
3.62800	579
3.63167	584
3.63533	583
3.63900	578
3.64267	573
3.64633	572
3.65000	577
3.65367	583
3.65733	584
3.66100	584
3.66467	583
3.66833	580
3.67200	576
3.67567	573
3.67933	569
3.68300	567
3.68667	567
3.69033	568
3.69400	568
3.69767	564
3.70133	560
3.70500	559
3.70867	561
3.71233	566
3.71600	570
3.71967	572
3.72333	575
3.72700	576
3.73067	577
3.73433	575
3.73800	570
3.74167	566
3.74533	564
3.74900	564
3.75267	562
3.75633	561
3.76000	560
3.76367	557
3.76733	551
3.77100	546
3.77467	543
3.77833	541
3.78200	544
3.78567	548
3.78933	553
3.79300	557
3.79667	563
3.80033	567
3.80400	569
3.80767	568
3.81133	567
3.81500	567
3.81867	566
3.82233	564
3.82600	562
3.82967	564
3.83333	567
3.83700	569
3.84067	571
3.84433	570
3.84800	567
3.85167	566
3.85533	566
3.85900	564
3.86267	562
3.86633	562
3.87000	562
3.87367	562
3.87733	561
3.88100	557
3.88467	552
3.88833	549
3.89200	549
3.89567	552
3.89933	556
3.90300	560
3.90667	562
3.91033	563
3.91400	565
3.91767	566
3.92133	565
3.92500	560
3.92867	556
3.93233	551
3.93600	547
3.93967	544
3.94333	545
3.94700	547
3.95067	546
3.95433	545
3.95800	543
3.96167	546
3.96533	550
3.96900	552
3.97267	553
3.97633	550
3.98000	549
3.98367	548
3.98733	543
3.99100	538
3.99467	535
3.99833	534

[Chromatogram (Ch2)]
Interval(msec)	220
# of Points	1091
Start Time(min)	0.002
End Time(min)	3.998
R.Time (min)	Intensity
0.00167	0
0.00533	0
0.00900	0
0.01267	0
0.01633	0
0.02000	0
0.02367	-0
0.02733	-0
0.03100	-0
0.03467	-1
0.03833	-1
0.04200	-1
0.04567	-1
0.04933	-1
0.05300	-1
0.05667	-1
0.06033	-1
0.06400	-1
0.06767	-1
0.07133	-1
0.07500	-1
0.07867	-1
0.08233	-0
0.08600	-0
0.08967	0
0.09333	1
0.09700	1
0.10067	2
0.10433	2
0.10800	2
0.11167	2
0.11533	2
0.11900	2
0.12267	2
0.12633	2
0.13000	2
0.13367	2
0.13733	2
0.14100	2
0.14467	2
0.14833	2
0.15200	2
0.15567	2
0.15933	2
0.16300	2
0.16667	2
0.17033	2
0.17400	2
0.17767	2
0.18133	2
0.18500	2
0.18867	2
0.19233	3
0.19600	3
0.19967	3
0.20333	3
0.20700	3
0.21067	3
0.21433	3
0.21800	2
0.22167	2
0.22533	3
0.22900	3
0.23267	3
0.23633	3
0.24000	2
0.24367	2
0.24733	2
0.25100	2
0.25467	2
0.25833	2
0.26200	2
0.26567	2
0.26933	2
0.27300	2
0.27667	2
0.28033	2
0.28400	2
0.28767	2
0.29133	2
0.29500	2
0.29867	2
0.30233	2
0.30600	2
0.30967	2
0.31333	2
0.31700	2
0.32067	2
0.32433	2
0.32800	3
0.33167	3
0.33533	2
0.33900	2
0.34267	2
0.34633	2
0.35000	2
0.35367	2
0.35733	2
0.36100	2
0.36467	2
0.36833	1
0.37200	1
0.37567	1
0.37933	1
0.38300	2
0.38667	2
0.39033	2
0.39400	2
0.39767	2
0.40133	2
0.40500	2
0.40867	1
0.41233	1
0.41600	1
0.41967	1
0.42333	1
0.42700	1
0.43067	1
0.43433	1
0.43800	1
0.44167	1
0.44533	1
0.44900	1
0.45267	1
0.45633	1
0.46000	1
0.46367	0
0.46733	0
0.47100	0
0.47467	1
0.47833	1
0.48200	1
0.48567	1
0.48933	1
0.49300	1
0.49667	1
0.50033	1
0.50400	1
0.50767	1
0.51133	1
0.51500	1
0.51867	1
0.52233	1
0.52600	1
0.52967	1
0.53333	1
0.53700	0
0.54067	0
0.54433	0
0.54800	0
0.55167	0
0.55533	0
0.55900	0
0.56267	0
0.56633	1
0.57000	1
0.57367	1
0.57733	1
0.58100	1
0.58467	1
0.58833	0
0.59200	0
0.59567	0
0.59933	0
0.60300	-0
0.60667	-0
0.61033	0
0.61400	0
0.61767	0
0.62133	1
0.62500	1
0.62867	1
0.63233	1
0.63600	1
0.63967	0
0.64333	0
0.64700	0
0.65067	1
0.65433	1
0.65800	1
0.66167	1
0.66533	1
0.66900	1
0.67267	1
0.67633	0
0.68000	0
0.68367	0
0.68733	-0
0.69100	-0
0.69467	-0
0.69833	-0
0.70200	-0
0.70567	-0
0.70933	-0
0.71300	-0
0.71667	-0
0.72033	0
0.72400	1
0.72767	1
0.73133	1
0.73500	1
0.73867	1
0.74233	1
0.74600	1
0.74967	1
0.75333	1
0.75700	1
0.76067	1
0.76433	1
0.76800	1
0.77167	1
0.77533	1
0.77900	1
0.78267	1
0.78633	1
0.79000	1
0.79367	1
0.79733	1
0.80100	1
0.80467	1
0.80833	1
0.81200	1
0.81567	1
0.81933	0
0.82300	0
0.82667	0
0.83033	0
0.83400	0
0.83767	1
0.84133	1
0.84500	1
0.84867	1
0.85233	1
0.85600	1
0.85967	1
0.86333	1
0.86700	1
0.87067	1
0.87433	1
0.87800	1
0.88167	1
0.88533	1
0.88900	1
0.89267	1
0.89633	0
0.90000	0
0.90367	0
0.90733	0
0.91100	0
0.91467	0
0.91833	0
0.92200	0
0.92567	0
0.92933	0
0.93300	1
0.93667	1
0.94033	1
0.94400	1
0.94767	1
0.95133	1
0.95500	1
0.95867	1
0.96233	1
0.96600	2
0.96967	2
0.97333	2
0.97700	2
0.98067	2
0.98433	2
0.98800	2
0.99167	2
0.99533	1
0.99900	1
1.00267	1
1.00633	1
1.01000	0
1.01367	0
1.01733	-0
1.02100	-0
1.02467	-0
1.02833	-0
1.03200	-0
1.03567	-1
1.03933	-1
1.04300	-1
1.04667	-1
1.05033	-1
1.05400	-1
1.05767	-1
1.06133	-1
1.06500	-1
1.06867	-1
1.07233	-1
1.07600	-1
1.07967	-0
1.08333	-0
1.08700	-0
1.09067	-0
1.09433	0
1.09800	0
1.10167	0
1.10533	0
1.10900	0
1.11267	0
1.11633	0
1.12000	0
1.12367	0
1.12733	0
1.13100	0
1.13467	0
1.13833	0
1.14200	0
1.14567	-0
1.14933	-0
1.15300	-0
1.15667	-0
1.16033	-0
1.16400	0
1.16767	0
1.17133	1
1.17500	1
1.17867	1
1.18233	1
1.18600	1
1.18967	1
1.19333	1
1.19700	1
1.20067	1
1.20433	2
1.20800	2
1.21167	2
1.21533	2
1.21900	2
1.22267	2
1.22633	2
1.23000	2
1.23367	2
1.23733	2
1.24100	2
1.24467	2
1.24833	2
1.25200	2
1.25567	2
1.25933	2
1.26300	2
1.26667	2
1.27033	2
1.27400	2
1.27767	2
1.28133	2
1.28500	2
1.28867	2
1.29233	2
1.29600	2
1.29967	2
1.30333	2
1.30700	2
1.31067	1
1.31433	1
1.31800	1
1.32167	1
1.32533	1
1.32900	1
1.33267	1
1.33633	1
1.34000	1
1.34367	1
1.34733	1
1.35100	1
1.35467	1
1.35833	1
1.36200	1
1.36567	1
1.36933	1
1.37300	1
1.37667	1
1.38033	1
1.38400	1
1.38767	1
1.39133	1
1.39500	0
1.39867	0
1.40233	0
1.40600	0
1.40967	-0
1.41333	0
1.41700	0
1.42067	0
1.42433	0
1.42800	1
1.43167	1
1.43533	1
1.43900	1
1.44267	1
1.44633	1
1.45000	1
1.45367	1
1.45733	1
1.46100	0
1.46467	0
1.46833	0
1.47200	0
1.47567	1
1.47933	1
1.48300	1
1.48667	1
1.49033	1
1.49400	1
1.49767	1
1.50133	1
1.50500	1
1.50867	1
1.51233	1
1.51600	2
1.51967	2
1.52333	2
1.52700	2
1.53067	2
1.53433	2
1.53800	2
1.54167	2
1.54533	2
1.54900	2
1.55267	2
1.55633	2
1.56000	2
1.56367	2
1.56733	2
1.57100	2
1.57467	2
1.57833	2
1.58200	2
1.58567	2
1.58933	1
1.59300	1
1.59667	1
1.60033	-0
1.60400	-1
1.60767	-3
1.61133	-4
1.61500	-6
1.61867	-8
1.62233	-10
1.62600	-13
1.62967	-15
1.63333	-18
1.63700	-21
1.64067	-24
1.64433	-28
1.64800	-31
1.65167	-35
1.65533	-38
1.65900	-42
1.66267	-46
1.66633	-50
1.67000	-55
1.67367	-59
1.67733	-64
1.68100	-69
1.68467	-73
1.68833	-78
1.69200	-82
1.69567	-86
1.69933	-89
1.70300	-93
1.70667	-95
1.71033	-98
1.71400	-100
1.71767	-101
1.72133	-102
1.72500	-103
1.72867	-104
1.73233	-104
1.73600	-104
1.73967	-104
1.74333	-104
1.74700	-104
1.75067	-104
1.75433	-105
1.75800	-106
1.76167	-107
1.76533	-108
1.76900	-108
1.77267	-109
1.77633	-109
1.78000	-109
1.78367	-109
1.78733	-109
1.79100	-109
1.79467	-109
1.79833	-109
1.80200	-110
1.80567	-111
1.80933	-111
1.81300	-112
1.81667	-112
1.82033	-112
1.82400	-112
1.82767	-111
1.83133	-112
1.83500	-112
1.83867	-112
1.84233	-112
1.84600	-112
1.84967	-112
1.85333	-112
1.85700	-111
1.86067	-110
1.86433	-110
1.86800	-109
1.87167	-109
1.87533	-109
1.87900	-109
1.88267	-109
1.88633	-110
1.89000	-110
1.89367	-110
1.89733	-109
1.90100	-109
1.90467	-109
1.90833	-110
1.91200	-110
1.91567	-110
1.91933	-110
1.92300	-110
1.92667	-109
1.93033	-109
1.93400	-108
1.93767	-108
1.94133	-108
1.94500	-107
1.94867	-107
1.95233	-106
1.95600	-106
1.95967	-106
1.96333	-106
1.96700	-106
1.97067	-106
1.97433	-106
1.97800	-106
1.98167	-106
1.98533	-106
1.98900	-106
1.99267	-106
1.99633	-106
2.00000	-106
2.00367	-106
2.00733	-106
2.01100	-106
2.01467	-105
2.01833	-104
2.02200	-103
2.02567	-102
2.02933	-101
2.03300	-100
2.03667	-100
2.04033	-99
2.04400	-99
2.04767	-98
2.05133	-98
2.05500	-98
2.05867	-98
2.06233	-98
2.06600	-97
2.06967	-96
2.07333	-96
2.07700	-95
2.08067	-95
2.08433	-95
2.08800	-96
2.09167	-96
2.09533	-96
2.09900	-97
2.10267	-97
2.10633	-97
2.11000	-97
2.11367	-97
2.11733	-96
2.12100	-95
2.12467	-95
2.12833	-95
2.13200	-94
2.13567	-94
2.13933	-93
2.14300	-92
2.14667	-92
2.15033	-91
2.15400	-91
2.15767	-91
2.16133	-90
2.16500	-90
2.16867	-89
2.17233	-89
2.17600	-88
2.17967	-88
2.18333	-87
2.18700	-87
2.19067	-87
2.19433	-87
2.19800	-87
2.20167	-86
2.20533	-86
2.20900	-86
2.21267	-86
2.21633	-86
2.22000	-86
2.22367	-86
2.22733	-86
2.23100	-86
2.23467	-86
2.23833	-85
2.24200	-84
2.24567	-83
2.24933	-82
2.25300	-81
2.25667	-80
2.26033	-79
2.26400	-79
2.26767	-80
2.27133	-80
2.27500	-81
2.27867	-82
2.28233	-82
2.28600	-83
2.28967	-82
2.29333	-81
2.29700	-80
2.30067	-79
2.30433	-78
2.30800	-77
2.31167	-76
2.31533	-76
2.31900	-76
2.32267	-76
2.32633	-75
2.33000	-75
2.33367	-74
2.33733	-73
2.34100	-72
2.34467	-71
2.34833	-71
2.35200	-71
2.35567	-71
2.35933	-71
2.36300	-70
2.36667	-69
2.37033	-68
2.37400	-66
2.37767	-63
2.38133	-60
2.38500	-57
2.38867	-53
2.39233	-49
2.39600	-45
2.39967	-42
2.40333	-38
2.40700	-34
2.41067	-31
2.41433	-27
2.41800	-24
2.42167	-21
2.42533	-19
2.42900	-17
2.43267	-15
2.43633	-13
2.44000	-11
2.44367	-9
2.44733	-7
2.45100	-5
2.45467	-3
2.45833	-1
2.46200	0
2.46567	2
2.46933	4
2.47300	5
2.47667	6
2.48033	7
2.48400	8
2.48767	9
2.49133	10
2.49500	11
2.49867	12
2.50233	13
2.50600	13
2.50967	14
2.51333	14
2.51700	15
2.52067	16
2.52433	17
2.52800	19
2.53167	20
2.53533	20
2.53900	20
2.54267	20
2.54633	19
2.55000	19
2.55367	19
2.55733	19
2.56100	19
2.56467	20
2.56833	20
2.57200	20
2.57567	21
2.57933	21
2.58300	22
2.58667	23
2.59033	23
2.59400	24
2.59767	25
2.60133	26
2.60500	26
2.60867	26
2.61233	26
2.61600	26
2.61967	26
2.62333	26
2.62700	26
2.63067	26
2.63433	27
2.63800	27
2.64167	27
2.64533	27
2.64900	28
2.65267	28
2.65633	28
2.66000	28
2.66367	28
2.66733	28
2.67100	28
2.67467	28
2.67833	29
2.68200	29
2.68567	30
2.68933	30
2.69300	30
2.69667	30
2.70033	29
2.70400	29
2.70767	29
2.71133	28
2.71500	28
2.71867	28
2.72233	28
2.72600	28
2.72967	29
2.73333	29
2.73700	29
2.74067	30
2.74433	30
2.74800	31
2.75167	31
2.75533	31
2.75900	31
2.76267	31
2.76633	32
2.77000	32
2.77367	32
2.77733	32
2.78100	32
2.78467	31
2.78833	31
2.79200	30
2.79567	30
2.79933	29
2.80300	28
2.80667	28
2.81033	28
2.81400	27
2.81767	27
2.82133	27
2.82500	27
2.82867	28
2.83233	28
2.83600	28
2.83967	28
2.84333	28
2.84700	28
2.85067	27
2.85433	24
2.85800	19
2.86167	11
2.86533	-0
2.86900	-16
2.87267	-36
2.87633	-60
2.88000	-90
2.88367	-125
2.88733	-165
2.89100	-211
2.89467	-261
2.89833	-316
2.90200	-375
2.90567	-439
2.90933	-505
2.91300	-575
2.91667	-648
2.92033	-723
2.92400	-800
2.92767	-880
2.93133	-962
2.93500	-1046
2.93867	-1131
2.94233	-1218
2.94600	-1306
2.94967	-1389
2.95333	-1456
2.95700	-1495
2.96067	-1500
2.96433	-1470
2.96800	-1410
2.97167	-1326
2.97533	-1228
2.97900	-1121
2.98267	-1012
2.98633	-904
2.99000	-801
2.99367	-705
2.99733	-616
3.00100	-536
3.00467	-464
3.00833	-400
3.01200	-343
3.01567	-294
3.01933	-251
3.02300	-213
3.02667	-180
3.03033	-152
3.03400	-128
3.03767	-107
3.04133	-90
3.04500	-75
3.04867	-62
3.05233	-51
3.05600	-42
3.05967	-34
3.06333	-27
3.06700	-21
3.07067	-15
3.07433	-11
3.07800	-7
3.08167	-4
3.08533	-1
3.08900	1
3.09267	3
3.09633	5
3.10000	7
3.10367	8
3.10733	9
3.11100	10
3.11467	11
3.11833	12
3.12200	13
3.12567	14
3.12933	14
3.13300	14
3.13667	15
3.14033	15
3.14400	15
3.14767	16
3.15133	16
3.15500	17
3.15867	17
3.16233	18
3.16600	18
3.16967	19
3.17333	19
3.17700	20
3.18067	20
3.18433	21
3.18800	21
3.19167	21
3.19533	21
3.19900	21
3.20267	22
3.20633	22
3.21000	22
3.21367	23
3.21733	23
3.22100	23
3.22467	24
3.22833	24
3.23200	24
3.23567	25
3.23933	25
3.24300	25
3.24667	25
3.25033	25
3.25400	26
3.25767	26
3.26133	26
3.26500	26
3.26867	26
3.27233	26
3.27600	27
3.27967	27
3.28333	27
3.28700	27
3.29067	27
3.29433	27
3.29800	27
3.30167	27
3.30533	28
3.30900	28
3.31267	28
3.31633	28
3.32000	28
3.32367	28
3.32733	29
3.33100	29
3.33467	29
3.33833	29
3.34200	29
3.34567	30
3.34933	30
3.35300	31
3.35667	31
3.36033	31
3.36400	31
3.36767	31
3.37133	31
3.37500	31
3.37867	31
3.38233	31
3.38600	30
3.38967	30
3.39333	30
3.39700	30
3.40067	30
3.40433	30
3.40800	30
3.41167	30
3.41533	30
3.41900	31
3.42267	31
3.42633	31
3.43000	31
3.43367	31
3.43733	31
3.44100	32
3.44467	32
3.44833	32
3.45200	32
3.45567	31
3.45933	31
3.46300	32
3.46667	32
3.47033	32
3.47400	32
3.47767	32
3.48133	31
3.48500	31
3.48867	31
3.49233	31
3.49600	31
3.49967	31
3.50333	31
3.50700	31
3.51067	31
3.51433	31
3.51800	31
3.52167	31
3.52533	31
3.52900	31
3.53267	31
3.53633	31
3.54000	31
3.54367	31
3.54733	31
3.55100	31
3.55467	31
3.55833	31
3.56200	31
3.56567	31
3.56933	31
3.57300	31
3.57667	31
3.58033	31
3.58400	31
3.58767	31
3.59133	31
3.59500	30
3.59867	30
3.60233	30
3.60600	30
3.60967	30
3.61333	30
3.61700	31
3.62067	31
3.62433	31
3.62800	31
3.63167	31
3.63533	31
3.63900	31
3.64267	31
3.64633	31
3.65000	31
3.65367	31
3.65733	31
3.66100	31
3.66467	31
3.66833	31
3.67200	30
3.67567	30
3.67933	30
3.68300	30
3.68667	30
3.69033	30
3.69400	30
3.69767	30
3.70133	30
3.70500	30
3.70867	30
3.71233	30
3.71600	30
3.71967	30
3.72333	30
3.72700	30
3.73067	31
3.73433	31
3.73800	31
3.74167	31
3.74533	31
3.74900	31
3.75267	31
3.75633	31
3.76000	31
3.76367	31
3.76733	31
3.77100	32
3.77467	32
3.77833	32
3.78200	31
3.78567	31
3.78933	31
3.79300	31
3.79667	31
3.80033	31
3.80400	31
3.80767	31
3.81133	31
3.81500	31
3.81867	32
3.82233	31
3.82600	31
3.82967	31
3.83333	31
3.83700	31
3.84067	32
3.84433	32
3.84800	32
3.85167	32
3.85533	32
3.85900	32
3.86267	31
3.86633	31
3.87000	31
3.87367	31
3.87733	31
3.88100	31
3.88467	31
3.88833	31
3.89200	31
3.89567	31
3.89933	31
3.90300	31
3.90667	31
3.91033	31
3.91400	30
3.91767	30
3.92133	30
3.92500	30
3.92867	30
3.93233	31
3.93600	31
3.93967	31
3.94333	31
3.94700	32
3.95067	32
3.95433	32
3.95800	32
3.96167	32
3.96533	33
3.96900	33
3.97267	33
3.97633	33
3.98000	33
3.98367	33
3.98733	33
3.99100	33
3.99467	33
3.99833	33

[Chromatogram (Ch3)]
Interval(msec)	220
# of Points	1091
Start Time(min)	0.002
End Time(min)	3.998
R.Time (min)	Intensity
0.00167	-1
0.00533	-3
0.00900	-0
0.01267	1
0.01633	-2
0.02000	-3
0.02367	-5
0.02733	-7
0.03100	-6
0.03467	-4
0.03833	-4
0.04200	-4
0.04567	-6
0.04933	-7
0.05300	-8
0.05667	-9
0.06033	-7
0.06400	-3
0.06767	-0
0.07133	-0
0.07500	-2
0.07867	-3
0.08233	-1
0.08600	-0
0.08967	-1
0.09333	-0
0.09700	2
0.10067	5
0.10433	4
0.10800	3
0.11167	4
0.11533	3
0.11900	5
0.12267	7
0.12633	5
0.13000	1
0.13367	-2
0.13733	-2
0.14100	-5
0.14467	-4
0.14833	-4
0.15200	-6
0.15567	-6
0.15933	-5
0.16300	-4
0.16667	-4
0.17033	-2
0.17400	1
0.17767	1
0.18133	-1
0.18500	-3
0.18867	-4
0.19233	-6
0.19600	-8
0.19967	-7
0.20333	-9
0.20700	-12
0.21067	-12
0.21433	-11
0.21800	-9
0.22167	-9
0.22533	-11
0.22900	-13
0.23267	-13
0.23633	-14
0.24000	-12
0.24367	-10
0.24733	-8
0.25100	-4
0.25467	-1
0.25833	-0
0.26200	-1
0.26567	-2
0.26933	-4
0.27300	-3
0.27667	-2
0.28033	-2
0.28400	-2
0.28767	-3
0.29133	-3
0.29500	-4
0.29867	-5
0.30233	-4
0.30600	-5
0.30967	-5
0.31333	-5
0.31700	-4
0.32067	-6
0.32433	-8
0.32800	-10
0.33167	-8
0.33533	-7
0.33900	-5
0.34267	-3
0.34633	-4
0.35000	-6
0.35367	-7
0.35733	-9
0.36100	-11
0.36467	-12
0.36833	-10
0.37200	-9
0.37567	-9
0.37933	-9
0.38300	-9
0.38667	-8
0.39033	-7
0.39400	-8
0.39767	-6
0.40133	-4
0.40500	-3
0.40867	-3
0.41233	-2
0.41600	-0
0.41967	0
0.42333	0
0.42700	0
0.43067	0
0.43433	-3
0.43800	-4
0.44167	-5
0.44533	-7
0.44900	-9
0.45267	-10
0.45633	-11
0.46000	-11
0.46367	-12
0.46733	-13
0.47100	-12
0.47467	-12
0.47833	-11
0.48200	-8
0.48567	-6
0.48933	-5
0.49300	-6
0.49667	-5
0.50033	-3
0.50400	-0
0.50767	-4
0.51133	-5
0.51500	-5
0.51867	-5
0.52233	-7
0.52600	-8
0.52967	-7
0.53333	-4
0.53700	-1
0.54067	1
0.54433	-1
0.54800	-3
0.55167	-6
0.55533	-6
0.55900	-7
0.56267	-8
0.56633	-8
0.57000	-10
0.57367	-10
0.57733	-10
0.58100	-12
0.58467	-12
0.58833	-9
0.59200	-7
0.59567	-6
0.59933	-9
0.60300	-9
0.60667	-7
0.61033	-6
0.61400	-7
0.61767	-8
0.62133	-9
0.62500	-8
0.62867	-7
0.63233	-7
0.63600	-10
0.63967	-13
0.64333	-14
0.64700	-14
0.65067	-14
0.65433	-13
0.65800	-10
0.66167	-9
0.66533	-8
0.66900	-8
0.67267	-8
0.67633	-8
0.68000	-8
0.68367	-7
0.68733	-5
0.69100	-4
0.69467	-3
0.69833	-2
0.70200	-4
0.70567	-7
0.70933	-10
0.71300	-12
0.71667	-14
0.72033	-14
0.72400	-14
0.72767	-15
0.73133	-16
0.73500	-15
0.73867	-16
0.74233	-16
0.74600	-14
0.74967	-11
0.75333	-8
0.75700	-6
0.76067	-5
0.76433	-7
0.76800	-10
0.77167	-11
0.77533	-11
0.77900	-9
0.78267	-8
0.78633	-9
0.79000	-10
0.79367	-10
0.79733	-9
0.80100	-8
0.80467	-10
0.80833	-10
0.81200	-12
0.81567	-14
0.81933	-14
0.82300	-14
0.82667	-13
0.83033	-12
0.83400	-10
0.83767	-9
0.84133	-8
0.84500	-9
0.84867	-10
0.85233	-9
0.85600	-6
0.85967	-5
0.86333	-7
0.86700	-8
0.87067	-8
0.87433	-8
0.87800	-8
0.88167	-10
0.88533	-10
0.88900	-8
0.89267	-9
0.89633	-9
0.90000	-8
0.90367	-10
0.90733	-10
0.91100	-12
0.91467	-10
0.91833	-7
0.92200	-6
0.92567	-8
0.92933	-12
0.93300	-15
0.93667	-13
0.94033	-11
0.94400	-10
0.94767	-12
0.95133	-14
0.95500	-14
0.95867	-12
0.96233	-9
0.96600	-10
0.96967	-8
0.97333	-7
0.97700	-10
0.98067	-14
0.98433	-15
0.98800	-12
0.99167	-9
0.99533	-8
0.99900	-8
1.00267	-8
1.00633	-9
1.01000	-9
1.01367	-10
1.01733	-11
1.02100	-12
1.02467	-14
1.02833	-13
1.03200	-11
1.03567	-10
1.03933	-10
1.04300	-11
1.04667	-11
1.05033	-11
1.05400	-11
1.05767	-11
1.06133	-12
1.06500	-12
1.06867	-12
1.07233	-12
1.07600	-14
1.07967	-14
1.08333	-16
1.08700	-20
1.09067	-20
1.09433	-17
1.09800	-16
1.10167	-16
1.10533	-16
1.10900	-12
1.11267	-12
1.11633	-13
1.12000	-15
1.12367	-14
1.12733	-14
1.13100	-14
1.13467	-14
1.13833	-15
1.14200	-15
1.14567	-12
1.14933	-11
1.15300	-11
1.15667	-12
1.16033	-14
1.16400	-16
1.16767	-14
1.17133	-14
1.17500	-13
1.17867	-14
1.18233	-12
1.18600	-10
1.18967	-6
1.19333	-4
1.19700	-3
1.20067	-3
1.20433	-4
1.20800	-8
1.21167	-10
1.21533	-12
1.21900	-16
1.22267	-16
1.22633	-14
1.23000	-13
1.23367	-15
1.23733	-17
1.24100	-17
1.24467	-19
1.24833	-18
1.25200	-15
1.25567	-12
1.25933	-13
1.26300	-16
1.26667	-17
1.27033	-17
1.27400	-13
1.27767	-13
1.28133	-14
1.28500	-14
1.28867	-13
1.29233	-15
1.29600	-14
1.29967	-11
1.30333	-11
1.30700	-12
1.31067	-13
1.31433	-14
1.31800	-13
1.32167	-12
1.32533	-11
1.32900	-11
1.33267	-13
1.33633	-14
1.34000	-13
1.34367	-12
1.34733	-11
1.35100	-9
1.35467	-10
1.35833	-10
1.36200	-8
1.36567	-7
1.36933	-7
1.37300	-9
1.37667	-10
1.38033	-12
1.38400	-16
1.38767	-18
1.39133	-18
1.39500	-18
1.39867	-19
1.40233	-20
1.40600	-20
1.40967	-20
1.41333	-19
1.41700	-18
1.42067	-20
1.42433	-23
1.42800	-20
1.43167	-17
1.43533	-15
1.43900	-16
1.44267	-16
1.44633	-17
1.45000	-17
1.45367	-18
1.45733	-19
1.46100	-19
1.46467	-19
1.46833	-17
1.47200	-16
1.47567	-16
1.47933	-17
1.48300	-18
1.48667	-18
1.49033	-17
1.49400	-15
1.49767	-12
1.50133	-13
1.50500	-17
1.50867	-21
1.51233	-20
1.51600	-17
1.51967	-17
1.52333	-14
1.52700	-14
1.53067	-15
1.53433	-13
1.53800	-12
1.54167	-13
1.54533	-14
1.54900	-14
1.55267	-13
1.55633	-11
1.56000	-13
1.56367	-15
1.56733	-16
1.57100	-15
1.57467	-14
1.57833	-14
1.58200	-16
1.58567	-14
1.58933	-14
1.59300	-12
1.59667	-10
1.60033	-10
1.60400	-8
1.60767	-7
1.61133	-7
1.61500	-7
1.61867	-8
1.62233	-10
1.62600	-11
1.62967	-9
1.63333	-10
1.63700	-12
1.64067	-11
1.64433	-13
1.64800	-14
1.65167	-12
1.65533	-9
1.65900	-7
1.66267	-6
1.66633	-4
1.67000	-3
1.67367	-6
1.67733	-8
1.68100	-7
1.68467	-6
1.68833	-5
1.69200	-5
1.69567	-4
1.69933	-0
1.70300	5
1.70667	9
1.71033	10
1.71400	10
1.71767	10
1.72133	8
1.72500	7
1.72867	9
1.73233	8
1.73600	8
1.73967	13
1.74333	13
1.74700	11
1.75067	12
1.75433	14
1.75800	16
1.76167	20
1.76533	23
1.76900	24
1.77267	24
1.77633	22
1.78000	20
1.78367	19
1.78733	21
1.79100	23
1.79467	25
1.79833	28
1.80200	29
1.80567	30
1.80933	30
1.81300	30
1.81667	31
1.82033	33
1.82400	36
1.82767	35
1.83133	35
1.83500	35
1.83867	34
1.84233	35
1.84600	37
1.84967	38
1.85333	39
1.85700	39
1.86067	37
1.86433	34
1.86800	33
1.87167	35
1.87533	37
1.87900	38
1.88267	36
1.88633	33
1.89000	34
1.89367	38
1.89733	42
1.90100	45
1.90467	48
1.90833	49
1.91200	53
1.91567	55
1.91933	53
1.92300	53
1.92667	55
1.93033	57
1.93400	59
1.93767	59
1.94133	58
1.94500	56
1.94867	56
1.95233	58
1.95600	61
1.95967	62
1.96333	65
1.96700	67
1.97067	69
1.97433	68
1.97800	68
1.98167	69
1.98533	70
1.98900	68
1.99267	70
1.99633	73
2.00000	76
2.00367	76
2.00733	75
2.01100	76
2.01467	81
2.01833	82
2.02200	85
2.02567	87
2.02933	89
2.03300	93
2.03667	96
2.04033	97
2.04400	98
2.04767	97
2.05133	95
2.05500	94
2.05867	95
2.06233	99
2.06600	102
2.06967	104
2.07333	104
2.07700	103
2.08067	106
2.08433	108
2.08800	111
2.09167	114
2.09533	115
2.09900	115
2.10267	115
2.10633	116
2.11000	117
2.11367	117
2.11733	119
2.12100	122
2.12467	127
2.12833	129
2.13200	130
2.13567	131
2.13933	132
2.14300	133
2.14667	134
2.15033	135
2.15400	136
2.15767	140
2.16133	143
2.16500	144
2.16867	144
2.17233	146
2.17600	149
2.17967	153
2.18333	155
2.18700	155
2.19067	157
2.19433	159
2.19800	162
2.20167	165
2.20533	166
2.20900	169
2.21267	169
2.21633	170
2.22000	175
2.22367	178
2.22733	179
2.23100	179
2.23467	179
2.23833	180
2.24200	183
2.24567	185
2.24933	189
2.25300	191
2.25667	191
2.26033	193
2.26400	194
2.26767	196
2.27133	201
2.27500	203
2.27867	204
2.28233	208
2.28600	212
2.28967	216
2.29333	217
2.29700	217
2.30067	217
2.30433	220
2.30800	221
2.31167	220
2.31533	220
2.31900	222
2.32267	226
2.32633	226
2.33000	227
2.33367	228
2.33733	231
2.34100	236
2.34467	240
2.34833	244
2.35200	248
2.35567	249
2.35933	250
2.36300	252
2.36667	254
2.37033	256
2.37400	260
2.37767	262
2.38133	264
2.38500	266
2.38867	267
2.39233	270
2.39600	274
2.39967	277
2.40333	281
2.40700	281
2.41067	280
2.41433	280
2.41800	282
2.42167	284
2.42533	286
2.42900	287
2.43267	287
2.43633	285
2.44000	287
2.44367	308
2.44733	364
2.45100	426
2.45467	468
2.45833	475
2.46200	461
2.46567	447
2.46933	438
2.47300	424
2.47667	400
2.48033	372
2.48400	344
2.48767	317
2.49133	294
2.49500	276
2.49867	264
2.50233	262
2.50600	264
2.50967	270
2.51333	274
2.51700	274
2.52067	270
2.52433	262
2.52800	251
2.53167	240
2.53533	231
2.53900	220
2.54267	209
2.54633	202
2.55000	198
2.55367	195
2.55733	192
2.56100	189
2.56467	187
2.56833	187
2.57200	189
2.57567	190
2.57933	194
2.58300	198
2.58667	203
2.59033	209
2.59400	215
2.59767	223
2.60133	230
2.60500	233
2.60867	231
2.61233	224
2.61600	208
2.61967	184
2.62333	155
2.62700	123
2.63067	90
2.63433	57
2.63800	29
2.64167	6
2.64533	-12
2.64900	-25
2.65267	-33
2.65633	-37
2.66000	-41
2.66367	-43
2.66733	-42
2.67100	-37
2.67467	-28
2.67833	-16
2.68200	-6
2.68567	4
2.68933	16
2.69300	27
2.69667	39
2.70033	50
2.70400	56
2.70767	61
2.71133	66
2.71500	73
2.71867	78
2.72233	82
2.72600	84
2.72967	88
2.73333	93
2.73700	97
2.74067	99
2.74433	103
2.74800	105
2.75167	108
2.75533	112
2.75900	115
2.76267	116
2.76633	116
2.77000	120
2.77367	126
2.77733	126
2.78100	126
2.78467	128
2.78833	131
2.79200	135
2.79567	140
2.79933	145
2.80300	147
2.80667	146
2.81033	146
2.81400	148
2.81767	153
2.82133	160
2.82500	174
2.82867	205
2.83233	278
2.83600	437
2.83967	741
2.84333	1266
2.84700	2079
2.85067	3219
2.85433	4685
2.85800	6421
2.86167	8329
2.86533	10269
2.86900	12086
2.87267	13634
2.87633	14793
2.88000	15495
2.88367	15738
2.88733	15558
2.89100	15023
2.89467	14217
2.89833	13232
2.90200	12151
2.90567	11033
2.90933	9923
2.91300	8863
2.91667	7872
2.92033	6958
2.92400	6123
2.92767	5374
2.93133	4706
2.93500	4109
2.93867	3583
2.94233	3122
2.94600	2719
2.94967	2367
2.95333	2063
2.95700	1796
2.96067	1567
2.96433	1371
2.96800	1201
2.97167	1050
2.97533	918
2.97900	805
2.98267	709
2.98633	630
2.99000	560
2.99367	500
2.99733	447
3.00100	399
3.00467	357
3.00833	322
3.01200	293
3.01567	273
3.01933	253
3.02300	237
3.02667	222
3.03033	208
3.03400	194
3.03767	185
3.04133	175
3.04500	168
3.04867	164
3.05233	158
3.05600	151
3.05967	146
3.06333	141
3.06700	139
3.07067	135
3.07433	131
3.07800	129
3.08167	128
3.08533	125
3.08900	125
3.09267	125
3.09633	123
3.10000	122
3.10367	120
3.10733	119
3.11100	117
3.11467	114
3.11833	111
3.12200	110
3.12567	109
3.12933	108
3.13300	108
3.13667	111
3.14033	112
3.14400	113
3.14767	113
3.15133	113
3.15500	114
3.15867	110
3.16233	107
3.16600	108
3.16967	110
3.17333	111
3.17700	113
3.18067	112
3.18433	112
3.18800	114
3.19167	116
3.19533	119
3.19900	123
3.20267	122
3.20633	120
3.21000	117
3.21367	115
3.21733	115
3.22100	115
3.22467	115
3.22833	116
3.23200	116
3.23567	117
3.23933	115
3.24300	114
3.24667	114
3.25033	114
3.25400	114
3.25767	112
3.26133	111
3.26500	110
3.26867	109
3.27233	111
3.27600	114
3.27967	113
3.28333	112
3.28700	109
3.29067	106
3.29433	104
3.29800	103
3.30167	102
3.30533	98
3.30900	93
3.31267	92
3.31633	93
3.32000	96
3.32367	97
3.32733	96
3.33100	94
3.33467	94
3.33833	94
3.34200	92
3.34567	89
3.34933	87
3.35300	85
3.35667	83
3.36033	80
3.36400	79
3.36767	77
3.37133	75
3.37500	74
3.37867	73
3.38233	72
3.38600	71
3.38967	70
3.39333	69
3.39700	68
3.40067	65
3.40433	63
3.40800	61
3.41167	59
3.41533	54
3.41900	51
3.42267	50
3.42633	49
3.43000	46
3.43367	42
3.43733	40
3.44100	40
3.44467	39
3.44833	38
3.45200	37
3.45567	34
3.45933	34
3.46300	38
3.46667	38
3.47033	39
3.47400	39
3.47767	36
3.48133	33
3.48500	32
3.48867	30
3.49233	28
3.49600	25
3.49967	21
3.50333	17
3.50700	15
3.51067	12
3.51433	10
3.51800	10
3.52167	12
3.52533	12
3.52900	9
3.53267	6
3.53633	8
3.54000	10
3.54367	11
3.54733	9
3.55100	8
3.55467	7
3.55833	6
3.56200	4
3.56567	0
3.56933	0
3.57300	1
3.57667	2
3.58033	6
3.58400	10
3.58767	9
3.59133	5
3.59500	2
3.59867	-1
3.60233	-3
3.60600	-4
3.60967	-6
3.61333	-5
3.61700	-4
3.62067	-2
3.62433	0
3.62800	1
3.63167	-1
3.63533	-2
3.63900	-3
3.64267	-6
3.64633	-7
3.65000	-5
3.65367	0
3.65733	4
3.66100	6
3.66467	8
3.66833	9
3.67200	7
3.67567	3
3.67933	2
3.68300	0
3.68667	-1
3.69033	-6
3.69400	-9
3.69767	-9
3.70133	-10
3.70500	-9
3.70867	-8
3.71233	-8
3.71600	-6
3.71967	-4
3.72333	-5
3.72700	-5
3.73067	-5
3.73433	-6
3.73800	-4
3.74167	-3
3.74533	-2
3.74900	-3
3.75267	-4
3.75633	-4
3.76000	-3
3.76367	-3
3.76733	0
3.77100	-1
3.77467	-3
3.77833	-5
3.78200	-3
3.78567	1
3.78933	4
3.79300	3
3.79667	1
3.80033	1
3.80400	-1
3.80767	1
3.81133	0
3.81500	-4
3.81867	-6
3.82233	-5
3.82600	-4
3.82967	-1
3.83333	-1
3.83700	-2
3.84067	-5
3.84433	-6
3.84800	-6
3.85167	-6
3.85533	-6
3.85900	-7
3.86267	-7
3.86633	-6
3.87000	-6
3.87367	-5
3.87733	-2
3.88100	-2
3.88467	-4
3.88833	-7
3.89200	-7
3.89567	-3
3.89933	3
3.90300	3
3.90667	2
3.91033	0
3.91400	-1
3.91767	-1
3.92133	-2
3.92500	-2
3.92867	-1
3.93233	-0
3.93600	1
3.93967	3
3.94333	3
3.94700	1
3.95067	1
3.95433	3
3.95800	3
3.96167	3
3.96533	3
3.96900	3
3.97267	1
3.97633	-0
3.98000	1
3.98367	3
3.98733	7
3.99100	7
3.99467	4
3.99833	-0

[Status Trace (Column Oven Temperature)]
Interval(msec)	1000
# of Points	240
Start Time(min)	0.001
End Time(min)	3.984
Intensity Units	
Intensity Multiplier	1
R.Time (min)	Intensity
0.00078	35.04
0.01745	35.04
0.03412	35.04
0.05078	35.04
0.06745	35.05
0.08412	35.04
0.10078	35.03
0.11745	35.03
0.13412	35.02
0.15078	35.02
0.16745	35.01
0.18412	35.01
0.20078	35.00
0.21745	35.01
0.23412	35.00
0.25078	35.00
0.26745	34.99
0.28412	34.99
0.30078	34.99
0.31745	34.97
0.33412	34.98
0.35078	34.97
0.36745	34.98
0.38412	34.98
0.40078	34.98
0.41745	34.98
0.43412	34.99
0.45078	34.99
0.46745	34.99
0.48412	34.99
0.50078	34.98
0.51745	34.98
0.53412	34.98
0.55078	34.98
0.56745	34.98
0.58412	34.99
0.60078	35.00
0.61745	34.99
0.63412	35.00
0.65078	34.99
0.66745	34.99
0.68412	35.00
0.70078	34.99
0.71745	35.00
0.73412	35.00
0.75078	34.99
0.76745	35.00
0.78412	35.00
0.80078	35.00
0.81745	34.99
0.83412	34.99
0.85078	34.99
0.86745	34.99
0.88412	35.00
0.90078	35.00
0.91745	35.00
0.93412	35.01
0.95078	34.99
0.96745	34.99
0.98412	35.00
1.00078	35.00
1.01745	35.00
1.03412	35.01
1.05078	35.01
1.06745	35.01
1.08412	35.01
1.10078	35.01
1.11745	35.01
1.13412	35.00
1.15078	35.00
1.16745	35.00
1.18412	35.00
1.20078	35.00
1.21745	34.99
1.23412	34.99
1.25078	35.00
1.26745	35.01
1.28412	35.00
1.30078	35.00
1.31745	35.00
1.33412	34.99
1.35078	35.00
1.36745	35.00
1.38412	35.01
1.40078	35.02
1.41745	35.01
1.43412	35.01
1.45078	35.00
1.46745	35.01
1.48412	35.01
1.50078	35.00
1.51745	35.00
1.53412	34.99
1.55078	35.01
1.56745	35.01
1.58412	35.00
1.60078	35.03
1.61745	35.13
1.63412	35.28
1.65078	35.50
1.66745	35.79
1.68412	36.15
1.70078	36.52
1.71745	36.87
1.73412	37.19
1.75078	37.53
1.76745	37.86
1.78412	38.18
1.80078	38.52
1.81745	38.85
1.83412	39.19
1.85078	39.53
1.86745	39.83
1.88412	40.16
1.90078	40.49
1.91745	40.83
1.93412	41.15
1.95078	41.47
1.96745	41.81
1.98412	42.12
2.00078	42.47
2.01745	42.79
2.03412	43.11
2.05078	43.43
2.06745	43.76
2.08412	44.08
2.10078	44.42
2.11745	44.74
2.13412	45.06
2.15078	45.39
2.16745	45.72
2.18412	46.03
2.20078	46.36
2.21745	46.71
2.23412	47.03
2.25078	47.33
2.26745	47.69
2.28412	48.05
2.30078	48.35
2.31745	48.69
2.33412	48.98
2.35078	49.32
2.36745	49.58
2.38412	49.70
2.40078	49.71
2.41745	49.70
2.43412	49.72
2.45078	49.73
2.46745	49.73
2.48412	49.75
2.50078	49.77
2.51745	49.78
2.53412	49.79
2.55078	49.83
2.56745	49.83
2.58412	49.82
2.60078	49.82
2.61745	49.84
2.63412	49.85
2.65078	49.85
2.66745	49.85
2.68412	49.84
2.70078	49.85
2.71745	49.86
2.73412	49.86
2.75078	49.86
2.76745	49.85
2.78412	49.87
2.80078	49.90
2.81745	49.92
2.83412	49.93
2.85078	49.93
2.86745	49.93
2.88412	49.93
2.90078	49.94
2.91745	49.94
2.93412	49.95
2.95078	49.95
2.96745	49.95
2.98412	49.96
3.00078	49.98
3.01745	49.99
3.03412	50.00
3.05078	50.00
3.06745	50.01
3.08412	50.02
3.10078	50.02
3.11745	50.03
3.13412	50.04
3.15078	50.05
3.16745	50.07
3.18412	50.06
3.20078	50.07
3.21745	50.07
3.23412	50.08
3.25078	50.09
3.26745	50.10
3.28412	50.10
3.30078	50.10
3.31745	50.10
3.33412	50.09
3.35078	50.08
3.36745	50.07
3.38412	50.07
3.40078	50.07
3.41745	50.06
3.43412	50.04
3.45078	50.04
3.46745	50.04
3.48412	50.04
3.50078	50.04
3.51745	50.04
3.53412	50.04
3.55078	50.04
3.56745	50.04
3.58412	50.05
3.60078	50.05
3.61745	50.05
3.63412	50.05
3.65078	50.06
3.66745	50.06
3.68412	50.07
3.70078	50.07
3.71745	50.07
3.73412	50.08
3.75078	50.08
3.76745	50.08
3.78412	50.08
3.80078	50.08
3.81745	50.08
3.83412	50.08
3.85078	50.07
3.86745	50.09
3.88412	50.09
3.90078	50.09
3.91745	50.10
3.93412	50.09
3.95078	50.09
3.96745	50.07
3.98412	50.07

[Status Trace (Injection Unit Temperature)]
Interval(msec)	1000
# of Points	240
Start Time(min)	0.001
End Time(min)	3.984
Intensity Units	
Intensity Multiplier	1
R.Time (min)	Intensity
0.00078	100.00
0.01745	100.00
0.03412	100.00
0.05078	100.00
0.06745	100.00
0.08412	100.00
0.10078	100.00
0.11745	100.00
0.13412	100.00
0.15078	100.00
0.16745	100.00
0.18412	100.00
0.20078	100.00
0.21745	100.00
0.23412	100.00
0.25078	100.00
0.26745	100.00
0.28412	100.00
0.30078	100.00
0.31745	100.00
0.33412	100.00
0.35078	100.00
0.36745	100.00
0.38412	100.00
0.40078	100.00
0.41745	100.00
0.43412	100.00
0.45078	100.00
0.46745	100.00
0.48412	100.00
0.50078	100.00
0.51745	100.00
0.53412	100.00
0.55078	100.00
0.56745	100.00
0.58412	100.00
0.60078	100.00
0.61745	100.01
0.63412	100.01
0.65078	100.00
0.66745	100.01
0.68412	100.00
0.70078	100.00
0.71745	100.00
0.73412	100.00
0.75078	100.00
0.76745	100.00
0.78412	100.00
0.80078	100.00
0.81745	100.00
0.83412	100.00
0.85078	100.00
0.86745	100.00
0.88412	100.00
0.90078	100.00
0.91745	100.00
0.93412	100.00
0.95078	100.01
0.96745	100.01
0.98412	100.00
1.00078	100.00
1.01745	100.00
1.03412	100.00
1.05078	100.00
1.06745	100.00
1.08412	100.00
1.10078	100.00
1.11745	100.00
1.13412	100.00
1.15078	100.00
1.16745	100.00
1.18412	100.00
1.20078	100.00
1.21745	100.00
1.23412	100.00
1.25078	100.00
1.26745	99.99
1.28412	100.00
1.30078	100.00
1.31745	100.00
1.33412	100.00
1.35078	100.00
1.36745	100.00
1.38412	100.00
1.40078	100.00
1.41745	100.00
1.43412	99.99
1.45078	100.00
1.46745	100.00
1.48412	100.00
1.50078	100.00
1.51745	100.00
1.53412	99.99
1.55078	100.00
1.56745	100.00
1.58412	100.00
1.60078	100.00
1.61745	100.00
1.63412	100.00
1.65078	100.00
1.66745	100.00
1.68412	100.00
1.70078	100.00
1.71745	100.00
1.73412	100.00
1.75078	99.99
1.76745	100.00
1.78412	100.00
1.80078	100.00
1.81745	100.00
1.83412	99.99
1.85078	99.99
1.86745	99.99
1.88412	99.99
1.90078	99.99
1.91745	99.99
1.93412	99.99
1.95078	99.99
1.96745	99.99
1.98412	99.98
2.00078	99.99
2.01745	99.99
2.03412	99.99
2.05078	99.99
2.06745	99.98
2.08412	99.99
2.10078	99.98
2.11745	99.98
2.13412	99.99
2.15078	99.99
2.16745	99.98
2.18412	99.98
2.20078	99.99
2.21745	99.98
2.23412	99.98
2.25078	99.98
2.26745	99.98
2.28412	99.98
2.30078	99.98
2.31745	99.98
2.33412	99.98
2.35078	99.98
2.36745	99.98
2.38412	99.98
2.40078	99.98
2.41745	99.98
2.43412	99.98
2.45078	99.98
2.46745	99.98
2.48412	99.99
2.50078	99.99
2.51745	99.99
2.53412	99.98
2.55078	99.99
2.56745	99.99
2.58412	99.99
2.60078	99.99
2.61745	99.99
2.63412	99.99
2.65078	99.99
2.66745	99.99
2.68412	99.99
2.70078	100.00
2.71745	100.00
2.73412	100.00
2.75078	100.00
2.76745	100.00
2.78412	100.00
2.80078	100.00
2.81745	100.01
2.83412	100.01
2.85078	100.01
2.86745	100.01
2.88412	100.01
2.90078	100.01
2.91745	100.01
2.93412	100.01
2.95078	100.02
2.96745	100.02
2.98412	100.02
3.00078	100.02
3.01745	100.02
3.03412	100.02
3.05078	100.02
3.06745	100.02
3.08412	100.02
3.10078	100.02
3.11745	100.03
3.13412	100.03
3.15078	100.02
3.16745	100.03
3.18412	100.03
3.20078	100.03
3.21745	100.03
3.23412	100.03
3.25078	100.03
3.26745	100.04
3.28412	100.04
3.30078	100.04
3.31745	100.04
3.33412	100.04
3.35078	100.04
3.36745	100.05
3.38412	100.04
3.40078	100.05
3.41745	100.05
3.43412	100.05
3.45078	100.05
3.46745	100.05
3.48412	100.05
3.50078	100.05
3.51745	100.05
3.53412	100.05
3.55078	100.05
3.56745	100.05
3.58412	100.05
3.60078	100.05
3.61745	100.05
3.63412	100.06
3.65078	100.06
3.66745	100.06
3.68412	100.05
3.70078	100.06
3.71745	100.05
3.73412	100.06
3.75078	100.06
3.76745	100.06
3.78412	100.05
3.80078	100.06
3.81745	100.06
3.83412	100.06
3.85078	100.05
3.86745	100.06
3.88412	100.05
3.90078	100.06
3.91745	100.06
3.93412	100.06
3.95078	100.06
3.96745	100.06
3.98412	100.06

[Status Trace (Carrier Gas Pressure)]
Interval(msec)	1000
# of Points	240
Start Time(min)	0.001
End Time(min)	3.984
Intensity Units	
Intensity Multiplier	1
R.Time (min)	Intensity
0.00078	58.00
0.01745	56.70
0.03412	56.06
0.05078	58.44
0.06745	59.85
0.08412	58.31
0.10078	57.97
0.11745	58.01
0.13412	58.01
0.15078	58.01
0.16745	58.00
0.18412	58.00
0.20078	58.00
0.21745	58.00
0.23412	58.00
0.25078	58.00
0.26745	58.00
0.28412	58.00
0.30078	58.00
0.31745	58.00
0.33412	58.00
0.35078	58.00
0.36745	58.00
0.38412	58.00
0.40078	58.00
0.41745	58.00
0.43412	58.00
0.45078	58.00
0.46745	58.00
0.48412	58.00
0.50078	58.00
0.51745	58.00
0.53412	58.00
0.55078	58.00
0.56745	58.00
0.58412	58.00
0.60078	58.00
0.61745	58.00
0.63412	58.00
0.65078	58.00
0.66745	58.00
0.68412	58.00
0.70078	58.00
0.71745	58.00
0.73412	58.00
0.75078	58.00
0.76745	58.00
0.78412	58.00
0.80078	58.00
0.81745	58.00
0.83412	58.00
0.85078	58.00
0.86745	58.00
0.88412	58.00
0.90078	58.00
0.91745	58.00
0.93412	58.00
0.95078	58.00
0.96745	58.00
0.98412	58.00
1.00078	58.00
1.01745	58.00
1.03412	58.00
1.05078	58.00
1.06745	58.00
1.08412	58.00
1.10078	58.00
1.11745	58.00
1.13412	58.00
1.15078	58.00
1.16745	58.00
1.18412	58.00
1.20078	58.00
1.21745	58.00
1.23412	58.00
1.25078	58.00
1.26745	58.00
1.28412	58.00
1.30078	58.00
1.31745	58.00
1.33412	58.00
1.35078	58.00
1.36745	58.00
1.38412	58.00
1.40078	58.00
1.41745	58.00
1.43412	58.00
1.45078	58.00
1.46745	58.00
1.48412	58.00
1.50078	58.00
1.51745	58.00
1.53412	58.00
1.55078	58.00
1.56745	58.00
1.58412	58.00
1.60078	58.00
1.61745	58.00
1.63412	58.01
1.65078	58.00
1.66745	58.01
1.68412	58.01
1.70078	58.00
1.71745	58.00
1.73412	58.00
1.75078	58.00
1.76745	58.00
1.78412	58.00
1.80078	58.00
1.81745	58.00
1.83412	58.00
1.85078	58.00
1.86745	58.00
1.88412	58.00
1.90078	58.00
1.91745	58.00
1.93412	58.00
1.95078	58.00
1.96745	58.00
1.98412	58.00
2.00078	58.00
2.01745	58.00
2.03412	58.00
2.05078	58.00
2.06745	58.00
2.08412	58.00
2.10078	58.00
2.11745	58.00
2.13412	58.00
2.15078	58.00
2.16745	58.00
2.18412	58.00
2.20078	58.00
2.21745	58.00
2.23412	58.00
2.25078	58.00
2.26745	58.00
2.28412	58.00
2.30078	58.00
2.31745	58.00
2.33412	58.00
2.35078	58.00
2.36745	58.00
2.38412	57.99
2.40078	57.99
2.41745	58.00
2.43412	58.00
2.45078	58.00
2.46745	58.00
2.48412	58.00
2.50078	58.00
2.51745	57.98
2.53412	57.99
2.55078	58.00
2.56745	58.00
2.58412	58.00
2.60078	58.00
2.61745	58.00
2.63412	58.00
2.65078	58.00
2.66745	58.00
2.68412	58.00
2.70078	58.00
2.71745	58.00
2.73412	58.00
2.75078	58.00
2.76745	58.00
2.78412	58.00
2.80078	58.00
2.81745	58.00
2.83412	58.00
2.85078	58.00
2.86745	58.00
2.88412	58.00
2.90078	58.00
2.91745	58.00
2.93412	58.00
2.95078	58.00
2.96745	58.00
2.98412	58.00
3.00078	58.00
3.01745	58.00
3.03412	58.00
3.05078	58.00
3.06745	58.00
3.08412	58.00
3.10078	58.00
3.11745	58.00
3.13412	58.00
3.15078	58.00
3.16745	58.00
3.18412	58.00
3.20078	58.00
3.21745	58.00
3.23412	58.00
3.25078	58.00
3.26745	58.00
3.28412	58.00
3.30078	58.00
3.31745	58.00
3.33412	58.00
3.35078	58.00
3.36745	58.00
3.38412	58.00
3.40078	58.00
3.41745	58.00
3.43412	58.00
3.45078	58.00
3.46745	58.00
3.48412	58.00
3.50078	58.00
3.51745	58.00
3.53412	58.00
3.55078	58.00
3.56745	58.00
3.58412	58.00
3.60078	58.00
3.61745	58.00
3.63412	58.00
3.65078	58.00
3.66745	58.00
3.68412	58.00
3.70078	58.00
3.71745	58.00
3.73412	58.00
3.75078	58.00
3.76745	58.00
3.78412	58.00
3.80078	58.00
3.81745	58.00
3.83412	58.00
3.85078	58.00
3.86745	58.00
3.88412	58.00
3.90078	58.00
3.91745	58.00
3.93412	58.00
3.95078	58.00
3.96745	58.00
3.98412	58.00

[Status Trace (Carrier Gas Flow)]
Interval(msec)	1000
# of Points	240
Start Time(min)	0.001
End Time(min)	3.984
Intensity Units	
Intensity Multiplier	1
R.Time (min)	Intensity
0.00078	34.52
0.01745	33.84
0.03412	34.54
0.05078	34.55
0.06745	34.49
0.08412	34.52
0.10078	34.52
0.11745	34.52
0.13412	34.52
0.15078	34.52
0.16745	34.52
0.18412	34.52
0.20078	34.52
0.21745	34.52
0.23412	34.52
0.25078	34.52
0.26745	34.52
0.28412	34.52
0.30078	34.52
0.31745	34.52
0.33412	34.52
0.35078	34.52
0.36745	34.52
0.38412	34.52
0.40078	34.52
0.41745	34.52
0.43412	34.52
0.45078	34.52
0.46745	34.52
0.48412	34.52
0.50078	34.52
0.51745	34.52
0.53412	34.52
0.55078	34.52
0.56745	34.52
0.58412	34.52
0.60078	34.52
0.61745	34.52
0.63412	34.52
0.65078	34.52
0.66745	34.52
0.68412	34.52
0.70078	34.52
0.71745	34.52
0.73412	34.52
0.75078	34.52
0.76745	34.52
0.78412	34.52
0.80078	34.52
0.81745	34.52
0.83412	34.52
0.85078	34.52
0.86745	34.52
0.88412	34.52
0.90078	34.52
0.91745	34.52
0.93412	34.52
0.95078	34.52
0.96745	34.51
0.98412	34.50
1.00078	34.51
1.01745	34.51
1.03412	34.52
1.05078	34.52
1.06745	34.51
1.08412	34.52
1.10078	34.52
1.11745	34.51
1.13412	34.52
1.15078	34.52
1.16745	34.52
1.18412	34.52
1.20078	34.52
1.21745	34.52
1.23412	34.52
1.25078	34.52
1.26745	34.52
1.28412	34.52
1.30078	34.52
1.31745	34.52
1.33412	34.52
1.35078	34.52
1.36745	34.52
1.38412	34.52
1.40078	34.52
1.41745	34.52
1.43412	34.52
1.45078	34.52
1.46745	34.52
1.48412	34.52
1.50078	34.52
1.51745	34.52
1.53412	34.52
1.55078	34.52
1.56745	34.52
1.58412	34.52
1.60078	34.52
1.61745	34.52
1.63412	34.52
1.65078	34.52
1.66745	34.52
1.68412	34.52
1.70078	34.52
1.71745	34.52
1.73412	34.52
1.75078	34.52
1.76745	34.52
1.78412	34.51
1.80078	34.52
1.81745	34.52
1.83412	34.52
1.85078	34.52
1.86745	34.52
1.88412	34.52
1.90078	34.52
1.91745	34.52
1.93412	34.52
1.95078	34.52
1.96745	34.52
1.98412	34.52
2.00078	34.52
2.01745	34.52
2.03412	34.52
2.05078	34.52
2.06745	34.52
2.08412	34.52
2.10078	34.52
2.11745	34.52
2.13412	34.52
2.15078	34.52
2.16745	34.52
2.18412	34.52
2.20078	34.52
2.21745	34.52
2.23412	34.52
2.25078	34.52
2.26745	34.52
2.28412	34.52
2.30078	34.52
2.31745	34.52
2.33412	34.52
2.35078	34.52
2.36745	34.52
2.38412	34.51
2.40078	34.52
2.41745	34.52
2.43412	34.52
2.45078	34.52
2.46745	34.52
2.48412	34.52
2.50078	34.52
2.51745	34.52
2.53412	34.52
2.55078	34.52
2.56745	34.52
2.58412	34.52
2.60078	34.52
2.61745	34.52
2.63412	34.52
2.65078	34.52
2.66745	34.52
2.68412	34.52
2.70078	34.52
2.71745	34.52
2.73412	34.52
2.75078	34.52
2.76745	34.52
2.78412	34.52
2.80078	34.52
2.81745	34.52
2.83412	34.52
2.85078	34.52
2.86745	34.52
2.88412	34.52
2.90078	34.52
2.91745	34.52
2.93412	34.52
2.95078	34.52
2.96745	34.52
2.98412	34.52
3.00078	34.52
3.01745	34.52
3.03412	34.52
3.05078	34.52
3.06745	34.52
3.08412	34.52
3.10078	34.52
3.11745	34.52
3.13412	34.52
3.15078	34.52
3.16745	34.52
3.18412	34.51
3.20078	34.52
3.21745	34.53
3.23412	34.52
3.25078	34.51
3.26745	34.53
3.28412	34.52
3.30078	34.52
3.31745	34.51
3.33412	34.51
3.35078	34.53
3.36745	34.51
3.38412	34.51
3.40078	34.51
3.41745	34.52
3.43412	34.52
3.45078	34.52
3.46745	34.52
3.48412	34.51
3.50078	34.52
3.51745	34.52
3.53412	34.52
3.55078	34.52
3.56745	34.52
3.58412	34.51
3.60078	34.52
3.61745	34.52
3.63412	34.52
3.65078	34.52
3.66745	34.52
3.68412	34.52
3.70078	34.52
3.71745	34.52
3.73412	34.52
3.75078	34.52
3.76745	34.52
3.78412	34.52
3.80078	34.52
3.81745	34.52
3.83412	34.52
3.85078	34.52
3.86745	34.52
3.88412	34.52
3.90078	34.52
3.91745	34.52
3.93412	34.52
3.95078	34.52
3.96745	34.52
3.98412	34.52

[Status Trace (Column Flow)]
Interval(msec)	1000
# of Points	240
Start Time(min)	0.001
End Time(min)	3.984
Intensity Units	
Intensity Multiplier	1
R.Time (min)	Intensity
0.00078	5.45
0.01745	5.30
0.03412	5.23
0.05078	5.50
0.06745	5.66
0.08412	5.49
0.10078	5.45
0.11745	5.45
0.13412	5.45
0.15078	5.45
0.16745	5.45
0.18412	5.45
0.20078	5.45
0.21745	5.45
0.23412	5.45
0.25078	5.45
0.26745	5.45
0.28412	5.45
0.30078	5.45
0.31745	5.45
0.33412	5.45
0.35078	5.45
0.36745	5.45
0.38412	5.45
0.40078	5.45
0.41745	5.45
0.43412	5.45
0.45078	5.45
0.46745	5.45
0.48412	5.45
0.50078	5.45
0.51745	5.45
0.53412	5.45
0.55078	5.45
0.56745	5.45
0.58412	5.45
0.60078	5.45
0.61745	5.45
0.63412	5.45
0.65078	5.45
0.66745	5.45
0.68412	5.45
0.70078	5.45
0.71745	5.45
0.73412	5.45
0.75078	5.45
0.76745	5.45
0.78412	5.45
0.80078	5.45
0.81745	5.45
0.83412	5.45
0.85078	5.45
0.86745	5.45
0.88412	5.45
0.90078	5.45
0.91745	5.45
0.93412	5.45
0.95078	5.45
0.96745	5.45
0.98412	5.45
1.00078	5.45
1.01745	5.45
1.03412	5.45
1.05078	5.45
1.06745	5.45
1.08412	5.45
1.10078	5.45
1.11745	5.45
1.13412	5.45
1.15078	5.45
1.16745	5.45
1.18412	5.45
1.20078	5.45
1.21745	5.45
1.23412	5.45
1.25078	5.45
1.26745	5.45
1.28412	5.45
1.30078	5.45
1.31745	5.45
1.33412	5.45
1.35078	5.45
1.36745	5.45
1.38412	5.45
1.40078	5.45
1.41745	5.45
1.43412	5.45
1.45078	5.45
1.46745	5.45
1.48412	5.45
1.50078	5.45
1.51745	5.45
1.53412	5.45
1.55078	5.45
1.56745	5.45
1.58412	5.45
1.60078	5.45
1.61745	5.45
1.63412	5.44
1.65078	5.44
1.66745	5.43
1.68412	5.42
1.70078	5.40
1.71745	5.39
1.73412	5.38
1.75078	5.37
1.76745	5.36
1.78412	5.35
1.80078	5.34
1.81745	5.33
1.83412	5.32
1.85078	5.31
1.86745	5.30
1.88412	5.29
1.90078	5.28
1.91745	5.27
1.93412	5.26
1.95078	5.26
1.96745	5.25
1.98412	5.24
2.00078	5.23
2.01745	5.22
2.03412	5.21
2.05078	5.20
2.06745	5.19
2.08412	5.18
2.10078	5.17
2.11745	5.16
2.13412	5.15
2.15078	5.14
2.16745	5.13
2.18412	5.12
2.20078	5.11
2.21745	5.11
2.23412	5.10
2.25078	5.09
2.26745	5.08
2.28412	5.07
2.30078	5.06
2.31745	5.05
2.33412	5.04
2.35078	5.03
2.36745	5.03
2.38412	5.02
2.40078	5.02
2.41745	5.02
2.43412	5.02
2.45078	5.02
2.46745	5.02
2.48412	5.02
2.50078	5.02
2.51745	5.02
2.53412	5.02
2.55078	5.02
2.56745	5.02
2.58412	5.02
2.60078	5.02
2.61745	5.02
2.63412	5.02
2.65078	5.02
2.66745	5.02
2.68412	5.02
2.70078	5.02
2.71745	5.02
2.73412	5.02
2.75078	5.02
2.76745	5.02
2.78412	5.02
2.80078	5.02
2.81745	5.02
2.83412	5.02
2.85078	5.02
2.86745	5.02
2.88412	5.02
2.90078	5.02
2.91745	5.02
2.93412	5.02
2.95078	5.02
2.96745	5.02
2.98412	5.01
3.00078	5.01
3.01745	5.01
3.03412	5.01
3.05078	5.01
3.06745	5.01
3.08412	5.01
3.10078	5.01
3.11745	5.01
3.13412	5.01
3.15078	5.01
3.16745	5.01
3.18412	5.01
3.20078	5.01
3.21745	5.01
3.23412	5.01
3.25078	5.01
3.26745	5.01
3.28412	5.01
3.30078	5.01
3.31745	5.01
3.33412	5.01
3.35078	5.01
3.36745	5.01
3.38412	5.01
3.40078	5.01
3.41745	5.01
3.43412	5.01
3.45078	5.01
3.46745	5.01
3.48412	5.01
3.50078	5.01
3.51745	5.01
3.53412	5.01
3.55078	5.01
3.56745	5.01
3.58412	5.01
3.60078	5.01
3.61745	5.01
3.63412	5.01
3.65078	5.01
3.66745	5.01
3.68412	5.01
3.70078	5.01
3.71745	5.01
3.73412	5.01
3.75078	5.01
3.76745	5.01
3.78412	5.01
3.80078	5.01
3.81745	5.01
3.83412	5.01
3.85078	5.01
3.86745	5.01
3.88412	5.01
3.90078	5.01
3.91745	5.01
3.93412	5.01
3.95078	5.01
3.96745	5.01
3.98412	5.01

[Status Trace (Linear Velocity)]
Interval(msec)	1000
# of Points	240
Start Time(min)	0.001
End Time(min)	3.984
Intensity Units	
Intensity Multiplier	1
R.Time (min)	Intensity
0.00078	39.00
0.01745	38.14
0.03412	37.73
0.05078	39.29
0.06745	40.20
0.08412	39.20
0.10078	38.98
0.11745	39.00
0.13412	39.00
0.15078	39.00
0.16745	39.00
0.18412	39.00
0.20078	39.00
0.21745	39.00
0.23412	39.00
0.25078	39.00
0.26745	39.00
0.28412	39.00
0.30078	39.00
0.31745	39.00
0.33412	39.00
0.35078	39.00
0.36745	39.00
0.38412	39.00
0.40078	39.00
0.41745	39.00
0.43412	39.00
0.45078	39.00
0.46745	39.00
0.48412	39.00
0.50078	39.00
0.51745	39.00
0.53412	39.00
0.55078	39.00
0.56745	39.00
0.58412	39.00
0.60078	39.00
0.61745	39.00
0.63412	39.00
0.65078	39.00
0.66745	39.00
0.68412	39.00
0.70078	39.00
0.71745	39.00
0.73412	39.00
0.75078	39.00
0.76745	39.00
0.78412	39.00
0.80078	39.00
0.81745	39.00
0.83412	39.00
0.85078	39.00
0.86745	39.00
0.88412	39.00
0.90078	39.00
0.91745	39.00
0.93412	39.00
0.95078	39.00
0.96745	39.00
0.98412	39.00
1.00078	39.00
1.01745	39.00
1.03412	39.00
1.05078	39.00
1.06745	39.00
1.08412	39.00
1.10078	39.00
1.11745	39.00
1.13412	39.00
1.15078	39.00
1.16745	39.00
1.18412	39.00
1.20078	39.00
1.21745	39.00
1.23412	39.00
1.25078	39.00
1.26745	39.00
1.28412	39.00
1.30078	39.00
1.31745	39.00
1.33412	39.00
1.35078	39.00
1.36745	39.00
1.38412	39.00
1.40078	39.00
1.41745	39.00
1.43412	39.00
1.45078	39.00
1.46745	39.00
1.48412	39.00
1.50078	39.00
1.51745	39.00
1.53412	39.00
1.55078	39.00
1.56745	39.00
1.58412	39.00
1.60078	39.00
1.61745	38.99
1.63412	38.98
1.65078	38.95
1.66745	38.93
1.68412	38.89
1.70078	38.86
1.71745	38.82
1.73412	38.79
1.75078	38.76
1.76745	38.73
1.78412	38.70
1.80078	38.66
1.81745	38.63
1.83412	38.60
1.85078	38.57
1.86745	38.54
1.88412	38.51
1.90078	38.48
1.91745	38.45
1.93412	38.42
1.95078	38.39
1.96745	38.36
1.98412	38.33
2.00078	38.30
2.01745	38.27
2.03412	38.24
2.05078	38.21
2.06745	38.18
2.08412	38.15
2.10078	38.12
2.11745	38.09
2.13412	38.06
2.15078	38.03
2.16745	38.00
2.18412	37.97
2.20078	37.94
2.21745	37.91
2.23412	37.88
2.25078	37.85
2.26745	37.82
2.28412	37.79
2.30078	37.76
2.31745	37.73
2.33412	37.71
2.35078	37.68
2.36745	37.65
2.38412	37.64
2.40078	37.64
2.41745	37.64
2.43412	37.64
2.45078	37.64
2.46745	37.64
2.48412	37.64
2.50078	37.64
2.51745	37.62
2.53412	37.63
2.55078	37.63
2.56745	37.63
2.58412	37.63
2.60078	37.63
2.61745	37.63
2.63412	37.63
2.65078	37.63
2.66745	37.63
2.68412	37.63
2.70078	37.63
2.71745	37.63
2.73412	37.63
2.75078	37.63
2.76745	37.63
2.78412	37.63
2.80078	37.63
2.81745	37.62
2.83412	37.62
2.85078	37.62
2.86745	37.62
2.88412	37.62
2.90078	37.62
2.91745	37.62
2.93412	37.62
2.95078	37.62
2.96745	37.62
2.98412	37.62
3.00078	37.62
3.01745	37.62
3.03412	37.62
3.05078	37.62
3.06745	37.62
3.08412	37.62
3.10078	37.61
3.11745	37.61
3.13412	37.61
3.15078	37.61
3.16745	37.61
3.18412	37.61
3.20078	37.61
3.21745	37.61
3.23412	37.61
3.25078	37.61
3.26745	37.61
3.28412	37.61
3.30078	37.61
3.31745	37.61
3.33412	37.61
3.35078	37.61
3.36745	37.61
3.38412	37.61
3.40078	37.61
3.41745	37.61
3.43412	37.61
3.45078	37.61
3.46745	37.61
3.48412	37.61
3.50078	37.61
3.51745	37.61
3.53412	37.61
3.55078	37.61
3.56745	37.61
3.58412	37.61
3.60078	37.61
3.61745	37.61
3.63412	37.61
3.65078	37.61
3.66745	37.61
3.68412	37.61
3.70078	37.61
3.71745	37.61
3.73412	37.61
3.75078	37.61
3.76745	37.61
3.78412	37.61
3.80078	37.61
3.81745	37.61
3.83412	37.61
3.85078	37.61
3.86745	37.61
3.88412	37.61
3.90078	37.61
3.91745	37.61
3.93412	37.61
3.95078	37.61
3.96745	37.61
3.98412	37.61

