[Header]
Application Name	LabSolutions
Version	5.110
Data File Name	C:\Users\User\Desktop\GC Analyses\Jack\UIC Prairie Sampling\11.2.22\221102_008.gcd
Output Date	3/20/2023
Output Time	1:25:35 PM

[File Information]
Type	Data File
Generated	12/20/2022 12:25:23 PM
Generated by	System Administrator
Modified	12/20/2022 12:29:38 PM
Modified by	System Administrator

[Sample Information]
Operator Name	System Administrator
Acquired	12/20/2022 12:25:37 PM
Sample Type	1:Standard
Level	1
Sample Name	221102_UICPrairie
Sample ID	221102_UICPrairie
ISTD Amount1	1
ISTD Amount2	1
ISTD Amount3	1
ISTD Amount4	1
ISTD Amount5	1
ISTD Amount6	1
ISTD Amount7	1
ISTD Amount8	1
ISTD Amount9	1
ISTD Amount10	1
ISTD Amount11	1
ISTD Amount12	1
ISTD Amount13	1
ISTD Amount14	1
ISTD Amount15	1
ISTD Amount16	1
ISTD Amount17	1
ISTD Amount18	1
ISTD Amount19	1
ISTD Amount20	1
ISTD Amount21	1
ISTD Amount22	1
ISTD Amount23	1
ISTD Amount24	1
ISTD Amount25	1
ISTD Amount26	1
ISTD Amount27	1
ISTD Amount28	1
ISTD Amount29	1
ISTD Amount30	1
ISTD Amount31	1
ISTD Amount32	1
Sample Amount	1
Dilution Factor	1
Vial#	1
Injection Volume	1
Injection Count	1
Bar Code	

[Original Files]
Data File	C:\Users\User\Desktop\GC Analyses\Jack\UIC Prairie Sampling\11.2.22\221102_008.gcd
Method File	C:\LabSolutions\Data\GHG_4min_2022\ghg3_togas_w_acet_4 min_new_int.gcm
Batch File	
Report Format File	c:\LabSolutions\System\DEFAULT.lsr

[File Description]


[Configuration]
Instrument Name	C0B7VH3-Instrument1
Instrument #	1
Line #	1
# of Detectors	3
Detector ID	DET#1	DET#2	DET#3
Detector Name	FID	PTCD	ECD
# of Channels	1	1	1

[Peak Table(Ch1)]
# of Peaks	3
Peak#	R.Time	I.Time	F.Time	Area	Height	A/H	Conc.	Mark	ID#	Name	k'	Plate #	Plate Ht.	Tailing	Resolution	Sep.Factor	Area Ratio	Height Ratio	Conc. %	Norm Conc.
1	1.465	1.439	1.534	2645	781	3.387	100.000	   	1	CO	0.000	5037	29.780	0.000	0.000	0.000	0	0	16.667	16.667
2	1.571	1.534	1.652	21048	10542	1.997	100.000	 V 	2	CH4	0.073	11396	13.163	1.123	1.504	0.000	0	0	16.667	16.667
3	2.000	1.949	2.766	2089829	950085	2.200	400.000	   	3	CO2	0.365	16958	8.845	1.215	7.132	5.034	0	0	66.667	66.667

[Peak Table(Ch2)]
# of Peaks	0

[Peak Table(Ch3)]
# of Peaks	5
Peak#	R.Time	I.Time	F.Time	Area	Height	A/H	Conc.	Mark	ID#	Name	k'	Plate #	Plate Ht.	Tailing	Resolution	Sep.Factor	Area Ratio	Height Ratio	Conc. %	Norm Conc.
1	2.458	2.290	2.495	2160	451	4.790	0.000	   			0.000	6465	23.203	0.000	0.000	0.000	0	0	0.000	0.000
2	2.513	2.495	2.550	1001	341	2.935	0.000	 V 			0.022	1155	129.858	0.000	0.263	0.000	0	0	0.000	0.000
3	2.598	2.550	2.649	1447	365	3.967	0.000	 V 			0.057	4018	37.329	0.000	0.367	2.533	0	0	0.000	0.000
4	2.884	2.664	3.096	63231	16062	3.937	1.000	   	1	N2O	0.173	12688	11.822	1.500	2.148	3.053	0	0	50.000	50.000
5	3.269	3.126	3.390	531	52	10.212	1.000	   	2	SF6	0.330	2984	50.276	0.927	2.253	1.905	0	0	50.000	50.000

[Compound Results(Ch1)]
# of IDs	6
ID#	Name	R.Time	Area	Height	Conc.	Curve	3rd	2nd	1st	Constant	Area Ratio	Height Ratio	Conc. %	Norm Conc.
1	CO	1.465	2645	781	100.000	Linear	0.000000e+00	0.000000e+00	2.644530e+001	0.000000e+00	0	0	16.667	16.667
2	CH4	1.571	21048	10542	100.000	Linear	0.000000e+00	0.000000e+00	2.104789e+002	0.000000e+00	0	0	16.667	16.667
3	CO2	2.000	2089829	950085	400.000	Linear	0.000000e+00	0.000000e+00	5.224573e+003	0.000000e+00	0	0	66.667	66.667
4	Ethylene	0.000	0	0	0.000	Linear	0.000000e+00	0.000000e+00	0.000000e+00	0.000000e+00	0	0	0.000	0.000
5	Acetylene	0.000	0	0	0.000	Linear	0.000000e+00	0.000000e+00	0.000000e+00	0.000000e+00	0	0	0.000	0.000
6	Ethane	0.000	0	0	0.000	Linear	0.000000e+00	0.000000e+00	0.000000e+00	0.000000e+00	0	0	0.000	0.000

[Compound Results(Ch2)]
# of IDs	5
ID#	Name	R.Time	Area	Height	Conc.	Curve	3rd	2nd	1st	Constant	Area Ratio	Height Ratio	Conc. %	Norm Conc.
1	Hydrogen	0.000	0	0	0.000	Linear	0.000000e+00	0.000000e+00	0.000000e+00	0.000000e+00	0	0	0.000	0.000
2	Oxygen	0.000	0	0	0.000	Linear	0.000000e+00	0.000000e+00	0.000000e+00	0.000000e+00	0	0	0.000	0.000
3	Nitrogen	0.000	0	0	0.000	Linear	0.000000e+00	0.000000e+00	0.000000e+00	0.000000e+00	0	0	0.000	0.000
4	Methane	0.000	0	0	0.000	Linear	0.000000e+00	0.000000e+00	0.000000e+00	0.000000e+00	0	0	0.000	0.000
5	Carbon Monoxide	0.000	0	0	0.000	Linear	0.000000e+00	0.000000e+00	0.000000e+00	0.000000e+00	0	0	0.000	0.000

[Compound Results(Ch3)]
# of IDs	2
ID#	Name	R.Time	Area	Height	Conc.	Curve	3rd	2nd	1st	Constant	Area Ratio	Height Ratio	Conc. %	Norm Conc.
1	N2O	2.884	63231	16062	1.000	Linear	0.000000e+00	0.000000e+00	6.323058e+004	0.000000e+00	0	0	50.000	50.000
2	SF6	3.269	531	52	1.000	Linear	0.000000e+00	0.000000e+00	5.306062e+002	0.000000e+00	0	0	50.000	50.000

[Group Results(Ch1)]
# of Groups	0

[Group Results(Ch2)]
# of Groups	0

[Group Results(Ch3)]
# of Groups	0

[Chromatogram (Ch1)]
Interval(msec)	220
# of Points	1091
Start Time(min)	0.002
End Time(min)	3.998
R.Time (min)	Intensity
0.00167	15
0.00533	13
0.00900	10
0.01267	8
0.01633	8
0.02000	14
0.02367	23
0.02733	30
0.03100	30
0.03467	28
0.03833	24
0.04200	20
0.04567	15
0.04933	10
0.05300	4
0.05667	-0
0.06033	-1
0.06400	4
0.06767	11
0.07133	18
0.07500	26
0.07867	35
0.08233	42
0.08600	42
0.08967	40
0.09333	37
0.09700	35
0.10067	34
0.10433	31
0.10800	26
0.11167	20
0.11533	15
0.11900	13
0.12267	16
0.12633	22
0.13000	26
0.13367	27
0.13733	27
0.14100	28
0.14467	28
0.14833	27
0.15200	25
0.15567	20
0.15933	11
0.16300	5
0.16667	2
0.17033	3
0.17400	6
0.17767	8
0.18133	11
0.18500	15
0.18867	18
0.19233	18
0.19600	17
0.19967	17
0.20333	17
0.20700	21
0.21067	26
0.21433	28
0.21800	26
0.22167	24
0.22533	28
0.22900	32
0.23267	35
0.23633	38
0.24000	40
0.24367	39
0.24733	36
0.25100	31
0.25467	30
0.25833	32
0.26200	36
0.26567	39
0.26933	38
0.27300	34
0.27667	25
0.28033	16
0.28400	13
0.28767	16
0.29133	21
0.29500	24
0.29867	27
0.30233	27
0.30600	27
0.30967	28
0.31333	28
0.31700	31
0.32067	37
0.32433	40
0.32800	37
0.33167	29
0.33533	20
0.33900	14
0.34267	11
0.34633	8
0.35000	7
0.35367	10
0.35733	14
0.36100	21
0.36467	30
0.36833	37
0.37200	41
0.37567	43
0.37933	43
0.38300	42
0.38667	42
0.39033	45
0.39400	46
0.39767	43
0.40133	38
0.40500	32
0.40867	26
0.41233	23
0.41600	25
0.41967	28
0.42333	28
0.42700	27
0.43067	29
0.43433	34
0.43800	39
0.44167	42
0.44533	40
0.44900	35
0.45267	33
0.45633	35
0.46000	38
0.46367	38
0.46733	37
0.47100	36
0.47467	39
0.47833	42
0.48200	43
0.48567	46
0.48933	51
0.49300	53
0.49667	50
0.50033	44
0.50400	36
0.50767	26
0.51133	18
0.51500	13
0.51867	12
0.52233	14
0.52600	22
0.52967	32
0.53333	39
0.53700	39
0.54067	34
0.54433	26
0.54800	21
0.55167	22
0.55533	25
0.55900	27
0.56267	30
0.56633	31
0.57000	31
0.57367	27
0.57733	23
0.58100	23
0.58467	28
0.58833	36
0.59200	43
0.59567	46
0.59933	44
0.60300	39
0.60667	35
0.61033	32
0.61400	33
0.61767	37
0.62133	41
0.62500	43
0.62867	40
0.63233	36
0.63600	32
0.63967	28
0.64333	24
0.64700	25
0.65067	28
0.65433	36
0.65800	45
0.66167	51
0.66533	51
0.66900	50
0.67267	48
0.67633	44
0.68000	39
0.68367	35
0.68733	34
0.69100	36
0.69467	43
0.69833	49
0.70200	48
0.70567	41
0.70933	32
0.71300	24
0.71667	22
0.72033	25
0.72400	26
0.72767	26
0.73133	25
0.73500	28
0.73867	32
0.74233	37
0.74600	44
0.74967	51
0.75333	54
0.75700	52
0.76067	46
0.76433	38
0.76800	32
0.77167	31
0.77533	34
0.77900	38
0.78267	38
0.78633	35
0.79000	28
0.79367	19
0.79733	15
0.80100	19
0.80467	23
0.80833	29
0.81200	35
0.81567	42
0.81933	46
0.82300	42
0.82667	36
0.83033	33
0.83400	34
0.83767	36
0.84133	35
0.84500	34
0.84867	32
0.85233	30
0.85600	29
0.85967	32
0.86333	39
0.86700	46
0.87067	50
0.87433	48
0.87800	43
0.88167	39
0.88533	33
0.88900	30
0.89267	29
0.89633	30
0.90000	30
0.90367	32
0.90733	36
0.91100	38
0.91467	38
0.91833	37
0.92200	39
0.92567	43
0.92933	47
0.93300	51
0.93667	58
0.94033	65
0.94400	69
0.94767	69
0.95133	63
0.95500	55
0.95867	45
0.96233	36
0.96600	31
0.96967	31
0.97333	34
0.97700	39
0.98067	43
0.98433	46
0.98800	48
0.99167	45
0.99533	39
0.99900	33
1.00267	29
1.00633	28
1.01000	31
1.01367	34
1.01733	39
1.02100	41
1.02467	41
1.02833	42
1.03200	43
1.03567	43
1.03933	41
1.04300	39
1.04667	39
1.05033	39
1.05400	37
1.05767	37
1.06133	39
1.06500	42
1.06867	46
1.07233	51
1.07600	52
1.07967	48
1.08333	42
1.08700	37
1.09067	32
1.09433	26
1.09800	22
1.10167	23
1.10533	28
1.10900	36
1.11267	37
1.11633	35
1.12000	35
1.12367	35
1.12733	35
1.13100	35
1.13467	35
1.13833	36
1.14200	38
1.14567	39
1.14933	40
1.15300	41
1.15667	44
1.16033	47
1.16400	48
1.16767	47
1.17133	46
1.17500	46
1.17867	47
1.18233	46
1.18600	44
1.18967	42
1.19333	41
1.19700	40
1.20067	38
1.20433	35
1.20800	34
1.21167	37
1.21533	41
1.21900	42
1.22267	42
1.22633	42
1.23000	45
1.23367	45
1.23733	46
1.24100	49
1.24467	51
1.24833	51
1.25200	48
1.25567	43
1.25933	38
1.26300	35
1.26667	33
1.27033	34
1.27400	37
1.27767	38
1.28133	33
1.28500	26
1.28867	25
1.29233	28
1.29600	34
1.29967	39
1.30333	44
1.30700	49
1.31067	53
1.31433	55
1.31800	52
1.32167	47
1.32533	40
1.32900	31
1.33267	24
1.33633	21
1.34000	22
1.34367	26
1.34733	30
1.35100	32
1.35467	31
1.35833	30
1.36200	32
1.36567	35
1.36933	39
1.37300	41
1.37667	40
1.38033	36
1.38400	35
1.38767	32
1.39133	28
1.39500	25
1.39867	24
1.40233	28
1.40600	31
1.40967	35
1.41333	38
1.41700	40
1.42067	40
1.42433	39
1.42800	37
1.43167	36
1.43533	35
1.43900	49
1.44267	120
1.44633	288
1.45000	496
1.45367	666
1.45733	771
1.46100	821
1.46467	832
1.46833	825
1.47200	821
1.47567	825
1.47933	829
1.48300	819
1.48667	784
1.49033	725
1.49400	649
1.49767	566
1.50133	484
1.50500	409
1.50867	342
1.51233	286
1.51600	241
1.51967	208
1.52333	183
1.52700	162
1.53067	145
1.53433	141
1.53800	190
1.54167	451
1.54533	1214
1.54900	2670
1.55267	4632
1.55633	6674
1.56000	8441
1.56367	9757
1.56733	10521
1.57100	10602
1.57467	9903
1.57833	8537
1.58200	6825
1.58567	5124
1.58933	3669
1.59300	2543
1.59667	1725
1.60033	1158
1.60400	778
1.60767	529
1.61133	369
1.61500	264
1.61867	196
1.62233	154
1.62600	126
1.62967	106
1.63333	91
1.63700	83
1.64067	79
1.64433	75
1.64800	70
1.65167	67
1.65533	66
1.65900	62
1.66267	56
1.66633	53
1.67000	53
1.67367	52
1.67733	48
1.68100	44
1.68467	41
1.68833	39
1.69200	37
1.69567	36
1.69933	37
1.70300	39
1.70667	38
1.71033	37
1.71400	37
1.71767	38
1.72133	41
1.72500	47
1.72867	53
1.73233	55
1.73600	52
1.73967	49
1.74333	48
1.74700	48
1.75067	52
1.75433	61
1.75800	70
1.76167	76
1.76533	79
1.76900	76
1.77267	71
1.77633	66
1.78000	61
1.78367	58
1.78733	56
1.79100	59
1.79467	62
1.79833	63
1.80200	63
1.80567	64
1.80933	69
1.81300	72
1.81667	73
1.82033	71
1.82400	72
1.82767	76
1.83133	78
1.83500	74
1.83867	67
1.84233	61
1.84600	59
1.84967	62
1.85333	69
1.85700	74
1.86067	75
1.86433	75
1.86800	76
1.87167	77
1.87533	77
1.87900	73
1.88267	69
1.88633	70
1.89000	72
1.89367	76
1.89733	80
1.90100	81
1.90467	83
1.90833	86
1.91200	87
1.91567	85
1.91933	81
1.92300	79
1.92667	78
1.93033	79
1.93400	79
1.93767	82
1.94133	84
1.94500	87
1.94867	91
1.95233	108
1.95600	222
1.95967	916
1.96333	4250
1.96700	16471
1.97067	50631
1.97433	124104
1.97800	247581
1.98167	413088
1.98533	594340
1.98900	759965
1.99267	884170
1.99633	950002
2.00000	950220
2.00367	887882
2.00733	777567
2.01100	641765
2.01467	503314
2.01833	379025
2.02200	277279
2.02567	199388
2.02933	142512
2.03300	102272
2.03667	74342
2.04033	55132
2.04400	41937
2.04767	32816
2.05133	26433
2.05500	21886
2.05867	18571
2.06233	16092
2.06600	14188
2.06967	12691
2.07333	11486
2.07700	10497
2.08067	9674
2.08433	8976
2.08800	8370
2.09167	7837
2.09533	7370
2.09900	6960
2.10267	6595
2.10633	6266
2.11000	5967
2.11367	5692
2.11733	5440
2.12100	5212
2.12467	5005
2.12833	4817
2.13200	4645
2.13567	4481
2.13933	4322
2.14300	4173
2.14667	4032
2.15033	3897
2.15400	3771
2.15767	3653
2.16133	3545
2.16500	3446
2.16867	3354
2.17233	3265
2.17600	3179
2.17967	3097
2.18333	3020
2.18700	2950
2.19067	2882
2.19433	2816
2.19800	2750
2.20167	2681
2.20533	2611
2.20900	2544
2.21267	2482
2.21633	2425
2.22000	2370
2.22367	2317
2.22733	2269
2.23100	2224
2.23467	2183
2.23833	2148
2.24200	2116
2.24567	2087
2.24933	2058
2.25300	2029
2.25667	2001
2.26033	1972
2.26400	1941
2.26767	1907
2.27133	1876
2.27500	1849
2.27867	1824
2.28233	1800
2.28600	1777
2.28967	1749
2.29333	1717
2.29700	1688
2.30067	1665
2.30433	1646
2.30800	1628
2.31167	1609
2.31533	1588
2.31900	1563
2.32267	1541
2.32633	1523
2.33000	1510
2.33367	1497
2.33733	1482
2.34100	1465
2.34467	1445
2.34833	1429
2.35200	1414
2.35567	1402
2.35933	1392
2.36300	1383
2.36667	1373
2.37033	1361
2.37400	1346
2.37767	1328
2.38133	1308
2.38500	1288
2.38867	1272
2.39233	1259
2.39600	1247
2.39967	1237
2.40333	1233
2.40700	1231
2.41067	1229
2.41433	1224
2.41800	1215
2.42167	1203
2.42533	1196
2.42900	1192
2.43267	1186
2.43633	1182
2.44000	1177
2.44367	1167
2.44733	1155
2.45100	1144
2.45467	1132
2.45833	1118
2.46200	1105
2.46567	1097
2.46933	1094
2.47300	1092
2.47667	1086
2.48033	1079
2.48400	1071
2.48767	1061
2.49133	1052
2.49500	1042
2.49867	1034
2.50233	1026
2.50600	1019
2.50967	1015
2.51333	1013
2.51700	1013
2.52067	1009
2.52433	1004
2.52800	1000
2.53167	997
2.53533	997
2.53900	998
2.54267	997
2.54633	992
2.55000	987
2.55367	984
2.55733	981
2.56100	977
2.56467	972
2.56833	964
2.57200	958
2.57567	952
2.57933	944
2.58300	933
2.58667	924
2.59033	918
2.59400	914
2.59767	912
2.60133	911
2.60500	908
2.60867	903
2.61233	898
2.61600	895
2.61967	894
2.62333	894
2.62700	893
2.63067	891
2.63433	884
2.63800	875
2.64167	869
2.64533	865
2.64900	863
2.65267	862
2.65633	862
2.66000	857
2.66367	848
2.66733	842
2.67100	841
2.67467	842
2.67833	841
2.68200	839
2.68567	837
2.68933	838
2.69300	844
2.69667	850
2.70033	850
2.70400	845
2.70767	836
2.71133	826
2.71500	818
2.71867	815
2.72233	817
2.72600	819
2.72967	821
2.73333	821
2.73700	821
2.74067	822
2.74433	825
2.74800	826
2.75167	822
2.75533	814
2.75900	804
2.76267	794
2.76633	788
2.77000	790
2.77367	796
2.77733	801
2.78100	804
2.78467	804
2.78833	800
2.79200	796
2.79567	793
2.79933	792
2.80300	791
2.80667	789
2.81033	785
2.81400	785
2.81767	786
2.82133	788
2.82500	788
2.82867	786
2.83233	782
2.83600	777
2.83967	775
2.84333	775
2.84700	774
2.85067	769
2.85433	759
2.85800	749
2.86167	741
2.86533	736
2.86900	733
2.87267	735
2.87633	739
2.88000	745
2.88367	753
2.88733	760
2.89100	764
2.89467	766
2.89833	765
2.90200	764
2.90567	762
2.90933	760
2.91300	758
2.91667	756
2.92033	754
2.92400	753
2.92767	752
2.93133	751
2.93500	748
2.93867	742
2.94233	737
2.94600	734
2.94967	732
2.95333	729
2.95700	727
2.96067	726
2.96433	725
2.96800	723
2.97167	725
2.97533	726
2.97900	726
2.98267	724
2.98633	724
2.99000	726
2.99367	731
2.99733	735
3.00100	734
3.00467	730
3.00833	725
3.01200	723
3.01567	725
3.01933	727
3.02300	723
3.02667	717
3.03033	715
3.03400	716
3.03767	717
3.04133	715
3.04500	715
3.04867	714
3.05233	713
3.05600	709
3.05967	701
3.06333	692
3.06700	684
3.07067	679
3.07433	675
3.07800	674
3.08167	674
3.08533	677
3.08900	681
3.09267	685
3.09633	687
3.10000	689
3.10367	690
3.10733	688
3.11100	685
3.11467	680
3.11833	674
3.12200	671
3.12567	671
3.12933	672
3.13300	671
3.13667	670
3.14033	671
3.14400	672
3.14767	672
3.15133	671
3.15500	670
3.15867	669
3.16233	669
3.16600	669
3.16967	668
3.17333	666
3.17700	663
3.18067	658
3.18433	654
3.18800	653
3.19167	655
3.19533	661
3.19900	667
3.20267	667
3.20633	663
3.21000	661
3.21367	662
3.21733	663
3.22100	664
3.22467	664
3.22833	661
3.23200	658
3.23567	654
3.23933	650
3.24300	648
3.24667	647
3.25033	643
3.25400	638
3.25767	634
3.26133	631
3.26500	628
3.26867	628
3.27233	632
3.27600	638
3.27967	641
3.28333	640
3.28700	636
3.29067	632
3.29433	632
3.29800	632
3.30167	634
3.30533	637
3.30900	638
3.31267	636
3.31633	629
3.32000	622
3.32367	619
3.32733	618
3.33100	616
3.33467	615
3.33833	616
3.34200	615
3.34567	610
3.34933	603
3.35300	597
3.35667	594
3.36033	597
3.36400	601
3.36767	604
3.37133	608
3.37500	609
3.37867	609
3.38233	607
3.38600	609
3.38967	614
3.39333	620
3.39700	624
3.40067	623
3.40433	620
3.40800	618
3.41167	616
3.41533	612
3.41900	608
3.42267	607
3.42633	608
3.43000	608
3.43367	605
3.43733	600
3.44100	596
3.44467	595
3.44833	594
3.45200	591
3.45567	586
3.45933	580
3.46300	575
3.46667	574
3.47033	575
3.47400	579
3.47767	583
3.48133	582
3.48500	577
3.48867	574
3.49233	574
3.49600	575
3.49967	575
3.50333	573
3.50700	569
3.51067	563
3.51433	560
3.51800	562
3.52167	569
3.52533	576
3.52900	580
3.53267	584
3.53633	587
3.54000	588
3.54367	586
3.54733	583
3.55100	579
3.55467	574
3.55833	568
3.56200	560
3.56567	554
3.56933	554
3.57300	557
3.57667	559
3.58033	558
3.58400	555
3.58767	556
3.59133	560
3.59500	563
3.59867	563
3.60233	565
3.60600	565
3.60967	559
3.61333	548
3.61700	538
3.62067	530
3.62433	528
3.62800	532
3.63167	540
3.63533	548
3.63900	548
3.64267	544
3.64633	540
3.65000	541
3.65367	545
3.65733	551
3.66100	556
3.66467	556
3.66833	554
3.67200	552
3.67567	549
3.67933	546
3.68300	546
3.68667	546
3.69033	545
3.69400	543
3.69767	539
3.70133	536
3.70500	534
3.70867	531
3.71233	526
3.71600	521
3.71967	522
3.72333	526
3.72700	533
3.73067	539
3.73433	542
3.73800	542
3.74167	538
3.74533	528
3.74900	514
3.75267	500
3.75633	487
3.76000	479
3.76367	474
3.76733	473
3.77100	479
3.77467	488
3.77833	496
3.78200	504
3.78567	510
3.78933	513
3.79300	515
3.79667	517
3.80033	517
3.80400	514
3.80767	512
3.81133	514
3.81500	515
3.81867	514
3.82233	510
3.82600	506
3.82967	505
3.83333	505
3.83700	507
3.84067	512
3.84433	513
3.84800	507
3.85167	501
3.85533	499
3.85900	501
3.86267	504
3.86633	502
3.87000	502
3.87367	503
3.87733	506
3.88100	510
3.88467	513
3.88833	511
3.89200	504
3.89567	495
3.89933	489
3.90300	488
3.90667	491
3.91033	493
3.91400	493
3.91767	491
3.92133	491
3.92500	490
3.92867	492
3.93233	495
3.93600	498
3.93967	500
3.94333	503
3.94700	506
3.95067	506
3.95433	501
3.95800	495
3.96167	489
3.96533	487
3.96900	487
3.97267	488
3.97633	488
3.98000	485
3.98367	482
3.98733	479
3.99100	479
3.99467	479
3.99833	480

[Chromatogram (Ch2)]
Interval(msec)	220
# of Points	1091
Start Time(min)	0.002
End Time(min)	3.998
R.Time (min)	Intensity
0.00167	-0
0.00533	-0
0.00900	-0
0.01267	-0
0.01633	-0
0.02000	-0
0.02367	-0
0.02733	-0
0.03100	-0
0.03467	-1
0.03833	-1
0.04200	-1
0.04567	-1
0.04933	-2
0.05300	-2
0.05667	-2
0.06033	-2
0.06400	-2
0.06767	-2
0.07133	-2
0.07500	-2
0.07867	-2
0.08233	-1
0.08600	-1
0.08967	-1
0.09333	-0
0.09700	-0
0.10067	-0
0.10433	-0
0.10800	-0
0.11167	-0
0.11533	-0
0.11900	-0
0.12267	-0
0.12633	-0
0.13000	-0
0.13367	-0
0.13733	-0
0.14100	-0
0.14467	-0
0.14833	0
0.15200	0
0.15567	0
0.15933	0
0.16300	0
0.16667	0
0.17033	1
0.17400	1
0.17767	1
0.18133	1
0.18500	1
0.18867	1
0.19233	1
0.19600	1
0.19967	1
0.20333	1
0.20700	1
0.21067	0
0.21433	0
0.21800	0
0.22167	0
0.22533	0
0.22900	0
0.23267	0
0.23633	0
0.24000	0
0.24367	0
0.24733	0
0.25100	0
0.25467	0
0.25833	-0
0.26200	-0
0.26567	-0
0.26933	-0
0.27300	-0
0.27667	-0
0.28033	-0
0.28400	-0
0.28767	-0
0.29133	-0
0.29500	-0
0.29867	-0
0.30233	0
0.30600	0
0.30967	0
0.31333	1
0.31700	1
0.32067	1
0.32433	1
0.32800	1
0.33167	1
0.33533	0
0.33900	0
0.34267	-0
0.34633	-0
0.35000	-1
0.35367	-1
0.35733	-1
0.36100	-1
0.36467	-1
0.36833	-2
0.37200	-2
0.37567	-2
0.37933	-2
0.38300	-2
0.38667	-2
0.39033	-2
0.39400	-2
0.39767	-2
0.40133	-2
0.40500	-2
0.40867	-2
0.41233	-2
0.41600	-2
0.41967	-2
0.42333	-2
0.42700	-2
0.43067	-2
0.43433	-2
0.43800	-2
0.44167	-2
0.44533	-2
0.44900	-2
0.45267	-2
0.45633	-2
0.46000	-2
0.46367	-2
0.46733	-2
0.47100	-2
0.47467	-2
0.47833	-2
0.48200	-2
0.48567	-2
0.48933	-2
0.49300	-2
0.49667	-2
0.50033	-2
0.50400	-2
0.50767	-2
0.51133	-2
0.51500	-2
0.51867	-3
0.52233	-3
0.52600	-3
0.52967	-2
0.53333	-2
0.53700	-2
0.54067	-2
0.54433	-2
0.54800	-2
0.55167	-2
0.55533	-1
0.55900	-1
0.56267	-1
0.56633	-1
0.57000	-1
0.57367	-1
0.57733	-1
0.58100	-1
0.58467	-1
0.58833	-2
0.59200	-2
0.59567	-2
0.59933	-2
0.60300	-2
0.60667	-3
0.61033	-3
0.61400	-2
0.61767	-2
0.62133	-2
0.62500	-2
0.62867	-2
0.63233	-2
0.63600	-2
0.63967	-2
0.64333	-2
0.64700	-2
0.65067	-1
0.65433	-1
0.65800	-1
0.66167	-2
0.66533	-2
0.66900	-2
0.67267	-2
0.67633	-2
0.68000	-2
0.68367	-2
0.68733	-2
0.69100	-2
0.69467	-2
0.69833	-2
0.70200	-2
0.70567	-2
0.70933	-2
0.71300	-2
0.71667	-2
0.72033	-2
0.72400	-3
0.72767	-3
0.73133	-3
0.73500	-3
0.73867	-4
0.74233	-4
0.74600	-4
0.74967	-4
0.75333	-3
0.75700	-3
0.76067	-3
0.76433	-3
0.76800	-3
0.77167	-3
0.77533	-3
0.77900	-4
0.78267	-4
0.78633	-4
0.79000	-4
0.79367	-4
0.79733	-4
0.80100	-4
0.80467	-4
0.80833	-4
0.81200	-3
0.81567	-3
0.81933	-3
0.82300	-2
0.82667	-2
0.83033	-2
0.83400	-2
0.83767	-2
0.84133	-2
0.84500	-2
0.84867	-2
0.85233	-2
0.85600	-2
0.85967	-2
0.86333	-2
0.86700	-2
0.87067	-2
0.87433	-3
0.87800	-3
0.88167	-3
0.88533	-3
0.88900	-3
0.89267	-3
0.89633	-3
0.90000	-2
0.90367	-2
0.90733	-2
0.91100	-2
0.91467	-2
0.91833	-2
0.92200	-2
0.92567	-2
0.92933	-3
0.93300	-3
0.93667	-3
0.94033	-3
0.94400	-3
0.94767	-2
0.95133	-2
0.95500	-2
0.95867	-2
0.96233	-2
0.96600	-2
0.96967	-2
0.97333	-3
0.97700	-3
0.98067	-3
0.98433	-3
0.98800	-3
0.99167	-3
0.99533	-3
0.99900	-3
1.00267	-3
1.00633	-3
1.01000	-3
1.01367	-3
1.01733	-4
1.02100	-4
1.02467	-4
1.02833	-4
1.03200	-4
1.03567	-4
1.03933	-5
1.04300	-5
1.04667	-5
1.05033	-5
1.05400	-5
1.05767	-5
1.06133	-5
1.06500	-5
1.06867	-5
1.07233	-5
1.07600	-4
1.07967	-4
1.08333	-4
1.08700	-4
1.09067	-4
1.09433	-4
1.09800	-4
1.10167	-4
1.10533	-4
1.10900	-4
1.11267	-4
1.11633	-3
1.12000	-3
1.12367	-3
1.12733	-3
1.13100	-3
1.13467	-4
1.13833	-4
1.14200	-4
1.14567	-4
1.14933	-4
1.15300	-4
1.15667	-4
1.16033	-4
1.16400	-4
1.16767	-4
1.17133	-4
1.17500	-4
1.17867	-4
1.18233	-4
1.18600	-4
1.18967	-4
1.19333	-4
1.19700	-4
1.20067	-4
1.20433	-4
1.20800	-4
1.21167	-4
1.21533	-4
1.21900	-4
1.22267	-4
1.22633	-4
1.23000	-4
1.23367	-5
1.23733	-5
1.24100	-5
1.24467	-5
1.24833	-5
1.25200	-5
1.25567	-5
1.25933	-5
1.26300	-5
1.26667	-5
1.27033	-5
1.27400	-5
1.27767	-5
1.28133	-5
1.28500	-4
1.28867	-4
1.29233	-4
1.29600	-4
1.29967	-4
1.30333	-4
1.30700	-5
1.31067	-5
1.31433	-5
1.31800	-5
1.32167	-5
1.32533	-5
1.32900	-5
1.33267	-4
1.33633	-5
1.34000	-5
1.34367	-5
1.34733	-5
1.35100	-5
1.35467	-5
1.35833	-5
1.36200	-5
1.36567	-5
1.36933	-5
1.37300	-5
1.37667	-5
1.38033	-5
1.38400	-5
1.38767	-5
1.39133	-5
1.39500	-5
1.39867	-5
1.40233	-4
1.40600	-4
1.40967	-4
1.41333	-4
1.41700	-4
1.42067	-4
1.42433	-4
1.42800	-4
1.43167	-4
1.43533	-4
1.43900	-4
1.44267	-4
1.44633	-4
1.45000	-4
1.45367	-4
1.45733	-4
1.46100	-4
1.46467	-4
1.46833	-4
1.47200	-4
1.47567	-5
1.47933	-5
1.48300	-5
1.48667	-5
1.49033	-5
1.49400	-5
1.49767	-5
1.50133	-5
1.50500	-5
1.50867	-5
1.51233	-5
1.51600	-5
1.51967	-5
1.52333	-5
1.52700	-5
1.53067	-5
1.53433	-5
1.53800	-5
1.54167	-5
1.54533	-5
1.54900	-6
1.55267	-6
1.55633	-6
1.56000	-7
1.56367	-7
1.56733	-7
1.57100	-8
1.57467	-8
1.57833	-8
1.58200	-8
1.58567	-8
1.58933	-8
1.59300	-8
1.59667	-8
1.60033	-8
1.60400	-9
1.60767	-10
1.61133	-11
1.61500	-13
1.61867	-15
1.62233	-18
1.62600	-21
1.62967	-24
1.63333	-27
1.63700	-30
1.64067	-34
1.64433	-38
1.64800	-41
1.65167	-45
1.65533	-49
1.65900	-52
1.66267	-56
1.66633	-60
1.67000	-64
1.67367	-69
1.67733	-74
1.68100	-79
1.68467	-85
1.68833	-90
1.69200	-95
1.69567	-99
1.69933	-103
1.70300	-106
1.70667	-108
1.71033	-110
1.71400	-111
1.71767	-112
1.72133	-113
1.72500	-114
1.72867	-114
1.73233	-114
1.73600	-114
1.73967	-115
1.74333	-115
1.74700	-116
1.75067	-116
1.75433	-116
1.75800	-116
1.76167	-116
1.76533	-116
1.76900	-116
1.77267	-117
1.77633	-117
1.78000	-118
1.78367	-119
1.78733	-120
1.79100	-120
1.79467	-120
1.79833	-121
1.80200	-121
1.80567	-121
1.80933	-122
1.81300	-122
1.81667	-122
1.82033	-122
1.82400	-123
1.82767	-123
1.83133	-123
1.83500	-123
1.83867	-123
1.84233	-123
1.84600	-123
1.84967	-123
1.85333	-123
1.85700	-123
1.86067	-123
1.86433	-122
1.86800	-122
1.87167	-122
1.87533	-122
1.87900	-122
1.88267	-122
1.88633	-122
1.89000	-122
1.89367	-122
1.89733	-122
1.90100	-122
1.90467	-121
1.90833	-121
1.91200	-120
1.91567	-119
1.91933	-119
1.92300	-118
1.92667	-118
1.93033	-118
1.93400	-117
1.93767	-117
1.94133	-117
1.94500	-117
1.94867	-118
1.95233	-118
1.95600	-118
1.95967	-119
1.96333	-119
1.96700	-119
1.97067	-118
1.97433	-118
1.97800	-117
1.98167	-116
1.98533	-115
1.98900	-115
1.99267	-115
1.99633	-115
2.00000	-115
2.00367	-115
2.00733	-114
2.01100	-114
2.01467	-114
2.01833	-114
2.02200	-113
2.02567	-113
2.02933	-113
2.03300	-112
2.03667	-111
2.04033	-110
2.04400	-109
2.04767	-108
2.05133	-108
2.05500	-108
2.05867	-108
2.06233	-108
2.06600	-108
2.06967	-108
2.07333	-109
2.07700	-109
2.08067	-109
2.08433	-109
2.08800	-109
2.09167	-108
2.09533	-108
2.09900	-108
2.10267	-107
2.10633	-107
2.11000	-107
2.11367	-106
2.11733	-106
2.12100	-105
2.12467	-105
2.12833	-104
2.13200	-104
2.13567	-103
2.13933	-102
2.14300	-102
2.14667	-101
2.15033	-101
2.15400	-100
2.15767	-99
2.16133	-99
2.16500	-98
2.16867	-98
2.17233	-97
2.17600	-97
2.17967	-97
2.18333	-97
2.18700	-98
2.19067	-97
2.19433	-97
2.19800	-97
2.20167	-96
2.20533	-96
2.20900	-96
2.21267	-96
2.21633	-97
2.22000	-98
2.22367	-98
2.22733	-99
2.23100	-99
2.23467	-98
2.23833	-98
2.24200	-97
2.24567	-96
2.24933	-96
2.25300	-96
2.25667	-96
2.26033	-96
2.26400	-96
2.26767	-97
2.27133	-97
2.27500	-97
2.27867	-97
2.28233	-96
2.28600	-95
2.28967	-94
2.29333	-93
2.29700	-92
2.30067	-92
2.30433	-91
2.30800	-90
2.31167	-89
2.31533	-89
2.31900	-89
2.32267	-88
2.32633	-88
2.33000	-88
2.33367	-88
2.33733	-88
2.34100	-88
2.34467	-89
2.34833	-89
2.35200	-89
2.35567	-89
2.35933	-88
2.36300	-87
2.36667	-85
2.37033	-83
2.37400	-80
2.37767	-77
2.38133	-73
2.38500	-69
2.38867	-65
2.39233	-61
2.39600	-56
2.39967	-52
2.40333	-47
2.40700	-42
2.41067	-38
2.41433	-34
2.41800	-31
2.42167	-28
2.42533	-26
2.42900	-24
2.43267	-21
2.43633	-19
2.44000	-17
2.44367	-15
2.44733	-13
2.45100	-11
2.45467	-9
2.45833	-8
2.46200	-6
2.46567	-5
2.46933	-4
2.47300	-2
2.47667	-1
2.48033	0
2.48400	2
2.48767	3
2.49133	4
2.49500	5
2.49867	5
2.50233	5
2.50600	5
2.50967	6
2.51333	6
2.51700	6
2.52067	6
2.52433	7
2.52800	8
2.53167	8
2.53533	9
2.53900	9
2.54267	10
2.54633	11
2.55000	11
2.55367	12
2.55733	12
2.56100	12
2.56467	12
2.56833	12
2.57200	12
2.57567	12
2.57933	11
2.58300	11
2.58667	12
2.59033	12
2.59400	13
2.59767	14
2.60133	14
2.60500	14
2.60867	14
2.61233	14
2.61600	13
2.61967	13
2.62333	13
2.62700	13
2.63067	13
2.63433	13
2.63800	14
2.64167	14
2.64533	15
2.64900	15
2.65267	15
2.65633	15
2.66000	16
2.66367	16
2.66733	16
2.67100	17
2.67467	17
2.67833	17
2.68200	18
2.68567	18
2.68933	19
2.69300	19
2.69667	20
2.70033	20
2.70400	20
2.70767	19
2.71133	19
2.71500	19
2.71867	18
2.72233	18
2.72600	18
2.72967	18
2.73333	18
2.73700	18
2.74067	19
2.74433	19
2.74800	20
2.75167	20
2.75533	20
2.75900	21
2.76267	21
2.76633	21
2.77000	22
2.77367	22
2.77733	23
2.78100	23
2.78467	23
2.78833	24
2.79200	24
2.79567	24
2.79933	24
2.80300	24
2.80667	24
2.81033	23
2.81400	23
2.81767	23
2.82133	23
2.82500	23
2.82867	23
2.83233	23
2.83600	23
2.83967	23
2.84333	23
2.84700	23
2.85067	22
2.85433	20
2.85800	16
2.86167	10
2.86533	2
2.86900	-11
2.87267	-27
2.87633	-48
2.88000	-73
2.88367	-104
2.88733	-141
2.89100	-182
2.89467	-229
2.89833	-281
2.90200	-337
2.90567	-398
2.90933	-463
2.91300	-532
2.91667	-603
2.92033	-678
2.92400	-756
2.92767	-836
2.93133	-919
2.93500	-1003
2.93867	-1090
2.94233	-1178
2.94600	-1267
2.94967	-1358
2.95333	-1445
2.95700	-1517
2.96067	-1560
2.96433	-1569
2.96800	-1542
2.97167	-1483
2.97533	-1400
2.97900	-1301
2.98267	-1191
2.98633	-1079
2.99000	-968
2.99367	-861
2.99733	-761
3.00100	-668
3.00467	-584
3.00833	-508
3.01200	-441
3.01567	-381
3.01933	-329
3.02300	-283
3.02667	-243
3.03033	-208
3.03400	-178
3.03767	-152
3.04133	-130
3.04500	-111
3.04867	-94
3.05233	-80
3.05600	-68
3.05967	-58
3.06333	-49
3.06700	-41
3.07067	-34
3.07433	-29
3.07800	-24
3.08167	-20
3.08533	-16
3.08900	-13
3.09267	-11
3.09633	-9
3.10000	-7
3.10367	-5
3.10733	-4
3.11100	-2
3.11467	-1
3.11833	-0
3.12200	1
3.12567	2
3.12933	3
3.13300	4
3.13667	5
3.14033	6
3.14400	7
3.14767	8
3.15133	8
3.15500	9
3.15867	10
3.16233	10
3.16600	11
3.16967	12
3.17333	12
3.17700	12
3.18067	13
3.18433	13
3.18800	13
3.19167	13
3.19533	13
3.19900	13
3.20267	13
3.20633	14
3.21000	14
3.21367	14
3.21733	15
3.22100	15
3.22467	15
3.22833	15
3.23200	16
3.23567	16
3.23933	16
3.24300	16
3.24667	16
3.25033	16
3.25400	16
3.25767	17
3.26133	17
3.26500	18
3.26867	18
3.27233	18
3.27600	18
3.27967	18
3.28333	19
3.28700	19
3.29067	19
3.29433	20
3.29800	20
3.30167	20
3.30533	21
3.30900	21
3.31267	22
3.31633	22
3.32000	23
3.32367	23
3.32733	23
3.33100	23
3.33467	23
3.33833	23
3.34200	23
3.34567	23
3.34933	23
3.35300	24
3.35667	24
3.36033	24
3.36400	25
3.36767	25
3.37133	25
3.37500	24
3.37867	24
3.38233	24
3.38600	24
3.38967	24
3.39333	24
3.39700	23
3.40067	23
3.40433	23
3.40800	23
3.41167	23
3.41533	23
3.41900	23
3.42267	23
3.42633	23
3.43000	23
3.43367	23
3.43733	23
3.44100	23
3.44467	23
3.44833	23
3.45200	23
3.45567	23
3.45933	23
3.46300	23
3.46667	23
3.47033	23
3.47400	23
3.47767	23
3.48133	23
3.48500	23
3.48867	23
3.49233	23
3.49600	23
3.49967	23
3.50333	23
3.50700	23
3.51067	23
3.51433	23
3.51800	23
3.52167	23
3.52533	23
3.52900	23
3.53267	23
3.53633	23
3.54000	23
3.54367	23
3.54733	23
3.55100	23
3.55467	23
3.55833	23
3.56200	23
3.56567	22
3.56933	22
3.57300	22
3.57667	22
3.58033	22
3.58400	22
3.58767	22
3.59133	22
3.59500	22
3.59867	22
3.60233	22
3.60600	22
3.60967	22
3.61333	21
3.61700	21
3.62067	21
3.62433	21
3.62800	21
3.63167	22
3.63533	22
3.63900	22
3.64267	22
3.64633	22
3.65000	22
3.65367	22
3.65733	22
3.66100	22
3.66467	23
3.66833	23
3.67200	23
3.67567	23
3.67933	24
3.68300	24
3.68667	24
3.69033	23
3.69400	23
3.69767	23
3.70133	23
3.70500	22
3.70867	22
3.71233	21
3.71600	21
3.71967	21
3.72333	21
3.72700	22
3.73067	22
3.73433	22
3.73800	22
3.74167	22
3.74533	23
3.74900	23
3.75267	23
3.75633	22
3.76000	22
3.76367	22
3.76733	22
3.77100	22
3.77467	22
3.77833	22
3.78200	22
3.78567	22
3.78933	22
3.79300	22
3.79667	22
3.80033	22
3.80400	22
3.80767	22
3.81133	22
3.81500	22
3.81867	22
3.82233	22
3.82600	22
3.82967	23
3.83333	23
3.83700	23
3.84067	23
3.84433	23
3.84800	22
3.85167	22
3.85533	23
3.85900	23
3.86267	23
3.86633	23
3.87000	23
3.87367	23
3.87733	23
3.88100	23
3.88467	23
3.88833	23
3.89200	23
3.89567	23
3.89933	22
3.90300	22
3.90667	22
3.91033	22
3.91400	22
3.91767	22
3.92133	22
3.92500	22
3.92867	22
3.93233	22
3.93600	22
3.93967	22
3.94333	22
3.94700	22
3.95067	22
3.95433	22
3.95800	22
3.96167	22
3.96533	22
3.96900	22
3.97267	22
3.97633	22
3.98000	21
3.98367	21
3.98733	21
3.99100	21
3.99467	21
3.99833	22

[Chromatogram (Ch3)]
Interval(msec)	220
# of Points	1091
Start Time(min)	0.002
End Time(min)	3.998
R.Time (min)	Intensity
0.00167	1
0.00533	0
0.00900	-0
0.01267	1
0.01633	2
0.02000	3
0.02367	5
0.02733	6
0.03100	6
0.03467	4
0.03833	2
0.04200	2
0.04567	3
0.04933	4
0.05300	3
0.05667	0
0.06033	1
0.06400	1
0.06767	3
0.07133	4
0.07500	4
0.07867	2
0.08233	1
0.08600	2
0.08967	4
0.09333	5
0.09700	7
0.10067	8
0.10433	9
0.10800	9
0.11167	9
0.11533	10
0.11900	11
0.12267	13
0.12633	12
0.13000	11
0.13367	10
0.13733	10
0.14100	10
0.14467	10
0.14833	9
0.15200	9
0.15567	8
0.15933	8
0.16300	7
0.16667	6
0.17033	4
0.17400	3
0.17767	1
0.18133	-0
0.18500	0
0.18867	2
0.19233	6
0.19600	8
0.19967	8
0.20333	8
0.20700	7
0.21067	6
0.21433	6
0.21800	8
0.22167	7
0.22533	5
0.22900	6
0.23267	7
0.23633	8
0.24000	9
0.24367	9
0.24733	8
0.25100	8
0.25467	8
0.25833	10
0.26200	11
0.26567	10
0.26933	10
0.27300	8
0.27667	6
0.28033	4
0.28400	5
0.28767	9
0.29133	10
0.29500	10
0.29867	10
0.30233	10
0.30600	10
0.30967	9
0.31333	7
0.31700	6
0.32067	4
0.32433	3
0.32800	2
0.33167	3
0.33533	5
0.33900	6
0.34267	8
0.34633	11
0.35000	12
0.35367	12
0.35733	11
0.36100	9
0.36467	8
0.36833	9
0.37200	11
0.37567	11
0.37933	10
0.38300	7
0.38667	6
0.39033	7
0.39400	8
0.39767	10
0.40133	11
0.40500	13
0.40867	13
0.41233	14
0.41600	16
0.41967	16
0.42333	16
0.42700	15
0.43067	13
0.43433	12
0.43800	11
0.44167	10
0.44533	8
0.44900	7
0.45267	9
0.45633	9
0.46000	8
0.46367	6
0.46733	5
0.47100	7
0.47467	9
0.47833	8
0.48200	8
0.48567	8
0.48933	8
0.49300	7
0.49667	4
0.50033	2
0.50400	4
0.50767	9
0.51133	8
0.51500	9
0.51867	10
0.52233	10
0.52600	11
0.52967	13
0.53333	12
0.53700	10
0.54067	9
0.54433	7
0.54800	6
0.55167	6
0.55533	8
0.55900	10
0.56267	11
0.56633	13
0.57000	11
0.57367	9
0.57733	9
0.58100	9
0.58467	9
0.58833	9
0.59200	9
0.59567	10
0.59933	9
0.60300	9
0.60667	9
0.61033	8
0.61400	7
0.61767	6
0.62133	6
0.62500	7
0.62867	6
0.63233	6
0.63600	5
0.63967	5
0.64333	7
0.64700	11
0.65067	10
0.65433	10
0.65800	10
0.66167	9
0.66533	7
0.66900	8
0.67267	8
0.67633	7
0.68000	7
0.68367	8
0.68733	10
0.69100	10
0.69467	10
0.69833	11
0.70200	12
0.70567	14
0.70933	15
0.71300	15
0.71667	15
0.72033	13
0.72400	13
0.72767	12
0.73133	10
0.73500	9
0.73867	8
0.74233	8
0.74600	8
0.74967	9
0.75333	8
0.75700	7
0.76067	6
0.76433	6
0.76800	6
0.77167	6
0.77533	9
0.77900	12
0.78267	12
0.78633	13
0.79000	12
0.79367	11
0.79733	9
0.80100	10
0.80467	10
0.80833	10
0.81200	8
0.81567	6
0.81933	4
0.82300	3
0.82667	7
0.83033	9
0.83400	12
0.83767	13
0.84133	14
0.84500	13
0.84867	11
0.85233	10
0.85600	10
0.85967	12
0.86333	12
0.86700	11
0.87067	9
0.87433	8
0.87800	9
0.88167	8
0.88533	8
0.88900	10
0.89267	12
0.89633	13
0.90000	14
0.90367	13
0.90733	15
0.91100	15
0.91467	15
0.91833	13
0.92200	11
0.92567	7
0.92933	5
0.93300	4
0.93667	4
0.94033	5
0.94400	7
0.94767	8
0.95133	9
0.95500	9
0.95867	10
0.96233	11
0.96600	11
0.96967	10
0.97333	11
0.97700	8
0.98067	5
0.98433	4
0.98800	5
0.99167	6
0.99533	7
0.99900	7
1.00267	9
1.00633	10
1.01000	11
1.01367	11
1.01733	10
1.02100	11
1.02467	10
1.02833	10
1.03200	10
1.03567	8
1.03933	6
1.04300	5
1.04667	4
1.05033	3
1.05400	4
1.05767	6
1.06133	7
1.06500	8
1.06867	7
1.07233	7
1.07600	9
1.07967	12
1.08333	11
1.08700	8
1.09067	6
1.09433	7
1.09800	7
1.10167	6
1.10533	9
1.10900	10
1.11267	8
1.11633	6
1.12000	4
1.12367	3
1.12733	4
1.13100	6
1.13467	7
1.13833	9
1.14200	9
1.14567	7
1.14933	4
1.15300	4
1.15667	6
1.16033	8
1.16400	8
1.16767	7
1.17133	8
1.17500	10
1.17867	9
1.18233	8
1.18600	8
1.18967	7
1.19333	8
1.19700	7
1.20067	6
1.20433	9
1.20800	11
1.21167	13
1.21533	13
1.21900	12
1.22267	11
1.22633	9
1.23000	10
1.23367	11
1.23733	10
1.24100	11
1.24467	12
1.24833	12
1.25200	12
1.25567	11
1.25933	8
1.26300	6
1.26667	5
1.27033	5
1.27400	4
1.27767	2
1.28133	3
1.28500	5
1.28867	5
1.29233	5
1.29600	5
1.29967	5
1.30333	6
1.30700	7
1.31067	8
1.31433	9
1.31800	9
1.32167	8
1.32533	9
1.32900	9
1.33267	8
1.33633	9
1.34000	8
1.34367	7
1.34733	6
1.35100	5
1.35467	3
1.35833	1
1.36200	1
1.36567	4
1.36933	6
1.37300	7
1.37667	8
1.38033	7
1.38400	4
1.38767	2
1.39133	4
1.39500	5
1.39867	5
1.40233	5
1.40600	7
1.40967	10
1.41333	11
1.41700	9
1.42067	6
1.42433	6
1.42800	5
1.43167	4
1.43533	3
1.43900	3
1.44267	2
1.44633	3
1.45000	4
1.45367	5
1.45733	6
1.46100	8
1.46467	8
1.46833	6
1.47200	4
1.47567	5
1.47933	6
1.48300	5
1.48667	3
1.49033	3
1.49400	2
1.49767	1
1.50133	-1
1.50500	1
1.50867	3
1.51233	4
1.51600	5
1.51967	6
1.52333	6
1.52700	8
1.53067	10
1.53433	11
1.53800	9
1.54167	5
1.54533	4
1.54900	3
1.55267	6
1.55633	9
1.56000	9
1.56367	8
1.56733	7
1.57100	9
1.57467	10
1.57833	10
1.58200	11
1.58567	10
1.58933	7
1.59300	4
1.59667	5
1.60033	7
1.60400	6
1.60767	4
1.61133	5
1.61500	6
1.61867	8
1.62233	8
1.62600	8
1.62967	8
1.63333	10
1.63700	13
1.64067	14
1.64433	16
1.64800	18
1.65167	19
1.65533	17
1.65900	17
1.66267	16
1.66633	17
1.67000	16
1.67367	14
1.67733	14
1.68100	17
1.68467	17
1.68833	16
1.69200	17
1.69567	20
1.69933	20
1.70300	21
1.70667	21
1.71033	21
1.71400	22
1.71767	23
1.72133	23
1.72500	25
1.72867	24
1.73233	23
1.73600	24
1.73967	24
1.74333	22
1.74700	21
1.75067	23
1.75433	26
1.75800	27
1.76167	26
1.76533	24
1.76900	25
1.77267	26
1.77633	31
1.78000	31
1.78367	30
1.78733	30
1.79100	30
1.79467	30
1.79833	30
1.80200	29
1.80567	27
1.80933	29
1.81300	33
1.81667	35
1.82033	37
1.82400	40
1.82767	41
1.83133	40
1.83500	41
1.83867	40
1.84233	39
1.84600	36
1.84967	36
1.85333	37
1.85700	38
1.86067	37
1.86433	36
1.86800	34
1.87167	33
1.87533	33
1.87900	34
1.88267	36
1.88633	39
1.89000	41
1.89367	42
1.89733	44
1.90100	46
1.90467	48
1.90833	52
1.91200	55
1.91567	55
1.91933	55
1.92300	55
1.92667	54
1.93033	52
1.93400	53
1.93767	53
1.94133	54
1.94500	55
1.94867	58
1.95233	59
1.95600	59
1.95967	61
1.96333	63
1.96700	64
1.97067	65
1.97433	67
1.97800	67
1.98167	68
1.98533	69
1.98900	69
1.99267	67
1.99633	65
2.00000	66
2.00367	68
2.00733	68
2.01100	68
2.01467	69
2.01833	72
2.02200	74
2.02567	76
2.02933	76
2.03300	76
2.03667	78
2.04033	80
2.04400	79
2.04767	79
2.05133	79
2.05500	82
2.05867	83
2.06233	82
2.06600	82
2.06967	83
2.07333	84
2.07700	85
2.08067	87
2.08433	88
2.08800	87
2.09167	87
2.09533	87
2.09900	86
2.10267	87
2.10633	91
2.11000	94
2.11367	95
2.11733	94
2.12100	94
2.12467	95
2.12833	94
2.13200	94
2.13567	95
2.13933	97
2.14300	100
2.14667	101
2.15033	103
2.15400	104
2.15767	106
2.16133	108
2.16500	110
2.16867	112
2.17233	112
2.17600	111
2.17967	109
2.18333	110
2.18700	113
2.19067	115
2.19433	115
2.19800	114
2.20167	115
2.20533	115
2.20900	118
2.21267	120
2.21633	121
2.22000	122
2.22367	123
2.22733	124
2.23100	125
2.23467	126
2.23833	124
2.24200	125
2.24567	128
2.24933	129
2.25300	130
2.25667	131
2.26033	133
2.26400	134
2.26767	135
2.27133	136
2.27500	137
2.27867	138
2.28233	138
2.28600	138
2.28967	138
2.29333	139
2.29700	140
2.30067	140
2.30433	139
2.30800	140
2.31167	141
2.31533	143
2.31900	143
2.32267	145
2.32633	147
2.33000	148
2.33367	150
2.33733	148
2.34100	147
2.34467	148
2.34833	151
2.35200	157
2.35567	158
2.35933	157
2.36300	160
2.36667	159
2.37033	158
2.37400	159
2.37767	161
2.38133	163
2.38500	165
2.38867	164
2.39233	165
2.39600	167
2.39967	170
2.40333	173
2.40700	175
2.41067	176
2.41433	180
2.41800	185
2.42167	190
2.42533	193
2.42900	194
2.43267	192
2.43633	191
2.44000	191
2.44367	217
2.44733	281
2.45100	351
2.45467	399
2.45833	411
2.46200	406
2.46567	402
2.46933	393
2.47300	376
2.47667	350
2.48033	318
2.48400	287
2.48767	262
2.49133	244
2.49500	234
2.49867	233
2.50233	236
2.50600	241
2.50967	246
2.51333	244
2.51700	234
2.52067	219
2.52433	199
2.52800	182
2.53167	168
2.53533	156
2.53900	145
2.54267	137
2.54633	129
2.55000	123
2.55367	120
2.55733	118
2.56100	118
2.56467	120
2.56833	124
2.57200	131
2.57567	137
2.57933	143
2.58300	152
2.58667	161
2.59033	170
2.59400	176
2.59767	179
2.60133	175
2.60500	164
2.60867	143
2.61233	113
2.61600	74
2.61967	28
2.62333	-21
2.62700	-71
2.63067	-114
2.63433	-152
2.63800	-184
2.64167	-209
2.64533	-228
2.64900	-240
2.65267	-249
2.65633	-252
2.66000	-250
2.66367	-245
2.66733	-239
2.67100	-230
2.67467	-219
2.67833	-210
2.68200	-200
2.68567	-192
2.68933	-183
2.69300	-172
2.69667	-161
2.70033	-151
2.70400	-141
2.70767	-133
2.71133	-124
2.71500	-114
2.71867	-107
2.72233	-100
2.72600	-93
2.72967	-87
2.73333	-78
2.73700	-70
2.74067	-64
2.74433	-60
2.74800	-57
2.75167	-53
2.75533	-46
2.75900	-37
2.76267	-28
2.76633	-20
2.77000	-15
2.77367	-9
2.77733	-5
2.78100	-0
2.78467	3
2.78833	6
2.79200	9
2.79567	11
2.79933	12
2.80300	14
2.80667	17
2.81033	20
2.81400	21
2.81767	22
2.82133	28
2.82500	47
2.82867	104
2.83233	239
2.83600	508
2.83967	979
2.84333	1720
2.84700	2776
2.85067	4161
2.85433	5831
2.85800	7697
2.86167	9643
2.86533	11530
2.86900	13210
2.87267	14555
2.87633	15476
2.88000	15938
2.88367	15956
2.88733	15585
2.89100	14908
2.89467	14008
2.89833	12966
2.90200	11854
2.90567	10725
2.90933	9625
2.91300	8584
2.91667	7610
2.92033	6717
2.92400	5909
2.92767	5182
2.93133	4533
2.93500	3954
2.93867	3443
2.94233	2990
2.94600	2592
2.94967	2243
2.95333	1938
2.95700	1674
2.96067	1443
2.96433	1243
2.96800	1071
2.97167	922
2.97533	793
2.97900	682
2.98267	587
2.98633	506
2.99000	433
2.99367	370
2.99733	316
3.00100	272
3.00467	235
3.00833	204
3.01200	176
3.01567	155
3.01933	138
3.02300	121
3.02667	103
3.03033	90
3.03400	81
3.03767	71
3.04133	61
3.04500	54
3.04867	48
3.05233	44
3.05600	42
3.05967	39
3.06333	37
3.06700	38
3.07067	37
3.07433	32
3.07800	30
3.08167	30
3.08533	30
3.08900	30
3.09267	28
3.09633	29
3.10000	32
3.10367	34
3.10733	35
3.11100	35
3.11467	34
3.11833	33
3.12200	31
3.12567	32
3.12933	35
3.13300	38
3.13667	40
3.14033	40
3.14400	40
3.14767	42
3.15133	43
3.15500	45
3.15867	44
3.16233	44
3.16600	44
3.16967	46
3.17333	49
3.17700	50
3.18067	52
3.18433	53
3.18800	56
3.19167	59
3.19533	62
3.19900	65
3.20267	67
3.20633	68
3.21000	68
3.21367	67
3.21733	67
3.22100	67
3.22467	68
3.22833	71
3.23200	75
3.23567	79
3.23933	78
3.24300	78
3.24667	77
3.25033	75
3.25400	74
3.25767	75
3.26133	77
3.26500	78
3.26867	79
3.27233	77
3.27600	76
3.27967	75
3.28333	74
3.28700	72
3.29067	70
3.29433	71
3.29800	73
3.30167	74
3.30533	73
3.30900	70
3.31267	68
3.31633	69
3.32000	69
3.32367	67
3.32733	63
3.33100	61
3.33467	61
3.33833	62
3.34200	63
3.34567	64
3.34933	64
3.35300	64
3.35667	63
3.36033	60
3.36400	59
3.36767	58
3.37133	55
3.37500	50
3.37867	42
3.38233	36
3.38600	29
3.38967	23
3.39333	20
3.39700	22
3.40067	28
3.40433	35
3.40800	45
3.41167	57
3.41533	71
3.41900	86
3.42267	101
3.42633	116
3.43000	132
3.43367	146
3.43733	160
3.44100	175
3.44467	191
3.44833	208
3.45200	226
3.45567	241
3.45933	253
3.46300	263
3.46667	276
3.47033	287
3.47400	296
3.47767	302
3.48133	307
3.48500	310
3.48867	311
3.49233	312
3.49600	316
3.49967	322
3.50333	323
3.50700	323
3.51067	324
3.51433	325
3.51800	328
3.52167	327
3.52533	328
3.52900	329
3.53267	330
3.53633	332
3.54000	331
3.54367	330
3.54733	330
3.55100	332
3.55467	334
3.55833	336
3.56200	337
3.56567	337
3.56933	338
3.57300	340
3.57667	342
3.58033	342
3.58400	344
3.58767	348
3.59133	353
3.59500	354
3.59867	354
3.60233	354
3.60600	355
3.60967	356
3.61333	357
3.61700	357
3.62067	356
3.62433	355
3.62800	355
3.63167	354
3.63533	354
3.63900	354
3.64267	354
3.64633	353
3.65000	354
3.65367	356
3.65733	358
3.66100	358
3.66467	355
3.66833	352
3.67200	349
3.67567	347
3.67933	346
3.68300	343
3.68667	343
3.69033	343
3.69400	343
3.69767	342
3.70133	344
3.70500	345
3.70867	346
3.71233	347
3.71600	346
3.71967	343
3.72333	342
3.72700	341
3.73067	339
3.73433	337
3.73800	338
3.74167	337
3.74533	337
3.74900	337
3.75267	336
3.75633	336
3.76000	337
3.76367	339
3.76733	339
3.77100	337
3.77467	333
3.77833	331
3.78200	330
3.78567	329
3.78933	329
3.79300	328
3.79667	325
3.80033	323
3.80400	324
3.80767	326
3.81133	327
3.81500	325
3.81867	324
3.82233	323
3.82600	321
3.82967	321
3.83333	320
3.83700	317
3.84067	314
3.84433	312
3.84800	313
3.85167	313
3.85533	312
3.85900	311
3.86267	311
3.86633	311
3.87000	308
3.87367	308
3.87733	311
3.88100	311
3.88467	310
3.88833	308
3.89200	307
3.89567	306
3.89933	306
3.90300	306
3.90667	306
3.91033	305
3.91400	303
3.91767	302
3.92133	302
3.92500	302
3.92867	302
3.93233	302
3.93600	302
3.93967	302
3.94333	302
3.94700	301
3.95067	300
3.95433	298
3.95800	298
3.96167	298
3.96533	297
3.96900	296
3.97267	294
3.97633	294
3.98000	295
3.98367	295
3.98733	296
3.99100	296
3.99467	297
3.99833	294

[Status Trace (Column Oven Temperature)]
Interval(msec)	1000
# of Points	240
Start Time(min)	0.002
End Time(min)	3.985
Intensity Units	
Intensity Multiplier	1
R.Time (min)	Intensity
0.00187	35.04
0.01853	35.03
0.03520	35.04
0.05187	35.05
0.06853	35.05
0.08520	35.05
0.10187	35.05
0.11853	35.06
0.13520	35.05
0.15187	35.03
0.16853	35.02
0.18520	35.01
0.20187	35.01
0.21853	35.01
0.23520	35.00
0.25187	35.00
0.26853	35.00
0.28520	34.99
0.30187	35.00
0.31853	34.99
0.33520	34.99
0.35187	34.99
0.36853	34.99
0.38520	34.99
0.40187	34.99
0.41853	35.00
0.43520	35.00
0.45187	35.00
0.46853	35.00
0.48520	35.00
0.50187	35.00
0.51853	35.00
0.53520	35.00
0.55187	35.00
0.56853	35.00
0.58520	35.00
0.60187	34.99
0.61853	34.98
0.63520	34.98
0.65187	34.98
0.66853	34.98
0.68520	34.99
0.70187	34.99
0.71853	34.99
0.73520	35.01
0.75187	35.01
0.76853	35.01
0.78520	35.01
0.80187	35.01
0.81853	35.00
0.83520	35.00
0.85187	35.00
0.86853	35.00
0.88520	34.99
0.90187	34.98
0.91853	34.99
0.93520	34.99
0.95187	34.99
0.96853	34.99
0.98520	34.99
1.00187	35.00
1.01853	35.00
1.03520	35.01
1.05187	35.00
1.06853	35.00
1.08520	35.00
1.10187	35.00
1.11853	35.00
1.13520	35.00
1.15187	35.00
1.16853	35.00
1.18520	34.99
1.20187	34.99
1.21853	34.99
1.23520	34.99
1.25187	34.99
1.26853	34.99
1.28520	34.99
1.30187	35.00
1.31853	35.00
1.33520	34.99
1.35187	34.99
1.36853	34.99
1.38520	35.00
1.40187	35.01
1.41853	34.99
1.43520	34.99
1.45187	34.98
1.46853	34.99
1.48520	34.99
1.50187	35.00
1.51853	34.99
1.53520	34.99
1.55187	35.00
1.56853	35.00
1.58520	35.00
1.60187	35.03
1.61853	35.13
1.63520	35.29
1.65187	35.51
1.66853	35.81
1.68520	36.18
1.70187	36.55
1.71853	36.88
1.73520	37.22
1.75187	37.54
1.76853	37.87
1.78520	38.21
1.80187	38.55
1.81853	38.88
1.83520	39.21
1.85187	39.54
1.86853	39.87
1.88520	40.20
1.90187	40.54
1.91853	40.87
1.93520	41.18
1.95187	41.52
1.96853	41.83
1.98520	42.15
2.00187	42.47
2.01853	42.80
2.03520	43.12
2.05187	43.43
2.06853	43.76
2.08520	44.09
2.10187	44.41
2.11853	44.74
2.13520	45.07
2.15187	45.41
2.16853	45.69
2.18520	46.03
2.20187	46.34
2.21853	46.70
2.23520	47.02
2.25187	47.36
2.26853	47.72
2.28520	48.04
2.30187	48.35
2.31853	48.69
2.33520	49.01
2.35187	49.36
2.36853	49.61
2.38520	49.70
2.40187	49.70
2.41853	49.69
2.43520	49.69
2.45187	49.70
2.46853	49.70
2.48520	49.70
2.50187	49.72
2.51853	49.74
2.53520	49.75
2.55187	49.76
2.56853	49.78
2.58520	49.79
2.60187	49.80
2.61853	49.85
2.63520	49.85
2.65187	49.86
2.66853	49.86
2.68520	49.85
2.70187	49.85
2.71853	49.87
2.73520	49.87
2.75187	49.87
2.76853	49.87
2.78520	49.86
2.80187	49.86
2.81853	49.86
2.83520	49.86
2.85187	49.86
2.86853	49.88
2.88520	49.90
2.90187	49.92
2.91853	49.94
2.93520	49.96
2.95187	49.97
2.96853	49.98
2.98520	50.00
3.00187	50.02
3.01853	50.04
3.03520	50.04
3.05187	50.04
3.06853	50.05
3.08520	50.06
3.10187	50.07
3.11853	50.08
3.13520	50.09
3.15187	50.09
3.16853	50.09
3.18520	50.09
3.20187	50.09
3.21853	50.10
3.23520	50.10
3.25187	50.11
3.26853	50.11
3.28520	50.09
3.30187	50.08
3.31853	50.06
3.33520	50.05
3.35187	50.04
3.36853	50.03
3.38520	50.03
3.40187	50.03
3.41853	50.02
3.43520	50.01
3.45187	50.01
3.46853	50.02
3.48520	50.02
3.50187	50.03
3.51853	50.04
3.53520	50.04
3.55187	50.04
3.56853	50.04
3.58520	50.04
3.60187	50.04
3.61853	50.04
3.63520	50.05
3.65187	50.04
3.66853	50.04
3.68520	50.04
3.70187	50.05
3.71853	50.06
3.73520	50.06
3.75187	50.06
3.76853	50.07
3.78520	50.06
3.80187	50.06
3.81853	50.06
3.83520	50.06
3.85187	50.07
3.86853	50.07
3.88520	50.07
3.90187	50.07
3.91853	50.07
3.93520	50.07
3.95187	50.07
3.96853	50.08
3.98520	50.08

[Status Trace (Injection Unit Temperature)]
Interval(msec)	1000
# of Points	240
Start Time(min)	0.002
End Time(min)	3.985
Intensity Units	
Intensity Multiplier	1
R.Time (min)	Intensity
0.00187	99.98
0.01853	99.98
0.03520	99.98
0.05187	99.98
0.06853	99.98
0.08520	99.98
0.10187	99.98
0.11853	99.98
0.13520	99.98
0.15187	99.98
0.16853	99.98
0.18520	99.98
0.20187	99.97
0.21853	99.98
0.23520	99.98
0.25187	99.98
0.26853	99.98
0.28520	99.98
0.30187	99.98
0.31853	99.98
0.33520	99.98
0.35187	99.98
0.36853	99.98
0.38520	99.98
0.40187	99.98
0.41853	99.98
0.43520	99.98
0.45187	99.98
0.46853	99.98
0.48520	99.98
0.50187	99.98
0.51853	99.98
0.53520	99.98
0.55187	99.98
0.56853	99.98
0.58520	99.98
0.60187	99.98
0.61853	99.98
0.63520	99.98
0.65187	99.98
0.66853	99.98
0.68520	99.99
0.70187	99.98
0.71853	99.98
0.73520	99.99
0.75187	99.99
0.76853	99.98
0.78520	99.99
0.80187	99.98
0.81853	99.99
0.83520	99.98
0.85187	99.99
0.86853	99.99
0.88520	99.99
0.90187	99.98
0.91853	99.98
0.93520	99.98
0.95187	99.98
0.96853	99.98
0.98520	99.98
1.00187	99.98
1.01853	99.99
1.03520	99.98
1.05187	99.98
1.06853	99.98
1.08520	99.99
1.10187	99.99
1.11853	99.98
1.13520	99.99
1.15187	99.98
1.16853	99.99
1.18520	99.98
1.20187	99.99
1.21853	99.98
1.23520	99.98
1.25187	99.99
1.26853	99.99
1.28520	99.99
1.30187	99.99
1.31853	99.99
1.33520	99.98
1.35187	99.98
1.36853	99.99
1.38520	99.99
1.40187	99.99
1.41853	99.99
1.43520	99.99
1.45187	99.99
1.46853	99.98
1.48520	99.98
1.50187	99.98
1.51853	99.99
1.53520	99.99
1.55187	99.99
1.56853	99.98
1.58520	99.98
1.60187	99.98
1.61853	99.98
1.63520	99.99
1.65187	99.99
1.66853	99.99
1.68520	99.98
1.70187	99.98
1.71853	99.98
1.73520	99.98
1.75187	99.98
1.76853	99.98
1.78520	99.98
1.80187	99.98
1.81853	99.98
1.83520	99.98
1.85187	99.97
1.86853	99.98
1.88520	99.98
1.90187	99.98
1.91853	99.98
1.93520	99.97
1.95187	99.98
1.96853	99.97
1.98520	99.97
2.00187	99.97
2.01853	99.97
2.03520	99.97
2.05187	99.97
2.06853	99.97
2.08520	99.97
2.10187	99.97
2.11853	99.97
2.13520	99.97
2.15187	99.96
2.16853	99.97
2.18520	99.97
2.20187	99.97
2.21853	99.97
2.23520	99.97
2.25187	99.97
2.26853	99.97
2.28520	99.97
2.30187	99.97
2.31853	99.97
2.33520	99.97
2.35187	99.97
2.36853	99.97
2.38520	99.97
2.40187	99.97
2.41853	99.97
2.43520	99.97
2.45187	99.97
2.46853	99.97
2.48520	99.97
2.50187	99.97
2.51853	99.97
2.53520	99.97
2.55187	99.97
2.56853	99.97
2.58520	99.97
2.60187	99.97
2.61853	99.98
2.63520	99.98
2.65187	99.98
2.66853	99.98
2.68520	99.98
2.70187	99.98
2.71853	99.98
2.73520	99.99
2.75187	99.99
2.76853	99.99
2.78520	99.99
2.80187	99.99
2.81853	100.00
2.83520	99.99
2.85187	100.00
2.86853	100.00
2.88520	100.00
2.90187	100.00
2.91853	100.01
2.93520	100.01
2.95187	100.01
2.96853	100.01
2.98520	100.01
3.00187	100.01
3.01853	100.01
3.03520	100.02
3.05187	100.01
3.06853	100.02
3.08520	100.02
3.10187	100.02
3.11853	100.02
3.13520	100.02
3.15187	100.02
3.16853	100.02
3.18520	100.02
3.20187	100.02
3.21853	100.03
3.23520	100.03
3.25187	100.03
3.26853	100.03
3.28520	100.03
3.30187	100.03
3.31853	100.03
3.33520	100.03
3.35187	100.03
3.36853	100.04
3.38520	100.03
3.40187	100.04
3.41853	100.03
3.43520	100.04
3.45187	100.04
3.46853	100.04
3.48520	100.04
3.50187	100.04
3.51853	100.04
3.53520	100.04
3.55187	100.04
3.56853	100.04
3.58520	100.04
3.60187	100.04
3.61853	100.04
3.63520	100.04
3.65187	100.04
3.66853	100.05
3.68520	100.05
3.70187	100.05
3.71853	100.04
3.73520	100.04
3.75187	100.05
3.76853	100.05
3.78520	100.04
3.80187	100.05
3.81853	100.05
3.83520	100.05
3.85187	100.05
3.86853	100.05
3.88520	100.05
3.90187	100.05
3.91853	100.05
3.93520	100.05
3.95187	100.05
3.96853	100.05
3.98520	100.05

[Status Trace (Carrier Gas Pressure)]
Interval(msec)	1000
# of Points	240
Start Time(min)	0.002
End Time(min)	3.985
Intensity Units	
Intensity Multiplier	1
R.Time (min)	Intensity
0.00187	58.00
0.01853	56.46
0.03520	56.24
0.05187	58.44
0.06853	59.87
0.08520	58.30
0.10187	57.97
0.11853	58.01
0.13520	58.01
0.15187	58.01
0.16853	58.00
0.18520	58.00
0.20187	58.00
0.21853	58.00
0.23520	58.00
0.25187	58.00
0.26853	58.00
0.28520	58.00
0.30187	58.00
0.31853	58.00
0.33520	58.00
0.35187	58.00
0.36853	58.00
0.38520	58.00
0.40187	58.00
0.41853	58.00
0.43520	58.00
0.45187	58.00
0.46853	58.00
0.48520	58.00
0.50187	58.00
0.51853	58.00
0.53520	58.00
0.55187	58.00
0.56853	58.00
0.58520	58.00
0.60187	58.00
0.61853	58.00
0.63520	58.00
0.65187	58.00
0.66853	58.00
0.68520	58.00
0.70187	58.00
0.71853	58.00
0.73520	58.00
0.75187	58.00
0.76853	58.00
0.78520	58.00
0.80187	58.00
0.81853	58.00
0.83520	58.00
0.85187	58.00
0.86853	58.00
0.88520	58.00
0.90187	58.00
0.91853	58.00
0.93520	58.00
0.95187	58.00
0.96853	58.00
0.98520	58.00
1.00187	58.00
1.01853	58.00
1.03520	58.00
1.05187	58.00
1.06853	58.00
1.08520	58.00
1.10187	58.00
1.11853	58.00
1.13520	58.00
1.15187	58.00
1.16853	58.00
1.18520	58.00
1.20187	58.00
1.21853	58.00
1.23520	58.00
1.25187	58.00
1.26853	58.00
1.28520	58.00
1.30187	58.00
1.31853	58.00
1.33520	58.00
1.35187	58.00
1.36853	58.00
1.38520	58.00
1.40187	58.00
1.41853	58.00
1.43520	58.00
1.45187	58.00
1.46853	58.00
1.48520	58.00
1.50187	58.00
1.51853	58.00
1.53520	58.00
1.55187	58.00
1.56853	58.00
1.58520	58.00
1.60187	58.00
1.61853	58.00
1.63520	58.00
1.65187	58.00
1.66853	58.01
1.68520	58.01
1.70187	58.00
1.71853	58.00
1.73520	58.00
1.75187	58.00
1.76853	58.00
1.78520	58.00
1.80187	58.00
1.81853	58.00
1.83520	58.00
1.85187	58.00
1.86853	58.00
1.88520	58.00
1.90187	58.00
1.91853	58.00
1.93520	58.00
1.95187	58.00
1.96853	58.00
1.98520	58.00
2.00187	58.00
2.01853	58.00
2.03520	58.00
2.05187	58.00
2.06853	58.00
2.08520	58.00
2.10187	58.00
2.11853	58.00
2.13520	58.00
2.15187	58.00
2.16853	58.00
2.18520	58.00
2.20187	58.00
2.21853	58.00
2.23520	58.00
2.25187	58.00
2.26853	58.00
2.28520	58.00
2.30187	58.00
2.31853	58.00
2.33520	58.00
2.35187	58.00
2.36853	58.00
2.38520	57.99
2.40187	57.99
2.41853	58.00
2.43520	58.00
2.45187	58.00
2.46853	58.00
2.48520	58.00
2.50187	58.00
2.51853	57.99
2.53520	57.99
2.55187	58.00
2.56853	58.00
2.58520	58.00
2.60187	58.00
2.61853	58.00
2.63520	58.00
2.65187	58.00
2.66853	58.00
2.68520	58.00
2.70187	58.00
2.71853	58.00
2.73520	58.00
2.75187	58.00
2.76853	58.00
2.78520	58.00
2.80187	58.00
2.81853	58.00
2.83520	58.00
2.85187	58.00
2.86853	58.00
2.88520	58.00
2.90187	58.00
2.91853	58.00
2.93520	58.00
2.95187	58.00
2.96853	58.00
2.98520	58.00
3.00187	58.00
3.01853	58.00
3.03520	58.00
3.05187	58.00
3.06853	58.00
3.08520	58.00
3.10187	58.00
3.11853	58.00
3.13520	58.00
3.15187	58.00
3.16853	58.00
3.18520	58.00
3.20187	58.00
3.21853	58.00
3.23520	58.00
3.25187	58.00
3.26853	58.00
3.28520	58.00
3.30187	58.00
3.31853	58.00
3.33520	58.00
3.35187	58.00
3.36853	58.00
3.38520	58.00
3.40187	58.00
3.41853	58.00
3.43520	58.00
3.45187	58.00
3.46853	58.00
3.48520	58.00
3.50187	58.00
3.51853	58.00
3.53520	58.00
3.55187	58.00
3.56853	58.00
3.58520	58.00
3.60187	58.00
3.61853	58.00
3.63520	58.00
3.65187	58.00
3.66853	58.00
3.68520	58.00
3.70187	58.00
3.71853	58.00
3.73520	58.00
3.75187	58.00
3.76853	58.00
3.78520	58.00
3.80187	58.00
3.81853	58.00
3.83520	58.00
3.85187	58.00
3.86853	58.00
3.88520	58.00
3.90187	58.00
3.91853	58.00
3.93520	58.00
3.95187	58.00
3.96853	58.00
3.98520	58.00

[Status Trace (Carrier Gas Flow)]
Interval(msec)	1000
# of Points	240
Start Time(min)	0.002
End Time(min)	3.985
Intensity Units	
Intensity Multiplier	1
R.Time (min)	Intensity
0.00187	34.52
0.01853	34.34
0.03520	34.54
0.05187	34.55
0.06853	34.49
0.08520	34.51
0.10187	34.52
0.11853	34.53
0.13520	34.51
0.15187	34.52
0.16853	34.52
0.18520	34.52
0.20187	34.52
0.21853	34.52
0.23520	34.52
0.25187	34.52
0.26853	34.51
0.28520	34.52
0.30187	34.52
0.31853	34.52
0.33520	34.51
0.35187	34.52
0.36853	34.52
0.38520	34.52
0.40187	34.52
0.41853	34.52
0.43520	34.52
0.45187	34.52
0.46853	34.52
0.48520	34.52
0.50187	34.52
0.51853	34.52
0.53520	34.52
0.55187	34.52
0.56853	34.52
0.58520	34.52
0.60187	34.52
0.61853	34.52
0.63520	34.52
0.65187	34.52
0.66853	34.52
0.68520	34.52
0.70187	34.52
0.71853	34.52
0.73520	34.52
0.75187	34.52
0.76853	34.52
0.78520	34.52
0.80187	34.52
0.81853	34.52
0.83520	34.52
0.85187	34.52
0.86853	34.52
0.88520	34.52
0.90187	34.52
0.91853	34.52
0.93520	34.52
0.95187	34.52
0.96853	34.52
0.98520	34.52
1.00187	34.52
1.01853	34.52
1.03520	34.52
1.05187	34.52
1.06853	34.52
1.08520	34.52
1.10187	34.52
1.11853	34.52
1.13520	34.52
1.15187	34.52
1.16853	34.52
1.18520	34.52
1.20187	34.52
1.21853	34.52
1.23520	34.52
1.25187	34.52
1.26853	34.52
1.28520	34.52
1.30187	34.52
1.31853	34.52
1.33520	34.52
1.35187	34.52
1.36853	34.51
1.38520	34.52
1.40187	34.52
1.41853	34.51
1.43520	34.53
1.45187	34.52
1.46853	34.52
1.48520	34.52
1.50187	34.52
1.51853	34.51
1.53520	34.52
1.55187	34.52
1.56853	34.52
1.58520	34.52
1.60187	34.52
1.61853	34.52
1.63520	34.52
1.65187	34.52
1.66853	34.52
1.68520	34.52
1.70187	34.52
1.71853	34.52
1.73520	34.52
1.75187	34.52
1.76853	34.52
1.78520	34.52
1.80187	34.52
1.81853	34.52
1.83520	34.52
1.85187	34.52
1.86853	34.52
1.88520	34.52
1.90187	34.52
1.91853	34.52
1.93520	34.52
1.95187	34.52
1.96853	34.52
1.98520	34.52
2.00187	34.52
2.01853	34.52
2.03520	34.52
2.05187	34.52
2.06853	34.52
2.08520	34.52
2.10187	34.52
2.11853	34.52
2.13520	34.52
2.15187	34.52
2.16853	34.52
2.18520	34.52
2.20187	34.52
2.21853	34.52
2.23520	34.52
2.25187	34.52
2.26853	34.52
2.28520	34.52
2.30187	34.52
2.31853	34.52
2.33520	34.52
2.35187	34.51
2.36853	34.52
2.38520	34.52
2.40187	34.52
2.41853	34.52
2.43520	34.52
2.45187	34.52
2.46853	34.52
2.48520	34.52
2.50187	34.52
2.51853	34.52
2.53520	34.52
2.55187	34.52
2.56853	34.52
2.58520	34.52
2.60187	34.52
2.61853	34.52
2.63520	34.52
2.65187	34.52
2.66853	34.52
2.68520	34.52
2.70187	34.52
2.71853	34.52
2.73520	34.52
2.75187	34.52
2.76853	34.52
2.78520	34.52
2.80187	34.52
2.81853	34.52
2.83520	34.52
2.85187	34.52
2.86853	34.52
2.88520	34.52
2.90187	34.51
2.91853	34.52
2.93520	34.52
2.95187	34.52
2.96853	34.52
2.98520	34.52
3.00187	34.52
3.01853	34.52
3.03520	34.52
3.05187	34.52
3.06853	34.52
3.08520	34.52
3.10187	34.52
3.11853	34.52
3.13520	34.52
3.15187	34.52
3.16853	34.52
3.18520	34.52
3.20187	34.52
3.21853	34.52
3.23520	34.52
3.25187	34.52
3.26853	34.52
3.28520	34.52
3.30187	34.52
3.31853	34.52
3.33520	34.52
3.35187	34.52
3.36853	34.52
3.38520	34.52
3.40187	34.52
3.41853	34.52
3.43520	34.52
3.45187	34.52
3.46853	34.52
3.48520	34.52
3.50187	34.52
3.51853	34.52
3.53520	34.52
3.55187	34.52
3.56853	34.52
3.58520	34.52
3.60187	34.52
3.61853	34.51
3.63520	34.53
3.65187	34.50
3.66853	34.52
3.68520	34.53
3.70187	34.52
3.71853	34.52
3.73520	34.51
3.75187	34.51
3.76853	34.52
3.78520	34.52
3.80187	34.52
3.81853	34.52
3.83520	34.52
3.85187	34.52
3.86853	34.52
3.88520	34.52
3.90187	34.52
3.91853	34.52
3.93520	34.52
3.95187	34.52
3.96853	34.52
3.98520	34.52

[Status Trace (Column Flow)]
Interval(msec)	1000
# of Points	240
Start Time(min)	0.002
End Time(min)	3.985
Intensity Units	
Intensity Multiplier	1
R.Time (min)	Intensity
0.00187	5.57
0.01853	5.39
0.03520	5.36
0.05187	5.62
0.06853	5.79
0.08520	5.60
0.10187	5.56
0.11853	5.57
0.13520	5.57
0.15187	5.57
0.16853	5.57
0.18520	5.57
0.20187	5.57
0.21853	5.57
0.23520	5.57
0.25187	5.57
0.26853	5.57
0.28520	5.57
0.30187	5.57
0.31853	5.57
0.33520	5.57
0.35187	5.57
0.36853	5.57
0.38520	5.57
0.40187	5.57
0.41853	5.57
0.43520	5.57
0.45187	5.57
0.46853	5.57
0.48520	5.57
0.50187	5.57
0.51853	5.57
0.53520	5.57
0.55187	5.57
0.56853	5.57
0.58520	5.57
0.60187	5.57
0.61853	5.57
0.63520	5.57
0.65187	5.57
0.66853	5.57
0.68520	5.57
0.70187	5.57
0.71853	5.57
0.73520	5.57
0.75187	5.57
0.76853	5.57
0.78520	5.57
0.80187	5.57
0.81853	5.57
0.83520	5.57
0.85187	5.57
0.86853	5.57
0.88520	5.57
0.90187	5.57
0.91853	5.57
0.93520	5.57
0.95187	5.57
0.96853	5.57
0.98520	5.57
1.00187	5.57
1.01853	5.57
1.03520	5.57
1.05187	5.57
1.06853	5.57
1.08520	5.57
1.10187	5.57
1.11853	5.57
1.13520	5.57
1.15187	5.57
1.16853	5.57
1.18520	5.57
1.20187	5.57
1.21853	5.57
1.23520	5.57
1.25187	5.57
1.26853	5.57
1.28520	5.57
1.30187	5.57
1.31853	5.57
1.33520	5.57
1.35187	5.57
1.36853	5.57
1.38520	5.57
1.40187	5.57
1.41853	5.57
1.43520	5.57
1.45187	5.57
1.46853	5.57
1.48520	5.57
1.50187	5.57
1.51853	5.57
1.53520	5.57
1.55187	5.57
1.56853	5.57
1.58520	5.57
1.60187	5.57
1.61853	5.56
1.63520	5.56
1.65187	5.55
1.66853	5.54
1.68520	5.53
1.70187	5.52
1.71853	5.51
1.73520	5.50
1.75187	5.49
1.76853	5.48
1.78520	5.47
1.80187	5.46
1.81853	5.45
1.83520	5.44
1.85187	5.43
1.86853	5.42
1.88520	5.41
1.90187	5.40
1.91853	5.39
1.93520	5.38
1.95187	5.37
1.96853	5.36
1.98520	5.35
2.00187	5.34
2.01853	5.33
2.03520	5.32
2.05187	5.31
2.06853	5.30
2.08520	5.29
2.10187	5.28
2.11853	5.27
2.13520	5.26
2.15187	5.25
2.16853	5.24
2.18520	5.23
2.20187	5.22
2.21853	5.21
2.23520	5.20
2.25187	5.19
2.26853	5.18
2.28520	5.18
2.30187	5.17
2.31853	5.16
2.33520	5.15
2.35187	5.14
2.36853	5.13
2.38520	5.13
2.40187	5.13
2.41853	5.13
2.43520	5.13
2.45187	5.13
2.46853	5.13
2.48520	5.13
2.50187	5.13
2.51853	5.13
2.53520	5.13
2.55187	5.13
2.56853	5.13
2.58520	5.13
2.60187	5.13
2.61853	5.12
2.63520	5.12
2.65187	5.12
2.66853	5.12
2.68520	5.12
2.70187	5.12
2.71853	5.12
2.73520	5.12
2.75187	5.12
2.76853	5.12
2.78520	5.12
2.80187	5.12
2.81853	5.12
2.83520	5.12
2.85187	5.12
2.86853	5.12
2.88520	5.12
2.90187	5.12
2.91853	5.12
2.93520	5.12
2.95187	5.12
2.96853	5.12
2.98520	5.12
3.00187	5.12
3.01853	5.12
3.03520	5.12
3.05187	5.12
3.06853	5.12
3.08520	5.12
3.10187	5.12
3.11853	5.12
3.13520	5.12
3.15187	5.12
3.16853	5.12
3.18520	5.12
3.20187	5.12
3.21853	5.12
3.23520	5.12
3.25187	5.12
3.26853	5.12
3.28520	5.12
3.30187	5.12
3.31853	5.12
3.33520	5.12
3.35187	5.12
3.36853	5.12
3.38520	5.12
3.40187	5.12
3.41853	5.12
3.43520	5.12
3.45187	5.12
3.46853	5.12
3.48520	5.12
3.50187	5.12
3.51853	5.12
3.53520	5.12
3.55187	5.12
3.56853	5.12
3.58520	5.12
3.60187	5.12
3.61853	5.12
3.63520	5.12
3.65187	5.12
3.66853	5.12
3.68520	5.12
3.70187	5.12
3.71853	5.12
3.73520	5.12
3.75187	5.12
3.76853	5.12
3.78520	5.12
3.80187	5.12
3.81853	5.12
3.83520	5.12
3.85187	5.12
3.86853	5.12
3.88520	5.12
3.90187	5.12
3.91853	5.12
3.93520	5.12
3.95187	5.12
3.96853	5.12
3.98520	5.12

[Status Trace (Linear Velocity)]
Interval(msec)	1000
# of Points	240
Start Time(min)	0.002
End Time(min)	3.985
Intensity Units	
Intensity Multiplier	1
R.Time (min)	Intensity
0.00187	39.02
0.01853	38.02
0.03520	37.87
0.05187	39.31
0.06853	40.25
0.08520	39.22
0.10187	39.00
0.11853	39.03
0.13520	39.03
0.15187	39.03
0.16853	39.03
0.18520	39.03
0.20187	39.03
0.21853	39.03
0.23520	39.03
0.25187	39.03
0.26853	39.03
0.28520	39.03
0.30187	39.03
0.31853	39.03
0.33520	39.03
0.35187	39.03
0.36853	39.03
0.38520	39.03
0.40187	39.03
0.41853	39.03
0.43520	39.03
0.45187	39.03
0.46853	39.03
0.48520	39.03
0.50187	39.03
0.51853	39.03
0.53520	39.03
0.55187	39.03
0.56853	39.03
0.58520	39.03
0.60187	39.03
0.61853	39.03
0.63520	39.03
0.65187	39.03
0.66853	39.03
0.68520	39.03
0.70187	39.03
0.71853	39.03
0.73520	39.03
0.75187	39.03
0.76853	39.03
0.78520	39.03
0.80187	39.03
0.81853	39.03
0.83520	39.03
0.85187	39.03
0.86853	39.03
0.88520	39.03
0.90187	39.03
0.91853	39.03
0.93520	39.03
0.95187	39.03
0.96853	39.03
0.98520	39.03
1.00187	39.03
1.01853	39.03
1.03520	39.03
1.05187	39.03
1.06853	39.03
1.08520	39.03
1.10187	39.03
1.11853	39.03
1.13520	39.03
1.15187	39.03
1.16853	39.03
1.18520	39.03
1.20187	39.03
1.21853	39.03
1.23520	39.03
1.25187	39.03
1.26853	39.03
1.28520	39.03
1.30187	39.03
1.31853	39.03
1.33520	39.03
1.35187	39.03
1.36853	39.03
1.38520	39.03
1.40187	39.03
1.41853	39.03
1.43520	39.03
1.45187	39.03
1.46853	39.03
1.48520	39.03
1.50187	39.03
1.51853	39.03
1.53520	39.03
1.55187	39.03
1.56853	39.03
1.58520	39.03
1.60187	39.02
1.61853	39.02
1.63520	39.00
1.65187	38.98
1.66853	38.95
1.68520	38.92
1.70187	38.88
1.71853	38.85
1.73520	38.82
1.75187	38.78
1.76853	38.75
1.78520	38.72
1.80187	38.69
1.81853	38.66
1.83520	38.63
1.85187	38.60
1.86853	38.56
1.88520	38.53
1.90187	38.50
1.91853	38.47
1.93520	38.44
1.95187	38.41
1.96853	38.38
1.98520	38.35
2.00187	38.32
2.01853	38.29
2.03520	38.26
2.05187	38.23
2.06853	38.20
2.08520	38.17
2.10187	38.14
2.11853	38.11
2.13520	38.08
2.15187	38.05
2.16853	38.03
2.18520	38.00
2.20187	37.97
2.21853	37.94
2.23520	37.91
2.25187	37.88
2.26853	37.85
2.28520	37.82
2.30187	37.79
2.31853	37.76
2.33520	37.73
2.35187	37.70
2.36853	37.67
2.38520	37.66
2.40187	37.66
2.41853	37.67
2.43520	37.67
2.45187	37.67
2.46853	37.67
2.48520	37.67
2.50187	37.67
2.51853	37.66
2.53520	37.66
2.55187	37.67
2.56853	37.66
2.58520	37.66
2.60187	37.66
2.61853	37.66
2.63520	37.66
2.65187	37.66
2.66853	37.65
2.68520	37.66
2.70187	37.66
2.71853	37.65
2.73520	37.65
2.75187	37.65
2.76853	37.65
2.78520	37.66
2.80187	37.66
2.81853	37.66
2.83520	37.66
2.85187	37.66
2.86853	37.65
2.88520	37.65
2.90187	37.65
2.91853	37.65
2.93520	37.65
2.95187	37.65
2.96853	37.64
2.98520	37.64
3.00187	37.64
3.01853	37.64
3.03520	37.64
3.05187	37.64
3.06853	37.64
3.08520	37.64
3.10187	37.64
3.11853	37.64
3.13520	37.63
3.15187	37.64
3.16853	37.64
3.18520	37.64
3.20187	37.63
3.21853	37.63
3.23520	37.63
3.25187	37.63
3.26853	37.63
3.28520	37.63
3.30187	37.64
3.31853	37.64
3.33520	37.64
3.35187	37.64
3.36853	37.64
3.38520	37.64
3.40187	37.64
3.41853	37.64
3.43520	37.64
3.45187	37.64
3.46853	37.64
3.48520	37.64
3.50187	37.64
3.51853	37.64
3.53520	37.64
3.55187	37.64
3.56853	37.64
3.58520	37.64
3.60187	37.64
3.61853	37.64
3.63520	37.64
3.65187	37.64
3.66853	37.64
3.68520	37.64
3.70187	37.64
3.71853	37.64
3.73520	37.64
3.75187	37.64
3.76853	37.64
3.78520	37.64
3.80187	37.64
3.81853	37.64
3.83520	37.64
3.85187	37.64
3.86853	37.64
3.88520	37.64
3.90187	37.64
3.91853	37.64
3.93520	37.64
3.95187	37.64
3.96853	37.64
3.98520	37.64

