[Header]
Application Name	LabSolutions
Version	5.110
Data File Name	C:\Users\User\Desktop\GC Analyses\Jack\UIC Prairie Sampling\11.2.22\221102_092.gcd
Output Date	3/20/2023
Output Time	1:25:42 PM

[File Information]
Type	Data File
Generated	1/3/2023 2:42:38 PM
Generated by	System Administrator
Modified	1/3/2023 2:47:01 PM
Modified by	System Administrator

[Sample Information]
Operator Name	System Administrator
Acquired	1/3/2023 2:43:00 PM
Sample Type	1:Standard
Level	1
Sample Name	221102_UICPrairie
Sample ID	221102_UICPrairie
ISTD Amount1	1
ISTD Amount2	1
ISTD Amount3	1
ISTD Amount4	1
ISTD Amount5	1
ISTD Amount6	1
ISTD Amount7	1
ISTD Amount8	1
ISTD Amount9	1
ISTD Amount10	1
ISTD Amount11	1
ISTD Amount12	1
ISTD Amount13	1
ISTD Amount14	1
ISTD Amount15	1
ISTD Amount16	1
ISTD Amount17	1
ISTD Amount18	1
ISTD Amount19	1
ISTD Amount20	1
ISTD Amount21	1
ISTD Amount22	1
ISTD Amount23	1
ISTD Amount24	1
ISTD Amount25	1
ISTD Amount26	1
ISTD Amount27	1
ISTD Amount28	1
ISTD Amount29	1
ISTD Amount30	1
ISTD Amount31	1
ISTD Amount32	1
Sample Amount	1
Dilution Factor	1
Vial#	1
Injection Volume	1
Injection Count	1
Bar Code	

[Original Files]
Data File	C:\Users\User\Desktop\GC Analyses\Jack\UIC Prairie Sampling\11.2.22\221102_092.gcd
Method File	C:\LabSolutions\Data\GHG_4min_2022\ghg3_togas_w_acet_4 min_new_int.gcm
Batch File	
Report Format File	c:\LabSolutions\System\DEFAULT.lsr

[File Description]


[Configuration]
Instrument Name	C0B7VH3-Instrument1
Instrument #	1
Line #	1
# of Detectors	3
Detector ID	DET#1	DET#2	DET#3
Detector Name	FID	PTCD	ECD
# of Channels	1	1	1

[Peak Table(Ch1)]
# of Peaks	3
Peak#	R.Time	I.Time	F.Time	Area	Height	A/H	Conc.	Mark	ID#	Name	k'	Plate #	Plate Ht.	Tailing	Resolution	Sep.Factor	Area Ratio	Height Ratio	Conc. %	Norm Conc.
1	1.476	1.439	1.538	12219	5550	2.202	100.000	   	1	CO	0.000	8792	17.060	1.322	0.000	0.000	0	0	16.667	16.667
2	1.567	1.538	1.626	5406	2709	1.995	100.000	 V 	2	CH4	0.062	11240	13.345	0.000	1.502	0.000	0	0	16.667	16.667
3	1.996	1.952	2.510	1132816	537473	2.108	400.000	   	3	CO2	0.353	17742	8.454	1.355	7.205	5.680	0	0	66.667	66.667

[Peak Table(Ch2)]
# of Peaks	0

[Peak Table(Ch3)]
# of Peaks	5
Peak#	R.Time	I.Time	F.Time	Area	Height	A/H	Conc.	Mark	ID#	Name	k'	Plate #	Plate Ht.	Tailing	Resolution	Sep.Factor	Area Ratio	Height Ratio	Conc. %	Norm Conc.
1	2.458	2.392	2.506	929	327	2.843	0.000	   			0.000	14340	10.460	0.000	0.000	0.000	0	0	0.000	0.000
2	2.521	2.506	2.557	321	142	2.265	0.000	 V 			0.025	9692	15.477	0.000	0.676	0.000	0	0	0.000	0.000
3	2.616	2.565	2.656	1971	536	3.679	0.000	   			0.064	4630	32.398	0.000	0.744	2.529	0	0	0.000	0.000
4	2.730	2.656	2.825	4813	535	8.995	0.177	 V 	1	N2O	0.110	602	249.212	0.000	0.380	1.721	0	0	17.700	17.700
5	2.884	2.825	3.225	22381	5222	4.286	0.823	 V 	1	N2O	0.173	12676	11.833	0.000	0.563	1.568	0	0	82.300	82.300

[Compound Results(Ch1)]
# of IDs	6
ID#	Name	R.Time	Area	Height	Conc.	Curve	3rd	2nd	1st	Constant	Area Ratio	Height Ratio	Conc. %	Norm Conc.
1	CO	1.476	12219	5550	100.000	Linear	0.000000e+00	0.000000e+00	1.221948e+002	0.000000e+00	0	0	16.667	16.667
2	CH4	1.567	5406	2709	100.000	Linear	0.000000e+00	0.000000e+00	5.406431e+001	0.000000e+00	0	0	16.667	16.667
3	CO2	1.996	1132816	537473	400.000	Linear	0.000000e+00	0.000000e+00	2.832041e+003	0.000000e+00	0	0	66.667	66.667
4	Ethylene	0.000	0	0	0.000	Linear	0.000000e+00	0.000000e+00	0.000000e+00	0.000000e+00	0	0	0.000	0.000
5	Acetylene	0.000	0	0	0.000	Linear	0.000000e+00	0.000000e+00	0.000000e+00	0.000000e+00	0	0	0.000	0.000
6	Ethane	0.000	0	0	0.000	Linear	0.000000e+00	0.000000e+00	0.000000e+00	0.000000e+00	0	0	0.000	0.000

[Compound Results(Ch2)]
# of IDs	5
ID#	Name	R.Time	Area	Height	Conc.	Curve	3rd	2nd	1st	Constant	Area Ratio	Height Ratio	Conc. %	Norm Conc.
1	Hydrogen	0.000	0	0	0.000	Linear	0.000000e+00	0.000000e+00	0.000000e+00	0.000000e+00	0	0	0.000	0.000
2	Oxygen	0.000	0	0	0.000	Linear	0.000000e+00	0.000000e+00	0.000000e+00	0.000000e+00	0	0	0.000	0.000
3	Nitrogen	0.000	0	0	0.000	Linear	0.000000e+00	0.000000e+00	0.000000e+00	0.000000e+00	0	0	0.000	0.000
4	Methane	0.000	0	0	0.000	Linear	0.000000e+00	0.000000e+00	0.000000e+00	0.000000e+00	0	0	0.000	0.000
5	Carbon Monoxide	0.000	0	0	0.000	Linear	0.000000e+00	0.000000e+00	0.000000e+00	0.000000e+00	0	0	0.000	0.000

[Compound Results(Ch3)]
# of IDs	2
ID#	Name	R.Time	Area	Height	Conc.	Curve	3rd	2nd	1st	Constant	Area Ratio	Height Ratio	Conc. %	Norm Conc.
1	N2O	2.884	27195	5757	1.000	Linear	0.000000e+00	0.000000e+00	2.719463e+004	0.000000e+00	0	0	100.000	100.000
2	SF6	0.000	0	0	0.000	Linear	0.000000e+00	0.000000e+00	0.000000e+00	0.000000e+00	0	0	0.000	0.000

[Group Results(Ch1)]
# of Groups	0

[Group Results(Ch2)]
# of Groups	0

[Group Results(Ch3)]
# of Groups	0

[Chromatogram (Ch1)]
Interval(msec)	220
# of Points	1091
Start Time(min)	0.002
End Time(min)	3.998
R.Time (min)	Intensity
0.00167	22
0.00533	27
0.00900	28
0.01267	26
0.01633	21
0.02000	17
0.02367	18
0.02733	22
0.03100	24
0.03467	21
0.03833	15
0.04200	10
0.04567	8
0.04933	8
0.05300	10
0.05667	8
0.06033	5
0.06400	3
0.06767	1
0.07133	-0
0.07500	-1
0.07867	4
0.08233	12
0.08600	19
0.08967	25
0.09333	26
0.09700	24
0.10067	23
0.10433	24
0.10800	26
0.11167	29
0.11533	32
0.11900	31
0.12267	24
0.12633	17
0.13000	11
0.13367	12
0.13733	15
0.14100	17
0.14467	15
0.14833	12
0.15200	10
0.15567	10
0.15933	11
0.16300	13
0.16667	18
0.17033	23
0.17400	28
0.17767	29
0.18133	24
0.18500	17
0.18867	11
0.19233	9
0.19600	9
0.19967	10
0.20333	13
0.20700	17
0.21067	22
0.21433	24
0.21800	23
0.22167	19
0.22533	15
0.22900	10
0.23267	4
0.23633	-1
0.24000	-6
0.24367	-11
0.24733	-16
0.25100	-20
0.25467	-21
0.25833	-19
0.26200	-12
0.26567	-3
0.26933	5
0.27300	6
0.27667	-0
0.28033	-11
0.28400	-19
0.28767	-23
0.29133	-26
0.29500	-26
0.29867	-21
0.30233	-16
0.30600	-13
0.30967	-12
0.31333	-11
0.31700	-9
0.32067	-5
0.32433	-2
0.32800	-2
0.33167	-7
0.33533	-13
0.33900	-17
0.34267	-19
0.34633	-21
0.35000	-23
0.35367	-20
0.35733	-17
0.36100	-16
0.36467	-15
0.36833	-12
0.37200	-9
0.37567	-4
0.37933	-1
0.38300	2
0.38667	2
0.39033	0
0.39400	-2
0.39767	-2
0.40133	-0
0.40500	1
0.40867	1
0.41233	-1
0.41600	-4
0.41967	-8
0.42333	-14
0.42700	-17
0.43067	-18
0.43433	-16
0.43800	-13
0.44167	-11
0.44533	-9
0.44900	-8
0.45267	-8
0.45633	-9
0.46000	-9
0.46367	-10
0.46733	-11
0.47100	-11
0.47467	-11
0.47833	-7
0.48200	-1
0.48567	0
0.48933	-5
0.49300	-11
0.49667	-19
0.50033	-22
0.50400	-20
0.50767	-17
0.51133	-20
0.51500	-22
0.51867	-21
0.52233	-19
0.52600	-20
0.52967	-23
0.53333	-27
0.53700	-29
0.54067	-28
0.54433	-23
0.54800	-16
0.55167	-9
0.55533	-5
0.55900	-5
0.56267	-7
0.56633	-10
0.57000	-13
0.57367	-11
0.57733	-7
0.58100	-5
0.58467	-5
0.58833	-4
0.59200	-6
0.59567	-10
0.59933	-10
0.60300	-8
0.60667	-4
0.61033	-3
0.61400	-7
0.61767	-14
0.62133	-25
0.62500	-31
0.62867	-33
0.63233	-33
0.63600	-29
0.63967	-24
0.64333	-20
0.64700	-20
0.65067	-20
0.65433	-18
0.65800	-18
0.66167	-21
0.66533	-26
0.66900	-32
0.67267	-34
0.67633	-34
0.68000	-34
0.68367	-27
0.68733	-16
0.69100	-9
0.69467	-6
0.69833	-5
0.70200	-6
0.70567	-11
0.70933	-17
0.71300	-21
0.71667	-23
0.72033	-22
0.72400	-21
0.72767	-19
0.73133	-15
0.73500	-10
0.73867	-10
0.74233	-14
0.74600	-19
0.74967	-24
0.75333	-27
0.75700	-26
0.76067	-24
0.76433	-23
0.76800	-23
0.77167	-20
0.77533	-17
0.77900	-15
0.78267	-16
0.78633	-17
0.79000	-21
0.79367	-25
0.79733	-29
0.80100	-32
0.80467	-30
0.80833	-28
0.81200	-25
0.81567	-25
0.81933	-27
0.82300	-28
0.82667	-25
0.83033	-20
0.83400	-16
0.83767	-12
0.84133	-10
0.84500	-13
0.84867	-21
0.85233	-32
0.85600	-41
0.85967	-47
0.86333	-48
0.86700	-46
0.87067	-43
0.87433	-39
0.87800	-38
0.88167	-40
0.88533	-45
0.88900	-49
0.89267	-51
0.89633	-53
0.90000	-53
0.90367	-51
0.90733	-48
0.91100	-42
0.91467	-35
0.91833	-25
0.92200	-16
0.92567	-11
0.92933	-10
0.93300	-12
0.93667	-17
0.94033	-20
0.94400	-21
0.94767	-24
0.95133	-27
0.95500	-29
0.95867	-31
0.96233	-28
0.96600	-21
0.96967	-11
0.97333	-3
0.97700	-4
0.98067	-12
0.98433	-20
0.98800	-26
0.99167	-33
0.99533	-38
0.99900	-41
1.00267	-40
1.00633	-37
1.01000	-36
1.01367	-34
1.01733	-31
1.02100	-28
1.02467	-27
1.02833	-27
1.03200	-30
1.03567	-33
1.03933	-34
1.04300	-32
1.04667	-32
1.05033	-33
1.05400	-33
1.05767	-36
1.06133	-41
1.06500	-44
1.06867	-43
1.07233	-41
1.07600	-38
1.07967	-35
1.08333	-31
1.08700	-27
1.09067	-23
1.09433	-21
1.09800	-21
1.10167	-24
1.10533	-30
1.10900	-36
1.11267	-39
1.11633	-38
1.12000	-37
1.12367	-35
1.12733	-37
1.13100	-41
1.13467	-44
1.13833	-46
1.14200	-47
1.14567	-48
1.14933	-49
1.15300	-51
1.15667	-52
1.16033	-54
1.16400	-57
1.16767	-61
1.17133	-62
1.17500	-60
1.17867	-59
1.18233	-54
1.18600	-47
1.18967	-48
1.19333	-51
1.19700	-54
1.20067	-59
1.20433	-62
1.20800	-62
1.21167	-58
1.21533	-52
1.21900	-44
1.22267	-35
1.22633	-29
1.23000	-28
1.23367	-33
1.23733	-39
1.24100	-43
1.24467	-44
1.24833	-45
1.25200	-49
1.25567	-52
1.25933	-52
1.26300	-50
1.26667	-50
1.27033	-53
1.27400	-54
1.27767	-50
1.28133	-47
1.28500	-41
1.28867	-37
1.29233	-36
1.29600	-36
1.29967	-39
1.30333	-46
1.30700	-53
1.31067	-57
1.31433	-57
1.31800	-55
1.32167	-54
1.32533	-53
1.32900	-51
1.33267	-47
1.33633	-44
1.34000	-46
1.34367	-50
1.34733	-55
1.35100	-58
1.35467	-59
1.35833	-58
1.36200	-56
1.36567	-53
1.36933	-50
1.37300	-48
1.37667	-49
1.38033	-50
1.38400	-52
1.38767	-53
1.39133	-50
1.39500	-48
1.39867	-49
1.40233	-54
1.40600	-61
1.40967	-68
1.41333	-75
1.41700	-78
1.42067	-76
1.42433	-72
1.42800	-69
1.43167	-68
1.43533	-67
1.43900	-51
1.44267	29
1.44633	219
1.45000	543
1.45367	1102
1.45733	1949
1.46100	2951
1.46467	3910
1.46833	4698
1.47200	5246
1.47567	5500
1.47933	5406
1.48300	4963
1.48667	4259
1.49033	3446
1.49400	2663
1.49767	1994
1.50133	1463
1.50500	1063
1.50867	771
1.51233	563
1.51600	416
1.51967	310
1.52333	233
1.52700	180
1.53067	145
1.53433	122
1.53800	115
1.54167	166
1.54533	349
1.54900	708
1.55267	1200
1.55633	1718
1.56000	2167
1.56367	2491
1.56733	2659
1.57100	2638
1.57467	2409
1.57833	2020
1.58200	1570
1.58567	1149
1.58933	803
1.59300	544
1.59667	358
1.60033	228
1.60400	137
1.60767	74
1.61133	28
1.61500	-6
1.61867	-29
1.62233	-43
1.62600	-50
1.62967	-53
1.63333	-55
1.63700	-60
1.64067	-65
1.64433	-69
1.64800	-70
1.65167	-65
1.65533	-63
1.65900	-65
1.66267	-66
1.66633	-68
1.67000	-69
1.67367	-67
1.67733	-63
1.68100	-58
1.68467	-56
1.68833	-58
1.69200	-60
1.69567	-64
1.69933	-68
1.70300	-75
1.70667	-83
1.71033	-88
1.71400	-85
1.71767	-79
1.72133	-69
1.72500	-62
1.72867	-58
1.73233	-60
1.73600	-63
1.73967	-62
1.74333	-57
1.74700	-53
1.75067	-51
1.75433	-54
1.75800	-57
1.76167	-58
1.76533	-60
1.76900	-63
1.77267	-67
1.77633	-67
1.78000	-64
1.78367	-60
1.78733	-56
1.79100	-53
1.79467	-49
1.79833	-47
1.80200	-48
1.80567	-48
1.80933	-48
1.81300	-49
1.81667	-51
1.82033	-53
1.82400	-53
1.82767	-51
1.83133	-49
1.83500	-50
1.83867	-48
1.84233	-43
1.84600	-37
1.84967	-31
1.85333	-29
1.85700	-29
1.86067	-32
1.86433	-35
1.86800	-38
1.87167	-41
1.87533	-41
1.87900	-39
1.88267	-36
1.88633	-35
1.89000	-36
1.89367	-41
1.89733	-44
1.90100	-44
1.90467	-41
1.90833	-38
1.91200	-34
1.91567	-30
1.91933	-26
1.92300	-22
1.92667	-19
1.93033	-18
1.93400	-21
1.93767	-27
1.94133	-33
1.94500	-39
1.94867	-42
1.95233	-36
1.95600	22
1.95967	388
1.96333	2161
1.96700	8686
1.97067	26965
1.97433	66672
1.97800	134349
1.98167	226844
1.98533	330510
1.98900	427029
1.99267	499781
1.99633	537472
2.00000	535146
2.00367	495361
2.00733	428148
2.01100	347907
2.01467	268420
2.01833	198967
2.02200	143447
2.02567	101772
2.02933	71814
2.03300	50892
2.03667	36530
2.04033	26744
2.04400	20076
2.04767	15497
2.05133	12313
2.05500	10059
2.05867	8430
2.06233	7222
2.06600	6305
2.06967	5594
2.07333	5028
2.07700	4567
2.08067	4184
2.08433	3859
2.08800	3580
2.09167	3338
2.09533	3127
2.09900	2940
2.10267	2770
2.10633	2617
2.11000	2481
2.11367	2359
2.11733	2249
2.12100	2151
2.12467	2064
2.12833	1983
2.13200	1906
2.13567	1830
2.13933	1757
2.14300	1692
2.14667	1633
2.15033	1575
2.15400	1516
2.15767	1459
2.16133	1412
2.16500	1370
2.16867	1329
2.17233	1291
2.17600	1258
2.17967	1225
2.18333	1189
2.18700	1151
2.19067	1114
2.19433	1082
2.19800	1053
2.20167	1027
2.20533	1001
2.20900	978
2.21267	956
2.21633	933
2.22000	911
2.22367	893
2.22733	880
2.23100	867
2.23467	852
2.23833	838
2.24200	826
2.24567	813
2.24933	795
2.25300	774
2.25667	754
2.26033	737
2.26400	722
2.26767	707
2.27133	697
2.27500	693
2.27867	692
2.28233	683
2.28600	672
2.28967	663
2.29333	655
2.29700	645
2.30067	633
2.30433	621
2.30800	610
2.31167	601
2.31533	595
2.31900	589
2.32267	585
2.32633	585
2.33000	585
2.33367	580
2.33733	571
2.34100	559
2.34467	551
2.34833	551
2.35200	550
2.35567	548
2.35933	543
2.36300	537
2.36667	530
2.37033	522
2.37400	512
2.37767	498
2.38133	486
2.38500	476
2.38867	471
2.39233	470
2.39600	470
2.39967	472
2.40333	476
2.40700	476
2.41067	476
2.41433	470
2.41800	459
2.42167	452
2.42533	447
2.42900	441
2.43267	435
2.43633	431
2.44000	429
2.44367	427
2.44733	425
2.45100	425
2.45467	423
2.45833	424
2.46200	426
2.46567	425
2.46933	420
2.47300	414
2.47667	410
2.48033	406
2.48400	402
2.48767	398
2.49133	396
2.49500	398
2.49867	402
2.50233	406
2.50600	406
2.50967	405
2.51333	404
2.51700	401
2.52067	396
2.52433	390
2.52800	386
2.53167	381
2.53533	376
2.53900	371
2.54267	366
2.54633	364
2.55000	364
2.55367	366
2.55733	366
2.56100	365
2.56467	364
2.56833	365
2.57200	365
2.57567	365
2.57933	362
2.58300	359
2.58667	355
2.59033	350
2.59400	346
2.59767	342
2.60133	335
2.60500	327
2.60867	325
2.61233	327
2.61600	327
2.61967	326
2.62333	325
2.62700	324
2.63067	324
2.63433	327
2.63800	333
2.64167	338
2.64533	340
2.64900	338
2.65267	332
2.65633	325
2.66000	321
2.66367	320
2.66733	321
2.67100	320
2.67467	319
2.67833	322
2.68200	329
2.68567	335
2.68933	336
2.69300	334
2.69667	333
2.70033	330
2.70400	324
2.70767	316
2.71133	309
2.71500	305
2.71867	305
2.72233	308
2.72600	310
2.72967	311
2.73333	311
2.73700	313
2.74067	314
2.74433	315
2.74800	315
2.75167	313
2.75533	305
2.75900	297
2.76267	290
2.76633	287
2.77000	288
2.77367	292
2.77733	296
2.78100	301
2.78467	304
2.78833	304
2.79200	302
2.79567	302
2.79933	304
2.80300	309
2.80667	312
2.81033	314
2.81400	315
2.81767	315
2.82133	315
2.82500	311
2.82867	306
2.83233	300
2.83600	297
2.83967	300
2.84333	303
2.84700	304
2.85067	303
2.85433	301
2.85800	297
2.86167	293
2.86533	291
2.86900	291
2.87267	294
2.87633	299
2.88000	301
2.88367	304
2.88733	310
2.89100	314
2.89467	311
2.89833	304
2.90200	298
2.90567	294
2.90933	291
2.91300	288
2.91667	285
2.92033	283
2.92400	283
2.92767	284
2.93133	288
2.93500	295
2.93867	299
2.94233	301
2.94600	300
2.94967	296
2.95333	293
2.95700	289
2.96067	287
2.96433	285
2.96800	282
2.97167	279
2.97533	276
2.97900	276
2.98267	278
2.98633	285
2.99000	293
2.99367	299
2.99733	304
3.00100	307
3.00467	310
3.00833	313
3.01200	314
3.01567	315
3.01933	313
3.02300	308
3.02667	305
3.03033	302
3.03400	295
3.03767	283
3.04133	273
3.04500	268
3.04867	267
3.05233	266
3.05600	266
3.05967	271
3.06333	271
3.06700	268
3.07067	268
3.07433	272
3.07800	275
3.08167	275
3.08533	272
3.08900	267
3.09267	263
3.09633	257
3.10000	254
3.10367	253
3.10733	252
3.11100	255
3.11467	262
3.11833	266
3.12200	268
3.12567	268
3.12933	266
3.13300	265
3.13667	264
3.14033	265
3.14400	269
3.14767	272
3.15133	273
3.15500	273
3.15867	274
3.16233	276
3.16600	279
3.16967	274
3.17333	266
3.17700	259
3.18067	252
3.18433	245
3.18800	236
3.19167	227
3.19533	223
3.19900	223
3.20267	227
3.20633	233
3.21000	234
3.21367	232
3.21733	231
3.22100	233
3.22467	236
3.22833	241
3.23200	246
3.23567	249
3.23933	254
3.24300	256
3.24667	255
3.25033	251
3.25400	247
3.25767	242
3.26133	239
3.26500	235
3.26867	234
3.27233	234
3.27600	235
3.27967	238
3.28333	242
3.28700	243
3.29067	241
3.29433	241
3.29800	247
3.30167	255
3.30533	257
3.30900	255
3.31267	246
3.31633	235
3.32000	229
3.32367	221
3.32733	212
3.33100	206
3.33467	206
3.33833	210
3.34200	216
3.34567	225
3.34933	233
3.35300	238
3.35667	241
3.36033	243
3.36400	244
3.36767	245
3.37133	244
3.37500	240
3.37867	233
3.38233	225
3.38600	217
3.38967	211
3.39333	211
3.39700	216
3.40067	222
3.40433	227
3.40800	230
3.41167	229
3.41533	225
3.41900	223
3.42267	225
3.42633	230
3.43000	234
3.43367	234
3.43733	231
3.44100	225
3.44467	216
3.44833	204
3.45200	196
3.45567	190
3.45933	185
3.46300	184
3.46667	187
3.47033	194
3.47400	203
3.47767	210
3.48133	214
3.48500	217
3.48867	218
3.49233	218
3.49600	220
3.49967	222
3.50333	224
3.50700	222
3.51067	218
3.51433	216
3.51800	216
3.52167	217
3.52533	214
3.52900	212
3.53267	209
3.53633	205
3.54000	201
3.54367	198
3.54733	196
3.55100	199
3.55467	204
3.55833	207
3.56200	207
3.56567	206
3.56933	207
3.57300	205
3.57667	203
3.58033	202
3.58400	199
3.58767	197
3.59133	197
3.59500	200
3.59867	205
3.60233	210
3.60600	215
3.60967	216
3.61333	216
3.61700	213
3.62067	211
3.62433	209
3.62800	210
3.63167	215
3.63533	221
3.63900	225
3.64267	224
3.64633	220
3.65000	217
3.65367	219
3.65733	226
3.66100	232
3.66467	232
3.66833	227
3.67200	220
3.67567	215
3.67933	210
3.68300	205
3.68667	196
3.69033	189
3.69400	186
3.69767	188
3.70133	190
3.70500	189
3.70867	188
3.71233	188
3.71600	190
3.71967	192
3.72333	191
3.72700	189
3.73067	184
3.73433	180
3.73800	179
3.74167	181
3.74533	186
3.74900	187
3.75267	184
3.75633	181
3.76000	180
3.76367	181
3.76733	183
3.77100	186
3.77467	187
3.77833	188
3.78200	190
3.78567	190
3.78933	187
3.79300	183
3.79667	180
3.80033	180
3.80400	182
3.80767	182
3.81133	182
3.81500	185
3.81867	184
3.82233	182
3.82600	184
3.82967	187
3.83333	187
3.83700	186
3.84067	183
3.84433	181
3.84800	181
3.85167	180
3.85533	180
3.85900	181
3.86267	180
3.86633	176
3.87000	171
3.87367	165
3.87733	162
3.88100	162
3.88467	163
3.88833	165
3.89200	165
3.89567	163
3.89933	166
3.90300	172
3.90667	176
3.91033	174
3.91400	172
3.91767	171
3.92133	169
3.92500	168
3.92867	168
3.93233	168
3.93600	169
3.93967	171
3.94333	173
3.94700	173
3.95067	170
3.95433	166
3.95800	165
3.96167	168
3.96533	171
3.96900	170
3.97267	163
3.97633	153
3.98000	145
3.98367	138
3.98733	134
3.99100	132
3.99467	127
3.99833	121

[Chromatogram (Ch2)]
Interval(msec)	220
# of Points	1091
Start Time(min)	0.002
End Time(min)	3.998
R.Time (min)	Intensity
0.00167	-1
0.00533	-1
0.00900	-1
0.01267	-1
0.01633	-0
0.02000	-0
0.02367	0
0.02733	0
0.03100	1
0.03467	0
0.03833	0
0.04200	1
0.04567	0
0.04933	0
0.05300	0
0.05667	0
0.06033	0
0.06400	0
0.06767	0
0.07133	0
0.07500	1
0.07867	1
0.08233	1
0.08600	0
0.08967	0
0.09333	1
0.09700	1
0.10067	1
0.10433	1
0.10800	1
0.11167	2
0.11533	2
0.11900	2
0.12267	1
0.12633	1
0.13000	1
0.13367	1
0.13733	1
0.14100	1
0.14467	1
0.14833	1
0.15200	1
0.15567	1
0.15933	1
0.16300	1
0.16667	1
0.17033	1
0.17400	1
0.17767	1
0.18133	1
0.18500	1
0.18867	1
0.19233	1
0.19600	1
0.19967	1
0.20333	1
0.20700	1
0.21067	1
0.21433	1
0.21800	1
0.22167	1
0.22533	1
0.22900	1
0.23267	1
0.23633	1
0.24000	1
0.24367	1
0.24733	1
0.25100	1
0.25467	1
0.25833	1
0.26200	1
0.26567	1
0.26933	1
0.27300	1
0.27667	1
0.28033	1
0.28400	1
0.28767	2
0.29133	2
0.29500	2
0.29867	2
0.30233	2
0.30600	1
0.30967	1
0.31333	1
0.31700	1
0.32067	1
0.32433	1
0.32800	2
0.33167	2
0.33533	2
0.33900	2
0.34267	2
0.34633	2
0.35000	2
0.35367	2
0.35733	2
0.36100	2
0.36467	2
0.36833	2
0.37200	1
0.37567	1
0.37933	1
0.38300	1
0.38667	1
0.39033	1
0.39400	0
0.39767	0
0.40133	0
0.40500	0
0.40867	0
0.41233	0
0.41600	-0
0.41967	-0
0.42333	-0
0.42700	-1
0.43067	-1
0.43433	-1
0.43800	-1
0.44167	-1
0.44533	-1
0.44900	-1
0.45267	-1
0.45633	-1
0.46000	-1
0.46367	-1
0.46733	-1
0.47100	-1
0.47467	-1
0.47833	-1
0.48200	-1
0.48567	-1
0.48933	-1
0.49300	-1
0.49667	-1
0.50033	-1
0.50400	-1
0.50767	-1
0.51133	-1
0.51500	-1
0.51867	-1
0.52233	-1
0.52600	-2
0.52967	-2
0.53333	-2
0.53700	-2
0.54067	-2
0.54433	-2
0.54800	-2
0.55167	-2
0.55533	-2
0.55900	-1
0.56267	-1
0.56633	-1
0.57000	-1
0.57367	-1
0.57733	-1
0.58100	-1
0.58467	-1
0.58833	-1
0.59200	-0
0.59567	-0
0.59933	-0
0.60300	-0
0.60667	-0
0.61033	-0
0.61400	-0
0.61767	-1
0.62133	-1
0.62500	-1
0.62867	-1
0.63233	-1
0.63600	-1
0.63967	-1
0.64333	-1
0.64700	-0
0.65067	-0
0.65433	-0
0.65800	-0
0.66167	-0
0.66533	-1
0.66900	-1
0.67267	-1
0.67633	-1
0.68000	-1
0.68367	-0
0.68733	-0
0.69100	-0
0.69467	-0
0.69833	-0
0.70200	-0
0.70567	-1
0.70933	-1
0.71300	-1
0.71667	-1
0.72033	-1
0.72400	-1
0.72767	-1
0.73133	-1
0.73500	-0
0.73867	-0
0.74233	-0
0.74600	-0
0.74967	-0
0.75333	-0
0.75700	-0
0.76067	-0
0.76433	-0
0.76800	-0
0.77167	0
0.77533	0
0.77900	0
0.78267	0
0.78633	0
0.79000	0
0.79367	1
0.79733	1
0.80100	1
0.80467	1
0.80833	0
0.81200	0
0.81567	0
0.81933	0
0.82300	0
0.82667	0
0.83033	0
0.83400	0
0.83767	0
0.84133	-0
0.84500	-0
0.84867	-0
0.85233	-1
0.85600	-1
0.85967	-0
0.86333	-0
0.86700	-0
0.87067	0
0.87433	0
0.87800	-0
0.88167	-0
0.88533	-0
0.88900	-0
0.89267	-1
0.89633	-1
0.90000	-1
0.90367	-1
0.90733	-1
0.91100	-2
0.91467	-2
0.91833	-2
0.92200	-2
0.92567	-2
0.92933	-2
0.93300	-2
0.93667	-2
0.94033	-2
0.94400	-2
0.94767	-2
0.95133	-2
0.95500	-2
0.95867	-2
0.96233	-3
0.96600	-3
0.96967	-3
0.97333	-3
0.97700	-3
0.98067	-2
0.98433	-2
0.98800	-2
0.99167	-2
0.99533	-2
0.99900	-2
1.00267	-2
1.00633	-1
1.01000	-1
1.01367	-1
1.01733	-1
1.02100	-1
1.02467	-1
1.02833	-1
1.03200	-1
1.03567	-1
1.03933	-1
1.04300	-1
1.04667	-2
1.05033	-2
1.05400	-2
1.05767	-3
1.06133	-3
1.06500	-3
1.06867	-4
1.07233	-4
1.07600	-4
1.07967	-4
1.08333	-4
1.08700	-3
1.09067	-3
1.09433	-3
1.09800	-3
1.10167	-3
1.10533	-4
1.10900	-3
1.11267	-3
1.11633	-3
1.12000	-3
1.12367	-3
1.12733	-4
1.13100	-4
1.13467	-4
1.13833	-4
1.14200	-4
1.14567	-4
1.14933	-4
1.15300	-3
1.15667	-3
1.16033	-3
1.16400	-2
1.16767	-2
1.17133	-2
1.17500	-1
1.17867	-1
1.18233	-1
1.18600	-1
1.18967	-0
1.19333	-0
1.19700	-0
1.20067	-0
1.20433	-0
1.20800	-0
1.21167	-0
1.21533	-0
1.21900	0
1.22267	0
1.22633	0
1.23000	1
1.23367	1
1.23733	0
1.24100	1
1.24467	1
1.24833	1
1.25200	1
1.25567	0
1.25933	1
1.26300	1
1.26667	1
1.27033	1
1.27400	1
1.27767	1
1.28133	1
1.28500	0
1.28867	-0
1.29233	-1
1.29600	-1
1.29967	-2
1.30333	-2
1.30700	-3
1.31067	-3
1.31433	-3
1.31800	-3
1.32167	-3
1.32533	-3
1.32900	-3
1.33267	-3
1.33633	-3
1.34000	-3
1.34367	-3
1.34733	-3
1.35100	-3
1.35467	-4
1.35833	-4
1.36200	-4
1.36567	-4
1.36933	-3
1.37300	-3
1.37667	-3
1.38033	-2
1.38400	-2
1.38767	-2
1.39133	-1
1.39500	-1
1.39867	-1
1.40233	-0
1.40600	-0
1.40967	0
1.41333	1
1.41700	1
1.42067	1
1.42433	1
1.42800	1
1.43167	1
1.43533	1
1.43900	1
1.44267	1
1.44633	1
1.45000	0
1.45367	0
1.45733	-0
1.46100	-0
1.46467	-0
1.46833	-1
1.47200	-1
1.47567	-1
1.47933	-1
1.48300	-1
1.48667	-1
1.49033	-1
1.49400	-1
1.49767	-1
1.50133	-1
1.50500	-1
1.50867	-1
1.51233	-1
1.51600	-1
1.51967	-1
1.52333	-2
1.52700	-2
1.53067	-2
1.53433	-2
1.53800	-2
1.54167	-1
1.54533	-1
1.54900	-1
1.55267	-0
1.55633	-0
1.56000	-0
1.56367	-0
1.56733	-0
1.57100	-0
1.57467	-0
1.57833	-0
1.58200	-1
1.58567	-1
1.58933	-1
1.59300	-2
1.59667	-2
1.60033	-3
1.60400	-4
1.60767	-5
1.61133	-7
1.61500	-9
1.61867	-11
1.62233	-14
1.62600	-16
1.62967	-20
1.63333	-23
1.63700	-27
1.64067	-30
1.64433	-34
1.64800	-37
1.65167	-41
1.65533	-45
1.65900	-48
1.66267	-52
1.66633	-56
1.67000	-61
1.67367	-65
1.67733	-70
1.68100	-75
1.68467	-80
1.68833	-84
1.69200	-88
1.69567	-91
1.69933	-94
1.70300	-97
1.70667	-99
1.71033	-100
1.71400	-102
1.71767	-103
1.72133	-103
1.72500	-104
1.72867	-105
1.73233	-105
1.73600	-106
1.73967	-107
1.74333	-108
1.74700	-109
1.75067	-110
1.75433	-111
1.75800	-111
1.76167	-111
1.76533	-111
1.76900	-111
1.77267	-110
1.77633	-110
1.78000	-109
1.78367	-109
1.78733	-109
1.79100	-109
1.79467	-110
1.79833	-110
1.80200	-111
1.80567	-112
1.80933	-113
1.81300	-114
1.81667	-115
1.82033	-115
1.82400	-115
1.82767	-115
1.83133	-115
1.83500	-115
1.83867	-116
1.84233	-116
1.84600	-116
1.84967	-115
1.85333	-115
1.85700	-115
1.86067	-115
1.86433	-115
1.86800	-115
1.87167	-115
1.87533	-115
1.87900	-115
1.88267	-115
1.88633	-115
1.89000	-115
1.89367	-115
1.89733	-115
1.90100	-114
1.90467	-114
1.90833	-113
1.91200	-113
1.91567	-113
1.91933	-113
1.92300	-113
1.92667	-113
1.93033	-113
1.93400	-112
1.93767	-112
1.94133	-112
1.94500	-112
1.94867	-112
1.95233	-112
1.95600	-113
1.95967	-113
1.96333	-113
1.96700	-113
1.97067	-112
1.97433	-112
1.97800	-112
1.98167	-111
1.98533	-110
1.98900	-109
1.99267	-109
1.99633	-108
2.00000	-107
2.00367	-107
2.00733	-107
2.01100	-106
2.01467	-105
2.01833	-105
2.02200	-104
2.02567	-104
2.02933	-104
2.03300	-104
2.03667	-104
2.04033	-104
2.04400	-103
2.04767	-103
2.05133	-102
2.05500	-102
2.05867	-102
2.06233	-102
2.06600	-102
2.06967	-102
2.07333	-102
2.07700	-102
2.08067	-102
2.08433	-101
2.08800	-101
2.09167	-100
2.09533	-100
2.09900	-100
2.10267	-100
2.10633	-99
2.11000	-99
2.11367	-98
2.11733	-97
2.12100	-97
2.12467	-96
2.12833	-97
2.13200	-97
2.13567	-97
2.13933	-97
2.14300	-97
2.14667	-98
2.15033	-98
2.15400	-98
2.15767	-97
2.16133	-96
2.16500	-96
2.16867	-95
2.17233	-95
2.17600	-95
2.17967	-95
2.18333	-95
2.18700	-94
2.19067	-94
2.19433	-93
2.19800	-93
2.20167	-93
2.20533	-93
2.20900	-93
2.21267	-92
2.21633	-92
2.22000	-92
2.22367	-93
2.22733	-93
2.23100	-92
2.23467	-92
2.23833	-91
2.24200	-89
2.24567	-88
2.24933	-88
2.25300	-87
2.25667	-87
2.26033	-87
2.26400	-87
2.26767	-87
2.27133	-87
2.27500	-86
2.27867	-86
2.28233	-85
2.28600	-85
2.28967	-85
2.29333	-84
2.29700	-84
2.30067	-84
2.30433	-83
2.30800	-83
2.31167	-83
2.31533	-83
2.31900	-83
2.32267	-83
2.32633	-83
2.33000	-83
2.33367	-83
2.33733	-82
2.34100	-81
2.34467	-80
2.34833	-79
2.35200	-78
2.35567	-77
2.35933	-76
2.36300	-75
2.36667	-73
2.37033	-72
2.37400	-70
2.37767	-68
2.38133	-65
2.38500	-62
2.38867	-58
2.39233	-54
2.39600	-51
2.39967	-47
2.40333	-43
2.40700	-39
2.41067	-35
2.41433	-32
2.41800	-29
2.42167	-26
2.42533	-23
2.42900	-21
2.43267	-18
2.43633	-16
2.44000	-14
2.44367	-12
2.44733	-10
2.45100	-8
2.45467	-6
2.45833	-4
2.46200	-3
2.46567	-1
2.46933	0
2.47300	1
2.47667	2
2.48033	3
2.48400	3
2.48767	4
2.49133	5
2.49500	6
2.49867	7
2.50233	8
2.50600	9
2.50967	9
2.51333	10
2.51700	10
2.52067	11
2.52433	12
2.52800	12
2.53167	13
2.53533	13
2.53900	14
2.54267	15
2.54633	15
2.55000	16
2.55367	16
2.55733	17
2.56100	17
2.56467	18
2.56833	18
2.57200	18
2.57567	18
2.57933	18
2.58300	18
2.58667	18
2.59033	18
2.59400	17
2.59767	17
2.60133	18
2.60500	18
2.60867	18
2.61233	18
2.61600	18
2.61967	18
2.62333	18
2.62700	18
2.63067	18
2.63433	18
2.63800	18
2.64167	18
2.64533	18
2.64900	19
2.65267	19
2.65633	19
2.66000	20
2.66367	20
2.66733	20
2.67100	21
2.67467	21
2.67833	21
2.68200	21
2.68567	21
2.68933	22
2.69300	22
2.69667	22
2.70033	22
2.70400	22
2.70767	22
2.71133	22
2.71500	22
2.71867	23
2.72233	23
2.72600	23
2.72967	23
2.73333	24
2.73700	24
2.74067	25
2.74433	25
2.74800	26
2.75167	26
2.75533	27
2.75900	27
2.76267	27
2.76633	27
2.77000	26
2.77367	26
2.77733	25
2.78100	25
2.78467	25
2.78833	24
2.79200	24
2.79567	24
2.79933	24
2.80300	25
2.80667	25
2.81033	25
2.81400	26
2.81767	26
2.82133	26
2.82500	27
2.82867	27
2.83233	27
2.83600	27
2.83967	27
2.84333	27
2.84700	26
2.85067	25
2.85433	23
2.85800	18
2.86167	12
2.86533	2
2.86900	-10
2.87267	-27
2.87633	-47
2.88000	-71
2.88367	-100
2.88733	-133
2.89100	-169
2.89467	-209
2.89833	-252
2.90200	-298
2.90567	-346
2.90933	-395
2.91300	-446
2.91667	-498
2.92033	-550
2.92400	-602
2.92767	-654
2.93133	-705
2.93500	-755
2.93867	-805
2.94233	-857
2.94600	-913
2.94967	-973
2.95333	-1029
2.95700	-1070
2.96067	-1088
2.96433	-1079
2.96800	-1046
2.97167	-993
2.97533	-926
2.97900	-850
2.98267	-771
2.98633	-691
2.99000	-614
2.99367	-541
2.99733	-473
3.00100	-412
3.00467	-356
3.00833	-307
3.01200	-264
3.01567	-225
3.01933	-192
3.02300	-163
3.02667	-138
3.03033	-116
3.03400	-98
3.03767	-81
3.04133	-68
3.04500	-56
3.04867	-46
3.05233	-37
3.05600	-29
3.05967	-23
3.06333	-18
3.06700	-13
3.07067	-10
3.07433	-6
3.07800	-4
3.08167	-1
3.08533	1
3.08900	2
3.09267	4
3.09633	5
3.10000	6
3.10367	8
3.10733	9
3.11100	10
3.11467	11
3.11833	12
3.12200	13
3.12567	13
3.12933	14
3.13300	14
3.13667	15
3.14033	15
3.14400	15
3.14767	16
3.15133	16
3.15500	17
3.15867	17
3.16233	17
3.16600	18
3.16967	18
3.17333	18
3.17700	19
3.18067	19
3.18433	19
3.18800	20
3.19167	20
3.19533	20
3.19900	20
3.20267	20
3.20633	21
3.21000	21
3.21367	21
3.21733	21
3.22100	21
3.22467	22
3.22833	22
3.23200	22
3.23567	22
3.23933	22
3.24300	22
3.24667	22
3.25033	23
3.25400	23
3.25767	23
3.26133	23
3.26500	23
3.26867	23
3.27233	24
3.27600	24
3.27967	23
3.28333	23
3.28700	23
3.29067	23
3.29433	23
3.29800	23
3.30167	23
3.30533	23
3.30900	23
3.31267	23
3.31633	23
3.32000	23
3.32367	24
3.32733	24
3.33100	24
3.33467	24
3.33833	24
3.34200	24
3.34567	24
3.34933	24
3.35300	24
3.35667	24
3.36033	24
3.36400	25
3.36767	25
3.37133	24
3.37500	24
3.37867	24
3.38233	24
3.38600	24
3.38967	24
3.39333	24
3.39700	23
3.40067	23
3.40433	23
3.40800	23
3.41167	24
3.41533	24
3.41900	24
3.42267	24
3.42633	24
3.43000	24
3.43367	25
3.43733	25
3.44100	25
3.44467	26
3.44833	26
3.45200	27
3.45567	27
3.45933	27
3.46300	27
3.46667	28
3.47033	28
3.47400	28
3.47767	28
3.48133	28
3.48500	28
3.48867	28
3.49233	28
3.49600	28
3.49967	28
3.50333	28
3.50700	28
3.51067	28
3.51433	28
3.51800	28
3.52167	28
3.52533	28
3.52900	27
3.53267	27
3.53633	27
3.54000	27
3.54367	27
3.54733	27
3.55100	27
3.55467	27
3.55833	27
3.56200	27
3.56567	27
3.56933	27
3.57300	27
3.57667	27
3.58033	27
3.58400	26
3.58767	26
3.59133	26
3.59500	26
3.59867	25
3.60233	25
3.60600	25
3.60967	24
3.61333	24
3.61700	24
3.62067	24
3.62433	24
3.62800	25
3.63167	25
3.63533	25
3.63900	25
3.64267	25
3.64633	25
3.65000	25
3.65367	26
3.65733	26
3.66100	26
3.66467	26
3.66833	26
3.67200	26
3.67567	26
3.67933	26
3.68300	25
3.68667	25
3.69033	25
3.69400	25
3.69767	25
3.70133	25
3.70500	25
3.70867	25
3.71233	25
3.71600	25
3.71967	25
3.72333	25
3.72700	25
3.73067	25
3.73433	25
3.73800	25
3.74167	26
3.74533	26
3.74900	26
3.75267	26
3.75633	26
3.76000	26
3.76367	26
3.76733	27
3.77100	27
3.77467	27
3.77833	27
3.78200	27
3.78567	26
3.78933	26
3.79300	26
3.79667	26
3.80033	26
3.80400	26
3.80767	26
3.81133	26
3.81500	26
3.81867	26
3.82233	26
3.82600	26
3.82967	26
3.83333	26
3.83700	26
3.84067	26
3.84433	26
3.84800	26
3.85167	26
3.85533	26
3.85900	25
3.86267	25
3.86633	25
3.87000	25
3.87367	24
3.87733	24
3.88100	25
3.88467	25
3.88833	25
3.89200	25
3.89567	25
3.89933	26
3.90300	26
3.90667	26
3.91033	26
3.91400	25
3.91767	25
3.92133	26
3.92500	26
3.92867	26
3.93233	26
3.93600	26
3.93967	26
3.94333	26
3.94700	25
3.95067	25
3.95433	25
3.95800	25
3.96167	25
3.96533	25
3.96900	25
3.97267	25
3.97633	25
3.98000	25
3.98367	25
3.98733	25
3.99100	25
3.99467	25
3.99833	25

[Chromatogram (Ch3)]
Interval(msec)	220
# of Points	1091
Start Time(min)	0.002
End Time(min)	3.998
R.Time (min)	Intensity
0.00167	-1
0.00533	-1
0.00900	1
0.01267	2
0.01633	3
0.02000	3
0.02367	1
0.02733	-2
0.03100	-4
0.03467	-4
0.03833	-3
0.04200	-1
0.04567	1
0.04933	4
0.05300	5
0.05667	5
0.06033	4
0.06400	3
0.06767	2
0.07133	0
0.07500	-0
0.07867	1
0.08233	3
0.08600	1
0.08967	-1
0.09333	-3
0.09700	-2
0.10067	1
0.10433	5
0.10800	8
0.11167	7
0.11533	8
0.11900	9
0.12267	10
0.12633	10
0.13000	9
0.13367	9
0.13733	7
0.14100	4
0.14467	3
0.14833	5
0.15200	6
0.15567	7
0.15933	8
0.16300	10
0.16667	11
0.17033	13
0.17400	14
0.17767	13
0.18133	13
0.18500	10
0.18867	9
0.19233	9
0.19600	10
0.19967	11
0.20333	10
0.20700	11
0.21067	13
0.21433	15
0.21800	15
0.22167	13
0.22533	13
0.22900	12
0.23267	11
0.23633	10
0.24000	10
0.24367	11
0.24733	11
0.25100	10
0.25467	7
0.25833	7
0.26200	9
0.26567	11
0.26933	13
0.27300	11
0.27667	11
0.28033	13
0.28400	12
0.28767	12
0.29133	13
0.29500	13
0.29867	14
0.30233	15
0.30600	15
0.30967	15
0.31333	14
0.31700	14
0.32067	15
0.32433	16
0.32800	15
0.33167	15
0.33533	13
0.33900	11
0.34267	10
0.34633	13
0.35000	15
0.35367	16
0.35733	16
0.36100	15
0.36467	15
0.36833	15
0.37200	13
0.37567	11
0.37933	11
0.38300	10
0.38667	10
0.39033	12
0.39400	11
0.39767	13
0.40133	16
0.40500	19
0.40867	19
0.41233	19
0.41600	16
0.41967	13
0.42333	14
0.42700	13
0.43067	14
0.43433	12
0.43800	8
0.44167	7
0.44533	8
0.44900	7
0.45267	8
0.45633	11
0.46000	13
0.46367	12
0.46733	11
0.47100	11
0.47467	11
0.47833	13
0.48200	14
0.48567	12
0.48933	11
0.49300	12
0.49667	15
0.50033	16
0.50400	16
0.50767	14
0.51133	15
0.51500	17
0.51867	17
0.52233	17
0.52600	20
0.52967	21
0.53333	21
0.53700	17
0.54067	14
0.54433	14
0.54800	15
0.55167	15
0.55533	15
0.55900	14
0.56267	14
0.56633	13
0.57000	13
0.57367	13
0.57733	15
0.58100	19
0.58467	19
0.58833	17
0.59200	19
0.59567	16
0.59933	14
0.60300	12
0.60667	13
0.61033	12
0.61400	10
0.61767	10
0.62133	12
0.62500	15
0.62867	15
0.63233	16
0.63600	16
0.63967	17
0.64333	18
0.64700	18
0.65067	18
0.65433	18
0.65800	16
0.66167	16
0.66533	16
0.66900	17
0.67267	19
0.67633	17
0.68000	16
0.68367	14
0.68733	15
0.69100	14
0.69467	15
0.69833	17
0.70200	17
0.70567	18
0.70933	20
0.71300	19
0.71667	19
0.72033	18
0.72400	17
0.72767	13
0.73133	10
0.73500	10
0.73867	13
0.74233	15
0.74600	14
0.74967	14
0.75333	16
0.75700	19
0.76067	19
0.76433	17
0.76800	15
0.77167	12
0.77533	10
0.77900	10
0.78267	9
0.78633	10
0.79000	13
0.79367	16
0.79733	18
0.80100	20
0.80467	21
0.80833	21
0.81200	19
0.81567	16
0.81933	14
0.82300	13
0.82667	13
0.83033	11
0.83400	11
0.83767	11
0.84133	10
0.84500	10
0.84867	11
0.85233	13
0.85600	16
0.85967	20
0.86333	21
0.86700	20
0.87067	18
0.87433	18
0.87800	18
0.88167	19
0.88533	18
0.88900	19
0.89267	20
0.89633	21
0.90000	20
0.90367	19
0.90733	20
0.91100	21
0.91467	20
0.91833	19
0.92200	21
0.92567	22
0.92933	20
0.93300	22
0.93667	26
0.94033	27
0.94400	26
0.94767	26
0.95133	25
0.95500	27
0.95867	30
0.96233	31
0.96600	29
0.96967	28
0.97333	26
0.97700	24
0.98067	23
0.98433	21
0.98800	22
0.99167	22
0.99533	21
0.99900	21
1.00267	21
1.00633	20
1.01000	20
1.01367	19
1.01733	20
1.02100	23
1.02467	24
1.02833	23
1.03200	22
1.03567	23
1.03933	23
1.04300	21
1.04667	22
1.05033	22
1.05400	22
1.05767	20
1.06133	18
1.06500	18
1.06867	19
1.07233	22
1.07600	24
1.07967	24
1.08333	22
1.08700	20
1.09067	18
1.09433	20
1.09800	22
1.10167	23
1.10533	23
1.10900	21
1.11267	21
1.11633	20
1.12000	19
1.12367	20
1.12733	20
1.13100	21
1.13467	22
1.13833	24
1.14200	24
1.14567	23
1.14933	22
1.15300	22
1.15667	22
1.16033	21
1.16400	20
1.16767	18
1.17133	17
1.17500	17
1.17867	17
1.18233	16
1.18600	18
1.18967	20
1.19333	21
1.19700	21
1.20067	19
1.20433	17
1.20800	19
1.21167	21
1.21533	19
1.21900	17
1.22267	19
1.22633	22
1.23000	25
1.23367	25
1.23733	23
1.24100	21
1.24467	19
1.24833	18
1.25200	16
1.25567	17
1.25933	18
1.26300	19
1.26667	19
1.27033	20
1.27400	19
1.27767	17
1.28133	15
1.28500	16
1.28867	16
1.29233	16
1.29600	16
1.29967	18
1.30333	22
1.30700	24
1.31067	23
1.31433	23
1.31800	22
1.32167	21
1.32533	21
1.32900	23
1.33267	25
1.33633	24
1.34000	23
1.34367	26
1.34733	26
1.35100	26
1.35467	26
1.35833	24
1.36200	21
1.36567	20
1.36933	21
1.37300	22
1.37667	24
1.38033	24
1.38400	24
1.38767	24
1.39133	23
1.39500	21
1.39867	21
1.40233	23
1.40600	25
1.40967	25
1.41333	22
1.41700	21
1.42067	21
1.42433	20
1.42800	20
1.43167	22
1.43533	21
1.43900	19
1.44267	20
1.44633	22
1.45000	21
1.45367	20
1.45733	20
1.46100	20
1.46467	18
1.46833	18
1.47200	18
1.47567	18
1.47933	18
1.48300	18
1.48667	20
1.49033	23
1.49400	23
1.49767	21
1.50133	20
1.50500	21
1.50867	22
1.51233	23
1.51600	24
1.51967	24
1.52333	22
1.52700	22
1.53067	21
1.53433	21
1.53800	20
1.54167	20
1.54533	23
1.54900	24
1.55267	22
1.55633	20
1.56000	18
1.56367	17
1.56733	17
1.57100	16
1.57467	19
1.57833	19
1.58200	19
1.58567	20
1.58933	20
1.59300	21
1.59667	20
1.60033	19
1.60400	19
1.60767	20
1.61133	22
1.61500	24
1.61867	25
1.62233	24
1.62600	25
1.62967	26
1.63333	27
1.63700	27
1.64067	28
1.64433	28
1.64800	26
1.65167	26
1.65533	28
1.65900	27
1.66267	28
1.66633	27
1.67000	27
1.67367	29
1.67733	32
1.68100	35
1.68467	34
1.68833	35
1.69200	36
1.69567	37
1.69933	36
1.70300	34
1.70667	32
1.71033	31
1.71400	32
1.71767	33
1.72133	34
1.72500	35
1.72867	38
1.73233	38
1.73600	37
1.73967	39
1.74333	38
1.74700	37
1.75067	37
1.75433	36
1.75800	36
1.76167	37
1.76533	37
1.76900	37
1.77267	36
1.77633	33
1.78000	33
1.78367	36
1.78733	40
1.79100	41
1.79467	42
1.79833	44
1.80200	45
1.80567	47
1.80933	48
1.81300	49
1.81667	49
1.82033	48
1.82400	49
1.82767	48
1.83133	50
1.83500	52
1.83867	53
1.84233	55
1.84600	56
1.84967	55
1.85333	51
1.85700	49
1.86067	48
1.86433	47
1.86800	49
1.87167	50
1.87533	52
1.87900	55
1.88267	55
1.88633	54
1.89000	56
1.89367	60
1.89733	64
1.90100	66
1.90467	64
1.90833	63
1.91200	63
1.91567	63
1.91933	61
1.92300	61
1.92667	64
1.93033	66
1.93400	66
1.93767	67
1.94133	67
1.94500	66
1.94867	65
1.95233	66
1.95600	67
1.95967	68
1.96333	71
1.96700	75
1.97067	78
1.97433	79
1.97800	78
1.98167	76
1.98533	76
1.98900	75
1.99267	76
1.99633	76
2.00000	77
2.00367	81
2.00733	83
2.01100	82
2.01467	80
2.01833	81
2.02200	82
2.02567	84
2.02933	86
2.03300	89
2.03667	89
2.04033	90
2.04400	89
2.04767	91
2.05133	91
2.05500	92
2.05867	93
2.06233	94
2.06600	94
2.06967	96
2.07333	99
2.07700	101
2.08067	100
2.08433	98
2.08800	96
2.09167	98
2.09533	101
2.09900	101
2.10267	101
2.10633	102
2.11000	104
2.11367	107
2.11733	109
2.12100	110
2.12467	111
2.12833	112
2.13200	114
2.13567	114
2.13933	115
2.14300	114
2.14667	111
2.15033	111
2.15400	112
2.15767	113
2.16133	114
2.16500	115
2.16867	116
2.17233	116
2.17600	119
2.17967	122
2.18333	123
2.18700	124
2.19067	127
2.19433	130
2.19800	133
2.20167	133
2.20533	132
2.20900	133
2.21267	136
2.21633	136
2.22000	136
2.22367	138
2.22733	141
2.23100	146
2.23467	148
2.23833	149
2.24200	150
2.24567	151
2.24933	152
2.25300	151
2.25667	150
2.26033	150
2.26400	149
2.26767	151
2.27133	152
2.27500	153
2.27867	155
2.28233	157
2.28600	159
2.28967	161
2.29333	161
2.29700	162
2.30067	162
2.30433	162
2.30800	163
2.31167	165
2.31533	166
2.31900	168
2.32267	171
2.32633	173
2.33000	173
2.33367	172
2.33733	173
2.34100	172
2.34467	172
2.34833	174
2.35200	175
2.35567	178
2.35933	183
2.36300	184
2.36667	183
2.37033	180
2.37400	178
2.37767	176
2.38133	174
2.38500	173
2.38867	174
2.39233	176
2.39600	182
2.39967	187
2.40333	190
2.40700	190
2.41067	190
2.41433	191
2.41800	191
2.42167	193
2.42533	194
2.42900	196
2.43267	197
2.43633	197
2.44000	196
2.44367	227
2.44733	304
2.45100	383
2.45467	438
2.45833	447
2.46200	428
2.46567	407
2.46933	390
2.47300	375
2.47667	355
2.48033	330
2.48400	302
2.48767	271
2.49133	241
2.49500	217
2.49867	199
2.50233	190
2.50600	189
2.50967	192
2.51333	200
2.51700	206
2.52067	208
2.52433	205
2.52800	196
2.53167	185
2.53533	169
2.53900	150
2.54267	133
2.54633	120
2.55000	105
2.55367	73
2.55733	35
2.56100	20
2.56467	32
2.56833	64
2.57200	106
2.57567	145
2.57933	181
2.58300	221
2.58667	269
2.59033	325
2.59400	383
2.59767	442
2.60133	492
2.60500	533
2.60867	565
2.61233	587
2.61600	597
2.61967	596
2.62333	585
2.62700	568
2.63067	547
2.63433	526
2.63800	507
2.64167	488
2.64533	477
2.64900	476
2.65267	476
2.65633	477
2.66000	480
2.66367	488
2.66733	498
2.67100	510
2.67467	524
2.67833	536
2.68200	549
2.68567	559
2.68933	572
2.69300	585
2.69667	596
2.70033	605
2.70400	614
2.70767	621
2.71133	627
2.71500	635
2.71867	643
2.72233	649
2.72600	656
2.72967	661
2.73333	663
2.73700	663
2.74067	664
2.74433	668
2.74800	670
2.75167	670
2.75533	666
2.75900	662
2.76267	662
2.76633	663
2.77000	662
2.77367	656
2.77733	648
2.78100	641
2.78467	635
2.78833	627
2.79200	617
2.79567	608
2.79933	602
2.80300	596
2.80667	589
2.81033	580
2.81400	575
2.81767	570
2.82133	566
2.82500	563
2.82867	569
2.83233	591
2.83600	640
2.83967	737
2.84333	908
2.84700	1172
2.85067	1544
2.85433	2029
2.85800	2602
2.86167	3224
2.86533	3847
2.86900	4417
2.87267	4889
2.87633	5225
2.88000	5406
2.88367	5435
2.88733	5332
2.89100	5117
2.89467	4824
2.89833	4484
2.90200	4120
2.90567	3754
2.90933	3400
2.91300	3064
2.91667	2753
2.92033	2471
2.92400	2218
2.92767	1992
2.93133	1794
2.93500	1620
2.93867	1466
2.94233	1331
2.94600	1214
2.94967	1114
2.95333	1027
2.95700	952
2.96067	889
2.96433	835
2.96800	786
2.97167	744
2.97533	708
2.97900	676
2.98267	651
2.98633	625
2.99000	604
2.99367	586
2.99733	568
3.00100	555
3.00467	544
3.00833	534
3.01200	529
3.01567	525
3.01933	519
3.02300	512
3.02667	507
3.03033	505
3.03400	500
3.03767	495
3.04133	492
3.04500	491
3.04867	491
3.05233	488
3.05600	485
3.05967	484
3.06333	483
3.06700	481
3.07067	480
3.07433	481
3.07800	482
3.08167	480
3.08533	478
3.08900	474
3.09267	470
3.09633	469
3.10000	470
3.10367	471
3.10733	472
3.11100	471
3.11467	468
3.11833	462
3.12200	456
3.12567	454
3.12933	451
3.13300	447
3.13667	445
3.14033	445
3.14400	442
3.14767	441
3.15133	440
3.15500	441
3.15867	438
3.16233	437
3.16600	435
3.16967	430
3.17333	426
3.17700	422
3.18067	421
3.18433	420
3.18800	418
3.19167	417
3.19533	417
3.19900	415
3.20267	413
3.20633	410
3.21000	408
3.21367	408
3.21733	407
3.22100	406
3.22467	407
3.22833	406
3.23200	405
3.23567	402
3.23933	398
3.24300	395
3.24667	392
3.25033	391
3.25400	390
3.25767	388
3.26133	385
3.26500	383
3.26867	380
3.27233	377
3.27600	376
3.27967	375
3.28333	375
3.28700	373
3.29067	371
3.29433	368
3.29800	367
3.30167	366
3.30533	364
3.30900	362
3.31267	361
3.31633	359
3.32000	354
3.32367	349
3.32733	346
3.33100	346
3.33467	346
3.33833	342
3.34200	337
3.34567	334
3.34933	330
3.35300	326
3.35667	325
3.36033	323
3.36400	322
3.36767	319
3.37133	315
3.37500	314
3.37867	314
3.38233	313
3.38600	313
3.38967	313
3.39333	312
3.39700	308
3.40067	304
3.40433	302
3.40800	302
3.41167	302
3.41533	299
3.41900	297
3.42267	295
3.42633	294
3.43000	292
3.43367	290
3.43733	288
3.44100	288
3.44467	286
3.44833	285
3.45200	282
3.45567	279
3.45933	276
3.46300	275
3.46667	274
3.47033	272
3.47400	271
3.47767	269
3.48133	268
3.48500	268
3.48867	266
3.49233	264
3.49600	262
3.49967	261
3.50333	259
3.50700	258
3.51067	256
3.51433	257
3.51800	258
3.52167	258
3.52533	257
3.52900	256
3.53267	254
3.53633	252
3.54000	249
3.54367	248
3.54733	247
3.55100	248
3.55467	248
3.55833	246
3.56200	244
3.56567	244
3.56933	244
3.57300	245
3.57667	245
3.58033	243
3.58400	242
3.58767	241
3.59133	241
3.59500	238
3.59867	234
3.60233	231
3.60600	231
3.60967	232
3.61333	232
3.61700	229
3.62067	229
3.62433	228
3.62800	229
3.63167	230
3.63533	228
3.63900	228
3.64267	228
3.64633	229
3.65000	231
3.65367	233
3.65733	234
3.66100	234
3.66467	232
3.66833	232
3.67200	232
3.67567	230
3.67933	229
3.68300	231
3.68667	233
3.69033	234
3.69400	234
3.69767	232
3.70133	231
3.70500	230
3.70867	231
3.71233	232
3.71600	229
3.71967	228
3.72333	225
3.72700	222
3.73067	222
3.73433	220
3.73800	220
3.74167	220
3.74533	221
3.74900	222
3.75267	222
3.75633	219
3.76000	217
3.76367	216
3.76733	215
3.77100	214
3.77467	213
3.77833	212
3.78200	211
3.78567	212
3.78933	214
3.79300	214
3.79667	217
3.80033	216
3.80400	215
3.80767	214
3.81133	212
3.81500	211
3.81867	211
3.82233	208
3.82600	206
3.82967	204
3.83333	205
3.83700	206
3.84067	207
3.84433	208
3.84800	209
3.85167	208
3.85533	207
3.85900	207
3.86267	205
3.86633	203
3.87000	204
3.87367	207
3.87733	208
3.88100	209
3.88467	206
3.88833	204
3.89200	201
3.89567	201
3.89933	203
3.90300	202
3.90667	202
3.91033	205
3.91400	208
3.91767	208
3.92133	208
3.92500	206
3.92867	205
3.93233	204
3.93600	205
3.93967	204
3.94333	205
3.94700	206
3.95067	206
3.95433	208
3.95800	208
3.96167	205
3.96533	202
3.96900	200
3.97267	199
3.97633	201
3.98000	204
3.98367	205
3.98733	206
3.99100	204
3.99467	202
3.99833	199

[Status Trace (Column Oven Temperature)]
Interval(msec)	1000
# of Points	240
Start Time(min)	0.001
End Time(min)	3.984
Intensity Units	
Intensity Multiplier	1
R.Time (min)	Intensity
0.00073	35.04
0.01740	35.03
0.03407	35.03
0.05073	35.02
0.06740	35.02
0.08407	35.02
0.10073	35.02
0.11740	35.01
0.13407	35.02
0.15073	35.02
0.16740	35.01
0.18407	35.02
0.20073	35.01
0.21740	35.01
0.23407	35.01
0.25073	35.00
0.26740	34.99
0.28407	34.99
0.30073	34.99
0.31740	34.98
0.33407	34.98
0.35073	34.98
0.36740	34.99
0.38407	34.99
0.40073	34.99
0.41740	34.98
0.43407	34.98
0.45073	34.98
0.46740	34.98
0.48407	34.98
0.50073	34.99
0.51740	34.99
0.53407	34.99
0.55073	35.00
0.56740	35.00
0.58407	35.00
0.60073	35.00
0.61740	35.00
0.63407	34.99
0.65073	34.99
0.66740	35.00
0.68407	35.00
0.70073	34.99
0.71740	35.00
0.73407	34.99
0.75073	34.99
0.76740	34.99
0.78407	34.99
0.80073	34.99
0.81740	35.00
0.83407	35.00
0.85073	35.00
0.86740	34.99
0.88407	34.99
0.90073	34.99
0.91740	35.00
0.93407	35.00
0.95073	35.00
0.96740	35.01
0.98407	35.01
1.00073	35.00
1.01740	34.99
1.03407	35.01
1.05073	35.01
1.06740	35.01
1.08407	35.01
1.10073	35.03
1.11740	35.03
1.13407	35.03
1.15073	35.04
1.16740	35.03
1.18407	35.03
1.20073	35.02
1.21740	35.02
1.23407	35.01
1.25073	35.00
1.26740	35.00
1.28407	35.00
1.30073	35.02
1.31740	35.03
1.33407	35.04
1.35073	35.03
1.36740	35.03
1.38407	35.03
1.40073	35.02
1.41740	35.01
1.43407	35.00
1.45073	35.00
1.46740	34.99
1.48407	35.00
1.50073	35.00
1.51740	35.00
1.53407	35.00
1.55073	34.99
1.56740	34.98
1.58407	34.97
1.60073	35.01
1.61740	35.10
1.63407	35.27
1.65073	35.49
1.66740	35.79
1.68407	36.16
1.70073	36.51
1.71740	36.85
1.73407	37.19
1.75073	37.55
1.76740	37.86
1.78407	38.16
1.80073	38.51
1.81740	38.84
1.83407	39.18
1.85073	39.51
1.86740	39.83
1.88407	40.17
1.90073	40.49
1.91740	40.82
1.93407	41.14
1.95073	41.48
1.96740	41.81
1.98407	42.13
2.00073	42.46
2.01740	42.77
2.03407	43.10
2.05073	43.41
2.06740	43.74
2.08407	44.05
2.10073	44.39
2.11740	44.71
2.13407	45.03
2.15073	45.38
2.16740	45.69
2.18407	46.02
2.20073	46.35
2.21740	46.69
2.23407	47.02
2.25073	47.33
2.26740	47.68
2.28407	48.00
2.30073	48.33
2.31740	48.70
2.33407	49.02
2.35073	49.32
2.36740	49.59
2.38407	49.70
2.40073	49.71
2.41740	49.70
2.43407	49.70
2.45073	49.71
2.46740	49.71
2.48407	49.73
2.50073	49.74
2.51740	49.75
2.53407	49.75
2.55073	49.77
2.56740	49.76
2.58407	49.78
2.60073	49.78
2.61740	49.80
2.63407	49.81
2.65073	49.81
2.66740	49.82
2.68407	49.83
2.70073	49.85
2.71740	49.85
2.73407	49.86
2.75073	49.85
2.76740	49.86
2.78407	49.88
2.80073	49.88
2.81740	49.87
2.83407	49.85
2.85073	49.85
2.86740	49.86
2.88407	49.87
2.90073	49.88
2.91740	49.89
2.93407	49.91
2.95073	49.92
2.96740	49.93
2.98407	49.94
3.00073	49.95
3.01740	49.96
3.03407	49.97
3.05073	49.99
3.06740	49.99
3.08407	50.01
3.10073	50.01
3.11740	50.02
3.13407	50.03
3.15073	50.04
3.16740	50.04
3.18407	50.04
3.20073	50.04
3.21740	50.04
3.23407	50.05
3.25073	50.05
3.26740	50.06
3.28407	50.07
3.30073	50.08
3.31740	50.08
3.33407	50.09
3.35073	50.09
3.36740	50.09
3.38407	50.10
3.40073	50.11
3.41740	50.10
3.43407	50.10
3.45073	50.08
3.46740	50.07
3.48407	50.06
3.50073	50.04
3.51740	50.04
3.53407	50.04
3.55073	50.04
3.56740	50.03
3.58407	50.04
3.60073	50.05
3.61740	50.06
3.63407	50.06
3.65073	50.06
3.66740	50.05
3.68407	50.06
3.70073	50.07
3.71740	50.07
3.73407	50.08
3.75073	50.06
3.76740	50.05
3.78407	50.05
3.80073	50.05
3.81740	50.04
3.83407	50.03
3.85073	50.03
3.86740	50.04
3.88407	50.05
3.90073	50.05
3.91740	50.05
3.93407	50.05
3.95073	50.05
3.96740	50.05
3.98407	50.05

[Status Trace (Injection Unit Temperature)]
Interval(msec)	1000
# of Points	240
Start Time(min)	0.001
End Time(min)	3.984
Intensity Units	
Intensity Multiplier	1
R.Time (min)	Intensity
0.00073	99.98
0.01740	99.98
0.03407	99.99
0.05073	99.99
0.06740	99.99
0.08407	99.99
0.10073	99.98
0.11740	99.99
0.13407	99.99
0.15073	99.99
0.16740	99.99
0.18407	99.99
0.20073	99.99
0.21740	99.99
0.23407	99.99
0.25073	99.99
0.26740	99.99
0.28407	99.99
0.30073	99.99
0.31740	99.99
0.33407	99.99
0.35073	99.98
0.36740	99.99
0.38407	99.99
0.40073	99.98
0.41740	99.98
0.43407	99.99
0.45073	99.98
0.46740	99.98
0.48407	99.98
0.50073	99.98
0.51740	99.99
0.53407	99.99
0.55073	99.98
0.56740	99.98
0.58407	99.98
0.60073	99.98
0.61740	99.98
0.63407	99.98
0.65073	99.98
0.66740	99.98
0.68407	99.98
0.70073	99.98
0.71740	99.98
0.73407	99.98
0.75073	99.98
0.76740	99.98
0.78407	99.98
0.80073	99.98
0.81740	99.98
0.83407	99.98
0.85073	99.98
0.86740	99.98
0.88407	99.98
0.90073	99.98
0.91740	99.98
0.93407	99.98
0.95073	99.98
0.96740	99.98
0.98407	99.98
1.00073	99.98
1.01740	99.98
1.03407	99.98
1.05073	99.99
1.06740	99.99
1.08407	99.98
1.10073	99.99
1.11740	99.98
1.13407	99.99
1.15073	99.99
1.16740	99.99
1.18407	99.99
1.20073	99.98
1.21740	99.99
1.23407	99.99
1.25073	99.99
1.26740	99.99
1.28407	99.99
1.30073	99.99
1.31740	99.99
1.33407	99.99
1.35073	99.99
1.36740	99.99
1.38407	99.99
1.40073	99.99
1.41740	99.99
1.43407	99.99
1.45073	99.99
1.46740	99.99
1.48407	99.99
1.50073	99.99
1.51740	99.99
1.53407	99.99
1.55073	99.99
1.56740	99.99
1.58407	99.99
1.60073	99.99
1.61740	99.99
1.63407	99.99
1.65073	99.99
1.66740	100.00
1.68407	99.99
1.70073	99.99
1.71740	99.99
1.73407	99.99
1.75073	99.99
1.76740	99.99
1.78407	99.99
1.80073	99.99
1.81740	99.99
1.83407	99.99
1.85073	99.98
1.86740	99.99
1.88407	99.98
1.90073	99.98
1.91740	99.99
1.93407	99.98
1.95073	99.98
1.96740	99.98
1.98407	99.98
2.00073	99.98
2.01740	99.98
2.03407	99.98
2.05073	99.98
2.06740	99.98
2.08407	99.98
2.10073	99.98
2.11740	99.98
2.13407	99.97
2.15073	99.98
2.16740	99.98
2.18407	99.97
2.20073	99.97
2.21740	99.98
2.23407	99.97
2.25073	99.97
2.26740	99.97
2.28407	99.97
2.30073	99.97
2.31740	99.97
2.33407	99.97
2.35073	99.97
2.36740	99.98
2.38407	99.97
2.40073	99.97
2.41740	99.97
2.43407	99.97
2.45073	99.97
2.46740	99.97
2.48407	99.98
2.50073	99.98
2.51740	99.98
2.53407	99.97
2.55073	99.98
2.56740	99.98
2.58407	99.98
2.60073	99.97
2.61740	99.98
2.63407	99.98
2.65073	99.98
2.66740	99.98
2.68407	99.98
2.70073	99.99
2.71740	99.99
2.73407	99.99
2.75073	99.99
2.76740	99.99
2.78407	99.99
2.80073	99.99
2.81740	100.00
2.83407	100.00
2.85073	100.00
2.86740	100.00
2.88407	100.00
2.90073	100.01
2.91740	100.00
2.93407	100.01
2.95073	100.01
2.96740	100.01
2.98407	100.01
3.00073	100.01
3.01740	100.01
3.03407	100.01
3.05073	100.02
3.06740	100.02
3.08407	100.02
3.10073	100.02
3.11740	100.02
3.13407	100.02
3.15073	100.02
3.16740	100.02
3.18407	100.02
3.20073	100.03
3.21740	100.03
3.23407	100.03
3.25073	100.03
3.26740	100.03
3.28407	100.03
3.30073	100.03
3.31740	100.03
3.33407	100.03
3.35073	100.03
3.36740	100.04
3.38407	100.03
3.40073	100.04
3.41740	100.04
3.43407	100.04
3.45073	100.04
3.46740	100.04
3.48407	100.04
3.50073	100.04
3.51740	100.04
3.53407	100.04
3.55073	100.04
3.56740	100.04
3.58407	100.04
3.60073	100.05
3.61740	100.05
3.63407	100.04
3.65073	100.05
3.66740	100.05
3.68407	100.05
3.70073	100.05
3.71740	100.05
3.73407	100.05
3.75073	100.05
3.76740	100.05
3.78407	100.05
3.80073	100.05
3.81740	100.05
3.83407	100.05
3.85073	100.05
3.86740	100.05
3.88407	100.05
3.90073	100.05
3.91740	100.05
3.93407	100.05
3.95073	100.05
3.96740	100.05
3.98407	100.05

[Status Trace (Carrier Gas Pressure)]
Interval(msec)	1000
# of Points	240
Start Time(min)	0.001
End Time(min)	3.984
Intensity Units	
Intensity Multiplier	1
R.Time (min)	Intensity
0.00073	58.00
0.01740	56.57
0.03407	55.99
0.05073	58.38
0.06740	59.89
0.08407	58.40
0.10073	57.97
0.11740	58.00
0.13407	58.01
0.15073	58.01
0.16740	58.00
0.18407	58.00
0.20073	58.00
0.21740	58.00
0.23407	58.00
0.25073	58.00
0.26740	58.00
0.28407	58.00
0.30073	58.00
0.31740	58.00
0.33407	58.00
0.35073	58.00
0.36740	58.00
0.38407	58.00
0.40073	58.00
0.41740	58.00
0.43407	58.00
0.45073	58.00
0.46740	58.00
0.48407	58.00
0.50073	58.00
0.51740	58.00
0.53407	58.00
0.55073	58.00
0.56740	58.00
0.58407	58.00
0.60073	58.00
0.61740	58.00
0.63407	58.00
0.65073	58.00
0.66740	58.00
0.68407	58.00
0.70073	58.00
0.71740	58.00
0.73407	58.00
0.75073	58.00
0.76740	58.00
0.78407	58.00
0.80073	58.00
0.81740	58.00
0.83407	58.00
0.85073	58.00
0.86740	58.00
0.88407	58.00
0.90073	58.00
0.91740	58.00
0.93407	58.00
0.95073	58.00
0.96740	58.00
0.98407	58.00
1.00073	58.00
1.01740	58.00
1.03407	58.00
1.05073	58.00
1.06740	58.00
1.08407	58.00
1.10073	58.00
1.11740	58.00
1.13407	58.00
1.15073	58.00
1.16740	58.00
1.18407	58.00
1.20073	58.00
1.21740	58.00
1.23407	58.00
1.25073	58.00
1.26740	58.00
1.28407	58.00
1.30073	58.00
1.31740	58.00
1.33407	58.00
1.35073	58.00
1.36740	58.00
1.38407	58.00
1.40073	58.00
1.41740	58.00
1.43407	58.00
1.45073	58.00
1.46740	58.00
1.48407	58.00
1.50073	58.00
1.51740	58.00
1.53407	58.00
1.55073	58.00
1.56740	58.00
1.58407	58.00
1.60073	58.00
1.61740	58.00
1.63407	58.00
1.65073	58.00
1.66740	58.01
1.68407	58.01
1.70073	58.00
1.71740	58.00
1.73407	58.00
1.75073	58.00
1.76740	58.00
1.78407	58.00
1.80073	58.00
1.81740	58.00
1.83407	58.00
1.85073	58.00
1.86740	58.00
1.88407	58.00
1.90073	58.00
1.91740	58.00
1.93407	58.00
1.95073	58.00
1.96740	58.00
1.98407	58.00
2.00073	58.00
2.01740	58.00
2.03407	58.00
2.05073	58.00
2.06740	58.00
2.08407	58.00
2.10073	58.00
2.11740	58.00
2.13407	58.00
2.15073	58.00
2.16740	58.00
2.18407	58.00
2.20073	58.00
2.21740	58.00
2.23407	58.00
2.25073	58.00
2.26740	58.00
2.28407	58.00
2.30073	58.00
2.31740	58.00
2.33407	58.00
2.35073	58.00
2.36740	58.00
2.38407	57.99
2.40073	57.99
2.41740	58.00
2.43407	58.00
2.45073	58.00
2.46740	58.00
2.48407	58.00
2.50073	58.00
2.51740	57.99
2.53407	57.99
2.55073	58.00
2.56740	58.00
2.58407	58.00
2.60073	58.00
2.61740	58.00
2.63407	58.00
2.65073	58.00
2.66740	58.00
2.68407	58.00
2.70073	58.00
2.71740	58.00
2.73407	58.00
2.75073	58.00
2.76740	58.00
2.78407	58.00
2.80073	58.00
2.81740	58.00
2.83407	58.00
2.85073	58.00
2.86740	58.00
2.88407	58.00
2.90073	58.00
2.91740	58.00
2.93407	58.00
2.95073	58.00
2.96740	58.00
2.98407	58.00
3.00073	58.00
3.01740	58.00
3.03407	58.00
3.05073	58.00
3.06740	58.00
3.08407	58.00
3.10073	58.00
3.11740	58.00
3.13407	58.00
3.15073	58.00
3.16740	58.00
3.18407	58.00
3.20073	58.00
3.21740	58.00
3.23407	58.00
3.25073	58.00
3.26740	58.00
3.28407	58.00
3.30073	58.00
3.31740	58.00
3.33407	58.00
3.35073	58.00
3.36740	58.00
3.38407	58.00
3.40073	58.00
3.41740	58.00
3.43407	58.00
3.45073	58.00
3.46740	58.00
3.48407	58.00
3.50073	58.00
3.51740	58.00
3.53407	58.00
3.55073	58.00
3.56740	58.00
3.58407	58.00
3.60073	58.00
3.61740	58.00
3.63407	58.00
3.65073	58.00
3.66740	58.00
3.68407	58.00
3.70073	58.00
3.71740	58.00
3.73407	58.00
3.75073	58.00
3.76740	58.00
3.78407	58.00
3.80073	58.00
3.81740	58.00
3.83407	58.00
3.85073	58.00
3.86740	58.00
3.88407	58.00
3.90073	58.00
3.91740	58.00
3.93407	58.00
3.95073	58.00
3.96740	58.00
3.98407	58.00

[Status Trace (Carrier Gas Flow)]
Interval(msec)	1000
# of Points	240
Start Time(min)	0.001
End Time(min)	3.984
Intensity Units	
Intensity Multiplier	1
R.Time (min)	Intensity
0.00073	34.52
0.01740	34.01
0.03407	34.54
0.05073	34.55
0.06740	34.49
0.08407	34.52
0.10073	34.52
0.11740	34.52
0.13407	34.52
0.15073	34.52
0.16740	34.52
0.18407	34.52
0.20073	34.52
0.21740	34.52
0.23407	34.52
0.25073	34.52
0.26740	34.52
0.28407	34.52
0.30073	34.52
0.31740	34.52
0.33407	34.52
0.35073	34.52
0.36740	34.52
0.38407	34.52
0.40073	34.52
0.41740	34.52
0.43407	34.52
0.45073	34.52
0.46740	34.52
0.48407	34.52
0.50073	34.52
0.51740	34.52
0.53407	34.52
0.55073	34.52
0.56740	34.52
0.58407	34.52
0.60073	34.52
0.61740	34.52
0.63407	34.52
0.65073	34.52
0.66740	34.52
0.68407	34.52
0.70073	34.52
0.71740	34.52
0.73407	34.52
0.75073	34.52
0.76740	34.52
0.78407	34.52
0.80073	34.52
0.81740	34.52
0.83407	34.52
0.85073	34.52
0.86740	34.52
0.88407	34.52
0.90073	34.52
0.91740	34.52
0.93407	34.52
0.95073	34.52
0.96740	34.52
0.98407	34.52
1.00073	34.52
1.01740	34.52
1.03407	34.52
1.05073	34.52
1.06740	34.52
1.08407	34.52
1.10073	34.52
1.11740	34.52
1.13407	34.52
1.15073	34.52
1.16740	34.52
1.18407	34.52
1.20073	34.52
1.21740	34.52
1.23407	34.52
1.25073	34.52
1.26740	34.52
1.28407	34.52
1.30073	34.52
1.31740	34.52
1.33407	34.52
1.35073	34.52
1.36740	34.52
1.38407	34.52
1.40073	34.52
1.41740	34.52
1.43407	34.52
1.45073	34.52
1.46740	34.52
1.48407	34.52
1.50073	34.52
1.51740	34.52
1.53407	34.52
1.55073	34.52
1.56740	34.52
1.58407	34.52
1.60073	34.52
1.61740	34.52
1.63407	34.52
1.65073	34.52
1.66740	34.52
1.68407	34.52
1.70073	34.52
1.71740	34.52
1.73407	34.52
1.75073	34.52
1.76740	34.52
1.78407	34.52
1.80073	34.52
1.81740	34.52
1.83407	34.52
1.85073	34.52
1.86740	34.52
1.88407	34.52
1.90073	34.52
1.91740	34.52
1.93407	34.52
1.95073	34.52
1.96740	34.52
1.98407	34.52
2.00073	34.52
2.01740	34.52
2.03407	34.52
2.05073	34.52
2.06740	34.52
2.08407	34.52
2.10073	34.52
2.11740	34.52
2.13407	34.52
2.15073	34.52
2.16740	34.52
2.18407	34.52
2.20073	34.52
2.21740	34.52
2.23407	34.52
2.25073	34.52
2.26740	34.52
2.28407	34.52
2.30073	34.52
2.31740	34.52
2.33407	34.52
2.35073	34.52
2.36740	34.52
2.38407	34.52
2.40073	34.52
2.41740	34.51
2.43407	34.52
2.45073	34.52
2.46740	34.52
2.48407	34.52
2.50073	34.52
2.51740	34.52
2.53407	34.52
2.55073	34.52
2.56740	34.52
2.58407	34.52
2.60073	34.52
2.61740	34.52
2.63407	34.52
2.65073	34.52
2.66740	34.52
2.68407	34.52
2.70073	34.52
2.71740	34.52
2.73407	34.52
2.75073	34.52
2.76740	34.52
2.78407	34.52
2.80073	34.52
2.81740	34.52
2.83407	34.52
2.85073	34.52
2.86740	34.52
2.88407	34.52
2.90073	34.52
2.91740	34.52
2.93407	34.52
2.95073	34.52
2.96740	34.52
2.98407	34.52
3.00073	34.52
3.01740	34.52
3.03407	34.52
3.05073	34.52
3.06740	34.52
3.08407	34.52
3.10073	34.52
3.11740	34.52
3.13407	34.52
3.15073	34.52
3.16740	34.52
3.18407	34.52
3.20073	34.52
3.21740	34.52
3.23407	34.52
3.25073	34.52
3.26740	34.52
3.28407	34.52
3.30073	34.52
3.31740	34.52
3.33407	34.52
3.35073	34.52
3.36740	34.52
3.38407	34.52
3.40073	34.52
3.41740	34.52
3.43407	34.52
3.45073	34.52
3.46740	34.52
3.48407	34.52
3.50073	34.52
3.51740	34.52
3.53407	34.52
3.55073	34.52
3.56740	34.52
3.58407	34.52
3.60073	34.52
3.61740	34.52
3.63407	34.52
3.65073	34.52
3.66740	34.52
3.68407	34.52
3.70073	34.52
3.71740	34.52
3.73407	34.52
3.75073	34.52
3.76740	34.52
3.78407	34.52
3.80073	34.52
3.81740	34.52
3.83407	34.52
3.85073	34.52
3.86740	34.52
3.88407	34.52
3.90073	34.52
3.91740	34.52
3.93407	34.52
3.95073	34.52
3.96740	34.52
3.98407	34.52

[Status Trace (Column Flow)]
Interval(msec)	1000
# of Points	240
Start Time(min)	0.001
End Time(min)	3.984
Intensity Units	
Intensity Multiplier	1
R.Time (min)	Intensity
0.00073	5.44
0.01740	5.28
0.03407	5.21
0.05073	5.49
0.06740	5.66
0.08407	5.49
0.10073	5.44
0.11740	5.44
0.13407	5.44
0.15073	5.44
0.16740	5.44
0.18407	5.44
0.20073	5.44
0.21740	5.44
0.23407	5.44
0.25073	5.44
0.26740	5.44
0.28407	5.44
0.30073	5.44
0.31740	5.44
0.33407	5.44
0.35073	5.44
0.36740	5.44
0.38407	5.44
0.40073	5.44
0.41740	5.44
0.43407	5.44
0.45073	5.44
0.46740	5.44
0.48407	5.44
0.50073	5.44
0.51740	5.44
0.53407	5.44
0.55073	5.44
0.56740	5.44
0.58407	5.44
0.60073	5.44
0.61740	5.44
0.63407	5.44
0.65073	5.44
0.66740	5.44
0.68407	5.44
0.70073	5.44
0.71740	5.44
0.73407	5.44
0.75073	5.44
0.76740	5.44
0.78407	5.44
0.80073	5.44
0.81740	5.44
0.83407	5.44
0.85073	5.44
0.86740	5.44
0.88407	5.44
0.90073	5.44
0.91740	5.44
0.93407	5.44
0.95073	5.44
0.96740	5.44
0.98407	5.44
1.00073	5.44
1.01740	5.44
1.03407	5.44
1.05073	5.44
1.06740	5.44
1.08407	5.44
1.10073	5.44
1.11740	5.44
1.13407	5.44
1.15073	5.44
1.16740	5.44
1.18407	5.44
1.20073	5.44
1.21740	5.44
1.23407	5.44
1.25073	5.44
1.26740	5.44
1.28407	5.44
1.30073	5.44
1.31740	5.44
1.33407	5.44
1.35073	5.44
1.36740	5.44
1.38407	5.44
1.40073	5.44
1.41740	5.44
1.43407	5.44
1.45073	5.44
1.46740	5.44
1.48407	5.44
1.50073	5.44
1.51740	5.44
1.53407	5.44
1.55073	5.44
1.56740	5.44
1.58407	5.44
1.60073	5.44
1.61740	5.44
1.63407	5.44
1.65073	5.43
1.66740	5.42
1.68407	5.41
1.70073	5.40
1.71740	5.39
1.73407	5.38
1.75073	5.37
1.76740	5.36
1.78407	5.35
1.80073	5.34
1.81740	5.33
1.83407	5.32
1.85073	5.31
1.86740	5.30
1.88407	5.29
1.90073	5.28
1.91740	5.27
1.93407	5.26
1.95073	5.25
1.96740	5.24
1.98407	5.23
2.00073	5.22
2.01740	5.21
2.03407	5.20
2.05073	5.19
2.06740	5.18
2.08407	5.17
2.10073	5.16
2.11740	5.15
2.13407	5.14
2.15073	5.13
2.16740	5.13
2.18407	5.12
2.20073	5.11
2.21740	5.10
2.23407	5.09
2.25073	5.08
2.26740	5.07
2.28407	5.06
2.30073	5.05
2.31740	5.04
2.33407	5.03
2.35073	5.02
2.36740	5.02
2.38407	5.01
2.40073	5.01
2.41740	5.01
2.43407	5.01
2.45073	5.01
2.46740	5.01
2.48407	5.01
2.50073	5.01
2.51740	5.01
2.53407	5.01
2.55073	5.01
2.56740	5.01
2.58407	5.01
2.60073	5.01
2.61740	5.01
2.63407	5.01
2.65073	5.01
2.66740	5.01
2.68407	5.01
2.70073	5.01
2.71740	5.01
2.73407	5.01
2.75073	5.01
2.76740	5.01
2.78407	5.01
2.80073	5.01
2.81740	5.01
2.83407	5.01
2.85073	5.01
2.86740	5.01
2.88407	5.01
2.90073	5.01
2.91740	5.01
2.93407	5.01
2.95073	5.01
2.96740	5.01
2.98407	5.01
3.00073	5.01
3.01740	5.01
3.03407	5.01
3.05073	5.01
3.06740	5.01
3.08407	5.01
3.10073	5.01
3.11740	5.01
3.13407	5.01
3.15073	5.01
3.16740	5.00
3.18407	5.01
3.20073	5.00
3.21740	5.00
3.23407	5.00
3.25073	5.00
3.26740	5.00
3.28407	5.00
3.30073	5.00
3.31740	5.00
3.33407	5.00
3.35073	5.00
3.36740	5.00
3.38407	5.00
3.40073	5.00
3.41740	5.00
3.43407	5.00
3.45073	5.00
3.46740	5.00
3.48407	5.00
3.50073	5.00
3.51740	5.00
3.53407	5.00
3.55073	5.00
3.56740	5.01
3.58407	5.01
3.60073	5.00
3.61740	5.00
3.63407	5.00
3.65073	5.00
3.66740	5.00
3.68407	5.00
3.70073	5.00
3.71740	5.00
3.73407	5.00
3.75073	5.00
3.76740	5.00
3.78407	5.00
3.80073	5.00
3.81740	5.00
3.83407	5.01
3.85073	5.01
3.86740	5.00
3.88407	5.00
3.90073	5.00
3.91740	5.00
3.93407	5.00
3.95073	5.00
3.96740	5.00
3.98407	5.00

[Status Trace (Linear Velocity)]
Interval(msec)	1000
# of Points	240
Start Time(min)	0.001
End Time(min)	3.984
Intensity Units	
Intensity Multiplier	1
R.Time (min)	Intensity
0.00073	38.99
0.01740	38.06
0.03407	37.68
0.05073	39.25
0.06740	40.23
0.08407	39.26
0.10073	38.97
0.11740	39.00
0.13407	39.00
0.15073	39.00
0.16740	39.00
0.18407	39.00
0.20073	39.00
0.21740	39.00
0.23407	39.00
0.25073	39.00
0.26740	39.00
0.28407	39.00
0.30073	39.00
0.31740	39.00
0.33407	39.00
0.35073	39.00
0.36740	39.00
0.38407	39.00
0.40073	39.00
0.41740	39.00
0.43407	39.00
0.45073	39.00
0.46740	39.00
0.48407	39.00
0.50073	39.00
0.51740	39.00
0.53407	39.00
0.55073	39.00
0.56740	39.00
0.58407	39.00
0.60073	39.00
0.61740	39.00
0.63407	39.00
0.65073	39.00
0.66740	39.00
0.68407	39.00
0.70073	39.00
0.71740	39.00
0.73407	39.00
0.75073	39.00
0.76740	39.00
0.78407	39.00
0.80073	39.00
0.81740	39.00
0.83407	39.00
0.85073	39.00
0.86740	39.00
0.88407	39.00
0.90073	39.00
0.91740	39.00
0.93407	39.00
0.95073	39.00
0.96740	39.00
0.98407	39.00
1.00073	39.00
1.01740	39.00
1.03407	39.00
1.05073	39.00
1.06740	39.00
1.08407	39.00
1.10073	39.00
1.11740	38.99
1.13407	38.99
1.15073	38.99
1.16740	38.99
1.18407	39.00
1.20073	39.00
1.21740	39.00
1.23407	39.00
1.25073	39.00
1.26740	39.00
1.28407	39.00
1.30073	39.00
1.31740	38.99
1.33407	38.99
1.35073	38.99
1.36740	38.99
1.38407	38.99
1.40073	39.00
1.41740	39.00
1.43407	39.00
1.45073	39.00
1.46740	39.00
1.48407	39.00
1.50073	39.00
1.51740	39.00
1.53407	39.00
1.55073	39.00
1.56740	39.00
1.58407	39.00
1.60073	39.00
1.61740	38.99
1.63407	38.98
1.65073	38.95
1.66740	38.93
1.68407	38.89
1.70073	38.85
1.71740	38.82
1.73407	38.79
1.75073	38.76
1.76740	38.72
1.78407	38.70
1.80073	38.67
1.81740	38.63
1.83407	38.60
1.85073	38.57
1.86740	38.54
1.88407	38.51
1.90073	38.48
1.91740	38.45
1.93407	38.42
1.95073	38.39
1.96740	38.36
1.98407	38.32
2.00073	38.29
2.01740	38.27
2.03407	38.24
2.05073	38.21
2.06740	38.18
2.08407	38.15
2.10073	38.12
2.11740	38.09
2.13407	38.06
2.15073	38.03
2.16740	38.00
2.18407	37.97
2.20073	37.94
2.21740	37.91
2.23407	37.88
2.25073	37.85
2.26740	37.82
2.28407	37.79
2.30073	37.76
2.31740	37.73
2.33407	37.70
2.35073	37.67
2.36740	37.65
2.38407	37.64
2.40073	37.63
2.41740	37.64
2.43407	37.64
2.45073	37.64
2.46740	37.64
2.48407	37.64
2.50073	37.64
2.51740	37.63
2.53407	37.63
2.55073	37.64
2.56740	37.64
2.58407	37.63
2.60073	37.63
2.61740	37.63
2.63407	37.63
2.65073	37.63
2.66740	37.63
2.68407	37.63
2.70073	37.63
2.71740	37.63
2.73407	37.63
2.75073	37.63
2.76740	37.63
2.78407	37.63
2.80073	37.62
2.81740	37.63
2.83407	37.63
2.85073	37.63
2.86740	37.63
2.88407	37.63
2.90073	37.63
2.91740	37.62
2.93407	37.62
2.95073	37.62
2.96740	37.62
2.98407	37.62
3.00073	37.62
3.01740	37.62
3.03407	37.62
3.05073	37.62
3.06740	37.62
3.08407	37.61
3.10073	37.61
3.11740	37.61
3.13407	37.61
3.15073	37.61
3.16740	37.61
3.18407	37.61
3.20073	37.61
3.21740	37.61
3.23407	37.61
3.25073	37.61
3.26740	37.61
3.28407	37.61
3.30073	37.61
3.31740	37.61
3.33407	37.61
3.35073	37.61
3.36740	37.61
3.38407	37.61
3.40073	37.61
3.41740	37.61
3.43407	37.61
3.45073	37.61
3.46740	37.61
3.48407	37.61
3.50073	37.61
3.51740	37.61
3.53407	37.61
3.55073	37.61
3.56740	37.61
3.58407	37.61
3.60073	37.61
3.61740	37.61
3.63407	37.61
3.65073	37.61
3.66740	37.61
3.68407	37.61
3.70073	37.61
3.71740	37.61
3.73407	37.61
3.75073	37.61
3.76740	37.61
3.78407	37.61
3.80073	37.61
3.81740	37.61
3.83407	37.61
3.85073	37.61
3.86740	37.61
3.88407	37.61
3.90073	37.61
3.91740	37.61
3.93407	37.61
3.95073	37.61
3.96740	37.61
3.98407	37.61

