[Header]
Application Name	LabSolutions
Version	5.110
Data File Name	C:\Users\User\Desktop\GC Analyses\Jack\UIC Prairie Sampling\11.2.22\221102_001.gcd
Output Date	3/20/2023
Output Time	1:25:35 PM

[File Information]
Type	Data File
Generated	12/19/2022 12:33:30 PM
Generated by	System Administrator
Modified	12/19/2022 12:37:56 PM
Modified by	System Administrator

[Sample Information]
Operator Name	System Administrator
Acquired	12/19/2022 12:33:56 PM
Sample Type	1:Standard
Level	1
Sample Name	221102_UICPrairie
Sample ID	221102_UICPrairie
ISTD Amount1	1
ISTD Amount2	1
ISTD Amount3	1
ISTD Amount4	1
ISTD Amount5	1
ISTD Amount6	1
ISTD Amount7	1
ISTD Amount8	1
ISTD Amount9	1
ISTD Amount10	1
ISTD Amount11	1
ISTD Amount12	1
ISTD Amount13	1
ISTD Amount14	1
ISTD Amount15	1
ISTD Amount16	1
ISTD Amount17	1
ISTD Amount18	1
ISTD Amount19	1
ISTD Amount20	1
ISTD Amount21	1
ISTD Amount22	1
ISTD Amount23	1
ISTD Amount24	1
ISTD Amount25	1
ISTD Amount26	1
ISTD Amount27	1
ISTD Amount28	1
ISTD Amount29	1
ISTD Amount30	1
ISTD Amount31	1
ISTD Amount32	1
Sample Amount	1
Dilution Factor	1
Vial#	1
Injection Volume	1
Injection Count	1
Bar Code	

[Original Files]
Data File	C:\Users\User\Desktop\GC Analyses\Jack\UIC Prairie Sampling\11.2.22\221102_001.gcd
Method File	C:\LabSolutions\Data\GHG_4min_2022\ghg3_togas_w_acet_4 min_new_int.gcm
Batch File	
Report Format File	c:\LabSolutions\System\DEFAULT.lsr

[File Description]


[Configuration]
Instrument Name	C0B7VH3-Instrument1
Instrument #	1
Line #	1
# of Detectors	3
Detector ID	DET#1	DET#2	DET#3
Detector Name	FID	PTCD	ECD
# of Channels	1	1	1

[Peak Table(Ch1)]
# of Peaks	3
Peak#	R.Time	I.Time	F.Time	Area	Height	A/H	Conc.	Mark	ID#	Name	k'	Plate #	Plate Ht.	Tailing	Resolution	Sep.Factor	Area Ratio	Height Ratio	Conc. %	Norm Conc.
1	1.479	1.439	1.538	11073	4758	2.327	100.000	   	1	CO	0.000	7898	18.992	1.255	0.000	0.000	0	0	16.667	16.667
2	1.571	1.538	1.622	5217	2588	2.016	100.000	 V 	2	CH4	0.062	10945	13.705	0.000	1.448	0.000	0	0	16.667	16.667
3	2.000	1.949	2.642	1089532	502445	2.168	400.000	   	3	CO2	0.352	16921	8.865	1.299	7.058	5.680	0	0	66.667	66.667

[Peak Table(Ch2)]
# of Peaks	0

[Peak Table(Ch3)]
# of Peaks	5
Peak#	R.Time	I.Time	F.Time	Area	Height	A/H	Conc.	Mark	ID#	Name	k'	Plate #	Plate Ht.	Tailing	Resolution	Sep.Factor	Area Ratio	Height Ratio	Conc. %	Norm Conc.
1	2.462	2.290	2.499	1488	343	4.336	0.000	   			0.000	7310	20.520	0.000	0.000	0.000	0	0	0.000	0.000
2	2.517	2.499	2.554	710	251	2.826	0.000	 V 			0.022	2575	58.249	0.000	0.351	0.000	0	0	0.000	0.000
3	2.605	2.554	2.653	1015	256	3.966	0.000	 V 			0.058	3871	38.745	0.000	0.481	2.600	0	0	0.000	0.000
4	2.884	2.664	3.137	23441	5140	4.560	1.000	   	1	N2O	0.171	12864	11.661	1.669	2.071	2.949	0	0	50.000	50.000
5	3.250	3.137	3.646	3741	220	16.985	1.000	 V 	2	SF6	0.320	14	10992.642	0.000	0.203	1.870	0	0	50.000	50.000

[Compound Results(Ch1)]
# of IDs	6
ID#	Name	R.Time	Area	Height	Conc.	Curve	3rd	2nd	1st	Constant	Area Ratio	Height Ratio	Conc. %	Norm Conc.
1	CO	1.479	11073	4758	100.000	Linear	0.000000e+00	0.000000e+00	1.107282e+002	0.000000e+00	0	0	16.667	16.667
2	CH4	1.571	5217	2588	100.000	Linear	0.000000e+00	0.000000e+00	5.217161e+001	0.000000e+00	0	0	16.667	16.667
3	CO2	2.000	1089532	502445	400.000	Linear	0.000000e+00	0.000000e+00	2.723831e+003	0.000000e+00	0	0	66.667	66.667
4	Ethylene	0.000	0	0	0.000	Linear	0.000000e+00	0.000000e+00	0.000000e+00	0.000000e+00	0	0	0.000	0.000
5	Acetylene	0.000	0	0	0.000	Linear	0.000000e+00	0.000000e+00	0.000000e+00	0.000000e+00	0	0	0.000	0.000
6	Ethane	0.000	0	0	0.000	Linear	0.000000e+00	0.000000e+00	0.000000e+00	0.000000e+00	0	0	0.000	0.000

[Compound Results(Ch2)]
# of IDs	5
ID#	Name	R.Time	Area	Height	Conc.	Curve	3rd	2nd	1st	Constant	Area Ratio	Height Ratio	Conc. %	Norm Conc.
1	Hydrogen	0.000	0	0	0.000	Linear	0.000000e+00	0.000000e+00	0.000000e+00	0.000000e+00	0	0	0.000	0.000
2	Oxygen	0.000	0	0	0.000	Linear	0.000000e+00	0.000000e+00	0.000000e+00	0.000000e+00	0	0	0.000	0.000
3	Nitrogen	0.000	0	0	0.000	Linear	0.000000e+00	0.000000e+00	0.000000e+00	0.000000e+00	0	0	0.000	0.000
4	Methane	0.000	0	0	0.000	Linear	0.000000e+00	0.000000e+00	0.000000e+00	0.000000e+00	0	0	0.000	0.000
5	Carbon Monoxide	0.000	0	0	0.000	Linear	0.000000e+00	0.000000e+00	0.000000e+00	0.000000e+00	0	0	0.000	0.000

[Compound Results(Ch3)]
# of IDs	2
ID#	Name	R.Time	Area	Height	Conc.	Curve	3rd	2nd	1st	Constant	Area Ratio	Height Ratio	Conc. %	Norm Conc.
1	N2O	2.884	23441	5140	1.000	Linear	0.000000e+00	0.000000e+00	2.344140e+004	0.000000e+00	0	0	50.000	50.000
2	SF6	3.250	3741	220	1.000	Linear	0.000000e+00	0.000000e+00	3.740786e+003	0.000000e+00	0	0	50.000	50.000

[Group Results(Ch1)]
# of Groups	0

[Group Results(Ch2)]
# of Groups	0

[Group Results(Ch3)]
# of Groups	0

[Chromatogram (Ch1)]
Interval(msec)	220
# of Points	1091
Start Time(min)	0.002
End Time(min)	3.998
R.Time (min)	Intensity
0.00167	14
0.00533	13
0.00900	14
0.01267	14
0.01633	14
0.02000	16
0.02367	21
0.02733	27
0.03100	30
0.03467	32
0.03833	33
0.04200	32
0.04567	29
0.04933	24
0.05300	18
0.05667	11
0.06033	7
0.06400	9
0.06767	17
0.07133	24
0.07500	26
0.07867	26
0.08233	25
0.08600	25
0.08967	27
0.09333	30
0.09700	29
0.10067	23
0.10433	16
0.10800	11
0.11167	8
0.11533	7
0.11900	8
0.12267	9
0.12633	11
0.13000	12
0.13367	11
0.13733	12
0.14100	17
0.14467	23
0.14833	26
0.15200	26
0.15567	26
0.15933	25
0.16300	24
0.16667	20
0.17033	18
0.17400	17
0.17767	18
0.18133	18
0.18500	18
0.18867	17
0.19233	19
0.19600	24
0.19967	26
0.20333	29
0.20700	34
0.21067	38
0.21433	37
0.21800	32
0.22167	26
0.22533	19
0.22900	14
0.23267	9
0.23633	2
0.24000	-4
0.24367	-7
0.24733	-5
0.25100	3
0.25467	11
0.25833	18
0.26200	20
0.26567	19
0.26933	18
0.27300	16
0.27667	12
0.28033	10
0.28400	11
0.28767	13
0.29133	12
0.29500	10
0.29867	9
0.30233	10
0.30600	11
0.30967	9
0.31333	4
0.31700	-2
0.32067	-4
0.32433	-1
0.32800	5
0.33167	8
0.33533	6
0.33900	5
0.34267	7
0.34633	13
0.35000	19
0.35367	21
0.35733	19
0.36100	16
0.36467	15
0.36833	15
0.37200	15
0.37567	12
0.37933	10
0.38300	12
0.38667	13
0.39033	12
0.39400	13
0.39767	15
0.40133	14
0.40500	12
0.40867	6
0.41233	-2
0.41600	-10
0.41967	-15
0.42333	-16
0.42700	-14
0.43067	-10
0.43433	-2
0.43800	9
0.44167	14
0.44533	12
0.44900	6
0.45267	0
0.45633	-3
0.46000	-4
0.46367	-1
0.46733	5
0.47100	11
0.47467	22
0.47833	31
0.48200	34
0.48567	28
0.48933	17
0.49300	2
0.49667	-10
0.50033	-17
0.50400	-20
0.50767	-15
0.51133	-5
0.51500	5
0.51867	8
0.52233	5
0.52600	-1
0.52967	-9
0.53333	-15
0.53700	-17
0.54067	-17
0.54433	-15
0.54800	-12
0.55167	-6
0.55533	1
0.55900	9
0.56267	14
0.56633	15
0.57000	15
0.57367	14
0.57733	14
0.58100	12
0.58467	9
0.58833	4
0.59200	-2
0.59567	-6
0.59933	-8
0.60300	-9
0.60667	-8
0.61033	-4
0.61400	0
0.61767	2
0.62133	1
0.62500	-1
0.62867	-2
0.63233	-4
0.63600	-3
0.63967	-3
0.64333	-4
0.64700	-1
0.65067	5
0.65433	11
0.65800	12
0.66167	11
0.66533	9
0.66900	6
0.67267	4
0.67633	2
0.68000	-0
0.68367	1
0.68733	4
0.69100	6
0.69467	7
0.69833	4
0.70200	1
0.70567	-1
0.70933	-4
0.71300	-7
0.71667	-8
0.72033	-6
0.72400	-5
0.72767	-1
0.73133	9
0.73500	20
0.73867	30
0.74233	33
0.74600	23
0.74967	8
0.75333	-3
0.75700	-12
0.76067	-19
0.76433	-23
0.76800	-23
0.77167	-21
0.77533	-19
0.77900	-14
0.78267	-8
0.78633	-2
0.79000	5
0.79367	12
0.79733	15
0.80100	13
0.80467	7
0.80833	5
0.81200	5
0.81567	3
0.81933	-2
0.82300	-8
0.82667	-12
0.83033	-12
0.83400	-9
0.83767	-6
0.84133	-4
0.84500	0
0.84867	7
0.85233	12
0.85600	11
0.85967	6
0.86333	1
0.86700	-3
0.87067	-8
0.87433	-13
0.87800	-20
0.88167	-26
0.88533	-32
0.88900	-36
0.89267	-36
0.89633	-33
0.90000	-30
0.90367	-24
0.90733	-16
0.91100	-11
0.91467	-7
0.91833	-2
0.92200	2
0.92567	5
0.92933	8
0.93300	13
0.93667	19
0.94033	22
0.94400	23
0.94767	20
0.95133	18
0.95500	17
0.95867	11
0.96233	8
0.96600	3
0.96967	-5
0.97333	-12
0.97700	-16
0.98067	-17
0.98433	-15
0.98800	-12
0.99167	-5
0.99533	-0
0.99900	0
1.00267	-2
1.00633	-6
1.01000	-8
1.01367	-4
1.01733	4
1.02100	10
1.02467	11
1.02833	8
1.03200	6
1.03567	6
1.03933	5
1.04300	1
1.04667	-5
1.05033	-10
1.05400	-14
1.05767	-16
1.06133	-16
1.06500	-16
1.06867	-16
1.07233	-17
1.07600	-17
1.07967	-17
1.08333	-14
1.08700	-7
1.09067	-5
1.09433	-7
1.09800	-9
1.10167	-10
1.10533	-11
1.10900	-12
1.11267	-13
1.11633	-13
1.12000	-12
1.12367	-11
1.12733	-10
1.13100	-9
1.13467	-7
1.13833	-7
1.14200	-6
1.14567	-2
1.14933	2
1.15300	1
1.15667	-2
1.16033	-3
1.16400	-2
1.16767	-6
1.17133	-11
1.17500	-17
1.17867	-18
1.18233	-14
1.18600	-6
1.18967	-1
1.19333	-0
1.19700	-1
1.20067	-0
1.20433	2
1.20800	2
1.21167	-0
1.21533	-5
1.21900	-11
1.22267	-16
1.22633	-20
1.23000	-20
1.23367	-16
1.23733	-12
1.24100	-11
1.24467	-12
1.24833	-15
1.25200	-15
1.25567	-10
1.25933	-3
1.26300	-2
1.26667	-8
1.27033	-14
1.27400	-18
1.27767	-21
1.28133	-21
1.28500	-17
1.28867	-12
1.29233	-7
1.29600	-7
1.29967	-12
1.30333	-16
1.30700	-17
1.31067	-19
1.31433	-20
1.31800	-17
1.32167	-12
1.32533	-10
1.32900	-13
1.33267	-18
1.33633	-21
1.34000	-21
1.34367	-19
1.34733	-18
1.35100	-15
1.35467	-14
1.35833	-13
1.36200	-14
1.36567	-17
1.36933	-17
1.37300	-18
1.37667	-19
1.38033	-18
1.38400	-15
1.38767	-11
1.39133	-8
1.39500	-7
1.39867	-8
1.40233	-8
1.40600	-8
1.40967	-7
1.41333	-6
1.41700	-6
1.42067	-6
1.42433	-9
1.42800	-13
1.43167	-15
1.43533	-13
1.43900	-3
1.44267	56
1.44633	235
1.45000	537
1.45367	961
1.45733	1574
1.46100	2350
1.46467	3148
1.46833	3839
1.47200	4360
1.47567	4679
1.47933	4762
1.48300	4577
1.48667	4137
1.49033	3520
1.49400	2845
1.49767	2212
1.50133	1678
1.50500	1258
1.50867	942
1.51233	710
1.51600	543
1.51967	424
1.52333	339
1.52700	277
1.53067	230
1.53433	192
1.53800	171
1.54167	193
1.54533	308
1.54900	573
1.55267	988
1.55633	1473
1.56000	1924
1.56367	2282
1.56733	2520
1.57100	2606
1.57467	2509
1.57833	2231
1.58200	1834
1.58567	1412
1.58933	1034
1.59300	734
1.59667	510
1.60033	348
1.60400	232
1.60767	153
1.61133	99
1.61500	64
1.61867	40
1.62233	26
1.62600	21
1.62967	20
1.63333	20
1.63700	18
1.64067	16
1.64433	13
1.64800	15
1.65167	15
1.65533	12
1.65900	8
1.66267	5
1.66633	4
1.67000	2
1.67367	-0
1.67733	-0
1.68100	6
1.68467	13
1.68833	17
1.69200	17
1.69567	13
1.69933	10
1.70300	7
1.70667	3
1.71033	-3
1.71400	-8
1.71767	-11
1.72133	-15
1.72500	-21
1.72867	-22
1.73233	-21
1.73600	-19
1.73967	-18
1.74333	-14
1.74700	-10
1.75067	-6
1.75433	-2
1.75800	-0
1.76167	0
1.76533	1
1.76900	3
1.77267	0
1.77633	-2
1.78000	-2
1.78367	-1
1.78733	1
1.79100	4
1.79467	5
1.79833	2
1.80200	-3
1.80567	-11
1.80933	-19
1.81300	-24
1.81667	-23
1.82033	-19
1.82400	-18
1.82767	-18
1.83133	-15
1.83500	-12
1.83867	-9
1.84233	-7
1.84600	-5
1.84967	-2
1.85333	1
1.85700	5
1.86067	6
1.86433	1
1.86800	-8
1.87167	-17
1.87533	-23
1.87900	-24
1.88267	-24
1.88633	-22
1.89000	-21
1.89367	-21
1.89733	-20
1.90100	-18
1.90467	-15
1.90833	-10
1.91200	-5
1.91567	1
1.91933	6
1.92300	12
1.92667	15
1.93033	14
1.93400	12
1.93767	13
1.94133	15
1.94500	19
1.94867	25
1.95233	32
1.95600	53
1.95967	194
1.96333	959
1.96700	4151
1.97067	14290
1.97433	39111
1.97800	86731
1.98167	159438
1.98533	249735
1.98900	342942
1.99267	423510
1.99633	479347
2.00000	502506
2.00367	490336
2.00733	446567
2.01100	381135
2.01467	307039
2.01833	235844
2.02200	174801
2.02567	126561
2.02933	90577
2.03300	64772
2.03667	46723
2.04033	34275
2.04400	25731
2.04767	19853
2.05133	15769
2.05500	12885
2.05867	10803
2.06233	9264
2.06600	8098
2.06967	7196
2.07333	6478
2.07700	5893
2.08067	5409
2.08433	5000
2.08800	4647
2.09167	4341
2.09533	4077
2.09900	3845
2.10267	3637
2.10633	3450
2.11000	3283
2.11367	3132
2.11733	2995
2.12100	2869
2.12467	2754
2.12833	2647
2.13200	2544
2.13567	2447
2.13933	2359
2.14300	2280
2.14667	2206
2.15033	2139
2.15400	2073
2.15767	2007
2.16133	1944
2.16500	1885
2.16867	1830
2.17233	1776
2.17600	1727
2.17967	1683
2.18333	1643
2.18700	1603
2.19067	1561
2.19433	1521
2.19800	1484
2.20167	1450
2.20533	1418
2.20900	1383
2.21267	1350
2.21633	1318
2.22000	1288
2.22367	1262
2.22733	1238
2.23100	1218
2.23467	1201
2.23833	1184
2.24200	1167
2.24567	1150
2.24933	1133
2.25300	1114
2.25667	1095
2.26033	1076
2.26400	1059
2.26767	1042
2.27133	1023
2.27500	1004
2.27867	986
2.28233	972
2.28600	959
2.28967	947
2.29333	935
2.29700	922
2.30067	910
2.30433	899
2.30800	891
2.31167	882
2.31533	874
2.31900	866
2.32267	858
2.32633	849
2.33000	837
2.33367	822
2.33733	807
2.34100	792
2.34467	781
2.34833	772
2.35200	767
2.35567	763
2.35933	758
2.36300	750
2.36667	742
2.37033	732
2.37400	723
2.37767	718
2.38133	715
2.38500	712
2.38867	709
2.39233	703
2.39600	697
2.39967	688
2.40333	676
2.40700	669
2.41067	664
2.41433	659
2.41800	654
2.42167	650
2.42533	647
2.42900	644
2.43267	641
2.43633	635
2.44000	625
2.44367	618
2.44733	616
2.45100	617
2.45467	618
2.45833	617
2.46200	614
2.46567	610
2.46933	606
2.47300	605
2.47667	602
2.48033	596
2.48400	588
2.48767	581
2.49133	574
2.49500	569
2.49867	568
2.50233	570
2.50600	573
2.50967	573
2.51333	571
2.51700	565
2.52067	558
2.52433	553
2.52800	550
2.53167	550
2.53533	552
2.53900	551
2.54267	549
2.54633	543
2.55000	539
2.55367	533
2.55733	531
2.56100	531
2.56467	531
2.56833	528
2.57200	525
2.57567	525
2.57933	525
2.58300	525
2.58667	527
2.59033	529
2.59400	531
2.59767	529
2.60133	523
2.60500	519
2.60867	517
2.61233	513
2.61600	507
2.61967	503
2.62333	500
2.62700	500
2.63067	503
2.63433	505
2.63800	506
2.64167	506
2.64533	503
2.64900	499
2.65267	499
2.65633	501
2.66000	503
2.66367	505
2.66733	508
2.67100	512
2.67467	514
2.67833	512
2.68200	507
2.68567	500
2.68933	494
2.69300	491
2.69667	491
2.70033	493
2.70400	495
2.70767	496
2.71133	497
2.71500	499
2.71867	500
2.72233	499
2.72600	497
2.72967	495
2.73333	491
2.73700	486
2.74067	480
2.74433	472
2.74800	465
2.75167	463
2.75533	467
2.75900	473
2.76267	479
2.76633	482
2.77000	485
2.77367	485
2.77733	483
2.78100	481
2.78467	478
2.78833	476
2.79200	474
2.79567	477
2.79933	483
2.80300	491
2.80667	497
2.81033	501
2.81400	503
2.81767	500
2.82133	495
2.82500	492
2.82867	490
2.83233	488
2.83600	485
2.83967	480
2.84333	474
2.84700	469
2.85067	469
2.85433	474
2.85800	479
2.86167	482
2.86533	488
2.86900	492
2.87267	494
2.87633	493
2.88000	488
2.88367	483
2.88733	482
2.89100	482
2.89467	481
2.89833	478
2.90200	475
2.90567	475
2.90933	475
2.91300	474
2.91667	471
2.92033	465
2.92400	460
2.92767	456
2.93133	457
2.93500	463
2.93867	472
2.94233	477
2.94600	479
2.94967	477
2.95333	472
2.95700	465
2.96067	459
2.96433	460
2.96800	466
2.97167	474
2.97533	477
2.97900	476
2.98267	475
2.98633	476
2.99000	478
2.99367	479
2.99733	479
3.00100	479
3.00467	480
3.00833	483
3.01200	490
3.01567	496
3.01933	500
3.02300	504
3.02667	505
3.03033	501
3.03400	494
3.03767	482
3.04133	470
3.04500	461
3.04867	456
3.05233	456
3.05600	457
3.05967	458
3.06333	456
3.06700	455
3.07067	457
3.07433	460
3.07800	462
3.08167	462
3.08533	460
3.08900	457
3.09267	457
3.09633	460
3.10000	464
3.10367	464
3.10733	459
3.11100	455
3.11467	454
3.11833	459
3.12200	466
3.12567	471
3.12933	471
3.13300	467
3.13667	462
3.14033	460
3.14400	463
3.14767	464
3.15133	463
3.15500	461
3.15867	459
3.16233	461
3.16600	463
3.16967	466
3.17333	470
3.17700	471
3.18067	470
3.18433	469
3.18800	464
3.19167	456
3.19533	447
3.19900	444
3.20267	444
3.20633	444
3.21000	444
3.21367	443
3.21733	444
3.22100	447
3.22467	448
3.22833	447
3.23200	443
3.23567	437
3.23933	428
3.24300	419
3.24667	414
3.25033	414
3.25400	418
3.25767	423
3.26133	431
3.26500	437
3.26867	440
3.27233	440
3.27600	440
3.27967	438
3.28333	437
3.28700	440
3.29067	444
3.29433	446
3.29800	444
3.30167	440
3.30533	436
3.30900	433
3.31267	433
3.31633	436
3.32000	439
3.32367	440
3.32733	442
3.33100	443
3.33467	440
3.33833	437
3.34200	435
3.34567	433
3.34933	431
3.35300	428
3.35667	424
3.36033	423
3.36400	426
3.36767	431
3.37133	436
3.37500	440
3.37867	442
3.38233	445
3.38600	448
3.38967	450
3.39333	449
3.39700	445
3.40067	441
3.40433	437
3.40800	435
3.41167	435
3.41533	440
3.41900	446
3.42267	448
3.42633	448
3.43000	445
3.43367	443
3.43733	440
3.44100	437
3.44467	436
3.44833	435
3.45200	435
3.45567	433
3.45933	432
3.46300	434
3.46667	436
3.47033	437
3.47400	434
3.47767	433
3.48133	431
3.48500	425
3.48867	419
3.49233	417
3.49600	416
3.49967	416
3.50333	418
3.50700	418
3.51067	418
3.51433	416
3.51800	414
3.52167	411
3.52533	408
3.52900	406
3.53267	406
3.53633	410
3.54000	415
3.54367	418
3.54733	420
3.55100	425
3.55467	431
3.55833	434
3.56200	432
3.56567	428
3.56933	426
3.57300	428
3.57667	430
3.58033	430
3.58400	429
3.58767	425
3.59133	421
3.59500	420
3.59867	422
3.60233	427
3.60600	432
3.60967	432
3.61333	425
3.61700	415
3.62067	407
3.62433	404
3.62800	402
3.63167	400
3.63533	399
3.63900	400
3.64267	402
3.64633	406
3.65000	411
3.65367	415
3.65733	422
3.66100	425
3.66467	424
3.66833	420
3.67200	417
3.67567	417
3.67933	419
3.68300	421
3.68667	422
3.69033	422
3.69400	423
3.69767	426
3.70133	431
3.70500	435
3.70867	435
3.71233	431
3.71600	426
3.71967	425
3.72333	426
3.72700	429
3.73067	430
3.73433	427
3.73800	420
3.74167	410
3.74533	402
3.74900	400
3.75267	402
3.75633	403
3.76000	402
3.76367	401
3.76733	400
3.77100	400
3.77467	403
3.77833	408
3.78200	413
3.78567	415
3.78933	415
3.79300	416
3.79667	416
3.80033	414
3.80400	412
3.80767	411
3.81133	411
3.81500	410
3.81867	409
3.82233	408
3.82600	407
3.82967	406
3.83333	407
3.83700	406
3.84067	404
3.84433	405
3.84800	407
3.85167	407
3.85533	405
3.85900	404
3.86267	404
3.86633	403
3.87000	404
3.87367	405
3.87733	405
3.88100	404
3.88467	402
3.88833	398
3.89200	395
3.89567	394
3.89933	395
3.90300	394
3.90667	392
3.91033	390
3.91400	391
3.91767	394
3.92133	395
3.92500	392
3.92867	387
3.93233	387
3.93600	390
3.93967	392
3.94333	392
3.94700	388
3.95067	386
3.95433	388
3.95800	393
3.96167	400
3.96533	403
3.96900	402
3.97267	400
3.97633	398
3.98000	394
3.98367	391
3.98733	389
3.99100	387
3.99467	389
3.99833	394

[Chromatogram (Ch2)]
Interval(msec)	220
# of Points	1091
Start Time(min)	0.002
End Time(min)	3.998
R.Time (min)	Intensity
0.00167	1
0.00533	1
0.00900	1
0.01267	1
0.01633	1
0.02000	2
0.02367	2
0.02733	2
0.03100	2
0.03467	2
0.03833	2
0.04200	2
0.04567	2
0.04933	2
0.05300	1
0.05667	1
0.06033	1
0.06400	1
0.06767	1
0.07133	1
0.07500	1
0.07867	1
0.08233	1
0.08600	1
0.08967	2
0.09333	2
0.09700	2
0.10067	3
0.10433	3
0.10800	3
0.11167	3
0.11533	3
0.11900	3
0.12267	3
0.12633	3
0.13000	3
0.13367	3
0.13733	3
0.14100	3
0.14467	3
0.14833	3
0.15200	2
0.15567	2
0.15933	2
0.16300	2
0.16667	2
0.17033	1
0.17400	1
0.17767	1
0.18133	1
0.18500	1
0.18867	1
0.19233	1
0.19600	1
0.19967	1
0.20333	1
0.20700	1
0.21067	1
0.21433	1
0.21800	1
0.22167	1
0.22533	0
0.22900	0
0.23267	0
0.23633	0
0.24000	1
0.24367	1
0.24733	1
0.25100	1
0.25467	1
0.25833	1
0.26200	1
0.26567	1
0.26933	1
0.27300	1
0.27667	1
0.28033	1
0.28400	0
0.28767	1
0.29133	1
0.29500	1
0.29867	1
0.30233	1
0.30600	1
0.30967	1
0.31333	1
0.31700	1
0.32067	0
0.32433	0
0.32800	-0
0.33167	-0
0.33533	-0
0.33900	-0
0.34267	-0
0.34633	-0
0.35000	-0
0.35367	-0
0.35733	0
0.36100	0
0.36467	1
0.36833	1
0.37200	1
0.37567	1
0.37933	1
0.38300	2
0.38667	2
0.39033	2
0.39400	2
0.39767	2
0.40133	2
0.40500	2
0.40867	2
0.41233	2
0.41600	2
0.41967	2
0.42333	2
0.42700	1
0.43067	1
0.43433	1
0.43800	1
0.44167	1
0.44533	1
0.44900	1
0.45267	1
0.45633	1
0.46000	1
0.46367	1
0.46733	1
0.47100	2
0.47467	2
0.47833	2
0.48200	2
0.48567	2
0.48933	2
0.49300	2
0.49667	2
0.50033	2
0.50400	1
0.50767	1
0.51133	1
0.51500	1
0.51867	0
0.52233	-0
0.52600	-1
0.52967	-1
0.53333	-1
0.53700	-1
0.54067	-1
0.54433	-1
0.54800	-1
0.55167	-0
0.55533	-0
0.55900	-0
0.56267	-0
0.56633	-0
0.57000	-0
0.57367	0
0.57733	0
0.58100	1
0.58467	1
0.58833	1
0.59200	1
0.59567	2
0.59933	2
0.60300	2
0.60667	2
0.61033	3
0.61400	3
0.61767	3
0.62133	3
0.62500	4
0.62867	4
0.63233	4
0.63600	4
0.63967	4
0.64333	3
0.64700	3
0.65067	3
0.65433	3
0.65800	3
0.66167	3
0.66533	3
0.66900	3
0.67267	3
0.67633	3
0.68000	3
0.68367	3
0.68733	2
0.69100	2
0.69467	2
0.69833	2
0.70200	2
0.70567	2
0.70933	2
0.71300	2
0.71667	2
0.72033	2
0.72400	2
0.72767	2
0.73133	2
0.73500	2
0.73867	2
0.74233	2
0.74600	2
0.74967	2
0.75333	2
0.75700	3
0.76067	3
0.76433	2
0.76800	2
0.77167	2
0.77533	1
0.77900	1
0.78267	1
0.78633	1
0.79000	0
0.79367	0
0.79733	0
0.80100	1
0.80467	1
0.80833	1
0.81200	1
0.81567	1
0.81933	1
0.82300	1
0.82667	1
0.83033	2
0.83400	2
0.83767	2
0.84133	3
0.84500	3
0.84867	3
0.85233	3
0.85600	3
0.85967	3
0.86333	3
0.86700	2
0.87067	2
0.87433	2
0.87800	2
0.88167	2
0.88533	2
0.88900	2
0.89267	2
0.89633	2
0.90000	2
0.90367	2
0.90733	3
0.91100	2
0.91467	2
0.91833	2
0.92200	2
0.92567	2
0.92933	2
0.93300	2
0.93667	2
0.94033	2
0.94400	2
0.94767	2
0.95133	2
0.95500	2
0.95867	3
0.96233	3
0.96600	3
0.96967	3
0.97333	3
0.97700	3
0.98067	3
0.98433	3
0.98800	3
0.99167	3
0.99533	3
0.99900	2
1.00267	2
1.00633	2
1.01000	2
1.01367	2
1.01733	2
1.02100	1
1.02467	1
1.02833	1
1.03200	1
1.03567	1
1.03933	1
1.04300	1
1.04667	1
1.05033	1
1.05400	1
1.05767	1
1.06133	1
1.06500	1
1.06867	1
1.07233	2
1.07600	2
1.07967	2
1.08333	2
1.08700	2
1.09067	2
1.09433	2
1.09800	2
1.10167	2
1.10533	2
1.10900	3
1.11267	3
1.11633	3
1.12000	3
1.12367	3
1.12733	3
1.13100	3
1.13467	3
1.13833	3
1.14200	3
1.14567	3
1.14933	3
1.15300	3
1.15667	3
1.16033	3
1.16400	3
1.16767	3
1.17133	3
1.17500	3
1.17867	3
1.18233	3
1.18600	3
1.18967	3
1.19333	3
1.19700	3
1.20067	3
1.20433	3
1.20800	3
1.21167	2
1.21533	2
1.21900	2
1.22267	2
1.22633	2
1.23000	2
1.23367	2
1.23733	2
1.24100	3
1.24467	3
1.24833	3
1.25200	3
1.25567	3
1.25933	3
1.26300	3
1.26667	3
1.27033	3
1.27400	3
1.27767	3
1.28133	3
1.28500	3
1.28867	3
1.29233	4
1.29600	4
1.29967	4
1.30333	3
1.30700	3
1.31067	3
1.31433	3
1.31800	3
1.32167	3
1.32533	3
1.32900	3
1.33267	3
1.33633	3
1.34000	3
1.34367	3
1.34733	3
1.35100	3
1.35467	3
1.35833	3
1.36200	4
1.36567	4
1.36933	4
1.37300	3
1.37667	3
1.38033	3
1.38400	3
1.38767	3
1.39133	2
1.39500	2
1.39867	2
1.40233	2
1.40600	2
1.40967	2
1.41333	2
1.41700	2
1.42067	2
1.42433	2
1.42800	3
1.43167	3
1.43533	3
1.43900	3
1.44267	3
1.44633	3
1.45000	3
1.45367	3
1.45733	3
1.46100	3
1.46467	3
1.46833	3
1.47200	3
1.47567	3
1.47933	3
1.48300	4
1.48667	4
1.49033	4
1.49400	4
1.49767	4
1.50133	3
1.50500	3
1.50867	3
1.51233	4
1.51600	4
1.51967	4
1.52333	4
1.52700	4
1.53067	4
1.53433	4
1.53800	4
1.54167	4
1.54533	4
1.54900	3
1.55267	3
1.55633	3
1.56000	3
1.56367	3
1.56733	3
1.57100	3
1.57467	3
1.57833	3
1.58200	3
1.58567	3
1.58933	3
1.59300	3
1.59667	3
1.60033	2
1.60400	1
1.60767	-0
1.61133	-2
1.61500	-4
1.61867	-7
1.62233	-10
1.62600	-13
1.62967	-16
1.63333	-20
1.63700	-23
1.64067	-27
1.64433	-31
1.64800	-35
1.65167	-38
1.65533	-42
1.65900	-46
1.66267	-50
1.66633	-54
1.67000	-58
1.67367	-62
1.67733	-67
1.68100	-72
1.68467	-77
1.68833	-82
1.69200	-87
1.69567	-91
1.69933	-95
1.70300	-98
1.70667	-101
1.71033	-102
1.71400	-104
1.71767	-105
1.72133	-106
1.72500	-106
1.72867	-106
1.73233	-107
1.73600	-107
1.73967	-106
1.74333	-106
1.74700	-106
1.75067	-105
1.75433	-106
1.75800	-106
1.76167	-107
1.76533	-108
1.76900	-109
1.77267	-110
1.77633	-111
1.78000	-112
1.78367	-113
1.78733	-113
1.79100	-114
1.79467	-114
1.79833	-115
1.80200	-115
1.80567	-116
1.80933	-116
1.81300	-116
1.81667	-116
1.82033	-116
1.82400	-116
1.82767	-115
1.83133	-115
1.83500	-114
1.83867	-114
1.84233	-114
1.84600	-114
1.84967	-114
1.85333	-114
1.85700	-115
1.86067	-115
1.86433	-115
1.86800	-115
1.87167	-115
1.87533	-115
1.87900	-114
1.88267	-114
1.88633	-114
1.89000	-113
1.89367	-113
1.89733	-113
1.90100	-113
1.90467	-113
1.90833	-112
1.91200	-112
1.91567	-111
1.91933	-111
1.92300	-110
1.92667	-110
1.93033	-110
1.93400	-110
1.93767	-110
1.94133	-111
1.94500	-110
1.94867	-110
1.95233	-109
1.95600	-109
1.95967	-108
1.96333	-108
1.96700	-108
1.97067	-108
1.97433	-108
1.97800	-107
1.98167	-107
1.98533	-106
1.98900	-106
1.99267	-105
1.99633	-105
2.00000	-104
2.00367	-104
2.00733	-104
2.01100	-104
2.01467	-104
2.01833	-105
2.02200	-105
2.02567	-106
2.02933	-106
2.03300	-106
2.03667	-106
2.04033	-106
2.04400	-105
2.04767	-105
2.05133	-105
2.05500	-105
2.05867	-105
2.06233	-105
2.06600	-105
2.06967	-104
2.07333	-104
2.07700	-104
2.08067	-103
2.08433	-103
2.08800	-102
2.09167	-101
2.09533	-101
2.09900	-100
2.10267	-99
2.10633	-98
2.11000	-97
2.11367	-96
2.11733	-95
2.12100	-95
2.12467	-94
2.12833	-94
2.13200	-94
2.13567	-94
2.13933	-93
2.14300	-93
2.14667	-93
2.15033	-93
2.15400	-92
2.15767	-91
2.16133	-91
2.16500	-90
2.16867	-89
2.17233	-89
2.17600	-89
2.17967	-89
2.18333	-89
2.18700	-90
2.19067	-90
2.19433	-90
2.19800	-91
2.20167	-91
2.20533	-91
2.20900	-91
2.21267	-91
2.21633	-91
2.22000	-91
2.22367	-90
2.22733	-90
2.23100	-89
2.23467	-88
2.23833	-87
2.24200	-86
2.24567	-85
2.24933	-84
2.25300	-83
2.25667	-83
2.26033	-84
2.26400	-85
2.26767	-85
2.27133	-86
2.27500	-86
2.27867	-86
2.28233	-85
2.28600	-84
2.28967	-83
2.29333	-83
2.29700	-83
2.30067	-83
2.30433	-83
2.30800	-83
2.31167	-82
2.31533	-82
2.31900	-81
2.32267	-80
2.32633	-79
2.33000	-77
2.33367	-76
2.33733	-75
2.34100	-74
2.34467	-73
2.34833	-73
2.35200	-72
2.35567	-71
2.35933	-70
2.36300	-69
2.36667	-67
2.37033	-65
2.37400	-63
2.37767	-60
2.38133	-58
2.38500	-54
2.38867	-51
2.39233	-47
2.39600	-43
2.39967	-39
2.40333	-36
2.40700	-32
2.41067	-28
2.41433	-25
2.41800	-22
2.42167	-19
2.42533	-17
2.42900	-14
2.43267	-12
2.43633	-10
2.44000	-8
2.44367	-6
2.44733	-4
2.45100	-2
2.45467	-1
2.45833	-0
2.46200	1
2.46567	2
2.46933	3
2.47300	4
2.47667	6
2.48033	7
2.48400	8
2.48767	10
2.49133	11
2.49500	12
2.49867	12
2.50233	13
2.50600	13
2.50967	14
2.51333	14
2.51700	14
2.52067	15
2.52433	15
2.52800	16
2.53167	16
2.53533	16
2.53900	17
2.54267	18
2.54633	19
2.55000	19
2.55367	20
2.55733	21
2.56100	21
2.56467	22
2.56833	22
2.57200	22
2.57567	22
2.57933	22
2.58300	22
2.58667	22
2.59033	21
2.59400	21
2.59767	21
2.60133	21
2.60500	22
2.60867	22
2.61233	22
2.61600	22
2.61967	22
2.62333	22
2.62700	23
2.63067	24
2.63433	24
2.63800	25
2.64167	25
2.64533	26
2.64900	26
2.65267	26
2.65633	26
2.66000	27
2.66367	27
2.66733	27
2.67100	27
2.67467	28
2.67833	28
2.68200	28
2.68567	29
2.68933	29
2.69300	29
2.69667	29
2.70033	29
2.70400	29
2.70767	29
2.71133	29
2.71500	29
2.71867	29
2.72233	29
2.72600	29
2.72967	30
2.73333	30
2.73700	31
2.74067	31
2.74433	32
2.74800	32
2.75167	33
2.75533	33
2.75900	34
2.76267	34
2.76633	33
2.77000	33
2.77367	33
2.77733	32
2.78100	31
2.78467	31
2.78833	30
2.79200	30
2.79567	30
2.79933	29
2.80300	29
2.80667	29
2.81033	30
2.81400	30
2.81767	31
2.82133	31
2.82500	31
2.82867	32
2.83233	32
2.83600	32
2.83967	33
2.84333	33
2.84700	33
2.85067	33
2.85433	32
2.85800	30
2.86167	27
2.86533	21
2.86900	12
2.87267	-0
2.87633	-16
2.88000	-35
2.88367	-58
2.88733	-86
2.89100	-117
2.89467	-152
2.89833	-191
2.90200	-233
2.90567	-277
2.90933	-324
2.91300	-373
2.91667	-423
2.92033	-474
2.92400	-525
2.92767	-577
2.93133	-629
2.93500	-680
2.93867	-731
2.94233	-781
2.94600	-831
2.94967	-884
2.95333	-943
2.95700	-1004
2.96067	-1056
2.96433	-1090
2.96800	-1099
2.97167	-1081
2.97533	-1041
2.97900	-982
2.98267	-911
2.98633	-833
2.99000	-752
2.99367	-672
2.99733	-595
3.00100	-523
3.00467	-457
3.00833	-396
3.01200	-342
3.01567	-293
3.01933	-251
3.02300	-213
3.02667	-181
3.03033	-152
3.03400	-128
3.03767	-107
3.04133	-89
3.04500	-73
3.04867	-60
3.05233	-48
3.05600	-38
3.05967	-30
3.06333	-22
3.06700	-16
3.07067	-11
3.07433	-6
3.07800	-2
3.08167	1
3.08533	4
3.08900	6
3.09267	8
3.09633	10
3.10000	12
3.10367	14
3.10733	15
3.11100	17
3.11467	18
3.11833	19
3.12200	20
3.12567	21
3.12933	22
3.13300	22
3.13667	23
3.14033	23
3.14400	23
3.14767	23
3.15133	24
3.15500	24
3.15867	24
3.16233	24
3.16600	25
3.16967	25
3.17333	25
3.17700	26
3.18067	26
3.18433	26
3.18800	27
3.19167	27
3.19533	27
3.19900	27
3.20267	27
3.20633	27
3.21000	27
3.21367	27
3.21733	28
3.22100	28
3.22467	28
3.22833	29
3.23200	29
3.23567	29
3.23933	29
3.24300	29
3.24667	29
3.25033	29
3.25400	29
3.25767	29
3.26133	29
3.26500	30
3.26867	30
3.27233	30
3.27600	30
3.27967	30
3.28333	30
3.28700	30
3.29067	30
3.29433	30
3.29800	30
3.30167	30
3.30533	31
3.30900	31
3.31267	31
3.31633	31
3.32000	32
3.32367	32
3.32733	33
3.33100	33
3.33467	33
3.33833	33
3.34200	34
3.34567	34
3.34933	34
3.35300	34
3.35667	34
3.36033	35
3.36400	35
3.36767	35
3.37133	35
3.37500	35
3.37867	36
3.38233	36
3.38600	35
3.38967	35
3.39333	35
3.39700	35
3.40067	35
3.40433	35
3.40800	35
3.41167	35
3.41533	35
3.41900	34
3.42267	34
3.42633	34
3.43000	34
3.43367	34
3.43733	33
3.44100	33
3.44467	33
3.44833	33
3.45200	33
3.45567	33
3.45933	33
3.46300	33
3.46667	33
3.47033	34
3.47400	34
3.47767	34
3.48133	34
3.48500	35
3.48867	35
3.49233	35
3.49600	35
3.49967	36
3.50333	36
3.50700	36
3.51067	36
3.51433	36
3.51800	36
3.52167	36
3.52533	35
3.52900	35
3.53267	35
3.53633	35
3.54000	35
3.54367	36
3.54733	36
3.55100	36
3.55467	36
3.55833	36
3.56200	36
3.56567	36
3.56933	36
3.57300	36
3.57667	36
3.58033	35
3.58400	35
3.58767	35
3.59133	35
3.59500	35
3.59867	35
3.60233	35
3.60600	35
3.60967	35
3.61333	35
3.61700	35
3.62067	35
3.62433	35
3.62800	35
3.63167	35
3.63533	35
3.63900	35
3.64267	35
3.64633	35
3.65000	35
3.65367	35
3.65733	35
3.66100	35
3.66467	35
3.66833	35
3.67200	35
3.67567	35
3.67933	35
3.68300	35
3.68667	35
3.69033	35
3.69400	35
3.69767	35
3.70133	35
3.70500	36
3.70867	36
3.71233	36
3.71600	36
3.71967	36
3.72333	36
3.72700	36
3.73067	36
3.73433	36
3.73800	36
3.74167	36
3.74533	36
3.74900	36
3.75267	36
3.75633	36
3.76000	36
3.76367	36
3.76733	36
3.77100	36
3.77467	36
3.77833	36
3.78200	36
3.78567	36
3.78933	36
3.79300	36
3.79667	36
3.80033	36
3.80400	36
3.80767	36
3.81133	36
3.81500	36
3.81867	36
3.82233	36
3.82600	36
3.82967	36
3.83333	36
3.83700	35
3.84067	35
3.84433	35
3.84800	35
3.85167	35
3.85533	35
3.85900	35
3.86267	35
3.86633	35
3.87000	35
3.87367	35
3.87733	35
3.88100	35
3.88467	35
3.88833	36
3.89200	36
3.89567	36
3.89933	36
3.90300	36
3.90667	36
3.91033	36
3.91400	36
3.91767	36
3.92133	35
3.92500	35
3.92867	35
3.93233	35
3.93600	35
3.93967	35
3.94333	35
3.94700	35
3.95067	35
3.95433	35
3.95800	35
3.96167	35
3.96533	35
3.96900	35
3.97267	35
3.97633	35
3.98000	35
3.98367	35
3.98733	35
3.99100	35
3.99467	35
3.99833	35

[Chromatogram (Ch3)]
Interval(msec)	220
# of Points	1091
Start Time(min)	0.002
End Time(min)	3.998
R.Time (min)	Intensity
0.00167	-1
0.00533	-2
0.00900	-3
0.01267	-4
0.01633	-4
0.02000	-5
0.02367	-5
0.02733	-5
0.03100	-5
0.03467	-3
0.03833	-3
0.04200	-3
0.04567	-3
0.04933	-1
0.05300	-3
0.05667	-4
0.06033	-4
0.06400	-3
0.06767	-1
0.07133	1
0.07500	1
0.07867	2
0.08233	3
0.08600	2
0.08967	-1
0.09333	-4
0.09700	-3
0.10067	-4
0.10433	-5
0.10800	-4
0.11167	-4
0.11533	-5
0.11900	-5
0.12267	-6
0.12633	-3
0.13000	1
0.13367	3
0.13733	2
0.14100	-0
0.14467	-4
0.14833	-6
0.15200	-8
0.15567	-9
0.15933	-9
0.16300	-7
0.16667	-5
0.17033	-5
0.17400	-7
0.17767	-9
0.18133	-10
0.18500	-14
0.18867	-14
0.19233	-10
0.19600	-6
0.19967	-5
0.20333	-5
0.20700	-9
0.21067	-10
0.21433	-10
0.21800	-11
0.22167	-12
0.22533	-12
0.22900	-10
0.23267	-10
0.23633	-8
0.24000	-7
0.24367	-8
0.24733	-8
0.25100	-8
0.25467	-9
0.25833	-8
0.26200	-6
0.26567	-8
0.26933	-8
0.27300	-7
0.27667	-5
0.28033	-4
0.28400	-3
0.28767	-4
0.29133	-5
0.29500	-6
0.29867	-9
0.30233	-11
0.30600	-14
0.30967	-14
0.31333	-13
0.31700	-13
0.32067	-10
0.32433	-8
0.32800	-8
0.33167	-9
0.33533	-11
0.33900	-11
0.34267	-9
0.34633	-8
0.35000	-6
0.35367	-6
0.35733	-7
0.36100	-9
0.36467	-8
0.36833	-8
0.37200	-8
0.37567	-6
0.37933	-3
0.38300	-4
0.38667	-7
0.39033	-9
0.39400	-9
0.39767	-9
0.40133	-9
0.40500	-10
0.40867	-12
0.41233	-11
0.41600	-11
0.41967	-13
0.42333	-13
0.42700	-12
0.43067	-9
0.43433	-8
0.43800	-8
0.44167	-10
0.44533	-14
0.44900	-17
0.45267	-18
0.45633	-16
0.46000	-15
0.46367	-15
0.46733	-14
0.47100	-15
0.47467	-15
0.47833	-11
0.48200	-9
0.48567	-8
0.48933	-9
0.49300	-12
0.49667	-16
0.50033	-18
0.50400	-18
0.50767	-17
0.51133	-15
0.51500	-13
0.51867	-11
0.52233	-11
0.52600	-12
0.52967	-14
0.53333	-15
0.53700	-13
0.54067	-11
0.54433	-11
0.54800	-10
0.55167	-10
0.55533	-11
0.55900	-11
0.56267	-12
0.56633	-11
0.57000	-9
0.57367	-8
0.57733	-10
0.58100	-12
0.58467	-11
0.58833	-12
0.59200	-13
0.59567	-16
0.59933	-18
0.60300	-17
0.60667	-16
0.61033	-18
0.61400	-19
0.61767	-20
0.62133	-20
0.62500	-20
0.62867	-18
0.63233	-15
0.63600	-14
0.63967	-16
0.64333	-18
0.64700	-20
0.65067	-21
0.65433	-19
0.65800	-16
0.66167	-15
0.66533	-12
0.66900	-11
0.67267	-10
0.67633	-10
0.68000	-9
0.68367	-11
0.68733	-12
0.69100	-15
0.69467	-17
0.69833	-19
0.70200	-22
0.70567	-24
0.70933	-22
0.71300	-21
0.71667	-22
0.72033	-21
0.72400	-21
0.72767	-22
0.73133	-19
0.73500	-17
0.73867	-17
0.74233	-17
0.74600	-17
0.74967	-17
0.75333	-17
0.75700	-18
0.76067	-16
0.76433	-15
0.76800	-15
0.77167	-15
0.77533	-16
0.77900	-19
0.78267	-19
0.78633	-19
0.79000	-17
0.79367	-13
0.79733	-11
0.80100	-10
0.80467	-9
0.80833	-12
0.81200	-14
0.81567	-17
0.81933	-18
0.82300	-19
0.82667	-17
0.83033	-17
0.83400	-18
0.83767	-20
0.84133	-20
0.84500	-18
0.84867	-17
0.85233	-17
0.85600	-18
0.85967	-19
0.86333	-18
0.86700	-18
0.87067	-20
0.87433	-20
0.87800	-21
0.88167	-24
0.88533	-26
0.88900	-25
0.89267	-26
0.89633	-24
0.90000	-23
0.90367	-23
0.90733	-21
0.91100	-21
0.91467	-19
0.91833	-17
0.92200	-17
0.92567	-18
0.92933	-18
0.93300	-20
0.93667	-21
0.94033	-21
0.94400	-20
0.94767	-18
0.95133	-16
0.95500	-17
0.95867	-16
0.96233	-17
0.96600	-20
0.96967	-22
0.97333	-22
0.97700	-21
0.98067	-23
0.98433	-25
0.98800	-24
0.99167	-22
0.99533	-20
0.99900	-19
1.00267	-19
1.00633	-21
1.01000	-20
1.01367	-19
1.01733	-19
1.02100	-18
1.02467	-18
1.02833	-20
1.03200	-23
1.03567	-26
1.03933	-26
1.04300	-24
1.04667	-22
1.05033	-21
1.05400	-23
1.05767	-25
1.06133	-26
1.06500	-26
1.06867	-28
1.07233	-29
1.07600	-28
1.07967	-27
1.08333	-26
1.08700	-27
1.09067	-26
1.09433	-25
1.09800	-23
1.10167	-21
1.10533	-22
1.10900	-22
1.11267	-21
1.11633	-23
1.12000	-24
1.12367	-23
1.12733	-22
1.13100	-23
1.13467	-21
1.13833	-20
1.14200	-20
1.14567	-25
1.14933	-27
1.15300	-30
1.15667	-29
1.16033	-28
1.16400	-28
1.16767	-26
1.17133	-27
1.17500	-29
1.17867	-29
1.18233	-27
1.18600	-26
1.18967	-26
1.19333	-26
1.19700	-25
1.20067	-25
1.20433	-24
1.20800	-25
1.21167	-26
1.21533	-28
1.21900	-28
1.22267	-27
1.22633	-27
1.23000	-28
1.23367	-29
1.23733	-30
1.24100	-29
1.24467	-27
1.24833	-28
1.25200	-29
1.25567	-30
1.25933	-29
1.26300	-26
1.26667	-26
1.27033	-27
1.27400	-28
1.27767	-31
1.28133	-33
1.28500	-32
1.28867	-31
1.29233	-31
1.29600	-33
1.29967	-35
1.30333	-38
1.30700	-39
1.31067	-37
1.31433	-36
1.31800	-34
1.32167	-32
1.32533	-31
1.32900	-33
1.33267	-33
1.33633	-32
1.34000	-33
1.34367	-33
1.34733	-30
1.35100	-27
1.35467	-28
1.35833	-27
1.36200	-25
1.36567	-24
1.36933	-26
1.37300	-31
1.37667	-34
1.38033	-35
1.38400	-35
1.38767	-36
1.39133	-36
1.39500	-36
1.39867	-34
1.40233	-31
1.40600	-31
1.40967	-29
1.41333	-29
1.41700	-29
1.42067	-30
1.42433	-32
1.42800	-34
1.43167	-35
1.43533	-35
1.43900	-35
1.44267	-35
1.44633	-34
1.45000	-33
1.45367	-31
1.45733	-30
1.46100	-29
1.46467	-28
1.46833	-29
1.47200	-30
1.47567	-33
1.47933	-38
1.48300	-40
1.48667	-42
1.49033	-42
1.49400	-43
1.49767	-42
1.50133	-39
1.50500	-36
1.50867	-34
1.51233	-35
1.51600	-36
1.51967	-36
1.52333	-36
1.52700	-38
1.53067	-39
1.53433	-38
1.53800	-36
1.54167	-36
1.54533	-37
1.54900	-37
1.55267	-37
1.55633	-41
1.56000	-43
1.56367	-43
1.56733	-42
1.57100	-42
1.57467	-41
1.57833	-39
1.58200	-39
1.58567	-40
1.58933	-44
1.59300	-46
1.59667	-46
1.60033	-48
1.60400	-46
1.60767	-41
1.61133	-40
1.61500	-38
1.61867	-38
1.62233	-37
1.62600	-35
1.62967	-33
1.63333	-32
1.63700	-33
1.64067	-34
1.64433	-34
1.64800	-34
1.65167	-34
1.65533	-34
1.65900	-33
1.66267	-30
1.66633	-29
1.67000	-29
1.67367	-28
1.67733	-27
1.68100	-25
1.68467	-24
1.68833	-28
1.69200	-28
1.69567	-27
1.69933	-26
1.70300	-25
1.70667	-25
1.71033	-24
1.71400	-22
1.71767	-20
1.72133	-18
1.72500	-17
1.72867	-15
1.73233	-14
1.73600	-13
1.73967	-13
1.74333	-15
1.74700	-17
1.75067	-15
1.75433	-15
1.75800	-13
1.76167	-11
1.76533	-8
1.76900	-6
1.77267	-7
1.77633	-5
1.78000	-5
1.78367	-5
1.78733	-7
1.79100	-9
1.79467	-9
1.79833	-8
1.80200	-5
1.80567	-4
1.80933	-4
1.81300	-2
1.81667	-1
1.82033	2
1.82400	3
1.82767	4
1.83133	3
1.83500	3
1.83867	2
1.84233	2
1.84600	5
1.84967	8
1.85333	10
1.85700	11
1.86067	9
1.86433	8
1.86800	7
1.87167	7
1.87533	7
1.87900	5
1.88267	5
1.88633	6
1.89000	7
1.89367	9
1.89733	9
1.90100	11
1.90467	12
1.90833	13
1.91200	13
1.91567	12
1.91933	12
1.92300	12
1.92667	12
1.93033	12
1.93400	13
1.93767	13
1.94133	13
1.94500	10
1.94867	13
1.95233	18
1.95600	20
1.95967	22
1.96333	21
1.96700	20
1.97067	22
1.97433	24
1.97800	27
1.98167	26
1.98533	24
1.98900	23
1.99267	24
1.99633	24
2.00000	24
2.00367	24
2.00733	25
2.01100	26
2.01467	26
2.01833	25
2.02200	26
2.02567	28
2.02933	31
2.03300	33
2.03667	35
2.04033	37
2.04400	42
2.04767	45
2.05133	45
2.05500	46
2.05867	47
2.06233	48
2.06600	53
2.06967	53
2.07333	52
2.07700	50
2.08067	51
2.08433	52
2.08800	54
2.09167	57
2.09533	56
2.09900	54
2.10267	55
2.10633	58
2.11000	62
2.11367	64
2.11733	64
2.12100	65
2.12467	68
2.12833	69
2.13200	70
2.13567	71
2.13933	72
2.14300	72
2.14667	74
2.15033	74
2.15400	73
2.15767	74
2.16133	75
2.16500	76
2.16867	78
2.17233	79
2.17600	84
2.17967	89
2.18333	89
2.18700	88
2.19067	89
2.19433	91
2.19800	92
2.20167	94
2.20533	94
2.20900	93
2.21267	94
2.21633	97
2.22000	100
2.22367	103
2.22733	102
2.23100	102
2.23467	101
2.23833	103
2.24200	106
2.24567	105
2.24933	106
2.25300	109
2.25667	110
2.26033	112
2.26400	113
2.26767	117
2.27133	120
2.27500	122
2.27867	125
2.28233	126
2.28600	124
2.28967	124
2.29333	123
2.29700	123
2.30067	124
2.30433	127
2.30800	128
2.31167	129
2.31533	131
2.31900	133
2.32267	133
2.32633	132
2.33000	133
2.33367	135
2.33733	136
2.34100	139
2.34467	143
2.34833	147
2.35200	150
2.35567	153
2.35933	155
2.36300	155
2.36667	155
2.37033	156
2.37400	156
2.37767	158
2.38133	159
2.38500	160
2.38867	162
2.39233	159
2.39600	159
2.39967	161
2.40333	160
2.40700	158
2.41067	158
2.41433	161
2.41800	164
2.42167	167
2.42533	169
2.42900	172
2.43267	175
2.43633	178
2.44000	183
2.44367	206
2.44733	259
2.45100	323
2.45467	374
2.45833	393
2.46200	392
2.46567	388
2.46933	384
2.47300	373
2.47667	353
2.48033	327
2.48400	303
2.48767	282
2.49133	266
2.49500	255
2.49867	251
2.50233	255
2.50600	263
2.50967	272
2.51333	278
2.51700	276
2.52067	269
2.52433	258
2.52800	244
2.53167	229
2.53533	214
2.53900	201
2.54267	194
2.54633	188
2.55000	186
2.55367	183
2.55733	183
2.56100	182
2.56467	182
2.56833	184
2.57200	187
2.57567	193
2.57933	202
2.58300	211
2.58667	219
2.59033	220
2.59400	223
2.59767	230
2.60133	239
2.60500	243
2.60867	240
2.61233	227
2.61600	207
2.61967	184
2.62333	155
2.62700	125
2.63067	94
2.63433	62
2.63800	33
2.64167	8
2.64533	-9
2.64900	-24
2.65267	-34
2.65633	-38
2.66000	-38
2.66367	-35
2.66733	-32
2.67100	-27
2.67467	-19
2.67833	-10
2.68200	-1
2.68567	6
2.68933	17
2.69300	29
2.69667	40
2.70033	52
2.70400	64
2.70767	75
2.71133	85
2.71500	91
2.71867	95
2.72233	98
2.72600	102
2.72967	106
2.73333	111
2.73700	115
2.74067	120
2.74433	122
2.74800	128
2.75167	134
2.75533	137
2.75900	140
2.76267	143
2.76633	149
2.77000	156
2.77367	164
2.77733	171
2.78100	175
2.78467	178
2.78833	182
2.79200	188
2.79567	194
2.79933	197
2.80300	200
2.80667	200
2.81033	200
2.81400	199
2.81767	199
2.82133	201
2.82500	205
2.82867	216
2.83233	236
2.83600	280
2.83967	365
2.84333	512
2.84700	749
2.85067	1091
2.85433	1542
2.85800	2085
2.86167	2687
2.86533	3306
2.86900	3892
2.87267	4396
2.87633	4778
2.88000	5012
2.88367	5091
2.88733	5030
2.89100	4855
2.89467	4588
2.89833	4262
2.90200	3906
2.90567	3539
2.90933	3177
2.91300	2832
2.91667	2509
2.92033	2216
2.92400	1954
2.92767	1719
2.93133	1512
2.93500	1329
2.93867	1171
2.94233	1034
2.94600	915
2.94967	811
2.95333	720
2.95700	641
2.96067	572
2.96433	514
2.96800	463
2.97167	418
2.97533	380
2.97900	348
2.98267	320
2.98633	297
2.99000	276
2.99367	258
2.99733	245
3.00100	233
3.00467	221
3.00833	213
3.01200	207
3.01567	200
3.01933	191
3.02300	184
3.02667	179
3.03033	175
3.03400	169
3.03767	165
3.04133	161
3.04500	160
3.04867	159
3.05233	156
3.05600	154
3.05967	152
3.06333	150
3.06700	147
3.07067	145
3.07433	145
3.07800	148
3.08167	149
3.08533	149
3.08900	149
3.09267	147
3.09633	144
3.10000	142
3.10367	139
3.10733	136
3.11100	134
3.11467	132
3.11833	133
3.12200	137
3.12567	136
3.12933	135
3.13300	136
3.13667	135
3.14033	135
3.14400	135
3.14767	134
3.15133	135
3.15500	135
3.15867	134
3.16233	133
3.16600	134
3.16967	135
3.17333	136
3.17700	138
3.18067	137
3.18433	137
3.18800	139
3.19167	138
3.19533	138
3.19900	141
3.20267	145
3.20633	149
3.21000	150
3.21367	149
3.21733	147
3.22100	146
3.22467	146
3.22833	146
3.23200	147
3.23567	146
3.23933	146
3.24300	147
3.24667	147
3.25033	148
3.25400	147
3.25767	145
3.26133	144
3.26500	142
3.26867	142
3.27233	145
3.27600	145
3.27967	142
3.28333	139
3.28700	137
3.29067	134
3.29433	131
3.29800	129
3.30167	127
3.30533	125
3.30900	120
3.31267	116
3.31633	113
3.32000	110
3.32367	107
3.32733	105
3.33100	102
3.33467	98
3.33833	95
3.34200	92
3.34567	87
3.34933	84
3.35300	83
3.35667	78
3.36033	71
3.36400	65
3.36767	61
3.37133	62
3.37500	60
3.37867	58
3.38233	57
3.38600	55
3.38967	49
3.39333	45
3.39700	42
3.40067	39
3.40433	35
3.40800	30
3.41167	25
3.41533	24
3.41900	22
3.42267	20
3.42633	17
3.43000	12
3.43367	8
3.43733	6
3.44100	3
3.44467	1
3.44833	-2
3.45200	-3
3.45567	-5
3.45933	-8
3.46300	-13
3.46667	-16
3.47033	-17
3.47400	-19
3.47767	-22
3.48133	-25
3.48500	-25
3.48867	-23
3.49233	-24
3.49600	-27
3.49967	-32
3.50333	-38
3.50700	-42
3.51067	-44
3.51433	-47
3.51800	-51
3.52167	-52
3.52533	-51
3.52900	-54
3.53267	-57
3.53633	-58
3.54000	-60
3.54367	-62
3.54733	-63
3.55100	-64
3.55467	-67
3.55833	-68
3.56200	-65
3.56567	-64
3.56933	-67
3.57300	-71
3.57667	-74
3.58033	-78
3.58400	-79
3.58767	-78
3.59133	-80
3.59500	-84
3.59867	-85
3.60233	-86
3.60600	-88
3.60967	-88
3.61333	-87
3.61700	-86
3.62067	-87
3.62433	-89
3.62800	-91
3.63167	-93
3.63533	-94
3.63900	-94
3.64267	-95
3.64633	-98
3.65000	-99
3.65367	-98
3.65733	-96
3.66100	-95
3.66467	-94
3.66833	-94
3.67200	-96
3.67567	-98
3.67933	-98
3.68300	-98
3.68667	-97
3.69033	-97
3.69400	-97
3.69767	-98
3.70133	-100
3.70500	-102
3.70867	-103
3.71233	-101
3.71600	-100
3.71967	-100
3.72333	-102
3.72700	-106
3.73067	-107
3.73433	-106
3.73800	-105
3.74167	-105
3.74533	-106
3.74900	-105
3.75267	-104
3.75633	-105
3.76000	-107
3.76367	-106
3.76733	-104
3.77100	-102
3.77467	-99
3.77833	-99
3.78200	-100
3.78567	-101
3.78933	-103
3.79300	-103
3.79667	-103
3.80033	-102
3.80400	-103
3.80767	-105
3.81133	-105
3.81500	-103
3.81867	-101
3.82233	-99
3.82600	-96
3.82967	-95
3.83333	-92
3.83700	-92
3.84067	-93
3.84433	-93
3.84800	-92
3.85167	-90
3.85533	-88
3.85900	-90
3.86267	-91
3.86633	-92
3.87000	-91
3.87367	-88
3.87733	-84
3.88100	-81
3.88467	-81
3.88833	-83
3.89200	-82
3.89567	-82
3.89933	-85
3.90300	-87
3.90667	-86
3.91033	-81
3.91400	-79
3.91767	-80
3.92133	-79
3.92500	-76
3.92867	-73
3.93233	-70
3.93600	-66
3.93967	-66
3.94333	-66
3.94700	-66
3.95067	-69
3.95433	-69
3.95800	-68
3.96167	-67
3.96533	-66
3.96900	-67
3.97267	-68
3.97633	-70
3.98000	-72
3.98367	-73
3.98733	-73
3.99100	-73
3.99467	-69
3.99833	-68

[Status Trace (Column Oven Temperature)]
Interval(msec)	1000
# of Points	240
Start Time(min)	0.001
End Time(min)	3.984
Intensity Units	
Intensity Multiplier	1
R.Time (min)	Intensity
0.00097	35.00
0.01763	35.00
0.03430	35.00
0.05097	35.01
0.06763	35.01
0.08430	35.01
0.10097	35.01
0.11763	35.01
0.13430	35.00
0.15097	34.99
0.16763	34.98
0.18430	34.99
0.20097	34.99
0.21763	34.99
0.23430	34.99
0.25097	34.98
0.26763	34.99
0.28430	34.99
0.30097	35.00
0.31763	35.00
0.33430	35.01
0.35097	35.02
0.36763	35.01
0.38430	35.00
0.40097	34.99
0.41763	35.00
0.43430	35.00
0.45097	34.99
0.46763	35.00
0.48430	35.01
0.50097	35.01
0.51763	35.01
0.53430	35.01
0.55097	35.02
0.56763	35.02
0.58430	35.02
0.60097	35.02
0.61763	35.01
0.63430	35.00
0.65097	35.00
0.66763	35.00
0.68430	35.00
0.70097	35.00
0.71763	35.00
0.73430	34.99
0.75097	34.99
0.76763	34.99
0.78430	35.01
0.80097	35.01
0.81763	35.01
0.83430	35.00
0.85097	35.00
0.86763	35.00
0.88430	34.99
0.90097	34.99
0.91763	34.99
0.93430	34.99
0.95097	34.99
0.96763	35.00
0.98430	35.00
1.00097	35.00
1.01763	35.00
1.03430	35.01
1.05097	35.01
1.06763	35.00
1.08430	35.00
1.10097	35.00
1.11763	34.99
1.13430	34.99
1.15097	34.99
1.16763	34.98
1.18430	34.98
1.20097	34.99
1.21763	35.00
1.23430	34.99
1.25097	34.99
1.26763	35.00
1.28430	35.00
1.30097	35.00
1.31763	35.00
1.33430	35.00
1.35097	35.00
1.36763	35.00
1.38430	35.01
1.40097	35.01
1.41763	35.01
1.43430	35.01
1.45097	35.01
1.46763	35.01
1.48430	35.01
1.50097	35.00
1.51763	34.99
1.53430	34.99
1.55097	34.99
1.56763	34.99
1.58430	35.00
1.60097	35.04
1.61763	35.13
1.63430	35.30
1.65097	35.52
1.66763	35.82
1.68430	36.19
1.70097	36.56
1.71763	36.91
1.73430	37.22
1.75097	37.53
1.76763	37.87
1.78430	38.21
1.80097	38.54
1.81763	38.88
1.83430	39.19
1.85097	39.53
1.86763	39.86
1.88430	40.18
1.90097	40.51
1.91763	40.82
1.93430	41.16
1.95097	41.47
1.96763	41.81
1.98430	42.12
2.00097	42.44
2.01763	42.77
2.03430	43.11
2.05097	43.43
2.06763	43.76
2.08430	44.09
2.10097	44.41
2.11763	44.73
2.13430	45.07
2.15097	45.39
2.16763	45.69
2.18430	46.02
2.20097	46.36
2.21763	46.70
2.23430	47.03
2.25097	47.35
2.26763	47.71
2.28430	48.02
2.30097	48.38
2.31763	48.70
2.33430	49.02
2.35097	49.34
2.36763	49.55
2.38430	49.64
2.40097	49.64
2.41763	49.63
2.43430	49.64
2.45097	49.65
2.46763	49.67
2.48430	49.66
2.50097	49.69
2.51763	49.70
2.53430	49.72
2.55097	49.73
2.56763	49.74
2.58430	49.77
2.60097	49.79
2.61763	49.81
2.63430	49.81
2.65097	49.82
2.66763	49.83
2.68430	49.84
2.70097	49.85
2.71763	49.87
2.73430	49.87
2.75097	49.84
2.76763	49.85
2.78430	49.89
2.80097	49.90
2.81763	49.92
2.83430	49.92
2.85097	49.91
2.86763	49.91
2.88430	49.92
2.90097	49.92
2.91763	49.93
2.93430	49.94
2.95097	49.94
2.96763	49.95
2.98430	49.95
3.00097	49.96
3.01763	49.97
3.03430	49.98
3.05097	50.00
3.06763	50.01
3.08430	50.02
3.10097	50.02
3.11763	50.02
3.13430	50.03
3.15097	50.04
3.16763	50.05
3.18430	50.06
3.20097	50.07
3.21763	50.07
3.23430	50.07
3.25097	50.08
3.26763	50.09
3.28430	50.11
3.30097	50.10
3.31763	50.10
3.33430	50.08
3.35097	50.08
3.36763	50.08
3.38430	50.07
3.40097	50.07
3.41763	50.07
3.43430	50.08
3.45097	50.08
3.46763	50.08
3.48430	50.08
3.50097	50.08
3.51763	50.08
3.53430	50.07
3.55097	50.07
3.56763	50.07
3.58430	50.08
3.60097	50.08
3.61763	50.09
3.63430	50.09
3.65097	50.09
3.66763	50.09
3.68430	50.09
3.70097	50.09
3.71763	50.08
3.73430	50.08
3.75097	50.08
3.76763	50.08
3.78430	50.07
3.80097	50.07
3.81763	50.08
3.83430	50.07
3.85097	50.08
3.86763	50.08
3.88430	50.08
3.90097	50.07
3.91763	50.07
3.93430	50.07
3.95097	50.07
3.96763	50.07
3.98430	50.06

[Status Trace (Injection Unit Temperature)]
Interval(msec)	1000
# of Points	240
Start Time(min)	0.001
End Time(min)	3.984
Intensity Units	
Intensity Multiplier	1
R.Time (min)	Intensity
0.00097	100.00
0.01763	100.00
0.03430	100.00
0.05097	100.00
0.06763	100.00
0.08430	99.99
0.10097	100.00
0.11763	100.00
0.13430	100.00
0.15097	100.00
0.16763	99.99
0.18430	100.00
0.20097	100.00
0.21763	100.00
0.23430	100.00
0.25097	100.00
0.26763	100.00
0.28430	100.00
0.30097	100.00
0.31763	99.99
0.33430	100.00
0.35097	99.99
0.36763	99.99
0.38430	100.00
0.40097	100.00
0.41763	100.00
0.43430	100.00
0.45097	100.00
0.46763	99.99
0.48430	100.00
0.50097	100.00
0.51763	99.99
0.53430	99.99
0.55097	100.00
0.56763	100.00
0.58430	100.00
0.60097	100.00
0.61763	100.00
0.63430	99.99
0.65097	99.99
0.66763	100.00
0.68430	99.99
0.70097	100.00
0.71763	99.99
0.73430	100.00
0.75097	100.00
0.76763	100.00
0.78430	100.00
0.80097	100.00
0.81763	100.00
0.83430	99.99
0.85097	100.00
0.86763	99.99
0.88430	100.00
0.90097	100.00
0.91763	100.00
0.93430	99.99
0.95097	99.99
0.96763	99.99
0.98430	99.99
1.00097	99.99
1.01763	100.00
1.03430	100.00
1.05097	99.99
1.06763	100.00
1.08430	100.00
1.10097	100.00
1.11763	100.00
1.13430	100.00
1.15097	100.00
1.16763	100.00
1.18430	100.00
1.20097	100.00
1.21763	100.00
1.23430	100.00
1.25097	100.00
1.26763	100.00
1.28430	100.00
1.30097	100.00
1.31763	100.00
1.33430	100.00
1.35097	100.00
1.36763	100.00
1.38430	100.00
1.40097	100.00
1.41763	100.00
1.43430	99.99
1.45097	100.00
1.46763	100.00
1.48430	100.00
1.50097	100.00
1.51763	100.00
1.53430	100.00
1.55097	100.00
1.56763	100.00
1.58430	100.00
1.60097	100.00
1.61763	100.00
1.63430	100.00
1.65097	100.00
1.66763	100.00
1.68430	99.99
1.70097	99.99
1.71763	99.99
1.73430	100.00
1.75097	100.00
1.76763	100.00
1.78430	99.99
1.80097	99.99
1.81763	100.00
1.83430	99.99
1.85097	99.99
1.86763	99.99
1.88430	99.99
1.90097	99.99
1.91763	99.99
1.93430	99.99
1.95097	99.99
1.96763	99.99
1.98430	99.99
2.00097	99.99
2.01763	99.98
2.03430	99.99
2.05097	99.98
2.06763	99.98
2.08430	99.99
2.10097	99.98
2.11763	99.98
2.13430	99.98
2.15097	99.98
2.16763	99.98
2.18430	99.98
2.20097	99.98
2.21763	99.98
2.23430	99.98
2.25097	99.97
2.26763	99.98
2.28430	99.98
2.30097	99.97
2.31763	99.98
2.33430	99.98
2.35097	99.98
2.36763	99.98
2.38430	99.98
2.40097	99.98
2.41763	99.98
2.43430	99.98
2.45097	99.97
2.46763	99.98
2.48430	99.98
2.50097	99.98
2.51763	99.98
2.53430	99.98
2.55097	99.98
2.56763	99.98
2.58430	99.99
2.60097	99.99
2.61763	99.99
2.63430	99.98
2.65097	99.99
2.66763	99.99
2.68430	99.99
2.70097	100.00
2.71763	100.00
2.73430	100.00
2.75097	100.00
2.76763	100.00
2.78430	100.00
2.80097	100.00
2.81763	100.00
2.83430	100.00
2.85097	100.00
2.86763	100.01
2.88430	100.01
2.90097	100.01
2.91763	100.01
2.93430	100.01
2.95097	100.01
2.96763	100.01
2.98430	100.02
3.00097	100.02
3.01763	100.02
3.03430	100.02
3.05097	100.02
3.06763	100.02
3.08430	100.02
3.10097	100.02
3.11763	100.03
3.13430	100.03
3.15097	100.03
3.16763	100.03
3.18430	100.03
3.20097	100.03
3.21763	100.04
3.23430	100.04
3.25097	100.04
3.26763	100.03
3.28430	100.04
3.30097	100.04
3.31763	100.04
3.33430	100.04
3.35097	100.04
3.36763	100.04
3.38430	100.04
3.40097	100.05
3.41763	100.05
3.43430	100.05
3.45097	100.05
3.46763	100.05
3.48430	100.06
3.50097	100.06
3.51763	100.05
3.53430	100.06
3.55097	100.06
3.56763	100.05
3.58430	100.05
3.60097	100.06
3.61763	100.06
3.63430	100.06
3.65097	100.06
3.66763	100.06
3.68430	100.06
3.70097	100.06
3.71763	100.07
3.73430	100.06
3.75097	100.06
3.76763	100.07
3.78430	100.07
3.80097	100.06
3.81763	100.07
3.83430	100.06
3.85097	100.06
3.86763	100.07
3.88430	100.06
3.90097	100.06
3.91763	100.06
3.93430	100.07
3.95097	100.07
3.96763	100.06
3.98430	100.06

[Status Trace (Carrier Gas Pressure)]
Interval(msec)	1000
# of Points	240
Start Time(min)	0.001
End Time(min)	3.984
Intensity Units	
Intensity Multiplier	1
R.Time (min)	Intensity
0.00097	58.00
0.01763	56.69
0.03430	56.07
0.05097	58.42
0.06763	59.89
0.08430	58.38
0.10097	57.97
0.11763	58.00
0.13430	58.01
0.15097	58.01
0.16763	58.00
0.18430	58.00
0.20097	58.00
0.21763	58.00
0.23430	58.00
0.25097	58.00
0.26763	58.00
0.28430	58.00
0.30097	58.00
0.31763	58.00
0.33430	58.00
0.35097	58.00
0.36763	58.00
0.38430	58.00
0.40097	58.00
0.41763	58.00
0.43430	58.00
0.45097	58.00
0.46763	58.00
0.48430	58.00
0.50097	58.00
0.51763	58.00
0.53430	58.00
0.55097	58.00
0.56763	58.00
0.58430	58.00
0.60097	58.00
0.61763	58.00
0.63430	58.00
0.65097	58.00
0.66763	58.00
0.68430	58.00
0.70097	58.00
0.71763	58.00
0.73430	58.00
0.75097	58.00
0.76763	58.00
0.78430	58.00
0.80097	58.00
0.81763	58.00
0.83430	58.00
0.85097	58.00
0.86763	58.00
0.88430	58.00
0.90097	58.00
0.91763	58.00
0.93430	58.00
0.95097	58.00
0.96763	58.00
0.98430	58.00
1.00097	58.00
1.01763	58.00
1.03430	58.00
1.05097	58.00
1.06763	58.00
1.08430	58.00
1.10097	58.00
1.11763	58.00
1.13430	58.00
1.15097	58.00
1.16763	58.00
1.18430	58.00
1.20097	58.00
1.21763	58.00
1.23430	58.00
1.25097	58.00
1.26763	58.00
1.28430	58.00
1.30097	58.00
1.31763	58.00
1.33430	58.00
1.35097	58.00
1.36763	58.00
1.38430	58.00
1.40097	58.00
1.41763	58.00
1.43430	58.00
1.45097	58.00
1.46763	58.00
1.48430	58.00
1.50097	58.00
1.51763	58.00
1.53430	58.00
1.55097	58.00
1.56763	58.00
1.58430	58.00
1.60097	58.00
1.61763	58.00
1.63430	58.01
1.65097	58.00
1.66763	58.01
1.68430	58.01
1.70097	58.00
1.71763	58.00
1.73430	58.00
1.75097	58.00
1.76763	58.00
1.78430	58.00
1.80097	58.00
1.81763	58.00
1.83430	58.00
1.85097	58.00
1.86763	58.00
1.88430	58.00
1.90097	58.00
1.91763	58.00
1.93430	58.00
1.95097	58.00
1.96763	58.00
1.98430	58.00
2.00097	58.00
2.01763	58.00
2.03430	58.00
2.05097	58.00
2.06763	58.00
2.08430	58.00
2.10097	58.00
2.11763	58.00
2.13430	58.00
2.15097	58.00
2.16763	58.00
2.18430	58.00
2.20097	58.00
2.21763	58.00
2.23430	58.00
2.25097	58.00
2.26763	58.00
2.28430	58.00
2.30097	58.00
2.31763	58.00
2.33430	58.00
2.35097	58.00
2.36763	58.00
2.38430	57.99
2.40097	57.99
2.41763	58.00
2.43430	58.00
2.45097	58.00
2.46763	58.00
2.48430	58.00
2.50097	58.00
2.51763	57.98
2.53430	57.99
2.55097	58.00
2.56763	58.00
2.58430	58.00
2.60097	58.00
2.61763	58.00
2.63430	58.00
2.65097	58.00
2.66763	58.00
2.68430	58.00
2.70097	58.00
2.71763	58.00
2.73430	58.00
2.75097	58.00
2.76763	58.00
2.78430	58.00
2.80097	58.00
2.81763	58.00
2.83430	58.00
2.85097	58.00
2.86763	58.00
2.88430	58.00
2.90097	58.00
2.91763	58.00
2.93430	58.00
2.95097	58.00
2.96763	58.00
2.98430	58.00
3.00097	58.00
3.01763	58.00
3.03430	58.00
3.05097	58.00
3.06763	58.00
3.08430	58.00
3.10097	58.00
3.11763	58.00
3.13430	58.00
3.15097	58.00
3.16763	58.00
3.18430	58.00
3.20097	58.00
3.21763	58.00
3.23430	58.00
3.25097	58.00
3.26763	58.00
3.28430	58.00
3.30097	58.00
3.31763	58.00
3.33430	58.00
3.35097	58.00
3.36763	58.00
3.38430	58.00
3.40097	58.00
3.41763	58.00
3.43430	58.00
3.45097	58.00
3.46763	58.00
3.48430	58.00
3.50097	58.00
3.51763	58.00
3.53430	58.00
3.55097	58.00
3.56763	58.00
3.58430	58.00
3.60097	58.00
3.61763	58.00
3.63430	58.00
3.65097	58.00
3.66763	58.00
3.68430	58.00
3.70097	58.00
3.71763	58.00
3.73430	58.00
3.75097	58.00
3.76763	58.00
3.78430	58.00
3.80097	58.00
3.81763	58.00
3.83430	58.00
3.85097	58.00
3.86763	58.00
3.88430	58.00
3.90097	58.00
3.91763	58.00
3.93430	58.00
3.95097	58.00
3.96763	58.00
3.98430	58.00

[Status Trace (Carrier Gas Flow)]
Interval(msec)	1000
# of Points	240
Start Time(min)	0.001
End Time(min)	3.984
Intensity Units	
Intensity Multiplier	1
R.Time (min)	Intensity
0.00097	34.50
0.01763	33.75
0.03430	34.53
0.05097	34.55
0.06763	34.51
0.08430	34.51
0.10097	34.52
0.11763	34.52
0.13430	34.52
0.15097	34.52
0.16763	34.52
0.18430	34.52
0.20097	34.52
0.21763	34.52
0.23430	34.52
0.25097	34.52
0.26763	34.52
0.28430	34.52
0.30097	34.52
0.31763	34.52
0.33430	34.52
0.35097	34.52
0.36763	34.52
0.38430	34.52
0.40097	34.52
0.41763	34.52
0.43430	34.52
0.45097	34.52
0.46763	34.52
0.48430	34.52
0.50097	34.52
0.51763	34.52
0.53430	34.52
0.55097	34.52
0.56763	34.52
0.58430	34.52
0.60097	34.52
0.61763	34.52
0.63430	34.52
0.65097	34.52
0.66763	34.52
0.68430	34.52
0.70097	34.52
0.71763	34.52
0.73430	34.52
0.75097	34.52
0.76763	34.52
0.78430	34.52
0.80097	34.52
0.81763	34.52
0.83430	34.52
0.85097	34.52
0.86763	34.52
0.88430	34.52
0.90097	34.52
0.91763	34.52
0.93430	34.52
0.95097	34.52
0.96763	34.52
0.98430	34.52
1.00097	34.52
1.01763	34.52
1.03430	34.52
1.05097	34.52
1.06763	34.52
1.08430	34.52
1.10097	34.52
1.11763	34.52
1.13430	34.52
1.15097	34.52
1.16763	34.52
1.18430	34.52
1.20097	34.52
1.21763	34.52
1.23430	34.52
1.25097	34.52
1.26763	34.52
1.28430	34.52
1.30097	34.52
1.31763	34.52
1.33430	34.52
1.35097	34.51
1.36763	34.52
1.38430	34.52
1.40097	34.52
1.41763	34.52
1.43430	34.52
1.45097	34.52
1.46763	34.52
1.48430	34.52
1.50097	34.52
1.51763	34.52
1.53430	34.52
1.55097	34.52
1.56763	34.51
1.58430	34.52
1.60097	34.51
1.61763	34.52
1.63430	34.52
1.65097	34.52
1.66763	34.51
1.68430	34.53
1.70097	34.52
1.71763	34.51
1.73430	34.52
1.75097	34.52
1.76763	34.52
1.78430	34.52
1.80097	34.52
1.81763	34.53
1.83430	34.51
1.85097	34.51
1.86763	34.54
1.88430	34.52
1.90097	34.53
1.91763	34.51
1.93430	34.52
1.95097	34.53
1.96763	34.51
1.98430	34.53
2.00097	34.52
2.01763	34.52
2.03430	34.52
2.05097	34.53
2.06763	34.52
2.08430	34.51
2.10097	34.51
2.11763	34.53
2.13430	34.52
2.15097	34.52
2.16763	34.52
2.18430	34.51
2.20097	34.52
2.21763	34.52
2.23430	34.52
2.25097	34.52
2.26763	34.52
2.28430	34.52
2.30097	34.52
2.31763	34.52
2.33430	34.52
2.35097	34.52
2.36763	34.52
2.38430	34.52
2.40097	34.52
2.41763	34.52
2.43430	34.52
2.45097	34.52
2.46763	34.52
2.48430	34.52
2.50097	34.52
2.51763	34.52
2.53430	34.52
2.55097	34.52
2.56763	34.52
2.58430	34.52
2.60097	34.52
2.61763	34.52
2.63430	34.52
2.65097	34.52
2.66763	34.52
2.68430	34.52
2.70097	34.52
2.71763	34.52
2.73430	34.52
2.75097	34.52
2.76763	34.52
2.78430	34.52
2.80097	34.52
2.81763	34.51
2.83430	34.52
2.85097	34.52
2.86763	34.52
2.88430	34.52
2.90097	34.52
2.91763	34.53
2.93430	34.52
2.95097	34.53
2.96763	34.53
2.98430	34.53
3.00097	34.53
3.01763	34.51
3.03430	34.52
3.05097	34.51
3.06763	34.53
3.08430	34.51
3.10097	34.52
3.11763	34.52
3.13430	34.52
3.15097	34.51
3.16763	34.52
3.18430	34.52
3.20097	34.52
3.21763	34.52
3.23430	34.52
3.25097	34.52
3.26763	34.52
3.28430	34.52
3.30097	34.52
3.31763	34.52
3.33430	34.52
3.35097	34.52
3.36763	34.52
3.38430	34.52
3.40097	34.52
3.41763	34.52
3.43430	34.52
3.45097	34.52
3.46763	34.52
3.48430	34.52
3.50097	34.52
3.51763	34.52
3.53430	34.52
3.55097	34.52
3.56763	34.52
3.58430	34.52
3.60097	34.52
3.61763	34.52
3.63430	34.52
3.65097	34.52
3.66763	34.52
3.68430	34.52
3.70097	34.52
3.71763	34.52
3.73430	34.52
3.75097	34.52
3.76763	34.52
3.78430	34.52
3.80097	34.52
3.81763	34.52
3.83430	34.52
3.85097	34.52
3.86763	34.52
3.88430	34.52
3.90097	34.52
3.91763	34.52
3.93430	34.52
3.95097	34.52
3.96763	34.52
3.98430	34.52

[Status Trace (Column Flow)]
Interval(msec)	1000
# of Points	240
Start Time(min)	0.001
End Time(min)	3.984
Intensity Units	
Intensity Multiplier	1
R.Time (min)	Intensity
0.00097	5.56
0.01763	5.41
0.03430	5.34
0.05097	5.61
0.06763	5.79
0.08430	5.61
0.10097	5.56
0.11763	5.56
0.13430	5.57
0.15097	5.57
0.16763	5.57
0.18430	5.56
0.20097	5.56
0.21763	5.56
0.23430	5.56
0.25097	5.56
0.26763	5.56
0.28430	5.56
0.30097	5.56
0.31763	5.56
0.33430	5.56
0.35097	5.56
0.36763	5.56
0.38430	5.56
0.40097	5.56
0.41763	5.56
0.43430	5.56
0.45097	5.56
0.46763	5.56
0.48430	5.56
0.50097	5.56
0.51763	5.56
0.53430	5.56
0.55097	5.56
0.56763	5.56
0.58430	5.56
0.60097	5.56
0.61763	5.56
0.63430	5.56
0.65097	5.56
0.66763	5.56
0.68430	5.56
0.70097	5.56
0.71763	5.56
0.73430	5.56
0.75097	5.56
0.76763	5.56
0.78430	5.56
0.80097	5.56
0.81763	5.56
0.83430	5.56
0.85097	5.56
0.86763	5.56
0.88430	5.56
0.90097	5.56
0.91763	5.56
0.93430	5.56
0.95097	5.56
0.96763	5.56
0.98430	5.56
1.00097	5.56
1.01763	5.56
1.03430	5.56
1.05097	5.56
1.06763	5.56
1.08430	5.56
1.10097	5.56
1.11763	5.56
1.13430	5.56
1.15097	5.56
1.16763	5.56
1.18430	5.56
1.20097	5.56
1.21763	5.56
1.23430	5.56
1.25097	5.56
1.26763	5.56
1.28430	5.56
1.30097	5.56
1.31763	5.56
1.33430	5.56
1.35097	5.56
1.36763	5.56
1.38430	5.56
1.40097	5.56
1.41763	5.56
1.43430	5.56
1.45097	5.56
1.46763	5.56
1.48430	5.56
1.50097	5.56
1.51763	5.56
1.53430	5.56
1.55097	5.56
1.56763	5.56
1.58430	5.56
1.60097	5.56
1.61763	5.56
1.63430	5.56
1.65097	5.55
1.66763	5.54
1.68430	5.53
1.70097	5.52
1.71763	5.51
1.73430	5.50
1.75097	5.48
1.76763	5.48
1.78430	5.46
1.80097	5.45
1.81763	5.44
1.83430	5.43
1.85097	5.42
1.86763	5.41
1.88430	5.40
1.90097	5.39
1.91763	5.38
1.93430	5.37
1.95097	5.36
1.96763	5.35
1.98430	5.35
2.00097	5.34
2.01763	5.33
2.03430	5.32
2.05097	5.31
2.06763	5.30
2.08430	5.29
2.10097	5.28
2.11763	5.27
2.13430	5.26
2.15097	5.25
2.16763	5.24
2.18430	5.23
2.20097	5.22
2.21763	5.21
2.23430	5.20
2.25097	5.19
2.26763	5.18
2.28430	5.17
2.30097	5.16
2.31763	5.15
2.33430	5.15
2.35097	5.14
2.36763	5.13
2.38430	5.13
2.40097	5.13
2.41763	5.13
2.43430	5.13
2.45097	5.13
2.46763	5.13
2.48430	5.13
2.50097	5.13
2.51763	5.12
2.53430	5.12
2.55097	5.12
2.56763	5.12
2.58430	5.12
2.60097	5.12
2.61763	5.12
2.63430	5.12
2.65097	5.12
2.66763	5.12
2.68430	5.12
2.70097	5.12
2.71763	5.12
2.73430	5.12
2.75097	5.12
2.76763	5.12
2.78430	5.12
2.80097	5.12
2.81763	5.12
2.83430	5.12
2.85097	5.12
2.86763	5.12
2.88430	5.12
2.90097	5.12
2.91763	5.12
2.93430	5.12
2.95097	5.12
2.96763	5.12
2.98430	5.12
3.00097	5.12
3.01763	5.12
3.03430	5.12
3.05097	5.12
3.06763	5.12
3.08430	5.12
3.10097	5.12
3.11763	5.12
3.13430	5.12
3.15097	5.12
3.16763	5.12
3.18430	5.12
3.20097	5.12
3.21763	5.12
3.23430	5.12
3.25097	5.11
3.26763	5.11
3.28430	5.11
3.30097	5.11
3.31763	5.11
3.33430	5.11
3.35097	5.11
3.36763	5.11
3.38430	5.12
3.40097	5.12
3.41763	5.12
3.43430	5.11
3.45097	5.11
3.46763	5.11
3.48430	5.11
3.50097	5.11
3.51763	5.11
3.53430	5.12
3.55097	5.12
3.56763	5.12
3.58430	5.11
3.60097	5.11
3.61763	5.11
3.63430	5.11
3.65097	5.11
3.66763	5.11
3.68430	5.11
3.70097	5.11
3.71763	5.11
3.73430	5.11
3.75097	5.12
3.76763	5.12
3.78430	5.12
3.80097	5.12
3.81763	5.12
3.83430	5.12
3.85097	5.12
3.86763	5.11
3.88430	5.12
3.90097	5.12
3.91763	5.12
3.93430	5.12
3.95097	5.12
3.96763	5.12
3.98430	5.12

[Status Trace (Linear Velocity)]
Interval(msec)	1000
# of Points	240
Start Time(min)	0.001
End Time(min)	3.984
Intensity Units	
Intensity Multiplier	1
R.Time (min)	Intensity
0.00097	39.03
0.01763	38.17
0.03430	37.76
0.05097	39.30
0.06763	40.27
0.08430	39.27
0.10097	39.01
0.11763	39.03
0.13430	39.03
0.15097	39.03
0.16763	39.03
0.18430	39.03
0.20097	39.03
0.21763	39.03
0.23430	39.03
0.25097	39.03
0.26763	39.03
0.28430	39.03
0.30097	39.03
0.31763	39.03
0.33430	39.03
0.35097	39.02
0.36763	39.03
0.38430	39.03
0.40097	39.03
0.41763	39.03
0.43430	39.03
0.45097	39.03
0.46763	39.03
0.48430	39.03
0.50097	39.03
0.51763	39.03
0.53430	39.03
0.55097	39.03
0.56763	39.02
0.58430	39.02
0.60097	39.02
0.61763	39.03
0.63430	39.03
0.65097	39.03
0.66763	39.03
0.68430	39.03
0.70097	39.03
0.71763	39.03
0.73430	39.03
0.75097	39.03
0.76763	39.03
0.78430	39.03
0.80097	39.03
0.81763	39.03
0.83430	39.03
0.85097	39.03
0.86763	39.03
0.88430	39.03
0.90097	39.03
0.91763	39.03
0.93430	39.03
0.95097	39.03
0.96763	39.03
0.98430	39.03
1.00097	39.03
1.01763	39.03
1.03430	39.03
1.05097	39.03
1.06763	39.03
1.08430	39.03
1.10097	39.03
1.11763	39.03
1.13430	39.03
1.15097	39.03
1.16763	39.03
1.18430	39.03
1.20097	39.03
1.21763	39.03
1.23430	39.03
1.25097	39.03
1.26763	39.03
1.28430	39.03
1.30097	39.03
1.31763	39.03
1.33430	39.03
1.35097	39.03
1.36763	39.03
1.38430	39.03
1.40097	39.03
1.41763	39.03
1.43430	39.03
1.45097	39.03
1.46763	39.03
1.48430	39.03
1.50097	39.03
1.51763	39.03
1.53430	39.03
1.55097	39.03
1.56763	39.03
1.58430	39.03
1.60097	39.02
1.61763	39.02
1.63430	39.00
1.65097	38.98
1.66763	38.95
1.68430	38.92
1.70097	38.88
1.71763	38.85
1.73430	38.82
1.75097	38.78
1.76763	38.76
1.78430	38.72
1.80097	38.69
1.81763	38.66
1.83430	38.63
1.85097	38.60
1.86763	38.57
1.88430	38.54
1.90097	38.50
1.91763	38.48
1.93430	38.45
1.95097	38.41
1.96763	38.39
1.98430	38.36
2.00097	38.32
2.01763	38.30
2.03430	38.27
2.05097	38.23
2.06763	38.21
2.08430	38.18
2.10097	38.14
2.11763	38.12
2.13430	38.09
2.15097	38.06
2.16763	38.03
2.18430	38.00
2.20097	37.97
2.21763	37.94
2.23430	37.91
2.25097	37.88
2.26763	37.85
2.28430	37.82
2.30097	37.79
2.31763	37.76
2.33430	37.73
2.35097	37.70
2.36763	37.68
2.38430	37.67
2.40097	37.67
2.41763	37.67
2.43430	37.67
2.45097	37.67
2.46763	37.67
2.48430	37.67
2.50097	37.67
2.51763	37.66
2.53430	37.66
2.55097	37.67
2.56763	37.67
2.58430	37.66
2.60097	37.66
2.61763	37.66
2.63430	37.66
2.65097	37.66
2.66763	37.66
2.68430	37.66
2.70097	37.66
2.71763	37.65
2.73430	37.65
2.75097	37.66
2.76763	37.66
2.78430	37.65
2.80097	37.65
2.81763	37.65
2.83430	37.65
2.85097	37.65
2.86763	37.65
2.88430	37.65
2.90097	37.65
2.91763	37.65
2.93430	37.65
2.95097	37.65
2.96763	37.65
2.98430	37.65
3.00097	37.64
3.01763	37.64
3.03430	37.64
3.05097	37.64
3.06763	37.64
3.08430	37.64
3.10097	37.64
3.11763	37.64
3.13430	37.64
3.15097	37.64
3.16763	37.64
3.18430	37.64
3.20097	37.64
3.21763	37.64
3.23430	37.64
3.25097	37.63
3.26763	37.63
3.28430	37.63
3.30097	37.63
3.31763	37.63
3.33430	37.63
3.35097	37.64
3.36763	37.64
3.38430	37.64
3.40097	37.64
3.41763	37.64
3.43430	37.63
3.45097	37.63
3.46763	37.63
3.48430	37.64
3.50097	37.64
3.51763	37.64
3.53430	37.64
3.55097	37.64
3.56763	37.64
3.58430	37.64
3.60097	37.63
3.61763	37.63
3.63430	37.63
3.65097	37.63
3.66763	37.63
3.68430	37.63
3.70097	37.63
3.71763	37.63
3.73430	37.63
3.75097	37.64
3.76763	37.64
3.78430	37.64
3.80097	37.64
3.81763	37.64
3.83430	37.64
3.85097	37.64
3.86763	37.63
3.88430	37.63
3.90097	37.64
3.91763	37.64
3.93430	37.64
3.95097	37.64
3.96763	37.64
3.98430	37.64

