[Header]
Application Name	LabSolutions
Version	5.110
Data File Name	C:\Users\User\Desktop\GC Analyses\Jack\UIC Prairie Sampling\9.30.22\220930_049.gcd
Output Date	1/4/2023
Output Time	2:27:57 PM

[File Information]
Type	Data File
Generated	11/30/2022 1:05:02 PM
Generated by	System Administrator
Modified	11/30/2022 1:10:05 PM
Modified by	System Administrator

[Sample Information]
Operator Name	System Administrator
Acquired	11/30/2022 1:06:05 PM
Sample Type	1:Standard
Level	1
Sample Name	220930_UICPrairie
Sample ID	220930_UICPrairie
ISTD Amount1	1
ISTD Amount2	1
ISTD Amount3	1
ISTD Amount4	1
ISTD Amount5	1
ISTD Amount6	1
ISTD Amount7	1
ISTD Amount8	1
ISTD Amount9	1
ISTD Amount10	1
ISTD Amount11	1
ISTD Amount12	1
ISTD Amount13	1
ISTD Amount14	1
ISTD Amount15	1
ISTD Amount16	1
ISTD Amount17	1
ISTD Amount18	1
ISTD Amount19	1
ISTD Amount20	1
ISTD Amount21	1
ISTD Amount22	1
ISTD Amount23	1
ISTD Amount24	1
ISTD Amount25	1
ISTD Amount26	1
ISTD Amount27	1
ISTD Amount28	1
ISTD Amount29	1
ISTD Amount30	1
ISTD Amount31	1
ISTD Amount32	1
Sample Amount	1
Dilution Factor	1
Vial#	1
Injection Volume	1
Injection Count	1
Bar Code	

[Original Files]
Data File	C:\Users\User\Desktop\GC Analyses\Jack\UIC Prairie Sampling\9.30.22\220930_049.gcd
Method File	C:\LabSolutions\Data\GHG_4min_2022\ghg3_togas_w_acet_4 min_new_int.gcm
Batch File	
Report Format File	c:\LabSolutions\System\DEFAULT.lsr

[File Description]


[Configuration]
Instrument Name	C0B7VH3-Instrument1
Instrument #	1
Line #	1
# of Detectors	3
Detector ID	DET#1	DET#2	DET#3
Detector Name	FID	PTCD	ECD
# of Channels	1	1	1

[Peak Table(Ch1)]
# of Peaks	3
Peak#	R.Time	I.Time	F.Time	Area	Height	A/H	Conc.	Mark	ID#	Name	k'	Plate #	Plate Ht.	Tailing	Resolution	Sep.Factor	Area Ratio	Height Ratio	Conc. %	Norm Conc.
1	1.479	1.428	1.538	11732	5123	2.290	100.000	   	1	CO	0.000	8104	18.510	1.202	0.000	0.000	0	0	16.667	16.667
2	1.571	1.538	1.630	4613	2285	2.019	100.000	 V 	2	CH4	0.062	11117	13.493	0.000	1.463	0.000	0	0	16.667	16.667
3	2.000	1.949	2.524	1734397	824077	2.105	400.000	   	3	CO2	0.352	17495	8.574	1.200	7.145	5.680	0	0	66.667	66.667

[Peak Table(Ch2)]
# of Peaks	0

[Peak Table(Ch3)]
# of Peaks	5
Peak#	R.Time	I.Time	F.Time	Area	Height	A/H	Conc.	Mark	ID#	Name	k'	Plate #	Plate Ht.	Tailing	Resolution	Sep.Factor	Area Ratio	Height Ratio	Conc. %	Norm Conc.
1	1.300	1.091	1.542	310	20	15.665	0.000	   			0.000	483	310.259	1.083	0.000	0.000	0	0	0.000	0.000
2	2.510	2.433	2.517	1081	365	2.958	0.000	   			0.931	313	479.004	0.000	3.011	0.000	0	0	0.000	0.000
3	2.579	2.517	2.660	2790	461	6.052	0.000	 V 			0.985	1627	92.194	0.000	0.169	1.058	0	0	0.000	0.000
4	2.759	2.660	2.799	1591	256	6.213	0.054	 V 	1	N2O	1.123	372	403.240	0.000	0.434	1.140	0	0	5.387	5.387
5	2.887	2.799	3.617	27939	5453	5.124	0.946	 V 	1	N2O	1.222	12565	11.938	2.410	0.380	1.088	0	0	94.613	94.613

[Compound Results(Ch1)]
# of IDs	6
ID#	Name	R.Time	Area	Height	Conc.	Curve	3rd	2nd	1st	Constant	Area Ratio	Height Ratio	Conc. %	Norm Conc.
1	CO	1.479	11732	5123	100.000	Linear	0.000000e+00	0.000000e+00	1.173201e+002	0.000000e+00	0	0	16.667	16.667
2	CH4	1.571	4613	2285	100.000	Linear	0.000000e+00	0.000000e+00	4.613191e+001	0.000000e+00	0	0	16.667	16.667
3	CO2	2.000	1734397	824077	400.000	Linear	0.000000e+00	0.000000e+00	4.335992e+003	0.000000e+00	0	0	66.667	66.667
4	Ethylene	0.000	0	0	0.000	Linear	0.000000e+00	0.000000e+00	0.000000e+00	0.000000e+00	0	0	0.000	0.000
5	Acetylene	0.000	0	0	0.000	Linear	0.000000e+00	0.000000e+00	0.000000e+00	0.000000e+00	0	0	0.000	0.000
6	Ethane	0.000	0	0	0.000	Linear	0.000000e+00	0.000000e+00	0.000000e+00	0.000000e+00	0	0	0.000	0.000

[Compound Results(Ch2)]
# of IDs	5
ID#	Name	R.Time	Area	Height	Conc.	Curve	3rd	2nd	1st	Constant	Area Ratio	Height Ratio	Conc. %	Norm Conc.
1	Hydrogen	0.000	0	0	0.000	Linear	0.000000e+00	0.000000e+00	0.000000e+00	0.000000e+00	0	0	0.000	0.000
2	Oxygen	0.000	0	0	0.000	Linear	0.000000e+00	0.000000e+00	0.000000e+00	0.000000e+00	0	0	0.000	0.000
3	Nitrogen	0.000	0	0	0.000	Linear	0.000000e+00	0.000000e+00	0.000000e+00	0.000000e+00	0	0	0.000	0.000
4	Methane	0.000	0	0	0.000	Linear	0.000000e+00	0.000000e+00	0.000000e+00	0.000000e+00	0	0	0.000	0.000
5	Carbon Monoxide	0.000	0	0	0.000	Linear	0.000000e+00	0.000000e+00	0.000000e+00	0.000000e+00	0	0	0.000	0.000

[Compound Results(Ch3)]
# of IDs	2
ID#	Name	R.Time	Area	Height	Conc.	Curve	3rd	2nd	1st	Constant	Area Ratio	Height Ratio	Conc. %	Norm Conc.
1	N2O	2.887	29530	5709	1.000	Linear	0.000000e+00	0.000000e+00	2.952971e+004	0.000000e+00	0	0	100.000	100.000
2	SF6	0.000	0	0	0.000	Linear	0.000000e+00	0.000000e+00	0.000000e+00	0.000000e+00	0	0	0.000	0.000

[Group Results(Ch1)]
# of Groups	0

[Group Results(Ch2)]
# of Groups	0

[Group Results(Ch3)]
# of Groups	0

[Chromatogram (Ch1)]
Interval(msec)	220
# of Points	1091
Start Time(min)	0.002
End Time(min)	3.998
R.Time (min)	Intensity
0.00167	-20
0.00533	-21
0.00900	-22
0.01267	-23
0.01633	-22
0.02000	-23
0.02367	-25
0.02733	-30
0.03100	-38
0.03467	-42
0.03833	-40
0.04200	-35
0.04567	-31
0.04933	-29
0.05300	-29
0.05667	-30
0.06033	-31
0.06400	-30
0.06767	-30
0.07133	-26
0.07500	-18
0.07867	-13
0.08233	-10
0.08600	-9
0.08967	-10
0.09333	-15
0.09700	-20
0.10067	-20
0.10433	-19
0.10800	-17
0.11167	-18
0.11533	-20
0.11900	-21
0.12267	-22
0.12633	-24
0.13000	-28
0.13367	-32
0.13733	-35
0.14100	-32
0.14467	-26
0.14833	-22
0.15200	-22
0.15567	-24
0.15933	-28
0.16300	-33
0.16667	-38
0.17033	-43
0.17400	-46
0.17767	-45
0.18133	-45
0.18500	-46
0.18867	-46
0.19233	-44
0.19600	-36
0.19967	-26
0.20333	-20
0.20700	-21
0.21067	-26
0.21433	-32
0.21800	-34
0.22167	-33
0.22533	-34
0.22900	-36
0.23267	-36
0.23633	-34
0.24000	-28
0.24367	-21
0.24733	-18
0.25100	-22
0.25467	-30
0.25833	-37
0.26200	-43
0.26567	-46
0.26933	-45
0.27300	-41
0.27667	-37
0.28033	-37
0.28400	-37
0.28767	-35
0.29133	-34
0.29500	-33
0.29867	-30
0.30233	-30
0.30600	-30
0.30967	-28
0.31333	-26
0.31700	-25
0.32067	-29
0.32433	-33
0.32800	-34
0.33167	-34
0.33533	-36
0.33900	-40
0.34267	-45
0.34633	-46
0.35000	-46
0.35367	-47
0.35733	-45
0.36100	-43
0.36467	-41
0.36833	-35
0.37200	-29
0.37567	-27
0.37933	-27
0.38300	-26
0.38667	-20
0.39033	-14
0.39400	-14
0.39767	-16
0.40133	-25
0.40500	-36
0.40867	-46
0.41233	-55
0.41600	-57
0.41967	-56
0.42333	-54
0.42700	-51
0.43067	-50
0.43433	-49
0.43800	-50
0.44167	-50
0.44533	-48
0.44900	-48
0.45267	-50
0.45633	-51
0.46000	-53
0.46367	-59
0.46733	-63
0.47100	-65
0.47467	-65
0.47833	-65
0.48200	-66
0.48567	-66
0.48933	-63
0.49300	-61
0.49667	-60
0.50033	-58
0.50400	-53
0.50767	-49
0.51133	-45
0.51500	-42
0.51867	-41
0.52233	-41
0.52600	-41
0.52967	-43
0.53333	-48
0.53700	-54
0.54067	-62
0.54433	-66
0.54800	-67
0.55167	-66
0.55533	-60
0.55900	-53
0.56267	-49
0.56633	-48
0.57000	-53
0.57367	-58
0.57733	-60
0.58100	-59
0.58467	-59
0.58833	-61
0.59200	-60
0.59567	-53
0.59933	-47
0.60300	-47
0.60667	-51
0.61033	-54
0.61400	-56
0.61767	-58
0.62133	-61
0.62500	-65
0.62867	-70
0.63233	-73
0.63600	-74
0.63967	-72
0.64333	-67
0.64700	-61
0.65067	-55
0.65433	-50
0.65800	-48
0.66167	-48
0.66533	-50
0.66900	-51
0.67267	-53
0.67633	-54
0.68000	-54
0.68367	-56
0.68733	-60
0.69100	-64
0.69467	-64
0.69833	-64
0.70200	-65
0.70567	-68
0.70933	-70
0.71300	-69
0.71667	-67
0.72033	-64
0.72400	-61
0.72767	-61
0.73133	-64
0.73500	-65
0.73867	-62
0.74233	-58
0.74600	-56
0.74967	-55
0.75333	-55
0.75700	-56
0.76067	-59
0.76433	-63
0.76800	-70
0.77167	-79
0.77533	-84
0.77900	-83
0.78267	-83
0.78633	-82
0.79000	-80
0.79367	-79
0.79733	-77
0.80100	-72
0.80467	-69
0.80833	-66
0.81200	-64
0.81567	-60
0.81933	-57
0.82300	-57
0.82667	-60
0.83033	-65
0.83400	-72
0.83767	-83
0.84133	-91
0.84500	-96
0.84867	-101
0.85233	-103
0.85600	-100
0.85967	-94
0.86333	-86
0.86700	-76
0.87067	-66
0.87433	-64
0.87800	-69
0.88167	-76
0.88533	-80
0.88900	-83
0.89267	-83
0.89633	-84
0.90000	-84
0.90367	-84
0.90733	-85
0.91100	-86
0.91467	-84
0.91833	-78
0.92200	-69
0.92567	-61
0.92933	-53
0.93300	-49
0.93667	-51
0.94033	-61
0.94400	-72
0.94767	-80
0.95133	-86
0.95500	-92
0.95867	-96
0.96233	-97
0.96600	-96
0.96967	-94
0.97333	-92
0.97700	-89
0.98067	-86
0.98433	-84
0.98800	-81
0.99167	-80
0.99533	-83
0.99900	-86
1.00267	-85
1.00633	-86
1.01000	-90
1.01367	-97
1.01733	-102
1.02100	-104
1.02467	-101
1.02833	-97
1.03200	-97
1.03567	-100
1.03933	-104
1.04300	-102
1.04667	-98
1.05033	-95
1.05400	-95
1.05767	-95
1.06133	-95
1.06500	-95
1.06867	-95
1.07233	-98
1.07600	-102
1.07967	-106
1.08333	-109
1.08700	-108
1.09067	-106
1.09433	-103
1.09800	-98
1.10167	-96
1.10533	-94
1.10900	-96
1.11267	-103
1.11633	-108
1.12000	-108
1.12367	-102
1.12733	-94
1.13100	-89
1.13467	-88
1.13833	-92
1.14200	-96
1.14567	-100
1.14933	-101
1.15300	-100
1.15667	-101
1.16033	-102
1.16400	-104
1.16767	-105
1.17133	-107
1.17500	-108
1.17867	-108
1.18233	-108
1.18600	-106
1.18967	-104
1.19333	-101
1.19700	-99
1.20067	-101
1.20433	-102
1.20800	-106
1.21167	-112
1.21533	-115
1.21900	-114
1.22267	-110
1.22633	-107
1.23000	-107
1.23367	-107
1.23733	-107
1.24100	-104
1.24467	-98
1.24833	-92
1.25200	-88
1.25567	-89
1.25933	-91
1.26300	-97
1.26667	-103
1.27033	-108
1.27400	-113
1.27767	-119
1.28133	-125
1.28500	-126
1.28867	-126
1.29233	-124
1.29600	-122
1.29967	-118
1.30333	-117
1.30700	-118
1.31067	-118
1.31433	-117
1.31800	-115
1.32167	-111
1.32533	-103
1.32900	-97
1.33267	-92
1.33633	-89
1.34000	-89
1.34367	-90
1.34733	-91
1.35100	-91
1.35467	-96
1.35833	-104
1.36200	-112
1.36567	-122
1.36933	-130
1.37300	-137
1.37667	-141
1.38033	-142
1.38400	-141
1.38767	-138
1.39133	-131
1.39500	-124
1.39867	-122
1.40233	-126
1.40600	-131
1.40967	-133
1.41333	-132
1.41700	-135
1.42067	-138
1.42433	-137
1.42800	-132
1.43167	-126
1.43533	-121
1.43900	-109
1.44267	-46
1.44633	123
1.45000	422
1.45367	915
1.45733	1656
1.46100	2554
1.46467	3438
1.46833	4173
1.47200	4700
1.47567	4987
1.47933	4996
1.48300	4705
1.48667	4153
1.49033	3448
1.49400	2718
1.49767	2061
1.50133	1518
1.50500	1095
1.50867	778
1.51233	546
1.51600	377
1.51967	256
1.52333	172
1.52700	111
1.53067	65
1.53433	32
1.53800	18
1.54167	45
1.54533	165
1.54900	428
1.55267	817
1.55633	1247
1.56000	1637
1.56367	1938
1.56733	2124
1.57100	2167
1.57467	2042
1.57833	1764
1.58200	1397
1.58567	1024
1.58933	706
1.59300	461
1.59667	282
1.60033	156
1.60400	71
1.60767	12
1.61133	-29
1.61500	-58
1.61867	-77
1.62233	-92
1.62600	-104
1.62967	-111
1.63333	-112
1.63700	-109
1.64067	-105
1.64433	-103
1.64800	-104
1.65167	-110
1.65533	-121
1.65900	-131
1.66267	-137
1.66633	-140
1.67000	-138
1.67367	-134
1.67733	-131
1.68100	-130
1.68467	-130
1.68833	-133
1.69200	-135
1.69567	-133
1.69933	-132
1.70300	-132
1.70667	-133
1.71033	-136
1.71400	-138
1.71767	-137
1.72133	-132
1.72500	-129
1.72867	-134
1.73233	-143
1.73600	-155
1.73967	-163
1.74333	-165
1.74700	-165
1.75067	-165
1.75433	-163
1.75800	-158
1.76167	-148
1.76533	-136
1.76900	-124
1.77267	-118
1.77633	-119
1.78000	-122
1.78367	-128
1.78733	-134
1.79100	-139
1.79467	-138
1.79833	-135
1.80200	-131
1.80567	-127
1.80933	-129
1.81300	-134
1.81667	-139
1.82033	-143
1.82400	-146
1.82767	-147
1.83133	-145
1.83500	-138
1.83867	-130
1.84233	-124
1.84600	-118
1.84967	-117
1.85333	-119
1.85700	-121
1.86067	-125
1.86433	-126
1.86800	-125
1.87167	-122
1.87533	-118
1.87900	-121
1.88267	-128
1.88633	-138
1.89000	-146
1.89367	-149
1.89733	-146
1.90100	-139
1.90467	-128
1.90833	-116
1.91200	-108
1.91567	-109
1.91933	-115
1.92300	-119
1.92667	-119
1.93033	-115
1.93400	-113
1.93767	-112
1.94133	-113
1.94500	-113
1.94867	-108
1.95233	-97
1.95600	-32
1.95967	384
1.96333	2487
1.96700	10609
1.97067	34547
1.97433	89052
1.97800	185802
1.98167	322142
1.98533	478733
1.98900	628335
1.99267	745882
1.99633	813982
2.00000	824004
2.00367	776925
2.00733	684505
2.01100	566358
2.01467	443495
2.01833	332017
2.02200	240346
2.02567	170146
2.02933	119038
2.03300	83095
2.03667	58371
2.04033	41577
2.04400	30221
2.04767	22524
2.05133	17264
2.05500	13618
2.05867	11042
2.06233	9184
2.06600	7816
2.06967	6784
2.07333	5981
2.07700	5341
2.08067	4821
2.08433	4391
2.08800	4031
2.09167	3725
2.09533	3458
2.09900	3224
2.10267	3021
2.10633	2844
2.11000	2687
2.11367	2546
2.11733	2417
2.12100	2299
2.12467	2189
2.12833	2084
2.13200	1988
2.13567	1902
2.13933	1821
2.14300	1745
2.14667	1676
2.15033	1617
2.15400	1564
2.15767	1516
2.16133	1470
2.16500	1424
2.16867	1374
2.17233	1327
2.17600	1285
2.17967	1244
2.18333	1204
2.18700	1162
2.19067	1120
2.19433	1083
2.19800	1051
2.20167	1025
2.20533	1004
2.20900	981
2.21267	958
2.21633	936
2.22000	914
2.22367	891
2.22733	869
2.23100	844
2.23467	817
2.23833	791
2.24200	768
2.24567	754
2.24933	745
2.25300	733
2.25667	717
2.26033	702
2.26400	689
2.26767	674
2.27133	661
2.27500	650
2.27867	642
2.28233	635
2.28600	627
2.28967	618
2.29333	605
2.29700	590
2.30067	573
2.30433	558
2.30800	546
2.31167	537
2.31533	527
2.31900	517
2.32267	508
2.32633	499
2.33000	492
2.33367	483
2.33733	474
2.34100	468
2.34467	461
2.34833	454
2.35200	452
2.35567	451
2.35933	453
2.36300	454
2.36667	452
2.37033	448
2.37400	437
2.37767	425
2.38133	418
2.38500	415
2.38867	413
2.39233	410
2.39600	405
2.39967	396
2.40333	386
2.40700	377
2.41067	369
2.41433	362
2.41800	359
2.42167	361
2.42533	369
2.42900	375
2.43267	377
2.43633	374
2.44000	368
2.44367	360
2.44733	354
2.45100	351
2.45467	347
2.45833	340
2.46200	333
2.46567	329
2.46933	325
2.47300	318
2.47667	311
2.48033	305
2.48400	301
2.48767	297
2.49133	293
2.49500	291
2.49867	291
2.50233	292
2.50600	292
2.50967	292
2.51333	289
2.51700	288
2.52067	287
2.52433	289
2.52800	293
2.53167	296
2.53533	295
2.53900	290
2.54267	282
2.54633	275
2.55000	270
2.55367	267
2.55733	263
2.56100	257
2.56467	250
2.56833	244
2.57200	241
2.57567	241
2.57933	239
2.58300	236
2.58667	234
2.59033	233
2.59400	231
2.59767	231
2.60133	233
2.60500	231
2.60867	222
2.61233	206
2.61600	192
2.61967	183
2.62333	180
2.62700	183
2.63067	187
2.63433	193
2.63800	200
2.64167	207
2.64533	212
2.64900	215
2.65267	212
2.65633	209
2.66000	206
2.66367	202
2.66733	196
2.67100	190
2.67467	184
2.67833	179
2.68200	177
2.68567	174
2.68933	176
2.69300	180
2.69667	183
2.70033	184
2.70400	182
2.70767	179
2.71133	176
2.71500	174
2.71867	171
2.72233	166
2.72600	158
2.72967	153
2.73333	152
2.73700	155
2.74067	151
2.74433	161
2.74800	177
2.75167	181
2.75533	176
2.75900	169
2.76267	164
2.76633	162
2.77000	160
2.77367	158
2.77733	155
2.78100	152
2.78467	148
2.78833	147
2.79200	148
2.79567	150
2.79933	154
2.80300	155
2.80667	153
2.81033	150
2.81400	146
2.81767	141
2.82133	138
2.82500	138
2.82867	141
2.83233	142
2.83600	142
2.83967	144
2.84333	149
2.84700	152
2.85067	151
2.85433	149
2.85800	144
2.86167	138
2.86533	132
2.86900	125
2.87267	117
2.87633	112
2.88000	112
2.88367	116
2.88733	122
2.89100	130
2.89467	134
2.89833	133
2.90200	129
2.90567	124
2.90933	122
2.91300	123
2.91667	124
2.92033	122
2.92400	121
2.92767	119
2.93133	116
2.93500	114
2.93867	115
2.94233	117
2.94600	116
2.94967	117
2.95333	121
2.95700	126
2.96067	127
2.96433	123
2.96800	117
2.97167	112
2.97533	106
2.97900	102
2.98267	101
2.98633	107
2.99000	119
2.99367	128
2.99733	129
3.00100	125
3.00467	121
3.00833	118
3.01200	119
3.01567	120
3.01933	120
3.02300	120
3.02667	117
3.03033	117
3.03400	119
3.03767	121
3.04133	122
3.04500	118
3.04867	115
3.05233	112
3.05600	111
3.05967	109
3.06333	106
3.06700	102
3.07067	96
3.07433	87
3.07800	80
3.08167	78
3.08533	79
3.08900	81
3.09267	84
3.09633	89
3.10000	93
3.10367	94
3.10733	95
3.11100	95
3.11467	94
3.11833	92
3.12200	88
3.12567	84
3.12933	76
3.13300	68
3.13667	65
3.14033	66
3.14400	67
3.14767	67
3.15133	67
3.15500	67
3.15867	72
3.16233	83
3.16600	93
3.16967	94
3.17333	88
3.17700	80
3.18067	74
3.18433	72
3.18800	71
3.19167	71
3.19533	70
3.19900	68
3.20267	69
3.20633	71
3.21000	73
3.21367	77
3.21733	78
3.22100	74
3.22467	68
3.22833	62
3.23200	57
3.23567	56
3.23933	60
3.24300	64
3.24667	66
3.25033	70
3.25400	72
3.25767	73
3.26133	70
3.26500	63
3.26867	57
3.27233	56
3.27600	59
3.27967	64
3.28333	67
3.28700	69
3.29067	70
3.29433	69
3.29800	68
3.30167	66
3.30533	65
3.30900	66
3.31267	68
3.31633	71
3.32000	72
3.32367	72
3.32733	75
3.33100	79
3.33467	83
3.33833	85
3.34200	86
3.34567	85
3.34933	85
3.35300	80
3.35667	75
3.36033	74
3.36400	77
3.36767	78
3.37133	74
3.37500	67
3.37867	59
3.38233	51
3.38600	44
3.38967	41
3.39333	39
3.39700	37
3.40067	37
3.40433	37
3.40800	39
3.41167	41
3.41533	44
3.41900	49
3.42267	55
3.42633	60
3.43000	62
3.43367	63
3.43733	59
3.44100	54
3.44467	51
3.44833	49
3.45200	49
3.45567	50
3.45933	49
3.46300	50
3.46667	54
3.47033	57
3.47400	59
3.47767	59
3.48133	57
3.48500	57
3.48867	56
3.49233	57
3.49600	57
3.49967	54
3.50333	49
3.50700	43
3.51067	38
3.51433	34
3.51800	30
3.52167	25
3.52533	22
3.52900	25
3.53267	30
3.53633	37
3.54000	41
3.54367	40
3.54733	37
3.55100	34
3.55467	34
3.55833	37
3.56200	36
3.56567	31
3.56933	25
3.57300	25
3.57667	29
3.58033	36
3.58400	40
3.58767	36
3.59133	30
3.59500	24
3.59867	24
3.60233	28
3.60600	29
3.60967	27
3.61333	25
3.61700	21
3.62067	20
3.62433	19
3.62800	16
3.63167	16
3.63533	16
3.63900	17
3.64267	18
3.64633	20
3.65000	25
3.65367	31
3.65733	35
3.66100	38
3.66467	40
3.66833	41
3.67200	41
3.67567	41
3.67933	38
3.68300	29
3.68667	21
3.69033	12
3.69400	5
3.69767	1
3.70133	-0
3.70500	3
3.70867	12
3.71233	23
3.71600	31
3.71967	31
3.72333	26
3.72700	20
3.73067	14
3.73433	12
3.73800	12
3.74167	10
3.74533	8
3.74900	5
3.75267	1
3.75633	1
3.76000	-0
3.76367	-3
3.76733	-5
3.77100	-4
3.77467	1
3.77833	9
3.78200	10
3.78567	8
3.78933	8
3.79300	13
3.79667	17
3.80033	16
3.80400	13
3.80767	15
3.81133	21
3.81500	26
3.81867	24
3.82233	19
3.82600	16
3.82967	15
3.83333	16
3.83700	16
3.84067	15
3.84433	17
3.84800	22
3.85167	27
3.85533	32
3.85900	33
3.86267	28
3.86633	21
3.87000	16
3.87367	13
3.87733	11
3.88100	12
3.88467	14
3.88833	16
3.89200	18
3.89567	19
3.89933	17
3.90300	10
3.90667	5
3.91033	1
3.91400	-0
3.91767	-0
3.92133	-1
3.92500	-1
3.92867	4
3.93233	13
3.93600	23
3.93967	30
3.94333	29
3.94700	24
3.95067	16
3.95433	8
3.95800	4
3.96167	0
3.96533	-1
3.96900	1
3.97267	5
3.97633	9
3.98000	14
3.98367	17
3.98733	22
3.99100	26
3.99467	28
3.99833	30

[Chromatogram (Ch2)]
Interval(msec)	220
# of Points	1091
Start Time(min)	0.002
End Time(min)	3.998
R.Time (min)	Intensity
0.00167	-1
0.00533	-1
0.00900	-0
0.01267	-0
0.01633	-0
0.02000	-0
0.02367	-0
0.02733	0
0.03100	0
0.03467	0
0.03833	0
0.04200	0
0.04567	0
0.04933	0
0.05300	0
0.05667	0
0.06033	0
0.06400	0
0.06767	0
0.07133	0
0.07500	0
0.07867	0
0.08233	1
0.08600	1
0.08967	1
0.09333	1
0.09700	1
0.10067	1
0.10433	1
0.10800	1
0.11167	1
0.11533	2
0.11900	2
0.12267	2
0.12633	2
0.13000	2
0.13367	2
0.13733	2
0.14100	2
0.14467	1
0.14833	1
0.15200	0
0.15567	0
0.15933	0
0.16300	0
0.16667	0
0.17033	0
0.17400	0
0.17767	0
0.18133	1
0.18500	1
0.18867	1
0.19233	1
0.19600	1
0.19967	1
0.20333	1
0.20700	1
0.21067	1
0.21433	1
0.21800	0
0.22167	0
0.22533	-0
0.22900	-0
0.23267	-0
0.23633	-0
0.24000	-0
0.24367	0
0.24733	0
0.25100	1
0.25467	1
0.25833	1
0.26200	1
0.26567	1
0.26933	1
0.27300	1
0.27667	1
0.28033	1
0.28400	1
0.28767	1
0.29133	1
0.29500	1
0.29867	1
0.30233	1
0.30600	1
0.30967	1
0.31333	1
0.31700	1
0.32067	1
0.32433	1
0.32800	1
0.33167	1
0.33533	1
0.33900	0
0.34267	0
0.34633	0
0.35000	0
0.35367	0
0.35733	-0
0.36100	-0
0.36467	-0
0.36833	-0
0.37200	-0
0.37567	-0
0.37933	0
0.38300	0
0.38667	0
0.39033	-0
0.39400	-0
0.39767	-0
0.40133	-0
0.40500	-0
0.40867	-0
0.41233	-0
0.41600	-0
0.41967	-0
0.42333	-0
0.42700	-0
0.43067	-0
0.43433	-0
0.43800	-0
0.44167	-0
0.44533	-0
0.44900	-0
0.45267	0
0.45633	0
0.46000	0
0.46367	0
0.46733	0
0.47100	0
0.47467	0
0.47833	0
0.48200	0
0.48567	0
0.48933	0
0.49300	0
0.49667	1
0.50033	1
0.50400	1
0.50767	0
0.51133	0
0.51500	0
0.51867	0
0.52233	1
0.52600	1
0.52967	1
0.53333	1
0.53700	1
0.54067	1
0.54433	1
0.54800	1
0.55167	1
0.55533	1
0.55900	1
0.56267	0
0.56633	0
0.57000	0
0.57367	0
0.57733	0
0.58100	0
0.58467	-0
0.58833	-0
0.59200	-0
0.59567	-0
0.59933	-1
0.60300	-1
0.60667	-1
0.61033	-1
0.61400	-1
0.61767	-2
0.62133	-2
0.62500	-2
0.62867	-2
0.63233	-2
0.63600	-2
0.63967	-2
0.64333	-2
0.64700	-2
0.65067	-2
0.65433	-2
0.65800	-2
0.66167	-2
0.66533	-2
0.66900	-2
0.67267	-2
0.67633	-2
0.68000	-2
0.68367	-2
0.68733	-2
0.69100	-2
0.69467	-1
0.69833	-1
0.70200	-2
0.70567	-2
0.70933	-1
0.71300	-1
0.71667	-1
0.72033	-1
0.72400	-1
0.72767	-1
0.73133	-1
0.73500	-1
0.73867	-1
0.74233	-1
0.74600	-1
0.74967	-1
0.75333	-1
0.75700	-1
0.76067	-1
0.76433	-1
0.76800	-1
0.77167	-1
0.77533	-0
0.77900	-0
0.78267	-1
0.78633	-1
0.79000	-1
0.79367	-1
0.79733	-1
0.80100	-1
0.80467	-2
0.80833	-2
0.81200	-1
0.81567	-1
0.81933	-1
0.82300	-1
0.82667	-1
0.83033	-1
0.83400	-2
0.83767	-2
0.84133	-1
0.84500	-1
0.84867	-1
0.85233	-1
0.85600	-1
0.85967	-1
0.86333	-2
0.86700	-2
0.87067	-2
0.87433	-2
0.87800	-1
0.88167	-1
0.88533	-1
0.88900	-1
0.89267	-1
0.89633	-1
0.90000	-1
0.90367	-1
0.90733	-1
0.91100	-1
0.91467	-1
0.91833	-1
0.92200	-1
0.92567	-1
0.92933	-1
0.93300	-1
0.93667	-1
0.94033	-1
0.94400	-1
0.94767	-1
0.95133	-0
0.95500	-0
0.95867	-1
0.96233	-1
0.96600	-1
0.96967	-1
0.97333	-1
0.97700	-1
0.98067	-1
0.98433	-1
0.98800	-1
0.99167	-1
0.99533	-1
0.99900	-1
1.00267	-1
1.00633	-1
1.01000	-1
1.01367	-1
1.01733	-1
1.02100	-1
1.02467	-1
1.02833	-1
1.03200	-1
1.03567	-1
1.03933	-2
1.04300	-2
1.04667	-2
1.05033	-2
1.05400	-2
1.05767	-2
1.06133	-2
1.06500	-2
1.06867	-2
1.07233	-2
1.07600	-2
1.07967	-2
1.08333	-2
1.08700	-2
1.09067	-2
1.09433	-2
1.09800	-2
1.10167	-2
1.10533	-2
1.10900	-2
1.11267	-2
1.11633	-2
1.12000	-2
1.12367	-2
1.12733	-2
1.13100	-2
1.13467	-2
1.13833	-2
1.14200	-2
1.14567	-2
1.14933	-2
1.15300	-3
1.15667	-3
1.16033	-3
1.16400	-3
1.16767	-3
1.17133	-3
1.17500	-3
1.17867	-3
1.18233	-3
1.18600	-3
1.18967	-3
1.19333	-2
1.19700	-2
1.20067	-2
1.20433	-2
1.20800	-2
1.21167	-2
1.21533	-1
1.21900	-1
1.22267	-1
1.22633	-1
1.23000	-1
1.23367	-2
1.23733	-2
1.24100	-2
1.24467	-2
1.24833	-2
1.25200	-2
1.25567	-2
1.25933	-2
1.26300	-2
1.26667	-2
1.27033	-2
1.27400	-2
1.27767	-2
1.28133	-2
1.28500	-2
1.28867	-2
1.29233	-2
1.29600	-2
1.29967	-2
1.30333	-2
1.30700	-2
1.31067	-2
1.31433	-2
1.31800	-2
1.32167	-2
1.32533	-2
1.32900	-2
1.33267	-2
1.33633	-2
1.34000	-2
1.34367	-2
1.34733	-2
1.35100	-2
1.35467	-2
1.35833	-2
1.36200	-2
1.36567	-2
1.36933	-2
1.37300	-2
1.37667	-3
1.38033	-3
1.38400	-3
1.38767	-3
1.39133	-4
1.39500	-4
1.39867	-4
1.40233	-4
1.40600	-3
1.40967	-3
1.41333	-2
1.41700	-2
1.42067	-2
1.42433	-3
1.42800	-3
1.43167	-3
1.43533	-3
1.43900	-4
1.44267	-4
1.44633	-4
1.45000	-4
1.45367	-4
1.45733	-4
1.46100	-4
1.46467	-4
1.46833	-4
1.47200	-3
1.47567	-3
1.47933	-3
1.48300	-3
1.48667	-3
1.49033	-3
1.49400	-2
1.49767	-2
1.50133	-2
1.50500	-2
1.50867	-3
1.51233	-3
1.51600	-3
1.51967	-3
1.52333	-3
1.52700	-2
1.53067	-2
1.53433	-2
1.53800	-2
1.54167	-2
1.54533	-3
1.54900	-3
1.55267	-3
1.55633	-3
1.56000	-3
1.56367	-4
1.56733	-4
1.57100	-3
1.57467	-3
1.57833	-3
1.58200	-2
1.58567	-2
1.58933	-2
1.59300	-2
1.59667	-3
1.60033	-3
1.60400	-4
1.60767	-5
1.61133	-7
1.61500	-8
1.61867	-11
1.62233	-13
1.62600	-16
1.62967	-19
1.63333	-22
1.63700	-25
1.64067	-29
1.64433	-33
1.64800	-37
1.65167	-40
1.65533	-44
1.65900	-48
1.66267	-52
1.66633	-57
1.67000	-61
1.67367	-66
1.67733	-71
1.68100	-76
1.68467	-81
1.68833	-85
1.69200	-89
1.69567	-92
1.69933	-95
1.70300	-97
1.70667	-100
1.71033	-102
1.71400	-104
1.71767	-105
1.72133	-107
1.72500	-108
1.72867	-110
1.73233	-111
1.73600	-112
1.73967	-113
1.74333	-113
1.74700	-114
1.75067	-114
1.75433	-113
1.75800	-113
1.76167	-112
1.76533	-112
1.76900	-113
1.77267	-114
1.77633	-115
1.78000	-116
1.78367	-116
1.78733	-117
1.79100	-117
1.79467	-117
1.79833	-117
1.80200	-118
1.80567	-118
1.80933	-119
1.81300	-119
1.81667	-119
1.82033	-119
1.82400	-120
1.82767	-120
1.83133	-120
1.83500	-121
1.83867	-121
1.84233	-121
1.84600	-121
1.84967	-121
1.85333	-120
1.85700	-120
1.86067	-120
1.86433	-121
1.86800	-121
1.87167	-121
1.87533	-121
1.87900	-122
1.88267	-122
1.88633	-122
1.89000	-123
1.89367	-123
1.89733	-122
1.90100	-122
1.90467	-122
1.90833	-121
1.91200	-121
1.91567	-120
1.91933	-119
1.92300	-119
1.92667	-119
1.93033	-118
1.93400	-118
1.93767	-118
1.94133	-118
1.94500	-117
1.94867	-117
1.95233	-117
1.95600	-117
1.95967	-116
1.96333	-116
1.96700	-115
1.97067	-115
1.97433	-115
1.97800	-114
1.98167	-114
1.98533	-114
1.98900	-113
1.99267	-113
1.99633	-113
2.00000	-112
2.00367	-112
2.00733	-112
2.01100	-112
2.01467	-111
2.01833	-111
2.02200	-110
2.02567	-110
2.02933	-110
2.03300	-110
2.03667	-109
2.04033	-109
2.04400	-109
2.04767	-109
2.05133	-109
2.05500	-109
2.05867	-109
2.06233	-108
2.06600	-107
2.06967	-107
2.07333	-106
2.07700	-106
2.08067	-106
2.08433	-106
2.08800	-105
2.09167	-105
2.09533	-105
2.09900	-104
2.10267	-104
2.10633	-103
2.11000	-103
2.11367	-103
2.11733	-103
2.12100	-103
2.12467	-103
2.12833	-103
2.13200	-104
2.13567	-104
2.13933	-103
2.14300	-103
2.14667	-102
2.15033	-101
2.15400	-100
2.15767	-100
2.16133	-99
2.16500	-99
2.16867	-98
2.17233	-97
2.17600	-97
2.17967	-97
2.18333	-96
2.18700	-96
2.19067	-96
2.19433	-96
2.19800	-96
2.20167	-97
2.20533	-98
2.20900	-98
2.21267	-98
2.21633	-98
2.22000	-98
2.22367	-97
2.22733	-97
2.23100	-96
2.23467	-95
2.23833	-94
2.24200	-94
2.24567	-93
2.24933	-92
2.25300	-92
2.25667	-93
2.26033	-94
2.26400	-94
2.26767	-95
2.27133	-95
2.27500	-95
2.27867	-94
2.28233	-93
2.28600	-92
2.28967	-91
2.29333	-89
2.29700	-88
2.30067	-88
2.30433	-87
2.30800	-87
2.31167	-87
2.31533	-86
2.31900	-85
2.32267	-84
2.32633	-83
2.33000	-82
2.33367	-82
2.33733	-82
2.34100	-82
2.34467	-82
2.34833	-82
2.35200	-83
2.35567	-84
2.35933	-84
2.36300	-84
2.36667	-83
2.37033	-82
2.37400	-80
2.37767	-77
2.38133	-74
2.38500	-70
2.38867	-67
2.39233	-62
2.39600	-58
2.39967	-54
2.40333	-49
2.40700	-45
2.41067	-41
2.41433	-37
2.41800	-33
2.42167	-30
2.42533	-27
2.42900	-24
2.43267	-21
2.43633	-18
2.44000	-16
2.44367	-13
2.44733	-11
2.45100	-9
2.45467	-7
2.45833	-5
2.46200	-4
2.46567	-3
2.46933	-2
2.47300	-1
2.47667	0
2.48033	1
2.48400	2
2.48767	3
2.49133	4
2.49500	4
2.49867	5
2.50233	6
2.50600	7
2.50967	8
2.51333	9
2.51700	10
2.52067	11
2.52433	11
2.52800	12
2.53167	12
2.53533	12
2.53900	13
2.54267	13
2.54633	14
2.55000	14
2.55367	15
2.55733	15
2.56100	14
2.56467	14
2.56833	14
2.57200	14
2.57567	14
2.57933	14
2.58300	14
2.58667	15
2.59033	16
2.59400	16
2.59767	17
2.60133	17
2.60500	18
2.60867	18
2.61233	18
2.61600	19
2.61967	19
2.62333	20
2.62700	20
2.63067	20
2.63433	20
2.63800	20
2.64167	20
2.64533	20
2.64900	20
2.65267	20
2.65633	20
2.66000	21
2.66367	21
2.66733	21
2.67100	21
2.67467	21
2.67833	21
2.68200	21
2.68567	21
2.68933	21
2.69300	21
2.69667	21
2.70033	21
2.70400	21
2.70767	22
2.71133	22
2.71500	22
2.71867	22
2.72233	23
2.72600	23
2.72967	23
2.73333	23
2.73700	24
2.74067	24
2.74433	24
2.74800	24
2.75167	25
2.75533	25
2.75900	26
2.76267	26
2.76633	26
2.77000	26
2.77367	25
2.77733	25
2.78100	25
2.78467	24
2.78833	24
2.79200	24
2.79567	24
2.79933	24
2.80300	24
2.80667	24
2.81033	24
2.81400	24
2.81767	24
2.82133	25
2.82500	25
2.82867	25
2.83233	25
2.83600	25
2.83967	26
2.84333	26
2.84700	26
2.85067	26
2.85433	26
2.85800	24
2.86167	21
2.86533	16
2.86900	9
2.87267	-1
2.87633	-14
2.88000	-32
2.88367	-53
2.88733	-78
2.89100	-107
2.89467	-140
2.89833	-176
2.90200	-216
2.90567	-258
2.90933	-303
2.91300	-350
2.91667	-399
2.92033	-449
2.92400	-499
2.92767	-550
2.93133	-601
2.93500	-652
2.93867	-702
2.94233	-752
2.94600	-802
2.94967	-854
2.95333	-909
2.95700	-970
2.96067	-1030
2.96433	-1079
2.96800	-1105
2.97167	-1105
2.97533	-1080
2.97900	-1032
2.98267	-969
2.98633	-894
2.99000	-815
2.99367	-734
2.99733	-655
3.00100	-579
3.00467	-509
3.00833	-444
3.01200	-386
3.01567	-333
3.01933	-287
3.02300	-246
3.02667	-210
3.03033	-178
3.03400	-151
3.03767	-128
3.04133	-108
3.04500	-90
3.04867	-75
3.05233	-63
3.05600	-51
3.05967	-42
3.06333	-34
3.06700	-27
3.07067	-21
3.07433	-16
3.07800	-11
3.08167	-8
3.08533	-5
3.08900	-2
3.09267	0
3.09633	3
3.10000	5
3.10367	6
3.10733	8
3.11100	9
3.11467	10
3.11833	11
3.12200	12
3.12567	13
3.12933	13
3.13300	14
3.13667	15
3.14033	15
3.14400	16
3.14767	16
3.15133	16
3.15500	17
3.15867	17
3.16233	17
3.16600	18
3.16967	18
3.17333	18
3.17700	18
3.18067	19
3.18433	19
3.18800	19
3.19167	19
3.19533	20
3.19900	20
3.20267	20
3.20633	21
3.21000	21
3.21367	21
3.21733	21
3.22100	21
3.22467	21
3.22833	21
3.23200	21
3.23567	21
3.23933	21
3.24300	21
3.24667	21
3.25033	21
3.25400	21
3.25767	21
3.26133	21
3.26500	21
3.26867	21
3.27233	22
3.27600	22
3.27967	22
3.28333	22
3.28700	22
3.29067	22
3.29433	22
3.29800	22
3.30167	22
3.30533	23
3.30900	23
3.31267	23
3.31633	24
3.32000	24
3.32367	24
3.32733	24
3.33100	25
3.33467	25
3.33833	26
3.34200	26
3.34567	26
3.34933	26
3.35300	26
3.35667	27
3.36033	27
3.36400	27
3.36767	27
3.37133	27
3.37500	27
3.37867	28
3.38233	28
3.38600	28
3.38967	28
3.39333	29
3.39700	29
3.40067	29
3.40433	29
3.40800	29
3.41167	29
3.41533	29
3.41900	29
3.42267	29
3.42633	29
3.43000	29
3.43367	29
3.43733	29
3.44100	29
3.44467	29
3.44833	29
3.45200	29
3.45567	29
3.45933	29
3.46300	28
3.46667	29
3.47033	29
3.47400	28
3.47767	28
3.48133	28
3.48500	28
3.48867	28
3.49233	28
3.49600	28
3.49967	28
3.50333	28
3.50700	28
3.51067	28
3.51433	28
3.51800	28
3.52167	28
3.52533	27
3.52900	27
3.53267	27
3.53633	26
3.54000	26
3.54367	26
3.54733	26
3.55100	26
3.55467	26
3.55833	26
3.56200	26
3.56567	26
3.56933	25
3.57300	25
3.57667	25
3.58033	25
3.58400	25
3.58767	25
3.59133	25
3.59500	26
3.59867	26
3.60233	26
3.60600	26
3.60967	26
3.61333	26
3.61700	26
3.62067	25
3.62433	25
3.62800	25
3.63167	25
3.63533	25
3.63900	25
3.64267	25
3.64633	25
3.65000	25
3.65367	25
3.65733	25
3.66100	25
3.66467	26
3.66833	26
3.67200	26
3.67567	26
3.67933	27
3.68300	27
3.68667	27
3.69033	27
3.69400	27
3.69767	27
3.70133	27
3.70500	27
3.70867	27
3.71233	27
3.71600	27
3.71967	27
3.72333	27
3.72700	27
3.73067	27
3.73433	26
3.73800	26
3.74167	26
3.74533	26
3.74900	26
3.75267	26
3.75633	27
3.76000	27
3.76367	27
3.76733	27
3.77100	27
3.77467	27
3.77833	27
3.78200	27
3.78567	27
3.78933	27
3.79300	27
3.79667	27
3.80033	27
3.80400	26
3.80767	26
3.81133	26
3.81500	26
3.81867	26
3.82233	26
3.82600	26
3.82967	26
3.83333	27
3.83700	27
3.84067	27
3.84433	27
3.84800	27
3.85167	26
3.85533	26
3.85900	26
3.86267	26
3.86633	26
3.87000	26
3.87367	26
3.87733	26
3.88100	26
3.88467	26
3.88833	26
3.89200	26
3.89567	26
3.89933	26
3.90300	26
3.90667	26
3.91033	26
3.91400	26
3.91767	27
3.92133	27
3.92500	27
3.92867	27
3.93233	26
3.93600	26
3.93967	26
3.94333	26
3.94700	26
3.95067	26
3.95433	26
3.95800	26
3.96167	26
3.96533	26
3.96900	26
3.97267	27
3.97633	27
3.98000	27
3.98367	27
3.98733	27
3.99100	27
3.99467	26
3.99833	26

[Chromatogram (Ch3)]
Interval(msec)	220
# of Points	1091
Start Time(min)	0.002
End Time(min)	3.998
R.Time (min)	Intensity
0.00167	-0
0.00533	0
0.00900	0
0.01267	-0
0.01633	1
0.02000	4
0.02367	8
0.02733	9
0.03100	8
0.03467	6
0.03833	5
0.04200	2
0.04567	-0
0.04933	0
0.05300	2
0.05667	2
0.06033	2
0.06400	3
0.06767	3
0.07133	1
0.07500	2
0.07867	2
0.08233	0
0.08600	-2
0.08967	-3
0.09333	-3
0.09700	-4
0.10067	-5
0.10433	-6
0.10800	-6
0.11167	-4
0.11533	-2
0.11900	-1
0.12267	1
0.12633	1
0.13000	1
0.13367	1
0.13733	1
0.14100	1
0.14467	0
0.14833	-0
0.15200	-1
0.15567	-1
0.15933	-2
0.16300	0
0.16667	1
0.17033	1
0.17400	1
0.17767	-0
0.18133	-0
0.18500	-1
0.18867	-1
0.19233	-2
0.19600	-2
0.19967	-1
0.20333	1
0.20700	3
0.21067	5
0.21433	3
0.21800	3
0.22167	3
0.22533	2
0.22900	-0
0.23267	-3
0.23633	-3
0.24000	-2
0.24367	-4
0.24733	-4
0.25100	-3
0.25467	-1
0.25833	2
0.26200	2
0.26567	0
0.26933	-1
0.27300	-2
0.27667	-2
0.28033	-3
0.28400	-4
0.28767	-4
0.29133	-5
0.29500	-4
0.29867	-1
0.30233	-1
0.30600	-3
0.30967	-4
0.31333	-4
0.31700	-5
0.32067	-6
0.32433	-5
0.32800	-5
0.33167	-2
0.33533	-1
0.33900	0
0.34267	1
0.34633	1
0.35000	-0
0.35367	-1
0.35733	-2
0.36100	-3
0.36467	-3
0.36833	-2
0.37200	-3
0.37567	-4
0.37933	-3
0.38300	-3
0.38667	-3
0.39033	-3
0.39400	-1
0.39767	2
0.40133	3
0.40500	1
0.40867	1
0.41233	0
0.41600	-2
0.41967	-0
0.42333	2
0.42700	2
0.43067	2
0.43433	1
0.43800	-2
0.44167	-4
0.44533	-5
0.44900	-6
0.45267	-6
0.45633	-6
0.46000	-5
0.46367	-4
0.46733	-2
0.47100	-3
0.47467	-4
0.47833	-5
0.48200	-5
0.48567	-5
0.48933	-4
0.49300	-3
0.49667	-0
0.50033	0
0.50400	-1
0.50767	-4
0.51133	-5
0.51500	-5
0.51867	-5
0.52233	-3
0.52600	-3
0.52967	-4
0.53333	-4
0.53700	-5
0.54067	-7
0.54433	-8
0.54800	-9
0.55167	-10
0.55533	-7
0.55900	-6
0.56267	-6
0.56633	-9
0.57000	-10
0.57367	-10
0.57733	-8
0.58100	-7
0.58467	-6
0.58833	-6
0.59200	-6
0.59567	-6
0.59933	-7
0.60300	-6
0.60667	-5
0.61033	-3
0.61400	-4
0.61767	-6
0.62133	-7
0.62500	-7
0.62867	-8
0.63233	-10
0.63600	-12
0.63967	-12
0.64333	-12
0.64700	-12
0.65067	-14
0.65433	-14
0.65800	-11
0.66167	-8
0.66533	-9
0.66900	-10
0.67267	-9
0.67633	-8
0.68000	-8
0.68367	-8
0.68733	-8
0.69100	-8
0.69467	-9
0.69833	-11
0.70200	-13
0.70567	-16
0.70933	-18
0.71300	-17
0.71667	-14
0.72033	-12
0.72400	-10
0.72767	-8
0.73133	-7
0.73500	-7
0.73867	-7
0.74233	-7
0.74600	-6
0.74967	-6
0.75333	-6
0.75700	-8
0.76067	-8
0.76433	-7
0.76800	-7
0.77167	-9
0.77533	-11
0.77900	-7
0.78267	-3
0.78633	-0
0.79000	1
0.79367	-2
0.79733	-5
0.80100	-7
0.80467	-6
0.80833	-6
0.81200	-6
0.81567	-7
0.81933	-8
0.82300	-8
0.82667	-8
0.83033	-8
0.83400	-8
0.83767	-9
0.84133	-9
0.84500	-11
0.84867	-12
0.85233	-9
0.85600	-7
0.85967	-5
0.86333	-4
0.86700	-5
0.87067	-7
0.87433	-9
0.87800	-9
0.88167	-10
0.88533	-9
0.88900	-8
0.89267	-10
0.89633	-9
0.90000	-9
0.90367	-8
0.90733	-11
0.91100	-13
0.91467	-13
0.91833	-14
0.92200	-14
0.92567	-13
0.92933	-11
0.93300	-10
0.93667	-8
0.94033	-9
0.94400	-8
0.94767	-8
0.95133	-8
0.95500	-10
0.95867	-11
0.96233	-11
0.96600	-8
0.96967	-5
0.97333	-1
0.97700	2
0.98067	2
0.98433	-1
0.98800	-2
0.99167	-2
0.99533	-1
0.99900	-1
1.00267	-2
1.00633	-3
1.01000	-2
1.01367	-3
1.01733	-2
1.02100	0
1.02467	3
1.02833	4
1.03200	1
1.03567	-1
1.03933	-2
1.04300	-1
1.04667	-0
1.05033	1
1.05400	1
1.05767	1
1.06133	-1
1.06500	-0
1.06867	2
1.07233	2
1.07600	1
1.07967	-2
1.08333	-5
1.08700	-4
1.09067	1
1.09433	2
1.09800	4
1.10167	4
1.10533	4
1.10900	4
1.11267	2
1.11633	4
1.12000	6
1.12367	7
1.12733	7
1.13100	7
1.13467	6
1.13833	7
1.14200	5
1.14567	4
1.14933	5
1.15300	7
1.15667	6
1.16033	4
1.16400	4
1.16767	5
1.17133	7
1.17500	7
1.17867	6
1.18233	7
1.18600	7
1.18967	6
1.19333	6
1.19700	7
1.20067	8
1.20433	9
1.20800	10
1.21167	10
1.21533	11
1.21900	13
1.22267	16
1.22633	15
1.23000	14
1.23367	13
1.23733	13
1.24100	13
1.24467	14
1.24833	14
1.25200	13
1.25567	13
1.25933	13
1.26300	12
1.26667	11
1.27033	13
1.27400	12
1.27767	10
1.28133	10
1.28500	12
1.28867	15
1.29233	16
1.29600	17
1.29967	17
1.30333	16
1.30700	14
1.31067	12
1.31433	11
1.31800	10
1.32167	10
1.32533	12
1.32900	14
1.33267	16
1.33633	15
1.34000	14
1.34367	12
1.34733	12
1.35100	13
1.35467	12
1.35833	10
1.36200	11
1.36567	13
1.36933	12
1.37300	12
1.37667	12
1.38033	11
1.38400	7
1.38767	8
1.39133	8
1.39500	9
1.39867	10
1.40233	10
1.40600	9
1.40967	8
1.41333	9
1.41700	9
1.42067	11
1.42433	12
1.42800	10
1.43167	11
1.43533	12
1.43900	13
1.44267	11
1.44633	11
1.45000	11
1.45367	8
1.45733	4
1.46100	2
1.46467	1
1.46833	3
1.47200	7
1.47567	7
1.47933	4
1.48300	4
1.48667	6
1.49033	7
1.49400	8
1.49767	8
1.50133	7
1.50500	9
1.50867	8
1.51233	6
1.51600	4
1.51967	3
1.52333	2
1.52700	0
1.53067	-0
1.53433	-1
1.53800	-4
1.54167	-6
1.54533	-5
1.54900	-5
1.55267	-5
1.55633	-5
1.56000	-5
1.56367	-4
1.56733	-4
1.57100	-4
1.57467	-3
1.57833	-3
1.58200	-4
1.58567	-5
1.58933	-6
1.59300	-6
1.59667	-5
1.60033	-6
1.60400	-6
1.60767	-7
1.61133	-8
1.61500	-9
1.61867	-10
1.62233	-11
1.62600	-12
1.62967	-12
1.63333	-11
1.63700	-9
1.64067	-7
1.64433	-3
1.64800	-3
1.65167	-5
1.65533	-6
1.65900	-3
1.66267	-0
1.66633	-1
1.67000	-1
1.67367	-1
1.67733	-2
1.68100	-3
1.68467	-4
1.68833	-3
1.69200	-1
1.69567	0
1.69933	-0
1.70300	-0
1.70667	0
1.71033	2
1.71400	5
1.71767	6
1.72133	7
1.72500	8
1.72867	8
1.73233	9
1.73600	8
1.73967	7
1.74333	6
1.74700	6
1.75067	7
1.75433	7
1.75800	9
1.76167	11
1.76533	11
1.76900	11
1.77267	13
1.77633	14
1.78000	16
1.78367	16
1.78733	19
1.79100	20
1.79467	20
1.79833	17
1.80200	15
1.80567	12
1.80933	11
1.81300	11
1.81667	16
1.82033	18
1.82400	20
1.82767	20
1.83133	20
1.83500	20
1.83867	19
1.84233	19
1.84600	21
1.84967	21
1.85333	21
1.85700	21
1.86067	22
1.86433	22
1.86800	23
1.87167	25
1.87533	24
1.87900	23
1.88267	22
1.88633	25
1.89000	26
1.89367	26
1.89733	27
1.90100	28
1.90467	29
1.90833	31
1.91200	31
1.91567	31
1.91933	30
1.92300	31
1.92667	33
1.93033	35
1.93400	34
1.93767	34
1.94133	33
1.94500	32
1.94867	33
1.95233	34
1.95600	36
1.95967	38
1.96333	40
1.96700	39
1.97067	39
1.97433	41
1.97800	43
1.98167	44
1.98533	44
1.98900	45
1.99267	45
1.99633	42
2.00000	41
2.00367	40
2.00733	40
2.01100	43
2.01467	44
2.01833	43
2.02200	41
2.02567	42
2.02933	44
2.03300	46
2.03667	47
2.04033	48
2.04400	49
2.04767	51
2.05133	52
2.05500	53
2.05867	55
2.06233	56
2.06600	58
2.06967	59
2.07333	60
2.07700	60
2.08067	60
2.08433	62
2.08800	65
2.09167	64
2.09533	65
2.09900	66
2.10267	66
2.10633	68
2.11000	67
2.11367	65
2.11733	66
2.12100	67
2.12467	70
2.12833	71
2.13200	70
2.13567	72
2.13933	74
2.14300	74
2.14667	75
2.15033	75
2.15400	75
2.15767	74
2.16133	74
2.16500	76
2.16867	80
2.17233	81
2.17600	83
2.17967	84
2.18333	84
2.18700	86
2.19067	86
2.19433	88
2.19800	90
2.20167	91
2.20533	91
2.20900	90
2.21267	89
2.21633	90
2.22000	91
2.22367	91
2.22733	92
2.23100	95
2.23467	97
2.23833	98
2.24200	99
2.24567	99
2.24933	96
2.25300	95
2.25667	93
2.26033	93
2.26400	96
2.26767	98
2.27133	100
2.27500	102
2.27867	104
2.28233	105
2.28600	106
2.28967	107
2.29333	107
2.29700	107
2.30067	109
2.30433	115
2.30800	117
2.31167	115
2.31533	114
2.31900	113
2.32267	114
2.32633	116
2.33000	117
2.33367	120
2.33733	121
2.34100	121
2.34467	122
2.34833	124
2.35200	126
2.35567	131
2.35933	134
2.36300	133
2.36667	132
2.37033	131
2.37400	133
2.37767	135
2.38133	135
2.38500	134
2.38867	133
2.39233	134
2.39600	137
2.39967	141
2.40333	145
2.40700	147
2.41067	150
2.41433	150
2.41800	150
2.42167	150
2.42533	151
2.42900	151
2.43267	149
2.43633	150
2.44000	154
2.44367	175
2.44733	224
2.45100	275
2.45467	313
2.45833	334
2.46200	348
2.46567	361
2.46933	369
2.47300	371
2.47667	373
2.48033	377
2.48400	388
2.48767	406
2.49133	430
2.49500	457
2.49867	483
2.50233	502
2.50600	512
2.50967	516
2.51333	514
2.51700	512
2.52067	511
2.52433	511
2.52800	511
2.53167	513
2.53533	518
2.53900	527
2.54267	535
2.54633	543
2.55000	550
2.55367	561
2.55733	573
2.56100	584
2.56467	593
2.56833	602
2.57200	609
2.57567	612
2.57933	613
2.58300	609
2.58667	601
2.59033	591
2.59400	578
2.59767	563
2.60133	550
2.60500	536
2.60867	518
2.61233	497
2.61600	472
2.61967	444
2.62333	412
2.62700	377
2.63067	340
2.63433	305
2.63800	275
2.64167	250
2.64533	231
2.64900	219
2.65267	212
2.65633	207
2.66000	204
2.66367	204
2.66733	209
2.67100	216
2.67467	225
2.67833	235
2.68200	247
2.68567	259
2.68933	269
2.69300	280
2.69667	292
2.70033	305
2.70400	317
2.70767	326
2.71133	335
2.71500	345
2.71867	355
2.72233	364
2.72600	372
2.72967	379
2.73333	386
2.73700	394
2.74067	400
2.74433	404
2.74800	406
2.75167	408
2.75533	410
2.75900	411
2.76267	411
2.76633	410
2.77000	410
2.77367	409
2.77733	408
2.78100	407
2.78467	403
2.78833	399
2.79200	397
2.79567	397
2.79933	397
2.80300	396
2.80667	398
2.81033	399
2.81400	399
2.81767	397
2.82133	397
2.82500	401
2.82867	406
2.83233	418
2.83600	444
2.83967	502
2.84333	613
2.84700	801
2.85067	1087
2.85433	1486
2.85800	1995
2.86167	2593
2.86533	3242
2.86900	3891
2.87267	4489
2.87633	4988
2.88000	5350
2.88367	5556
2.88733	5610
2.89100	5522
2.89467	5319
2.89833	5031
2.90200	4685
2.90567	4310
2.90933	3929
2.91300	3556
2.91667	3201
2.92033	2871
2.92400	2570
2.92767	2299
2.93133	2057
2.93500	1841
2.93867	1647
2.94233	1481
2.94600	1338
2.94967	1211
2.95333	1099
2.95700	1004
2.96067	924
2.96433	854
2.96800	792
2.97167	740
2.97533	697
2.97900	659
2.98267	625
2.98633	595
2.99000	569
2.99367	548
2.99733	531
3.00100	516
3.00467	503
3.00833	493
3.01200	486
3.01567	479
3.01933	470
3.02300	463
3.02667	458
3.03033	454
3.03400	452
3.03767	450
3.04133	446
3.04500	443
3.04867	443
3.05233	443
3.05600	445
3.05967	446
3.06333	444
3.06700	443
3.07067	439
3.07433	436
3.07800	436
3.08167	436
3.08533	437
3.08900	435
3.09267	433
3.09633	431
3.10000	431
3.10367	431
3.10733	433
3.11100	436
3.11467	436
3.11833	435
3.12200	435
3.12567	433
3.12933	428
3.13300	420
3.13667	416
3.14033	417
3.14400	417
3.14767	415
3.15133	413
3.15500	410
3.15867	409
3.16233	408
3.16600	406
3.16967	403
3.17333	400
3.17700	399
3.18067	399
3.18433	399
3.18800	398
3.19167	397
3.19533	398
3.19900	396
3.20267	394
3.20633	393
3.21000	391
3.21367	390
3.21733	390
3.22100	389
3.22467	388
3.22833	388
3.23200	384
3.23567	381
3.23933	378
3.24300	375
3.24667	374
3.25033	373
3.25400	372
3.25767	370
3.26133	367
3.26500	364
3.26867	359
3.27233	356
3.27600	351
3.27967	347
3.28333	345
3.28700	343
3.29067	341
3.29433	339
3.29800	337
3.30167	334
3.30533	331
3.30900	327
3.31267	323
3.31633	321
3.32000	318
3.32367	312
3.32733	309
3.33100	306
3.33467	303
3.33833	300
3.34200	295
3.34567	290
3.34933	287
3.35300	288
3.35667	289
3.36033	290
3.36400	293
3.36767	291
3.37133	287
3.37500	283
3.37867	279
3.38233	279
3.38600	278
3.38967	275
3.39333	272
3.39700	269
3.40067	267
3.40433	263
3.40800	260
3.41167	257
3.41533	255
3.41900	253
3.42267	250
3.42633	247
3.43000	244
3.43367	243
3.43733	242
3.44100	238
3.44467	235
3.44833	234
3.45200	233
3.45567	231
3.45933	228
3.46300	225
3.46667	222
3.47033	222
3.47400	222
3.47767	220
3.48133	218
3.48500	216
3.48867	214
3.49233	212
3.49600	212
3.49967	212
3.50333	210
3.50700	209
3.51067	210
3.51433	210
3.51800	208
3.52167	207
3.52533	205
3.52900	203
3.53267	200
3.53633	198
3.54000	197
3.54367	195
3.54733	192
3.55100	191
3.55467	189
3.55833	188
3.56200	188
3.56567	190
3.56933	190
3.57300	189
3.57667	188
3.58033	184
3.58400	180
3.58767	179
3.59133	179
3.59500	179
3.59867	178
3.60233	177
3.60600	178
3.60967	178
3.61333	176
3.61700	171
3.62067	164
3.62433	161
3.62800	161
3.63167	164
3.63533	165
3.63900	163
3.64267	160
3.64633	158
3.65000	155
3.65367	155
3.65733	156
3.66100	153
3.66467	152
3.66833	151
3.67200	149
3.67567	148
3.67933	147
3.68300	144
3.68667	142
3.69033	140
3.69400	138
3.69767	136
3.70133	134
3.70500	134
3.70867	135
3.71233	135
3.71600	133
3.71967	133
3.72333	132
3.72700	128
3.73067	126
3.73433	123
3.73800	120
3.74167	118
3.74533	117
3.74900	116
3.75267	116
3.75633	113
3.76000	111
3.76367	113
3.76733	114
3.77100	111
3.77467	107
3.77833	104
3.78200	103
3.78567	100
3.78933	98
3.79300	96
3.79667	93
3.80033	90
3.80400	89
3.80767	89
3.81133	88
3.81500	88
3.81867	89
3.82233	88
3.82600	85
3.82967	82
3.83333	78
3.83700	78
3.84067	78
3.84433	77
3.84800	73
3.85167	71
3.85533	69
3.85900	67
3.86267	67
3.86633	66
3.87000	64
3.87367	61
3.87733	59
3.88100	54
3.88467	53
3.88833	53
3.89200	53
3.89567	50
3.89933	49
3.90300	49
3.90667	47
3.91033	44
3.91400	43
3.91767	42
3.92133	39
3.92500	37
3.92867	36
3.93233	34
3.93600	33
3.93967	34
3.94333	33
3.94700	30
3.95067	28
3.95433	24
3.95800	25
3.96167	25
3.96533	23
3.96900	20
3.97267	17
3.97633	14
3.98000	11
3.98367	9
3.98733	10
3.99100	11
3.99467	10
3.99833	10

[Status Trace (Column Oven Temperature)]
Interval(msec)	1000
# of Points	240
Start Time(min)	0.010
End Time(min)	3.994
Intensity Units	
Intensity Multiplier	1
R.Time (min)	Intensity
0.01023	35.02
0.02690	35.02
0.04357	35.01
0.06023	35.00
0.07690	35.00
0.09357	35.01
0.11023	35.01
0.12690	35.01
0.14357	35.02
0.16023	35.02
0.17690	35.01
0.19357	35.01
0.21023	35.02
0.22690	35.02
0.24357	35.02
0.26023	35.00
0.27690	35.00
0.29357	35.00
0.31023	34.98
0.32690	34.98
0.34357	34.99
0.36023	35.00
0.37690	35.00
0.39357	34.99
0.41023	34.99
0.42690	34.99
0.44357	34.99
0.46023	35.00
0.47690	35.00
0.49357	35.00
0.51023	34.99
0.52690	34.99
0.54357	34.99
0.56023	34.98
0.57690	34.98
0.59357	34.99
0.61023	34.99
0.62690	35.00
0.64357	35.00
0.66023	35.00
0.67690	34.99
0.69357	34.99
0.71023	34.99
0.72690	34.99
0.74357	34.99
0.76023	34.99
0.77690	34.99
0.79357	35.00
0.81023	35.01
0.82690	34.99
0.84357	35.00
0.86023	34.99
0.87690	34.99
0.89357	34.98
0.91023	34.99
0.92690	34.99
0.94357	34.99
0.96023	34.99
0.97690	34.99
0.99357	34.99
1.01023	34.98
1.02690	34.98
1.04357	34.99
1.06023	34.99
1.07690	34.99
1.09357	34.99
1.11023	34.98
1.12690	34.98
1.14357	34.99
1.16023	34.99
1.17690	35.00
1.19357	35.00
1.21023	35.00
1.22690	35.00
1.24357	35.00
1.26023	35.00
1.27690	34.99
1.29357	34.98
1.31023	34.98
1.32690	34.98
1.34357	34.98
1.36023	34.98
1.37690	34.99
1.39357	35.00
1.41023	35.01
1.42690	35.02
1.44357	35.03
1.46023	35.02
1.47690	35.02
1.49357	35.01
1.51023	35.01
1.52690	35.01
1.54357	35.01
1.56023	35.01
1.57690	35.01
1.59357	35.02
1.61023	35.08
1.62690	35.20
1.64357	35.39
1.66023	35.65
1.67690	36.00
1.69357	36.36
1.71023	36.71
1.72690	37.05
1.74357	37.38
1.76023	37.69
1.77690	38.03
1.79357	38.37
1.81023	38.70
1.82690	39.05
1.84357	39.37
1.86023	39.69
1.87690	40.03
1.89357	40.36
1.91023	40.69
1.92690	41.01
1.94357	41.34
1.96023	41.67
1.97690	42.00
1.99357	42.32
2.01023	42.63
2.02690	42.95
2.04357	43.28
2.06023	43.59
2.07690	43.91
2.09357	44.24
2.11023	44.54
2.12690	44.88
2.14357	45.21
2.16023	45.53
2.17690	45.86
2.19357	46.18
2.21023	46.54
2.22690	46.86
2.24357	47.18
2.26023	47.57
2.27690	47.90
2.29357	48.20
2.31023	48.54
2.32690	48.85
2.34357	49.18
2.36023	49.51
2.37690	49.67
2.39357	49.72
2.41023	49.70
2.42690	49.72
2.44357	49.72
2.46023	49.74
2.47690	49.74
2.49357	49.76
2.51023	49.75
2.52690	49.78
2.54357	49.78
2.56023	49.80
2.57690	49.81
2.59357	49.81
2.61023	49.82
2.62690	49.82
2.64357	49.82
2.66023	49.83
2.67690	49.83
2.69357	49.85
2.71023	49.86
2.72690	49.86
2.74357	49.85
2.76023	49.85
2.77690	49.86
2.79357	49.88
2.81023	49.88
2.82690	49.88
2.84357	49.88
2.86023	49.88
2.87690	49.88
2.89357	49.89
2.91023	49.90
2.92690	49.92
2.94357	49.94
2.96023	49.95
2.97690	49.97
2.99357	49.98
3.01023	50.01
3.02690	50.02
3.04357	50.03
3.06023	50.03
3.07690	50.03
3.09357	50.03
3.11023	50.03
3.12690	50.03
3.14357	50.03
3.16023	50.05
3.17690	50.06
3.19357	50.06
3.21023	50.07
3.22690	50.08
3.24357	50.09
3.26023	50.09
3.27690	50.10
3.29357	50.11
3.31023	50.11
3.32690	50.12
3.34357	50.11
3.36023	50.10
3.37690	50.08
3.39357	50.05
3.41023	50.04
3.42690	50.02
3.44357	50.02
3.46023	50.01
3.47690	50.00
3.49357	49.99
3.51023	49.98
3.52690	49.99
3.54357	49.99
3.56023	50.00
3.57690	50.01
3.59357	50.01
3.61023	50.02
3.62690	50.03
3.64357	50.04
3.66023	50.04
3.67690	50.04
3.69357	50.03
3.71023	50.04
3.72690	50.04
3.74357	50.04
3.76023	50.03
3.77690	50.03
3.79357	50.04
3.81023	50.04
3.82690	50.05
3.84357	50.06
3.86023	50.06
3.87690	50.06
3.89357	50.06
3.91023	50.05
3.92690	50.05
3.94357	50.05
3.96023	50.05
3.97690	50.05
3.99357	50.04

[Status Trace (Injection Unit Temperature)]
Interval(msec)	1000
# of Points	240
Start Time(min)	0.010
End Time(min)	3.994
Intensity Units	
Intensity Multiplier	1
R.Time (min)	Intensity
0.01023	99.99
0.02690	99.99
0.04357	99.99
0.06023	99.99
0.07690	99.99
0.09357	99.99
0.11023	99.99
0.12690	99.99
0.14357	99.99
0.16023	99.99
0.17690	99.99
0.19357	100.00
0.21023	99.99
0.22690	99.99
0.24357	100.00
0.26023	99.99
0.27690	99.99
0.29357	99.99
0.31023	100.00
0.32690	99.99
0.34357	99.99
0.36023	99.99
0.37690	100.00
0.39357	100.00
0.41023	99.99
0.42690	100.00
0.44357	99.99
0.46023	99.99
0.47690	99.99
0.49357	99.99
0.51023	100.00
0.52690	99.99
0.54357	99.99
0.56023	99.99
0.57690	99.99
0.59357	99.99
0.61023	99.99
0.62690	99.99
0.64357	99.99
0.66023	99.99
0.67690	99.99
0.69357	100.00
0.71023	99.99
0.72690	99.99
0.74357	99.99
0.76023	99.99
0.77690	99.99
0.79357	99.99
0.81023	99.99
0.82690	99.99
0.84357	99.99
0.86023	99.99
0.87690	99.99
0.89357	99.99
0.91023	99.99
0.92690	99.99
0.94357	99.99
0.96023	99.99
0.97690	99.99
0.99357	99.99
1.01023	99.99
1.02690	99.99
1.04357	99.99
1.06023	99.99
1.07690	99.99
1.09357	100.00
1.11023	99.99
1.12690	99.99
1.14357	99.99
1.16023	99.99
1.17690	99.99
1.19357	99.99
1.21023	99.99
1.22690	99.99
1.24357	99.99
1.26023	99.99
1.27690	99.99
1.29357	99.99
1.31023	99.99
1.32690	99.99
1.34357	99.98
1.36023	99.99
1.37690	99.99
1.39357	99.99
1.41023	99.99
1.42690	99.99
1.44357	99.99
1.46023	99.99
1.47690	99.99
1.49357	99.99
1.51023	99.99
1.52690	99.99
1.54357	99.99
1.56023	99.99
1.57690	99.99
1.59357	99.99
1.61023	99.99
1.62690	99.99
1.64357	99.99
1.66023	99.98
1.67690	99.99
1.69357	99.99
1.71023	99.99
1.72690	99.99
1.74357	99.99
1.76023	99.99
1.77690	99.99
1.79357	99.98
1.81023	99.99
1.82690	99.99
1.84357	99.99
1.86023	99.99
1.87690	99.99
1.89357	99.98
1.91023	99.98
1.92690	99.99
1.94357	99.98
1.96023	99.99
1.97690	99.98
1.99357	99.98
2.01023	99.98
2.02690	99.98
2.04357	99.98
2.06023	99.98
2.07690	99.98
2.09357	99.98
2.11023	99.98
2.12690	99.98
2.14357	99.98
2.16023	99.98
2.17690	99.98
2.19357	99.97
2.21023	99.98
2.22690	99.97
2.24357	99.97
2.26023	99.97
2.27690	99.98
2.29357	99.98
2.31023	99.97
2.32690	99.97
2.34357	99.97
2.36023	99.97
2.37690	99.97
2.39357	99.98
2.41023	99.98
2.42690	99.97
2.44357	99.97
2.46023	99.98
2.47690	99.98
2.49357	99.98
2.51023	99.98
2.52690	99.98
2.54357	99.98
2.56023	99.98
2.57690	99.98
2.59357	99.98
2.61023	99.98
2.62690	99.99
2.64357	99.99
2.66023	99.99
2.67690	99.99
2.69357	99.99
2.71023	99.99
2.72690	99.99
2.74357	100.00
2.76023	100.00
2.77690	100.00
2.79357	100.00
2.81023	100.00
2.82690	100.00
2.84357	100.00
2.86023	100.00
2.87690	100.00
2.89357	100.00
2.91023	100.01
2.92690	100.01
2.94357	100.01
2.96023	100.01
2.97690	100.01
2.99357	100.01
3.01023	100.01
3.02690	100.02
3.04357	100.02
3.06023	100.02
3.07690	100.02
3.09357	100.02
3.11023	100.02
3.12690	100.02
3.14357	100.02
3.16023	100.02
3.17690	100.02
3.19357	100.02
3.21023	100.02
3.22690	100.02
3.24357	100.02
3.26023	100.02
3.27690	100.02
3.29357	100.03
3.31023	100.02
3.32690	100.03
3.34357	100.03
3.36023	100.03
3.37690	100.03
3.39357	100.02
3.41023	100.03
3.42690	100.03
3.44357	100.03
3.46023	100.03
3.47690	100.03
3.49357	100.04
3.51023	100.04
3.52690	100.04
3.54357	100.04
3.56023	100.04
3.57690	100.04
3.59357	100.04
3.61023	100.04
3.62690	100.04
3.64357	100.04
3.66023	100.04
3.67690	100.04
3.69357	100.05
3.71023	100.05
3.72690	100.05
3.74357	100.05
3.76023	100.05
3.77690	100.05
3.79357	100.05
3.81023	100.05
3.82690	100.05
3.84357	100.05
3.86023	100.05
3.87690	100.05
3.89357	100.05
3.91023	100.05
3.92690	100.05
3.94357	100.05
3.96023	100.05
3.97690	100.05
3.99357	100.05

[Status Trace (Carrier Gas Pressure)]
Interval(msec)	1000
# of Points	240
Start Time(min)	0.010
End Time(min)	3.994
Intensity Units	
Intensity Multiplier	1
R.Time (min)	Intensity
0.01023	58.00
0.02690	55.16
0.04357	57.35
0.06023	59.46
0.07690	59.32
0.09357	58.03
0.11023	57.98
0.12690	58.01
0.14357	58.01
0.16023	58.00
0.17690	58.00
0.19357	58.00
0.21023	58.00
0.22690	58.00
0.24357	58.00
0.26023	58.00
0.27690	58.00
0.29357	58.00
0.31023	58.00
0.32690	58.00
0.34357	58.00
0.36023	58.00
0.37690	58.00
0.39357	58.00
0.41023	58.00
0.42690	58.00
0.44357	58.00
0.46023	58.00
0.47690	58.00
0.49357	58.00
0.51023	58.00
0.52690	58.00
0.54357	58.00
0.56023	58.00
0.57690	58.00
0.59357	58.00
0.61023	58.00
0.62690	58.00
0.64357	58.00
0.66023	58.00
0.67690	58.00
0.69357	58.00
0.71023	58.00
0.72690	58.00
0.74357	58.00
0.76023	58.00
0.77690	58.00
0.79357	58.00
0.81023	58.00
0.82690	58.00
0.84357	58.00
0.86023	58.00
0.87690	58.00
0.89357	58.00
0.91023	58.00
0.92690	58.00
0.94357	58.00
0.96023	58.00
0.97690	58.00
0.99357	58.00
1.01023	58.00
1.02690	58.00
1.04357	58.00
1.06023	58.00
1.07690	58.00
1.09357	58.00
1.11023	58.00
1.12690	58.00
1.14357	58.00
1.16023	58.00
1.17690	58.00
1.19357	58.00
1.21023	58.00
1.22690	58.00
1.24357	58.00
1.26023	58.00
1.27690	58.00
1.29357	58.00
1.31023	58.00
1.32690	58.00
1.34357	58.00
1.36023	58.00
1.37690	58.00
1.39357	58.00
1.41023	58.00
1.42690	58.00
1.44357	58.00
1.46023	58.00
1.47690	58.00
1.49357	58.00
1.51023	58.00
1.52690	58.00
1.54357	58.00
1.56023	58.00
1.57690	58.00
1.59357	58.00
1.61023	58.00
1.62690	58.00
1.64357	58.01
1.66023	58.00
1.67690	58.01
1.69357	58.00
1.71023	58.00
1.72690	58.00
1.74357	58.00
1.76023	58.00
1.77690	58.00
1.79357	58.00
1.81023	58.00
1.82690	58.00
1.84357	58.00
1.86023	58.00
1.87690	58.00
1.89357	58.00
1.91023	58.00
1.92690	58.00
1.94357	58.00
1.96023	58.00
1.97690	58.00
1.99357	58.00
2.01023	58.00
2.02690	58.00
2.04357	58.00
2.06023	58.00
2.07690	58.00
2.09357	58.00
2.11023	58.00
2.12690	58.00
2.14357	58.00
2.16023	58.00
2.17690	58.00
2.19357	58.00
2.21023	58.00
2.22690	58.00
2.24357	58.00
2.26023	58.00
2.27690	58.00
2.29357	58.00
2.31023	58.00
2.32690	58.00
2.34357	58.00
2.36023	58.00
2.37690	57.99
2.39357	57.99
2.41023	58.00
2.42690	58.00
2.44357	58.00
2.46023	58.00
2.47690	58.00
2.49357	58.00
2.51023	58.00
2.52690	57.99
2.54357	58.00
2.56023	58.00
2.57690	58.00
2.59357	58.00
2.61023	58.00
2.62690	58.00
2.64357	58.00
2.66023	58.00
2.67690	58.00
2.69357	58.00
2.71023	58.00
2.72690	58.00
2.74357	58.00
2.76023	58.00
2.77690	58.00
2.79357	58.00
2.81023	58.00
2.82690	58.00
2.84357	58.00
2.86023	58.00
2.87690	58.00
2.89357	58.00
2.91023	58.00
2.92690	58.00
2.94357	58.00
2.96023	58.00
2.97690	58.00
2.99357	58.00
3.01023	58.00
3.02690	58.00
3.04357	58.00
3.06023	58.00
3.07690	58.00
3.09357	58.00
3.11023	58.00
3.12690	58.00
3.14357	58.00
3.16023	58.00
3.17690	58.00
3.19357	58.00
3.21023	58.00
3.22690	58.00
3.24357	58.00
3.26023	58.00
3.27690	58.00
3.29357	58.00
3.31023	58.00
3.32690	58.00
3.34357	58.00
3.36023	58.00
3.37690	58.00
3.39357	58.00
3.41023	58.00
3.42690	58.00
3.44357	58.00
3.46023	58.00
3.47690	58.00
3.49357	58.00
3.51023	58.00
3.52690	58.00
3.54357	58.00
3.56023	58.00
3.57690	58.00
3.59357	58.00
3.61023	58.00
3.62690	58.00
3.64357	58.00
3.66023	58.00
3.67690	58.00
3.69357	58.00
3.71023	58.00
3.72690	58.00
3.74357	58.00
3.76023	58.00
3.77690	58.00
3.79357	58.00
3.81023	58.00
3.82690	58.00
3.84357	58.00
3.86023	58.00
3.87690	58.00
3.89357	58.00
3.91023	58.00
3.92690	58.00
3.94357	58.00
3.96023	58.00
3.97690	58.00
3.99357	58.00

[Status Trace (Carrier Gas Flow)]
Interval(msec)	1000
# of Points	240
Start Time(min)	0.010
End Time(min)	3.994
Intensity Units	
Intensity Multiplier	1
R.Time (min)	Intensity
0.01023	34.52
0.02690	34.53
0.04357	34.54
0.06023	34.55
0.07690	34.50
0.09357	34.52
0.11023	34.52
0.12690	34.52
0.14357	34.52
0.16023	34.52
0.17690	34.52
0.19357	34.52
0.21023	34.52
0.22690	34.52
0.24357	34.52
0.26023	34.52
0.27690	34.52
0.29357	34.52
0.31023	34.52
0.32690	34.52
0.34357	34.52
0.36023	34.52
0.37690	34.52
0.39357	34.52
0.41023	34.52
0.42690	34.52
0.44357	34.52
0.46023	34.52
0.47690	34.52
0.49357	34.52
0.51023	34.52
0.52690	34.52
0.54357	34.52
0.56023	34.52
0.57690	34.52
0.59357	34.52
0.61023	34.52
0.62690	34.52
0.64357	34.52
0.66023	34.52
0.67690	34.52
0.69357	34.52
0.71023	34.52
0.72690	34.52
0.74357	34.52
0.76023	34.52
0.77690	34.52
0.79357	34.52
0.81023	34.52
0.82690	34.52
0.84357	34.52
0.86023	34.52
0.87690	34.52
0.89357	34.52
0.91023	34.52
0.92690	34.52
0.94357	34.52
0.96023	34.52
0.97690	34.52
0.99357	34.52
1.01023	34.52
1.02690	34.52
1.04357	34.52
1.06023	34.52
1.07690	34.52
1.09357	34.52
1.11023	34.52
1.12690	34.52
1.14357	34.52
1.16023	34.52
1.17690	34.52
1.19357	34.52
1.21023	34.52
1.22690	34.52
1.24357	34.52
1.26023	34.52
1.27690	34.52
1.29357	34.52
1.31023	34.52
1.32690	34.52
1.34357	34.52
1.36023	34.52
1.37690	34.52
1.39357	34.52
1.41023	34.52
1.42690	34.52
1.44357	34.52
1.46023	34.52
1.47690	34.52
1.49357	34.52
1.51023	34.52
1.52690	34.52
1.54357	34.52
1.56023	34.52
1.57690	34.52
1.59357	34.52
1.61023	34.52
1.62690	34.52
1.64357	34.52
1.66023	34.52
1.67690	34.52
1.69357	34.52
1.71023	34.52
1.72690	34.52
1.74357	34.52
1.76023	34.52
1.77690	34.52
1.79357	34.52
1.81023	34.52
1.82690	34.52
1.84357	34.52
1.86023	34.52
1.87690	34.51
1.89357	34.52
1.91023	34.52
1.92690	34.52
1.94357	34.52
1.96023	34.52
1.97690	34.52
1.99357	34.52
2.01023	34.52
2.02690	34.52
2.04357	34.52
2.06023	34.52
2.07690	34.52
2.09357	34.52
2.11023	34.52
2.12690	34.52
2.14357	34.52
2.16023	34.52
2.17690	34.54
2.19357	34.52
2.21023	34.52
2.22690	34.52
2.24357	34.52
2.26023	34.52
2.27690	34.52
2.29357	34.52
2.31023	34.52
2.32690	34.52
2.34357	34.52
2.36023	34.52
2.37690	34.52
2.39357	34.52
2.41023	34.52
2.42690	34.52
2.44357	34.52
2.46023	34.52
2.47690	34.52
2.49357	34.52
2.51023	34.52
2.52690	34.52
2.54357	34.52
2.56023	34.52
2.57690	34.52
2.59357	34.52
2.61023	34.52
2.62690	34.52
2.64357	34.52
2.66023	34.52
2.67690	34.52
2.69357	34.52
2.71023	34.53
2.72690	34.52
2.74357	34.52
2.76023	34.51
2.77690	34.51
2.79357	34.52
2.81023	34.52
2.82690	34.52
2.84357	34.52
2.86023	34.52
2.87690	34.52
2.89357	34.52
2.91023	34.52
2.92690	34.52
2.94357	34.52
2.96023	34.52
2.97690	34.52
2.99357	34.51
3.01023	34.53
3.02690	34.52
3.04357	34.52
3.06023	34.52
3.07690	34.52
3.09357	34.52
3.11023	34.52
3.12690	34.52
3.14357	34.52
3.16023	34.52
3.17690	34.52
3.19357	34.52
3.21023	34.52
3.22690	34.52
3.24357	34.52
3.26023	34.52
3.27690	34.52
3.29357	34.52
3.31023	34.52
3.32690	34.52
3.34357	34.52
3.36023	34.52
3.37690	34.52
3.39357	34.52
3.41023	34.52
3.42690	34.52
3.44357	34.52
3.46023	34.52
3.47690	34.52
3.49357	34.52
3.51023	34.52
3.52690	34.52
3.54357	34.52
3.56023	34.52
3.57690	34.52
3.59357	34.51
3.61023	34.52
3.62690	34.52
3.64357	34.52
3.66023	34.52
3.67690	34.52
3.69357	34.52
3.71023	34.52
3.72690	34.52
3.74357	34.52
3.76023	34.52
3.77690	34.52
3.79357	34.52
3.81023	34.52
3.82690	34.52
3.84357	34.52
3.86023	34.52
3.87690	34.52
3.89357	34.52
3.91023	34.52
3.92690	34.52
3.94357	34.52
3.96023	34.52
3.97690	34.52
3.99357	34.52

[Status Trace (Column Flow)]
Interval(msec)	1000
# of Points	240
Start Time(min)	0.010
End Time(min)	3.994
Intensity Units	
Intensity Multiplier	1
R.Time (min)	Intensity
0.01023	5.51
0.02690	5.18
0.04357	5.44
0.06023	5.68
0.07690	5.67
0.09357	5.52
0.11023	5.51
0.12690	5.51
0.14357	5.51
0.16023	5.51
0.17690	5.51
0.19357	5.51
0.21023	5.51
0.22690	5.51
0.24357	5.51
0.26023	5.51
0.27690	5.51
0.29357	5.51
0.31023	5.51
0.32690	5.51
0.34357	5.51
0.36023	5.51
0.37690	5.51
0.39357	5.51
0.41023	5.51
0.42690	5.51
0.44357	5.51
0.46023	5.51
0.47690	5.51
0.49357	5.51
0.51023	5.51
0.52690	5.51
0.54357	5.51
0.56023	5.51
0.57690	5.51
0.59357	5.51
0.61023	5.51
0.62690	5.51
0.64357	5.51
0.66023	5.51
0.67690	5.51
0.69357	5.51
0.71023	5.51
0.72690	5.51
0.74357	5.51
0.76023	5.51
0.77690	5.51
0.79357	5.51
0.81023	5.51
0.82690	5.51
0.84357	5.51
0.86023	5.51
0.87690	5.51
0.89357	5.51
0.91023	5.51
0.92690	5.51
0.94357	5.51
0.96023	5.51
0.97690	5.51
0.99357	5.51
1.01023	5.51
1.02690	5.51
1.04357	5.51
1.06023	5.51
1.07690	5.51
1.09357	5.51
1.11023	5.51
1.12690	5.51
1.14357	5.51
1.16023	5.51
1.17690	5.51
1.19357	5.51
1.21023	5.51
1.22690	5.51
1.24357	5.51
1.26023	5.51
1.27690	5.51
1.29357	5.51
1.31023	5.51
1.32690	5.51
1.34357	5.51
1.36023	5.51
1.37690	5.51
1.39357	5.51
1.41023	5.51
1.42690	5.51
1.44357	5.51
1.46023	5.51
1.47690	5.51
1.49357	5.51
1.51023	5.51
1.52690	5.51
1.54357	5.51
1.56023	5.51
1.57690	5.51
1.59357	5.51
1.61023	5.51
1.62690	5.51
1.64357	5.50
1.66023	5.49
1.67690	5.48
1.69357	5.47
1.71023	5.46
1.72690	5.45
1.74357	5.44
1.76023	5.43
1.77690	5.42
1.79357	5.41
1.81023	5.40
1.82690	5.39
1.84357	5.38
1.86023	5.37
1.87690	5.36
1.89357	5.35
1.91023	5.34
1.92690	5.33
1.94357	5.32
1.96023	5.31
1.97690	5.30
1.99357	5.29
2.01023	5.28
2.02690	5.27
2.04357	5.26
2.06023	5.25
2.07690	5.24
2.09357	5.23
2.11023	5.22
2.12690	5.21
2.14357	5.20
2.16023	5.20
2.17690	5.19
2.19357	5.18
2.21023	5.17
2.22690	5.16
2.24357	5.15
2.26023	5.14
2.27690	5.13
2.29357	5.12
2.31023	5.11
2.32690	5.10
2.34357	5.09
2.36023	5.08
2.37690	5.08
2.39357	5.08
2.41023	5.08
2.42690	5.08
2.44357	5.08
2.46023	5.08
2.47690	5.08
2.49357	5.08
2.51023	5.08
2.52690	5.07
2.54357	5.08
2.56023	5.08
2.57690	5.08
2.59357	5.08
2.61023	5.07
2.62690	5.08
2.64357	5.07
2.66023	5.07
2.67690	5.07
2.69357	5.07
2.71023	5.07
2.72690	5.07
2.74357	5.07
2.76023	5.07
2.77690	5.07
2.79357	5.07
2.81023	5.07
2.82690	5.07
2.84357	5.07
2.86023	5.07
2.87690	5.07
2.89357	5.07
2.91023	5.07
2.92690	5.07
2.94357	5.07
2.96023	5.07
2.97690	5.07
2.99357	5.07
3.01023	5.07
3.02690	5.07
3.04357	5.07
3.06023	5.07
3.07690	5.07
3.09357	5.07
3.11023	5.07
3.12690	5.07
3.14357	5.07
3.16023	5.07
3.17690	5.07
3.19357	5.07
3.21023	5.07
3.22690	5.07
3.24357	5.07
3.26023	5.07
3.27690	5.07
3.29357	5.07
3.31023	5.07
3.32690	5.07
3.34357	5.07
3.36023	5.07
3.37690	5.07
3.39357	5.07
3.41023	5.07
3.42690	5.07
3.44357	5.07
3.46023	5.07
3.47690	5.07
3.49357	5.07
3.51023	5.07
3.52690	5.07
3.54357	5.07
3.56023	5.07
3.57690	5.07
3.59357	5.07
3.61023	5.07
3.62690	5.07
3.64357	5.07
3.66023	5.07
3.67690	5.07
3.69357	5.07
3.71023	5.07
3.72690	5.07
3.74357	5.07
3.76023	5.07
3.77690	5.07
3.79357	5.07
3.81023	5.07
3.82690	5.07
3.84357	5.07
3.86023	5.07
3.87690	5.07
3.89357	5.07
3.91023	5.07
3.92690	5.07
3.94357	5.07
3.96023	5.07
3.97690	5.07
3.99357	5.07

[Status Trace (Linear Velocity)]
Interval(msec)	1000
# of Points	240
Start Time(min)	0.010
End Time(min)	3.994
Intensity Units	
Intensity Multiplier	1
R.Time (min)	Intensity
0.01023	39.01
0.02690	37.15
0.04357	38.59
0.06023	39.97
0.07690	39.88
0.09357	39.04
0.11023	39.00
0.12690	39.02
0.14357	39.02
0.16023	39.02
0.17690	39.02
0.19357	39.02
0.21023	39.01
0.22690	39.01
0.24357	39.01
0.26023	39.01
0.27690	39.02
0.29357	39.02
0.31023	39.02
0.32690	39.02
0.34357	39.02
0.36023	39.01
0.37690	39.01
0.39357	39.02
0.41023	39.02
0.42690	39.02
0.44357	39.02
0.46023	39.02
0.47690	39.02
0.49357	39.02
0.51023	39.02
0.52690	39.02
0.54357	39.02
0.56023	39.02
0.57690	39.02
0.59357	39.02
0.61023	39.02
0.62690	39.02
0.64357	39.02
0.66023	39.01
0.67690	39.02
0.69357	39.02
0.71023	39.02
0.72690	39.02
0.74357	39.01
0.76023	39.01
0.77690	39.02
0.79357	39.01
0.81023	39.01
0.82690	39.02
0.84357	39.01
0.86023	39.02
0.87690	39.02
0.89357	39.02
0.91023	39.02
0.92690	39.02
0.94357	39.02
0.96023	39.02
0.97690	39.02
0.99357	39.02
1.01023	39.02
1.02690	39.02
1.04357	39.02
1.06023	39.02
1.07690	39.02
1.09357	39.02
1.11023	39.02
1.12690	39.02
1.14357	39.02
1.16023	39.02
1.17690	39.01
1.19357	39.01
1.21023	39.01
1.22690	39.01
1.24357	39.01
1.26023	39.01
1.27690	39.02
1.29357	39.02
1.31023	39.02
1.32690	39.02
1.34357	39.02
1.36023	39.02
1.37690	39.02
1.39357	39.01
1.41023	39.01
1.42690	39.01
1.44357	39.01
1.46023	39.01
1.47690	39.01
1.49357	39.01
1.51023	39.01
1.52690	39.01
1.54357	39.01
1.56023	39.01
1.57690	39.01
1.59357	39.01
1.61023	39.01
1.62690	39.00
1.64357	38.98
1.66023	38.96
1.67690	38.92
1.69357	38.89
1.71023	38.85
1.72690	38.82
1.74357	38.79
1.76023	38.76
1.77690	38.73
1.79357	38.69
1.81023	38.66
1.82690	38.63
1.84357	38.60
1.86023	38.57
1.87690	38.54
1.89357	38.51
1.91023	38.48
1.92690	38.45
1.94357	38.42
1.96023	38.38
1.97690	38.35
1.99357	38.32
2.01023	38.30
2.02690	38.27
2.04357	38.24
2.06023	38.21
2.07690	38.18
2.09357	38.15
2.11023	38.12
2.12690	38.09
2.14357	38.06
2.16023	38.03
2.17690	38.00
2.19357	37.97
2.21023	37.94
2.22690	37.91
2.24357	37.88
2.26023	37.85
2.27690	37.82
2.29357	37.79
2.31023	37.76
2.32690	37.73
2.34357	37.70
2.36023	37.67
2.37690	37.66
2.39357	37.65
2.41023	37.65
2.42690	37.65
2.44357	37.65
2.46023	37.65
2.47690	37.65
2.49357	37.65
2.51023	37.65
2.52690	37.64
2.54357	37.65
2.56023	37.65
2.57690	37.65
2.59357	37.65
2.61023	37.65
2.62690	37.65
2.64357	37.65
2.66023	37.65
2.67690	37.65
2.69357	37.64
2.71023	37.64
2.72690	37.64
2.74357	37.64
2.76023	37.64
2.77690	37.64
2.79357	37.64
2.81023	37.64
2.82690	37.64
2.84357	37.64
2.86023	37.64
2.87690	37.64
2.89357	37.64
2.91023	37.64
2.92690	37.64
2.94357	37.64
2.96023	37.63
2.97690	37.63
2.99357	37.63
3.01023	37.63
3.02690	37.63
3.04357	37.63
3.06023	37.63
3.07690	37.63
3.09357	37.63
3.11023	37.63
3.12690	37.63
3.14357	37.63
3.16023	37.63
3.17690	37.62
3.19357	37.63
3.21023	37.62
3.22690	37.62
3.24357	37.62
3.26023	37.62
3.27690	37.62
3.29357	37.62
3.31023	37.62
3.32690	37.62
3.34357	37.62
3.36023	37.62
3.37690	37.62
3.39357	37.63
3.41023	37.63
3.42690	37.63
3.44357	37.63
3.46023	37.63
3.47690	37.63
3.49357	37.63
3.51023	37.63
3.52690	37.63
3.54357	37.63
3.56023	37.63
3.57690	37.63
3.59357	37.63
3.61023	37.63
3.62690	37.63
3.64357	37.63
3.66023	37.63
3.67690	37.63
3.69357	37.63
3.71023	37.63
3.72690	37.63
3.74357	37.63
3.76023	37.63
3.77690	37.63
3.79357	37.63
3.81023	37.63
3.82690	37.63
3.84357	37.63
3.86023	37.63
3.87690	37.62
3.89357	37.63
3.91023	37.63
3.92690	37.63
3.94357	37.63
3.96023	37.63
3.97690	37.63
3.99357	37.63

