[Header]
Application Name	LabSolutions
Version	5.110
Data File Name	C:\Users\User\Desktop\GC Analyses\Jack\UIC Prairie Sampling\9.30.22\220930_089.gcd
Output Date	1/4/2023
Output Time	2:27:54 PM

[File Information]
Type	Data File
Generated	12/2/2022 2:21:46 PM
Generated by	System Administrator
Modified	12/2/2022 2:26:18 PM
Modified by	System Administrator

[Sample Information]
Operator Name	System Administrator
Acquired	12/2/2022 2:22:17 PM
Sample Type	1:Standard
Level	1
Sample Name	220930_UICPrairie
Sample ID	220930_UICPrairie
ISTD Amount1	1
ISTD Amount2	1
ISTD Amount3	1
ISTD Amount4	1
ISTD Amount5	1
ISTD Amount6	1
ISTD Amount7	1
ISTD Amount8	1
ISTD Amount9	1
ISTD Amount10	1
ISTD Amount11	1
ISTD Amount12	1
ISTD Amount13	1
ISTD Amount14	1
ISTD Amount15	1
ISTD Amount16	1
ISTD Amount17	1
ISTD Amount18	1
ISTD Amount19	1
ISTD Amount20	1
ISTD Amount21	1
ISTD Amount22	1
ISTD Amount23	1
ISTD Amount24	1
ISTD Amount25	1
ISTD Amount26	1
ISTD Amount27	1
ISTD Amount28	1
ISTD Amount29	1
ISTD Amount30	1
ISTD Amount31	1
ISTD Amount32	1
Sample Amount	1
Dilution Factor	1
Vial#	1
Injection Volume	1
Injection Count	1
Bar Code	

[Original Files]
Data File	C:\Users\User\Desktop\GC Analyses\Jack\UIC Prairie Sampling\9.30.22\220930_089.gcd
Method File	C:\LabSolutions\Data\GHG_4min_2022\ghg3_togas_w_acet_4 min_new_int.gcm
Batch File	
Report Format File	c:\LabSolutions\System\DEFAULT.lsr

[File Description]


[Configuration]
Instrument Name	C0B7VH3-Instrument1
Instrument #	1
Line #	1
# of Detectors	3
Detector ID	DET#1	DET#2	DET#3
Detector Name	FID	PTCD	ECD
# of Channels	1	1	1

[Peak Table(Ch1)]
# of Peaks	3
Peak#	R.Time	I.Time	F.Time	Area	Height	A/H	Conc.	Mark	ID#	Name	k'	Plate #	Plate Ht.	Tailing	Resolution	Sep.Factor	Area Ratio	Height Ratio	Conc. %	Norm Conc.
1	1.479	1.439	1.538	14663	6718	2.183	100.000	   	1	CO	0.000	8720	17.201	1.190	0.000	0.000	0	0	16.667	16.667
2	1.571	1.538	1.619	5261	2650	1.986	100.000	 V 	2	CH4	0.062	11142	13.463	0.000	1.492	0.000	0	0	16.667	16.667
3	2.000	1.941	2.510	1690290	808522	2.091	400.000	   	3	CO2	0.352	17285	8.678	1.255	7.127	5.680	0	0	66.667	66.667

[Peak Table(Ch2)]
# of Peaks	0

[Peak Table(Ch3)]
# of Peaks	6
Peak#	R.Time	I.Time	F.Time	Area	Height	A/H	Conc.	Mark	ID#	Name	k'	Plate #	Plate Ht.	Tailing	Resolution	Sep.Factor	Area Ratio	Height Ratio	Conc. %	Norm Conc.
1	1.043	0.225	1.413	795	20	39.183	0.000	   			0.000	252	595.187	0.727	0.000	0.000	0	0	0.000	0.000
2	2.458	2.334	2.499	1644	405	4.060	0.000	   			1.357	6252	23.994	0.000	7.311	0.000	0	0	0.000	0.000
3	2.517	2.499	2.554	891	304	2.935	0.000	 V 			1.413	1404	106.828	0.000	0.299	1.041	0	0	0.000	0.000
4	2.609	2.554	2.660	1378	327	4.216	0.000	 V 			1.501	4385	34.210	0.000	0.430	1.062	0	0	0.000	0.000
5	2.807	2.689	2.832	4972	876	5.673	0.093	   	1	N2O	1.691	222	674.897	0.000	0.435	1.126	0	0	9.334	9.334
6	2.891	2.832	3.951	48296	6121	7.890	0.907	 V 	1	N2O	1.772	10673	14.054	0.000	0.195	1.048	0	0	90.666	90.666

[Compound Results(Ch1)]
# of IDs	6
ID#	Name	R.Time	Area	Height	Conc.	Curve	3rd	2nd	1st	Constant	Area Ratio	Height Ratio	Conc. %	Norm Conc.
1	CO	1.479	14663	6718	100.000	Linear	0.000000e+00	0.000000e+00	1.466278e+002	0.000000e+00	0	0	16.667	16.667
2	CH4	1.571	5261	2650	100.000	Linear	0.000000e+00	0.000000e+00	5.261442e+001	0.000000e+00	0	0	16.667	16.667
3	CO2	2.000	1690290	808522	400.000	Linear	0.000000e+00	0.000000e+00	4.225724e+003	0.000000e+00	0	0	66.667	66.667
4	Ethylene	0.000	0	0	0.000	Linear	0.000000e+00	0.000000e+00	0.000000e+00	0.000000e+00	0	0	0.000	0.000
5	Acetylene	0.000	0	0	0.000	Linear	0.000000e+00	0.000000e+00	0.000000e+00	0.000000e+00	0	0	0.000	0.000
6	Ethane	0.000	0	0	0.000	Linear	0.000000e+00	0.000000e+00	0.000000e+00	0.000000e+00	0	0	0.000	0.000

[Compound Results(Ch2)]
# of IDs	5
ID#	Name	R.Time	Area	Height	Conc.	Curve	3rd	2nd	1st	Constant	Area Ratio	Height Ratio	Conc. %	Norm Conc.
1	Hydrogen	0.000	0	0	0.000	Linear	0.000000e+00	0.000000e+00	0.000000e+00	0.000000e+00	0	0	0.000	0.000
2	Oxygen	0.000	0	0	0.000	Linear	0.000000e+00	0.000000e+00	0.000000e+00	0.000000e+00	0	0	0.000	0.000
3	Nitrogen	0.000	0	0	0.000	Linear	0.000000e+00	0.000000e+00	0.000000e+00	0.000000e+00	0	0	0.000	0.000
4	Methane	0.000	0	0	0.000	Linear	0.000000e+00	0.000000e+00	0.000000e+00	0.000000e+00	0	0	0.000	0.000
5	Carbon Monoxide	0.000	0	0	0.000	Linear	0.000000e+00	0.000000e+00	0.000000e+00	0.000000e+00	0	0	0.000	0.000

[Compound Results(Ch3)]
# of IDs	2
ID#	Name	R.Time	Area	Height	Conc.	Curve	3rd	2nd	1st	Constant	Area Ratio	Height Ratio	Conc. %	Norm Conc.
1	N2O	2.891	53267	6998	1.000	Linear	0.000000e+00	0.000000e+00	5.326738e+004	0.000000e+00	0	0	100.000	100.000
2	SF6	0.000	0	0	0.000	Linear	0.000000e+00	0.000000e+00	0.000000e+00	0.000000e+00	0	0	0.000	0.000

[Group Results(Ch1)]
# of Groups	0

[Group Results(Ch2)]
# of Groups	0

[Group Results(Ch3)]
# of Groups	0

[Chromatogram (Ch1)]
Interval(msec)	220
# of Points	1091
Start Time(min)	0.002
End Time(min)	3.998
R.Time (min)	Intensity
0.00167	41
0.00533	44
0.00900	44
0.01267	44
0.01633	45
0.02000	45
0.02367	45
0.02733	42
0.03100	37
0.03467	31
0.03833	20
0.04200	6
0.04567	-1
0.04933	1
0.05300	8
0.05667	19
0.06033	23
0.06400	23
0.06767	25
0.07133	26
0.07500	24
0.07867	19
0.08233	11
0.08600	2
0.08967	-5
0.09333	-10
0.09700	-7
0.10067	-0
0.10433	7
0.10800	12
0.11167	14
0.11533	9
0.11900	1
0.12267	-6
0.12633	-9
0.13000	-4
0.13367	3
0.13733	8
0.14100	12
0.14467	15
0.14833	17
0.15200	19
0.15567	20
0.15933	16
0.16300	8
0.16667	4
0.17033	6
0.17400	10
0.17767	14
0.18133	16
0.18500	15
0.18867	15
0.19233	16
0.19600	16
0.19967	17
0.20333	20
0.20700	19
0.21067	13
0.21433	2
0.21800	-6
0.22167	-10
0.22533	-11
0.22900	-11
0.23267	-11
0.23633	-11
0.24000	-14
0.24367	-17
0.24733	-17
0.25100	-16
0.25467	-12
0.25833	-5
0.26200	2
0.26567	6
0.26933	7
0.27300	6
0.27667	6
0.28033	8
0.28400	11
0.28767	14
0.29133	12
0.29500	7
0.29867	1
0.30233	-3
0.30600	-4
0.30967	-6
0.31333	-6
0.31700	-5
0.32067	-6
0.32433	-6
0.32800	-5
0.33167	-0
0.33533	7
0.33900	13
0.34267	12
0.34633	9
0.35000	3
0.35367	-6
0.35733	-15
0.36100	-17
0.36467	-14
0.36833	-7
0.37200	-2
0.37567	-3
0.37933	-3
0.38300	-0
0.38667	3
0.39033	4
0.39400	1
0.39767	-4
0.40133	-6
0.40500	-8
0.40867	-7
0.41233	-2
0.41600	3
0.41967	3
0.42333	0
0.42700	-4
0.43067	-10
0.43433	-15
0.43800	-19
0.44167	-21
0.44533	-16
0.44900	-4
0.45267	6
0.45633	11
0.46000	11
0.46367	10
0.46733	10
0.47100	10
0.47467	5
0.47833	-2
0.48200	-4
0.48567	-1
0.48933	2
0.49300	4
0.49667	4
0.50033	-1
0.50400	-7
0.50767	-14
0.51133	-20
0.51500	-25
0.51867	-25
0.52233	-22
0.52600	-19
0.52967	-16
0.53333	-17
0.53700	-18
0.54067	-20
0.54433	-22
0.54800	-23
0.55167	-23
0.55533	-23
0.55900	-22
0.56267	-16
0.56633	-10
0.57000	-6
0.57367	-5
0.57733	-6
0.58100	-10
0.58467	-15
0.58833	-18
0.59200	-17
0.59567	-15
0.59933	-13
0.60300	-9
0.60667	-6
0.61033	-5
0.61400	-6
0.61767	-9
0.62133	-8
0.62500	-7
0.62867	-9
0.63233	-13
0.63600	-14
0.63967	-13
0.64333	-12
0.64700	-12
0.65067	-10
0.65433	-10
0.65800	-11
0.66167	-10
0.66533	-8
0.66900	-9
0.67267	-13
0.67633	-20
0.68000	-27
0.68367	-27
0.68733	-23
0.69100	-20
0.69467	-15
0.69833	-6
0.70200	2
0.70567	4
0.70933	2
0.71300	-2
0.71667	-9
0.72033	-15
0.72400	-20
0.72767	-24
0.73133	-27
0.73500	-28
0.73867	-28
0.74233	-28
0.74600	-28
0.74967	-31
0.75333	-33
0.75700	-34
0.76067	-30
0.76433	-22
0.76800	-16
0.77167	-15
0.77533	-19
0.77900	-19
0.78267	-14
0.78633	-8
0.79000	-3
0.79367	-2
0.79733	-5
0.80100	-8
0.80467	-11
0.80833	-15
0.81200	-18
0.81567	-20
0.81933	-20
0.82300	-18
0.82667	-17
0.83033	-19
0.83400	-23
0.83767	-29
0.84133	-33
0.84500	-31
0.84867	-26
0.85233	-22
0.85600	-19
0.85967	-16
0.86333	-13
0.86700	-8
0.87067	-4
0.87433	-4
0.87800	-4
0.88167	-6
0.88533	-8
0.88900	-11
0.89267	-15
0.89633	-17
0.90000	-15
0.90367	-10
0.90733	-9
0.91100	-11
0.91467	-16
0.91833	-20
0.92200	-18
0.92567	-16
0.92933	-19
0.93300	-25
0.93667	-29
0.94033	-31
0.94400	-33
0.94767	-35
0.95133	-37
0.95500	-40
0.95867	-41
0.96233	-38
0.96600	-29
0.96967	-20
0.97333	-17
0.97700	-18
0.98067	-21
0.98433	-23
0.98800	-22
0.99167	-19
0.99533	-17
0.99900	-18
1.00267	-20
1.00633	-24
1.01000	-27
1.01367	-30
1.01733	-34
1.02100	-39
1.02467	-43
1.02833	-47
1.03200	-46
1.03567	-40
1.03933	-32
1.04300	-21
1.04667	-12
1.05033	-5
1.05400	-7
1.05767	-11
1.06133	-17
1.06500	-23
1.06867	-26
1.07233	-27
1.07600	-28
1.07967	-31
1.08333	-32
1.08700	-32
1.09067	-35
1.09433	-41
1.09800	-44
1.10167	-42
1.10533	-37
1.10900	-34
1.11267	-33
1.11633	-33
1.12000	-32
1.12367	-31
1.12733	-34
1.13100	-37
1.13467	-38
1.13833	-37
1.14200	-32
1.14567	-29
1.14933	-29
1.15300	-34
1.15667	-42
1.16033	-49
1.16400	-50
1.16767	-46
1.17133	-45
1.17500	-47
1.17867	-48
1.18233	-49
1.18600	-50
1.18967	-53
1.19333	-56
1.19700	-57
1.20067	-54
1.20433	-51
1.20800	-48
1.21167	-43
1.21533	-39
1.21900	-40
1.22267	-43
1.22633	-46
1.23000	-45
1.23367	-41
1.23733	-39
1.24100	-39
1.24467	-40
1.24833	-44
1.25200	-48
1.25567	-48
1.25933	-44
1.26300	-39
1.26667	-36
1.27033	-34
1.27400	-34
1.27767	-36
1.28133	-38
1.28500	-41
1.28867	-45
1.29233	-50
1.29600	-51
1.29967	-51
1.30333	-52
1.30700	-51
1.31067	-50
1.31433	-49
1.31800	-47
1.32167	-43
1.32533	-43
1.32900	-47
1.33267	-54
1.33633	-62
1.34000	-63
1.34367	-58
1.34733	-52
1.35100	-48
1.35467	-44
1.35833	-42
1.36200	-42
1.36567	-41
1.36933	-41
1.37300	-41
1.37667	-43
1.38033	-50
1.38400	-59
1.38767	-65
1.39133	-68
1.39500	-67
1.39867	-63
1.40233	-58
1.40600	-52
1.40967	-47
1.41333	-44
1.41700	-43
1.42067	-43
1.42433	-46
1.42800	-51
1.43167	-53
1.43533	-53
1.43900	-43
1.44267	7
1.44633	160
1.45000	449
1.45367	958
1.45733	1818
1.46100	2980
1.46467	4204
1.46833	5276
1.47200	6085
1.47567	6574
1.47933	6681
1.48300	6365
1.48667	5668
1.49033	4732
1.49400	3737
1.49767	2827
1.50133	2075
1.50500	1497
1.50867	1068
1.51233	757
1.51600	536
1.51967	384
1.52333	284
1.52700	218
1.53067	176
1.53433	150
1.53800	137
1.54167	156
1.54533	260
1.54900	519
1.55267	936
1.55633	1431
1.56000	1900
1.56367	2278
1.56733	2533
1.57100	2629
1.57467	2531
1.57833	2247
1.58200	1841
1.58567	1406
1.58933	1013
1.59300	696
1.59667	457
1.60033	288
1.60400	170
1.60767	90
1.61133	36
1.61500	3
1.61867	-13
1.62233	-21
1.62600	-23
1.62967	-22
1.63333	-20
1.63700	-19
1.64067	-20
1.64433	-25
1.64800	-33
1.65167	-40
1.65533	-45
1.65900	-49
1.66267	-53
1.66633	-55
1.67000	-57
1.67367	-59
1.67733	-57
1.68100	-54
1.68467	-48
1.68833	-46
1.69200	-47
1.69567	-51
1.69933	-58
1.70300	-65
1.70667	-68
1.71033	-67
1.71400	-63
1.71767	-58
1.72133	-49
1.72500	-42
1.72867	-39
1.73233	-40
1.73600	-44
1.73967	-49
1.74333	-49
1.74700	-44
1.75067	-42
1.75433	-44
1.75800	-50
1.76167	-57
1.76533	-63
1.76900	-69
1.77267	-76
1.77633	-81
1.78000	-82
1.78367	-79
1.78733	-74
1.79100	-68
1.79467	-60
1.79833	-52
1.80200	-46
1.80567	-45
1.80933	-48
1.81300	-54
1.81667	-59
1.82033	-58
1.82400	-50
1.82767	-39
1.83133	-33
1.83500	-32
1.83867	-35
1.84233	-38
1.84600	-37
1.84967	-36
1.85333	-35
1.85700	-32
1.86067	-30
1.86433	-31
1.86800	-34
1.87167	-36
1.87533	-38
1.87900	-40
1.88267	-42
1.88633	-41
1.89000	-42
1.89367	-46
1.89733	-49
1.90100	-49
1.90467	-46
1.90833	-45
1.91200	-47
1.91567	-46
1.91933	-41
1.92300	-37
1.92667	-37
1.93033	-39
1.93400	-41
1.93767	-41
1.94133	-36
1.94500	-27
1.94867	-16
1.95233	-2
1.95600	35
1.95967	239
1.96333	1359
1.96700	6210
1.97067	22114
1.97433	62217
1.97800	140746
1.98167	261655
1.98533	411225
1.98900	563779
1.99267	692991
1.99633	778566
2.00000	808532
2.00367	780676
2.00733	703293
2.01100	593714
2.01467	472838
2.01833	358661
2.02200	262042
2.02567	186550
2.02933	130831
2.03300	91296
2.03667	63967
2.04033	45368
2.04400	32801
2.04767	24307
2.05133	18527
2.05500	14542
2.05867	11747
2.06233	9748
2.06600	8285
2.06967	7190
2.07333	6347
2.07700	5680
2.08067	5136
2.08433	4687
2.08800	4311
2.09167	3996
2.09533	3727
2.09900	3492
2.10267	3279
2.10633	3083
2.11000	2909
2.11367	2756
2.11733	2619
2.12100	2496
2.12467	2384
2.12833	2282
2.13200	2191
2.13567	2106
2.13933	2026
2.14300	1953
2.14667	1881
2.15033	1812
2.15400	1748
2.15767	1693
2.16133	1645
2.16500	1599
2.16867	1552
2.17233	1502
2.17600	1453
2.17967	1410
2.18333	1370
2.18700	1330
2.19067	1295
2.19433	1264
2.19800	1235
2.20167	1207
2.20533	1176
2.20900	1145
2.21267	1118
2.21633	1097
2.22000	1078
2.22367	1060
2.22733	1043
2.23100	1025
2.23467	1008
2.23833	994
2.24200	977
2.24567	954
2.24933	926
2.25300	899
2.25667	873
2.26033	849
2.26400	832
2.26767	823
2.27133	820
2.27500	813
2.27867	801
2.28233	787
2.28600	772
2.28967	754
2.29333	738
2.29700	727
2.30067	719
2.30433	709
2.30800	700
2.31167	692
2.31533	684
2.31900	676
2.32267	668
2.32633	659
2.33000	647
2.33367	635
2.33733	624
2.34100	614
2.34467	606
2.34833	598
2.35200	594
2.35567	594
2.35933	594
2.36300	594
2.36667	591
2.37033	586
2.37400	580
2.37767	572
2.38133	566
2.38500	563
2.38867	559
2.39233	556
2.39600	551
2.39967	544
2.40333	535
2.40700	528
2.41067	524
2.41433	517
2.41800	510
2.42167	505
2.42533	504
2.42900	504
2.43267	501
2.43633	496
2.44000	490
2.44367	483
2.44733	478
2.45100	473
2.45467	469
2.45833	464
2.46200	456
2.46567	446
2.46933	436
2.47300	427
2.47667	420
2.48033	417
2.48400	419
2.48767	425
2.49133	430
2.49500	430
2.49867	427
2.50233	424
2.50600	421
2.50967	416
2.51333	410
2.51700	406
2.52067	406
2.52433	406
2.52800	408
2.53167	411
2.53533	415
2.53900	414
2.54267	409
2.54633	403
2.55000	395
2.55367	385
2.55733	373
2.56100	366
2.56467	363
2.56833	362
2.57200	363
2.57567	363
2.57933	359
2.58300	354
2.58667	348
2.59033	341
2.59400	334
2.59767	326
2.60133	321
2.60500	322
2.60867	330
2.61233	337
2.61600	340
2.61967	340
2.62333	339
2.62700	336
2.63067	335
2.63433	332
2.63800	326
2.64167	320
2.64533	315
2.64900	310
2.65267	307
2.65633	303
2.66000	296
2.66367	286
2.66733	277
2.67100	271
2.67467	270
2.67833	270
2.68200	267
2.68567	262
2.68933	262
2.69300	271
2.69667	283
2.70033	295
2.70400	300
2.70767	301
2.71133	299
2.71500	295
2.71867	290
2.72233	285
2.72600	280
2.72967	274
2.73333	265
2.73700	256
2.74067	252
2.74433	253
2.74800	259
2.75167	262
2.75533	261
2.75900	257
2.76267	252
2.76633	250
2.77000	251
2.77367	252
2.77733	249
2.78100	245
2.78467	242
2.78833	241
2.79200	242
2.79567	235
2.79933	223
2.80300	228
2.80667	234
2.81033	236
2.81400	240
2.81767	244
2.82133	248
2.82500	251
2.82867	254
2.83233	257
2.83600	258
2.83967	256
2.84333	253
2.84700	248
2.85067	243
2.85433	235
2.85800	227
2.86167	223
2.86533	224
2.86900	227
2.87267	233
2.87633	238
2.88000	241
2.88367	239
2.88733	236
2.89100	232
2.89467	231
2.89833	230
2.90200	227
2.90567	221
2.90933	214
2.91300	204
2.91667	195
2.92033	191
2.92400	192
2.92767	194
2.93133	198
2.93500	203
2.93867	207
2.94233	210
2.94600	207
2.94967	198
2.95333	188
2.95700	187
2.96067	192
2.96433	198
2.96800	199
2.97167	195
2.97533	193
2.97900	193
2.98267	196
2.98633	199
2.99000	199
2.99367	200
2.99733	205
3.00100	212
3.00467	220
3.00833	229
3.01200	237
3.01567	242
3.01933	242
3.02300	237
3.02667	229
3.03033	219
3.03400	209
3.03767	200
3.04133	197
3.04500	199
3.04867	202
3.05233	203
3.05600	196
3.05967	183
3.06333	168
3.06700	156
3.07067	153
3.07433	156
3.07800	161
3.08167	162
3.08533	162
3.08900	159
3.09267	160
3.09633	166
3.10000	174
3.10367	175
3.10733	174
3.11100	174
3.11467	178
3.11833	179
3.12200	174
3.12567	166
3.12933	160
3.13300	158
3.13667	158
3.14033	161
3.14400	163
3.14767	161
3.15133	157
3.15500	153
3.15867	151
3.16233	148
3.16600	148
3.16967	154
3.17333	162
3.17700	168
3.18067	170
3.18433	172
3.18800	176
3.19167	181
3.19533	183
3.19900	180
3.20267	174
3.20633	167
3.21000	160
3.21367	155
3.21733	149
3.22100	143
3.22467	138
3.22833	132
3.23200	129
3.23567	131
3.23933	135
3.24300	143
3.24667	148
3.25033	150
3.25400	148
3.25767	145
3.26133	140
3.26500	138
3.26867	136
3.27233	133
3.27600	130
3.27967	127
3.28333	124
3.28700	120
3.29067	118
3.29433	122
3.29800	131
3.30167	139
3.30533	144
3.30900	141
3.31267	128
3.31633	115
3.32000	109
3.32367	112
3.32733	115
3.33100	115
3.33467	115
3.33833	114
3.34200	110
3.34567	104
3.34933	101
3.35300	100
3.35667	103
3.36033	105
3.36400	103
3.36767	103
3.37133	106
3.37500	109
3.37867	113
3.38233	117
3.38600	119
3.38967	118
3.39333	115
3.39700	110
3.40067	108
3.40433	109
3.40800	111
3.41167	113
3.41533	113
3.41900	111
3.42267	106
3.42633	102
3.43000	97
3.43367	94
3.43733	98
3.44100	100
3.44467	97
3.44833	93
3.45200	91
3.45567	90
3.45933	87
3.46300	86
3.46667	89
3.47033	91
3.47400	88
3.47767	81
3.48133	74
3.48500	67
3.48867	61
3.49233	57
3.49600	57
3.49967	63
3.50333	67
3.50700	65
3.51067	63
3.51433	62
3.51800	66
3.52167	74
3.52533	82
3.52900	85
3.53267	84
3.53633	77
3.54000	68
3.54367	63
3.54733	60
3.55100	60
3.55467	61
3.55833	61
3.56200	62
3.56567	58
3.56933	55
3.57300	52
3.57667	47
3.58033	41
3.58400	38
3.58767	43
3.59133	53
3.59500	60
3.59867	61
3.60233	58
3.60600	54
3.60967	51
3.61333	50
3.61700	52
3.62067	52
3.62433	49
3.62800	47
3.63167	48
3.63533	51
3.63900	55
3.64267	55
3.64633	51
3.65000	43
3.65367	37
3.65733	34
3.66100	32
3.66467	30
3.66833	34
3.67200	40
3.67567	44
3.67933	46
3.68300	49
3.68667	51
3.69033	53
3.69400	54
3.69767	53
3.70133	49
3.70500	44
3.70867	40
3.71233	34
3.71600	32
3.71967	33
3.72333	34
3.72700	34
3.73067	31
3.73433	29
3.73800	30
3.74167	32
3.74533	31
3.74900	26
3.75267	21
3.75633	19
3.76000	19
3.76367	18
3.76733	12
3.77100	3
3.77467	-4
3.77833	-6
3.78200	-2
3.78567	1
3.78933	1
3.79300	1
3.79667	3
3.80033	0
3.80400	5
3.80767	15
3.81133	25
3.81500	31
3.81867	35
3.82233	37
3.82600	34
3.82967	30
3.83333	27
3.83700	27
3.84067	28
3.84433	31
3.84800	30
3.85167	24
3.85533	15
3.85900	5
3.86267	-1
3.86633	-0
3.87000	2
3.87367	6
3.87733	9
3.88100	11
3.88467	10
3.88833	7
3.89200	1
3.89567	-4
3.89933	-3
3.90300	-1
3.90667	2
3.91033	4
3.91400	4
3.91767	2
3.92133	-0
3.92500	0
3.92867	1
3.93233	-1
3.93600	-0
3.93967	2
3.94333	5
3.94700	9
3.95067	14
3.95433	15
3.95800	13
3.96167	9
3.96533	6
3.96900	4
3.97267	1
3.97633	-3
3.98000	-8
3.98367	-11
3.98733	-11
3.99100	-8
3.99467	-2
3.99833	5

[Chromatogram (Ch2)]
Interval(msec)	220
# of Points	1091
Start Time(min)	0.002
End Time(min)	3.998
R.Time (min)	Intensity
0.00167	0
0.00533	-0
0.00900	-0
0.01267	-0
0.01633	-0
0.02000	-0
0.02367	-1
0.02733	-1
0.03100	-1
0.03467	-1
0.03833	-1
0.04200	-1
0.04567	-1
0.04933	-1
0.05300	-2
0.05667	-2
0.06033	-2
0.06400	-2
0.06767	-1
0.07133	-1
0.07500	-1
0.07867	-1
0.08233	-1
0.08600	-0
0.08967	-0
0.09333	0
0.09700	0
0.10067	1
0.10433	1
0.10800	1
0.11167	1
0.11533	1
0.11900	2
0.12267	2
0.12633	2
0.13000	2
0.13367	2
0.13733	2
0.14100	2
0.14467	2
0.14833	2
0.15200	2
0.15567	1
0.15933	1
0.16300	1
0.16667	1
0.17033	0
0.17400	0
0.17767	-0
0.18133	-0
0.18500	-1
0.18867	-1
0.19233	-1
0.19600	-1
0.19967	-1
0.20333	-0
0.20700	-0
0.21067	-0
0.21433	-0
0.21800	0
0.22167	0
0.22533	0
0.22900	0
0.23267	0
0.23633	0
0.24000	0
0.24367	0
0.24733	0
0.25100	0
0.25467	-0
0.25833	-0
0.26200	-1
0.26567	-1
0.26933	-1
0.27300	-1
0.27667	-1
0.28033	-1
0.28400	-1
0.28767	-1
0.29133	-1
0.29500	-1
0.29867	-1
0.30233	-1
0.30600	-2
0.30967	-2
0.31333	-2
0.31700	-2
0.32067	-2
0.32433	-2
0.32800	-1
0.33167	-1
0.33533	-1
0.33900	-1
0.34267	-1
0.34633	-1
0.35000	-1
0.35367	-1
0.35733	-1
0.36100	-1
0.36467	-1
0.36833	-1
0.37200	-1
0.37567	-1
0.37933	-1
0.38300	-2
0.38667	-2
0.39033	-2
0.39400	-2
0.39767	-2
0.40133	-2
0.40500	-2
0.40867	-2
0.41233	-2
0.41600	-2
0.41967	-2
0.42333	-2
0.42700	-3
0.43067	-3
0.43433	-3
0.43800	-3
0.44167	-2
0.44533	-2
0.44900	-2
0.45267	-2
0.45633	-2
0.46000	-2
0.46367	-2
0.46733	-2
0.47100	-2
0.47467	-2
0.47833	-2
0.48200	-2
0.48567	-2
0.48933	-2
0.49300	-2
0.49667	-2
0.50033	-1
0.50400	-1
0.50767	-1
0.51133	-1
0.51500	-1
0.51867	-1
0.52233	-2
0.52600	-2
0.52967	-2
0.53333	-2
0.53700	-2
0.54067	-2
0.54433	-2
0.54800	-2
0.55167	-2
0.55533	-2
0.55900	-2
0.56267	-3
0.56633	-3
0.57000	-3
0.57367	-3
0.57733	-3
0.58100	-3
0.58467	-3
0.58833	-3
0.59200	-3
0.59567	-2
0.59933	-2
0.60300	-2
0.60667	-2
0.61033	-2
0.61400	-2
0.61767	-2
0.62133	-2
0.62500	-2
0.62867	-2
0.63233	-2
0.63600	-2
0.63967	-2
0.64333	-2
0.64700	-2
0.65067	-2
0.65433	-2
0.65800	-2
0.66167	-2
0.66533	-2
0.66900	-2
0.67267	-2
0.67633	-2
0.68000	-2
0.68367	-2
0.68733	-2
0.69100	-2
0.69467	-1
0.69833	-1
0.70200	-1
0.70567	-1
0.70933	-1
0.71300	-1
0.71667	-1
0.72033	-1
0.72400	-1
0.72767	-1
0.73133	-1
0.73500	-1
0.73867	-1
0.74233	-1
0.74600	-1
0.74967	-1
0.75333	-1
0.75700	-1
0.76067	-2
0.76433	-2
0.76800	-2
0.77167	-3
0.77533	-3
0.77900	-3
0.78267	-3
0.78633	-3
0.79000	-3
0.79367	-3
0.79733	-3
0.80100	-3
0.80467	-3
0.80833	-3
0.81200	-3
0.81567	-3
0.81933	-2
0.82300	-2
0.82667	-2
0.83033	-2
0.83400	-2
0.83767	-2
0.84133	-2
0.84500	-2
0.84867	-2
0.85233	-2
0.85600	-2
0.85967	-2
0.86333	-2
0.86700	-2
0.87067	-2
0.87433	-2
0.87800	-2
0.88167	-2
0.88533	-3
0.88900	-3
0.89267	-3
0.89633	-3
0.90000	-3
0.90367	-3
0.90733	-3
0.91100	-3
0.91467	-3
0.91833	-3
0.92200	-3
0.92567	-3
0.92933	-3
0.93300	-3
0.93667	-3
0.94033	-3
0.94400	-3
0.94767	-3
0.95133	-3
0.95500	-3
0.95867	-3
0.96233	-3
0.96600	-3
0.96967	-3
0.97333	-3
0.97700	-3
0.98067	-3
0.98433	-3
0.98800	-4
0.99167	-3
0.99533	-3
0.99900	-4
1.00267	-4
1.00633	-4
1.01000	-4
1.01367	-4
1.01733	-4
1.02100	-4
1.02467	-3
1.02833	-3
1.03200	-3
1.03567	-3
1.03933	-3
1.04300	-3
1.04667	-3
1.05033	-3
1.05400	-3
1.05767	-3
1.06133	-3
1.06500	-3
1.06867	-2
1.07233	-2
1.07600	-2
1.07967	-2
1.08333	-2
1.08700	-2
1.09067	-2
1.09433	-2
1.09800	-2
1.10167	-2
1.10533	-2
1.10900	-2
1.11267	-2
1.11633	-2
1.12000	-2
1.12367	-2
1.12733	-2
1.13100	-2
1.13467	-2
1.13833	-2
1.14200	-2
1.14567	-2
1.14933	-2
1.15300	-2
1.15667	-2
1.16033	-2
1.16400	-3
1.16767	-3
1.17133	-3
1.17500	-3
1.17867	-3
1.18233	-3
1.18600	-3
1.18967	-3
1.19333	-3
1.19700	-3
1.20067	-3
1.20433	-3
1.20800	-3
1.21167	-4
1.21533	-4
1.21900	-4
1.22267	-5
1.22633	-5
1.23000	-5
1.23367	-5
1.23733	-5
1.24100	-5
1.24467	-5
1.24833	-5
1.25200	-4
1.25567	-4
1.25933	-4
1.26300	-4
1.26667	-3
1.27033	-3
1.27400	-3
1.27767	-3
1.28133	-3
1.28500	-2
1.28867	-2
1.29233	-2
1.29600	-2
1.29967	-2
1.30333	-2
1.30700	-2
1.31067	-3
1.31433	-3
1.31800	-3
1.32167	-3
1.32533	-3
1.32900	-3
1.33267	-3
1.33633	-3
1.34000	-2
1.34367	-3
1.34733	-3
1.35100	-3
1.35467	-3
1.35833	-3
1.36200	-3
1.36567	-3
1.36933	-3
1.37300	-3
1.37667	-3
1.38033	-2
1.38400	-2
1.38767	-2
1.39133	-2
1.39500	-2
1.39867	-2
1.40233	-2
1.40600	-2
1.40967	-2
1.41333	-2
1.41700	-2
1.42067	-2
1.42433	-2
1.42800	-2
1.43167	-2
1.43533	-2
1.43900	-2
1.44267	-2
1.44633	-2
1.45000	-2
1.45367	-2
1.45733	-2
1.46100	-2
1.46467	-2
1.46833	-2
1.47200	-2
1.47567	-2
1.47933	-2
1.48300	-2
1.48667	-2
1.49033	-3
1.49400	-3
1.49767	-3
1.50133	-3
1.50500	-3
1.50867	-3
1.51233	-3
1.51600	-3
1.51967	-3
1.52333	-3
1.52700	-3
1.53067	-2
1.53433	-2
1.53800	-2
1.54167	-2
1.54533	-3
1.54900	-3
1.55267	-3
1.55633	-3
1.56000	-4
1.56367	-4
1.56733	-4
1.57100	-4
1.57467	-4
1.57833	-4
1.58200	-4
1.58567	-4
1.58933	-4
1.59300	-4
1.59667	-5
1.60033	-6
1.60400	-6
1.60767	-8
1.61133	-9
1.61500	-11
1.61867	-14
1.62233	-16
1.62600	-19
1.62967	-22
1.63333	-25
1.63700	-29
1.64067	-32
1.64433	-36
1.64800	-39
1.65167	-43
1.65533	-46
1.65900	-50
1.66267	-54
1.66633	-58
1.67000	-63
1.67367	-68
1.67733	-73
1.68100	-78
1.68467	-82
1.68833	-87
1.69200	-91
1.69567	-94
1.69933	-97
1.70300	-100
1.70667	-102
1.71033	-104
1.71400	-105
1.71767	-107
1.72133	-108
1.72500	-109
1.72867	-110
1.73233	-111
1.73600	-111
1.73967	-111
1.74333	-112
1.74700	-112
1.75067	-113
1.75433	-114
1.75800	-115
1.76167	-115
1.76533	-115
1.76900	-115
1.77267	-115
1.77633	-115
1.78000	-115
1.78367	-115
1.78733	-115
1.79100	-115
1.79467	-115
1.79833	-116
1.80200	-117
1.80567	-117
1.80933	-117
1.81300	-118
1.81667	-118
1.82033	-118
1.82400	-118
1.82767	-118
1.83133	-118
1.83500	-118
1.83867	-118
1.84233	-118
1.84600	-119
1.84967	-119
1.85333	-119
1.85700	-120
1.86067	-120
1.86433	-120
1.86800	-119
1.87167	-119
1.87533	-119
1.87900	-119
1.88267	-119
1.88633	-118
1.89000	-118
1.89367	-118
1.89733	-117
1.90100	-118
1.90467	-118
1.90833	-118
1.91200	-119
1.91567	-119
1.91933	-119
1.92300	-119
1.92667	-118
1.93033	-117
1.93400	-116
1.93767	-115
1.94133	-115
1.94500	-115
1.94867	-115
1.95233	-114
1.95600	-114
1.95967	-113
1.96333	-113
1.96700	-112
1.97067	-112
1.97433	-111
1.97800	-111
1.98167	-112
1.98533	-112
1.98900	-112
1.99267	-112
1.99633	-111
2.00000	-111
2.00367	-110
2.00733	-110
2.01100	-110
2.01467	-110
2.01833	-110
2.02200	-110
2.02567	-110
2.02933	-110
2.03300	-110
2.03667	-110
2.04033	-110
2.04400	-110
2.04767	-109
2.05133	-109
2.05500	-108
2.05867	-108
2.06233	-107
2.06600	-106
2.06967	-106
2.07333	-105
2.07700	-104
2.08067	-104
2.08433	-104
2.08800	-104
2.09167	-105
2.09533	-105
2.09900	-104
2.10267	-105
2.10633	-105
2.11000	-105
2.11367	-106
2.11733	-106
2.12100	-106
2.12467	-106
2.12833	-106
2.13200	-105
2.13567	-105
2.13933	-104
2.14300	-102
2.14667	-101
2.15033	-100
2.15400	-99
2.15767	-99
2.16133	-98
2.16500	-98
2.16867	-98
2.17233	-98
2.17600	-98
2.17967	-98
2.18333	-98
2.18700	-98
2.19067	-98
2.19433	-98
2.19800	-97
2.20167	-97
2.20533	-97
2.20900	-97
2.21267	-96
2.21633	-96
2.22000	-95
2.22367	-94
2.22733	-93
2.23100	-93
2.23467	-92
2.23833	-91
2.24200	-91
2.24567	-90
2.24933	-90
2.25300	-90
2.25667	-90
2.26033	-90
2.26400	-91
2.26767	-91
2.27133	-92
2.27500	-92
2.27867	-92
2.28233	-91
2.28600	-90
2.28967	-90
2.29333	-89
2.29700	-88
2.30067	-88
2.30433	-88
2.30800	-87
2.31167	-87
2.31533	-86
2.31900	-86
2.32267	-85
2.32633	-85
2.33000	-85
2.33367	-85
2.33733	-85
2.34100	-84
2.34467	-84
2.34833	-83
2.35200	-82
2.35567	-81
2.35933	-80
2.36300	-78
2.36667	-77
2.37033	-75
2.37400	-73
2.37767	-71
2.38133	-68
2.38500	-65
2.38867	-62
2.39233	-58
2.39600	-54
2.39967	-51
2.40333	-46
2.40700	-42
2.41067	-38
2.41433	-35
2.41800	-31
2.42167	-28
2.42533	-25
2.42900	-22
2.43267	-20
2.43633	-17
2.44000	-15
2.44367	-13
2.44733	-11
2.45100	-9
2.45467	-7
2.45833	-5
2.46200	-4
2.46567	-2
2.46933	-1
2.47300	1
2.47667	2
2.48033	3
2.48400	4
2.48767	5
2.49133	6
2.49500	7
2.49867	7
2.50233	8
2.50600	9
2.50967	9
2.51333	9
2.51700	9
2.52067	10
2.52433	10
2.52800	10
2.53167	11
2.53533	12
2.53900	13
2.54267	13
2.54633	14
2.55000	14
2.55367	14
2.55733	14
2.56100	14
2.56467	15
2.56833	15
2.57200	16
2.57567	16
2.57933	15
2.58300	15
2.58667	15
2.59033	15
2.59400	15
2.59767	15
2.60133	15
2.60500	15
2.60867	15
2.61233	15
2.61600	15
2.61967	16
2.62333	16
2.62700	17
2.63067	17
2.63433	18
2.63800	18
2.64167	18
2.64533	18
2.64900	18
2.65267	18
2.65633	18
2.66000	18
2.66367	19
2.66733	19
2.67100	19
2.67467	20
2.67833	20
2.68200	20
2.68567	20
2.68933	20
2.69300	20
2.69667	20
2.70033	20
2.70400	21
2.70767	21
2.71133	21
2.71500	22
2.71867	22
2.72233	22
2.72600	22
2.72967	22
2.73333	22
2.73700	22
2.74067	22
2.74433	22
2.74800	23
2.75167	23
2.75533	24
2.75900	24
2.76267	25
2.76633	25
2.77000	26
2.77367	26
2.77733	26
2.78100	27
2.78467	27
2.78833	27
2.79200	27
2.79567	27
2.79933	26
2.80300	26
2.80667	25
2.81033	25
2.81400	25
2.81767	24
2.82133	24
2.82500	24
2.82867	24
2.83233	25
2.83600	25
2.83967	25
2.84333	26
2.84700	26
2.85067	26
2.85433	26
2.85800	25
2.86167	23
2.86533	20
2.86900	15
2.87267	8
2.87633	-3
2.88000	-17
2.88367	-35
2.88733	-57
2.89100	-82
2.89467	-112
2.89833	-145
2.90200	-182
2.90567	-222
2.90933	-265
2.91300	-310
2.91667	-358
2.92033	-407
2.92400	-457
2.92767	-507
2.93133	-558
2.93500	-609
2.93867	-660
2.94233	-711
2.94600	-760
2.94967	-810
2.95333	-861
2.95700	-917
2.96067	-979
2.96433	-1036
2.96800	-1080
2.97167	-1101
2.97533	-1095
2.97900	-1064
2.98267	-1013
2.98633	-947
2.99000	-871
2.99367	-791
2.99733	-711
3.00100	-632
3.00467	-558
3.00833	-489
3.01200	-426
3.01567	-369
3.01933	-319
3.02300	-274
3.02667	-234
3.03033	-199
3.03400	-170
3.03767	-144
3.04133	-121
3.04500	-102
3.04867	-85
3.05233	-71
3.05600	-59
3.05967	-48
3.06333	-40
3.06700	-32
3.07067	-26
3.07433	-20
3.07800	-16
3.08167	-12
3.08533	-8
3.08900	-5
3.09267	-2
3.09633	-0
3.10000	2
3.10367	4
3.10733	5
3.11100	7
3.11467	8
3.11833	9
3.12200	11
3.12567	12
3.12933	13
3.13300	13
3.13667	14
3.14033	15
3.14400	15
3.14767	15
3.15133	16
3.15500	16
3.15867	16
3.16233	17
3.16600	17
3.16967	17
3.17333	17
3.17700	18
3.18067	18
3.18433	18
3.18800	18
3.19167	18
3.19533	19
3.19900	19
3.20267	19
3.20633	19
3.21000	19
3.21367	19
3.21733	19
3.22100	19
3.22467	19
3.22833	19
3.23200	20
3.23567	20
3.23933	20
3.24300	21
3.24667	21
3.25033	21
3.25400	22
3.25767	22
3.26133	22
3.26500	21
3.26867	21
3.27233	21
3.27600	21
3.27967	21
3.28333	21
3.28700	22
3.29067	22
3.29433	22
3.29800	22
3.30167	22
3.30533	23
3.30900	23
3.31267	23
3.31633	24
3.32000	24
3.32367	24
3.32733	25
3.33100	25
3.33467	25
3.33833	25
3.34200	26
3.34567	26
3.34933	26
3.35300	26
3.35667	27
3.36033	27
3.36400	27
3.36767	27
3.37133	27
3.37500	27
3.37867	28
3.38233	28
3.38600	28
3.38967	28
3.39333	28
3.39700	28
3.40067	29
3.40433	29
3.40800	29
3.41167	29
3.41533	29
3.41900	29
3.42267	29
3.42633	28
3.43000	28
3.43367	28
3.43733	28
3.44100	28
3.44467	28
3.44833	27
3.45200	27
3.45567	27
3.45933	27
3.46300	27
3.46667	27
3.47033	27
3.47400	27
3.47767	27
3.48133	27
3.48500	27
3.48867	27
3.49233	27
3.49600	27
3.49967	27
3.50333	26
3.50700	26
3.51067	26
3.51433	26
3.51800	27
3.52167	27
3.52533	27
3.52900	27
3.53267	26
3.53633	26
3.54000	26
3.54367	26
3.54733	26
3.55100	26
3.55467	25
3.55833	25
3.56200	25
3.56567	25
3.56933	25
3.57300	25
3.57667	26
3.58033	26
3.58400	26
3.58767	26
3.59133	26
3.59500	26
3.59867	26
3.60233	26
3.60600	26
3.60967	27
3.61333	27
3.61700	27
3.62067	27
3.62433	27
3.62800	27
3.63167	27
3.63533	27
3.63900	27
3.64267	27
3.64633	27
3.65000	27
3.65367	27
3.65733	27
3.66100	27
3.66467	27
3.66833	27
3.67200	27
3.67567	27
3.67933	27
3.68300	27
3.68667	27
3.69033	26
3.69400	26
3.69767	26
3.70133	26
3.70500	26
3.70867	26
3.71233	27
3.71600	27
3.71967	27
3.72333	27
3.72700	27
3.73067	27
3.73433	27
3.73800	27
3.74167	28
3.74533	28
3.74900	28
3.75267	27
3.75633	27
3.76000	27
3.76367	27
3.76733	26
3.77100	26
3.77467	26
3.77833	26
3.78200	26
3.78567	26
3.78933	26
3.79300	26
3.79667	26
3.80033	26
3.80400	26
3.80767	26
3.81133	26
3.81500	26
3.81867	26
3.82233	26
3.82600	26
3.82967	26
3.83333	26
3.83700	26
3.84067	26
3.84433	26
3.84800	26
3.85167	26
3.85533	26
3.85900	26
3.86267	26
3.86633	26
3.87000	26
3.87367	26
3.87733	26
3.88100	27
3.88467	27
3.88833	27
3.89200	27
3.89567	27
3.89933	27
3.90300	28
3.90667	28
3.91033	28
3.91400	28
3.91767	27
3.92133	27
3.92500	27
3.92867	27
3.93233	28
3.93600	27
3.93967	27
3.94333	27
3.94700	27
3.95067	27
3.95433	27
3.95800	27
3.96167	27
3.96533	27
3.96900	26
3.97267	26
3.97633	26
3.98000	26
3.98367	26
3.98733	26
3.99100	26
3.99467	26
3.99833	26

[Chromatogram (Ch3)]
Interval(msec)	220
# of Points	1091
Start Time(min)	0.002
End Time(min)	3.998
R.Time (min)	Intensity
0.00167	-0
0.00533	-0
0.00900	-1
0.01267	-2
0.01633	-1
0.02000	1
0.02367	3
0.02733	1
0.03100	-0
0.03467	-2
0.03833	-3
0.04200	-3
0.04567	-2
0.04933	-2
0.05300	1
0.05667	3
0.06033	3
0.06400	2
0.06767	1
0.07133	2
0.07500	4
0.07867	4
0.08233	6
0.08600	6
0.08967	6
0.09333	7
0.09700	9
0.10067	8
0.10433	8
0.10800	7
0.11167	7
0.11533	6
0.11900	7
0.12267	8
0.12633	7
0.13000	9
0.13367	10
0.13733	13
0.14100	15
0.14467	16
0.14833	14
0.15200	14
0.15567	14
0.15933	12
0.16300	11
0.16667	11
0.17033	10
0.17400	9
0.17767	11
0.18133	10
0.18500	9
0.18867	7
0.19233	8
0.19600	6
0.19967	6
0.20333	6
0.20700	6
0.21067	6
0.21433	6
0.21800	6
0.22167	7
0.22533	8
0.22900	9
0.23267	9
0.23633	10
0.24000	11
0.24367	11
0.24733	12
0.25100	13
0.25467	15
0.25833	17
0.26200	15
0.26567	14
0.26933	15
0.27300	15
0.27667	16
0.28033	17
0.28400	18
0.28767	17
0.29133	15
0.29500	14
0.29867	15
0.30233	14
0.30600	12
0.30967	10
0.31333	9
0.31700	11
0.32067	11
0.32433	11
0.32800	11
0.33167	13
0.33533	14
0.33900	16
0.34267	18
0.34633	17
0.35000	15
0.35367	14
0.35733	16
0.36100	17
0.36467	17
0.36833	15
0.37200	16
0.37567	18
0.37933	18
0.38300	16
0.38667	13
0.39033	12
0.39400	13
0.39767	13
0.40133	16
0.40500	17
0.40867	16
0.41233	16
0.41600	16
0.41967	17
0.42333	17
0.42700	17
0.43067	18
0.43433	18
0.43800	18
0.44167	18
0.44533	17
0.44900	18
0.45267	19
0.45633	19
0.46000	21
0.46367	23
0.46733	22
0.47100	19
0.47467	17
0.47833	18
0.48200	18
0.48567	16
0.48933	16
0.49300	17
0.49667	18
0.50033	14
0.50400	12
0.50767	11
0.51133	13
0.51500	14
0.51867	15
0.52233	16
0.52600	18
0.52967	19
0.53333	19
0.53700	20
0.54067	24
0.54433	27
0.54800	26
0.55167	24
0.55533	23
0.55900	24
0.56267	25
0.56633	24
0.57000	22
0.57367	21
0.57733	22
0.58100	23
0.58467	23
0.58833	23
0.59200	24
0.59567	24
0.59933	23
0.60300	22
0.60667	21
0.61033	22
0.61400	25
0.61767	27
0.62133	24
0.62500	23
0.62867	22
0.63233	20
0.63600	22
0.63967	24
0.64333	23
0.64700	22
0.65067	22
0.65433	22
0.65800	22
0.66167	22
0.66533	20
0.66900	20
0.67267	19
0.67633	20
0.68000	21
0.68367	22
0.68733	22
0.69100	24
0.69467	23
0.69833	24
0.70200	24
0.70567	22
0.70933	21
0.71300	19
0.71667	20
0.72033	22
0.72400	22
0.72767	21
0.73133	22
0.73500	24
0.73867	25
0.74233	25
0.74600	23
0.74967	22
0.75333	21
0.75700	21
0.76067	22
0.76433	20
0.76800	19
0.77167	19
0.77533	21
0.77900	25
0.78267	25
0.78633	24
0.79000	23
0.79367	23
0.79733	24
0.80100	24
0.80467	23
0.80833	23
0.81200	24
0.81567	25
0.81933	24
0.82300	24
0.82667	25
0.83033	26
0.83400	29
0.83767	29
0.84133	26
0.84500	25
0.84867	26
0.85233	27
0.85600	26
0.85967	24
0.86333	23
0.86700	21
0.87067	19
0.87433	17
0.87800	18
0.88167	22
0.88533	26
0.88900	27
0.89267	28
0.89633	28
0.90000	25
0.90367	23
0.90733	22
0.91100	21
0.91467	21
0.91833	22
0.92200	23
0.92567	24
0.92933	26
0.93300	27
0.93667	28
0.94033	28
0.94400	26
0.94767	26
0.95133	24
0.95500	25
0.95867	26
0.96233	25
0.96600	26
0.96967	28
0.97333	29
0.97700	29
0.98067	26
0.98433	26
0.98800	24
0.99167	24
0.99533	24
0.99900	25
1.00267	26
1.00633	27
1.01000	27
1.01367	25
1.01733	25
1.02100	24
1.02467	23
1.02833	25
1.03200	27
1.03567	28
1.03933	29
1.04300	29
1.04667	29
1.05033	29
1.05400	29
1.05767	28
1.06133	26
1.06500	24
1.06867	23
1.07233	23
1.07600	26
1.07967	25
1.08333	25
1.08700	23
1.09067	20
1.09433	19
1.09800	18
1.10167	20
1.10533	21
1.10900	22
1.11267	20
1.11633	18
1.12000	20
1.12367	22
1.12733	25
1.13100	24
1.13467	22
1.13833	20
1.14200	19
1.14567	21
1.14933	23
1.15300	23
1.15667	24
1.16033	23
1.16400	20
1.16767	19
1.17133	19
1.17500	19
1.17867	21
1.18233	23
1.18600	21
1.18967	18
1.19333	17
1.19700	20
1.20067	22
1.20433	23
1.20800	24
1.21167	25
1.21533	25
1.21900	25
1.22267	24
1.22633	22
1.23000	22
1.23367	20
1.23733	16
1.24100	16
1.24467	17
1.24833	19
1.25200	18
1.25567	17
1.25933	16
1.26300	15
1.26667	15
1.27033	19
1.27400	20
1.27767	20
1.28133	19
1.28500	18
1.28867	17
1.29233	16
1.29600	16
1.29967	16
1.30333	13
1.30700	12
1.31067	13
1.31433	14
1.31800	13
1.32167	16
1.32533	19
1.32900	20
1.33267	20
1.33633	19
1.34000	19
1.34367	17
1.34733	15
1.35100	14
1.35467	14
1.35833	15
1.36200	13
1.36567	12
1.36933	13
1.37300	12
1.37667	11
1.38033	11
1.38400	11
1.38767	12
1.39133	14
1.39500	15
1.39867	14
1.40233	13
1.40600	12
1.40967	11
1.41333	10
1.41700	7
1.42067	8
1.42433	10
1.42800	10
1.43167	8
1.43533	8
1.43900	9
1.44267	9
1.44633	9
1.45000	8
1.45367	6
1.45733	7
1.46100	10
1.46467	11
1.46833	10
1.47200	10
1.47567	10
1.47933	9
1.48300	12
1.48667	14
1.49033	15
1.49400	12
1.49767	10
1.50133	9
1.50500	10
1.50867	13
1.51233	14
1.51600	15
1.51967	14
1.52333	12
1.52700	12
1.53067	13
1.53433	13
1.53800	13
1.54167	14
1.54533	13
1.54900	12
1.55267	12
1.55633	13
1.56000	14
1.56367	15
1.56733	14
1.57100	12
1.57467	10
1.57833	9
1.58200	11
1.58567	12
1.58933	13
1.59300	13
1.59667	15
1.60033	17
1.60400	16
1.60767	14
1.61133	15
1.61500	13
1.61867	13
1.62233	12
1.62600	13
1.62967	12
1.63333	14
1.63700	17
1.64067	18
1.64433	17
1.64800	17
1.65167	19
1.65533	22
1.65900	24
1.66267	25
1.66633	27
1.67000	26
1.67367	25
1.67733	25
1.68100	25
1.68467	24
1.68833	23
1.69200	22
1.69567	21
1.69933	23
1.70300	22
1.70667	22
1.71033	21
1.71400	21
1.71767	23
1.72133	25
1.72500	26
1.72867	28
1.73233	27
1.73600	27
1.73967	28
1.74333	29
1.74700	31
1.75067	31
1.75433	29
1.75800	28
1.76167	30
1.76533	31
1.76900	29
1.77267	29
1.77633	28
1.78000	28
1.78367	30
1.78733	33
1.79100	35
1.79467	35
1.79833	36
1.80200	37
1.80567	38
1.80933	38
1.81300	38
1.81667	38
1.82033	37
1.82400	37
1.82767	38
1.83133	41
1.83500	42
1.83867	42
1.84233	40
1.84600	39
1.84967	40
1.85333	41
1.85700	41
1.86067	40
1.86433	39
1.86800	38
1.87167	37
1.87533	39
1.87900	41
1.88267	42
1.88633	42
1.89000	42
1.89367	43
1.89733	46
1.90100	47
1.90467	47
1.90833	46
1.91200	46
1.91567	48
1.91933	50
1.92300	50
1.92667	49
1.93033	50
1.93400	51
1.93767	49
1.94133	48
1.94500	49
1.94867	51
1.95233	55
1.95600	56
1.95967	56
1.96333	56
1.96700	55
1.97067	54
1.97433	55
1.97800	55
1.98167	52
1.98533	49
1.98900	46
1.99267	48
1.99633	52
2.00000	57
2.00367	61
2.00733	64
2.01100	65
2.01467	64
2.01833	63
2.02200	63
2.02567	64
2.02933	64
2.03300	63
2.03667	64
2.04033	65
2.04400	65
2.04767	65
2.05133	65
2.05500	66
2.05867	68
2.06233	71
2.06600	70
2.06967	70
2.07333	72
2.07700	76
2.08067	77
2.08433	79
2.08800	81
2.09167	82
2.09533	83
2.09900	82
2.10267	82
2.10633	83
2.11000	85
2.11367	87
2.11733	87
2.12100	85
2.12467	86
2.12833	84
2.13200	84
2.13567	86
2.13933	89
2.14300	90
2.14667	90
2.15033	91
2.15400	93
2.15767	92
2.16133	95
2.16500	98
2.16867	100
2.17233	100
2.17600	99
2.17967	99
2.18333	101
2.18700	102
2.19067	103
2.19433	105
2.19800	106
2.20167	107
2.20533	106
2.20900	105
2.21267	107
2.21633	109
2.22000	109
2.22367	108
2.22733	109
2.23100	112
2.23467	113
2.23833	113
2.24200	113
2.24567	114
2.24933	114
2.25300	116
2.25667	115
2.26033	113
2.26400	111
2.26767	114
2.27133	115
2.27500	119
2.27867	122
2.28233	122
2.28600	121
2.28967	122
2.29333	124
2.29700	126
2.30067	127
2.30433	129
2.30800	132
2.31167	134
2.31533	135
2.31900	136
2.32267	136
2.32633	135
2.33000	136
2.33367	137
2.33733	138
2.34100	142
2.34467	145
2.34833	144
2.35200	145
2.35567	146
2.35933	143
2.36300	143
2.36667	144
2.37033	147
2.37400	152
2.37767	158
2.38133	159
2.38500	158
2.38867	155
2.39233	154
2.39600	156
2.39967	158
2.40333	160
2.40700	164
2.41067	168
2.41433	171
2.41800	173
2.42167	176
2.42533	178
2.42900	178
2.43267	177
2.43633	178
2.44000	178
2.44367	201
2.44733	265
2.45100	338
2.45467	390
2.45833	403
2.46200	392
2.46567	379
2.46933	370
2.47300	359
2.47667	341
2.48033	313
2.48400	283
2.48767	256
2.49133	237
2.49500	226
2.49867	222
2.50233	222
2.50600	227
2.50967	230
2.51333	235
2.51700	237
2.52067	231
2.52433	218
2.52800	205
2.53167	188
2.53533	170
2.53900	155
2.54267	143
2.54633	134
2.55000	129
2.55367	124
2.55733	120
2.56100	118
2.56467	115
2.56833	114
2.57200	113
2.57567	114
2.57933	118
2.58300	121
2.58667	123
2.59033	126
2.59400	132
2.59767	139
2.60133	147
2.60500	154
2.60867	158
2.61233	154
2.61600	140
2.61967	116
2.62333	85
2.62700	45
2.63067	2
2.63433	-40
2.63800	-81
2.64167	-118
2.64533	-149
2.64900	-176
2.65267	-199
2.65633	-215
2.66000	-226
2.66367	-232
2.66733	-233
2.67100	-230
2.67467	-224
2.67833	-218
2.68200	-220
2.68567	-236
2.68933	-244
2.69300	-230
2.69667	-196
2.70033	-153
2.70400	-116
2.70767	-92
2.71133	-77
2.71500	-56
2.71867	-23
2.72233	21
2.72600	72
2.72967	126
2.73333	179
2.73700	231
2.74067	282
2.74433	329
2.74800	369
2.75167	407
2.75533	441
2.75900	471
2.76267	497
2.76633	521
2.77000	544
2.77367	567
2.77733	586
2.78100	602
2.78467	615
2.78833	628
2.79200	640
2.79567	651
2.79933	660
2.80300	667
2.80667	672
2.81033	672
2.81400	671
2.81767	666
2.82133	661
2.82500	657
2.82867	653
2.83233	652
2.83600	660
2.83967	684
2.84333	739
2.84700	850
2.85067	1041
2.85433	1334
2.85800	1742
2.86167	2264
2.86533	2876
2.86900	3537
2.87267	4200
2.87633	4808
2.88000	5317
2.88367	5685
2.88733	5897
2.89100	5946
2.89467	5851
2.89833	5639
2.90200	5341
2.90567	4988
2.90933	4606
2.91300	4216
2.91667	3833
2.92033	3468
2.92400	3129
2.92767	2820
2.93133	2539
2.93500	2288
2.93867	2067
2.94233	1875
2.94600	1706
2.94967	1559
2.95333	1431
2.95700	1320
2.96067	1223
2.96433	1137
2.96800	1062
2.97167	999
2.97533	944
2.97900	899
2.98267	863
2.98633	832
2.99000	804
2.99367	779
2.99733	757
3.00100	738
3.00467	721
3.00833	708
3.01200	695
3.01567	684
3.01933	678
3.02300	674
3.02667	669
3.03033	663
3.03400	661
3.03767	661
3.04133	659
3.04500	657
3.04867	655
3.05233	654
3.05600	655
3.05967	656
3.06333	656
3.06700	654
3.07067	654
3.07433	653
3.07800	651
3.08167	650
3.08533	651
3.08900	650
3.09267	650
3.09633	648
3.10000	646
3.10367	644
3.10733	646
3.11100	645
3.11467	645
3.11833	646
3.12200	646
3.12567	644
3.12933	640
3.13300	635
3.13667	632
3.14033	630
3.14400	629
3.14767	627
3.15133	625
3.15500	623
3.15867	621
3.16233	621
3.16600	621
3.16967	618
3.17333	616
3.17700	611
3.18067	606
3.18433	604
3.18800	603
3.19167	603
3.19533	603
3.19900	603
3.20267	600
3.20633	596
3.21000	593
3.21367	591
3.21733	586
3.22100	584
3.22467	583
3.22833	581
3.23200	577
3.23567	572
3.23933	567
3.24300	565
3.24667	562
3.25033	558
3.25400	556
3.25767	555
3.26133	553
3.26500	549
3.26867	545
3.27233	540
3.27600	533
3.27967	528
3.28333	524
3.28700	520
3.29067	516
3.29433	514
3.29800	510
3.30167	505
3.30533	502
3.30900	499
3.31267	495
3.31633	492
3.32000	488
3.32367	485
3.32733	482
3.33100	478
3.33467	475
3.33833	471
3.34200	465
3.34567	460
3.34933	454
3.35300	448
3.35667	446
3.36033	443
3.36400	440
3.36767	436
3.37133	431
3.37500	425
3.37867	421
3.38233	416
3.38600	413
3.38967	409
3.39333	408
3.39700	404
3.40067	398
3.40433	394
3.40800	392
3.41167	390
3.41533	391
3.41900	391
3.42267	389
3.42633	387
3.43000	381
3.43367	374
3.43733	370
3.44100	368
3.44467	365
3.44833	362
3.45200	358
3.45567	356
3.45933	353
3.46300	349
3.46667	348
3.47033	348
3.47400	347
3.47767	342
3.48133	340
3.48500	341
3.48867	339
3.49233	334
3.49600	328
3.49967	323
3.50333	320
3.50700	316
3.51067	314
3.51433	311
3.51800	307
3.52167	304
3.52533	302
3.52900	298
3.53267	295
3.53633	293
3.54000	291
3.54367	288
3.54733	288
3.55100	290
3.55467	290
3.55833	287
3.56200	285
3.56567	281
3.56933	279
3.57300	276
3.57667	272
3.58033	271
3.58400	272
3.58767	271
3.59133	268
3.59500	265
3.59867	261
3.60233	259
3.60600	258
3.60967	260
3.61333	259
3.61700	261
3.62067	262
3.62433	262
3.62800	259
3.63167	255
3.63533	250
3.63900	247
3.64267	246
3.64633	247
3.65000	246
3.65367	246
3.65733	245
3.66100	242
3.66467	241
3.66833	238
3.67200	236
3.67567	236
3.67933	238
3.68300	237
3.68667	233
3.69033	231
3.69400	228
3.69767	226
3.70133	224
3.70500	223
3.70867	223
3.71233	221
3.71600	218
3.71967	220
3.72333	223
3.72700	223
3.73067	221
3.73433	216
3.73800	212
3.74167	212
3.74533	211
3.74900	210
3.75267	206
3.75633	205
3.76000	203
3.76367	201
3.76733	200
3.77100	202
3.77467	204
3.77833	206
3.78200	206
3.78567	207
3.78933	205
3.79300	202
3.79667	198
3.80033	199
3.80400	199
3.80767	199
3.81133	198
3.81500	200
3.81867	201
3.82233	197
3.82600	192
3.82967	190
3.83333	192
3.83700	193
3.84067	191
3.84433	191
3.84800	193
3.85167	193
3.85533	194
3.85900	194
3.86267	195
3.86633	194
3.87000	193
3.87367	192
3.87733	192
3.88100	192
3.88467	194
3.88833	195
3.89200	194
3.89567	194
3.89933	192
3.90300	189
3.90667	187
3.91033	185
3.91400	185
3.91767	185
3.92133	186
3.92500	187
3.92867	189
3.93233	189
3.93600	189
3.93967	188
3.94333	188
3.94700	187
3.95067	186
3.95433	186
3.95800	186
3.96167	185
3.96533	185
3.96900	186
3.97267	186
3.97633	184
3.98000	182
3.98367	181
3.98733	178
3.99100	176
3.99467	177
3.99833	177

[Status Trace (Column Oven Temperature)]
Interval(msec)	1000
# of Points	240
Start Time(min)	0.000
End Time(min)	3.984
Intensity Units	
Intensity Multiplier	1
R.Time (min)	Intensity
0.00040	35.03
0.01707	35.03
0.03373	35.03
0.05040	35.04
0.06707	35.04
0.08373	35.03
0.10040	35.03
0.11707	35.02
0.13373	35.03
0.15040	35.02
0.16707	35.02
0.18373	35.00
0.20040	35.00
0.21707	34.99
0.23373	34.99
0.25040	34.99
0.26707	34.99
0.28373	34.99
0.30040	34.99
0.31707	34.99
0.33373	34.98
0.35040	34.98
0.36707	34.97
0.38373	34.97
0.40040	34.98
0.41707	34.98
0.43373	34.99
0.45040	34.99
0.46707	34.99
0.48373	34.99
0.50040	34.99
0.51707	35.00
0.53373	34.99
0.55040	34.99
0.56707	34.99
0.58373	35.00
0.60040	35.00
0.61707	35.00
0.63373	35.00
0.65040	35.00
0.66707	35.00
0.68373	35.00
0.70040	35.00
0.71707	34.99
0.73373	34.98
0.75040	34.98
0.76707	34.99
0.78373	34.99
0.80040	35.00
0.81707	35.00
0.83373	35.01
0.85040	35.00
0.86707	35.00
0.88373	34.99
0.90040	34.99
0.91707	35.00
0.93373	35.00
0.95040	35.00
0.96707	34.99
0.98373	34.99
1.00040	35.00
1.01707	35.00
1.03373	35.00
1.05040	34.99
1.06707	34.99
1.08373	34.99
1.10040	34.99
1.11707	35.00
1.13373	34.99
1.15040	34.98
1.16707	34.99
1.18373	35.00
1.20040	35.00
1.21707	35.00
1.23373	35.00
1.25040	35.01
1.26707	35.01
1.28373	35.01
1.30040	35.01
1.31707	35.00
1.33373	35.00
1.35040	35.00
1.36707	35.01
1.38373	35.01
1.40040	35.00
1.41707	35.00
1.43373	35.00
1.45040	34.99
1.46707	34.99
1.48373	34.99
1.50040	34.98
1.51707	34.98
1.53373	34.98
1.55040	34.98
1.56707	34.99
1.58373	34.98
1.60040	35.02
1.61707	35.11
1.63373	35.28
1.65040	35.49
1.66707	35.78
1.68373	36.16
1.70040	36.51
1.71707	36.86
1.73373	37.19
1.75040	37.53
1.76707	37.85
1.78373	38.18
1.80040	38.53
1.81707	38.85
1.83373	39.18
1.85040	39.51
1.86707	39.84
1.88373	40.16
1.90040	40.50
1.91707	40.83
1.93373	41.15
1.95040	41.48
1.96707	41.79
1.98373	42.13
2.00040	42.45
2.01707	42.77
2.03373	43.10
2.05040	43.43
2.06707	43.74
2.08373	44.06
2.10040	44.40
2.11707	44.74
2.13373	45.07
2.15040	45.39
2.16707	45.70
2.18373	46.03
2.20040	46.37
2.21707	46.69
2.23373	47.00
2.25040	47.32
2.26707	47.69
2.28373	48.01
2.30040	48.34
2.31707	48.65
2.33373	49.01
2.35040	49.32
2.36707	49.56
2.38373	49.65
2.40040	49.66
2.41707	49.66
2.43373	49.67
2.45040	49.67
2.46707	49.67
2.48373	49.68
2.50040	49.69
2.51707	49.71
2.53373	49.71
2.55040	49.73
2.56707	49.73
2.58373	49.76
2.60040	49.77
2.61707	49.79
2.63373	49.80
2.65040	49.82
2.66707	49.82
2.68373	49.84
2.70040	49.84
2.71707	49.85
2.73373	49.86
2.75040	49.85
2.76707	49.85
2.78373	49.85
2.80040	49.87
2.81707	49.88
2.83373	49.88
2.85040	49.88
2.86707	49.88
2.88373	49.88
2.90040	49.89
2.91707	49.90
2.93373	49.91
2.95040	49.93
2.96707	49.93
2.98373	49.95
3.00040	49.97
3.01707	49.98
3.03373	49.99
3.05040	50.00
3.06707	50.02
3.08373	50.02
3.10040	50.03
3.11707	50.03
3.13373	50.03
3.15040	50.03
3.16707	50.04
3.18373	50.04
3.20040	50.06
3.21707	50.07
3.23373	50.07
3.25040	50.08
3.26707	50.09
3.28373	50.11
3.30040	50.11
3.31707	50.10
3.33373	50.09
3.35040	50.09
3.36707	50.08
3.38373	50.06
3.40040	50.05
3.41707	50.04
3.43373	50.04
3.45040	50.05
3.46707	50.04
3.48373	50.04
3.50040	50.05
3.51707	50.04
3.53373	50.05
3.55040	50.05
3.56707	50.06
3.58373	50.06
3.60040	50.06
3.61707	50.06
3.63373	50.06
3.65040	50.05
3.66707	50.05
3.68373	50.05
3.70040	50.05
3.71707	50.05
3.73373	50.04
3.75040	50.05
3.76707	50.05
3.78373	50.06
3.80040	50.07
3.81707	50.06
3.83373	50.06
3.85040	50.07
3.86707	50.07
3.88373	50.07
3.90040	50.07
3.91707	50.06
3.93373	50.06
3.95040	50.06
3.96707	50.06
3.98373	50.07

[Status Trace (Injection Unit Temperature)]
Interval(msec)	1000
# of Points	240
Start Time(min)	0.000
End Time(min)	3.984
Intensity Units	
Intensity Multiplier	1
R.Time (min)	Intensity
0.00040	99.99
0.01707	99.99
0.03373	99.99
0.05040	99.98
0.06707	99.99
0.08373	99.99
0.10040	99.99
0.11707	99.99
0.13373	99.99
0.15040	99.99
0.16707	99.99
0.18373	99.99
0.20040	99.99
0.21707	99.99
0.23373	99.99
0.25040	99.99
0.26707	99.99
0.28373	99.99
0.30040	99.99
0.31707	99.99
0.33373	99.99
0.35040	99.99
0.36707	99.99
0.38373	99.98
0.40040	99.99
0.41707	99.99
0.43373	99.99
0.45040	99.99
0.46707	99.99
0.48373	99.99
0.50040	99.99
0.51707	99.98
0.53373	99.99
0.55040	99.99
0.56707	99.98
0.58373	99.98
0.60040	99.99
0.61707	99.99
0.63373	99.98
0.65040	99.99
0.66707	99.98
0.68373	99.99
0.70040	99.98
0.71707	99.98
0.73373	99.98
0.75040	99.99
0.76707	99.99
0.78373	99.98
0.80040	99.98
0.81707	99.99
0.83373	99.98
0.85040	99.98
0.86707	99.98
0.88373	99.98
0.90040	99.98
0.91707	99.98
0.93373	99.98
0.95040	99.98
0.96707	99.98
0.98373	99.99
1.00040	99.98
1.01707	99.98
1.03373	99.98
1.05040	99.98
1.06707	99.99
1.08373	99.98
1.10040	99.98
1.11707	99.98
1.13373	99.98
1.15040	99.98
1.16707	99.99
1.18373	99.99
1.20040	99.98
1.21707	99.98
1.23373	99.98
1.25040	99.99
1.26707	99.99
1.28373	99.98
1.30040	99.99
1.31707	99.98
1.33373	99.98
1.35040	99.98
1.36707	99.98
1.38373	99.98
1.40040	99.98
1.41707	99.98
1.43373	99.98
1.45040	99.99
1.46707	99.98
1.48373	99.98
1.50040	99.98
1.51707	99.98
1.53373	99.99
1.55040	99.99
1.56707	99.99
1.58373	99.98
1.60040	99.99
1.61707	99.99
1.63373	99.99
1.65040	99.99
1.66707	99.99
1.68373	99.99
1.70040	99.99
1.71707	99.99
1.73373	99.99
1.75040	99.99
1.76707	99.99
1.78373	99.99
1.80040	99.99
1.81707	99.99
1.83373	99.98
1.85040	99.98
1.86707	99.98
1.88373	99.98
1.90040	99.98
1.91707	99.98
1.93373	99.98
1.95040	99.98
1.96707	99.98
1.98373	99.98
2.00040	99.98
2.01707	99.98
2.03373	99.97
2.05040	99.97
2.06707	99.98
2.08373	99.97
2.10040	99.97
2.11707	99.97
2.13373	99.97
2.15040	99.97
2.16707	99.97
2.18373	99.97
2.20040	99.97
2.21707	99.97
2.23373	99.97
2.25040	99.97
2.26707	99.97
2.28373	99.97
2.30040	99.97
2.31707	99.97
2.33373	99.97
2.35040	99.97
2.36707	99.97
2.38373	99.97
2.40040	99.97
2.41707	99.97
2.43373	99.97
2.45040	99.97
2.46707	99.98
2.48373	99.97
2.50040	99.97
2.51707	99.98
2.53373	99.98
2.55040	99.98
2.56707	99.98
2.58373	99.98
2.60040	99.98
2.61707	99.98
2.63373	99.98
2.65040	99.98
2.66707	99.98
2.68373	99.99
2.70040	99.99
2.71707	99.99
2.73373	99.99
2.75040	99.99
2.76707	99.99
2.78373	100.00
2.80040	99.99
2.81707	100.00
2.83373	100.00
2.85040	100.00
2.86707	100.00
2.88373	100.00
2.90040	100.01
2.91707	100.01
2.93373	100.01
2.95040	100.01
2.96707	100.01
2.98373	100.01
3.00040	100.01
3.01707	100.02
3.03373	100.02
3.05040	100.01
3.06707	100.02
3.08373	100.02
3.10040	100.02
3.11707	100.02
3.13373	100.02
3.15040	100.02
3.16707	100.02
3.18373	100.02
3.20040	100.03
3.21707	100.03
3.23373	100.03
3.25040	100.03
3.26707	100.03
3.28373	100.03
3.30040	100.03
3.31707	100.03
3.33373	100.03
3.35040	100.03
3.36707	100.03
3.38373	100.03
3.40040	100.03
3.41707	100.04
3.43373	100.04
3.45040	100.03
3.46707	100.04
3.48373	100.04
3.50040	100.04
3.51707	100.04
3.53373	100.04
3.55040	100.04
3.56707	100.04
3.58373	100.04
3.60040	100.05
3.61707	100.05
3.63373	100.05
3.65040	100.05
3.66707	100.05
3.68373	100.05
3.70040	100.05
3.71707	100.05
3.73373	100.05
3.75040	100.05
3.76707	100.05
3.78373	100.05
3.80040	100.05
3.81707	100.05
3.83373	100.05
3.85040	100.05
3.86707	100.05
3.88373	100.05
3.90040	100.05
3.91707	100.04
3.93373	100.05
3.95040	100.05
3.96707	100.05
3.98373	100.05

[Status Trace (Carrier Gas Pressure)]
Interval(msec)	1000
# of Points	240
Start Time(min)	0.000
End Time(min)	3.984
Intensity Units	
Intensity Multiplier	1
R.Time (min)	Intensity
0.00040	58.00
0.01707	56.84
0.03373	55.93
0.05040	58.28
0.06707	59.90
0.08373	58.50
0.10040	57.97
0.11707	58.00
0.13373	58.01
0.15040	58.01
0.16707	58.00
0.18373	58.00
0.20040	58.00
0.21707	58.00
0.23373	58.00
0.25040	58.00
0.26707	58.00
0.28373	58.00
0.30040	58.00
0.31707	58.00
0.33373	58.00
0.35040	58.00
0.36707	58.00
0.38373	58.00
0.40040	58.00
0.41707	58.00
0.43373	58.00
0.45040	58.00
0.46707	58.00
0.48373	58.00
0.50040	58.00
0.51707	58.00
0.53373	58.00
0.55040	58.00
0.56707	58.00
0.58373	58.00
0.60040	58.00
0.61707	58.00
0.63373	58.00
0.65040	58.00
0.66707	58.00
0.68373	58.00
0.70040	58.00
0.71707	58.00
0.73373	58.00
0.75040	58.00
0.76707	58.00
0.78373	58.00
0.80040	58.00
0.81707	58.00
0.83373	58.00
0.85040	58.00
0.86707	58.00
0.88373	58.00
0.90040	58.00
0.91707	58.00
0.93373	58.00
0.95040	58.00
0.96707	58.00
0.98373	58.00
1.00040	58.00
1.01707	58.00
1.03373	58.00
1.05040	58.00
1.06707	58.00
1.08373	58.00
1.10040	58.00
1.11707	58.00
1.13373	58.00
1.15040	58.00
1.16707	58.00
1.18373	58.00
1.20040	58.00
1.21707	58.00
1.23373	58.00
1.25040	58.00
1.26707	58.00
1.28373	58.00
1.30040	58.00
1.31707	58.00
1.33373	58.00
1.35040	58.00
1.36707	58.00
1.38373	58.00
1.40040	58.00
1.41707	58.00
1.43373	58.00
1.45040	58.00
1.46707	58.00
1.48373	58.00
1.50040	58.00
1.51707	58.00
1.53373	58.00
1.55040	58.00
1.56707	58.00
1.58373	58.00
1.60040	58.00
1.61707	58.00
1.63373	58.01
1.65040	58.00
1.66707	58.01
1.68373	58.01
1.70040	58.00
1.71707	58.00
1.73373	58.00
1.75040	58.00
1.76707	58.00
1.78373	58.00
1.80040	58.00
1.81707	58.00
1.83373	58.00
1.85040	58.00
1.86707	58.00
1.88373	58.00
1.90040	58.00
1.91707	58.00
1.93373	58.00
1.95040	58.00
1.96707	58.00
1.98373	58.00
2.00040	58.00
2.01707	58.00
2.03373	58.00
2.05040	58.00
2.06707	58.00
2.08373	58.00
2.10040	58.00
2.11707	58.00
2.13373	58.00
2.15040	58.00
2.16707	58.00
2.18373	58.00
2.20040	58.00
2.21707	58.00
2.23373	58.00
2.25040	58.00
2.26707	58.00
2.28373	58.00
2.30040	58.00
2.31707	58.00
2.33373	58.00
2.35040	58.00
2.36707	58.00
2.38373	57.99
2.40040	57.99
2.41707	58.00
2.43373	58.00
2.45040	58.00
2.46707	58.00
2.48373	58.00
2.50040	58.00
2.51707	57.99
2.53373	57.99
2.55040	58.00
2.56707	58.00
2.58373	58.00
2.60040	58.00
2.61707	58.00
2.63373	58.00
2.65040	58.00
2.66707	58.00
2.68373	58.00
2.70040	58.00
2.71707	58.00
2.73373	58.00
2.75040	58.00
2.76707	58.00
2.78373	58.00
2.80040	58.00
2.81707	58.00
2.83373	58.00
2.85040	58.00
2.86707	58.00
2.88373	58.00
2.90040	58.00
2.91707	58.00
2.93373	58.00
2.95040	58.00
2.96707	58.00
2.98373	58.00
3.00040	58.00
3.01707	58.00
3.03373	58.00
3.05040	58.00
3.06707	58.00
3.08373	58.00
3.10040	58.00
3.11707	58.00
3.13373	58.00
3.15040	58.00
3.16707	58.00
3.18373	58.00
3.20040	58.00
3.21707	58.00
3.23373	58.00
3.25040	58.00
3.26707	58.00
3.28373	58.00
3.30040	58.00
3.31707	58.00
3.33373	58.00
3.35040	58.00
3.36707	58.00
3.38373	58.00
3.40040	58.00
3.41707	58.00
3.43373	58.00
3.45040	58.00
3.46707	58.00
3.48373	58.00
3.50040	58.00
3.51707	58.00
3.53373	58.00
3.55040	58.00
3.56707	58.00
3.58373	58.00
3.60040	58.00
3.61707	58.00
3.63373	58.00
3.65040	58.00
3.66707	58.00
3.68373	58.00
3.70040	58.00
3.71707	58.00
3.73373	58.00
3.75040	58.00
3.76707	58.00
3.78373	58.00
3.80040	58.00
3.81707	58.00
3.83373	58.00
3.85040	58.00
3.86707	58.00
3.88373	58.00
3.90040	58.00
3.91707	58.00
3.93373	58.00
3.95040	58.00
3.96707	58.00
3.98373	58.00

[Status Trace (Carrier Gas Flow)]
Interval(msec)	1000
# of Points	240
Start Time(min)	0.000
End Time(min)	3.984
Intensity Units	
Intensity Multiplier	1
R.Time (min)	Intensity
0.00040	34.52
0.01707	33.91
0.03373	34.53
0.05040	34.55
0.06707	34.51
0.08373	34.52
0.10040	34.51
0.11707	34.52
0.13373	34.52
0.15040	34.52
0.16707	34.52
0.18373	34.52
0.20040	34.52
0.21707	34.52
0.23373	34.52
0.25040	34.52
0.26707	34.52
0.28373	34.52
0.30040	34.52
0.31707	34.52
0.33373	34.52
0.35040	34.52
0.36707	34.52
0.38373	34.52
0.40040	34.52
0.41707	34.52
0.43373	34.52
0.45040	34.52
0.46707	34.52
0.48373	34.52
0.50040	34.52
0.51707	34.52
0.53373	34.52
0.55040	34.52
0.56707	34.52
0.58373	34.52
0.60040	34.52
0.61707	34.52
0.63373	34.52
0.65040	34.52
0.66707	34.52
0.68373	34.52
0.70040	34.52
0.71707	34.52
0.73373	34.52
0.75040	34.52
0.76707	34.52
0.78373	34.52
0.80040	34.52
0.81707	34.52
0.83373	34.52
0.85040	34.52
0.86707	34.52
0.88373	34.52
0.90040	34.52
0.91707	34.52
0.93373	34.52
0.95040	34.52
0.96707	34.52
0.98373	34.52
1.00040	34.52
1.01707	34.52
1.03373	34.52
1.05040	34.52
1.06707	34.52
1.08373	34.52
1.10040	34.52
1.11707	34.52
1.13373	34.52
1.15040	34.52
1.16707	34.52
1.18373	34.52
1.20040	34.52
1.21707	34.52
1.23373	34.52
1.25040	34.52
1.26707	34.52
1.28373	34.52
1.30040	34.52
1.31707	34.52
1.33373	34.52
1.35040	34.52
1.36707	34.52
1.38373	34.52
1.40040	34.52
1.41707	34.52
1.43373	34.52
1.45040	34.52
1.46707	34.52
1.48373	34.52
1.50040	34.52
1.51707	34.52
1.53373	34.52
1.55040	34.52
1.56707	34.52
1.58373	34.52
1.60040	34.52
1.61707	34.52
1.63373	34.52
1.65040	34.52
1.66707	34.52
1.68373	34.52
1.70040	34.52
1.71707	34.52
1.73373	34.52
1.75040	34.52
1.76707	34.52
1.78373	34.52
1.80040	34.52
1.81707	34.52
1.83373	34.52
1.85040	34.52
1.86707	34.52
1.88373	34.52
1.90040	34.52
1.91707	34.52
1.93373	34.52
1.95040	34.52
1.96707	34.52
1.98373	34.52
2.00040	34.52
2.01707	34.52
2.03373	34.52
2.05040	34.52
2.06707	34.52
2.08373	34.52
2.10040	34.52
2.11707	34.52
2.13373	34.52
2.15040	34.52
2.16707	34.52
2.18373	34.52
2.20040	34.52
2.21707	34.52
2.23373	34.52
2.25040	34.52
2.26707	34.52
2.28373	34.52
2.30040	34.52
2.31707	34.52
2.33373	34.52
2.35040	34.52
2.36707	34.52
2.38373	34.52
2.40040	34.52
2.41707	34.52
2.43373	34.52
2.45040	34.52
2.46707	34.52
2.48373	34.52
2.50040	34.52
2.51707	34.52
2.53373	34.52
2.55040	34.52
2.56707	34.52
2.58373	34.52
2.60040	34.52
2.61707	34.52
2.63373	34.52
2.65040	34.52
2.66707	34.52
2.68373	34.52
2.70040	34.52
2.71707	34.52
2.73373	34.52
2.75040	34.52
2.76707	34.52
2.78373	34.52
2.80040	34.52
2.81707	34.52
2.83373	34.52
2.85040	34.52
2.86707	34.52
2.88373	34.52
2.90040	34.52
2.91707	34.52
2.93373	34.52
2.95040	34.52
2.96707	34.52
2.98373	34.52
3.00040	34.52
3.01707	34.52
3.03373	34.52
3.05040	34.52
3.06707	34.52
3.08373	34.52
3.10040	34.52
3.11707	34.52
3.13373	34.52
3.15040	34.52
3.16707	34.52
3.18373	34.52
3.20040	34.52
3.21707	34.52
3.23373	34.52
3.25040	34.52
3.26707	34.52
3.28373	34.52
3.30040	34.52
3.31707	34.52
3.33373	34.52
3.35040	34.52
3.36707	34.52
3.38373	34.52
3.40040	34.52
3.41707	34.52
3.43373	34.52
3.45040	34.52
3.46707	34.52
3.48373	34.52
3.50040	34.52
3.51707	34.52
3.53373	34.52
3.55040	34.52
3.56707	34.52
3.58373	34.52
3.60040	34.52
3.61707	34.52
3.63373	34.52
3.65040	34.52
3.66707	34.52
3.68373	34.52
3.70040	34.52
3.71707	34.52
3.73373	34.52
3.75040	34.52
3.76707	34.52
3.78373	34.52
3.80040	34.52
3.81707	34.52
3.83373	34.52
3.85040	34.52
3.86707	34.52
3.88373	34.52
3.90040	34.52
3.91707	34.52
3.93373	34.52
3.95040	34.52
3.96707	34.52
3.98373	34.52

[Status Trace (Column Flow)]
Interval(msec)	1000
# of Points	240
Start Time(min)	0.000
End Time(min)	3.984
Intensity Units	
Intensity Multiplier	1
R.Time (min)	Intensity
0.00040	5.47
0.01707	5.33
0.03373	5.23
0.05040	5.50
0.06707	5.69
0.08373	5.53
0.10040	5.46
0.11707	5.47
0.13373	5.47
0.15040	5.47
0.16707	5.47
0.18373	5.47
0.20040	5.47
0.21707	5.47
0.23373	5.47
0.25040	5.47
0.26707	5.47
0.28373	5.47
0.30040	5.47
0.31707	5.47
0.33373	5.47
0.35040	5.47
0.36707	5.47
0.38373	5.47
0.40040	5.47
0.41707	5.47
0.43373	5.47
0.45040	5.47
0.46707	5.47
0.48373	5.47
0.50040	5.47
0.51707	5.47
0.53373	5.47
0.55040	5.47
0.56707	5.47
0.58373	5.47
0.60040	5.47
0.61707	5.47
0.63373	5.47
0.65040	5.47
0.66707	5.47
0.68373	5.47
0.70040	5.47
0.71707	5.47
0.73373	5.47
0.75040	5.47
0.76707	5.47
0.78373	5.47
0.80040	5.47
0.81707	5.47
0.83373	5.47
0.85040	5.47
0.86707	5.47
0.88373	5.47
0.90040	5.47
0.91707	5.47
0.93373	5.47
0.95040	5.47
0.96707	5.47
0.98373	5.47
1.00040	5.47
1.01707	5.47
1.03373	5.47
1.05040	5.47
1.06707	5.47
1.08373	5.47
1.10040	5.47
1.11707	5.47
1.13373	5.47
1.15040	5.47
1.16707	5.47
1.18373	5.47
1.20040	5.47
1.21707	5.47
1.23373	5.47
1.25040	5.47
1.26707	5.47
1.28373	5.47
1.30040	5.47
1.31707	5.47
1.33373	5.47
1.35040	5.47
1.36707	5.47
1.38373	5.47
1.40040	5.47
1.41707	5.47
1.43373	5.47
1.45040	5.47
1.46707	5.47
1.48373	5.47
1.50040	5.47
1.51707	5.47
1.53373	5.47
1.55040	5.47
1.56707	5.47
1.58373	5.47
1.60040	5.47
1.61707	5.47
1.63373	5.46
1.65040	5.45
1.66707	5.45
1.68373	5.43
1.70040	5.42
1.71707	5.41
1.73373	5.40
1.75040	5.39
1.76707	5.38
1.78373	5.37
1.80040	5.36
1.81707	5.35
1.83373	5.34
1.85040	5.33
1.86707	5.32
1.88373	5.31
1.90040	5.30
1.91707	5.29
1.93373	5.28
1.95040	5.27
1.96707	5.26
1.98373	5.25
2.00040	5.24
2.01707	5.24
2.03373	5.22
2.05040	5.22
2.06707	5.21
2.08373	5.20
2.10040	5.19
2.11707	5.18
2.13373	5.17
2.15040	5.16
2.16707	5.15
2.18373	5.14
2.20040	5.13
2.21707	5.12
2.23373	5.11
2.25040	5.10
2.26707	5.10
2.28373	5.09
2.30040	5.08
2.31707	5.07
2.33373	5.06
2.35040	5.05
2.36707	5.04
2.38373	5.04
2.40040	5.04
2.41707	5.04
2.43373	5.04
2.45040	5.04
2.46707	5.04
2.48373	5.04
2.50040	5.04
2.51707	5.04
2.53373	5.04
2.55040	5.04
2.56707	5.04
2.58373	5.04
2.60040	5.04
2.61707	5.04
2.63373	5.04
2.65040	5.03
2.66707	5.03
2.68373	5.03
2.70040	5.03
2.71707	5.03
2.73373	5.03
2.75040	5.03
2.76707	5.03
2.78373	5.03
2.80040	5.03
2.81707	5.03
2.83373	5.03
2.85040	5.03
2.86707	5.03
2.88373	5.03
2.90040	5.03
2.91707	5.03
2.93373	5.03
2.95040	5.03
2.96707	5.03
2.98373	5.03
3.00040	5.03
3.01707	5.03
3.03373	5.03
3.05040	5.03
3.06707	5.03
3.08373	5.03
3.10040	5.03
3.11707	5.03
3.13373	5.03
3.15040	5.03
3.16707	5.03
3.18373	5.03
3.20040	5.03
3.21707	5.03
3.23373	5.03
3.25040	5.03
3.26707	5.03
3.28373	5.03
3.30040	5.03
3.31707	5.03
3.33373	5.03
3.35040	5.03
3.36707	5.03
3.38373	5.03
3.40040	5.03
3.41707	5.03
3.43373	5.03
3.45040	5.03
3.46707	5.03
3.48373	5.03
3.50040	5.03
3.51707	5.03
3.53373	5.03
3.55040	5.03
3.56707	5.03
3.58373	5.03
3.60040	5.03
3.61707	5.03
3.63373	5.03
3.65040	5.03
3.66707	5.03
3.68373	5.03
3.70040	5.03
3.71707	5.03
3.73373	5.03
3.75040	5.03
3.76707	5.03
3.78373	5.03
3.80040	5.03
3.81707	5.03
3.83373	5.03
3.85040	5.03
3.86707	5.03
3.88373	5.03
3.90040	5.03
3.91707	5.03
3.93373	5.03
3.95040	5.03
3.96707	5.03
3.98373	5.03

[Status Trace (Linear Velocity)]
Interval(msec)	1000
# of Points	240
Start Time(min)	0.000
End Time(min)	3.984
Intensity Units	
Intensity Multiplier	1
R.Time (min)	Intensity
0.00040	39.00
0.01707	38.24
0.03373	37.64
0.05040	39.18
0.06707	40.24
0.08373	39.33
0.10040	38.98
0.11707	39.00
0.13373	39.01
0.15040	39.01
0.16707	39.01
0.18373	39.01
0.20040	39.01
0.21707	39.01
0.23373	39.01
0.25040	39.01
0.26707	39.01
0.28373	39.01
0.30040	39.01
0.31707	39.01
0.33373	39.01
0.35040	39.01
0.36707	39.01
0.38373	39.01
0.40040	39.01
0.41707	39.01
0.43373	39.01
0.45040	39.01
0.46707	39.01
0.48373	39.01
0.50040	39.01
0.51707	39.00
0.53373	39.01
0.55040	39.01
0.56707	39.01
0.58373	39.00
0.60040	39.00
0.61707	39.00
0.63373	39.00
0.65040	39.00
0.66707	39.00
0.68373	39.00
0.70040	39.00
0.71707	39.01
0.73373	39.01
0.75040	39.01
0.76707	39.01
0.78373	39.01
0.80040	39.00
0.81707	39.00
0.83373	39.00
0.85040	39.00
0.86707	39.00
0.88373	39.01
0.90040	39.01
0.91707	39.00
0.93373	39.00
0.95040	39.00
0.96707	39.01
0.98373	39.01
1.00040	39.00
1.01707	39.00
1.03373	39.00
1.05040	39.00
1.06707	39.00
1.08373	39.00
1.10040	39.01
1.11707	39.00
1.13373	39.01
1.15040	39.01
1.16707	39.01
1.18373	39.00
1.20040	39.00
1.21707	39.00
1.23373	39.00
1.25040	39.00
1.26707	39.00
1.28373	39.00
1.30040	39.00
1.31707	39.00
1.33373	39.00
1.35040	39.00
1.36707	39.00
1.38373	39.00
1.40040	39.00
1.41707	39.00
1.43373	39.00
1.45040	39.01
1.46707	39.01
1.48373	39.01
1.50040	39.01
1.51707	39.01
1.53373	39.01
1.55040	39.01
1.56707	39.01
1.58373	39.01
1.60040	39.00
1.61707	39.00
1.63373	38.98
1.65040	38.96
1.66707	38.94
1.68373	38.90
1.70040	38.86
1.71707	38.83
1.73373	38.80
1.75040	38.76
1.76707	38.74
1.78373	38.70
1.80040	38.67
1.81707	38.64
1.83373	38.61
1.85040	38.58
1.86707	38.55
1.88373	38.51
1.90040	38.48
1.91707	38.46
1.93373	38.42
1.95040	38.39
1.96707	38.37
1.98373	38.33
2.00040	38.30
2.01707	38.28
2.03373	38.24
2.05040	38.21
2.06707	38.19
2.08373	38.15
2.10040	38.12
2.11707	38.10
2.13373	38.06
2.15040	38.03
2.16707	38.01
2.18373	37.98
2.20040	37.94
2.21707	37.92
2.23373	37.89
2.25040	37.86
2.26707	37.83
2.28373	37.80
2.30040	37.77
2.31707	37.74
2.33373	37.71
2.35040	37.68
2.36707	37.66
2.38373	37.65
2.40040	37.65
2.41707	37.65
2.43373	37.65
2.45040	37.65
2.46707	37.65
2.48373	37.65
2.50040	37.65
2.51707	37.64
2.53373	37.64
2.55040	37.65
2.56707	37.64
2.58373	37.64
2.60040	37.64
2.61707	37.64
2.63373	37.64
2.65040	37.64
2.66707	37.64
2.68373	37.63
2.70040	37.64
2.71707	37.63
2.73373	37.63
2.75040	37.63
2.76707	37.63
2.78373	37.63
2.80040	37.63
2.81707	37.63
2.83373	37.63
2.85040	37.63
2.86707	37.63
2.88373	37.63
2.90040	37.63
2.91707	37.63
2.93373	37.63
2.95040	37.63
2.96707	37.63
2.98373	37.63
3.00040	37.62
3.01707	37.62
3.03373	37.62
3.05040	37.62
3.06707	37.62
3.08373	37.62
3.10040	37.62
3.11707	37.62
3.13373	37.62
3.15040	37.62
3.16707	37.62
3.18373	37.62
3.20040	37.62
3.21707	37.61
3.23373	37.61
3.25040	37.61
3.26707	37.61
3.28373	37.61
3.30040	37.61
3.31707	37.61
3.33373	37.61
3.35040	37.61
3.36707	37.61
3.38373	37.61
3.40040	37.62
3.41707	37.62
3.43373	37.62
3.45040	37.62
3.46707	37.62
3.48373	37.62
3.50040	37.62
3.51707	37.62
3.53373	37.62
3.55040	37.62
3.56707	37.62
3.58373	37.61
3.60040	37.62
3.61707	37.61
3.63373	37.61
3.65040	37.62
3.66707	37.62
3.68373	37.62
3.70040	37.62
3.71707	37.62
3.73373	37.62
3.75040	37.62
3.76707	37.62
3.78373	37.62
3.80040	37.61
3.81707	37.61
3.83373	37.61
3.85040	37.61
3.86707	37.61
3.88373	37.61
3.90040	37.61
3.91707	37.61
3.93373	37.61
3.95040	37.61
3.96707	37.62
3.98373	37.61

