[Header]
Application Name	LabSolutions
Version	5.110
Data File Name	C:\Users\User\Desktop\GC Analyses\Jack\UIC Prairie Sampling\9.30.22\220930_022.gcd
Output Date	1/4/2023
Output Time	2:27:59 PM

[File Information]
Type	Data File
Generated	11/29/2022 2:51:10 PM
Generated by	System Administrator
Modified	11/29/2022 2:55:31 PM
Modified by	System Administrator

[Sample Information]
Operator Name	System Administrator
Acquired	11/29/2022 2:51:30 PM
Sample Type	1:Standard
Level	1
Sample Name	220930_UICPrairie
Sample ID	220930_UICPrairie
ISTD Amount1	1
ISTD Amount2	1
ISTD Amount3	1
ISTD Amount4	1
ISTD Amount5	1
ISTD Amount6	1
ISTD Amount7	1
ISTD Amount8	1
ISTD Amount9	1
ISTD Amount10	1
ISTD Amount11	1
ISTD Amount12	1
ISTD Amount13	1
ISTD Amount14	1
ISTD Amount15	1
ISTD Amount16	1
ISTD Amount17	1
ISTD Amount18	1
ISTD Amount19	1
ISTD Amount20	1
ISTD Amount21	1
ISTD Amount22	1
ISTD Amount23	1
ISTD Amount24	1
ISTD Amount25	1
ISTD Amount26	1
ISTD Amount27	1
ISTD Amount28	1
ISTD Amount29	1
ISTD Amount30	1
ISTD Amount31	1
ISTD Amount32	1
Sample Amount	1
Dilution Factor	1
Vial#	1
Injection Volume	1
Injection Count	1
Bar Code	

[Original Files]
Data File	C:\Users\User\Desktop\GC Analyses\Jack\UIC Prairie Sampling\9.30.22\220930_022.gcd
Method File	C:\LabSolutions\Data\GHG_4min_2022\ghg3_togas_w_acet_4 min_new_int.gcm
Batch File	
Report Format File	c:\LabSolutions\System\DEFAULT.lsr

[File Description]


[Configuration]
Instrument Name	C0B7VH3-Instrument1
Instrument #	1
Line #	1
# of Detectors	3
Detector ID	DET#1	DET#2	DET#3
Detector Name	FID	PTCD	ECD
# of Channels	1	1	1

[Peak Table(Ch1)]
# of Peaks	3
Peak#	R.Time	I.Time	F.Time	Area	Height	A/H	Conc.	Mark	ID#	Name	k'	Plate #	Plate Ht.	Tailing	Resolution	Sep.Factor	Area Ratio	Height Ratio	Conc. %	Norm Conc.
1	1.476	1.435	1.538	11595	5148	2.252	100.000	   	1	CO	0.000	8506	17.634	1.343	0.000	0.000	0	0	16.667	16.667
2	1.571	1.538	1.641	5114	2546	2.009	100.000	 V 	2	CH4	0.065	11306	13.268	0.000	1.549	0.000	0	0	16.667	16.667
3	2.000	1.952	2.440	1578558	760884	2.075	400.000	   	3	CO2	0.355	17857	8.400	1.202	7.212	5.500	0	0	66.667	66.667

[Peak Table(Ch2)]
# of Peaks	0

[Peak Table(Ch3)]
# of Peaks	6
Peak#	R.Time	I.Time	F.Time	Area	Height	A/H	Conc.	Mark	ID#	Name	k'	Plate #	Plate Ht.	Tailing	Resolution	Sep.Factor	Area Ratio	Height Ratio	Conc. %	Norm Conc.
1	0.896	0.706	1.149	157	14	10.893	0.000	   			0.000	2399	62.525	1.092	0.000	0.000	0	0	0.000	0.000
2	2.458	2.293	2.502	1713	351	4.879	0.000	   			1.743	5747	26.102	0.000	15.395	0.000	0	0	0.000	0.000
3	2.524	2.502	2.565	832	257	3.242	0.000	 V 			1.816	1564	95.929	0.000	0.343	1.042	0	0	0.000	0.000
4	2.609	2.565	2.656	883	231	3.823	0.000	 V 			1.910	2410	62.238	0.000	0.360	1.052	0	0	0.000	0.000
5	2.887	2.682	3.027	21880	5441	4.021	1.000	   	1	N2O	2.221	12964	11.570	1.510	1.775	1.163	0	0	50.000	50.000
6	3.265	3.027	3.995	14657	444	33.040	1.000	 V 	2	SF6	2.643	230	651.895	0.000	0.785	1.190	0	0	50.000	50.000

[Compound Results(Ch1)]
# of IDs	6
ID#	Name	R.Time	Area	Height	Conc.	Curve	3rd	2nd	1st	Constant	Area Ratio	Height Ratio	Conc. %	Norm Conc.
1	CO	1.476	11595	5148	100.000	Linear	0.000000e+00	0.000000e+00	1.159518e+002	0.000000e+00	0	0	16.667	16.667
2	CH4	1.571	5114	2546	100.000	Linear	0.000000e+00	0.000000e+00	5.114218e+001	0.000000e+00	0	0	16.667	16.667
3	CO2	2.000	1578558	760884	400.000	Linear	0.000000e+00	0.000000e+00	3.946396e+003	0.000000e+00	0	0	66.667	66.667
4	Ethylene	0.000	0	0	0.000	Linear	0.000000e+00	0.000000e+00	0.000000e+00	0.000000e+00	0	0	0.000	0.000
5	Acetylene	0.000	0	0	0.000	Linear	0.000000e+00	0.000000e+00	0.000000e+00	0.000000e+00	0	0	0.000	0.000
6	Ethane	0.000	0	0	0.000	Linear	0.000000e+00	0.000000e+00	0.000000e+00	0.000000e+00	0	0	0.000	0.000

[Compound Results(Ch2)]
# of IDs	5
ID#	Name	R.Time	Area	Height	Conc.	Curve	3rd	2nd	1st	Constant	Area Ratio	Height Ratio	Conc. %	Norm Conc.
1	Hydrogen	0.000	0	0	0.000	Linear	0.000000e+00	0.000000e+00	0.000000e+00	0.000000e+00	0	0	0.000	0.000
2	Oxygen	0.000	0	0	0.000	Linear	0.000000e+00	0.000000e+00	0.000000e+00	0.000000e+00	0	0	0.000	0.000
3	Nitrogen	0.000	0	0	0.000	Linear	0.000000e+00	0.000000e+00	0.000000e+00	0.000000e+00	0	0	0.000	0.000
4	Methane	0.000	0	0	0.000	Linear	0.000000e+00	0.000000e+00	0.000000e+00	0.000000e+00	0	0	0.000	0.000
5	Carbon Monoxide	0.000	0	0	0.000	Linear	0.000000e+00	0.000000e+00	0.000000e+00	0.000000e+00	0	0	0.000	0.000

[Compound Results(Ch3)]
# of IDs	2
ID#	Name	R.Time	Area	Height	Conc.	Curve	3rd	2nd	1st	Constant	Area Ratio	Height Ratio	Conc. %	Norm Conc.
1	N2O	2.887	21880	5441	1.000	Linear	0.000000e+00	0.000000e+00	2.188028e+004	0.000000e+00	0	0	50.000	50.000
2	SF6	3.265	14657	444	1.000	Linear	0.000000e+00	0.000000e+00	1.465680e+004	0.000000e+00	0	0	50.000	50.000

[Group Results(Ch1)]
# of Groups	0

[Group Results(Ch2)]
# of Groups	0

[Group Results(Ch3)]
# of Groups	0

[Chromatogram (Ch1)]
Interval(msec)	220
# of Points	1091
Start Time(min)	0.002
End Time(min)	3.998
R.Time (min)	Intensity
0.00167	-7
0.00533	-14
0.00900	-19
0.01267	-19
0.01633	-18
0.02000	-22
0.02367	-27
0.02733	-29
0.03100	-25
0.03467	-15
0.03833	-6
0.04200	-5
0.04567	-8
0.04933	-12
0.05300	-13
0.05667	-13
0.06033	-13
0.06400	-14
0.06767	-16
0.07133	-18
0.07500	-21
0.07867	-24
0.08233	-24
0.08600	-21
0.08967	-14
0.09333	-6
0.09700	-1
0.10067	1
0.10433	-2
0.10800	-6
0.11167	-13
0.11533	-19
0.11900	-24
0.12267	-28
0.12633	-30
0.13000	-31
0.13367	-27
0.13733	-25
0.14100	-26
0.14467	-29
0.14833	-31
0.15200	-32
0.15567	-28
0.15933	-22
0.16300	-16
0.16667	-8
0.17033	-1
0.17400	3
0.17767	-0
0.18133	-5
0.18500	-10
0.18867	-17
0.19233	-25
0.19600	-31
0.19967	-37
0.20333	-41
0.20700	-42
0.21067	-41
0.21433	-40
0.21800	-35
0.22167	-28
0.22533	-24
0.22900	-24
0.23267	-24
0.23633	-25
0.24000	-30
0.24367	-36
0.24733	-40
0.25100	-41
0.25467	-41
0.25833	-41
0.26200	-35
0.26567	-30
0.26933	-26
0.27300	-24
0.27667	-21
0.28033	-21
0.28400	-23
0.28767	-24
0.29133	-25
0.29500	-29
0.29867	-34
0.30233	-37
0.30600	-37
0.30967	-37
0.31333	-39
0.31700	-40
0.32067	-40
0.32433	-35
0.32800	-34
0.33167	-35
0.33533	-35
0.33900	-35
0.34267	-33
0.34633	-28
0.35000	-24
0.35367	-21
0.35733	-20
0.36100	-20
0.36467	-19
0.36833	-16
0.37200	-15
0.37567	-18
0.37933	-24
0.38300	-30
0.38667	-32
0.39033	-35
0.39400	-40
0.39767	-47
0.40133	-51
0.40500	-49
0.40867	-45
0.41233	-43
0.41600	-41
0.41967	-38
0.42333	-38
0.42700	-42
0.43067	-49
0.43433	-54
0.43800	-55
0.44167	-56
0.44533	-58
0.44900	-59
0.45267	-59
0.45633	-58
0.46000	-58
0.46367	-56
0.46733	-52
0.47100	-50
0.47467	-51
0.47833	-54
0.48200	-56
0.48567	-54
0.48933	-52
0.49300	-48
0.49667	-48
0.50033	-52
0.50400	-51
0.50767	-44
0.51133	-36
0.51500	-32
0.51867	-32
0.52233	-35
0.52600	-38
0.52967	-41
0.53333	-43
0.53700	-44
0.54067	-43
0.54433	-39
0.54800	-35
0.55167	-30
0.55533	-29
0.55900	-32
0.56267	-40
0.56633	-47
0.57000	-52
0.57367	-53
0.57733	-48
0.58100	-44
0.58467	-39
0.58833	-31
0.59200	-25
0.59567	-23
0.59933	-27
0.60300	-32
0.60667	-39
0.61033	-46
0.61400	-53
0.61767	-56
0.62133	-57
0.62500	-55
0.62867	-53
0.63233	-53
0.63600	-55
0.63967	-57
0.64333	-59
0.64700	-65
0.65067	-73
0.65433	-76
0.65800	-73
0.66167	-68
0.66533	-67
0.66900	-69
0.67267	-73
0.67633	-73
0.68000	-71
0.68367	-69
0.68733	-69
0.69100	-71
0.69467	-74
0.69833	-72
0.70200	-65
0.70567	-58
0.70933	-53
0.71300	-47
0.71667	-41
0.72033	-38
0.72400	-39
0.72767	-44
0.73133	-53
0.73500	-61
0.73867	-66
0.74233	-69
0.74600	-71
0.74967	-74
0.75333	-80
0.75700	-89
0.76067	-94
0.76433	-94
0.76800	-88
0.77167	-81
0.77533	-76
0.77900	-73
0.78267	-70
0.78633	-67
0.79000	-64
0.79367	-60
0.79733	-61
0.80100	-62
0.80467	-64
0.80833	-64
0.81200	-61
0.81567	-56
0.81933	-51
0.82300	-49
0.82667	-50
0.83033	-54
0.83400	-60
0.83767	-65
0.84133	-69
0.84500	-75
0.84867	-82
0.85233	-82
0.85600	-75
0.85967	-64
0.86333	-55
0.86700	-52
0.87067	-55
0.87433	-56
0.87800	-52
0.88167	-47
0.88533	-44
0.88900	-48
0.89267	-57
0.89633	-70
0.90000	-82
0.90367	-92
0.90733	-102
0.91100	-107
0.91467	-110
0.91833	-110
0.92200	-110
0.92567	-109
0.92933	-106
0.93300	-100
0.93667	-93
0.94033	-84
0.94400	-75
0.94767	-71
0.95133	-74
0.95500	-78
0.95867	-80
0.96233	-80
0.96600	-76
0.96967	-71
0.97333	-68
0.97700	-68
0.98067	-70
0.98433	-72
0.98800	-71
0.99167	-67
0.99533	-63
0.99900	-61
1.00267	-60
1.00633	-59
1.01000	-64
1.01367	-72
1.01733	-77
1.02100	-77
1.02467	-75
1.02833	-75
1.03200	-77
1.03567	-80
1.03933	-81
1.04300	-79
1.04667	-78
1.05033	-81
1.05400	-83
1.05767	-81
1.06133	-77
1.06500	-77
1.06867	-78
1.07233	-77
1.07600	-77
1.07967	-77
1.08333	-78
1.08700	-77
1.09067	-75
1.09433	-75
1.09800	-76
1.10167	-80
1.10533	-85
1.10900	-87
1.11267	-89
1.11633	-94
1.12000	-85
1.12367	-78
1.12733	-74
1.13100	-76
1.13467	-78
1.13833	-76
1.14200	-74
1.14567	-75
1.14933	-79
1.15300	-85
1.15667	-90
1.16033	-92
1.16400	-93
1.16767	-95
1.17133	-96
1.17500	-93
1.17867	-92
1.18233	-92
1.18600	-93
1.18967	-95
1.19333	-96
1.19700	-96
1.20067	-90
1.20433	-79
1.20800	-70
1.21167	-66
1.21533	-68
1.21900	-72
1.22267	-76
1.22633	-80
1.23000	-82
1.23367	-83
1.23733	-80
1.24100	-80
1.24467	-83
1.24833	-86
1.25200	-89
1.25567	-93
1.25933	-97
1.26300	-100
1.26667	-99
1.27033	-97
1.27400	-94
1.27767	-90
1.28133	-85
1.28500	-82
1.28867	-84
1.29233	-87
1.29600	-90
1.29967	-95
1.30333	-99
1.30700	-104
1.31067	-109
1.31433	-113
1.31800	-112
1.32167	-108
1.32533	-104
1.32900	-100
1.33267	-94
1.33633	-93
1.34000	-94
1.34367	-98
1.34733	-103
1.35100	-104
1.35467	-104
1.35833	-103
1.36200	-101
1.36567	-99
1.36933	-98
1.37300	-100
1.37667	-104
1.38033	-107
1.38400	-110
1.38767	-114
1.39133	-119
1.39500	-122
1.39867	-120
1.40233	-117
1.40600	-111
1.40967	-103
1.41333	-100
1.41700	-102
1.42067	-105
1.42433	-107
1.42800	-106
1.43167	-104
1.43533	-102
1.43900	-90
1.44267	-26
1.44633	147
1.45000	452
1.45367	951
1.45733	1705
1.46100	2621
1.46467	3518
1.46833	4258
1.47200	4781
1.47567	5047
1.47933	5017
1.48300	4678
1.48667	4085
1.49033	3355
1.49400	2619
1.49767	1968
1.50133	1440
1.50500	1037
1.50867	740
1.51233	525
1.51600	371
1.51967	262
1.52333	182
1.52700	124
1.53067	80
1.53433	49
1.53800	39
1.54167	77
1.54533	219
1.54900	518
1.55267	953
1.55633	1431
1.56000	1864
1.56367	2200
1.56733	2407
1.57100	2445
1.57467	2287
1.57833	1960
1.58200	1547
1.58567	1134
1.58933	781
1.59300	507
1.59667	309
1.60033	171
1.60400	81
1.60767	25
1.61133	-7
1.61500	-31
1.61867	-47
1.62233	-58
1.62600	-67
1.62967	-76
1.63333	-86
1.63700	-95
1.64067	-101
1.64433	-105
1.64800	-108
1.65167	-109
1.65533	-112
1.65900	-114
1.66267	-114
1.66633	-113
1.67000	-112
1.67367	-111
1.67733	-108
1.68100	-102
1.68467	-99
1.68833	-101
1.69200	-105
1.69567	-112
1.69933	-121
1.70300	-129
1.70667	-134
1.71033	-133
1.71400	-131
1.71767	-129
1.72133	-128
1.72500	-126
1.72867	-124
1.73233	-121
1.73600	-118
1.73967	-113
1.74333	-110
1.74700	-111
1.75067	-118
1.75433	-125
1.75800	-129
1.76167	-131
1.76533	-130
1.76900	-129
1.77267	-128
1.77633	-124
1.78000	-117
1.78367	-112
1.78733	-112
1.79100	-115
1.79467	-125
1.79833	-125
1.80200	-121
1.80567	-120
1.80933	-120
1.81300	-121
1.81667	-122
1.82033	-123
1.82400	-126
1.82767	-129
1.83133	-130
1.83500	-129
1.83867	-128
1.84233	-122
1.84600	-117
1.84967	-116
1.85333	-115
1.85700	-115
1.86067	-121
1.86433	-128
1.86800	-131
1.87167	-129
1.87533	-126
1.87900	-123
1.88267	-123
1.88633	-120
1.89000	-116
1.89367	-111
1.89733	-106
1.90100	-103
1.90467	-105
1.90833	-108
1.91200	-112
1.91567	-118
1.91933	-125
1.92300	-130
1.92667	-129
1.93033	-121
1.93400	-114
1.93767	-113
1.94133	-117
1.94500	-123
1.94867	-130
1.95233	-130
1.95600	-84
1.95967	228
1.96333	1869
1.96700	8430
1.97067	28414
1.97433	75377
1.97800	161223
1.98167	285495
1.98533	431192
1.98900	572398
1.99267	684608
1.99633	750317
2.00000	760792
2.00367	717191
2.00733	630879
2.01100	520640
2.01467	406406
2.01833	303226
2.02200	218748
2.02567	154319
2.02933	107580
2.03300	74817
2.03667	52346
2.04033	37124
2.04400	26857
2.04767	19915
2.05133	15184
2.05500	11914
2.05867	9612
2.06233	7950
2.06600	6724
2.06967	5796
2.07333	5079
2.07700	4515
2.08067	4063
2.08433	3693
2.08800	3380
2.09167	3109
2.09533	2874
2.09900	2671
2.10267	2497
2.10633	2346
2.11000	2211
2.11367	2088
2.11733	1975
2.12100	1871
2.12467	1773
2.12833	1683
2.13200	1603
2.13567	1532
2.13933	1468
2.14300	1409
2.14667	1354
2.15033	1306
2.15400	1261
2.15767	1217
2.16133	1173
2.16500	1128
2.16867	1083
2.17233	1037
2.17600	995
2.17967	958
2.18333	928
2.18700	903
2.19067	880
2.19433	857
2.19800	836
2.20167	820
2.20533	803
2.20900	782
2.21267	760
2.21633	738
2.22000	715
2.22367	692
2.22733	668
2.23100	645
2.23467	625
2.23833	607
2.24200	588
2.24567	572
2.24933	559
2.25300	548
2.25667	537
2.26033	529
2.26400	522
2.26767	515
2.27133	508
2.27500	501
2.27867	495
2.28233	490
2.28600	479
2.28967	464
2.29333	449
2.29700	434
2.30067	421
2.30433	411
2.30800	402
2.31167	391
2.31533	382
2.31900	377
2.32267	376
2.32633	376
2.33000	375
2.33367	371
2.33733	368
2.34100	365
2.34467	359
2.34833	350
2.35200	340
2.35567	334
2.35933	329
2.36300	324
2.36667	317
2.37033	309
2.37400	299
2.37767	290
2.38133	283
2.38500	278
2.38867	277
2.39233	280
2.39600	282
2.39967	281
2.40333	277
2.40700	272
2.41067	266
2.41433	258
2.41800	252
2.42167	253
2.42533	258
2.42900	262
2.43267	263
2.43633	259
2.44000	254
2.44367	252
2.44733	248
2.45100	243
2.45467	239
2.45833	236
2.46200	236
2.46567	236
2.46933	233
2.47300	226
2.47667	219
2.48033	213
2.48400	210
2.48767	209
2.49133	209
2.49500	207
2.49867	202
2.50233	196
2.50600	193
2.50967	194
2.51333	196
2.51700	198
2.52067	196
2.52433	194
2.52800	189
2.53167	186
2.53533	185
2.53900	188
2.54267	190
2.54633	186
2.55000	180
2.55367	175
2.55733	173
2.56100	173
2.56467	172
2.56833	172
2.57200	173
2.57567	177
2.57933	181
2.58300	184
2.58667	185
2.59033	181
2.59400	173
2.59767	164
2.60133	155
2.60500	145
2.60867	136
2.61233	129
2.61600	124
2.61967	127
2.62333	132
2.62700	138
2.63067	141
2.63433	140
2.63800	138
2.64167	136
2.64533	133
2.64900	130
2.65267	130
2.65633	134
2.66000	139
2.66367	145
2.66733	149
2.67100	146
2.67467	139
2.67833	135
2.68200	138
2.68567	145
2.68933	147
2.69300	144
2.69667	141
2.70033	138
2.70400	134
2.70767	130
2.71133	128
2.71500	125
2.71867	120
2.72233	115
2.72600	115
2.72967	117
2.73333	122
2.73700	130
2.74067	139
2.74433	143
2.74800	139
2.75167	133
2.75533	128
2.75900	123
2.76267	120
2.76633	120
2.77000	121
2.77367	123
2.77733	128
2.78100	130
2.78467	130
2.78833	131
2.79200	134
2.79567	137
2.79933	139
2.80300	139
2.80667	137
2.81033	134
2.81400	132
2.81767	132
2.82133	134
2.82500	136
2.82867	140
2.83233	142
2.83600	144
2.83967	146
2.84333	146
2.84700	142
2.85067	137
2.85433	133
2.85800	130
2.86167	129
2.86533	129
2.86900	130
2.87267	131
2.87633	134
2.88000	133
2.88367	129
2.88733	124
2.89100	122
2.89467	122
2.89833	122
2.90200	122
2.90567	123
2.90933	126
2.91300	127
2.91667	125
2.92033	124
2.92400	125
2.92767	129
2.93133	131
2.93500	131
2.93867	134
2.94233	138
2.94600	136
2.94967	134
2.95333	134
2.95700	135
2.96067	135
2.96433	135
2.96800	134
2.97167	135
2.97533	138
2.97900	141
2.98267	139
2.98633	136
2.99000	139
2.99367	145
2.99733	150
3.00100	156
3.00467	162
3.00833	163
3.01200	158
3.01567	152
3.01933	147
3.02300	144
3.02667	143
3.03033	143
3.03400	145
3.03767	148
3.04133	153
3.04500	155
3.04867	152
3.05233	148
3.05600	145
3.05967	143
3.06333	142
3.06700	135
3.07067	122
3.07433	111
3.07800	107
3.08167	112
3.08533	120
3.08900	125
3.09267	128
3.09633	129
3.10000	126
3.10367	125
3.10733	128
3.11100	134
3.11467	140
3.11833	144
3.12200	146
3.12567	149
3.12933	155
3.13300	159
3.13667	159
3.14033	158
3.14400	155
3.14767	152
3.15133	148
3.15500	143
3.15867	135
3.16233	130
3.16600	128
3.16967	131
3.17333	140
3.17700	148
3.18067	153
3.18433	155
3.18800	161
3.19167	171
3.19533	178
3.19900	181
3.20267	179
3.20633	172
3.21000	166
3.21367	164
3.21733	161
3.22100	156
3.22467	152
3.22833	147
3.23200	138
3.23567	130
3.23933	124
3.24300	122
3.24667	125
3.25033	129
3.25400	134
3.25767	139
3.26133	144
3.26500	148
3.26867	150
3.27233	150
3.27600	149
3.27967	147
3.28333	145
3.28700	142
3.29067	140
3.29433	141
3.29800	144
3.30167	146
3.30533	147
3.30900	147
3.31267	148
3.31633	152
3.32000	157
3.32367	162
3.32733	167
3.33100	173
3.33467	173
3.33833	169
3.34200	165
3.34567	163
3.34933	162
3.35300	162
3.35667	160
3.36033	157
3.36400	157
3.36767	160
3.37133	163
3.37500	162
3.37867	160
3.38233	157
3.38600	160
3.38967	167
3.39333	173
3.39700	178
3.40067	180
3.40433	180
3.40800	179
3.41167	178
3.41533	173
3.41900	169
3.42267	165
3.42633	162
3.43000	159
3.43367	159
3.43733	162
3.44100	163
3.44467	160
3.44833	155
3.45200	154
3.45567	158
3.45933	163
3.46300	167
3.46667	171
3.47033	173
3.47400	171
3.47767	165
3.48133	162
3.48500	166
3.48867	173
3.49233	177
3.49600	176
3.49967	168
3.50333	155
3.50700	143
3.51067	136
3.51433	135
3.51800	138
3.52167	144
3.52533	154
3.52900	166
3.53267	175
3.53633	175
3.54000	171
3.54367	165
3.54733	161
3.55100	159
3.55467	159
3.55833	158
3.56200	158
3.56567	158
3.56933	159
3.57300	157
3.57667	153
3.58033	151
3.58400	150
3.58767	148
3.59133	148
3.59500	151
3.59867	154
3.60233	156
3.60600	155
3.60967	151
3.61333	144
3.61700	138
3.62067	136
3.62433	137
3.62800	140
3.63167	146
3.63533	156
3.63900	164
3.64267	167
3.64633	168
3.65000	169
3.65367	168
3.65733	160
3.66100	151
3.66467	146
3.66833	147
3.67200	149
3.67567	151
3.67933	152
3.68300	153
3.68667	153
3.69033	153
3.69400	153
3.69767	152
3.70133	149
3.70500	146
3.70867	145
3.71233	147
3.71600	147
3.71967	146
3.72333	147
3.72700	148
3.73067	150
3.73433	148
3.73800	140
3.74167	132
3.74533	128
3.74900	129
3.75267	134
3.75633	140
3.76000	144
3.76367	145
3.76733	141
3.77100	137
3.77467	135
3.77833	135
3.78200	134
3.78567	134
3.78933	138
3.79300	141
3.79667	143
3.80033	148
3.80400	152
3.80767	152
3.81133	153
3.81500	153
3.81867	153
3.82233	153
3.82600	155
3.82967	159
3.83333	159
3.83700	155
3.84067	145
3.84433	134
3.84800	127
3.85167	124
3.85533	125
3.85900	127
3.86267	128
3.86633	129
3.87000	133
3.87367	139
3.87733	144
3.88100	145
3.88467	144
3.88833	142
3.89200	135
3.89567	130
3.89933	128
3.90300	128
3.90667	130
3.91033	133
3.91400	133
3.91767	130
3.92133	123
3.92500	124
3.92867	125
3.93233	129
3.93600	135
3.93967	141
3.94333	144
3.94700	143
3.95067	139
3.95433	134
3.95800	130
3.96167	131
3.96533	134
3.96900	136
3.97267	135
3.97633	133
3.98000	125
3.98367	122
3.98733	118
3.99100	117
3.99467	118
3.99833	121

[Chromatogram (Ch2)]
Interval(msec)	220
# of Points	1091
Start Time(min)	0.002
End Time(min)	3.998
R.Time (min)	Intensity
0.00167	1
0.00533	1
0.00900	1
0.01267	1
0.01633	1
0.02000	1
0.02367	1
0.02733	1
0.03100	1
0.03467	1
0.03833	0
0.04200	0
0.04567	0
0.04933	0
0.05300	0
0.05667	0
0.06033	0
0.06400	0
0.06767	0
0.07133	0
0.07500	0
0.07867	1
0.08233	1
0.08600	1
0.08967	1
0.09333	1
0.09700	1
0.10067	1
0.10433	1
0.10800	1
0.11167	1
0.11533	1
0.11900	1
0.12267	1
0.12633	1
0.13000	1
0.13367	1
0.13733	1
0.14100	0
0.14467	0
0.14833	0
0.15200	0
0.15567	0
0.15933	0
0.16300	0
0.16667	0
0.17033	0
0.17400	0
0.17767	0
0.18133	0
0.18500	0
0.18867	0
0.19233	-0
0.19600	-0
0.19967	-1
0.20333	-1
0.20700	-1
0.21067	-1
0.21433	-1
0.21800	-1
0.22167	-1
0.22533	-1
0.22900	-1
0.23267	-1
0.23633	-1
0.24000	-1
0.24367	-1
0.24733	-1
0.25100	-2
0.25467	-2
0.25833	-2
0.26200	-2
0.26567	-2
0.26933	-2
0.27300	-2
0.27667	-2
0.28033	-2
0.28400	-2
0.28767	-2
0.29133	-2
0.29500	-2
0.29867	-2
0.30233	-2
0.30600	-2
0.30967	-2
0.31333	-2
0.31700	-2
0.32067	-2
0.32433	-1
0.32800	-1
0.33167	-1
0.33533	-1
0.33900	-1
0.34267	-1
0.34633	-1
0.35000	-1
0.35367	-1
0.35733	-1
0.36100	-1
0.36467	-1
0.36833	-1
0.37200	-2
0.37567	-2
0.37933	-2
0.38300	-1
0.38667	-1
0.39033	-1
0.39400	-1
0.39767	-1
0.40133	-1
0.40500	-1
0.40867	-1
0.41233	-1
0.41600	-1
0.41967	-1
0.42333	-1
0.42700	-1
0.43067	-1
0.43433	-0
0.43800	-0
0.44167	-0
0.44533	-0
0.44900	-0
0.45267	-1
0.45633	-1
0.46000	-1
0.46367	-1
0.46733	-1
0.47100	-2
0.47467	-2
0.47833	-2
0.48200	-2
0.48567	-2
0.48933	-2
0.49300	-2
0.49667	-2
0.50033	-2
0.50400	-2
0.50767	-2
0.51133	-2
0.51500	-2
0.51867	-2
0.52233	-1
0.52600	-1
0.52967	-1
0.53333	-1
0.53700	-1
0.54067	-1
0.54433	-1
0.54800	-0
0.55167	-0
0.55533	0
0.55900	0
0.56267	0
0.56633	0
0.57000	-0
0.57367	-0
0.57733	-0
0.58100	-1
0.58467	-1
0.58833	-1
0.59200	-1
0.59567	-1
0.59933	-1
0.60300	-1
0.60667	-1
0.61033	-2
0.61400	-2
0.61767	-2
0.62133	-2
0.62500	-2
0.62867	-2
0.63233	-2
0.63600	-2
0.63967	-2
0.64333	-2
0.64700	-2
0.65067	-2
0.65433	-2
0.65800	-2
0.66167	-2
0.66533	-2
0.66900	-3
0.67267	-3
0.67633	-3
0.68000	-3
0.68367	-2
0.68733	-2
0.69100	-2
0.69467	-2
0.69833	-2
0.70200	-1
0.70567	-1
0.70933	-1
0.71300	-1
0.71667	-1
0.72033	-1
0.72400	-1
0.72767	-1
0.73133	-2
0.73500	-2
0.73867	-2
0.74233	-2
0.74600	-2
0.74967	-2
0.75333	-2
0.75700	-2
0.76067	-2
0.76433	-1
0.76800	-1
0.77167	-1
0.77533	-2
0.77900	-1
0.78267	-1
0.78633	-1
0.79000	-1
0.79367	-1
0.79733	-1
0.80100	-1
0.80467	-1
0.80833	-1
0.81200	-1
0.81567	-1
0.81933	-1
0.82300	-1
0.82667	-1
0.83033	-1
0.83400	-1
0.83767	-1
0.84133	-1
0.84500	-1
0.84867	-1
0.85233	-0
0.85600	-0
0.85967	0
0.86333	0
0.86700	0
0.87067	1
0.87433	1
0.87800	0
0.88167	0
0.88533	0
0.88900	0
0.89267	-0
0.89633	-0
0.90000	-1
0.90367	-1
0.90733	-1
0.91100	-1
0.91467	-1
0.91833	-1
0.92200	-1
0.92567	-2
0.92933	-2
0.93300	-2
0.93667	-2
0.94033	-2
0.94400	-2
0.94767	-2
0.95133	-2
0.95500	-2
0.95867	-2
0.96233	-2
0.96600	-2
0.96967	-2
0.97333	-2
0.97700	-2
0.98067	-2
0.98433	-3
0.98800	-3
0.99167	-3
0.99533	-3
0.99900	-3
1.00267	-3
1.00633	-3
1.01000	-3
1.01367	-2
1.01733	-2
1.02100	-2
1.02467	-2
1.02833	-1
1.03200	-1
1.03567	-1
1.03933	-1
1.04300	-1
1.04667	-1
1.05033	-1
1.05400	-1
1.05767	-1
1.06133	-1
1.06500	-1
1.06867	-1
1.07233	-1
1.07600	-1
1.07967	-1
1.08333	-1
1.08700	-1
1.09067	-1
1.09433	-1
1.09800	-1
1.10167	-1
1.10533	-1
1.10900	-1
1.11267	-1
1.11633	-1
1.12000	-2
1.12367	-2
1.12733	-2
1.13100	-2
1.13467	-2
1.13833	-2
1.14200	-2
1.14567	-3
1.14933	-3
1.15300	-3
1.15667	-4
1.16033	-4
1.16400	-5
1.16767	-6
1.17133	-6
1.17500	-6
1.17867	-6
1.18233	-6
1.18600	-6
1.18967	-6
1.19333	-6
1.19700	-5
1.20067	-4
1.20433	-4
1.20800	-3
1.21167	-2
1.21533	-2
1.21900	-1
1.22267	-1
1.22633	-1
1.23000	-1
1.23367	-0
1.23733	-0
1.24100	-0
1.24467	0
1.24833	0
1.25200	0
1.25567	0
1.25933	0
1.26300	0
1.26667	1
1.27033	1
1.27400	1
1.27767	0
1.28133	0
1.28500	0
1.28867	0
1.29233	-0
1.29600	-0
1.29967	-0
1.30333	-0
1.30700	-0
1.31067	-0
1.31433	-0
1.31800	-0
1.32167	-0
1.32533	-0
1.32900	-0
1.33267	-1
1.33633	-1
1.34000	-1
1.34367	-2
1.34733	-2
1.35100	-3
1.35467	-3
1.35833	-3
1.36200	-3
1.36567	-3
1.36933	-3
1.37300	-3
1.37667	-3
1.38033	-3
1.38400	-3
1.38767	-3
1.39133	-3
1.39500	-4
1.39867	-4
1.40233	-3
1.40600	-3
1.40967	-3
1.41333	-3
1.41700	-3
1.42067	-3
1.42433	-4
1.42800	-4
1.43167	-3
1.43533	-3
1.43900	-3
1.44267	-3
1.44633	-3
1.45000	-3
1.45367	-3
1.45733	-3
1.46100	-3
1.46467	-3
1.46833	-3
1.47200	-3
1.47567	-3
1.47933	-3
1.48300	-3
1.48667	-3
1.49033	-4
1.49400	-4
1.49767	-3
1.50133	-3
1.50500	-3
1.50867	-3
1.51233	-3
1.51600	-3
1.51967	-3
1.52333	-3
1.52700	-3
1.53067	-3
1.53433	-3
1.53800	-3
1.54167	-3
1.54533	-3
1.54900	-3
1.55267	-4
1.55633	-4
1.56000	-4
1.56367	-4
1.56733	-3
1.57100	-3
1.57467	-3
1.57833	-3
1.58200	-3
1.58567	-3
1.58933	-3
1.59300	-3
1.59667	-4
1.60033	-4
1.60400	-5
1.60767	-7
1.61133	-8
1.61500	-10
1.61867	-13
1.62233	-15
1.62600	-18
1.62967	-21
1.63333	-24
1.63700	-27
1.64067	-31
1.64433	-34
1.64800	-38
1.65167	-41
1.65533	-45
1.65900	-48
1.66267	-52
1.66633	-56
1.67000	-60
1.67367	-65
1.67733	-69
1.68100	-74
1.68467	-79
1.68833	-84
1.69200	-89
1.69567	-93
1.69933	-96
1.70300	-99
1.70667	-101
1.71033	-103
1.71400	-104
1.71767	-105
1.72133	-106
1.72500	-107
1.72867	-108
1.73233	-109
1.73600	-109
1.73967	-110
1.74333	-111
1.74700	-112
1.75067	-113
1.75433	-114
1.75800	-114
1.76167	-115
1.76533	-115
1.76900	-115
1.77267	-116
1.77633	-116
1.78000	-117
1.78367	-117
1.78733	-117
1.79100	-117
1.79467	-117
1.79833	-116
1.80200	-116
1.80567	-116
1.80933	-116
1.81300	-116
1.81667	-117
1.82033	-117
1.82400	-118
1.82767	-119
1.83133	-119
1.83500	-119
1.83867	-119
1.84233	-119
1.84600	-120
1.84967	-120
1.85333	-119
1.85700	-119
1.86067	-119
1.86433	-119
1.86800	-119
1.87167	-119
1.87533	-119
1.87900	-118
1.88267	-118
1.88633	-118
1.89000	-118
1.89367	-117
1.89733	-117
1.90100	-116
1.90467	-116
1.90833	-116
1.91200	-116
1.91567	-116
1.91933	-117
1.92300	-117
1.92667	-117
1.93033	-117
1.93400	-117
1.93767	-117
1.94133	-116
1.94500	-116
1.94867	-116
1.95233	-116
1.95600	-115
1.95967	-115
1.96333	-114
1.96700	-113
1.97067	-113
1.97433	-113
1.97800	-113
1.98167	-113
1.98533	-113
1.98900	-114
1.99267	-114
1.99633	-114
2.00000	-114
2.00367	-114
2.00733	-113
2.01100	-112
2.01467	-112
2.01833	-111
2.02200	-110
2.02567	-110
2.02933	-109
2.03300	-109
2.03667	-109
2.04033	-109
2.04400	-109
2.04767	-109
2.05133	-109
2.05500	-109
2.05867	-108
2.06233	-108
2.06600	-108
2.06967	-107
2.07333	-107
2.07700	-106
2.08067	-105
2.08433	-105
2.08800	-105
2.09167	-104
2.09533	-105
2.09900	-105
2.10267	-105
2.10633	-105
2.11000	-105
2.11367	-104
2.11733	-104
2.12100	-103
2.12467	-102
2.12833	-101
2.13200	-101
2.13567	-100
2.13933	-100
2.14300	-99
2.14667	-98
2.15033	-98
2.15400	-98
2.15767	-98
2.16133	-98
2.16500	-99
2.16867	-99
2.17233	-99
2.17600	-99
2.17967	-99
2.18333	-99
2.18700	-98
2.19067	-97
2.19433	-97
2.19800	-97
2.20167	-97
2.20533	-97
2.20900	-97
2.21267	-97
2.21633	-96
2.22000	-96
2.22367	-95
2.22733	-95
2.23100	-94
2.23467	-94
2.23833	-94
2.24200	-93
2.24567	-93
2.24933	-92
2.25300	-91
2.25667	-90
2.26033	-90
2.26400	-89
2.26767	-89
2.27133	-89
2.27500	-89
2.27867	-88
2.28233	-88
2.28600	-87
2.28967	-87
2.29333	-87
2.29700	-88
2.30067	-88
2.30433	-89
2.30800	-89
2.31167	-90
2.31533	-90
2.31900	-91
2.32267	-90
2.32633	-90
2.33000	-89
2.33367	-88
2.33733	-87
2.34100	-86
2.34467	-85
2.34833	-84
2.35200	-83
2.35567	-82
2.35933	-81
2.36300	-80
2.36667	-78
2.37033	-76
2.37400	-74
2.37767	-72
2.38133	-69
2.38500	-66
2.38867	-62
2.39233	-59
2.39600	-55
2.39967	-51
2.40333	-47
2.40700	-43
2.41067	-39
2.41433	-35
2.41800	-32
2.42167	-28
2.42533	-25
2.42900	-22
2.43267	-20
2.43633	-18
2.44000	-16
2.44367	-14
2.44733	-12
2.45100	-10
2.45467	-8
2.45833	-7
2.46200	-5
2.46567	-3
2.46933	-2
2.47300	-1
2.47667	-0
2.48033	0
2.48400	0
2.48767	1
2.49133	2
2.49500	3
2.49867	4
2.50233	5
2.50600	6
2.50967	7
2.51333	8
2.51700	8
2.52067	9
2.52433	9
2.52800	9
2.53167	9
2.53533	9
2.53900	10
2.54267	10
2.54633	11
2.55000	11
2.55367	11
2.55733	12
2.56100	12
2.56467	13
2.56833	13
2.57200	14
2.57567	14
2.57933	14
2.58300	14
2.58667	14
2.59033	13
2.59400	12
2.59767	12
2.60133	12
2.60500	12
2.60867	12
2.61233	13
2.61600	14
2.61967	15
2.62333	15
2.62700	16
2.63067	16
2.63433	16
2.63800	16
2.64167	17
2.64533	17
2.64900	17
2.65267	18
2.65633	18
2.66000	18
2.66367	18
2.66733	18
2.67100	18
2.67467	18
2.67833	19
2.68200	19
2.68567	20
2.68933	20
2.69300	20
2.69667	21
2.70033	22
2.70400	23
2.70767	24
2.71133	24
2.71500	25
2.71867	25
2.72233	24
2.72600	24
2.72967	24
2.73333	23
2.73700	22
2.74067	22
2.74433	21
2.74800	21
2.75167	21
2.75533	21
2.75900	22
2.76267	22
2.76633	22
2.77000	22
2.77367	22
2.77733	23
2.78100	23
2.78467	24
2.78833	24
2.79200	24
2.79567	25
2.79933	25
2.80300	25
2.80667	25
2.81033	25
2.81400	25
2.81767	26
2.82133	26
2.82500	26
2.82867	26
2.83233	26
2.83600	26
2.83967	26
2.84333	26
2.84700	26
2.85067	25
2.85433	24
2.85800	21
2.86167	17
2.86533	10
2.86900	0
2.87267	-13
2.87633	-29
2.88000	-50
2.88367	-74
2.88733	-102
2.89100	-134
2.89467	-170
2.89833	-209
2.90200	-251
2.90567	-295
2.90933	-342
2.91300	-390
2.91667	-439
2.92033	-489
2.92400	-540
2.92767	-590
2.93133	-641
2.93500	-691
2.93867	-740
2.94233	-789
2.94600	-840
2.94967	-895
2.95333	-956
2.95700	-1016
2.96067	-1065
2.96433	-1093
2.96800	-1094
2.97167	-1070
2.97533	-1023
2.97900	-960
2.98267	-887
2.98633	-808
2.99000	-727
2.99367	-648
2.99733	-573
3.00100	-503
3.00467	-439
3.00833	-381
3.01200	-328
3.01567	-282
3.01933	-241
3.02300	-206
3.02667	-175
3.03033	-148
3.03400	-125
3.03767	-105
3.04133	-88
3.04500	-73
3.04867	-61
3.05233	-50
3.05600	-40
3.05967	-33
3.06333	-26
3.06700	-20
3.07067	-15
3.07433	-11
3.07800	-8
3.08167	-5
3.08533	-2
3.08900	-0
3.09267	2
3.09633	4
3.10000	5
3.10367	7
3.10733	8
3.11100	9
3.11467	10
3.11833	11
3.12200	12
3.12567	12
3.12933	13
3.13300	13
3.13667	14
3.14033	14
3.14400	14
3.14767	15
3.15133	15
3.15500	16
3.15867	16
3.16233	16
3.16600	16
3.16967	16
3.17333	16
3.17700	17
3.18067	17
3.18433	17
3.18800	17
3.19167	17
3.19533	18
3.19900	18
3.20267	18
3.20633	19
3.21000	19
3.21367	19
3.21733	19
3.22100	20
3.22467	20
3.22833	20
3.23200	20
3.23567	20
3.23933	20
3.24300	20
3.24667	20
3.25033	20
3.25400	20
3.25767	20
3.26133	20
3.26500	20
3.26867	20
3.27233	20
3.27600	20
3.27967	20
3.28333	20
3.28700	20
3.29067	20
3.29433	20
3.29800	20
3.30167	21
3.30533	21
3.30900	21
3.31267	21
3.31633	21
3.32000	22
3.32367	22
3.32733	22
3.33100	22
3.33467	22
3.33833	22
3.34200	22
3.34567	22
3.34933	23
3.35300	23
3.35667	23
3.36033	23
3.36400	23
3.36767	23
3.37133	23
3.37500	24
3.37867	24
3.38233	25
3.38600	25
3.38967	25
3.39333	26
3.39700	26
3.40067	26
3.40433	26
3.40800	26
3.41167	26
3.41533	26
3.41900	26
3.42267	26
3.42633	26
3.43000	26
3.43367	26
3.43733	26
3.44100	26
3.44467	26
3.44833	26
3.45200	26
3.45567	26
3.45933	25
3.46300	25
3.46667	25
3.47033	25
3.47400	25
3.47767	25
3.48133	25
3.48500	26
3.48867	26
3.49233	26
3.49600	26
3.49967	26
3.50333	26
3.50700	26
3.51067	25
3.51433	25
3.51800	25
3.52167	25
3.52533	25
3.52900	25
3.53267	25
3.53633	25
3.54000	25
3.54367	25
3.54733	25
3.55100	25
3.55467	25
3.55833	24
3.56200	24
3.56567	24
3.56933	24
3.57300	24
3.57667	24
3.58033	24
3.58400	24
3.58767	24
3.59133	24
3.59500	24
3.59867	24
3.60233	25
3.60600	25
3.60967	25
3.61333	25
3.61700	25
3.62067	25
3.62433	24
3.62800	24
3.63167	25
3.63533	25
3.63900	25
3.64267	25
3.64633	24
3.65000	24
3.65367	24
3.65733	24
3.66100	24
3.66467	25
3.66833	25
3.67200	25
3.67567	25
3.67933	25
3.68300	25
3.68667	24
3.69033	25
3.69400	25
3.69767	25
3.70133	25
3.70500	25
3.70867	24
3.71233	24
3.71600	24
3.71967	24
3.72333	24
3.72700	24
3.73067	24
3.73433	24
3.73800	24
3.74167	24
3.74533	24
3.74900	24
3.75267	24
3.75633	24
3.76000	25
3.76367	25
3.76733	25
3.77100	25
3.77467	25
3.77833	25
3.78200	25
3.78567	25
3.78933	25
3.79300	25
3.79667	25
3.80033	25
3.80400	25
3.80767	24
3.81133	25
3.81500	25
3.81867	24
3.82233	25
3.82600	25
3.82967	25
3.83333	25
3.83700	25
3.84067	25
3.84433	25
3.84800	25
3.85167	25
3.85533	25
3.85900	25
3.86267	25
3.86633	25
3.87000	25
3.87367	25
3.87733	24
3.88100	24
3.88467	25
3.88833	25
3.89200	25
3.89567	25
3.89933	25
3.90300	25
3.90667	25
3.91033	25
3.91400	25
3.91767	25
3.92133	25
3.92500	25
3.92867	25
3.93233	25
3.93600	25
3.93967	25
3.94333	25
3.94700	26
3.95067	26
3.95433	26
3.95800	26
3.96167	26
3.96533	26
3.96900	26
3.97267	25
3.97633	25
3.98000	25
3.98367	25
3.98733	25
3.99100	24
3.99467	24
3.99833	24

[Chromatogram (Ch3)]
Interval(msec)	220
# of Points	1091
Start Time(min)	0.002
End Time(min)	3.998
R.Time (min)	Intensity
0.00167	1
0.00533	3
0.00900	4
0.01267	4
0.01633	1
0.02000	1
0.02367	1
0.02733	3
0.03100	3
0.03467	4
0.03833	6
0.04200	5
0.04567	4
0.04933	4
0.05300	4
0.05667	4
0.06033	4
0.06400	5
0.06767	5
0.07133	3
0.07500	4
0.07867	5
0.08233	6
0.08600	6
0.08967	6
0.09333	7
0.09700	6
0.10067	6
0.10433	5
0.10800	5
0.11167	5
0.11533	5
0.11900	5
0.12267	6
0.12633	6
0.13000	7
0.13367	9
0.13733	9
0.14100	9
0.14467	9
0.14833	10
0.15200	11
0.15567	10
0.15933	9
0.16300	10
0.16667	11
0.17033	10
0.17400	9
0.17767	10
0.18133	12
0.18500	12
0.18867	10
0.19233	10
0.19600	12
0.19967	15
0.20333	17
0.20700	17
0.21067	17
0.21433	16
0.21800	15
0.22167	14
0.22533	14
0.22900	14
0.23267	16
0.23633	19
0.24000	19
0.24367	19
0.24733	18
0.25100	15
0.25467	14
0.25833	16
0.26200	17
0.26567	18
0.26933	19
0.27300	19
0.27667	20
0.28033	20
0.28400	19
0.28767	21
0.29133	22
0.29500	21
0.29867	18
0.30233	15
0.30600	14
0.30967	12
0.31333	14
0.31700	16
0.32067	18
0.32433	18
0.32800	18
0.33167	20
0.33533	19
0.33900	18
0.34267	19
0.34633	22
0.35000	24
0.35367	22
0.35733	21
0.36100	22
0.36467	22
0.36833	21
0.37200	19
0.37567	17
0.37933	16
0.38300	16
0.38667	17
0.39033	18
0.39400	18
0.39767	18
0.40133	20
0.40500	21
0.40867	19
0.41233	19
0.41600	19
0.41967	19
0.42333	18
0.42700	16
0.43067	16
0.43433	18
0.43800	18
0.44167	17
0.44533	18
0.44900	21
0.45267	22
0.45633	22
0.46000	21
0.46367	20
0.46733	18
0.47100	18
0.47467	18
0.47833	20
0.48200	21
0.48567	22
0.48933	23
0.49300	24
0.49667	26
0.50033	27
0.50400	25
0.50767	24
0.51133	23
0.51500	25
0.51867	26
0.52233	26
0.52600	25
0.52967	26
0.53333	27
0.53700	26
0.54067	23
0.54433	23
0.54800	23
0.55167	23
0.55533	22
0.55900	22
0.56267	18
0.56633	17
0.57000	17
0.57367	19
0.57733	19
0.58100	19
0.58467	19
0.58833	19
0.59200	20
0.59567	21
0.59933	20
0.60300	20
0.60667	20
0.61033	22
0.61400	23
0.61767	24
0.62133	22
0.62500	22
0.62867	22
0.63233	21
0.63600	21
0.63967	20
0.64333	19
0.64700	20
0.65067	21
0.65433	22
0.65800	21
0.66167	21
0.66533	23
0.66900	25
0.67267	25
0.67633	26
0.68000	24
0.68367	22
0.68733	22
0.69100	22
0.69467	23
0.69833	22
0.70200	17
0.70567	16
0.70933	19
0.71300	19
0.71667	20
0.72033	18
0.72400	18
0.72767	19
0.73133	19
0.73500	20
0.73867	21
0.74233	21
0.74600	22
0.74967	23
0.75333	24
0.75700	23
0.76067	22
0.76433	24
0.76800	22
0.77167	22
0.77533	22
0.77900	24
0.78267	27
0.78633	28
0.79000	28
0.79367	25
0.79733	22
0.80100	20
0.80467	19
0.80833	18
0.81200	18
0.81567	18
0.81933	21
0.82300	25
0.82667	26
0.83033	24
0.83400	24
0.83767	25
0.84133	25
0.84500	24
0.84867	25
0.85233	25
0.85600	24
0.85967	25
0.86333	25
0.86700	24
0.87067	23
0.87433	23
0.87800	23
0.88167	25
0.88533	27
0.88900	28
0.89267	30
0.89633	31
0.90000	31
0.90367	29
0.90733	27
0.91100	25
0.91467	24
0.91833	24
0.92200	25
0.92567	25
0.92933	25
0.93300	26
0.93667	26
0.94033	26
0.94400	27
0.94767	28
0.95133	28
0.95500	26
0.95867	25
0.96233	22
0.96600	20
0.96967	20
0.97333	22
0.97700	23
0.98067	22
0.98433	21
0.98800	21
0.99167	22
0.99533	24
0.99900	25
1.00267	25
1.00633	25
1.01000	23
1.01367	20
1.01733	20
1.02100	19
1.02467	20
1.02833	22
1.03200	23
1.03567	22
1.03933	21
1.04300	22
1.04667	21
1.05033	20
1.05400	21
1.05767	21
1.06133	19
1.06500	18
1.06867	20
1.07233	22
1.07600	23
1.07967	25
1.08333	27
1.08700	25
1.09067	24
1.09433	23
1.09800	22
1.10167	20
1.10533	19
1.10900	19
1.11267	20
1.11633	20
1.12000	18
1.12367	17
1.12733	19
1.13100	20
1.13467	18
1.13833	19
1.14200	17
1.14567	17
1.14933	17
1.15300	17
1.15667	16
1.16033	15
1.16400	14
1.16767	15
1.17133	16
1.17500	17
1.17867	19
1.18233	20
1.18600	20
1.18967	20
1.19333	18
1.19700	19
1.20067	20
1.20433	20
1.20800	20
1.21167	21
1.21533	21
1.21900	20
1.22267	18
1.22633	16
1.23000	17
1.23367	17
1.23733	17
1.24100	17
1.24467	16
1.24833	18
1.25200	19
1.25567	20
1.25933	20
1.26300	18
1.26667	16
1.27033	15
1.27400	14
1.27767	15
1.28133	17
1.28500	19
1.28867	20
1.29233	22
1.29600	23
1.29967	24
1.30333	24
1.30700	22
1.31067	21
1.31433	20
1.31800	20
1.32167	20
1.32533	18
1.32900	17
1.33267	16
1.33633	14
1.34000	14
1.34367	14
1.34733	13
1.35100	13
1.35467	13
1.35833	12
1.36200	14
1.36567	16
1.36933	17
1.37300	17
1.37667	19
1.38033	22
1.38400	23
1.38767	22
1.39133	20
1.39500	17
1.39867	14
1.40233	13
1.40600	14
1.40967	14
1.41333	13
1.41700	12
1.42067	14
1.42433	15
1.42800	16
1.43167	19
1.43533	21
1.43900	20
1.44267	18
1.44633	15
1.45000	15
1.45367	15
1.45733	16
1.46100	16
1.46467	17
1.46833	18
1.47200	18
1.47567	16
1.47933	13
1.48300	12
1.48667	12
1.49033	9
1.49400	10
1.49767	10
1.50133	9
1.50500	8
1.50867	9
1.51233	10
1.51600	11
1.51967	12
1.52333	15
1.52700	14
1.53067	11
1.53433	10
1.53800	11
1.54167	14
1.54533	16
1.54900	16
1.55267	16
1.55633	15
1.56000	16
1.56367	18
1.56733	19
1.57100	19
1.57467	18
1.57833	14
1.58200	13
1.58567	13
1.58933	15
1.59300	18
1.59667	17
1.60033	17
1.60400	16
1.60767	16
1.61133	16
1.61500	17
1.61867	18
1.62233	17
1.62600	17
1.62967	18
1.63333	18
1.63700	19
1.64067	18
1.64433	15
1.64800	13
1.65167	16
1.65533	17
1.65900	17
1.66267	17
1.66633	17
1.67000	15
1.67367	13
1.67733	12
1.68100	13
1.68467	14
1.68833	16
1.69200	19
1.69567	19
1.69933	19
1.70300	22
1.70667	24
1.71033	23
1.71400	23
1.71767	23
1.72133	24
1.72500	27
1.72867	28
1.73233	27
1.73600	27
1.73967	28
1.74333	26
1.74700	26
1.75067	25
1.75433	25
1.75800	26
1.76167	26
1.76533	28
1.76900	30
1.77267	32
1.77633	34
1.78000	36
1.78367	37
1.78733	37
1.79100	38
1.79467	39
1.79833	38
1.80200	35
1.80567	34
1.80933	33
1.81300	34
1.81667	38
1.82033	39
1.82400	40
1.82767	41
1.83133	39
1.83500	37
1.83867	35
1.84233	36
1.84600	36
1.84967	36
1.85333	38
1.85700	39
1.86067	40
1.86433	39
1.86800	39
1.87167	38
1.87533	37
1.87900	39
1.88267	39
1.88633	39
1.89000	39
1.89367	40
1.89733	40
1.90100	41
1.90467	42
1.90833	42
1.91200	41
1.91567	43
1.91933	44
1.92300	46
1.92667	48
1.93033	47
1.93400	47
1.93767	46
1.94133	45
1.94500	46
1.94867	46
1.95233	46
1.95600	45
1.95967	45
1.96333	48
1.96700	50
1.97067	49
1.97433	50
1.97800	52
1.98167	51
1.98533	53
1.98900	54
1.99267	57
1.99633	58
2.00000	57
2.00367	58
2.00733	57
2.01100	56
2.01467	56
2.01833	56
2.02200	59
2.02567	59
2.02933	59
2.03300	60
2.03667	62
2.04033	63
2.04400	63
2.04767	64
2.05133	64
2.05500	66
2.05867	71
2.06233	75
2.06600	76
2.06967	74
2.07333	72
2.07700	71
2.08067	70
2.08433	70
2.08800	69
2.09167	68
2.09533	68
2.09900	69
2.10267	70
2.10633	72
2.11000	77
2.11367	78
2.11733	79
2.12100	78
2.12467	79
2.12833	80
2.13200	83
2.13567	83
2.13933	84
2.14300	85
2.14667	88
2.15033	90
2.15400	91
2.15767	92
2.16133	92
2.16500	92
2.16867	92
2.17233	93
2.17600	93
2.17967	93
2.18333	93
2.18700	92
2.19067	93
2.19433	95
2.19800	94
2.20167	93
2.20533	92
2.20900	92
2.21267	93
2.21633	94
2.22000	94
2.22367	95
2.22733	96
2.23100	98
2.23467	100
2.23833	103
2.24200	107
2.24567	108
2.24933	105
2.25300	105
2.25667	107
2.26033	108
2.26400	111
2.26767	113
2.27133	115
2.27500	117
2.27867	119
2.28233	118
2.28600	117
2.28967	116
2.29333	116
2.29700	118
2.30067	117
2.30433	117
2.30800	118
2.31167	120
2.31533	119
2.31900	119
2.32267	121
2.32633	122
2.33000	123
2.33367	126
2.33733	128
2.34100	130
2.34467	131
2.34833	135
2.35200	137
2.35567	139
2.35933	139
2.36300	136
2.36667	135
2.37033	134
2.37400	135
2.37767	135
2.38133	133
2.38500	135
2.38867	135
2.39233	139
2.39600	142
2.39967	143
2.40333	146
2.40700	151
2.41067	155
2.41433	156
2.41800	154
2.42167	153
2.42533	154
2.42900	157
2.43267	159
2.43633	159
2.44000	161
2.44367	183
2.44733	235
2.45100	290
2.45467	331
2.45833	342
2.46200	333
2.46567	320
2.46933	310
2.47300	301
2.47667	288
2.48033	270
2.48400	247
2.48767	223
2.49133	206
2.49500	195
2.49867	185
2.50233	179
2.50600	177
2.50967	181
2.51333	188
2.51700	192
2.52067	196
2.52433	197
2.52800	189
2.53167	176
2.53533	163
2.53900	148
2.54267	137
2.54633	127
2.55000	117
2.55367	111
2.55733	106
2.56100	101
2.56467	98
2.56833	98
2.57200	98
2.57567	97
2.57933	96
2.58300	97
2.58667	97
2.59033	96
2.59400	98
2.59767	101
2.60133	105
2.60500	108
2.60867	107
2.61233	100
2.61600	88
2.61967	70
2.62333	47
2.62700	21
2.63067	-7
2.63433	-38
2.63800	-69
2.64167	-97
2.64533	-120
2.64900	-136
2.65267	-150
2.65633	-160
2.66000	-166
2.66367	-168
2.66733	-167
2.67100	-166
2.67467	-164
2.67833	-164
2.68200	-161
2.68567	-155
2.68933	-147
2.69300	-139
2.69667	-130
2.70033	-123
2.70400	-117
2.70767	-110
2.71133	-103
2.71500	-95
2.71867	-87
2.72233	-79
2.72600	-73
2.72967	-67
2.73333	-60
2.73700	-53
2.74067	-48
2.74433	-44
2.74800	-41
2.75167	-38
2.75533	-32
2.75900	-29
2.76267	-26
2.76633	-24
2.77000	-19
2.77367	-16
2.77733	-14
2.78100	-13
2.78467	-11
2.78833	-7
2.79200	-5
2.79567	-2
2.79933	1
2.80300	5
2.80667	8
2.81033	12
2.81400	17
2.81767	22
2.82133	26
2.82500	31
2.82867	37
2.83233	49
2.83600	75
2.83967	131
2.84333	235
2.84700	412
2.85067	685
2.85433	1071
2.85800	1570
2.86167	2166
2.86533	2821
2.86900	3486
2.87267	4107
2.87633	4631
2.88000	5021
2.88367	5255
2.88733	5330
2.89100	5257
2.89467	5062
2.89833	4778
2.90200	4434
2.90567	4061
2.90933	3677
2.91300	3294
2.91667	2926
2.92033	2586
2.92400	2274
2.92767	1993
2.93133	1741
2.93500	1516
2.93867	1317
2.94233	1142
2.94600	991
2.94967	860
2.95333	748
2.95700	652
2.96067	567
2.96433	493
2.96800	428
2.97167	368
2.97533	295
2.97900	228
2.98267	180
2.98633	152
2.99000	138
2.99367	130
2.99733	126
3.00100	123
3.00467	116
3.00833	105
3.01200	92
3.01567	79
3.01933	67
3.02300	59
3.02667	55
3.03033	60
3.03400	71
3.03767	89
3.04133	109
3.04500	130
3.04867	151
3.05233	172
3.05600	194
3.05967	215
3.06333	234
3.06700	249
3.07067	264
3.07433	277
3.07800	287
3.08167	297
3.08533	306
3.08900	312
3.09267	317
3.09633	321
3.10000	325
3.10367	328
3.10733	332
3.11100	333
3.11467	336
3.11833	341
3.12200	345
3.12567	348
3.12933	350
3.13300	352
3.13667	355
3.14033	357
3.14400	357
3.14767	360
3.15133	363
3.15500	365
3.15867	366
3.16233	366
3.16600	366
3.16967	366
3.17333	367
3.17700	368
3.18067	369
3.18433	372
3.18800	376
3.19167	380
3.19533	381
3.19900	384
3.20267	387
3.20633	390
3.21000	393
3.21367	394
3.21733	396
3.22100	395
3.22467	398
3.22833	402
3.23200	405
3.23567	408
3.23933	409
3.24300	411
3.24667	414
3.25033	417
3.25400	419
3.25767	420
3.26133	423
3.26500	426
3.26867	427
3.27233	427
3.27600	429
3.27967	429
3.28333	429
3.28700	430
3.29067	431
3.29433	431
3.29800	432
3.30167	432
3.30533	432
3.30900	432
3.31267	433
3.31633	431
3.32000	428
3.32367	425
3.32733	422
3.33100	423
3.33467	422
3.33833	422
3.34200	423
3.34567	423
3.34933	421
3.35300	417
3.35667	414
3.36033	411
3.36400	408
3.36767	405
3.37133	404
3.37500	400
3.37867	395
3.38233	393
3.38600	393
3.38967	393
3.39333	391
3.39700	388
3.40067	385
3.40433	382
3.40800	381
3.41167	380
3.41533	379
3.41900	377
3.42267	374
3.42633	371
3.43000	367
3.43367	366
3.43733	365
3.44100	362
3.44467	358
3.44833	356
3.45200	357
3.45567	356
3.45933	355
3.46300	355
3.46667	352
3.47033	349
3.47400	347
3.47767	345
3.48133	345
3.48500	343
3.48867	341
3.49233	339
3.49600	338
3.49967	337
3.50333	337
3.50700	335
3.51067	331
3.51433	326
3.51800	324
3.52167	323
3.52533	322
3.52900	319
3.53267	315
3.53633	313
3.54000	311
3.54367	312
3.54733	313
3.55100	313
3.55467	311
3.55833	309
3.56200	305
3.56567	302
3.56933	298
3.57300	298
3.57667	298
3.58033	299
3.58400	296
3.58767	293
3.59133	292
3.59500	291
3.59867	288
3.60233	284
3.60600	283
3.60967	283
3.61333	282
3.61700	280
3.62067	279
3.62433	278
3.62800	277
3.63167	274
3.63533	272
3.63900	269
3.64267	266
3.64633	266
3.65000	264
3.65367	263
3.65733	262
3.66100	261
3.66467	258
3.66833	257
3.67200	256
3.67567	255
3.67933	255
3.68300	253
3.68667	251
3.69033	251
3.69400	251
3.69767	250
3.70133	249
3.70500	245
3.70867	242
3.71233	240
3.71600	239
3.71967	239
3.72333	238
3.72700	236
3.73067	235
3.73433	234
3.73800	229
3.74167	225
3.74533	222
3.74900	219
3.75267	218
3.75633	216
3.76000	217
3.76367	220
3.76733	220
3.77100	220
3.77467	219
3.77833	220
3.78200	217
3.78567	215
3.78933	213
3.79300	211
3.79667	210
3.80033	210
3.80400	210
3.80767	210
3.81133	210
3.81500	209
3.81867	206
3.82233	204
3.82600	203
3.82967	202
3.83333	201
3.83700	201
3.84067	202
3.84433	201
3.84800	199
3.85167	197
3.85533	195
3.85900	196
3.86267	195
3.86633	191
3.87000	188
3.87367	189
3.87733	190
3.88100	190
3.88467	188
3.88833	188
3.89200	188
3.89567	187
3.89933	184
3.90300	182
3.90667	179
3.91033	178
3.91400	178
3.91767	177
3.92133	177
3.92500	177
3.92867	176
3.93233	177
3.93600	177
3.93967	175
3.94333	176
3.94700	177
3.95067	174
3.95433	172
3.95800	169
3.96167	170
3.96533	170
3.96900	169
3.97267	167
3.97633	165
3.98000	162
3.98367	161
3.98733	163
3.99100	164
3.99467	163
3.99833	162

[Status Trace (Column Oven Temperature)]
Interval(msec)	1000
# of Points	240
Start Time(min)	0.003
End Time(min)	3.986
Intensity Units	
Intensity Multiplier	1
R.Time (min)	Intensity
0.00278	35.00
0.01945	35.00
0.03612	34.98
0.05278	34.98
0.06945	34.98
0.08612	34.98
0.10278	34.98
0.11945	34.98
0.13612	34.98
0.15278	34.99
0.16945	34.98
0.18612	34.98
0.20278	34.98
0.21945	34.98
0.23612	34.98
0.25278	34.99
0.26945	34.99
0.28612	34.99
0.30278	34.99
0.31945	34.99
0.33612	35.00
0.35278	35.00
0.36945	35.00
0.38612	35.00
0.40278	35.00
0.41945	35.00
0.43612	35.00
0.45278	35.00
0.46945	35.01
0.48612	35.01
0.50278	35.00
0.51945	35.00
0.53612	34.99
0.55278	34.99
0.56945	34.98
0.58612	34.99
0.60278	34.99
0.61945	35.00
0.63612	35.00
0.65278	35.00
0.66945	35.01
0.68612	35.01
0.70278	35.00
0.71945	35.00
0.73612	35.01
0.75278	35.00
0.76945	35.00
0.78612	35.01
0.80278	35.00
0.81945	35.00
0.83612	34.99
0.85278	34.98
0.86945	34.98
0.88612	34.98
0.90278	34.98
0.91945	34.99
0.93612	34.99
0.95278	35.00
0.96945	35.01
0.98612	35.01
1.00278	35.02
1.01945	35.02
1.03612	35.02
1.05278	35.02
1.06945	35.01
1.08612	35.01
1.10278	35.01
1.11945	35.01
1.13612	35.02
1.15278	35.03
1.16945	35.05
1.18612	35.05
1.20278	35.05
1.21945	35.04
1.23612	35.02
1.25278	35.01
1.26945	34.99
1.28612	34.98
1.30278	34.98
1.31945	34.97
1.33612	34.98
1.35278	34.99
1.36945	34.99
1.38612	34.99
1.40278	35.00
1.41945	35.00
1.43612	34.99
1.45278	34.99
1.46945	34.99
1.48612	34.99
1.50278	34.98
1.51945	34.99
1.53612	35.00
1.55278	35.00
1.56945	35.00
1.58612	35.00
1.60278	35.05
1.61945	35.14
1.63612	35.32
1.65278	35.55
1.66945	35.84
1.68612	36.21
1.70278	36.57
1.71945	36.90
1.73612	37.25
1.75278	37.58
1.76945	37.92
1.78612	38.25
1.80278	38.55
1.81945	38.89
1.83612	39.22
1.85278	39.55
1.86945	39.89
1.88612	40.21
1.90278	40.53
1.91945	40.86
1.93612	41.19
1.95278	41.54
1.96945	41.86
1.98612	42.19
2.00278	42.52
2.01945	42.83
2.03612	43.16
2.05278	43.48
2.06945	43.81
2.08612	44.13
2.10278	44.47
2.11945	44.79
2.13612	45.09
2.15278	45.42
2.16945	45.77
2.18612	46.08
2.20278	46.43
2.21945	46.74
2.23612	47.08
2.25278	47.40
2.26945	47.72
2.28612	48.04
2.30278	48.42
2.31945	48.77
2.33612	49.07
2.35278	49.38
2.36945	49.58
2.38612	49.65
2.40278	49.65
2.41945	49.65
2.43612	49.66
2.45278	49.66
2.46945	49.66
2.48612	49.70
2.50278	49.70
2.51945	49.74
2.53612	49.75
2.55278	49.78
2.56945	49.77
2.58612	49.81
2.60278	49.83
2.61945	49.83
2.63612	49.84
2.65278	49.85
2.66945	49.86
2.68612	49.86
2.70278	49.84
2.71945	49.85
2.73612	49.88
2.75278	49.89
2.76945	49.90
2.78612	49.89
2.80278	49.87
2.81945	49.87
2.83612	49.86
2.85278	49.85
2.86945	49.86
2.88612	49.88
2.90278	49.89
2.91945	49.91
2.93612	49.93
2.95278	49.95
2.96945	49.97
2.98612	49.98
3.00278	50.00
3.01945	50.01
3.03612	50.01
3.05278	50.01
3.06945	50.01
3.08612	50.03
3.10278	50.03
3.11945	50.04
3.13612	50.05
3.15278	50.05
3.16945	50.06
3.18612	50.06
3.20278	50.07
3.21945	50.07
3.23612	50.07
3.25278	50.08
3.26945	50.08
3.28612	50.09
3.30278	50.09
3.31945	50.10
3.33612	50.11
3.35278	50.11
3.36945	50.10
3.38612	50.09
3.40278	50.08
3.41945	50.07
3.43612	50.06
3.45278	50.06
3.46945	50.05
3.48612	50.05
3.50278	50.06
3.51945	50.06
3.53612	50.05
3.55278	50.06
3.56945	50.06
3.58612	50.06
3.60278	50.07
3.61945	50.06
3.63612	50.07
3.65278	50.07
3.66945	50.06
3.68612	50.06
3.70278	50.07
3.71945	50.07
3.73612	50.07
3.75278	50.07
3.76945	50.06
3.78612	50.07
3.80278	50.07
3.81945	50.06
3.83612	50.06
3.85278	50.06
3.86945	50.06
3.88612	50.07
3.90278	50.07
3.91945	50.07
3.93612	50.07
3.95278	50.06
3.96945	50.06
3.98612	50.06

[Status Trace (Injection Unit Temperature)]
Interval(msec)	1000
# of Points	240
Start Time(min)	0.003
End Time(min)	3.986
Intensity Units	
Intensity Multiplier	1
R.Time (min)	Intensity
0.00278	99.98
0.01945	99.98
0.03612	99.98
0.05278	99.98
0.06945	99.98
0.08612	99.98
0.10278	99.98
0.11945	99.98
0.13612	99.98
0.15278	99.98
0.16945	99.98
0.18612	99.98
0.20278	99.98
0.21945	99.99
0.23612	99.98
0.25278	99.98
0.26945	99.98
0.28612	99.98
0.30278	99.99
0.31945	99.98
0.33612	99.98
0.35278	99.99
0.36945	99.98
0.38612	99.98
0.40278	99.99
0.41945	99.98
0.43612	99.99
0.45278	99.99
0.46945	99.98
0.48612	99.98
0.50278	99.98
0.51945	99.99
0.53612	99.99
0.55278	99.99
0.56945	99.99
0.58612	99.99
0.60278	99.99
0.61945	99.99
0.63612	99.99
0.65278	99.99
0.66945	99.98
0.68612	99.99
0.70278	99.99
0.71945	99.99
0.73612	99.99
0.75278	99.99
0.76945	99.99
0.78612	99.99
0.80278	99.99
0.81945	99.99
0.83612	99.99
0.85278	99.99
0.86945	99.99
0.88612	99.98
0.90278	99.99
0.91945	99.99
0.93612	99.99
0.95278	99.99
0.96945	99.99
0.98612	99.99
1.00278	99.99
1.01945	99.99
1.03612	99.98
1.05278	99.99
1.06945	99.99
1.08612	99.99
1.10278	99.99
1.11945	99.99
1.13612	99.99
1.15278	99.99
1.16945	99.99
1.18612	99.99
1.20278	99.99
1.21945	99.99
1.23612	99.99
1.25278	99.99
1.26945	99.98
1.28612	99.99
1.30278	99.99
1.31945	99.99
1.33612	99.99
1.35278	99.99
1.36945	99.99
1.38612	99.99
1.40278	99.98
1.41945	99.99
1.43612	99.99
1.45278	99.99
1.46945	99.99
1.48612	99.98
1.50278	99.99
1.51945	99.99
1.53612	99.99
1.55278	99.99
1.56945	99.98
1.58612	99.99
1.60278	99.99
1.61945	99.99
1.63612	99.99
1.65278	99.99
1.66945	99.99
1.68612	99.99
1.70278	99.99
1.71945	99.99
1.73612	99.98
1.75278	99.99
1.76945	99.99
1.78612	99.99
1.80278	99.99
1.81945	99.99
1.83612	99.99
1.85278	99.99
1.86945	99.99
1.88612	99.98
1.90278	99.99
1.91945	99.98
1.93612	99.98
1.95278	99.98
1.96945	99.98
1.98612	99.98
2.00278	99.98
2.01945	99.98
2.03612	99.98
2.05278	99.98
2.06945	99.98
2.08612	99.98
2.10278	99.98
2.11945	99.98
2.13612	99.98
2.15278	99.98
2.16945	99.98
2.18612	99.97
2.20278	99.98
2.21945	99.98
2.23612	99.98
2.25278	99.97
2.26945	99.98
2.28612	99.98
2.30278	99.98
2.31945	99.98
2.33612	99.98
2.35278	99.97
2.36945	99.98
2.38612	99.98
2.40278	99.98
2.41945	99.98
2.43612	99.98
2.45278	99.98
2.46945	99.98
2.48612	99.98
2.50278	99.98
2.51945	99.98
2.53612	99.98
2.55278	99.98
2.56945	99.98
2.58612	99.98
2.60278	99.98
2.61945	99.99
2.63612	99.99
2.65278	99.98
2.66945	99.99
2.68612	99.99
2.70278	99.98
2.71945	99.99
2.73612	99.99
2.75278	99.99
2.76945	99.99
2.78612	100.00
2.80278	99.99
2.81945	99.99
2.83612	100.00
2.85278	100.00
2.86945	99.99
2.88612	100.00
2.90278	100.00
2.91945	100.00
2.93612	100.00
2.95278	100.00
2.96945	100.00
2.98612	100.00
3.00278	100.01
3.01945	100.01
3.03612	100.01
3.05278	100.01
3.06945	100.01
3.08612	100.01
3.10278	100.01
3.11945	100.01
3.13612	100.01
3.15278	100.01
3.16945	100.02
3.18612	100.02
3.20278	100.02
3.21945	100.02
3.23612	100.02
3.25278	100.02
3.26945	100.02
3.28612	100.02
3.30278	100.02
3.31945	100.02
3.33612	100.02
3.35278	100.03
3.36945	100.02
3.38612	100.03
3.40278	100.03
3.41945	100.03
3.43612	100.03
3.45278	100.03
3.46945	100.03
3.48612	100.03
3.50278	100.03
3.51945	100.03
3.53612	100.03
3.55278	100.03
3.56945	100.03
3.58612	100.03
3.60278	100.03
3.61945	100.03
3.63612	100.03
3.65278	100.03
3.66945	100.03
3.68612	100.03
3.70278	100.04
3.71945	100.03
3.73612	100.04
3.75278	100.04
3.76945	100.04
3.78612	100.04
3.80278	100.04
3.81945	100.04
3.83612	100.04
3.85278	100.04
3.86945	100.04
3.88612	100.04
3.90278	100.04
3.91945	100.04
3.93612	100.04
3.95278	100.04
3.96945	100.04
3.98612	100.04

[Status Trace (Carrier Gas Pressure)]
Interval(msec)	1000
# of Points	240
Start Time(min)	0.003
End Time(min)	3.986
Intensity Units	
Intensity Multiplier	1
R.Time (min)	Intensity
0.00278	58.00
0.01945	56.21
0.03612	56.39
0.05278	58.53
0.06945	59.88
0.08612	58.29
0.10278	57.97
0.11945	58.00
0.13612	58.01
0.15278	58.01
0.16945	58.00
0.18612	58.00
0.20278	58.00
0.21945	58.00
0.23612	58.00
0.25278	58.00
0.26945	58.00
0.28612	58.00
0.30278	58.00
0.31945	58.00
0.33612	58.00
0.35278	58.00
0.36945	58.00
0.38612	58.00
0.40278	58.00
0.41945	58.00
0.43612	58.00
0.45278	58.00
0.46945	58.00
0.48612	58.00
0.50278	58.00
0.51945	58.00
0.53612	58.00
0.55278	58.00
0.56945	58.00
0.58612	58.00
0.60278	58.00
0.61945	58.00
0.63612	58.00
0.65278	58.00
0.66945	58.00
0.68612	58.00
0.70278	58.00
0.71945	58.00
0.73612	58.00
0.75278	58.00
0.76945	58.00
0.78612	58.00
0.80278	58.00
0.81945	58.00
0.83612	58.00
0.85278	58.00
0.86945	58.00
0.88612	58.00
0.90278	58.00
0.91945	58.00
0.93612	58.00
0.95278	58.00
0.96945	58.00
0.98612	58.00
1.00278	58.00
1.01945	58.00
1.03612	58.00
1.05278	58.00
1.06945	58.00
1.08612	58.00
1.10278	58.00
1.11945	58.00
1.13612	58.00
1.15278	58.00
1.16945	58.00
1.18612	58.00
1.20278	58.00
1.21945	58.00
1.23612	58.00
1.25278	58.00
1.26945	58.00
1.28612	58.00
1.30278	58.00
1.31945	58.00
1.33612	58.00
1.35278	58.00
1.36945	58.00
1.38612	58.00
1.40278	58.00
1.41945	58.00
1.43612	58.00
1.45278	58.00
1.46945	58.00
1.48612	58.00
1.50278	58.00
1.51945	58.00
1.53612	58.00
1.55278	58.00
1.56945	58.00
1.58612	58.00
1.60278	58.00
1.61945	58.00
1.63612	58.01
1.65278	58.00
1.66945	58.00
1.68612	58.01
1.70278	58.00
1.71945	58.00
1.73612	58.00
1.75278	58.00
1.76945	58.00
1.78612	58.00
1.80278	58.00
1.81945	58.00
1.83612	58.00
1.85278	58.00
1.86945	58.00
1.88612	58.00
1.90278	58.00
1.91945	58.00
1.93612	58.00
1.95278	58.00
1.96945	58.00
1.98612	58.00
2.00278	58.00
2.01945	58.00
2.03612	58.00
2.05278	58.00
2.06945	58.00
2.08612	58.00
2.10278	58.00
2.11945	58.00
2.13612	58.00
2.15278	58.00
2.16945	58.00
2.18612	58.00
2.20278	58.00
2.21945	58.00
2.23612	58.00
2.25278	58.00
2.26945	58.00
2.28612	58.00
2.30278	58.00
2.31945	58.00
2.33612	58.00
2.35278	58.00
2.36945	58.00
2.38612	57.99
2.40278	57.99
2.41945	58.00
2.43612	58.00
2.45278	58.00
2.46945	58.00
2.48612	58.00
2.50278	57.98
2.51945	58.02
2.53612	57.99
2.55278	58.00
2.56945	58.00
2.58612	58.00
2.60278	58.00
2.61945	58.00
2.63612	58.00
2.65278	58.00
2.66945	58.00
2.68612	58.00
2.70278	58.00
2.71945	58.00
2.73612	58.00
2.75278	58.00
2.76945	58.00
2.78612	58.00
2.80278	58.00
2.81945	58.00
2.83612	58.00
2.85278	58.00
2.86945	58.00
2.88612	58.00
2.90278	58.00
2.91945	58.00
2.93612	58.00
2.95278	58.00
2.96945	58.00
2.98612	58.00
3.00278	58.00
3.01945	58.00
3.03612	58.00
3.05278	58.00
3.06945	58.00
3.08612	58.00
3.10278	58.00
3.11945	58.00
3.13612	58.00
3.15278	58.00
3.16945	58.00
3.18612	58.00
3.20278	58.00
3.21945	58.00
3.23612	58.00
3.25278	58.00
3.26945	58.00
3.28612	58.00
3.30278	58.00
3.31945	58.00
3.33612	58.00
3.35278	58.00
3.36945	58.00
3.38612	58.00
3.40278	58.00
3.41945	58.00
3.43612	58.00
3.45278	58.00
3.46945	58.00
3.48612	58.00
3.50278	58.00
3.51945	58.00
3.53612	58.00
3.55278	58.00
3.56945	58.00
3.58612	58.00
3.60278	58.00
3.61945	58.00
3.63612	58.00
3.65278	58.00
3.66945	58.00
3.68612	58.00
3.70278	58.00
3.71945	58.00
3.73612	58.00
3.75278	58.00
3.76945	58.00
3.78612	58.00
3.80278	58.00
3.81945	58.00
3.83612	58.00
3.85278	58.00
3.86945	58.00
3.88612	58.00
3.90278	58.00
3.91945	58.00
3.93612	58.00
3.95278	58.00
3.96945	58.00
3.98612	58.00

[Status Trace (Carrier Gas Flow)]
Interval(msec)	1000
# of Points	240
Start Time(min)	0.003
End Time(min)	3.986
Intensity Units	
Intensity Multiplier	1
R.Time (min)	Intensity
0.00278	34.52
0.01945	34.61
0.03612	34.54
0.05278	34.55
0.06945	34.49
0.08612	34.50
0.10278	34.52
0.11945	34.52
0.13612	34.52
0.15278	34.52
0.16945	34.52
0.18612	34.52
0.20278	34.51
0.21945	34.52
0.23612	34.52
0.25278	34.52
0.26945	34.51
0.28612	34.52
0.30278	34.53
0.31945	34.52
0.33612	34.52
0.35278	34.52
0.36945	34.52
0.38612	34.53
0.40278	34.52
0.41945	34.52
0.43612	34.52
0.45278	34.52
0.46945	34.52
0.48612	34.52
0.50278	34.52
0.51945	34.52
0.53612	34.52
0.55278	34.52
0.56945	34.52
0.58612	34.52
0.60278	34.52
0.61945	34.52
0.63612	34.52
0.65278	34.52
0.66945	34.52
0.68612	34.52
0.70278	34.52
0.71945	34.52
0.73612	34.52
0.75278	34.52
0.76945	34.52
0.78612	34.52
0.80278	34.52
0.81945	34.52
0.83612	34.52
0.85278	34.52
0.86945	34.52
0.88612	34.52
0.90278	34.52
0.91945	34.52
0.93612	34.52
0.95278	34.52
0.96945	34.52
0.98612	34.52
1.00278	34.52
1.01945	34.52
1.03612	34.52
1.05278	34.52
1.06945	34.52
1.08612	34.52
1.10278	34.52
1.11945	34.52
1.13612	34.52
1.15278	34.52
1.16945	34.52
1.18612	34.52
1.20278	34.52
1.21945	34.52
1.23612	34.52
1.25278	34.52
1.26945	34.52
1.28612	34.52
1.30278	34.52
1.31945	34.52
1.33612	34.52
1.35278	34.52
1.36945	34.52
1.38612	34.52
1.40278	34.52
1.41945	34.52
1.43612	34.52
1.45278	34.52
1.46945	34.52
1.48612	34.52
1.50278	34.52
1.51945	34.52
1.53612	34.52
1.55278	34.52
1.56945	34.52
1.58612	34.52
1.60278	34.52
1.61945	34.52
1.63612	34.52
1.65278	34.52
1.66945	34.52
1.68612	34.52
1.70278	34.52
1.71945	34.52
1.73612	34.52
1.75278	34.52
1.76945	34.52
1.78612	34.52
1.80278	34.52
1.81945	34.52
1.83612	34.52
1.85278	34.52
1.86945	34.52
1.88612	34.52
1.90278	34.52
1.91945	34.52
1.93612	34.52
1.95278	34.52
1.96945	34.52
1.98612	34.52
2.00278	34.52
2.01945	34.52
2.03612	34.52
2.05278	34.52
2.06945	34.52
2.08612	34.52
2.10278	34.52
2.11945	34.52
2.13612	34.52
2.15278	34.52
2.16945	34.52
2.18612	34.52
2.20278	34.52
2.21945	34.52
2.23612	34.52
2.25278	34.52
2.26945	34.52
2.28612	34.52
2.30278	34.52
2.31945	34.52
2.33612	34.52
2.35278	34.52
2.36945	34.52
2.38612	34.52
2.40278	34.52
2.41945	34.52
2.43612	34.52
2.45278	34.52
2.46945	34.52
2.48612	34.52
2.50278	34.56
2.51945	34.51
2.53612	34.52
2.55278	34.51
2.56945	34.52
2.58612	34.52
2.60278	34.51
2.61945	34.52
2.63612	34.52
2.65278	34.52
2.66945	34.52
2.68612	34.52
2.70278	34.52
2.71945	34.52
2.73612	34.52
2.75278	34.51
2.76945	34.52
2.78612	34.52
2.80278	34.52
2.81945	34.52
2.83612	34.52
2.85278	34.52
2.86945	34.51
2.88612	34.52
2.90278	34.52
2.91945	34.52
2.93612	34.52
2.95278	34.51
2.96945	34.52
2.98612	34.53
3.00278	34.52
3.01945	34.52
3.03612	34.52
3.05278	34.52
3.06945	34.53
3.08612	34.52
3.10278	34.52
3.11945	34.52
3.13612	34.52
3.15278	34.52
3.16945	34.52
3.18612	34.52
3.20278	34.52
3.21945	34.52
3.23612	34.51
3.25278	34.52
3.26945	34.52
3.28612	34.51
3.30278	34.52
3.31945	34.53
3.33612	34.51
3.35278	34.52
3.36945	34.52
3.38612	34.52
3.40278	34.52
3.41945	34.52
3.43612	34.52
3.45278	34.52
3.46945	34.52
3.48612	34.52
3.50278	34.52
3.51945	34.52
3.53612	34.52
3.55278	34.52
3.56945	34.52
3.58612	34.52
3.60278	34.52
3.61945	34.52
3.63612	34.52
3.65278	34.52
3.66945	34.52
3.68612	34.52
3.70278	34.52
3.71945	34.52
3.73612	34.52
3.75278	34.52
3.76945	34.52
3.78612	34.52
3.80278	34.52
3.81945	34.52
3.83612	34.52
3.85278	34.52
3.86945	34.52
3.88612	34.52
3.90278	34.52
3.91945	34.52
3.93612	34.52
3.95278	34.52
3.96945	34.52
3.98612	34.52

[Status Trace (Column Flow)]
Interval(msec)	1000
# of Points	240
Start Time(min)	0.003
End Time(min)	3.986
Intensity Units	
Intensity Multiplier	1
R.Time (min)	Intensity
0.00278	5.44
0.01945	5.24
0.03612	5.26
0.05278	5.50
0.06945	5.66
0.08612	5.47
0.10278	5.44
0.11945	5.44
0.13612	5.44
0.15278	5.44
0.16945	5.44
0.18612	5.44
0.20278	5.44
0.21945	5.44
0.23612	5.44
0.25278	5.44
0.26945	5.44
0.28612	5.44
0.30278	5.44
0.31945	5.44
0.33612	5.44
0.35278	5.44
0.36945	5.44
0.38612	5.44
0.40278	5.44
0.41945	5.44
0.43612	5.44
0.45278	5.44
0.46945	5.44
0.48612	5.44
0.50278	5.44
0.51945	5.44
0.53612	5.44
0.55278	5.44
0.56945	5.44
0.58612	5.44
0.60278	5.44
0.61945	5.44
0.63612	5.44
0.65278	5.44
0.66945	5.44
0.68612	5.44
0.70278	5.44
0.71945	5.44
0.73612	5.44
0.75278	5.44
0.76945	5.44
0.78612	5.44
0.80278	5.44
0.81945	5.44
0.83612	5.44
0.85278	5.44
0.86945	5.44
0.88612	5.44
0.90278	5.44
0.91945	5.44
0.93612	5.44
0.95278	5.44
0.96945	5.44
0.98612	5.44
1.00278	5.44
1.01945	5.44
1.03612	5.44
1.05278	5.44
1.06945	5.44
1.08612	5.44
1.10278	5.44
1.11945	5.44
1.13612	5.44
1.15278	5.44
1.16945	5.44
1.18612	5.44
1.20278	5.44
1.21945	5.44
1.23612	5.44
1.25278	5.44
1.26945	5.44
1.28612	5.44
1.30278	5.44
1.31945	5.44
1.33612	5.44
1.35278	5.44
1.36945	5.44
1.38612	5.44
1.40278	5.44
1.41945	5.44
1.43612	5.44
1.45278	5.44
1.46945	5.44
1.48612	5.44
1.50278	5.44
1.51945	5.44
1.53612	5.44
1.55278	5.44
1.56945	5.44
1.58612	5.44
1.60278	5.44
1.61945	5.44
1.63612	5.43
1.65278	5.42
1.66945	5.42
1.68612	5.40
1.70278	5.39
1.71945	5.38
1.73612	5.37
1.75278	5.36
1.76945	5.35
1.78612	5.34
1.80278	5.33
1.81945	5.32
1.83612	5.31
1.85278	5.30
1.86945	5.29
1.88612	5.28
1.90278	5.27
1.91945	5.26
1.93612	5.25
1.95278	5.24
1.96945	5.23
1.98612	5.22
2.00278	5.21
2.01945	5.20
2.03612	5.19
2.05278	5.19
2.06945	5.18
2.08612	5.17
2.10278	5.16
2.11945	5.15
2.13612	5.14
2.15278	5.13
2.16945	5.12
2.18612	5.11
2.20278	5.10
2.21945	5.09
2.23612	5.08
2.25278	5.08
2.26945	5.07
2.28612	5.06
2.30278	5.05
2.31945	5.04
2.33612	5.03
2.35278	5.02
2.36945	5.01
2.38612	5.01
2.40278	5.01
2.41945	5.01
2.43612	5.01
2.45278	5.01
2.46945	5.01
2.48612	5.01
2.50278	5.01
2.51945	5.01
2.53612	5.01
2.55278	5.01
2.56945	5.01
2.58612	5.01
2.60278	5.01
2.61945	5.01
2.63612	5.01
2.65278	5.01
2.66945	5.01
2.68612	5.01
2.70278	5.01
2.71945	5.01
2.73612	5.01
2.75278	5.01
2.76945	5.01
2.78612	5.01
2.80278	5.01
2.81945	5.01
2.83612	5.01
2.85278	5.01
2.86945	5.01
2.88612	5.01
2.90278	5.01
2.91945	5.01
2.93612	5.01
2.95278	5.00
2.96945	5.00
2.98612	5.00
3.00278	5.00
3.01945	5.00
3.03612	5.00
3.05278	5.00
3.06945	5.00
3.08612	5.00
3.10278	5.00
3.11945	5.00
3.13612	5.00
3.15278	5.00
3.16945	5.00
3.18612	5.00
3.20278	5.00
3.21945	5.00
3.23612	5.00
3.25278	5.00
3.26945	5.00
3.28612	5.00
3.30278	5.00
3.31945	5.00
3.33612	5.00
3.35278	5.00
3.36945	5.00
3.38612	5.00
3.40278	5.00
3.41945	5.00
3.43612	5.00
3.45278	5.00
3.46945	5.00
3.48612	5.00
3.50278	5.00
3.51945	5.00
3.53612	5.00
3.55278	5.00
3.56945	5.00
3.58612	5.00
3.60278	5.00
3.61945	5.00
3.63612	5.00
3.65278	5.00
3.66945	5.00
3.68612	5.00
3.70278	5.00
3.71945	5.00
3.73612	5.00
3.75278	5.00
3.76945	5.00
3.78612	5.00
3.80278	5.00
3.81945	5.00
3.83612	5.00
3.85278	5.00
3.86945	5.00
3.88612	5.00
3.90278	5.00
3.91945	5.00
3.93612	5.00
3.95278	5.00
3.96945	5.00
3.98612	5.00

[Status Trace (Linear Velocity)]
Interval(msec)	1000
# of Points	240
Start Time(min)	0.003
End Time(min)	3.986
Intensity Units	
Intensity Multiplier	1
R.Time (min)	Intensity
0.00278	39.00
0.01945	37.83
0.03612	37.94
0.05278	39.34
0.06945	40.23
0.08612	39.19
0.10278	38.98
0.11945	39.00
0.13612	39.01
0.15278	39.00
0.16945	39.00
0.18612	39.00
0.20278	39.00
0.21945	39.00
0.23612	39.00
0.25278	39.00
0.26945	39.00
0.28612	39.00
0.30278	39.00
0.31945	39.00
0.33612	39.00
0.35278	39.00
0.36945	39.00
0.38612	39.00
0.40278	39.00
0.41945	39.00
0.43612	39.00
0.45278	39.00
0.46945	39.00
0.48612	39.00
0.50278	39.00
0.51945	39.00
0.53612	39.00
0.55278	39.00
0.56945	39.00
0.58612	39.00
0.60278	39.00
0.61945	39.00
0.63612	39.00
0.65278	39.00
0.66945	39.00
0.68612	39.00
0.70278	39.00
0.71945	39.00
0.73612	39.00
0.75278	39.00
0.76945	39.00
0.78612	39.00
0.80278	39.00
0.81945	39.00
0.83612	39.00
0.85278	39.00
0.86945	39.00
0.88612	39.00
0.90278	39.00
0.91945	39.00
0.93612	39.00
0.95278	39.00
0.96945	39.00
0.98612	39.00
1.00278	39.00
1.01945	39.00
1.03612	38.99
1.05278	39.00
1.06945	39.00
1.08612	39.00
1.10278	39.00
1.11945	39.00
1.13612	39.00
1.15278	38.99
1.16945	38.99
1.18612	38.99
1.20278	38.99
1.21945	38.99
1.23612	39.00
1.25278	39.00
1.26945	39.00
1.28612	39.00
1.30278	39.00
1.31945	39.00
1.33612	39.00
1.35278	39.00
1.36945	39.00
1.38612	39.00
1.40278	39.00
1.41945	39.00
1.43612	39.00
1.45278	39.00
1.46945	39.00
1.48612	39.00
1.50278	39.00
1.51945	39.00
1.53612	39.00
1.55278	39.00
1.56945	39.00
1.58612	39.00
1.60278	38.99
1.61945	38.99
1.63612	38.97
1.65278	38.95
1.66945	38.92
1.68612	38.88
1.70278	38.85
1.71945	38.82
1.73612	38.78
1.75278	38.75
1.76945	38.72
1.78612	38.69
1.80278	38.66
1.81945	38.63
1.83612	38.60
1.85278	38.57
1.86945	38.54
1.88612	38.50
1.90278	38.48
1.91945	38.45
1.93612	38.41
1.95278	38.38
1.96945	38.35
1.98612	38.32
2.00278	38.29
2.01945	38.26
2.03612	38.23
2.05278	38.20
2.06945	38.17
2.08612	38.14
2.10278	38.11
2.11945	38.08
2.13612	38.05
2.15278	38.03
2.16945	38.00
2.18612	37.96
2.20278	37.94
2.21945	37.91
2.23612	37.87
2.25278	37.85
2.26945	37.82
2.28612	37.79
2.30278	37.76
2.31945	37.73
2.33612	37.69
2.35278	37.67
2.36945	37.65
2.38612	37.64
2.40278	37.64
2.41945	37.64
2.43612	37.64
2.45278	37.64
2.46945	37.64
2.48612	37.64
2.50278	37.63
2.51945	37.65
2.53612	37.63
2.55278	37.63
2.56945	37.63
2.58612	37.63
2.60278	37.63
2.61945	37.63
2.63612	37.63
2.65278	37.63
2.66945	37.63
2.68612	37.63
2.70278	37.63
2.71945	37.63
2.73612	37.63
2.75278	37.62
2.76945	37.62
2.78612	37.62
2.80278	37.62
2.81945	37.63
2.83612	37.63
2.85278	37.63
2.86945	37.63
2.88612	37.62
2.90278	37.62
2.91945	37.62
2.93612	37.62
2.95278	37.62
2.96945	37.62
2.98612	37.62
3.00278	37.61
3.01945	37.61
3.03612	37.61
3.05278	37.61
3.06945	37.61
3.08612	37.61
3.10278	37.61
3.11945	37.61
3.13612	37.61
3.15278	37.61
3.16945	37.61
3.18612	37.61
3.20278	37.61
3.21945	37.61
3.23612	37.61
3.25278	37.61
3.26945	37.61
3.28612	37.61
3.30278	37.61
3.31945	37.61
3.33612	37.60
3.35278	37.60
3.36945	37.60
3.38612	37.61
3.40278	37.61
3.41945	37.61
3.43612	37.61
3.45278	37.61
3.46945	37.61
3.48612	37.61
3.50278	37.61
3.51945	37.61
3.53612	37.61
3.55278	37.61
3.56945	37.61
3.58612	37.61
3.60278	37.61
3.61945	37.61
3.63612	37.61
3.65278	37.61
3.66945	37.61
3.68612	37.61
3.70278	37.61
3.71945	37.61
3.73612	37.61
3.75278	37.61
3.76945	37.61
3.78612	37.61
3.80278	37.61
3.81945	37.61
3.83612	37.61
3.85278	37.61
3.86945	37.61
3.88612	37.61
3.90278	37.61
3.91945	37.61
3.93612	37.61
3.95278	37.61
3.96945	37.61
3.98612	37.61

