[Header]
Application Name	LabSolutions
Version	5.110
Data File Name	C:\Users\User\Desktop\GC Analyses\Jack\UIC Prairie Sampling\9.30.22\220930_009.gcd
Output Date	1/4/2023
Output Time	2:28:00 PM

[File Information]
Type	Data File
Generated	11/29/2022 12:20:56 PM
Generated by	System Administrator
Modified	11/29/2022 12:25:08 PM
Modified by	System Administrator

[Sample Information]
Operator Name	System Administrator
Acquired	11/29/2022 12:21:08 PM
Sample Type	1:Standard
Level	1
Sample Name	220930_UICPrairie
Sample ID	220930_UICPrairie
ISTD Amount1	1
ISTD Amount2	1
ISTD Amount3	1
ISTD Amount4	1
ISTD Amount5	1
ISTD Amount6	1
ISTD Amount7	1
ISTD Amount8	1
ISTD Amount9	1
ISTD Amount10	1
ISTD Amount11	1
ISTD Amount12	1
ISTD Amount13	1
ISTD Amount14	1
ISTD Amount15	1
ISTD Amount16	1
ISTD Amount17	1
ISTD Amount18	1
ISTD Amount19	1
ISTD Amount20	1
ISTD Amount21	1
ISTD Amount22	1
ISTD Amount23	1
ISTD Amount24	1
ISTD Amount25	1
ISTD Amount26	1
ISTD Amount27	1
ISTD Amount28	1
ISTD Amount29	1
ISTD Amount30	1
ISTD Amount31	1
ISTD Amount32	1
Sample Amount	1
Dilution Factor	1
Vial#	1
Injection Volume	1
Injection Count	1
Bar Code	

[Original Files]
Data File	C:\Users\User\Desktop\GC Analyses\Jack\UIC Prairie Sampling\9.30.22\220930_009.gcd
Method File	C:\LabSolutions\Data\GHG_4min_2022\ghg3_togas_w_acet_4 min_new_int.gcm
Batch File	
Report Format File	c:\LabSolutions\System\DEFAULT.lsr

[File Description]


[Configuration]
Instrument Name	C0B7VH3-Instrument1
Instrument #	1
Line #	1
# of Detectors	3
Detector ID	DET#1	DET#2	DET#3
Detector Name	FID	PTCD	ECD
# of Channels	1	1	1

[Peak Table(Ch1)]
# of Peaks	3
Peak#	R.Time	I.Time	F.Time	Area	Height	A/H	Conc.	Mark	ID#	Name	k'	Plate #	Plate Ht.	Tailing	Resolution	Sep.Factor	Area Ratio	Height Ratio	Conc. %	Norm Conc.
1	1.476	1.439	1.538	7875	3309	2.380	100.000	   	1	CO	0.000	7666	19.567	1.334	0.000	0.000	0	0	16.667	16.667
2	1.571	1.538	1.630	5040	2535	1.988	100.000	 V 	2	CH4	0.065	11454	13.096	1.156	1.512	0.000	0	0	16.667	16.667
3	2.000	1.952	2.433	1456591	701995	2.075	400.000	   	3	CO2	0.355	17768	8.442	1.213	7.226	5.500	0	0	66.667	66.667

[Peak Table(Ch2)]
# of Peaks	0

[Peak Table(Ch3)]
# of Peaks	4
Peak#	R.Time	I.Time	F.Time	Area	Height	A/H	Conc.	Mark	ID#	Name	k'	Plate #	Plate Ht.	Tailing	Resolution	Sep.Factor	Area Ratio	Height Ratio	Conc. %	Norm Conc.
1	2.458	2.356	2.499	1006	294	3.421	0.000	   			0.000	18054	8.308	0.705	0.000	0.000	0	0	0.000	0.000
2	2.587	2.502	2.660	3632	580	6.263	0.000	   			0.052	3283	45.684	0.000	1.011	0.000	0	0	0.000	0.000
3	2.748	2.660	2.821	3427	392	8.736	0.097	 V 	1	N2O	0.118	151	991.898	0.000	0.300	2.257	0	0	9.668	9.668
4	2.887	2.821	3.855	32020	5555	5.764	0.903	 V 	1	N2O	0.175	12056	12.441	0.000	0.279	1.481	0	0	90.332	90.332

[Compound Results(Ch1)]
# of IDs	6
ID#	Name	R.Time	Area	Height	Conc.	Curve	3rd	2nd	1st	Constant	Area Ratio	Height Ratio	Conc. %	Norm Conc.
1	CO	1.476	7875	3309	100.000	Linear	0.000000e+00	0.000000e+00	7.875446e+001	0.000000e+00	0	0	16.667	16.667
2	CH4	1.571	5040	2535	100.000	Linear	0.000000e+00	0.000000e+00	5.040201e+001	0.000000e+00	0	0	16.667	16.667
3	CO2	2.000	1456591	701995	400.000	Linear	0.000000e+00	0.000000e+00	3.641477e+003	0.000000e+00	0	0	66.667	66.667
4	Ethylene	0.000	0	0	0.000	Linear	0.000000e+00	0.000000e+00	0.000000e+00	0.000000e+00	0	0	0.000	0.000
5	Acetylene	0.000	0	0	0.000	Linear	0.000000e+00	0.000000e+00	0.000000e+00	0.000000e+00	0	0	0.000	0.000
6	Ethane	0.000	0	0	0.000	Linear	0.000000e+00	0.000000e+00	0.000000e+00	0.000000e+00	0	0	0.000	0.000

[Compound Results(Ch2)]
# of IDs	5
ID#	Name	R.Time	Area	Height	Conc.	Curve	3rd	2nd	1st	Constant	Area Ratio	Height Ratio	Conc. %	Norm Conc.
1	Hydrogen	0.000	0	0	0.000	Linear	0.000000e+00	0.000000e+00	0.000000e+00	0.000000e+00	0	0	0.000	0.000
2	Oxygen	0.000	0	0	0.000	Linear	0.000000e+00	0.000000e+00	0.000000e+00	0.000000e+00	0	0	0.000	0.000
3	Nitrogen	0.000	0	0	0.000	Linear	0.000000e+00	0.000000e+00	0.000000e+00	0.000000e+00	0	0	0.000	0.000
4	Methane	0.000	0	0	0.000	Linear	0.000000e+00	0.000000e+00	0.000000e+00	0.000000e+00	0	0	0.000	0.000
5	Carbon Monoxide	0.000	0	0	0.000	Linear	0.000000e+00	0.000000e+00	0.000000e+00	0.000000e+00	0	0	0.000	0.000

[Compound Results(Ch3)]
# of IDs	2
ID#	Name	R.Time	Area	Height	Conc.	Curve	3rd	2nd	1st	Constant	Area Ratio	Height Ratio	Conc. %	Norm Conc.
1	N2O	2.887	35447	5947	1.000	Linear	0.000000e+00	0.000000e+00	3.544675e+004	0.000000e+00	0	0	100.000	100.000
2	SF6	0.000	0	0	0.000	Linear	0.000000e+00	0.000000e+00	0.000000e+00	0.000000e+00	0	0	0.000	0.000

[Group Results(Ch1)]
# of Groups	0

[Group Results(Ch2)]
# of Groups	0

[Group Results(Ch3)]
# of Groups	0

[Chromatogram (Ch1)]
Interval(msec)	220
# of Points	1091
Start Time(min)	0.002
End Time(min)	3.998
R.Time (min)	Intensity
0.00167	27
0.00533	31
0.00900	28
0.01267	22
0.01633	15
0.02000	7
0.02367	6
0.02733	6
0.03100	14
0.03467	12
0.03833	5
0.04200	5
0.04567	10
0.04933	20
0.05300	24
0.05667	22
0.06033	16
0.06400	16
0.06767	19
0.07133	18
0.07500	18
0.07867	18
0.08233	20
0.08600	17
0.08967	11
0.09333	12
0.09700	18
0.10067	19
0.10433	17
0.10800	13
0.11167	11
0.11533	11
0.11900	13
0.12267	14
0.12633	14
0.13000	15
0.13367	17
0.13733	19
0.14100	17
0.14467	13
0.14833	7
0.15200	-0
0.15567	-8
0.15933	-14
0.16300	-15
0.16667	-16
0.17033	-18
0.17400	-18
0.17767	-17
0.18133	-11
0.18500	-5
0.18867	-0
0.19233	3
0.19600	5
0.19967	2
0.20333	-3
0.20700	-8
0.21067	-10
0.21433	-9
0.21800	-4
0.22167	-4
0.22533	-6
0.22900	-7
0.23267	-5
0.23633	0
0.24000	6
0.24367	10
0.24733	9
0.25100	6
0.25467	1
0.25833	-6
0.26200	-11
0.26567	-14
0.26933	-13
0.27300	-9
0.27667	-4
0.28033	-1
0.28400	-1
0.28767	-2
0.29133	-7
0.29500	-12
0.29867	-13
0.30233	-9
0.30600	-3
0.30967	-4
0.31333	-10
0.31700	-16
0.32067	-18
0.32433	-17
0.32800	-17
0.33167	-15
0.33533	-11
0.33900	-9
0.34267	-12
0.34633	-17
0.35000	-19
0.35367	-17
0.35733	-17
0.36100	-17
0.36467	-13
0.36833	-6
0.37200	-3
0.37567	-3
0.37933	-5
0.38300	-6
0.38667	-10
0.39033	-16
0.39400	-19
0.39767	-18
0.40133	-15
0.40500	-12
0.40867	-9
0.41233	-10
0.41600	-12
0.41967	-14
0.42333	-16
0.42700	-16
0.43067	-18
0.43433	-21
0.43800	-24
0.44167	-27
0.44533	-28
0.44900	-30
0.45267	-33
0.45633	-37
0.46000	-40
0.46367	-38
0.46733	-36
0.47100	-36
0.47467	-37
0.47833	-36
0.48200	-36
0.48567	-34
0.48933	-29
0.49300	-22
0.49667	-19
0.50033	-19
0.50400	-24
0.50767	-31
0.51133	-37
0.51500	-40
0.51867	-37
0.52233	-28
0.52600	-19
0.52967	-9
0.53333	-6
0.53700	-9
0.54067	-15
0.54433	-20
0.54800	-26
0.55167	-33
0.55533	-36
0.55900	-38
0.56267	-40
0.56633	-42
0.57000	-41
0.57367	-40
0.57733	-36
0.58100	-30
0.58467	-24
0.58833	-24
0.59200	-27
0.59567	-30
0.59933	-33
0.60300	-33
0.60667	-33
0.61033	-36
0.61400	-43
0.61767	-48
0.62133	-50
0.62500	-49
0.62867	-45
0.63233	-42
0.63600	-37
0.63967	-32
0.64333	-28
0.64700	-27
0.65067	-28
0.65433	-28
0.65800	-26
0.66167	-25
0.66533	-27
0.66900	-31
0.67267	-35
0.67633	-41
0.68000	-48
0.68367	-53
0.68733	-53
0.69100	-52
0.69467	-52
0.69833	-50
0.70200	-45
0.70567	-37
0.70933	-28
0.71300	-22
0.71667	-21
0.72033	-23
0.72400	-27
0.72767	-30
0.73133	-34
0.73500	-37
0.73867	-40
0.74233	-45
0.74600	-52
0.74967	-56
0.75333	-56
0.75700	-51
0.76067	-44
0.76433	-41
0.76800	-41
0.77167	-41
0.77533	-37
0.77900	-37
0.78267	-34
0.78633	-31
0.79000	-28
0.79367	-26
0.79733	-29
0.80100	-32
0.80467	-32
0.80833	-32
0.81200	-33
0.81567	-33
0.81933	-34
0.82300	-35
0.82667	-37
0.83033	-42
0.83400	-47
0.83767	-49
0.84133	-51
0.84500	-52
0.84867	-54
0.85233	-57
0.85600	-58
0.85967	-59
0.86333	-56
0.86700	-49
0.87067	-43
0.87433	-41
0.87800	-45
0.88167	-47
0.88533	-48
0.88900	-48
0.89267	-49
0.89633	-46
0.90000	-41
0.90367	-38
0.90733	-38
0.91100	-38
0.91467	-37
0.91833	-36
0.92200	-35
0.92567	-35
0.92933	-33
0.93300	-31
0.93667	-31
0.94033	-32
0.94400	-35
0.94767	-39
0.95133	-44
0.95500	-50
0.95867	-56
0.96233	-60
0.96600	-60
0.96967	-60
0.97333	-61
0.97700	-63
0.98067	-63
0.98433	-60
0.98800	-58
0.99167	-56
0.99533	-53
0.99900	-52
1.00267	-53
1.00633	-56
1.01000	-56
1.01367	-53
1.01733	-48
1.02100	-45
1.02467	-43
1.02833	-46
1.03200	-52
1.03567	-58
1.03933	-62
1.04300	-61
1.04667	-60
1.05033	-59
1.05400	-58
1.05767	-54
1.06133	-48
1.06500	-44
1.06867	-43
1.07233	-44
1.07600	-50
1.07967	-57
1.08333	-66
1.08700	-74
1.09067	-75
1.09433	-70
1.09800	-63
1.10167	-59
1.10533	-57
1.10900	-54
1.11267	-52
1.11633	-54
1.12000	-55
1.12367	-55
1.12733	-54
1.13100	-54
1.13467	-57
1.13833	-63
1.14200	-69
1.14567	-71
1.14933	-72
1.15300	-70
1.15667	-68
1.16033	-65
1.16400	-60
1.16767	-57
1.17133	-56
1.17500	-54
1.17867	-48
1.18233	-41
1.18600	-37
1.18967	-37
1.19333	-38
1.19700	-40
1.20067	-43
1.20433	-46
1.20800	-51
1.21167	-57
1.21533	-66
1.21900	-73
1.22267	-76
1.22633	-76
1.23000	-73
1.23367	-68
1.23733	-62
1.24100	-58
1.24467	-60
1.24833	-63
1.25200	-66
1.25567	-64
1.25933	-61
1.26300	-56
1.26667	-52
1.27033	-51
1.27400	-49
1.27767	-50
1.28133	-55
1.28500	-62
1.28867	-67
1.29233	-70
1.29600	-76
1.29967	-80
1.30333	-78
1.30700	-70
1.31067	-62
1.31433	-60
1.31800	-63
1.32167	-70
1.32533	-75
1.32900	-73
1.33267	-67
1.33633	-59
1.34000	-55
1.34367	-57
1.34733	-58
1.35100	-57
1.35467	-54
1.35833	-53
1.36200	-56
1.36567	-59
1.36933	-60
1.37300	-62
1.37667	-65
1.38033	-69
1.38400	-73
1.38767	-79
1.39133	-84
1.39500	-87
1.39867	-89
1.40233	-87
1.40600	-83
1.40967	-78
1.41333	-68
1.41700	-56
1.42067	-49
1.42433	-48
1.42800	-50
1.43167	-51
1.43533	-51
1.43900	-42
1.44267	18
1.44633	189
1.45000	472
1.45367	853
1.45733	1339
1.46100	1882
1.46467	2395
1.46833	2814
1.47200	3110
1.47567	3265
1.47933	3256
1.48300	3067
1.48667	2717
1.49033	2273
1.49400	1812
1.49767	1392
1.50133	1042
1.50500	768
1.50867	565
1.51233	419
1.51600	313
1.51967	231
1.52333	167
1.52700	120
1.53067	84
1.53433	56
1.53800	40
1.54167	65
1.54533	198
1.54900	496
1.55267	939
1.55633	1434
1.56000	1884
1.56367	2232
1.56733	2444
1.57100	2489
1.57467	2344
1.57833	2033
1.58200	1629
1.58567	1219
1.58933	870
1.59300	597
1.59667	395
1.60033	253
1.60400	156
1.60767	95
1.61133	49
1.61500	15
1.61867	-10
1.62233	-28
1.62600	-40
1.62967	-47
1.63333	-51
1.63700	-52
1.64067	-55
1.64433	-62
1.64800	-67
1.65167	-68
1.65533	-66
1.65900	-64
1.66267	-59
1.66633	-54
1.67000	-55
1.67367	-53
1.67733	-56
1.68100	-60
1.68467	-66
1.68833	-74
1.69200	-78
1.69567	-79
1.69933	-77
1.70300	-72
1.70667	-69
1.71033	-68
1.71400	-63
1.71767	-57
1.72133	-54
1.72500	-53
1.72867	-56
1.73233	-65
1.73600	-74
1.73967	-77
1.74333	-75
1.74700	-69
1.75067	-62
1.75433	-59
1.75800	-58
1.76167	-55
1.76533	-50
1.76900	-45
1.77267	-44
1.77633	-46
1.78000	-51
1.78367	-55
1.78733	-56
1.79100	-60
1.79467	-67
1.79833	-74
1.80200	-77
1.80567	-79
1.80933	-77
1.81300	-70
1.81667	-61
1.82033	-54
1.82400	-51
1.82767	-50
1.83133	-56
1.83500	-63
1.83867	-59
1.84233	-52
1.84600	-48
1.84967	-46
1.85333	-44
1.85700	-43
1.86067	-46
1.86433	-52
1.86800	-56
1.87167	-58
1.87533	-58
1.87900	-54
1.88267	-46
1.88633	-37
1.89000	-30
1.89367	-26
1.89733	-26
1.90100	-31
1.90467	-35
1.90833	-40
1.91200	-44
1.91567	-46
1.91933	-47
1.92300	-49
1.92667	-50
1.93033	-50
1.93400	-51
1.93767	-50
1.94133	-47
1.94500	-47
1.94867	-43
1.95233	-34
1.95600	7
1.95967	270
1.96333	1661
1.96700	7307
1.97067	24710
1.97433	65931
1.97800	142142
1.98167	253852
1.98533	386494
1.98900	516833
1.99267	622634
1.99633	687476
2.00000	702004
2.00367	666104
2.00733	589509
2.01100	489155
2.01467	383608
2.01833	287312
2.02200	207908
2.02567	147033
2.02933	102711
2.03300	71556
2.03667	50141
2.04033	35604
2.04400	25786
2.04767	19141
2.05133	14608
2.05500	11474
2.05867	9270
2.06233	7688
2.06600	6524
2.06967	5645
2.07333	4966
2.07700	4426
2.08067	3986
2.08433	3622
2.08800	3317
2.09167	3059
2.09533	2836
2.09900	2638
2.10267	2463
2.10633	2311
2.11000	2182
2.11367	2069
2.11733	1968
2.12100	1877
2.12467	1792
2.12833	1710
2.13200	1632
2.13567	1557
2.13933	1491
2.14300	1435
2.14667	1382
2.15033	1333
2.15400	1286
2.15767	1241
2.16133	1203
2.16500	1169
2.16867	1137
2.17233	1106
2.17600	1075
2.17967	1044
2.18333	1010
2.18700	978
2.19067	945
2.19433	909
2.19800	874
2.20167	842
2.20533	818
2.20900	803
2.21267	790
2.21633	779
2.22000	770
2.22367	762
2.22733	753
2.23100	743
2.23467	729
2.23833	716
2.24200	700
2.24567	682
2.24933	665
2.25300	652
2.25667	639
2.26033	627
2.26400	617
2.26767	613
2.27133	610
2.27500	603
2.27867	597
2.28233	591
2.28600	581
2.28967	569
2.29333	557
2.29700	548
2.30067	543
2.30433	536
2.30800	525
2.31167	515
2.31533	507
2.31900	500
2.32267	493
2.32633	486
2.33000	481
2.33367	477
2.33733	475
2.34100	476
2.34467	475
2.34833	473
2.35200	471
2.35567	467
2.35933	461
2.36300	456
2.36667	452
2.37033	448
2.37400	442
2.37767	439
2.38133	438
2.38500	437
2.38867	435
2.39233	434
2.39600	435
2.39967	433
2.40333	425
2.40700	417
2.41067	414
2.41433	413
2.41800	413
2.42167	417
2.42533	418
2.42900	413
2.43267	406
2.43633	403
2.44000	407
2.44367	411
2.44733	411
2.45100	409
2.45467	402
2.45833	397
2.46200	398
2.46567	398
2.46933	397
2.47300	393
2.47667	386
2.48033	378
2.48400	370
2.48767	366
2.49133	363
2.49500	364
2.49867	368
2.50233	372
2.50600	372
2.50967	364
2.51333	351
2.51700	343
2.52067	341
2.52433	343
2.52800	349
2.53167	357
2.53533	364
2.53900	362
2.54267	354
2.54633	345
2.55000	338
2.55367	331
2.55733	324
2.56100	317
2.56467	313
2.56833	314
2.57200	320
2.57567	330
2.57933	339
2.58300	341
2.58667	341
2.59033	339
2.59400	339
2.59767	337
2.60133	330
2.60500	323
2.60867	317
2.61233	315
2.61600	313
2.61967	312
2.62333	311
2.62700	311
2.63067	315
2.63433	322
2.63800	327
2.64167	327
2.64533	323
2.64900	319
2.65267	315
2.65633	311
2.66000	309
2.66367	307
2.66733	306
2.67100	306
2.67467	304
2.67833	300
2.68200	298
2.68567	296
2.68933	293
2.69300	289
2.69667	284
2.70033	280
2.70400	279
2.70767	280
2.71133	281
2.71500	282
2.71867	283
2.72233	286
2.72600	295
2.72967	305
2.73333	312
2.73700	312
2.74067	309
2.74433	302
2.74800	294
2.75167	288
2.75533	284
2.75900	283
2.76267	282
2.76633	279
2.77000	272
2.77367	264
2.77733	260
2.78100	263
2.78467	267
2.78833	271
2.79200	275
2.79567	281
2.79933	285
2.80300	285
2.80667	283
2.81033	279
2.81400	277
2.81767	274
2.82133	270
2.82500	264
2.82867	259
2.83233	255
2.83600	254
2.83967	256
2.84333	260
2.84700	265
2.85067	269
2.85433	273
2.85800	279
2.86167	284
2.86533	282
2.86900	277
2.87267	269
2.87633	260
2.88000	256
2.88367	258
2.88733	260
2.89100	261
2.89467	260
2.89833	259
2.90200	259
2.90567	258
2.90933	251
2.91300	242
2.91667	237
2.92033	237
2.92400	237
2.92767	237
2.93133	242
2.93500	245
2.93867	245
2.94233	246
2.94600	244
2.94967	239
2.95333	236
2.95700	238
2.96067	246
2.96433	251
2.96800	250
2.97167	246
2.97533	242
2.97900	238
2.98267	237
2.98633	240
2.99000	245
2.99367	247
2.99733	252
3.00100	259
3.00467	266
3.00833	270
3.01200	269
3.01567	266
3.01933	261
3.02300	257
3.02667	258
3.03033	262
3.03400	265
3.03767	263
3.04133	257
3.04500	250
3.04867	244
3.05233	240
3.05600	239
3.05967	240
3.06333	241
3.06700	241
3.07067	238
3.07433	234
3.07800	229
3.08167	222
3.08533	214
3.08900	209
3.09267	206
3.09633	207
3.10000	212
3.10367	219
3.10733	225
3.11100	230
3.11467	231
3.11833	229
3.12200	223
3.12567	217
3.12933	212
3.13300	211
3.13667	212
3.14033	211
3.14400	212
3.14767	212
3.15133	210
3.15500	204
3.15867	200
3.16233	197
3.16600	197
3.16967	199
3.17333	203
3.17700	207
3.18067	209
3.18433	208
3.18800	207
3.19167	210
3.19533	212
3.19900	213
3.20267	214
3.20633	211
3.21000	203
3.21367	197
3.21733	189
3.22100	182
3.22467	178
3.22833	176
3.23200	176
3.23567	174
3.23933	174
3.24300	180
3.24667	188
3.25033	197
3.25400	206
3.25767	217
3.26133	222
3.26500	220
3.26867	211
3.27233	198
3.27600	187
3.27967	179
3.28333	181
3.28700	186
3.29067	190
3.29433	191
3.29800	187
3.30167	179
3.30533	171
3.30900	165
3.31267	164
3.31633	165
3.32000	169
3.32367	176
3.32733	182
3.33100	184
3.33467	186
3.33833	187
3.34200	187
3.34567	185
3.34933	181
3.35300	178
3.35667	177
3.36033	180
3.36400	184
3.36767	186
3.37133	190
3.37500	195
3.37867	199
3.38233	204
3.38600	208
3.38967	209
3.39333	209
3.39700	204
3.40067	192
3.40433	183
3.40800	179
3.41167	176
3.41533	175
3.41900	175
3.42267	177
3.42633	182
3.43000	184
3.43367	187
3.43733	190
3.44100	186
3.44467	177
3.44833	170
3.45200	167
3.45567	164
3.45933	162
3.46300	164
3.46667	166
3.47033	169
3.47400	173
3.47767	176
3.48133	177
3.48500	174
3.48867	171
3.49233	172
3.49600	173
3.49967	173
3.50333	169
3.50700	161
3.51067	154
3.51433	150
3.51800	146
3.52167	140
3.52533	138
3.52900	143
3.53267	150
3.53633	156
3.54000	161
3.54367	159
3.54733	153
3.55100	144
3.55467	138
3.55833	136
3.56200	137
3.56567	138
3.56933	141
3.57300	144
3.57667	148
3.58033	152
3.58400	152
3.58767	151
3.59133	147
3.59500	141
3.59867	139
3.60233	141
3.60600	143
3.60967	145
3.61333	148
3.61700	150
3.62067	150
3.62433	151
3.62800	150
3.63167	148
3.63533	145
3.63900	142
3.64267	139
3.64633	138
3.65000	138
3.65367	140
3.65733	142
3.66100	144
3.66467	146
3.66833	148
3.67200	150
3.67567	151
3.67933	148
3.68300	144
3.68667	139
3.69033	133
3.69400	128
3.69767	126
3.70133	126
3.70500	126
3.70867	125
3.71233	121
3.71600	114
3.71967	111
3.72333	112
3.72700	116
3.73067	119
3.73433	118
3.73800	112
3.74167	108
3.74533	109
3.74900	115
3.75267	121
3.75633	122
3.76000	117
3.76367	110
3.76733	104
3.77100	102
3.77467	101
3.77833	100
3.78200	100
3.78567	100
3.78933	103
3.79300	110
3.79667	117
3.80033	121
3.80400	123
3.80767	124
3.81133	122
3.81500	121
3.81867	122
3.82233	119
3.82600	115
3.82967	113
3.83333	115
3.83700	117
3.84067	117
3.84433	112
3.84800	109
3.85167	109
3.85533	106
3.85900	102
3.86267	98
3.86633	95
3.87000	92
3.87367	88
3.87733	85
3.88100	84
3.88467	85
3.88833	86
3.89200	88
3.89567	93
3.89933	98
3.90300	102
3.90667	103
3.91033	101
3.91400	93
3.91767	82
3.92133	73
3.92500	70
3.92867	72
3.93233	81
3.93600	91
3.93967	99
3.94333	102
3.94700	99
3.95067	93
3.95433	87
3.95800	82
3.96167	76
3.96533	73
3.96900	73
3.97267	75
3.97633	77
3.98000	80
3.98367	84
3.98733	88
3.99100	90
3.99467	90
3.99833	88

[Chromatogram (Ch2)]
Interval(msec)	220
# of Points	1091
Start Time(min)	0.002
End Time(min)	3.998
R.Time (min)	Intensity
0.00167	-0
0.00533	-1
0.00900	-1
0.01267	-1
0.01633	-1
0.02000	-1
0.02367	-1
0.02733	-1
0.03100	-1
0.03467	-1
0.03833	-0
0.04200	-0
0.04567	-0
0.04933	-0
0.05300	-0
0.05667	-0
0.06033	-0
0.06400	-0
0.06767	-0
0.07133	-0
0.07500	-0
0.07867	-1
0.08233	-1
0.08600	-1
0.08967	-1
0.09333	-1
0.09700	-1
0.10067	-1
0.10433	-1
0.10800	-0
0.11167	-0
0.11533	0
0.11900	0
0.12267	0
0.12633	0
0.13000	0
0.13367	0
0.13733	1
0.14100	1
0.14467	1
0.14833	1
0.15200	1
0.15567	1
0.15933	1
0.16300	1
0.16667	1
0.17033	1
0.17400	1
0.17767	2
0.18133	2
0.18500	2
0.18867	2
0.19233	2
0.19600	2
0.19967	2
0.20333	1
0.20700	1
0.21067	1
0.21433	1
0.21800	1
0.22167	1
0.22533	0
0.22900	0
0.23267	0
0.23633	0
0.24000	0
0.24367	-0
0.24733	-0
0.25100	-0
0.25467	-0
0.25833	-0
0.26200	-0
0.26567	-0
0.26933	-0
0.27300	-0
0.27667	-0
0.28033	-0
0.28400	-1
0.28767	-1
0.29133	-0
0.29500	-1
0.29867	-1
0.30233	-1
0.30600	-1
0.30967	-1
0.31333	-1
0.31700	-1
0.32067	-1
0.32433	-1
0.32800	-0
0.33167	-0
0.33533	-0
0.33900	0
0.34267	0
0.34633	0
0.35000	0
0.35367	0
0.35733	0
0.36100	-0
0.36467	-0
0.36833	-0
0.37200	-0
0.37567	-0
0.37933	0
0.38300	0
0.38667	0
0.39033	-0
0.39400	-0
0.39767	-0
0.40133	-0
0.40500	-1
0.40867	-1
0.41233	-1
0.41600	-1
0.41967	-1
0.42333	-0
0.42700	-0
0.43067	-0
0.43433	-1
0.43800	-1
0.44167	-1
0.44533	-1
0.44900	-1
0.45267	-0
0.45633	-0
0.46000	-0
0.46367	-0
0.46733	-0
0.47100	-0
0.47467	-0
0.47833	-1
0.48200	-1
0.48567	-1
0.48933	-1
0.49300	-1
0.49667	-1
0.50033	-1
0.50400	-1
0.50767	-1
0.51133	-1
0.51500	-1
0.51867	-1
0.52233	-1
0.52600	-1
0.52967	-1
0.53333	-0
0.53700	-0
0.54067	-0
0.54433	-0
0.54800	-1
0.55167	-1
0.55533	-1
0.55900	-1
0.56267	-1
0.56633	-2
0.57000	-2
0.57367	-2
0.57733	-2
0.58100	-1
0.58467	-1
0.58833	-1
0.59200	-1
0.59567	-1
0.59933	-0
0.60300	-0
0.60667	-0
0.61033	-0
0.61400	-0
0.61767	-0
0.62133	-0
0.62500	-0
0.62867	-1
0.63233	-1
0.63600	-0
0.63967	-0
0.64333	-0
0.64700	-0
0.65067	-1
0.65433	-1
0.65800	-1
0.66167	-1
0.66533	-1
0.66900	-1
0.67267	-1
0.67633	-1
0.68000	-1
0.68367	-2
0.68733	-2
0.69100	-1
0.69467	-1
0.69833	-1
0.70200	-1
0.70567	-1
0.70933	-1
0.71300	-1
0.71667	-1
0.72033	-2
0.72400	-2
0.72767	-2
0.73133	-2
0.73500	-2
0.73867	-2
0.74233	-2
0.74600	-2
0.74967	-2
0.75333	-2
0.75700	-2
0.76067	-2
0.76433	-2
0.76800	-2
0.77167	-2
0.77533	-2
0.77900	-2
0.78267	-2
0.78633	-2
0.79000	-2
0.79367	-2
0.79733	-2
0.80100	-2
0.80467	-2
0.80833	-2
0.81200	-2
0.81567	-2
0.81933	-2
0.82300	-3
0.82667	-2
0.83033	-2
0.83400	-2
0.83767	-2
0.84133	-2
0.84500	-1
0.84867	-1
0.85233	-1
0.85600	-1
0.85967	-2
0.86333	-2
0.86700	-2
0.87067	-2
0.87433	-2
0.87800	-2
0.88167	-2
0.88533	-2
0.88900	-2
0.89267	-2
0.89633	-2
0.90000	-2
0.90367	-2
0.90733	-3
0.91100	-3
0.91467	-3
0.91833	-3
0.92200	-2
0.92567	-3
0.92933	-3
0.93300	-3
0.93667	-3
0.94033	-3
0.94400	-3
0.94767	-3
0.95133	-3
0.95500	-3
0.95867	-3
0.96233	-2
0.96600	-2
0.96967	-2
0.97333	-2
0.97700	-2
0.98067	-1
0.98433	-1
0.98800	-1
0.99167	-1
0.99533	-1
0.99900	-1
1.00267	-1
1.00633	-1
1.01000	-1
1.01367	-1
1.01733	-1
1.02100	-0
1.02467	-0
1.02833	-0
1.03200	-0
1.03567	-0
1.03933	-1
1.04300	-1
1.04667	-1
1.05033	-1
1.05400	-1
1.05767	-1
1.06133	-1
1.06500	-2
1.06867	-2
1.07233	-2
1.07600	-2
1.07967	-2
1.08333	-2
1.08700	-2
1.09067	-2
1.09433	-2
1.09800	-2
1.10167	-1
1.10533	-1
1.10900	-2
1.11267	-2
1.11633	-2
1.12000	-2
1.12367	-2
1.12733	-2
1.13100	-2
1.13467	-3
1.13833	-3
1.14200	-3
1.14567	-3
1.14933	-3
1.15300	-2
1.15667	-2
1.16033	-2
1.16400	-2
1.16767	-2
1.17133	-2
1.17500	-2
1.17867	-2
1.18233	-2
1.18600	-2
1.18967	-3
1.19333	-3
1.19700	-3
1.20067	-3
1.20433	-4
1.20800	-4
1.21167	-4
1.21533	-4
1.21900	-4
1.22267	-4
1.22633	-4
1.23000	-4
1.23367	-4
1.23733	-4
1.24100	-3
1.24467	-3
1.24833	-2
1.25200	-2
1.25567	-2
1.25933	-2
1.26300	-2
1.26667	-2
1.27033	-2
1.27400	-2
1.27767	-2
1.28133	-2
1.28500	-2
1.28867	-2
1.29233	-2
1.29600	-2
1.29967	-2
1.30333	-2
1.30700	-2
1.31067	-2
1.31433	-2
1.31800	-2
1.32167	-1
1.32533	-1
1.32900	-1
1.33267	-0
1.33633	-1
1.34000	-1
1.34367	-1
1.34733	-1
1.35100	-2
1.35467	-2
1.35833	-2
1.36200	-2
1.36567	-3
1.36933	-3
1.37300	-3
1.37667	-3
1.38033	-3
1.38400	-3
1.38767	-3
1.39133	-3
1.39500	-3
1.39867	-3
1.40233	-3
1.40600	-3
1.40967	-3
1.41333	-3
1.41700	-3
1.42067	-3
1.42433	-3
1.42800	-3
1.43167	-3
1.43533	-3
1.43900	-3
1.44267	-3
1.44633	-3
1.45000	-3
1.45367	-4
1.45733	-4
1.46100	-4
1.46467	-4
1.46833	-4
1.47200	-4
1.47567	-4
1.47933	-4
1.48300	-4
1.48667	-4
1.49033	-4
1.49400	-4
1.49767	-4
1.50133	-4
1.50500	-4
1.50867	-3
1.51233	-3
1.51600	-3
1.51967	-3
1.52333	-2
1.52700	-2
1.53067	-2
1.53433	-2
1.53800	-1
1.54167	-1
1.54533	-1
1.54900	-1
1.55267	-1
1.55633	-1
1.56000	-1
1.56367	-1
1.56733	-1
1.57100	-1
1.57467	-1
1.57833	-1
1.58200	-1
1.58567	-1
1.58933	-2
1.59300	-2
1.59667	-3
1.60033	-4
1.60400	-5
1.60767	-6
1.61133	-8
1.61500	-10
1.61867	-12
1.62233	-15
1.62600	-17
1.62967	-20
1.63333	-23
1.63700	-26
1.64067	-30
1.64433	-33
1.64800	-37
1.65167	-40
1.65533	-44
1.65900	-47
1.66267	-51
1.66633	-56
1.67000	-61
1.67367	-66
1.67733	-71
1.68100	-76
1.68467	-81
1.68833	-86
1.69200	-90
1.69567	-94
1.69933	-97
1.70300	-100
1.70667	-103
1.71033	-105
1.71400	-107
1.71767	-108
1.72133	-109
1.72500	-109
1.72867	-109
1.73233	-109
1.73600	-109
1.73967	-109
1.74333	-109
1.74700	-109
1.75067	-109
1.75433	-109
1.75800	-110
1.76167	-110
1.76533	-111
1.76900	-112
1.77267	-113
1.77633	-114
1.78000	-116
1.78367	-117
1.78733	-117
1.79100	-118
1.79467	-118
1.79833	-119
1.80200	-119
1.80567	-119
1.80933	-119
1.81300	-119
1.81667	-119
1.82033	-119
1.82400	-119
1.82767	-118
1.83133	-118
1.83500	-117
1.83867	-117
1.84233	-117
1.84600	-118
1.84967	-118
1.85333	-118
1.85700	-119
1.86067	-119
1.86433	-119
1.86800	-118
1.87167	-118
1.87533	-118
1.87900	-118
1.88267	-118
1.88633	-118
1.89000	-118
1.89367	-118
1.89733	-118
1.90100	-119
1.90467	-119
1.90833	-119
1.91200	-119
1.91567	-119
1.91933	-119
1.92300	-118
1.92667	-118
1.93033	-118
1.93400	-118
1.93767	-118
1.94133	-118
1.94500	-117
1.94867	-117
1.95233	-116
1.95600	-116
1.95967	-116
1.96333	-115
1.96700	-115
1.97067	-115
1.97433	-115
1.97800	-114
1.98167	-114
1.98533	-113
1.98900	-112
1.99267	-112
1.99633	-112
2.00000	-112
2.00367	-111
2.00733	-111
2.01100	-110
2.01467	-110
2.01833	-110
2.02200	-110
2.02567	-110
2.02933	-110
2.03300	-109
2.03667	-109
2.04033	-108
2.04400	-107
2.04767	-107
2.05133	-106
2.05500	-105
2.05867	-105
2.06233	-105
2.06600	-104
2.06967	-104
2.07333	-105
2.07700	-105
2.08067	-105
2.08433	-105
2.08800	-105
2.09167	-105
2.09533	-105
2.09900	-105
2.10267	-105
2.10633	-104
2.11000	-103
2.11367	-103
2.11733	-102
2.12100	-102
2.12467	-101
2.12833	-102
2.13200	-102
2.13567	-102
2.13933	-101
2.14300	-101
2.14667	-100
2.15033	-99
2.15400	-98
2.15767	-98
2.16133	-97
2.16500	-97
2.16867	-97
2.17233	-97
2.17600	-96
2.17967	-96
2.18333	-96
2.18700	-96
2.19067	-96
2.19433	-96
2.19800	-96
2.20167	-96
2.20533	-96
2.20900	-95
2.21267	-95
2.21633	-95
2.22000	-95
2.22367	-95
2.22733	-94
2.23100	-94
2.23467	-93
2.23833	-93
2.24200	-92
2.24567	-91
2.24933	-91
2.25300	-90
2.25667	-90
2.26033	-89
2.26400	-89
2.26767	-89
2.27133	-89
2.27500	-88
2.27867	-88
2.28233	-87
2.28600	-87
2.28967	-86
2.29333	-86
2.29700	-86
2.30067	-87
2.30433	-87
2.30800	-88
2.31167	-88
2.31533	-89
2.31900	-89
2.32267	-88
2.32633	-87
2.33000	-86
2.33367	-85
2.33733	-84
2.34100	-83
2.34467	-82
2.34833	-81
2.35200	-80
2.35567	-79
2.35933	-78
2.36300	-77
2.36667	-76
2.37033	-74
2.37400	-73
2.37767	-71
2.38133	-68
2.38500	-65
2.38867	-62
2.39233	-59
2.39600	-55
2.39967	-51
2.40333	-48
2.40700	-44
2.41067	-40
2.41433	-36
2.41800	-32
2.42167	-28
2.42533	-25
2.42900	-22
2.43267	-19
2.43633	-17
2.44000	-15
2.44367	-14
2.44733	-12
2.45100	-10
2.45467	-8
2.45833	-7
2.46200	-5
2.46567	-3
2.46933	-2
2.47300	-1
2.47667	1
2.48033	2
2.48400	2
2.48767	3
2.49133	4
2.49500	4
2.49867	5
2.50233	6
2.50600	6
2.50967	7
2.51333	8
2.51700	8
2.52067	9
2.52433	10
2.52800	11
2.53167	11
2.53533	12
2.53900	12
2.54267	12
2.54633	12
2.55000	13
2.55367	13
2.55733	14
2.56100	14
2.56467	14
2.56833	15
2.57200	15
2.57567	15
2.57933	15
2.58300	15
2.58667	15
2.59033	15
2.59400	15
2.59767	15
2.60133	15
2.60500	15
2.60867	15
2.61233	15
2.61600	15
2.61967	15
2.62333	15
2.62700	15
2.63067	15
2.63433	16
2.63800	16
2.64167	17
2.64533	17
2.64900	17
2.65267	18
2.65633	18
2.66000	18
2.66367	18
2.66733	18
2.67100	17
2.67467	17
2.67833	17
2.68200	17
2.68567	17
2.68933	17
2.69300	18
2.69667	18
2.70033	19
2.70400	20
2.70767	21
2.71133	21
2.71500	22
2.71867	22
2.72233	22
2.72600	22
2.72967	22
2.73333	22
2.73700	21
2.74067	21
2.74433	21
2.74800	21
2.75167	21
2.75533	22
2.75900	22
2.76267	23
2.76633	23
2.77000	23
2.77367	24
2.77733	24
2.78100	25
2.78467	26
2.78833	26
2.79200	26
2.79567	27
2.79933	27
2.80300	27
2.80667	26
2.81033	26
2.81400	25
2.81767	25
2.82133	24
2.82500	24
2.82867	24
2.83233	24
2.83600	24
2.83967	24
2.84333	24
2.84700	23
2.85067	23
2.85433	22
2.85800	20
2.86167	16
2.86533	10
2.86900	1
2.87267	-11
2.87633	-26
2.88000	-45
2.88367	-68
2.88733	-95
2.89100	-126
2.89467	-161
2.89833	-199
2.90200	-239
2.90567	-283
2.90933	-328
2.91300	-375
2.91667	-424
2.92033	-473
2.92400	-523
2.92767	-573
2.93133	-623
2.93500	-672
2.93867	-721
2.94233	-770
2.94600	-819
2.94967	-872
2.95333	-930
2.95700	-991
2.96067	-1045
2.96433	-1082
2.96800	-1094
2.97167	-1080
2.97533	-1041
2.97900	-985
2.98267	-915
2.98633	-838
2.99000	-757
2.99367	-677
2.99733	-601
3.00100	-528
3.00467	-462
3.00833	-401
3.01200	-347
3.01567	-299
3.01933	-256
3.02300	-219
3.02667	-186
3.03033	-158
3.03400	-134
3.03767	-113
3.04133	-95
3.04500	-79
3.04867	-66
3.05233	-55
3.05600	-45
3.05967	-37
3.06333	-30
3.06700	-24
3.07067	-19
3.07433	-14
3.07800	-10
3.08167	-7
3.08533	-4
3.08900	-1
3.09267	1
3.09633	4
3.10000	5
3.10367	7
3.10733	8
3.11100	9
3.11467	10
3.11833	11
3.12200	12
3.12567	13
3.12933	13
3.13300	14
3.13667	15
3.14033	15
3.14400	15
3.14767	16
3.15133	16
3.15500	16
3.15867	16
3.16233	17
3.16600	17
3.16967	17
3.17333	17
3.17700	18
3.18067	18
3.18433	18
3.18800	19
3.19167	19
3.19533	19
3.19900	19
3.20267	20
3.20633	20
3.21000	20
3.21367	20
3.21733	20
3.22100	21
3.22467	21
3.22833	21
3.23200	21
3.23567	21
3.23933	22
3.24300	22
3.24667	22
3.25033	22
3.25400	22
3.25767	22
3.26133	22
3.26500	22
3.26867	22
3.27233	23
3.27600	23
3.27967	23
3.28333	23
3.28700	23
3.29067	23
3.29433	23
3.29800	23
3.30167	23
3.30533	23
3.30900	23
3.31267	23
3.31633	23
3.32000	23
3.32367	23
3.32733	23
3.33100	23
3.33467	23
3.33833	23
3.34200	23
3.34567	23
3.34933	23
3.35300	24
3.35667	23
3.36033	24
3.36400	24
3.36767	24
3.37133	24
3.37500	24
3.37867	24
3.38233	25
3.38600	25
3.38967	25
3.39333	25
3.39700	25
3.40067	25
3.40433	26
3.40800	26
3.41167	26
3.41533	26
3.41900	26
3.42267	27
3.42633	27
3.43000	27
3.43367	27
3.43733	27
3.44100	27
3.44467	27
3.44833	27
3.45200	26
3.45567	26
3.45933	26
3.46300	26
3.46667	26
3.47033	26
3.47400	26
3.47767	26
3.48133	26
3.48500	26
3.48867	26
3.49233	26
3.49600	26
3.49967	26
3.50333	26
3.50700	27
3.51067	27
3.51433	27
3.51800	27
3.52167	27
3.52533	27
3.52900	27
3.53267	27
3.53633	27
3.54000	27
3.54367	27
3.54733	27
3.55100	26
3.55467	26
3.55833	26
3.56200	26
3.56567	26
3.56933	26
3.57300	26
3.57667	26
3.58033	26
3.58400	25
3.58767	25
3.59133	25
3.59500	26
3.59867	26
3.60233	26
3.60600	26
3.60967	26
3.61333	25
3.61700	25
3.62067	25
3.62433	25
3.62800	25
3.63167	25
3.63533	24
3.63900	24
3.64267	24
3.64633	24
3.65000	24
3.65367	24
3.65733	24
3.66100	24
3.66467	24
3.66833	25
3.67200	25
3.67567	25
3.67933	25
3.68300	25
3.68667	26
3.69033	26
3.69400	26
3.69767	26
3.70133	26
3.70500	26
3.70867	27
3.71233	27
3.71600	27
3.71967	26
3.72333	26
3.72700	27
3.73067	27
3.73433	27
3.73800	27
3.74167	27
3.74533	27
3.74900	27
3.75267	27
3.75633	27
3.76000	27
3.76367	27
3.76733	27
3.77100	26
3.77467	26
3.77833	26
3.78200	26
3.78567	26
3.78933	26
3.79300	26
3.79667	26
3.80033	26
3.80400	26
3.80767	26
3.81133	26
3.81500	26
3.81867	26
3.82233	26
3.82600	26
3.82967	26
3.83333	26
3.83700	26
3.84067	26
3.84433	26
3.84800	26
3.85167	26
3.85533	26
3.85900	26
3.86267	26
3.86633	26
3.87000	26
3.87367	26
3.87733	26
3.88100	26
3.88467	26
3.88833	26
3.89200	26
3.89567	25
3.89933	25
3.90300	25
3.90667	25
3.91033	25
3.91400	25
3.91767	25
3.92133	25
3.92500	25
3.92867	25
3.93233	25
3.93600	25
3.93967	25
3.94333	25
3.94700	25
3.95067	25
3.95433	25
3.95800	25
3.96167	25
3.96533	25
3.96900	25
3.97267	25
3.97633	25
3.98000	25
3.98367	25
3.98733	25
3.99100	25
3.99467	26
3.99833	26

[Chromatogram (Ch3)]
Interval(msec)	220
# of Points	1091
Start Time(min)	0.002
End Time(min)	3.998
R.Time (min)	Intensity
0.00167	-1
0.00533	-2
0.00900	-2
0.01267	-4
0.01633	-6
0.02000	-5
0.02367	-6
0.02733	-8
0.03100	-8
0.03467	-7
0.03833	-7
0.04200	-6
0.04567	-6
0.04933	-7
0.05300	-6
0.05667	-5
0.06033	-6
0.06400	-6
0.06767	-7
0.07133	-8
0.07500	-7
0.07867	-5
0.08233	-3
0.08600	-1
0.08967	-0
0.09333	0
0.09700	0
0.10067	-0
0.10433	-0
0.10800	-0
0.11167	-2
0.11533	-3
0.11900	-4
0.12267	-3
0.12633	-1
0.13000	-0
0.13367	-1
0.13733	-4
0.14100	-4
0.14467	-2
0.14833	-1
0.15200	-2
0.15567	-2
0.15933	-4
0.16300	-7
0.16667	-8
0.17033	-4
0.17400	-2
0.17767	-2
0.18133	-2
0.18500	-1
0.18867	0
0.19233	-2
0.19600	-6
0.19967	-6
0.20333	-4
0.20700	-6
0.21067	-7
0.21433	-5
0.21800	-3
0.22167	-1
0.22533	-2
0.22900	-2
0.23267	-2
0.23633	-1
0.24000	-3
0.24367	-4
0.24733	-4
0.25100	-4
0.25467	-4
0.25833	-3
0.26200	-3
0.26567	-3
0.26933	-1
0.27300	-0
0.27667	2
0.28033	3
0.28400	2
0.28767	1
0.29133	-0
0.29500	-3
0.29867	-4
0.30233	-4
0.30600	-2
0.30967	-0
0.31333	1
0.31700	0
0.32067	0
0.32433	-1
0.32800	-3
0.33167	-5
0.33533	-4
0.33900	-1
0.34267	1
0.34633	4
0.35000	4
0.35367	4
0.35733	1
0.36100	1
0.36467	3
0.36833	3
0.37200	3
0.37567	5
0.37933	4
0.38300	2
0.38667	1
0.39033	1
0.39400	3
0.39767	4
0.40133	3
0.40500	3
0.40867	3
0.41233	4
0.41600	4
0.41967	3
0.42333	2
0.42700	1
0.43067	2
0.43433	1
0.43800	2
0.44167	5
0.44533	8
0.44900	8
0.45267	8
0.45633	8
0.46000	5
0.46367	3
0.46733	3
0.47100	2
0.47467	1
0.47833	-1
0.48200	-1
0.48567	1
0.48933	4
0.49300	6
0.49667	6
0.50033	5
0.50400	4
0.50767	4
0.51133	2
0.51500	1
0.51867	0
0.52233	0
0.52600	1
0.52967	1
0.53333	3
0.53700	5
0.54067	7
0.54433	7
0.54800	6
0.55167	5
0.55533	5
0.55900	4
0.56267	4
0.56633	5
0.57000	4
0.57367	3
0.57733	5
0.58100	7
0.58467	8
0.58833	7
0.59200	6
0.59567	4
0.59933	4
0.60300	4
0.60667	3
0.61033	3
0.61400	2
0.61767	1
0.62133	0
0.62500	1
0.62867	3
0.63233	2
0.63600	2
0.63967	5
0.64333	6
0.64700	6
0.65067	4
0.65433	6
0.65800	7
0.66167	7
0.66533	7
0.66900	7
0.67267	7
0.67633	7
0.68000	6
0.68367	4
0.68733	3
0.69100	3
0.69467	1
0.69833	1
0.70200	3
0.70567	4
0.70933	7
0.71300	8
0.71667	9
0.72033	9
0.72400	9
0.72767	9
0.73133	8
0.73500	7
0.73867	8
0.74233	8
0.74600	7
0.74967	8
0.75333	7
0.75700	5
0.76067	6
0.76433	6
0.76800	4
0.77167	3
0.77533	4
0.77900	6
0.78267	7
0.78633	8
0.79000	9
0.79367	10
0.79733	10
0.80100	8
0.80467	5
0.80833	4
0.81200	4
0.81567	7
0.81933	6
0.82300	6
0.82667	7
0.83033	7
0.83400	5
0.83767	4
0.84133	4
0.84500	5
0.84867	7
0.85233	7
0.85600	6
0.85967	5
0.86333	3
0.86700	1
0.87067	-1
0.87433	-1
0.87800	-1
0.88167	-2
0.88533	-4
0.88900	-3
0.89267	0
0.89633	3
0.90000	3
0.90367	3
0.90733	4
0.91100	5
0.91467	9
0.91833	10
0.92200	8
0.92567	8
0.92933	7
0.93300	4
0.93667	1
0.94033	-1
0.94400	0
0.94767	2
0.95133	1
0.95500	1
0.95867	1
0.96233	3
0.96600	4
0.96967	4
0.97333	4
0.97700	5
0.98067	2
0.98433	0
0.98800	0
0.99167	-2
0.99533	-2
0.99900	0
1.00267	2
1.00633	3
1.01000	4
1.01367	5
1.01733	4
1.02100	5
1.02467	4
1.02833	2
1.03200	-0
1.03567	-0
1.03933	1
1.04300	-0
1.04667	-2
1.05033	-4
1.05400	-6
1.05767	-5
1.06133	-3
1.06500	-3
1.06867	-0
1.07233	2
1.07600	2
1.07967	1
1.08333	3
1.08700	4
1.09067	3
1.09433	-0
1.09800	-3
1.10167	-5
1.10533	-5
1.10900	-4
1.11267	-4
1.11633	-4
1.12000	-4
1.12367	-3
1.12733	-3
1.13100	-3
1.13467	-3
1.13833	-2
1.14200	-3
1.14567	-2
1.14933	-2
1.15300	-2
1.15667	-3
1.16033	-2
1.16400	-2
1.16767	-3
1.17133	-5
1.17500	-5
1.17867	-4
1.18233	-2
1.18600	-2
1.18967	-3
1.19333	-4
1.19700	-4
1.20067	-6
1.20433	-6
1.20800	-6
1.21167	-5
1.21533	-5
1.21900	-4
1.22267	-5
1.22633	-7
1.23000	-9
1.23367	-10
1.23733	-9
1.24100	-10
1.24467	-9
1.24833	-8
1.25200	-6
1.25567	-5
1.25933	-7
1.26300	-8
1.26667	-7
1.27033	-3
1.27400	-3
1.27767	-3
1.28133	-3
1.28500	-3
1.28867	-3
1.29233	-6
1.29600	-8
1.29967	-7
1.30333	-6
1.30700	-4
1.31067	-3
1.31433	-3
1.31800	-4
1.32167	-6
1.32533	-4
1.32900	-3
1.33267	-4
1.33633	-4
1.34000	-6
1.34367	-7
1.34733	-7
1.35100	-7
1.35467	-6
1.35833	-7
1.36200	-7
1.36567	-7
1.36933	-7
1.37300	-5
1.37667	-3
1.38033	-5
1.38400	-6
1.38767	-5
1.39133	-3
1.39500	-1
1.39867	-1
1.40233	-2
1.40600	-1
1.40967	-2
1.41333	-6
1.41700	-7
1.42067	-6
1.42433	-7
1.42800	-9
1.43167	-9
1.43533	-8
1.43900	-9
1.44267	-10
1.44633	-10
1.45000	-10
1.45367	-13
1.45733	-13
1.46100	-12
1.46467	-11
1.46833	-10
1.47200	-8
1.47567	-7
1.47933	-10
1.48300	-13
1.48667	-13
1.49033	-13
1.49400	-12
1.49767	-11
1.50133	-9
1.50500	-8
1.50867	-8
1.51233	-8
1.51600	-8
1.51967	-6
1.52333	-6
1.52700	-7
1.53067	-9
1.53433	-9
1.53800	-9
1.54167	-9
1.54533	-9
1.54900	-9
1.55267	-10
1.55633	-11
1.56000	-11
1.56367	-9
1.56733	-11
1.57100	-11
1.57467	-11
1.57833	-10
1.58200	-9
1.58567	-8
1.58933	-7
1.59300	-6
1.59667	-3
1.60033	-3
1.60400	-5
1.60767	-9
1.61133	-9
1.61500	-7
1.61867	-6
1.62233	-4
1.62600	-5
1.62967	-7
1.63333	-8
1.63700	-6
1.64067	-7
1.64433	-10
1.64800	-10
1.65167	-9
1.65533	-8
1.65900	-8
1.66267	-5
1.66633	-2
1.67000	-1
1.67367	-1
1.67733	-1
1.68100	-1
1.68467	-1
1.68833	0
1.69200	-0
1.69567	-0
1.69933	3
1.70300	4
1.70667	6
1.71033	8
1.71400	7
1.71767	7
1.72133	7
1.72500	8
1.72867	6
1.73233	4
1.73600	5
1.73967	7
1.74333	9
1.74700	9
1.75067	8
1.75433	8
1.75800	8
1.76167	10
1.76533	12
1.76900	13
1.77267	13
1.77633	13
1.78000	12
1.78367	10
1.78733	9
1.79100	9
1.79467	7
1.79833	7
1.80200	9
1.80567	13
1.80933	16
1.81300	17
1.81667	17
1.82033	19
1.82400	19
1.82767	17
1.83133	15
1.83500	17
1.83867	17
1.84233	16
1.84600	17
1.84967	18
1.85333	21
1.85700	23
1.86067	23
1.86433	23
1.86800	22
1.87167	22
1.87533	22
1.87900	21
1.88267	21
1.88633	22
1.89000	22
1.89367	21
1.89733	21
1.90100	21
1.90467	22
1.90833	21
1.91200	21
1.91567	23
1.91933	23
1.92300	23
1.92667	23
1.93033	23
1.93400	23
1.93767	25
1.94133	26
1.94500	25
1.94867	25
1.95233	27
1.95600	28
1.95967	30
1.96333	30
1.96700	29
1.97067	31
1.97433	31
1.97800	30
1.98167	32
1.98533	36
1.98900	38
1.99267	37
1.99633	36
2.00000	37
2.00367	35
2.00733	34
2.01100	35
2.01467	35
2.01833	35
2.02200	38
2.02567	42
2.02933	43
2.03300	46
2.03667	48
2.04033	49
2.04400	48
2.04767	48
2.05133	50
2.05500	53
2.05867	55
2.06233	57
2.06600	59
2.06967	59
2.07333	57
2.07700	56
2.08067	56
2.08433	57
2.08800	60
2.09167	60
2.09533	61
2.09900	63
2.10267	64
2.10633	65
2.11000	66
2.11367	64
2.11733	63
2.12100	63
2.12467	64
2.12833	65
2.13200	64
2.13567	66
2.13933	66
2.14300	66
2.14667	67
2.15033	68
2.15400	70
2.15767	71
2.16133	73
2.16500	75
2.16867	76
2.17233	77
2.17600	78
2.17967	77
2.18333	78
2.18700	79
2.19067	81
2.19433	81
2.19800	84
2.20167	86
2.20533	87
2.20900	85
2.21267	84
2.21633	84
2.22000	85
2.22367	85
2.22733	88
2.23100	90
2.23467	90
2.23833	91
2.24200	93
2.24567	92
2.24933	94
2.25300	96
2.25667	97
2.26033	97
2.26400	97
2.26767	99
2.27133	102
2.27500	105
2.27867	106
2.28233	105
2.28600	103
2.28967	103
2.29333	101
2.29700	100
2.30067	104
2.30433	108
2.30800	109
2.31167	109
2.31533	110
2.31900	109
2.32267	110
2.32633	111
2.33000	115
2.33367	118
2.33733	120
2.34100	122
2.34467	123
2.34833	122
2.35200	122
2.35567	121
2.35933	123
2.36300	125
2.36667	127
2.37033	128
2.37400	129
2.37767	130
2.38133	129
2.38500	127
2.38867	126
2.39233	128
2.39600	132
2.39967	134
2.40333	135
2.40700	135
2.41067	138
2.41433	140
2.41800	143
2.42167	145
2.42533	144
2.42900	146
2.43267	147
2.43633	147
2.44000	147
2.44367	166
2.44733	213
2.45100	262
2.45467	292
2.45833	289
2.46200	266
2.46567	243
2.46933	225
2.47300	208
2.47667	190
2.48033	167
2.48400	127
2.48767	76
2.49133	32
2.49500	-16
2.49867	-54
2.50233	-65
2.50600	-46
2.50967	-7
2.51333	38
2.51700	82
2.52067	120
2.52433	153
2.52800	182
2.53167	210
2.53533	238
2.53900	268
2.54267	299
2.54633	328
2.55000	355
2.55367	382
2.55733	404
2.56100	424
2.56467	444
2.56833	463
2.57200	479
2.57567	491
2.57933	503
2.58300	514
2.58667	520
2.59033	519
2.59400	513
2.59767	503
2.60133	495
2.60500	485
2.60867	473
2.61233	453
2.61600	431
2.61967	408
2.62333	382
2.62700	353
2.63067	323
2.63433	295
2.63800	271
2.64167	250
2.64533	232
2.64900	220
2.65267	209
2.65633	204
2.66000	204
2.66367	209
2.66733	213
2.67100	219
2.67467	225
2.67833	231
2.68200	241
2.68567	249
2.68933	255
2.69300	263
2.69667	271
2.70033	279
2.70400	284
2.70767	292
2.71133	297
2.71500	303
2.71867	310
2.72233	316
2.72600	322
2.72967	330
2.73333	334
2.73700	337
2.74067	341
2.74433	343
2.74800	343
2.75167	342
2.75533	342
2.75900	343
2.76267	342
2.76633	340
2.77000	337
2.77367	338
2.77733	337
2.78100	333
2.78467	332
2.78833	331
2.79200	328
2.79567	325
2.79933	324
2.80300	324
2.80667	325
2.81033	326
2.81400	327
2.81767	326
2.82133	324
2.82500	323
2.82867	327
2.83233	338
2.83600	360
2.83967	409
2.84333	505
2.84700	671
2.85067	931
2.85433	1299
2.85800	1781
2.86167	2358
2.86533	2994
2.86900	3645
2.87267	4260
2.87633	4788
2.88000	5184
2.88367	5428
2.88733	5515
2.89100	5455
2.89467	5271
2.89833	4996
2.90200	4662
2.90567	4294
2.90933	3915
2.91300	3540
2.91667	3184
2.92033	2852
2.92400	2546
2.92767	2268
2.93133	2021
2.93500	1802
2.93867	1607
2.94233	1437
2.94600	1288
2.94967	1159
2.95333	1046
2.95700	949
2.96067	864
2.96433	790
2.96800	726
2.97167	674
2.97533	629
2.97900	590
2.98267	556
2.98633	525
2.99000	498
2.99367	475
2.99733	455
3.00100	437
3.00467	423
3.00833	411
3.01200	402
3.01567	395
3.01933	389
3.02300	383
3.02667	377
3.03033	371
3.03400	366
3.03767	361
3.04133	356
3.04500	351
3.04867	349
3.05233	348
3.05600	347
3.05967	345
3.06333	342
3.06700	342
3.07067	343
3.07433	345
3.07800	344
3.08167	339
3.08533	334
3.08900	331
3.09267	328
3.09633	326
3.10000	324
3.10367	323
3.10733	322
3.11100	320
3.11467	318
3.11833	316
3.12200	314
3.12567	313
3.12933	313
3.13300	312
3.13667	312
3.14033	310
3.14400	305
3.14767	300
3.15133	297
3.15500	296
3.15867	296
3.16233	295
3.16600	295
3.16967	295
3.17333	293
3.17700	292
3.18067	289
3.18433	287
3.18800	285
3.19167	283
3.19533	281
3.19900	279
3.20267	277
3.20633	272
3.21000	270
3.21367	271
3.21733	270
3.22100	270
3.22467	270
3.22833	270
3.23200	269
3.23567	267
3.23933	265
3.24300	261
3.24667	257
3.25033	254
3.25400	250
3.25767	246
3.26133	244
3.26500	243
3.26867	240
3.27233	238
3.27600	238
3.27967	238
3.28333	236
3.28700	234
3.29067	231
3.29433	229
3.29800	226
3.30167	222
3.30533	220
3.30900	217
3.31267	212
3.31633	209
3.32000	207
3.32367	204
3.32733	200
3.33100	196
3.33467	195
3.33833	194
3.34200	193
3.34567	191
3.34933	187
3.35300	185
3.35667	184
3.36033	181
3.36400	177
3.36767	174
3.37133	172
3.37500	170
3.37867	166
3.38233	164
3.38600	161
3.38967	160
3.39333	159
3.39700	157
3.40067	153
3.40433	149
3.40800	150
3.41167	151
3.41533	149
3.41900	148
3.42267	147
3.42633	147
3.43000	145
3.43367	142
3.43733	138
3.44100	136
3.44467	136
3.44833	135
3.45200	133
3.45567	132
3.45933	131
3.46300	131
3.46667	130
3.47033	128
3.47400	125
3.47767	120
3.48133	118
3.48500	118
3.48867	118
3.49233	118
3.49600	118
3.49967	117
3.50333	115
3.50700	112
3.51067	106
3.51433	103
3.51800	102
3.52167	104
3.52533	101
3.52900	100
3.53267	100
3.53633	99
3.54000	96
3.54367	95
3.54733	93
3.55100	90
3.55467	91
3.55833	89
3.56200	86
3.56567	87
3.56933	87
3.57300	87
3.57667	86
3.58033	87
3.58400	85
3.58767	82
3.59133	81
3.59500	82
3.59867	81
3.60233	80
3.60600	78
3.60967	76
3.61333	76
3.61700	75
3.62067	73
3.62433	73
3.62800	75
3.63167	78
3.63533	79
3.63900	75
3.64267	72
3.64633	71
3.65000	69
3.65367	67
3.65733	67
3.66100	65
3.66467	62
3.66833	61
3.67200	60
3.67567	61
3.67933	62
3.68300	60
3.68667	58
3.69033	58
3.69400	58
3.69767	55
3.70133	56
3.70500	55
3.70867	52
3.71233	52
3.71600	54
3.71967	53
3.72333	55
3.72700	54
3.73067	51
3.73433	49
3.73800	50
3.74167	51
3.74533	49
3.74900	46
3.75267	46
3.75633	46
3.76000	45
3.76367	46
3.76733	45
3.77100	42
3.77467	39
3.77833	37
3.78200	39
3.78567	39
3.78933	38
3.79300	37
3.79667	40
3.80033	40
3.80400	38
3.80767	36
3.81133	35
3.81500	32
3.81867	31
3.82233	32
3.82600	34
3.82967	36
3.83333	35
3.83700	33
3.84067	31
3.84433	28
3.84800	25
3.85167	23
3.85533	22
3.85900	22
3.86267	25
3.86633	27
3.87000	28
3.87367	29
3.87733	29
3.88100	29
3.88467	30
3.88833	28
3.89200	27
3.89567	26
3.89933	27
3.90300	28
3.90667	27
3.91033	28
3.91400	29
3.91767	29
3.92133	31
3.92500	31
3.92867	30
3.93233	29
3.93600	29
3.93967	29
3.94333	31
3.94700	30
3.95067	30
3.95433	29
3.95800	28
3.96167	26
3.96533	23
3.96900	21
3.97267	21
3.97633	20
3.98000	20
3.98367	20
3.98733	20
3.99100	18
3.99467	18
3.99833	16

[Status Trace (Column Oven Temperature)]
Interval(msec)	1000
# of Points	240
Start Time(min)	0.005
End Time(min)	3.988
Intensity Units	
Intensity Multiplier	1
R.Time (min)	Intensity
0.00508	35.01
0.02175	35.01
0.03842	35.01
0.05508	35.02
0.07175	35.02
0.08842	35.03
0.10508	35.03
0.12175	35.02
0.13842	35.02
0.15508	35.02
0.17175	35.02
0.18842	35.00
0.20508	34.99
0.22175	34.98
0.23842	34.99
0.25508	35.00
0.27175	34.99
0.28842	34.99
0.30508	34.99
0.32175	34.99
0.33842	34.99
0.35508	34.99
0.37175	34.99
0.38842	34.99
0.40508	34.99
0.42175	34.99
0.43842	35.00
0.45508	35.00
0.47175	34.99
0.48842	34.99
0.50508	34.99
0.52175	34.99
0.53842	35.00
0.55508	35.00
0.57175	35.00
0.58842	34.99
0.60508	34.99
0.62175	34.99
0.63842	34.99
0.65508	34.99
0.67175	34.99
0.68842	35.00
0.70508	35.00
0.72175	35.00
0.73842	34.99
0.75508	35.00
0.77175	35.00
0.78842	35.00
0.80508	35.00
0.82175	34.99
0.83842	34.99
0.85508	34.99
0.87175	34.99
0.88842	34.99
0.90508	34.99
0.92175	35.00
0.93842	35.00
0.95508	35.00
0.97175	35.00
0.98842	34.99
1.00508	34.99
1.02175	34.99
1.03842	34.99
1.05508	34.99
1.07175	34.99
1.08842	34.99
1.10508	35.00
1.12175	35.00
1.13842	35.00
1.15508	35.00
1.17175	35.00
1.18842	35.00
1.20508	35.01
1.22175	35.01
1.23842	35.01
1.25508	35.00
1.27175	35.00
1.28842	34.99
1.30508	34.99
1.32175	34.98
1.33842	34.98
1.35508	34.99
1.37175	34.99
1.38842	35.00
1.40508	35.00
1.42175	35.00
1.43842	35.00
1.45508	35.00
1.47175	35.02
1.48842	35.02
1.50508	35.02
1.52175	35.01
1.53842	35.00
1.55508	34.99
1.57175	34.99
1.58842	35.00
1.60508	35.05
1.62175	35.16
1.63842	35.33
1.65508	35.56
1.67175	35.89
1.68842	36.28
1.70508	36.65
1.72175	36.97
1.73842	37.29
1.75508	37.60
1.77175	37.96
1.78842	38.30
1.80508	38.64
1.82175	38.95
1.83842	39.27
1.85508	39.61
1.87175	39.94
1.88842	40.26
1.90508	40.59
1.92175	40.92
1.93842	41.25
1.95508	41.56
1.97175	41.90
1.98842	42.22
2.00508	42.54
2.02175	42.88
2.03842	43.20
2.05508	43.51
2.07175	43.85
2.08842	44.19
2.10508	44.52
2.12175	44.85
2.13842	45.18
2.15508	45.49
2.17175	45.83
2.18842	46.15
2.20508	46.48
2.22175	46.80
2.23842	47.13
2.25508	47.45
2.27175	47.78
2.28842	48.11
2.30508	48.48
2.32175	48.81
2.33842	49.13
2.35508	49.38
2.37175	49.55
2.38842	49.62
2.40508	49.63
2.42175	49.60
2.43842	49.62
2.45508	49.63
2.47175	49.63
2.48842	49.65
2.50508	49.67
2.52175	49.67
2.53842	49.69
2.55508	49.71
2.57175	49.73
2.58842	49.73
2.60508	49.76
2.62175	49.79
2.63842	49.80
2.65508	49.80
2.67175	49.83
2.68842	49.85
2.70508	49.84
2.72175	49.85
2.73842	49.87
2.75508	49.87
2.77175	49.86
2.78842	49.85
2.80508	49.85
2.82175	49.87
2.83842	49.89
2.85508	49.90
2.87175	49.89
2.88842	49.89
2.90508	49.90
2.92175	49.90
2.93842	49.90
2.95508	49.92
2.97175	49.94
2.98842	49.94
3.00508	49.95
3.02175	49.96
3.03842	49.98
3.05508	50.00
3.07175	50.02
3.08842	50.03
3.10508	50.03
3.12175	50.03
3.13842	50.03
3.15508	50.03
3.17175	50.05
3.18842	50.05
3.20508	50.06
3.22175	50.07
3.23842	50.07
3.25508	50.07
3.27175	50.07
3.28842	50.07
3.30508	50.09
3.32175	50.10
3.33842	50.10
3.35508	50.11
3.37175	50.10
3.38842	50.10
3.40508	50.08
3.42175	50.07
3.43842	50.07
3.45508	50.06
3.47175	50.06
3.48842	50.07
3.50508	50.06
3.52175	50.06
3.53842	50.05
3.55508	50.05
3.57175	50.06
3.58842	50.06
3.60508	50.06
3.62175	50.07
3.63842	50.08
3.65508	50.09
3.67175	50.08
3.68842	50.07
3.70508	50.06
3.72175	50.06
3.73842	50.05
3.75508	50.06
3.77175	50.06
3.78842	50.06
3.80508	50.07
3.82175	50.07
3.83842	50.07
3.85508	50.07
3.87175	50.06
3.88842	50.08
3.90508	50.09
3.92175	50.10
3.93842	50.10
3.95508	50.11
3.97175	50.11
3.98842	50.10

[Status Trace (Injection Unit Temperature)]
Interval(msec)	1000
# of Points	240
Start Time(min)	0.005
End Time(min)	3.988
Intensity Units	
Intensity Multiplier	1
R.Time (min)	Intensity
0.00508	99.98
0.02175	99.98
0.03842	99.98
0.05508	99.99
0.07175	99.98
0.08842	99.98
0.10508	99.98
0.12175	99.98
0.13842	99.98
0.15508	99.99
0.17175	99.98
0.18842	99.98
0.20508	99.98
0.22175	99.99
0.23842	99.99
0.25508	99.99
0.27175	99.98
0.28842	99.99
0.30508	99.98
0.32175	99.99
0.33842	99.98
0.35508	99.99
0.37175	99.99
0.38842	99.99
0.40508	99.99
0.42175	99.99
0.43842	99.99
0.45508	99.99
0.47175	99.99
0.48842	99.99
0.50508	99.99
0.52175	99.99
0.53842	99.98
0.55508	99.98
0.57175	99.99
0.58842	99.99
0.60508	99.98
0.62175	99.99
0.63842	99.99
0.65508	99.99
0.67175	99.99
0.68842	99.98
0.70508	99.98
0.72175	99.99
0.73842	99.99
0.75508	99.98
0.77175	99.99
0.78842	99.99
0.80508	99.98
0.82175	99.99
0.83842	99.99
0.85508	99.99
0.87175	99.99
0.88842	99.98
0.90508	99.99
0.92175	99.99
0.93842	99.99
0.95508	99.99
0.97175	99.99
0.98842	99.99
1.00508	99.99
1.02175	99.99
1.03842	99.99
1.05508	99.99
1.07175	99.99
1.08842	99.99
1.10508	99.99
1.12175	99.99
1.13842	99.99
1.15508	99.99
1.17175	99.99
1.18842	99.99
1.20508	99.99
1.22175	99.99
1.23842	99.99
1.25508	99.99
1.27175	99.99
1.28842	99.99
1.30508	99.99
1.32175	99.99
1.33842	99.99
1.35508	99.99
1.37175	99.99
1.38842	99.99
1.40508	99.99
1.42175	99.99
1.43842	99.99
1.45508	99.99
1.47175	99.99
1.48842	99.99
1.50508	99.99
1.52175	99.99
1.53842	99.99
1.55508	99.99
1.57175	100.00
1.58842	99.99
1.60508	99.99
1.62175	99.99
1.63842	99.99
1.65508	99.99
1.67175	99.99
1.68842	99.99
1.70508	99.99
1.72175	99.99
1.73842	99.99
1.75508	99.99
1.77175	99.99
1.78842	99.99
1.80508	99.99
1.82175	99.99
1.83842	99.99
1.85508	99.98
1.87175	99.99
1.88842	99.98
1.90508	99.98
1.92175	99.98
1.93842	99.98
1.95508	99.98
1.97175	99.98
1.98842	99.98
2.00508	99.98
2.02175	99.98
2.03842	99.98
2.05508	99.97
2.07175	99.97
2.08842	99.97
2.10508	99.97
2.12175	99.97
2.13842	99.97
2.15508	99.97
2.17175	99.97
2.18842	99.97
2.20508	99.97
2.22175	99.97
2.23842	99.96
2.25508	99.97
2.27175	99.97
2.28842	99.97
2.30508	99.97
2.32175	99.97
2.33842	99.97
2.35508	99.97
2.37175	99.97
2.38842	99.97
2.40508	99.97
2.42175	99.97
2.43842	99.97
2.45508	99.97
2.47175	99.97
2.48842	99.97
2.50508	99.97
2.52175	99.97
2.53842	99.97
2.55508	99.97
2.57175	99.97
2.58842	99.98
2.60508	99.98
2.62175	99.98
2.63842	99.98
2.65508	99.98
2.67175	99.98
2.68842	99.99
2.70508	99.99
2.72175	99.99
2.73842	99.99
2.75508	99.99
2.77175	99.99
2.78842	99.99
2.80508	99.99
2.82175	100.00
2.83842	100.00
2.85508	100.00
2.87175	100.00
2.88842	100.00
2.90508	100.00
2.92175	100.01
2.93842	100.00
2.95508	100.01
2.97175	100.01
2.98842	100.01
3.00508	100.01
3.02175	100.01
3.03842	100.02
3.05508	100.01
3.07175	100.02
3.08842	100.02
3.10508	100.02
3.12175	100.02
3.13842	100.02
3.15508	100.02
3.17175	100.02
3.18842	100.03
3.20508	100.02
3.22175	100.02
3.23842	100.03
3.25508	100.03
3.27175	100.03
3.28842	100.03
3.30508	100.03
3.32175	100.03
3.33842	100.03
3.35508	100.03
3.37175	100.03
3.38842	100.04
3.40508	100.04
3.42175	100.03
3.43842	100.04
3.45508	100.04
3.47175	100.04
3.48842	100.04
3.50508	100.04
3.52175	100.04
3.53842	100.04
3.55508	100.04
3.57175	100.04
3.58842	100.04
3.60508	100.04
3.62175	100.04
3.63842	100.04
3.65508	100.05
3.67175	100.05
3.68842	100.04
3.70508	100.05
3.72175	100.04
3.73842	100.05
3.75508	100.05
3.77175	100.04
3.78842	100.05
3.80508	100.05
3.82175	100.05
3.83842	100.05
3.85508	100.05
3.87175	100.05
3.88842	100.05
3.90508	100.05
3.92175	100.05
3.93842	100.05
3.95508	100.05
3.97175	100.05
3.98842	100.05

[Status Trace (Carrier Gas Pressure)]
Interval(msec)	1000
# of Points	240
Start Time(min)	0.005
End Time(min)	3.988
Intensity Units	
Intensity Multiplier	1
R.Time (min)	Intensity
0.00508	58.00
0.02175	55.89
0.03842	56.65
0.05508	58.87
0.07175	59.80
0.08842	58.19
0.10508	57.97
0.12175	58.01
0.13842	58.01
0.15508	58.01
0.17175	58.00
0.18842	58.00
0.20508	58.00
0.22175	58.00
0.23842	58.00
0.25508	58.00
0.27175	58.00
0.28842	58.00
0.30508	58.00
0.32175	58.00
0.33842	58.00
0.35508	58.00
0.37175	58.00
0.38842	58.00
0.40508	58.00
0.42175	58.00
0.43842	58.00
0.45508	58.00
0.47175	58.00
0.48842	58.00
0.50508	58.00
0.52175	58.00
0.53842	58.00
0.55508	58.00
0.57175	58.00
0.58842	58.00
0.60508	58.00
0.62175	58.00
0.63842	58.00
0.65508	58.00
0.67175	58.00
0.68842	58.00
0.70508	58.00
0.72175	58.00
0.73842	58.00
0.75508	58.00
0.77175	58.00
0.78842	58.00
0.80508	58.00
0.82175	58.00
0.83842	58.00
0.85508	58.00
0.87175	58.00
0.88842	58.00
0.90508	58.00
0.92175	58.00
0.93842	58.00
0.95508	58.00
0.97175	58.00
0.98842	58.00
1.00508	58.00
1.02175	58.00
1.03842	58.00
1.05508	58.00
1.07175	58.00
1.08842	58.00
1.10508	58.00
1.12175	58.00
1.13842	58.00
1.15508	58.00
1.17175	58.00
1.18842	58.00
1.20508	58.00
1.22175	58.00
1.23842	58.00
1.25508	58.00
1.27175	58.00
1.28842	58.00
1.30508	58.00
1.32175	58.00
1.33842	58.00
1.35508	58.00
1.37175	58.00
1.38842	58.00
1.40508	58.00
1.42175	58.00
1.43842	58.00
1.45508	58.00
1.47175	58.00
1.48842	58.00
1.50508	58.00
1.52175	58.00
1.53842	58.00
1.55508	58.00
1.57175	58.00
1.58842	58.00
1.60508	58.00
1.62175	58.00
1.63842	58.00
1.65508	58.01
1.67175	58.01
1.68842	58.01
1.70508	58.00
1.72175	58.00
1.73842	58.00
1.75508	58.00
1.77175	58.00
1.78842	58.00
1.80508	58.00
1.82175	58.00
1.83842	58.00
1.85508	58.00
1.87175	58.00
1.88842	58.00
1.90508	58.00
1.92175	58.00
1.93842	58.00
1.95508	58.00
1.97175	58.00
1.98842	58.00
2.00508	58.00
2.02175	58.00
2.03842	58.00
2.05508	58.00
2.07175	58.00
2.08842	58.00
2.10508	58.00
2.12175	58.00
2.13842	58.00
2.15508	58.00
2.17175	58.00
2.18842	58.00
2.20508	58.00
2.22175	58.00
2.23842	58.00
2.25508	58.00
2.27175	58.00
2.28842	58.00
2.30508	58.00
2.32175	58.00
2.33842	58.00
2.35508	58.00
2.37175	58.00
2.38842	57.99
2.40508	57.99
2.42175	58.00
2.43842	58.00
2.45508	58.00
2.47175	58.00
2.48842	58.00
2.50508	57.99
2.52175	57.99
2.53842	57.99
2.55508	58.00
2.57175	58.00
2.58842	58.00
2.60508	58.00
2.62175	58.00
2.63842	58.00
2.65508	58.00
2.67175	58.00
2.68842	58.00
2.70508	58.00
2.72175	58.00
2.73842	58.00
2.75508	58.00
2.77175	58.00
2.78842	58.00
2.80508	58.00
2.82175	58.00
2.83842	58.00
2.85508	58.00
2.87175	58.00
2.88842	58.00
2.90508	58.00
2.92175	58.00
2.93842	58.00
2.95508	58.00
2.97175	58.00
2.98842	58.00
3.00508	58.00
3.02175	58.00
3.03842	58.00
3.05508	58.00
3.07175	58.00
3.08842	58.00
3.10508	58.00
3.12175	58.00
3.13842	58.00
3.15508	58.00
3.17175	58.00
3.18842	58.00
3.20508	58.00
3.22175	58.00
3.23842	58.00
3.25508	58.00
3.27175	58.00
3.28842	58.00
3.30508	58.00
3.32175	58.00
3.33842	58.00
3.35508	58.00
3.37175	58.00
3.38842	58.00
3.40508	58.00
3.42175	58.00
3.43842	58.00
3.45508	58.00
3.47175	58.00
3.48842	58.00
3.50508	58.00
3.52175	58.00
3.53842	58.00
3.55508	58.00
3.57175	58.00
3.58842	58.00
3.60508	58.00
3.62175	58.00
3.63842	58.00
3.65508	58.00
3.67175	58.00
3.68842	58.00
3.70508	58.00
3.72175	58.00
3.73842	58.00
3.75508	58.00
3.77175	58.00
3.78842	58.00
3.80508	58.00
3.82175	58.00
3.83842	58.00
3.85508	58.00
3.87175	58.00
3.88842	58.00
3.90508	58.00
3.92175	58.00
3.93842	58.00
3.95508	58.00
3.97175	58.00
3.98842	58.00

[Status Trace (Carrier Gas Flow)]
Interval(msec)	1000
# of Points	240
Start Time(min)	0.005
End Time(min)	3.988
Intensity Units	
Intensity Multiplier	1
R.Time (min)	Intensity
0.00508	34.52
0.02175	34.58
0.03842	34.54
0.05508	34.55
0.07175	34.50
0.08842	34.50
0.10508	34.52
0.12175	34.52
0.13842	34.52
0.15508	34.52
0.17175	34.52
0.18842	34.52
0.20508	34.52
0.22175	34.52
0.23842	34.52
0.25508	34.52
0.27175	34.52
0.28842	34.52
0.30508	34.52
0.32175	34.52
0.33842	34.52
0.35508	34.52
0.37175	34.52
0.38842	34.52
0.40508	34.52
0.42175	34.52
0.43842	34.52
0.45508	34.52
0.47175	34.52
0.48842	34.52
0.50508	34.51
0.52175	34.52
0.53842	34.51
0.55508	34.52
0.57175	34.51
0.58842	34.52
0.60508	34.52
0.62175	34.52
0.63842	34.53
0.65508	34.51
0.67175	34.51
0.68842	34.51
0.70508	34.51
0.72175	34.51
0.73842	34.51
0.75508	34.51
0.77175	34.52
0.78842	34.52
0.80508	34.52
0.82175	34.52
0.83842	34.53
0.85508	34.51
0.87175	34.52
0.88842	34.52
0.90508	34.52
0.92175	34.52
0.93842	34.52
0.95508	34.52
0.97175	34.53
0.98842	34.52
1.00508	34.52
1.02175	34.52
1.03842	34.52
1.05508	34.52
1.07175	34.52
1.08842	34.52
1.10508	34.52
1.12175	34.51
1.13842	34.52
1.15508	34.51
1.17175	34.51
1.18842	34.52
1.20508	34.52
1.22175	34.52
1.23842	34.52
1.25508	34.53
1.27175	34.51
1.28842	34.53
1.30508	34.52
1.32175	34.51
1.33842	34.53
1.35508	34.51
1.37175	34.52
1.38842	34.53
1.40508	34.51
1.42175	34.52
1.43842	34.53
1.45508	34.52
1.47175	34.52
1.48842	34.52
1.50508	34.52
1.52175	34.52
1.53842	34.52
1.55508	34.52
1.57175	34.51
1.58842	34.52
1.60508	34.52
1.62175	34.52
1.63842	34.52
1.65508	34.52
1.67175	34.52
1.68842	34.51
1.70508	34.53
1.72175	34.52
1.73842	34.52
1.75508	34.52
1.77175	34.52
1.78842	34.52
1.80508	34.52
1.82175	34.52
1.83842	34.52
1.85508	34.52
1.87175	34.52
1.88842	34.52
1.90508	34.52
1.92175	34.52
1.93842	34.52
1.95508	34.52
1.97175	34.52
1.98842	34.52
2.00508	34.52
2.02175	34.52
2.03842	34.52
2.05508	34.51
2.07175	34.52
2.08842	34.52
2.10508	34.52
2.12175	34.52
2.13842	34.52
2.15508	34.52
2.17175	34.51
2.18842	34.52
2.20508	34.52
2.22175	34.52
2.23842	34.52
2.25508	34.52
2.27175	34.52
2.28842	34.52
2.30508	34.52
2.32175	34.52
2.33842	34.52
2.35508	34.52
2.37175	34.52
2.38842	34.53
2.40508	34.52
2.42175	34.52
2.43842	34.52
2.45508	34.52
2.47175	34.52
2.48842	34.52
2.50508	34.53
2.52175	34.52
2.53842	34.52
2.55508	34.52
2.57175	34.52
2.58842	34.52
2.60508	34.52
2.62175	34.52
2.63842	34.52
2.65508	34.52
2.67175	34.52
2.68842	34.52
2.70508	34.52
2.72175	34.52
2.73842	34.52
2.75508	34.52
2.77175	34.52
2.78842	34.52
2.80508	34.52
2.82175	34.52
2.83842	34.52
2.85508	34.52
2.87175	34.52
2.88842	34.52
2.90508	34.52
2.92175	34.52
2.93842	34.52
2.95508	34.52
2.97175	34.52
2.98842	34.52
3.00508	34.52
3.02175	34.52
3.03842	34.52
3.05508	34.52
3.07175	34.52
3.08842	34.52
3.10508	34.52
3.12175	34.52
3.13842	34.52
3.15508	34.52
3.17175	34.52
3.18842	34.52
3.20508	34.52
3.22175	34.52
3.23842	34.52
3.25508	34.52
3.27175	34.52
3.28842	34.52
3.30508	34.52
3.32175	34.52
3.33842	34.52
3.35508	34.52
3.37175	34.52
3.38842	34.52
3.40508	34.52
3.42175	34.52
3.43842	34.52
3.45508	34.52
3.47175	34.52
3.48842	34.52
3.50508	34.52
3.52175	34.52
3.53842	34.52
3.55508	34.52
3.57175	34.52
3.58842	34.52
3.60508	34.52
3.62175	34.52
3.63842	34.52
3.65508	34.52
3.67175	34.52
3.68842	34.52
3.70508	34.52
3.72175	34.52
3.73842	34.52
3.75508	34.52
3.77175	34.52
3.78842	34.52
3.80508	34.52
3.82175	34.52
3.83842	34.52
3.85508	34.52
3.87175	34.52
3.88842	34.52
3.90508	34.52
3.92175	34.52
3.93842	34.52
3.95508	34.52
3.97175	34.52
3.98842	34.52

[Status Trace (Column Flow)]
Interval(msec)	1000
# of Points	240
Start Time(min)	0.005
End Time(min)	3.988
Intensity Units	
Intensity Multiplier	1
R.Time (min)	Intensity
0.00508	5.44
0.02175	5.20
0.03842	5.29
0.05508	5.54
0.07175	5.65
0.08842	5.47
0.10508	5.44
0.12175	5.44
0.13842	5.44
0.15508	5.44
0.17175	5.44
0.18842	5.44
0.20508	5.44
0.22175	5.44
0.23842	5.44
0.25508	5.44
0.27175	5.44
0.28842	5.44
0.30508	5.44
0.32175	5.44
0.33842	5.44
0.35508	5.44
0.37175	5.44
0.38842	5.44
0.40508	5.44
0.42175	5.44
0.43842	5.44
0.45508	5.44
0.47175	5.44
0.48842	5.44
0.50508	5.44
0.52175	5.44
0.53842	5.44
0.55508	5.44
0.57175	5.44
0.58842	5.44
0.60508	5.44
0.62175	5.44
0.63842	5.44
0.65508	5.44
0.67175	5.44
0.68842	5.44
0.70508	5.44
0.72175	5.44
0.73842	5.44
0.75508	5.44
0.77175	5.44
0.78842	5.44
0.80508	5.44
0.82175	5.44
0.83842	5.44
0.85508	5.44
0.87175	5.44
0.88842	5.44
0.90508	5.44
0.92175	5.44
0.93842	5.44
0.95508	5.44
0.97175	5.44
0.98842	5.44
1.00508	5.44
1.02175	5.44
1.03842	5.44
1.05508	5.44
1.07175	5.44
1.08842	5.44
1.10508	5.44
1.12175	5.44
1.13842	5.44
1.15508	5.44
1.17175	5.44
1.18842	5.44
1.20508	5.44
1.22175	5.44
1.23842	5.44
1.25508	5.44
1.27175	5.44
1.28842	5.44
1.30508	5.44
1.32175	5.44
1.33842	5.44
1.35508	5.44
1.37175	5.44
1.38842	5.44
1.40508	5.44
1.42175	5.44
1.43842	5.44
1.45508	5.44
1.47175	5.44
1.48842	5.44
1.50508	5.44
1.52175	5.44
1.53842	5.44
1.55508	5.44
1.57175	5.44
1.58842	5.44
1.60508	5.44
1.62175	5.44
1.63842	5.43
1.65508	5.43
1.67175	5.42
1.68842	5.41
1.70508	5.39
1.72175	5.38
1.73842	5.37
1.75508	5.36
1.77175	5.35
1.78842	5.34
1.80508	5.33
1.82175	5.32
1.83842	5.31
1.85508	5.30
1.87175	5.29
1.88842	5.29
1.90508	5.27
1.92175	5.27
1.93842	5.26
1.95508	5.25
1.97175	5.24
1.98842	5.23
2.00508	5.22
2.02175	5.21
2.03842	5.20
2.05508	5.19
2.07175	5.18
2.08842	5.17
2.10508	5.16
2.12175	5.15
2.13842	5.14
2.15508	5.13
2.17175	5.12
2.18842	5.11
2.20508	5.10
2.22175	5.10
2.23842	5.09
2.25508	5.08
2.27175	5.07
2.28842	5.06
2.30508	5.05
2.32175	5.04
2.33842	5.03
2.35508	5.02
2.37175	5.02
2.38842	5.02
2.40508	5.02
2.42175	5.02
2.43842	5.02
2.45508	5.02
2.47175	5.02
2.48842	5.02
2.50508	5.02
2.52175	5.02
2.53842	5.01
2.55508	5.01
2.57175	5.01
2.58842	5.01
2.60508	5.01
2.62175	5.01
2.63842	5.01
2.65508	5.01
2.67175	5.01
2.68842	5.01
2.70508	5.01
2.72175	5.01
2.73842	5.01
2.75508	5.01
2.77175	5.01
2.78842	5.01
2.80508	5.01
2.82175	5.01
2.83842	5.01
2.85508	5.01
2.87175	5.01
2.88842	5.01
2.90508	5.01
2.92175	5.01
2.93842	5.01
2.95508	5.01
2.97175	5.01
2.98842	5.01
3.00508	5.01
3.02175	5.01
3.03842	5.01
3.05508	5.01
3.07175	5.01
3.08842	5.01
3.10508	5.01
3.12175	5.01
3.13842	5.01
3.15508	5.01
3.17175	5.01
3.18842	5.01
3.20508	5.01
3.22175	5.01
3.23842	5.01
3.25508	5.01
3.27175	5.01
3.28842	5.01
3.30508	5.00
3.32175	5.00
3.33842	5.00
3.35508	5.00
3.37175	5.00
3.38842	5.00
3.40508	5.00
3.42175	5.00
3.43842	5.01
3.45508	5.01
3.47175	5.01
3.48842	5.01
3.50508	5.01
3.52175	5.01
3.53842	5.01
3.55508	5.01
3.57175	5.01
3.58842	5.01
3.60508	5.01
3.62175	5.01
3.63842	5.00
3.65508	5.00
3.67175	5.00
3.68842	5.00
3.70508	5.01
3.72175	5.01
3.73842	5.01
3.75508	5.01
3.77175	5.01
3.78842	5.01
3.80508	5.01
3.82175	5.01
3.83842	5.00
3.85508	5.01
3.87175	5.01
3.88842	5.00
3.90508	5.00
3.92175	5.00
3.93842	5.00
3.95508	5.00
3.97175	5.00
3.98842	5.00

[Status Trace (Linear Velocity)]
Interval(msec)	1000
# of Points	240
Start Time(min)	0.005
End Time(min)	3.988
Intensity Units	
Intensity Multiplier	1
R.Time (min)	Intensity
0.00508	39.00
0.02175	37.61
0.03842	38.11
0.05508	39.57
0.07175	40.17
0.08842	39.12
0.10508	38.98
0.12175	39.00
0.13842	39.00
0.15508	39.00
0.17175	39.00
0.18842	39.00
0.20508	39.00
0.22175	39.00
0.23842	39.00
0.25508	39.00
0.27175	39.00
0.28842	39.00
0.30508	39.00
0.32175	39.00
0.33842	39.00
0.35508	39.00
0.37175	39.00
0.38842	39.00
0.40508	39.00
0.42175	39.00
0.43842	39.00
0.45508	39.00
0.47175	39.00
0.48842	39.00
0.50508	39.00
0.52175	39.00
0.53842	39.00
0.55508	39.00
0.57175	39.00
0.58842	39.00
0.60508	39.00
0.62175	39.00
0.63842	39.00
0.65508	39.00
0.67175	39.00
0.68842	39.00
0.70508	39.00
0.72175	39.00
0.73842	39.00
0.75508	39.00
0.77175	39.00
0.78842	39.00
0.80508	39.00
0.82175	39.00
0.83842	39.00
0.85508	39.00
0.87175	39.00
0.88842	39.00
0.90508	39.00
0.92175	39.00
0.93842	39.00
0.95508	39.00
0.97175	39.00
0.98842	39.00
1.00508	39.00
1.02175	39.00
1.03842	39.00
1.05508	39.00
1.07175	39.00
1.08842	39.00
1.10508	39.00
1.12175	39.00
1.13842	39.00
1.15508	39.00
1.17175	39.00
1.18842	39.00
1.20508	39.00
1.22175	39.00
1.23842	39.00
1.25508	39.00
1.27175	39.00
1.28842	39.00
1.30508	39.00
1.32175	39.00
1.33842	39.00
1.35508	39.00
1.37175	39.00
1.38842	39.00
1.40508	39.00
1.42175	39.00
1.43842	39.00
1.45508	39.00
1.47175	39.00
1.48842	39.00
1.50508	39.00
1.52175	39.00
1.53842	39.00
1.55508	39.00
1.57175	39.00
1.58842	39.00
1.60508	38.99
1.62175	38.99
1.63842	38.97
1.65508	38.95
1.67175	38.92
1.68842	38.88
1.70508	38.84
1.72175	38.81
1.73842	38.78
1.75508	38.75
1.77175	38.72
1.78842	38.69
1.80508	38.65
1.82175	38.63
1.83842	38.59
1.85508	38.56
1.87175	38.53
1.88842	38.50
1.90508	38.47
1.92175	38.44
1.93842	38.41
1.95508	38.38
1.97175	38.35
1.98842	38.32
2.00508	38.29
2.02175	38.26
2.03842	38.23
2.05508	38.20
2.07175	38.17
2.08842	38.14
2.10508	38.11
2.12175	38.08
2.13842	38.05
2.15508	38.02
2.17175	37.99
2.18842	37.96
2.20508	37.93
2.22175	37.90
2.23842	37.87
2.25508	37.84
2.27175	37.81
2.28842	37.79
2.30508	37.75
2.32175	37.72
2.33842	37.69
2.35508	37.67
2.37175	37.65
2.38842	37.64
2.40508	37.64
2.42175	37.65
2.43842	37.65
2.45508	37.65
2.47175	37.65
2.48842	37.65
2.50508	37.64
2.52175	37.64
2.53842	37.64
2.55508	37.64
2.57175	37.64
2.58842	37.64
2.60508	37.64
2.62175	37.63
2.63842	37.63
2.65508	37.63
2.67175	37.63
2.68842	37.63
2.70508	37.63
2.72175	37.63
2.73842	37.63
2.75508	37.63
2.77175	37.63
2.78842	37.63
2.80508	37.63
2.82175	37.63
2.83842	37.62
2.85508	37.62
2.87175	37.62
2.88842	37.62
2.90508	37.62
2.92175	37.62
2.93842	37.62
2.95508	37.62
2.97175	37.62
2.98842	37.62
3.00508	37.62
3.02175	37.62
3.03842	37.62
3.05508	37.61
3.07175	37.61
3.08842	37.61
3.10508	37.61
3.12175	37.61
3.13842	37.61
3.15508	37.61
3.17175	37.61
3.18842	37.61
3.20508	37.61
3.22175	37.61
3.23842	37.61
3.25508	37.61
3.27175	37.61
3.28842	37.61
3.30508	37.61
3.32175	37.61
3.33842	37.61
3.35508	37.60
3.37175	37.60
3.38842	37.61
3.40508	37.61
3.42175	37.61
3.43842	37.61
3.45508	37.61
3.47175	37.61
3.48842	37.61
3.50508	37.61
3.52175	37.61
3.53842	37.61
3.55508	37.61
3.57175	37.61
3.58842	37.61
3.60508	37.61
3.62175	37.61
3.63842	37.61
3.65508	37.61
3.67175	37.61
3.68842	37.61
3.70508	37.61
3.72175	37.61
3.73842	37.61
3.75508	37.61
3.77175	37.61
3.78842	37.61
3.80508	37.61
3.82175	37.61
3.83842	37.61
3.85508	37.61
3.87175	37.61
3.88842	37.61
3.90508	37.61
3.92175	37.61
3.93842	37.61
3.95508	37.61
3.97175	37.60
3.98842	37.60

