[Header]
Application Name	LabSolutions
Version	5.110
Data File Name	C:\Users\User\Desktop\GC Analyses\Jack\UIC Prairie Sampling\9.30.22\220930_076.gcd
Output Date	1/4/2023
Output Time	2:27:55 PM

[File Information]
Type	Data File
Generated	12/2/2022 12:32:58 PM
Generated by	System Administrator
Modified	12/2/2022 12:37:23 PM
Modified by	System Administrator

[Sample Information]
Operator Name	System Administrator
Acquired	12/2/2022 12:33:22 PM
Sample Type	1:Standard
Level	1
Sample Name	220930_UICPrairie
Sample ID	220930_UICPrairie
ISTD Amount1	1
ISTD Amount2	1
ISTD Amount3	1
ISTD Amount4	1
ISTD Amount5	1
ISTD Amount6	1
ISTD Amount7	1
ISTD Amount8	1
ISTD Amount9	1
ISTD Amount10	1
ISTD Amount11	1
ISTD Amount12	1
ISTD Amount13	1
ISTD Amount14	1
ISTD Amount15	1
ISTD Amount16	1
ISTD Amount17	1
ISTD Amount18	1
ISTD Amount19	1
ISTD Amount20	1
ISTD Amount21	1
ISTD Amount22	1
ISTD Amount23	1
ISTD Amount24	1
ISTD Amount25	1
ISTD Amount26	1
ISTD Amount27	1
ISTD Amount28	1
ISTD Amount29	1
ISTD Amount30	1
ISTD Amount31	1
ISTD Amount32	1
Sample Amount	1
Dilution Factor	1
Vial#	1
Injection Volume	1
Injection Count	1
Bar Code	

[Original Files]
Data File	C:\Users\User\Desktop\GC Analyses\Jack\UIC Prairie Sampling\9.30.22\220930_076.gcd
Method File	C:\LabSolutions\Data\GHG_4min_2022\ghg3_togas_w_acet_4 min_new_int.gcm
Batch File	
Report Format File	c:\LabSolutions\System\DEFAULT.lsr

[File Description]


[Configuration]
Instrument Name	C0B7VH3-Instrument1
Instrument #	1
Line #	1
# of Detectors	3
Detector ID	DET#1	DET#2	DET#3
Detector Name	FID	PTCD	ECD
# of Channels	1	1	1

[Peak Table(Ch1)]
# of Peaks	3
Peak#	R.Time	I.Time	F.Time	Area	Height	A/H	Conc.	Mark	ID#	Name	k'	Plate #	Plate Ht.	Tailing	Resolution	Sep.Factor	Area Ratio	Height Ratio	Conc. %	Norm Conc.
1	1.465	1.421	1.534	3127	959	3.262	100.000	   	1	CO	0.000	4547	32.989	0.000	0.000	0.000	0	0	16.667	16.667
2	1.571	1.534	1.641	20595	10404	1.980	100.000	 V 	2	CH4	0.073	11441	13.111	1.197	1.460	0.000	0	0	16.667	16.667
3	2.000	1.952	2.433	2077299	989005	2.100	400.000	   	3	CO2	0.365	17143	8.750	1.263	7.159	5.034	0	0	66.667	66.667

[Peak Table(Ch2)]
# of Peaks	0

[Peak Table(Ch3)]
# of Peaks	5
Peak#	R.Time	I.Time	F.Time	Area	Height	A/H	Conc.	Mark	ID#	Name	k'	Plate #	Plate Ht.	Tailing	Resolution	Sep.Factor	Area Ratio	Height Ratio	Conc. %	Norm Conc.
1	2.458	2.106	2.488	2792	358	7.800	0.000	   			0.000	5340	28.091	0.000	0.000	0.000	0	0	0.000	0.000
2	2.510	2.488	2.535	849	316	2.686	0.000	 V 			0.021	789	190.040	0.000	0.209	0.000	0	0	0.000	0.000
3	2.594	2.535	2.656	2032	399	5.097	0.000	 V 			0.055	2148	69.835	0.000	0.290	2.643	0	0	0.000	0.000
4	2.785	2.667	2.825	1575	234	6.745	0.023	   	1	N2O	0.133	255	588.775	0.000	0.414	2.405	0	0	2.340	2.340
5	2.891	2.825	3.232	65738	16519	3.980	0.977	 V 	1	N2O	0.176	12483	12.016	1.589	0.265	1.326	0	0	97.660	97.660

[Compound Results(Ch1)]
# of IDs	6
ID#	Name	R.Time	Area	Height	Conc.	Curve	3rd	2nd	1st	Constant	Area Ratio	Height Ratio	Conc. %	Norm Conc.
1	CO	1.465	3127	959	100.000	Linear	0.000000e+00	0.000000e+00	3.126790e+001	0.000000e+00	0	0	16.667	16.667
2	CH4	1.571	20595	10404	100.000	Linear	0.000000e+00	0.000000e+00	2.059513e+002	0.000000e+00	0	0	16.667	16.667
3	CO2	2.000	2077299	989005	400.000	Linear	0.000000e+00	0.000000e+00	5.193249e+003	0.000000e+00	0	0	66.667	66.667
4	Ethylene	0.000	0	0	0.000	Linear	0.000000e+00	0.000000e+00	0.000000e+00	0.000000e+00	0	0	0.000	0.000
5	Acetylene	0.000	0	0	0.000	Linear	0.000000e+00	0.000000e+00	0.000000e+00	0.000000e+00	0	0	0.000	0.000
6	Ethane	0.000	0	0	0.000	Linear	0.000000e+00	0.000000e+00	0.000000e+00	0.000000e+00	0	0	0.000	0.000

[Compound Results(Ch2)]
# of IDs	5
ID#	Name	R.Time	Area	Height	Conc.	Curve	3rd	2nd	1st	Constant	Area Ratio	Height Ratio	Conc. %	Norm Conc.
1	Hydrogen	0.000	0	0	0.000	Linear	0.000000e+00	0.000000e+00	0.000000e+00	0.000000e+00	0	0	0.000	0.000
2	Oxygen	0.000	0	0	0.000	Linear	0.000000e+00	0.000000e+00	0.000000e+00	0.000000e+00	0	0	0.000	0.000
3	Nitrogen	0.000	0	0	0.000	Linear	0.000000e+00	0.000000e+00	0.000000e+00	0.000000e+00	0	0	0.000	0.000
4	Methane	0.000	0	0	0.000	Linear	0.000000e+00	0.000000e+00	0.000000e+00	0.000000e+00	0	0	0.000	0.000
5	Carbon Monoxide	0.000	0	0	0.000	Linear	0.000000e+00	0.000000e+00	0.000000e+00	0.000000e+00	0	0	0.000	0.000

[Compound Results(Ch3)]
# of IDs	2
ID#	Name	R.Time	Area	Height	Conc.	Curve	3rd	2nd	1st	Constant	Area Ratio	Height Ratio	Conc. %	Norm Conc.
1	N2O	2.891	67313	16752	1.000	Linear	0.000000e+00	0.000000e+00	6.731286e+004	0.000000e+00	0	0	100.000	100.000
2	SF6	0.000	0	0	0.000	Linear	0.000000e+00	0.000000e+00	0.000000e+00	0.000000e+00	0	0	0.000	0.000

[Group Results(Ch1)]
# of Groups	0

[Group Results(Ch2)]
# of Groups	0

[Group Results(Ch3)]
# of Groups	0

[Chromatogram (Ch1)]
Interval(msec)	220
# of Points	1091
Start Time(min)	0.002
End Time(min)	3.998
R.Time (min)	Intensity
0.00167	-17
0.00533	-19
0.00900	-20
0.01267	-20
0.01633	-22
0.02000	-30
0.02367	-36
0.02733	-35
0.03100	-28
0.03467	-18
0.03833	-8
0.04200	-2
0.04567	1
0.04933	2
0.05300	-3
0.05667	-11
0.06033	-20
0.06400	-27
0.06767	-30
0.07133	-30
0.07500	-27
0.07867	-22
0.08233	-19
0.08600	-17
0.08967	-13
0.09333	-8
0.09700	-6
0.10067	-7
0.10433	-12
0.10800	-20
0.11167	-25
0.11533	-26
0.11900	-28
0.12267	-30
0.12633	-34
0.13000	-38
0.13367	-40
0.13733	-38
0.14100	-37
0.14467	-36
0.14833	-32
0.15200	-28
0.15567	-26
0.15933	-23
0.16300	-21
0.16667	-24
0.17033	-31
0.17400	-37
0.17767	-41
0.18133	-42
0.18500	-44
0.18867	-48
0.19233	-57
0.19600	-65
0.19967	-69
0.20333	-68
0.20700	-64
0.21067	-60
0.21433	-54
0.21800	-46
0.22167	-37
0.22533	-31
0.22900	-30
0.23267	-31
0.23633	-31
0.24000	-31
0.24367	-32
0.24733	-33
0.25100	-32
0.25467	-32
0.25833	-33
0.26200	-38
0.26567	-44
0.26933	-46
0.27300	-46
0.27667	-46
0.28033	-44
0.28400	-41
0.28767	-37
0.29133	-35
0.29500	-38
0.29867	-42
0.30233	-45
0.30600	-46
0.30967	-48
0.31333	-47
0.31700	-46
0.32067	-46
0.32433	-48
0.32800	-51
0.33167	-56
0.33533	-60
0.33900	-59
0.34267	-55
0.34633	-52
0.35000	-51
0.35367	-53
0.35733	-52
0.36100	-48
0.36467	-44
0.36833	-43
0.37200	-44
0.37567	-45
0.37933	-46
0.38300	-48
0.38667	-53
0.39033	-60
0.39400	-68
0.39767	-71
0.40133	-68
0.40500	-63
0.40867	-59
0.41233	-57
0.41600	-55
0.41967	-55
0.42333	-55
0.42700	-53
0.43067	-53
0.43433	-54
0.43800	-57
0.44167	-57
0.44533	-55
0.44900	-53
0.45267	-53
0.45633	-57
0.46000	-65
0.46367	-71
0.46733	-72
0.47100	-72
0.47467	-71
0.47833	-71
0.48200	-73
0.48567	-73
0.48933	-73
0.49300	-73
0.49667	-72
0.50033	-69
0.50400	-65
0.50767	-61
0.51133	-58
0.51500	-62
0.51867	-69
0.52233	-73
0.52600	-72
0.52967	-66
0.53333	-58
0.53700	-51
0.54067	-47
0.54433	-49
0.54800	-55
0.55167	-60
0.55533	-63
0.55900	-64
0.56267	-62
0.56633	-61
0.57000	-62
0.57367	-64
0.57733	-65
0.58100	-64
0.58467	-60
0.58833	-58
0.59200	-56
0.59567	-55
0.59933	-56
0.60300	-61
0.60667	-66
0.61033	-69
0.61400	-69
0.61767	-68
0.62133	-67
0.62500	-66
0.62867	-66
0.63233	-65
0.63600	-63
0.63967	-63
0.64333	-64
0.64700	-67
0.65067	-72
0.65433	-80
0.65800	-85
0.66167	-85
0.66533	-84
0.66900	-82
0.67267	-79
0.67633	-75
0.68000	-73
0.68367	-72
0.68733	-69
0.69100	-68
0.69467	-67
0.69833	-67
0.70200	-67
0.70567	-69
0.70933	-72
0.71300	-69
0.71667	-67
0.72033	-66
0.72400	-66
0.72767	-67
0.73133	-67
0.73500	-68
0.73867	-72
0.74233	-74
0.74600	-73
0.74967	-72
0.75333	-70
0.75700	-69
0.76067	-68
0.76433	-69
0.76800	-71
0.77167	-75
0.77533	-81
0.77900	-86
0.78267	-89
0.78633	-89
0.79000	-83
0.79367	-75
0.79733	-68
0.80100	-62
0.80467	-60
0.80833	-64
0.81200	-67
0.81567	-70
0.81933	-74
0.82300	-80
0.82667	-85
0.83033	-89
0.83400	-91
0.83767	-90
0.84133	-86
0.84500	-83
0.84867	-81
0.85233	-82
0.85600	-84
0.85967	-87
0.86333	-91
0.86700	-96
0.87067	-99
0.87433	-98
0.87800	-96
0.88167	-96
0.88533	-99
0.88900	-98
0.89267	-97
0.89633	-99
0.90000	-101
0.90367	-101
0.90733	-95
0.91100	-89
0.91467	-86
0.91833	-88
0.92200	-91
0.92567	-92
0.92933	-93
0.93300	-94
0.93667	-93
0.94033	-93
0.94400	-94
0.94767	-94
0.95133	-94
0.95500	-92
0.95867	-90
0.96233	-91
0.96600	-95
0.96967	-99
0.97333	-103
0.97700	-110
0.98067	-115
0.98433	-115
0.98800	-114
0.99167	-110
0.99533	-106
0.99900	-102
1.00267	-99
1.00633	-96
1.01000	-92
1.01367	-88
1.01733	-87
1.02100	-83
1.02467	-79
1.02833	-82
1.03200	-89
1.03567	-95
1.03933	-101
1.04300	-105
1.04667	-106
1.05033	-105
1.05400	-99
1.05767	-92
1.06133	-85
1.06500	-86
1.06867	-90
1.07233	-97
1.07600	-105
1.07967	-107
1.08333	-102
1.08700	-95
1.09067	-89
1.09433	-89
1.09800	-93
1.10167	-95
1.10533	-95
1.10900	-90
1.11267	-88
1.11633	-93
1.12000	-101
1.12367	-110
1.12733	-117
1.13100	-120
1.13467	-118
1.13833	-111
1.14200	-100
1.14567	-91
1.14933	-89
1.15300	-92
1.15667	-95
1.16033	-95
1.16400	-93
1.16767	-92
1.17133	-93
1.17500	-96
1.17867	-97
1.18233	-95
1.18600	-90
1.18967	-85
1.19333	-86
1.19700	-95
1.20067	-108
1.20433	-117
1.20800	-124
1.21167	-131
1.21533	-134
1.21900	-136
1.22267	-133
1.22633	-126
1.23000	-117
1.23367	-110
1.23733	-105
1.24100	-101
1.24467	-100
1.24833	-104
1.25200	-111
1.25567	-116
1.25933	-116
1.26300	-112
1.26667	-110
1.27033	-107
1.27400	-104
1.27767	-102
1.28133	-101
1.28500	-102
1.28867	-106
1.29233	-110
1.29600	-115
1.29967	-121
1.30333	-120
1.30700	-115
1.31067	-112
1.31433	-111
1.31800	-109
1.32167	-104
1.32533	-100
1.32900	-99
1.33267	-102
1.33633	-109
1.34000	-115
1.34367	-116
1.34733	-113
1.35100	-108
1.35467	-109
1.35833	-111
1.36200	-112
1.36567	-113
1.36933	-117
1.37300	-122
1.37667	-126
1.38033	-129
1.38400	-132
1.38767	-134
1.39133	-131
1.39500	-125
1.39867	-122
1.40233	-122
1.40600	-126
1.40967	-132
1.41333	-138
1.41700	-139
1.42067	-130
1.42433	-115
1.42800	-104
1.43167	-102
1.43533	-106
1.43900	-107
1.44267	-64
1.44633	94
1.45000	342
1.45367	573
1.45733	730
1.46100	809
1.46467	829
1.46833	818
1.47200	799
1.47567	783
1.47933	767
1.48300	746
1.48667	708
1.49033	645
1.49400	565
1.49767	476
1.50133	385
1.50500	297
1.50867	216
1.51233	148
1.51600	95
1.51967	55
1.52333	25
1.52700	0
1.53067	-20
1.53433	-30
1.53800	-14
1.54167	113
1.54533	578
1.54900	1664
1.55267	3389
1.55633	5414
1.56000	7322
1.56367	8852
1.56733	9878
1.57100	10275
1.57467	9916
1.57833	8820
1.58200	7236
1.58567	5532
1.58933	3998
1.59300	2768
1.59667	1856
1.60033	1211
1.60400	764
1.60767	459
1.61133	250
1.61500	112
1.61867	21
1.62233	-37
1.62600	-74
1.62967	-97
1.63333	-111
1.63700	-122
1.64067	-128
1.64433	-128
1.64800	-125
1.65167	-124
1.65533	-125
1.65900	-129
1.66267	-138
1.66633	-146
1.67000	-148
1.67367	-146
1.67733	-143
1.68100	-138
1.68467	-132
1.68833	-130
1.69200	-131
1.69567	-135
1.69933	-140
1.70300	-146
1.70667	-150
1.71033	-154
1.71400	-157
1.71767	-162
1.72133	-164
1.72500	-163
1.72867	-160
1.73233	-156
1.73600	-151
1.73967	-144
1.74333	-138
1.74700	-136
1.75067	-139
1.75433	-143
1.75800	-156
1.76167	-177
1.76533	-175
1.76900	-169
1.77267	-166
1.77633	-172
1.78000	-170
1.78367	-160
1.78733	-163
1.79100	-156
1.79467	-148
1.79833	-155
1.80200	-166
1.80567	-170
1.80933	-167
1.81300	-162
1.81667	-153
1.82033	-138
1.82400	-134
1.82767	-137
1.83133	-144
1.83500	-151
1.83867	-154
1.84233	-153
1.84600	-149
1.84967	-147
1.85333	-146
1.85700	-148
1.86067	-155
1.86433	-156
1.86800	-155
1.87167	-152
1.87533	-146
1.87900	-141
1.88267	-137
1.88633	-132
1.89000	-131
1.89367	-140
1.89733	-143
1.90100	-142
1.90467	-143
1.90833	-143
1.91200	-142
1.91567	-139
1.91933	-133
1.92300	-127
1.92667	-120
1.93033	-114
1.93400	-110
1.93767	-115
1.94133	-123
1.94500	-129
1.94867	-130
1.95233	-124
1.95600	-93
1.95967	131
1.96333	1430
1.96700	7152
1.97067	26183
1.97433	74724
1.97800	170565
1.98167	318723
1.98533	502329
1.98900	688979
1.99267	846542
1.99633	951222
2.00000	988939
2.00367	957150
2.00733	865311
2.01100	733654
2.01467	587040
2.01833	447233
2.02200	327904
2.02567	234016
2.02933	164360
2.03300	114759
2.03667	80395
2.04033	56984
2.04400	41160
2.04767	30470
2.05133	23202
2.05500	18197
2.05867	14694
2.06233	12191
2.06600	10361
2.06967	8980
2.07333	7915
2.07700	7073
2.08067	6392
2.08433	5826
2.08800	5351
2.09167	4947
2.09533	4601
2.09900	4302
2.10267	4036
2.10633	3798
2.11000	3586
2.11367	3395
2.11733	3221
2.12100	3063
2.12467	2920
2.12833	2792
2.13200	2675
2.13567	2563
2.13933	2455
2.14300	2355
2.14667	2263
2.15033	2178
2.15400	2100
2.15767	2027
2.16133	1962
2.16500	1898
2.16867	1834
2.17233	1772
2.17600	1712
2.17967	1656
2.18333	1607
2.18700	1559
2.19067	1512
2.19433	1466
2.19800	1427
2.20167	1392
2.20533	1358
2.20900	1323
2.21267	1287
2.21633	1253
2.22000	1220
2.22367	1186
2.22733	1152
2.23100	1122
2.23467	1095
2.23833	1072
2.24200	1051
2.24567	1031
2.24933	1010
2.25300	986
2.25667	962
2.26033	938
2.26400	918
2.26767	900
2.27133	883
2.27500	868
2.27867	856
2.28233	845
2.28600	836
2.28967	826
2.29333	814
2.29700	798
2.30067	778
2.30433	758
2.30800	737
2.31167	719
2.31533	707
2.31900	697
2.32267	686
2.32633	676
2.33000	668
2.33367	660
2.33733	652
2.34100	642
2.34467	628
2.34833	612
2.35200	599
2.35567	587
2.35933	573
2.36300	559
2.36667	548
2.37033	541
2.37400	534
2.37767	528
2.38133	523
2.38500	517
2.38867	513
2.39233	506
2.39600	499
2.39967	491
2.40333	483
2.40700	476
2.41067	473
2.41433	472
2.41800	469
2.42167	467
2.42533	465
2.42900	463
2.43267	458
2.43633	451
2.44000	445
2.44367	438
2.44733	430
2.45100	420
2.45467	411
2.45833	404
2.46200	394
2.46567	386
2.46933	387
2.47300	383
2.47667	372
2.48033	360
2.48400	351
2.48767	346
2.49133	343
2.49500	343
2.49867	340
2.50233	335
2.50600	329
2.50967	323
2.51333	322
2.51700	323
2.52067	325
2.52433	328
2.52800	326
2.53167	322
2.53533	316
2.53900	311
2.54267	306
2.54633	302
2.55000	301
2.55367	299
2.55733	295
2.56100	292
2.56467	288
2.56833	281
2.57200	275
2.57567	271
2.57933	267
2.58300	263
2.58667	260
2.59033	259
2.59400	258
2.59767	257
2.60133	255
2.60500	253
2.60867	254
2.61233	256
2.61600	254
2.61967	252
2.62333	248
2.62700	239
2.63067	223
2.63433	234
2.63800	242
2.64167	245
2.64533	235
2.64900	232
2.65267	230
2.65633	233
2.66000	240
2.66367	233
2.66733	214
2.67100	200
2.67467	193
2.67833	193
2.68200	196
2.68567	200
2.68933	202
2.69300	204
2.69667	200
2.70033	193
2.70400	186
2.70767	180
2.71133	177
2.71500	174
2.71867	170
2.72233	167
2.72600	166
2.72967	171
2.73333	176
2.73700	181
2.74067	182
2.74433	180
2.74800	176
2.75167	170
2.75533	165
2.75900	161
2.76267	161
2.76633	161
2.77000	159
2.77367	156
2.77733	154
2.78100	154
2.78467	157
2.78833	162
2.79200	163
2.79567	160
2.79933	158
2.80300	157
2.80667	156
2.81033	153
2.81400	145
2.81767	135
2.82133	131
2.82500	132
2.82867	133
2.83233	134
2.83600	135
2.83967	132
2.84333	129
2.84700	128
2.85067	126
2.85433	122
2.85800	119
2.86167	117
2.86533	116
2.86900	116
2.87267	115
2.87633	114
2.88000	116
2.88367	118
2.88733	122
2.89100	127
2.89467	128
2.89833	125
2.90200	118
2.90567	112
2.90933	107
2.91300	104
2.91667	102
2.92033	106
2.92400	111
2.92767	117
2.93133	117
2.93500	112
2.93867	106
2.94233	103
2.94600	104
2.94967	105
2.95333	109
2.95700	108
2.96067	104
2.96433	102
2.96800	107
2.97167	114
2.97533	115
2.97900	114
2.98267	113
2.98633	112
2.99000	109
2.99367	109
2.99733	110
3.00100	111
3.00467	110
3.00833	108
3.01200	106
3.01567	106
3.01933	102
3.02300	95
3.02667	90
3.03033	89
3.03400	95
3.03767	105
3.04133	113
3.04500	117
3.04867	117
3.05233	115
3.05600	116
3.05967	116
3.06333	112
3.06700	108
3.07067	102
3.07433	97
3.07800	96
3.08167	97
3.08533	97
3.08900	99
3.09267	96
3.09633	91
3.10000	80
3.10367	66
3.10733	58
3.11100	56
3.11467	60
3.11833	64
3.12200	63
3.12567	59
3.12933	55
3.13300	54
3.13667	54
3.14033	54
3.14400	52
3.14767	50
3.15133	48
3.15500	50
3.15867	54
3.16233	59
3.16600	63
3.16967	67
3.17333	73
3.17700	82
3.18067	90
3.18433	96
3.18800	102
3.19167	98
3.19533	86
3.19900	71
3.20267	60
3.20633	52
3.21000	45
3.21367	41
3.21733	42
3.22100	43
3.22467	48
3.22833	56
3.23200	65
3.23567	69
3.23933	71
3.24300	74
3.24667	76
3.25033	72
3.25400	67
3.25767	61
3.26133	59
3.26500	57
3.26867	54
3.27233	52
3.27600	53
3.27967	60
3.28333	60
3.28700	54
3.29067	48
3.29433	42
3.29800	37
3.30167	33
3.30533	32
3.30900	33
3.31267	35
3.31633	39
3.32000	43
3.32367	45
3.32733	47
3.33100	44
3.33467	43
3.33833	43
3.34200	44
3.34567	42
3.34933	41
3.35300	42
3.35667	43
3.36033	43
3.36400	42
3.36767	39
3.37133	35
3.37500	35
3.37867	36
3.38233	35
3.38600	32
3.38967	29
3.39333	29
3.39700	31
3.40067	34
3.40433	37
3.40800	39
3.41167	38
3.41533	35
3.41900	33
3.42267	30
3.42633	29
3.43000	28
3.43367	23
3.43733	24
3.44100	26
3.44467	31
3.44833	35
3.45200	37
3.45567	36
3.45933	38
3.46300	43
3.46667	49
3.47033	48
3.47400	41
3.47767	34
3.48133	30
3.48500	28
3.48867	28
3.49233	28
3.49600	29
3.49967	35
3.50333	42
3.50700	50
3.51067	53
3.51433	49
3.51800	44
3.52167	34
3.52533	26
3.52900	24
3.53267	27
3.53633	24
3.54000	18
3.54367	14
3.54733	13
3.55100	17
3.55467	23
3.55833	28
3.56200	27
3.56567	26
3.56933	21
3.57300	15
3.57667	9
3.58033	5
3.58400	4
3.58767	4
3.59133	9
3.59500	15
3.59867	20
3.60233	27
3.60600	31
3.60967	31
3.61333	28
3.61700	23
3.62067	20
3.62433	21
3.62800	24
3.63167	27
3.63533	28
3.63900	29
3.64267	18
3.64633	7
3.65000	1
3.65367	-2
3.65733	0
3.66100	7
3.66467	14
3.66833	19
3.67200	20
3.67567	23
3.67933	28
3.68300	30
3.68667	26
3.69033	18
3.69400	11
3.69767	6
3.70133	0
3.70500	0
3.70867	3
3.71233	6
3.71600	6
3.71967	5
3.72333	8
3.72700	12
3.73067	15
3.73433	18
3.73800	18
3.74167	14
3.74533	10
3.74900	9
3.75267	10
3.75633	11
3.76000	14
3.76367	17
3.76733	17
3.77100	12
3.77467	8
3.77833	2
3.78200	-7
3.78567	-16
3.78933	-22
3.79300	-22
3.79667	-15
3.80033	-4
3.80400	5
3.80767	4
3.81133	-2
3.81500	-6
3.81867	-7
3.82233	-7
3.82600	-5
3.82967	-1
3.83333	2
3.83700	4
3.84067	2
3.84433	-1
3.84800	-2
3.85167	0
3.85533	4
3.85900	6
3.86267	6
3.86633	4
3.87000	2
3.87367	2
3.87733	5
3.88100	8
3.88467	12
3.88833	12
3.89200	5
3.89567	-7
3.89933	-18
3.90300	-26
3.90667	-31
3.91033	-32
3.91400	-30
3.91767	-26
3.92133	-25
3.92500	-23
3.92867	-21
3.93233	-17
3.93600	-13
3.93967	-7
3.94333	-2
3.94700	-4
3.95067	-6
3.95433	-7
3.95800	-9
3.96167	-10
3.96533	-11
3.96900	-10
3.97267	-5
3.97633	1
3.98000	3
3.98367	0
3.98733	-6
3.99100	-14
3.99467	-21
3.99833	-24

[Chromatogram (Ch2)]
Interval(msec)	220
# of Points	1091
Start Time(min)	0.002
End Time(min)	3.998
R.Time (min)	Intensity
0.00167	1
0.00533	1
0.00900	1
0.01267	1
0.01633	0
0.02000	0
0.02367	0
0.02733	-0
0.03100	-0
0.03467	-0
0.03833	-0
0.04200	-0
0.04567	-1
0.04933	-1
0.05300	-1
0.05667	-1
0.06033	-0
0.06400	-0
0.06767	-1
0.07133	-1
0.07500	-1
0.07867	-1
0.08233	-1
0.08600	-1
0.08967	-0
0.09333	-0
0.09700	-0
0.10067	-0
0.10433	-0
0.10800	-0
0.11167	-0
0.11533	-0
0.11900	0
0.12267	0
0.12633	1
0.13000	1
0.13367	1
0.13733	1
0.14100	0
0.14467	-0
0.14833	-1
0.15200	-1
0.15567	-1
0.15933	-2
0.16300	-2
0.16667	-1
0.17033	-1
0.17400	-1
0.17767	-1
0.18133	-1
0.18500	-1
0.18867	-0
0.19233	-0
0.19600	-0
0.19967	0
0.20333	0
0.20700	-0
0.21067	-0
0.21433	-0
0.21800	-0
0.22167	-0
0.22533	-0
0.22900	-0
0.23267	-0
0.23633	-0
0.24000	-0
0.24367	-0
0.24733	-0
0.25100	-1
0.25467	-1
0.25833	-1
0.26200	-1
0.26567	-1
0.26933	-1
0.27300	-1
0.27667	-1
0.28033	-1
0.28400	-1
0.28767	-1
0.29133	-1
0.29500	-1
0.29867	-1
0.30233	-2
0.30600	-2
0.30967	-2
0.31333	-1
0.31700	-1
0.32067	-1
0.32433	-1
0.32800	-1
0.33167	-1
0.33533	-1
0.33900	-1
0.34267	-1
0.34633	-1
0.35000	-1
0.35367	-1
0.35733	-1
0.36100	-1
0.36467	-1
0.36833	-2
0.37200	-2
0.37567	-2
0.37933	-2
0.38300	-2
0.38667	-2
0.39033	-2
0.39400	-2
0.39767	-2
0.40133	-2
0.40500	-2
0.40867	-2
0.41233	-2
0.41600	-2
0.41967	-2
0.42333	-2
0.42700	-2
0.43067	-2
0.43433	-2
0.43800	-2
0.44167	-2
0.44533	-2
0.44900	-2
0.45267	-2
0.45633	-2
0.46000	-2
0.46367	-2
0.46733	-2
0.47100	-2
0.47467	-2
0.47833	-2
0.48200	-2
0.48567	-2
0.48933	-2
0.49300	-2
0.49667	-2
0.50033	-2
0.50400	-2
0.50767	-2
0.51133	-2
0.51500	-2
0.51867	-2
0.52233	-2
0.52600	-2
0.52967	-2
0.53333	-1
0.53700	-1
0.54067	-2
0.54433	-2
0.54800	-2
0.55167	-2
0.55533	-1
0.55900	-1
0.56267	-1
0.56633	-1
0.57000	-1
0.57367	-1
0.57733	-1
0.58100	-1
0.58467	-1
0.58833	-1
0.59200	-1
0.59567	-1
0.59933	-1
0.60300	-2
0.60667	-2
0.61033	-2
0.61400	-2
0.61767	-2
0.62133	-2
0.62500	-2
0.62867	-2
0.63233	-2
0.63600	-2
0.63967	-2
0.64333	-2
0.64700	-2
0.65067	-2
0.65433	-2
0.65800	-2
0.66167	-2
0.66533	-2
0.66900	-1
0.67267	-1
0.67633	-1
0.68000	-1
0.68367	-1
0.68733	-1
0.69100	-1
0.69467	-1
0.69833	-1
0.70200	-1
0.70567	-1
0.70933	-1
0.71300	-1
0.71667	-2
0.72033	-2
0.72400	-3
0.72767	-3
0.73133	-3
0.73500	-3
0.73867	-3
0.74233	-3
0.74600	-3
0.74967	-3
0.75333	-3
0.75700	-3
0.76067	-3
0.76433	-3
0.76800	-3
0.77167	-3
0.77533	-3
0.77900	-3
0.78267	-3
0.78633	-3
0.79000	-3
0.79367	-3
0.79733	-3
0.80100	-3
0.80467	-3
0.80833	-3
0.81200	-3
0.81567	-3
0.81933	-2
0.82300	-2
0.82667	-2
0.83033	-2
0.83400	-2
0.83767	-2
0.84133	-2
0.84500	-2
0.84867	-2
0.85233	-2
0.85600	-3
0.85967	-3
0.86333	-3
0.86700	-3
0.87067	-3
0.87433	-3
0.87800	-3
0.88167	-3
0.88533	-3
0.88900	-3
0.89267	-2
0.89633	-2
0.90000	-2
0.90367	-2
0.90733	-2
0.91100	-2
0.91467	-2
0.91833	-2
0.92200	-2
0.92567	-2
0.92933	-3
0.93300	-3
0.93667	-3
0.94033	-4
0.94400	-4
0.94767	-4
0.95133	-4
0.95500	-4
0.95867	-3
0.96233	-3
0.96600	-3
0.96967	-3
0.97333	-3
0.97700	-3
0.98067	-3
0.98433	-3
0.98800	-3
0.99167	-3
0.99533	-3
0.99900	-3
1.00267	-3
1.00633	-3
1.01000	-2
1.01367	-2
1.01733	-2
1.02100	-2
1.02467	-2
1.02833	-2
1.03200	-2
1.03567	-2
1.03933	-2
1.04300	-2
1.04667	-2
1.05033	-2
1.05400	-1
1.05767	-1
1.06133	-1
1.06500	-1
1.06867	-1
1.07233	-1
1.07600	-1
1.07967	-1
1.08333	-1
1.08700	-1
1.09067	-1
1.09433	-1
1.09800	-2
1.10167	-2
1.10533	-3
1.10900	-3
1.11267	-3
1.11633	-4
1.12000	-4
1.12367	-4
1.12733	-4
1.13100	-3
1.13467	-3
1.13833	-4
1.14200	-4
1.14567	-4
1.14933	-4
1.15300	-4
1.15667	-4
1.16033	-4
1.16400	-5
1.16767	-5
1.17133	-5
1.17500	-5
1.17867	-5
1.18233	-5
1.18600	-5
1.18967	-4
1.19333	-4
1.19700	-4
1.20067	-4
1.20433	-3
1.20800	-3
1.21167	-4
1.21533	-4
1.21900	-4
1.22267	-4
1.22633	-4
1.23000	-4
1.23367	-4
1.23733	-4
1.24100	-4
1.24467	-3
1.24833	-3
1.25200	-3
1.25567	-3
1.25933	-3
1.26300	-3
1.26667	-3
1.27033	-3
1.27400	-3
1.27767	-3
1.28133	-3
1.28500	-3
1.28867	-2
1.29233	-2
1.29600	-2
1.29967	-3
1.30333	-3
1.30700	-3
1.31067	-3
1.31433	-3
1.31800	-3
1.32167	-3
1.32533	-3
1.32900	-3
1.33267	-3
1.33633	-3
1.34000	-4
1.34367	-4
1.34733	-4
1.35100	-4
1.35467	-4
1.35833	-4
1.36200	-4
1.36567	-4
1.36933	-4
1.37300	-3
1.37667	-3
1.38033	-3
1.38400	-3
1.38767	-2
1.39133	-2
1.39500	-2
1.39867	-2
1.40233	-2
1.40600	-2
1.40967	-2
1.41333	-3
1.41700	-3
1.42067	-3
1.42433	-3
1.42800	-3
1.43167	-3
1.43533	-3
1.43900	-3
1.44267	-3
1.44633	-3
1.45000	-3
1.45367	-4
1.45733	-4
1.46100	-4
1.46467	-4
1.46833	-4
1.47200	-5
1.47567	-5
1.47933	-5
1.48300	-5
1.48667	-5
1.49033	-5
1.49400	-5
1.49767	-5
1.50133	-5
1.50500	-5
1.50867	-5
1.51233	-5
1.51600	-5
1.51967	-5
1.52333	-5
1.52700	-5
1.53067	-5
1.53433	-4
1.53800	-4
1.54167	-4
1.54533	-4
1.54900	-4
1.55267	-4
1.55633	-4
1.56000	-4
1.56367	-3
1.56733	-3
1.57100	-3
1.57467	-3
1.57833	-3
1.58200	-3
1.58567	-3
1.58933	-4
1.59300	-4
1.59667	-4
1.60033	-5
1.60400	-6
1.60767	-7
1.61133	-9
1.61500	-11
1.61867	-13
1.62233	-16
1.62600	-19
1.62967	-22
1.63333	-25
1.63700	-28
1.64067	-32
1.64433	-35
1.64800	-39
1.65167	-42
1.65533	-46
1.65900	-50
1.66267	-53
1.66633	-57
1.67000	-62
1.67367	-66
1.67733	-71
1.68100	-76
1.68467	-81
1.68833	-86
1.69200	-90
1.69567	-93
1.69933	-97
1.70300	-100
1.70667	-102
1.71033	-104
1.71400	-106
1.71767	-107
1.72133	-108
1.72500	-109
1.72867	-110
1.73233	-110
1.73600	-111
1.73967	-111
1.74333	-111
1.74700	-111
1.75067	-112
1.75433	-113
1.75800	-114
1.76167	-115
1.76533	-116
1.76900	-116
1.77267	-117
1.77633	-117
1.78000	-117
1.78367	-117
1.78733	-117
1.79100	-116
1.79467	-116
1.79833	-116
1.80200	-117
1.80567	-117
1.80933	-117
1.81300	-118
1.81667	-118
1.82033	-118
1.82400	-118
1.82767	-119
1.83133	-119
1.83500	-119
1.83867	-119
1.84233	-120
1.84600	-120
1.84967	-120
1.85333	-121
1.85700	-121
1.86067	-121
1.86433	-120
1.86800	-120
1.87167	-120
1.87533	-119
1.87900	-119
1.88267	-119
1.88633	-119
1.89000	-119
1.89367	-118
1.89733	-118
1.90100	-118
1.90467	-118
1.90833	-117
1.91200	-117
1.91567	-117
1.91933	-117
1.92300	-117
1.92667	-116
1.93033	-115
1.93400	-115
1.93767	-115
1.94133	-115
1.94500	-115
1.94867	-115
1.95233	-115
1.95600	-114
1.95967	-114
1.96333	-113
1.96700	-112
1.97067	-112
1.97433	-111
1.97800	-111
1.98167	-111
1.98533	-111
1.98900	-111
1.99267	-110
1.99633	-110
2.00000	-110
2.00367	-109
2.00733	-109
2.01100	-109
2.01467	-109
2.01833	-109
2.02200	-109
2.02567	-109
2.02933	-109
2.03300	-109
2.03667	-109
2.04033	-109
2.04400	-109
2.04767	-109
2.05133	-108
2.05500	-108
2.05867	-107
2.06233	-107
2.06600	-107
2.06967	-107
2.07333	-107
2.07700	-107
2.08067	-107
2.08433	-107
2.08800	-106
2.09167	-106
2.09533	-106
2.09900	-105
2.10267	-105
2.10633	-104
2.11000	-104
2.11367	-103
2.11733	-103
2.12100	-102
2.12467	-102
2.12833	-101
2.13200	-101
2.13567	-101
2.13933	-101
2.14300	-101
2.14667	-102
2.15033	-102
2.15400	-101
2.15767	-101
2.16133	-100
2.16500	-100
2.16867	-100
2.17233	-100
2.17600	-99
2.17967	-99
2.18333	-98
2.18700	-98
2.19067	-98
2.19433	-98
2.19800	-98
2.20167	-97
2.20533	-97
2.20900	-97
2.21267	-96
2.21633	-96
2.22000	-96
2.22367	-95
2.22733	-94
2.23100	-93
2.23467	-92
2.23833	-92
2.24200	-93
2.24567	-93
2.24933	-94
2.25300	-95
2.25667	-95
2.26033	-94
2.26400	-94
2.26767	-93
2.27133	-92
2.27500	-91
2.27867	-90
2.28233	-89
2.28600	-89
2.28967	-89
2.29333	-88
2.29700	-88
2.30067	-87
2.30433	-87
2.30800	-86
2.31167	-86
2.31533	-86
2.31900	-86
2.32267	-86
2.32633	-86
2.33000	-86
2.33367	-86
2.33733	-85
2.34100	-84
2.34467	-83
2.34833	-82
2.35200	-81
2.35567	-80
2.35933	-79
2.36300	-78
2.36667	-77
2.37033	-75
2.37400	-73
2.37767	-71
2.38133	-69
2.38500	-66
2.38867	-62
2.39233	-59
2.39600	-55
2.39967	-51
2.40333	-48
2.40700	-44
2.41067	-40
2.41433	-37
2.41800	-33
2.42167	-30
2.42533	-27
2.42900	-24
2.43267	-21
2.43633	-18
2.44000	-15
2.44367	-13
2.44733	-11
2.45100	-9
2.45467	-7
2.45833	-6
2.46200	-4
2.46567	-2
2.46933	-1
2.47300	0
2.47667	1
2.48033	2
2.48400	2
2.48767	3
2.49133	4
2.49500	4
2.49867	5
2.50233	7
2.50600	8
2.50967	9
2.51333	10
2.51700	10
2.52067	11
2.52433	11
2.52800	12
2.53167	13
2.53533	13
2.53900	14
2.54267	14
2.54633	14
2.55000	15
2.55367	15
2.55733	15
2.56100	15
2.56467	16
2.56833	16
2.57200	17
2.57567	17
2.57933	18
2.58300	18
2.58667	17
2.59033	17
2.59400	17
2.59767	17
2.60133	18
2.60500	18
2.60867	18
2.61233	18
2.61600	19
2.61967	19
2.62333	20
2.62700	20
2.63067	21
2.63433	21
2.63800	22
2.64167	22
2.64533	22
2.64900	22
2.65267	22
2.65633	22
2.66000	22
2.66367	22
2.66733	22
2.67100	23
2.67467	23
2.67833	23
2.68200	23
2.68567	23
2.68933	22
2.69300	22
2.69667	22
2.70033	22
2.70400	22
2.70767	22
2.71133	22
2.71500	22
2.71867	21
2.72233	21
2.72600	21
2.72967	21
2.73333	22
2.73700	22
2.74067	22
2.74433	23
2.74800	23
2.75167	24
2.75533	25
2.75900	25
2.76267	26
2.76633	26
2.77000	26
2.77367	26
2.77733	26
2.78100	26
2.78467	26
2.78833	26
2.79200	26
2.79567	26
2.79933	26
2.80300	26
2.80667	26
2.81033	26
2.81400	26
2.81767	26
2.82133	26
2.82500	27
2.82867	27
2.83233	27
2.83600	27
2.83967	27
2.84333	27
2.84700	27
2.85067	26
2.85433	26
2.85800	24
2.86167	22
2.86533	18
2.86900	11
2.87267	2
2.87633	-12
2.88000	-29
2.88367	-51
2.88733	-78
2.89100	-111
2.89467	-148
2.89833	-191
2.90200	-238
2.90567	-290
2.90933	-346
2.91300	-407
2.91667	-471
2.92033	-538
2.92400	-609
2.92767	-682
2.93133	-758
2.93500	-836
2.93867	-917
2.94233	-1000
2.94600	-1084
2.94967	-1171
2.95333	-1259
2.95700	-1347
2.96067	-1432
2.96433	-1500
2.96800	-1540
2.97167	-1544
2.97533	-1513
2.97900	-1452
2.98267	-1367
2.98633	-1266
2.99000	-1157
2.99367	-1045
2.99733	-935
3.00100	-829
3.00467	-731
3.00833	-640
3.01200	-558
3.01567	-484
3.01933	-419
3.02300	-361
3.02667	-310
3.03033	-266
3.03400	-227
3.03767	-194
3.04133	-165
3.04500	-140
3.04867	-119
3.05233	-100
3.05600	-84
3.05967	-71
3.06333	-59
3.06700	-49
3.07067	-40
3.07433	-33
3.07800	-27
3.08167	-22
3.08533	-17
3.08900	-13
3.09267	-10
3.09633	-7
3.10000	-5
3.10367	-2
3.10733	-1
3.11100	1
3.11467	3
3.11833	4
3.12200	5
3.12567	6
3.12933	7
3.13300	8
3.13667	9
3.14033	10
3.14400	11
3.14767	11
3.15133	12
3.15500	13
3.15867	13
3.16233	14
3.16600	14
3.16967	15
3.17333	16
3.17700	16
3.18067	16
3.18433	17
3.18800	17
3.19167	17
3.19533	18
3.19900	18
3.20267	18
3.20633	19
3.21000	19
3.21367	19
3.21733	19
3.22100	19
3.22467	20
3.22833	20
3.23200	20
3.23567	20
3.23933	20
3.24300	21
3.24667	21
3.25033	21
3.25400	21
3.25767	22
3.26133	22
3.26500	22
3.26867	22
3.27233	22
3.27600	22
3.27967	22
3.28333	22
3.28700	22
3.29067	22
3.29433	22
3.29800	22
3.30167	23
3.30533	22
3.30900	22
3.31267	22
3.31633	23
3.32000	23
3.32367	23
3.32733	23
3.33100	23
3.33467	23
3.33833	23
3.34200	23
3.34567	23
3.34933	23
3.35300	24
3.35667	24
3.36033	24
3.36400	24
3.36767	24
3.37133	24
3.37500	24
3.37867	25
3.38233	25
3.38600	25
3.38967	25
3.39333	25
3.39700	26
3.40067	26
3.40433	26
3.40800	26
3.41167	27
3.41533	27
3.41900	27
3.42267	27
3.42633	27
3.43000	27
3.43367	28
3.43733	28
3.44100	28
3.44467	28
3.44833	28
3.45200	28
3.45567	29
3.45933	29
3.46300	29
3.46667	29
3.47033	29
3.47400	30
3.47767	29
3.48133	29
3.48500	29
3.48867	29
3.49233	29
3.49600	29
3.49967	29
3.50333	29
3.50700	29
3.51067	29
3.51433	29
3.51800	29
3.52167	29
3.52533	29
3.52900	29
3.53267	29
3.53633	29
3.54000	29
3.54367	29
3.54733	29
3.55100	28
3.55467	29
3.55833	29
3.56200	29
3.56567	29
3.56933	28
3.57300	28
3.57667	28
3.58033	28
3.58400	28
3.58767	28
3.59133	28
3.59500	28
3.59867	28
3.60233	28
3.60600	28
3.60967	28
3.61333	28
3.61700	27
3.62067	27
3.62433	27
3.62800	27
3.63167	26
3.63533	26
3.63900	26
3.64267	26
3.64633	26
3.65000	26
3.65367	26
3.65733	26
3.66100	26
3.66467	26
3.66833	26
3.67200	26
3.67567	26
3.67933	26
3.68300	26
3.68667	26
3.69033	26
3.69400	27
3.69767	27
3.70133	27
3.70500	27
3.70867	27
3.71233	27
3.71600	27
3.71967	26
3.72333	26
3.72700	26
3.73067	26
3.73433	26
3.73800	26
3.74167	27
3.74533	27
3.74900	27
3.75267	27
3.75633	27
3.76000	27
3.76367	26
3.76733	26
3.77100	26
3.77467	26
3.77833	26
3.78200	27
3.78567	27
3.78933	27
3.79300	27
3.79667	27
3.80033	26
3.80400	26
3.80767	26
3.81133	26
3.81500	26
3.81867	26
3.82233	26
3.82600	26
3.82967	27
3.83333	27
3.83700	27
3.84067	27
3.84433	27
3.84800	27
3.85167	26
3.85533	26
3.85900	26
3.86267	26
3.86633	26
3.87000	26
3.87367	25
3.87733	25
3.88100	25
3.88467	25
3.88833	25
3.89200	25
3.89567	25
3.89933	26
3.90300	26
3.90667	26
3.91033	26
3.91400	25
3.91767	25
3.92133	25
3.92500	25
3.92867	25
3.93233	25
3.93600	25
3.93967	25
3.94333	25
3.94700	25
3.95067	25
3.95433	25
3.95800	25
3.96167	25
3.96533	26
3.96900	26
3.97267	27
3.97633	27
3.98000	27
3.98367	27
3.98733	27
3.99100	27
3.99467	27
3.99833	27

[Chromatogram (Ch3)]
Interval(msec)	220
# of Points	1091
Start Time(min)	0.002
End Time(min)	3.998
R.Time (min)	Intensity
0.00167	1
0.00533	2
0.00900	4
0.01267	3
0.01633	0
0.02000	-1
0.02367	-1
0.02733	-2
0.03100	-2
0.03467	-2
0.03833	-2
0.04200	-3
0.04567	-4
0.04933	-1
0.05300	4
0.05667	7
0.06033	5
0.06400	4
0.06767	4
0.07133	3
0.07500	0
0.07867	-1
0.08233	-0
0.08600	-1
0.08967	-2
0.09333	-2
0.09700	-1
0.10067	-1
0.10433	-1
0.10800	0
0.11167	2
0.11533	4
0.11900	3
0.12267	2
0.12633	3
0.13000	4
0.13367	6
0.13733	6
0.14100	5
0.14467	3
0.14833	0
0.15200	0
0.15567	1
0.15933	1
0.16300	4
0.16667	6
0.17033	7
0.17400	7
0.17767	7
0.18133	6
0.18500	6
0.18867	4
0.19233	4
0.19600	4
0.19967	4
0.20333	2
0.20700	2
0.21067	3
0.21433	4
0.21800	5
0.22167	4
0.22533	4
0.22900	2
0.23267	3
0.23633	3
0.24000	2
0.24367	1
0.24733	-1
0.25100	-3
0.25467	-4
0.25833	-3
0.26200	-3
0.26567	-5
0.26933	-5
0.27300	-3
0.27667	-1
0.28033	0
0.28400	-0
0.28767	-0
0.29133	-1
0.29500	-2
0.29867	-1
0.30233	2
0.30600	3
0.30967	2
0.31333	2
0.31700	2
0.32067	2
0.32433	2
0.32800	2
0.33167	3
0.33533	4
0.33900	5
0.34267	4
0.34633	4
0.35000	4
0.35367	3
0.35733	1
0.36100	-0
0.36467	-1
0.36833	-0
0.37200	1
0.37567	3
0.37933	5
0.38300	4
0.38667	6
0.39033	8
0.39400	9
0.39767	8
0.40133	7
0.40500	5
0.40867	4
0.41233	3
0.41600	2
0.41967	2
0.42333	3
0.42700	5
0.43067	6
0.43433	4
0.43800	1
0.44167	-2
0.44533	-3
0.44900	-5
0.45267	-5
0.45633	-2
0.46000	0
0.46367	0
0.46733	1
0.47100	3
0.47467	2
0.47833	3
0.48200	7
0.48567	8
0.48933	7
0.49300	8
0.49667	9
0.50033	9
0.50400	9
0.50767	7
0.51133	7
0.51500	6
0.51867	5
0.52233	4
0.52600	5
0.52967	7
0.53333	5
0.53700	2
0.54067	-1
0.54433	-1
0.54800	1
0.55167	2
0.55533	1
0.55900	-2
0.56267	-1
0.56633	-1
0.57000	1
0.57367	1
0.57733	1
0.58100	-1
0.58467	-3
0.58833	-5
0.59200	-5
0.59567	-1
0.59933	2
0.60300	2
0.60667	5
0.61033	8
0.61400	7
0.61767	6
0.62133	6
0.62500	8
0.62867	5
0.63233	3
0.63600	1
0.63967	2
0.64333	4
0.64700	6
0.65067	8
0.65433	10
0.65800	9
0.66167	7
0.66533	4
0.66900	3
0.67267	3
0.67633	2
0.68000	1
0.68367	1
0.68733	0
0.69100	-0
0.69467	1
0.69833	2
0.70200	1
0.70567	0
0.70933	2
0.71300	2
0.71667	3
0.72033	3
0.72400	4
0.72767	5
0.73133	5
0.73500	5
0.73867	4
0.74233	3
0.74600	4
0.74967	4
0.75333	5
0.75700	4
0.76067	3
0.76433	3
0.76800	2
0.77167	1
0.77533	1
0.77900	4
0.78267	6
0.78633	9
0.79000	8
0.79367	6
0.79733	3
0.80100	3
0.80467	3
0.80833	3
0.81200	5
0.81567	4
0.81933	5
0.82300	6
0.82667	5
0.83033	2
0.83400	0
0.83767	2
0.84133	4
0.84500	5
0.84867	5
0.85233	4
0.85600	2
0.85967	3
0.86333	4
0.86700	5
0.87067	6
0.87433	7
0.87800	8
0.88167	7
0.88533	6
0.88900	7
0.89267	11
0.89633	14
0.90000	16
0.90367	15
0.90733	15
0.91100	14
0.91467	12
0.91833	11
0.92200	11
0.92567	9
0.92933	7
0.93300	5
0.93667	4
0.94033	5
0.94400	7
0.94767	9
0.95133	11
0.95500	14
0.95867	17
0.96233	17
0.96600	17
0.96967	15
0.97333	10
0.97700	10
0.98067	12
0.98433	13
0.98800	13
0.99167	12
0.99533	11
0.99900	11
1.00267	12
1.00633	13
1.01000	14
1.01367	13
1.01733	14
1.02100	11
1.02467	8
1.02833	6
1.03200	6
1.03567	8
1.03933	9
1.04300	9
1.04667	8
1.05033	7
1.05400	7
1.05767	6
1.06133	4
1.06500	2
1.06867	3
1.07233	4
1.07600	4
1.07967	7
1.08333	8
1.08700	6
1.09067	4
1.09433	3
1.09800	5
1.10167	6
1.10533	7
1.10900	6
1.11267	2
1.11633	2
1.12000	3
1.12367	2
1.12733	2
1.13100	4
1.13467	4
1.13833	2
1.14200	1
1.14567	1
1.14933	5
1.15300	8
1.15667	9
1.16033	9
1.16400	10
1.16767	11
1.17133	8
1.17500	5
1.17867	5
1.18233	6
1.18600	5
1.18967	4
1.19333	4
1.19700	5
1.20067	4
1.20433	3
1.20800	4
1.21167	6
1.21533	5
1.21900	4
1.22267	3
1.22633	2
1.23000	2
1.23367	1
1.23733	2
1.24100	3
1.24467	4
1.24833	5
1.25200	5
1.25567	5
1.25933	6
1.26300	6
1.26667	3
1.27033	-1
1.27400	-0
1.27767	2
1.28133	5
1.28500	6
1.28867	8
1.29233	8
1.29600	8
1.29967	9
1.30333	7
1.30700	4
1.31067	3
1.31433	2
1.31800	1
1.32167	4
1.32533	7
1.32900	10
1.33267	10
1.33633	9
1.34000	10
1.34367	10
1.34733	9
1.35100	8
1.35467	6
1.35833	9
1.36200	10
1.36567	9
1.36933	8
1.37300	10
1.37667	11
1.38033	10
1.38400	10
1.38767	10
1.39133	10
1.39500	8
1.39867	8
1.40233	8
1.40600	7
1.40967	8
1.41333	10
1.41700	12
1.42067	13
1.42433	12
1.42800	10
1.43167	9
1.43533	7
1.43900	5
1.44267	8
1.44633	10
1.45000	10
1.45367	11
1.45733	9
1.46100	6
1.46467	5
1.46833	5
1.47200	4
1.47567	3
1.47933	1
1.48300	0
1.48667	2
1.49033	3
1.49400	2
1.49767	1
1.50133	3
1.50500	3
1.50867	4
1.51233	6
1.51600	7
1.51967	6
1.52333	8
1.52700	10
1.53067	10
1.53433	9
1.53800	9
1.54167	9
1.54533	11
1.54900	10
1.55267	9
1.55633	8
1.56000	5
1.56367	2
1.56733	2
1.57100	2
1.57467	1
1.57833	-0
1.58200	1
1.58567	2
1.58933	2
1.59300	2
1.59667	3
1.60033	2
1.60400	5
1.60767	9
1.61133	12
1.61500	13
1.61867	15
1.62233	13
1.62600	12
1.62967	10
1.63333	10
1.63700	11
1.64067	13
1.64433	14
1.64800	15
1.65167	16
1.65533	16
1.65900	13
1.66267	11
1.66633	11
1.67000	11
1.67367	10
1.67733	11
1.68100	14
1.68467	16
1.68833	18
1.69200	21
1.69567	23
1.69933	23
1.70300	22
1.70667	24
1.71033	26
1.71400	24
1.71767	23
1.72133	24
1.72500	23
1.72867	22
1.73233	22
1.73600	23
1.73967	26
1.74333	27
1.74700	29
1.75067	28
1.75433	27
1.75800	23
1.76167	23
1.76533	25
1.76900	26
1.77267	26
1.77633	25
1.78000	24
1.78367	23
1.78733	23
1.79100	22
1.79467	24
1.79833	27
1.80200	28
1.80567	30
1.80933	31
1.81300	30
1.81667	32
1.82033	36
1.82400	36
1.82767	36
1.83133	34
1.83500	33
1.83867	34
1.84233	35
1.84600	33
1.84967	31
1.85333	30
1.85700	32
1.86067	33
1.86433	33
1.86800	35
1.87167	36
1.87533	34
1.87900	33
1.88267	32
1.88633	35
1.89000	38
1.89367	40
1.89733	39
1.90100	38
1.90467	39
1.90833	40
1.91200	40
1.91567	39
1.91933	39
1.92300	40
1.92667	41
1.93033	42
1.93400	45
1.93767	46
1.94133	43
1.94500	42
1.94867	43
1.95233	44
1.95600	45
1.95967	46
1.96333	48
1.96700	49
1.97067	50
1.97433	49
1.97800	49
1.98167	49
1.98533	48
1.98900	49
1.99267	53
1.99633	57
2.00000	60
2.00367	64
2.00733	65
2.01100	65
2.01467	63
2.01833	61
2.02200	59
2.02567	58
2.02933	60
2.03300	63
2.03667	64
2.04033	66
2.04400	69
2.04767	72
2.05133	73
2.05500	73
2.05867	73
2.06233	73
2.06600	75
2.06967	75
2.07333	76
2.07700	78
2.08067	80
2.08433	80
2.08800	81
2.09167	83
2.09533	84
2.09900	84
2.10267	80
2.10633	79
2.11000	80
2.11367	81
2.11733	80
2.12100	81
2.12467	84
2.12833	87
2.13200	91
2.13567	92
2.13933	90
2.14300	88
2.14667	87
2.15033	87
2.15400	87
2.15767	88
2.16133	91
2.16500	95
2.16867	95
2.17233	96
2.17600	97
2.17967	97
2.18333	99
2.18700	101
2.19067	103
2.19433	105
2.19800	105
2.20167	104
2.20533	104
2.20900	104
2.21267	105
2.21633	106
2.22000	107
2.22367	109
2.22733	111
2.23100	114
2.23467	116
2.23833	119
2.24200	121
2.24567	123
2.24933	123
2.25300	124
2.25667	127
2.26033	129
2.26400	130
2.26767	130
2.27133	130
2.27500	133
2.27867	133
2.28233	133
2.28600	134
2.28967	138
2.29333	142
2.29700	142
2.30067	142
2.30433	143
2.30800	146
2.31167	149
2.31533	151
2.31900	152
2.32267	152
2.32633	153
2.33000	153
2.33367	151
2.33733	152
2.34100	156
2.34467	158
2.34833	160
2.35200	162
2.35567	164
2.35933	167
2.36300	168
2.36667	169
2.37033	168
2.37400	169
2.37767	172
2.38133	177
2.38500	179
2.38867	178
2.39233	176
2.39600	175
2.39967	176
2.40333	179
2.40700	183
2.41067	186
2.41433	188
2.41800	190
2.42167	191
2.42533	192
2.42900	193
2.43267	194
2.43633	195
2.44000	197
2.44367	216
2.44733	264
2.45100	314
2.45467	345
2.45833	350
2.46200	345
2.46567	340
2.46933	332
2.47300	318
2.47667	300
2.48033	279
2.48400	262
2.48767	256
2.49133	260
2.49500	266
2.49867	277
2.50233	288
2.50600	294
2.50967	296
2.51333	292
2.51700	285
2.52067	276
2.52433	270
2.52800	266
2.53167	263
2.53533	260
2.53900	260
2.54267	263
2.54633	269
2.55000	277
2.55367	287
2.55733	293
2.56100	300
2.56467	309
2.56833	317
2.57200	325
2.57567	334
2.57933	342
2.58300	349
2.58667	356
2.59033	358
2.59400	358
2.59767	355
2.60133	350
2.60500	343
2.60867	330
2.61233	310
2.61600	282
2.61967	248
2.62333	211
2.62700	170
2.63067	126
2.63433	83
2.63800	43
2.64167	13
2.64533	-12
2.64900	-32
2.65267	-47
2.65633	-56
2.66000	-61
2.66367	-60
2.66733	-54
2.67100	-45
2.67467	-36
2.67833	-25
2.68200	-13
2.68567	-1
2.68933	12
2.69300	27
2.69667	41
2.70033	52
2.70400	64
2.70767	77
2.71133	91
2.71500	108
2.71867	122
2.72233	131
2.72600	141
2.72967	150
2.73333	161
2.73700	170
2.74067	179
2.74433	188
2.74800	196
2.75167	203
2.75533	208
2.75900	212
2.76267	218
2.76633	221
2.77000	225
2.77367	228
2.77733	231
2.78100	234
2.78467	236
2.78833	237
2.79200	238
2.79567	238
2.79933	239
2.80300	238
2.80667	238
2.81033	239
2.81400	240
2.81767	238
2.82133	236
2.82500	234
2.82867	237
2.83233	253
2.83600	296
2.83967	399
2.84333	611
2.84700	997
2.85067	1631
2.85433	2573
2.85800	3849
2.86167	5438
2.86533	7279
2.86900	9256
2.87267	11230
2.87633	13051
2.88000	14582
2.88367	15709
2.88733	16374
2.89100	16573
2.89467	16358
2.89833	15791
2.90200	14957
2.90567	13951
2.90933	12849
2.91300	11711
2.91667	10586
2.92033	9501
2.92400	8482
2.92767	7541
2.93133	6684
2.93500	5907
2.93867	5210
2.94233	4587
2.94600	4037
2.94967	3550
2.95333	3120
2.95700	2742
2.96067	2411
2.96433	2122
2.96800	1872
2.97167	1654
2.97533	1462
2.97900	1294
2.98267	1150
2.98633	1026
2.99000	920
2.99367	829
2.99733	750
3.00100	680
3.00467	618
3.00833	566
3.01200	522
3.01567	484
3.01933	451
3.02300	424
3.02667	400
3.03033	382
3.03400	365
3.03767	352
3.04133	340
3.04500	330
3.04867	321
3.05233	310
3.05600	300
3.05967	294
3.06333	286
3.06700	279
3.07067	276
3.07433	277
3.07800	274
3.08167	272
3.08533	268
3.08900	268
3.09267	266
3.09633	263
3.10000	262
3.10367	262
3.10733	262
3.11100	261
3.11467	261
3.11833	262
3.12200	262
3.12567	261
3.12933	258
3.13300	254
3.13667	249
3.14033	248
3.14400	251
3.14767	251
3.15133	252
3.15500	250
3.15867	251
3.16233	248
3.16600	246
3.16967	246
3.17333	246
3.17700	244
3.18067	243
3.18433	242
3.18800	241
3.19167	242
3.19533	242
3.19900	239
3.20267	233
3.20633	231
3.21000	227
3.21367	222
3.21733	220
3.22100	220
3.22467	220
3.22833	220
3.23200	221
3.23567	221
3.23933	219
3.24300	217
3.24667	214
3.25033	211
3.25400	208
3.25767	206
3.26133	203
3.26500	200
3.26867	198
3.27233	197
3.27600	196
3.27967	195
3.28333	194
3.28700	192
3.29067	188
3.29433	185
3.29800	182
3.30167	176
3.30533	172
3.30900	169
3.31267	166
3.31633	164
3.32000	163
3.32367	163
3.32733	162
3.33100	160
3.33467	159
3.33833	160
3.34200	159
3.34567	157
3.34933	156
3.35300	153
3.35667	149
3.36033	148
3.36400	148
3.36767	146
3.37133	145
3.37500	145
3.37867	142
3.38233	137
3.38600	136
3.38967	135
3.39333	134
3.39700	134
3.40067	132
3.40433	130
3.40800	128
3.41167	124
3.41533	122
3.41900	121
3.42267	119
3.42633	120
3.43000	120
3.43367	120
3.43733	118
3.44100	116
3.44467	115
3.44833	112
3.45200	108
3.45567	106
3.45933	103
3.46300	102
3.46667	100
3.47033	98
3.47400	98
3.47767	97
3.48133	97
3.48500	97
3.48867	97
3.49233	99
3.49600	100
3.49967	99
3.50333	99
3.50700	98
3.51067	98
3.51433	96
3.51800	94
3.52167	95
3.52533	96
3.52900	94
3.53267	93
3.53633	92
3.54000	91
3.54367	91
3.54733	89
3.55100	89
3.55467	89
3.55833	90
3.56200	92
3.56567	94
3.56933	94
3.57300	92
3.57667	92
3.58033	91
3.58400	92
3.58767	91
3.59133	89
3.59500	88
3.59867	86
3.60233	87
3.60600	90
3.60967	91
3.61333	90
3.61700	88
3.62067	87
3.62433	87
3.62800	87
3.63167	88
3.63533	89
3.63900	86
3.64267	85
3.64633	84
3.65000	86
3.65367	87
3.65733	86
3.66100	83
3.66467	82
3.66833	81
3.67200	82
3.67567	83
3.67933	83
3.68300	82
3.68667	82
3.69033	84
3.69400	85
3.69767	85
3.70133	84
3.70500	82
3.70867	79
3.71233	77
3.71600	75
3.71967	75
3.72333	73
3.72700	72
3.73067	71
3.73433	71
3.73800	69
3.74167	68
3.74533	67
3.74900	65
3.75267	65
3.75633	66
3.76000	68
3.76367	68
3.76733	68
3.77100	68
3.77467	66
3.77833	65
3.78200	66
3.78567	67
3.78933	68
3.79300	67
3.79667	65
3.80033	65
3.80400	66
3.80767	66
3.81133	66
3.81500	67
3.81867	68
3.82233	69
3.82600	69
3.82967	69
3.83333	68
3.83700	69
3.84067	68
3.84433	66
3.84800	69
3.85167	71
3.85533	70
3.85900	69
3.86267	65
3.86633	63
3.87000	64
3.87367	65
3.87733	65
3.88100	64
3.88467	62
3.88833	60
3.89200	60
3.89567	62
3.89933	67
3.90300	69
3.90667	71
3.91033	71
3.91400	70
3.91767	68
3.92133	67
3.92500	65
3.92867	63
3.93233	62
3.93600	61
3.93967	62
3.94333	63
3.94700	64
3.95067	65
3.95433	65
3.95800	65
3.96167	63
3.96533	62
3.96900	61
3.97267	62
3.97633	62
3.98000	60
3.98367	58
3.98733	61
3.99100	61
3.99467	62
3.99833	64

[Status Trace (Column Oven Temperature)]
Interval(msec)	1000
# of Points	240
Start Time(min)	0.001
End Time(min)	3.984
Intensity Units	
Intensity Multiplier	1
R.Time (min)	Intensity
0.00063	35.00
0.01730	34.99
0.03397	34.99
0.05063	34.99
0.06730	34.99
0.08397	34.99
0.10063	34.99
0.11730	34.99
0.13397	35.00
0.15063	35.01
0.16730	35.00
0.18397	35.00
0.20063	35.00
0.21730	35.00
0.23397	35.00
0.25063	34.99
0.26730	34.99
0.28397	34.99
0.30063	34.99
0.31730	34.99
0.33397	34.99
0.35063	34.99
0.36730	34.99
0.38397	34.98
0.40063	34.97
0.41730	34.98
0.43397	34.99
0.45063	34.98
0.46730	34.98
0.48397	34.99
0.50063	34.99
0.51730	34.99
0.53397	34.99
0.55063	34.99
0.56730	34.99
0.58397	34.99
0.60063	34.99
0.61730	34.98
0.63397	34.99
0.65063	35.00
0.66730	35.00
0.68397	35.00
0.70063	34.99
0.71730	35.00
0.73397	35.01
0.75063	35.01
0.76730	35.00
0.78397	35.01
0.80063	35.00
0.81730	34.99
0.83397	34.99
0.85063	35.01
0.86730	35.00
0.88397	34.99
0.90063	34.99
0.91730	34.99
0.93397	35.00
0.95063	34.99
0.96730	35.00
0.98397	35.00
1.00063	35.00
1.01730	35.00
1.03397	34.99
1.05063	34.99
1.06730	34.99
1.08397	34.98
1.10063	34.99
1.11730	34.99
1.13397	35.00
1.15063	35.00
1.16730	35.00
1.18397	35.00
1.20063	35.00
1.21730	35.01
1.23397	35.01
1.25063	35.01
1.26730	35.00
1.28397	35.00
1.30063	34.99
1.31730	34.99
1.33397	34.99
1.35063	34.99
1.36730	34.98
1.38397	34.98
1.40063	34.99
1.41730	34.99
1.43397	34.99
1.45063	34.99
1.46730	35.00
1.48397	35.00
1.50063	35.00
1.51730	35.00
1.53397	35.01
1.55063	35.00
1.56730	35.00
1.58397	35.01
1.60063	35.05
1.61730	35.13
1.63397	35.28
1.65063	35.50
1.66730	35.80
1.68397	36.17
1.70063	36.53
1.71730	36.87
1.73397	37.19
1.75063	37.52
1.76730	37.87
1.78397	38.19
1.80063	38.52
1.81730	38.85
1.83397	39.19
1.85063	39.52
1.86730	39.85
1.88397	40.17
1.90063	40.51
1.91730	40.83
1.93397	41.16
1.95063	41.49
1.96730	41.80
1.98397	42.12
2.00063	42.43
2.01730	42.76
2.03397	43.07
2.05063	43.40
2.06730	43.73
2.08397	44.06
2.10063	44.38
2.11730	44.70
2.13397	45.03
2.15063	45.36
2.16730	45.69
2.18397	46.02
2.20063	46.35
2.21730	46.68
2.23397	47.00
2.25063	47.37
2.26730	47.68
2.28397	48.02
2.30063	48.33
2.31730	48.70
2.33397	49.02
2.35063	49.31
2.36730	49.55
2.38397	49.67
2.40063	49.69
2.41730	49.68
2.43397	49.68
2.45063	49.69
2.46730	49.70
2.48397	49.73
2.50063	49.74
2.51730	49.75
2.53397	49.76
2.55063	49.78
2.56730	49.78
2.58397	49.80
2.60063	49.81
2.61730	49.81
2.63397	49.81
2.65063	49.81
2.66730	49.82
2.68397	49.83
2.70063	49.84
2.71730	49.86
2.73397	49.87
2.75063	49.86
2.76730	49.85
2.78397	49.86
2.80063	49.86
2.81730	49.87
2.83397	49.86
2.85063	49.87
2.86730	49.89
2.88397	49.89
2.90063	49.91
2.91730	49.92
2.93397	49.93
2.95063	49.94
2.96730	49.96
2.98397	49.97
3.00063	49.98
3.01730	50.00
3.03397	50.02
3.05063	50.02
3.06730	50.03
3.08397	50.03
3.10063	50.04
3.11730	50.06
3.13397	50.06
3.15063	50.06
3.16730	50.06
3.18397	50.06
3.20063	50.07
3.21730	50.07
3.23397	50.07
3.25063	50.08
3.26730	50.08
3.28397	50.08
3.30063	50.09
3.31730	50.10
3.33397	50.10
3.35063	50.10
3.36730	50.10
3.38397	50.10
3.40063	50.10
3.41730	50.10
3.43397	50.09
3.45063	50.07
3.46730	50.05
3.48397	50.05
3.50063	50.05
3.51730	50.03
3.53397	50.04
3.55063	50.03
3.56730	50.02
3.58397	50.02
3.60063	50.03
3.61730	50.03
3.63397	50.03
3.65063	50.04
3.66730	50.04
3.68397	50.05
3.70063	50.05
3.71730	50.05
3.73397	50.05
3.75063	50.06
3.76730	50.06
3.78397	50.06
3.80063	50.06
3.81730	50.05
3.83397	50.05
3.85063	50.06
3.86730	50.05
3.88397	50.06
3.90063	50.05
3.91730	50.05
3.93397	50.05
3.95063	50.05
3.96730	50.05
3.98397	50.05

[Status Trace (Injection Unit Temperature)]
Interval(msec)	1000
# of Points	240
Start Time(min)	0.001
End Time(min)	3.984
Intensity Units	
Intensity Multiplier	1
R.Time (min)	Intensity
0.00063	99.99
0.01730	99.99
0.03397	99.98
0.05063	99.99
0.06730	99.99
0.08397	99.99
0.10063	99.99
0.11730	99.99
0.13397	99.99
0.15063	99.99
0.16730	99.99
0.18397	99.99
0.20063	99.99
0.21730	99.99
0.23397	99.99
0.25063	99.99
0.26730	99.99
0.28397	99.99
0.30063	99.99
0.31730	99.99
0.33397	99.99
0.35063	99.99
0.36730	99.99
0.38397	99.99
0.40063	99.99
0.41730	99.99
0.43397	99.99
0.45063	99.99
0.46730	99.99
0.48397	99.99
0.50063	99.99
0.51730	99.99
0.53397	99.99
0.55063	99.99
0.56730	99.99
0.58397	99.99
0.60063	99.99
0.61730	99.99
0.63397	99.99
0.65063	99.99
0.66730	99.99
0.68397	99.99
0.70063	99.99
0.71730	99.99
0.73397	99.99
0.75063	99.99
0.76730	99.99
0.78397	99.99
0.80063	99.99
0.81730	99.99
0.83397	99.99
0.85063	99.99
0.86730	99.99
0.88397	99.99
0.90063	99.99
0.91730	99.99
0.93397	99.99
0.95063	99.99
0.96730	99.99
0.98397	99.99
1.00063	99.99
1.01730	99.99
1.03397	99.99
1.05063	99.99
1.06730	99.99
1.08397	99.99
1.10063	99.99
1.11730	99.99
1.13397	99.99
1.15063	99.99
1.16730	99.99
1.18397	99.99
1.20063	99.99
1.21730	99.99
1.23397	99.99
1.25063	99.99
1.26730	99.99
1.28397	99.99
1.30063	100.00
1.31730	100.00
1.33397	99.99
1.35063	99.99
1.36730	99.99
1.38397	99.99
1.40063	99.99
1.41730	99.99
1.43397	99.99
1.45063	100.00
1.46730	99.99
1.48397	99.99
1.50063	99.99
1.51730	99.99
1.53397	99.99
1.55063	99.99
1.56730	99.99
1.58397	99.99
1.60063	99.99
1.61730	99.99
1.63397	99.99
1.65063	99.99
1.66730	99.99
1.68397	99.99
1.70063	99.99
1.71730	99.99
1.73397	99.99
1.75063	99.99
1.76730	99.99
1.78397	99.99
1.80063	99.99
1.81730	99.99
1.83397	99.99
1.85063	99.99
1.86730	99.99
1.88397	99.99
1.90063	99.99
1.91730	99.99
1.93397	99.99
1.95063	99.99
1.96730	99.99
1.98397	99.99
2.00063	99.98
2.01730	99.98
2.03397	99.98
2.05063	99.98
2.06730	99.98
2.08397	99.98
2.10063	99.98
2.11730	99.98
2.13397	99.98
2.15063	99.98
2.16730	99.98
2.18397	99.98
2.20063	99.98
2.21730	99.98
2.23397	99.97
2.25063	99.98
2.26730	99.97
2.28397	99.97
2.30063	99.97
2.31730	99.97
2.33397	99.97
2.35063	99.97
2.36730	99.97
2.38397	99.97
2.40063	99.97
2.41730	99.98
2.43397	99.97
2.45063	99.97
2.46730	99.97
2.48397	99.97
2.50063	99.97
2.51730	99.97
2.53397	99.98
2.55063	99.97
2.56730	99.97
2.58397	99.98
2.60063	99.98
2.61730	99.98
2.63397	99.98
2.65063	99.98
2.66730	99.98
2.68397	99.98
2.70063	99.99
2.71730	99.99
2.73397	99.99
2.75063	99.99
2.76730	99.99
2.78397	99.99
2.80063	99.99
2.81730	100.00
2.83397	100.00
2.85063	100.00
2.86730	100.00
2.88397	100.01
2.90063	100.01
2.91730	100.01
2.93397	100.01
2.95063	100.01
2.96730	100.01
2.98397	100.02
3.00063	100.02
3.01730	100.02
3.03397	100.02
3.05063	100.02
3.06730	100.03
3.08397	100.03
3.10063	100.03
3.11730	100.03
3.13397	100.03
3.15063	100.03
3.16730	100.03
3.18397	100.03
3.20063	100.03
3.21730	100.03
3.23397	100.03
3.25063	100.03
3.26730	100.03
3.28397	100.03
3.30063	100.03
3.31730	100.04
3.33397	100.04
3.35063	100.04
3.36730	100.04
3.38397	100.04
3.40063	100.04
3.41730	100.04
3.43397	100.04
3.45063	100.04
3.46730	100.04
3.48397	100.04
3.50063	100.04
3.51730	100.05
3.53397	100.05
3.55063	100.05
3.56730	100.05
3.58397	100.04
3.60063	100.05
3.61730	100.05
3.63397	100.05
3.65063	100.05
3.66730	100.05
3.68397	100.05
3.70063	100.05
3.71730	100.05
3.73397	100.05
3.75063	100.05
3.76730	100.05
3.78397	100.05
3.80063	100.05
3.81730	100.05
3.83397	100.05
3.85063	100.05
3.86730	100.05
3.88397	100.05
3.90063	100.05
3.91730	100.05
3.93397	100.05
3.95063	100.05
3.96730	100.05
3.98397	100.04

[Status Trace (Carrier Gas Pressure)]
Interval(msec)	1000
# of Points	240
Start Time(min)	0.001
End Time(min)	3.984
Intensity Units	
Intensity Multiplier	1
R.Time (min)	Intensity
0.00063	58.00
0.01730	56.62
0.03397	55.94
0.05063	58.29
0.06730	59.90
0.08397	58.48
0.10063	57.97
0.11730	58.00
0.13397	58.01
0.15063	58.01
0.16730	58.00
0.18397	58.00
0.20063	58.00
0.21730	58.00
0.23397	58.00
0.25063	58.00
0.26730	58.00
0.28397	58.00
0.30063	58.00
0.31730	58.00
0.33397	58.00
0.35063	58.00
0.36730	58.00
0.38397	58.00
0.40063	58.00
0.41730	58.00
0.43397	58.00
0.45063	58.00
0.46730	58.00
0.48397	58.00
0.50063	58.00
0.51730	58.00
0.53397	58.00
0.55063	58.00
0.56730	58.00
0.58397	58.00
0.60063	58.00
0.61730	58.00
0.63397	58.00
0.65063	58.00
0.66730	58.00
0.68397	58.00
0.70063	58.00
0.71730	58.00
0.73397	58.00
0.75063	58.00
0.76730	58.00
0.78397	58.00
0.80063	58.00
0.81730	58.00
0.83397	58.00
0.85063	58.00
0.86730	58.00
0.88397	58.00
0.90063	58.00
0.91730	58.00
0.93397	58.00
0.95063	58.00
0.96730	58.00
0.98397	58.00
1.00063	58.00
1.01730	58.00
1.03397	58.00
1.05063	58.00
1.06730	58.00
1.08397	58.00
1.10063	58.00
1.11730	58.00
1.13397	58.00
1.15063	58.00
1.16730	58.00
1.18397	58.00
1.20063	58.00
1.21730	58.00
1.23397	58.00
1.25063	58.00
1.26730	58.00
1.28397	58.00
1.30063	58.00
1.31730	58.00
1.33397	58.00
1.35063	58.00
1.36730	58.00
1.38397	58.00
1.40063	58.00
1.41730	58.00
1.43397	58.00
1.45063	58.00
1.46730	58.00
1.48397	58.00
1.50063	58.00
1.51730	58.00
1.53397	58.00
1.55063	58.00
1.56730	58.00
1.58397	58.00
1.60063	58.00
1.61730	58.00
1.63397	58.00
1.65063	58.00
1.66730	58.01
1.68397	58.01
1.70063	58.00
1.71730	58.00
1.73397	58.00
1.75063	58.00
1.76730	58.00
1.78397	58.00
1.80063	58.00
1.81730	58.00
1.83397	58.00
1.85063	58.00
1.86730	58.00
1.88397	58.00
1.90063	58.00
1.91730	58.00
1.93397	58.00
1.95063	58.00
1.96730	58.00
1.98397	58.00
2.00063	58.00
2.01730	58.00
2.03397	58.00
2.05063	58.00
2.06730	58.00
2.08397	58.00
2.10063	58.00
2.11730	58.00
2.13397	58.00
2.15063	58.00
2.16730	58.00
2.18397	58.00
2.20063	58.00
2.21730	58.00
2.23397	58.00
2.25063	58.00
2.26730	58.00
2.28397	58.00
2.30063	58.00
2.31730	58.00
2.33397	58.00
2.35063	58.00
2.36730	58.00
2.38397	58.00
2.40063	57.99
2.41730	58.00
2.43397	58.00
2.45063	58.00
2.46730	58.00
2.48397	58.00
2.50063	58.00
2.51730	57.98
2.53397	57.99
2.55063	58.00
2.56730	58.00
2.58397	58.00
2.60063	58.00
2.61730	58.00
2.63397	58.00
2.65063	58.00
2.66730	58.00
2.68397	58.00
2.70063	58.00
2.71730	58.00
2.73397	58.00
2.75063	58.00
2.76730	58.00
2.78397	58.00
2.80063	58.00
2.81730	58.00
2.83397	58.00
2.85063	58.00
2.86730	58.00
2.88397	58.00
2.90063	58.00
2.91730	58.00
2.93397	58.00
2.95063	58.00
2.96730	58.00
2.98397	58.00
3.00063	58.00
3.01730	58.00
3.03397	58.00
3.05063	58.00
3.06730	58.00
3.08397	58.00
3.10063	58.00
3.11730	58.00
3.13397	58.00
3.15063	58.00
3.16730	58.00
3.18397	58.00
3.20063	58.00
3.21730	58.00
3.23397	58.00
3.25063	58.00
3.26730	58.00
3.28397	58.00
3.30063	58.00
3.31730	58.00
3.33397	58.00
3.35063	58.00
3.36730	58.00
3.38397	58.00
3.40063	58.00
3.41730	58.00
3.43397	58.00
3.45063	58.00
3.46730	58.00
3.48397	58.00
3.50063	58.00
3.51730	58.00
3.53397	58.00
3.55063	58.00
3.56730	58.00
3.58397	58.00
3.60063	58.00
3.61730	58.00
3.63397	58.00
3.65063	58.00
3.66730	58.00
3.68397	58.00
3.70063	58.00
3.71730	58.00
3.73397	58.00
3.75063	58.00
3.76730	58.00
3.78397	58.00
3.80063	58.00
3.81730	58.00
3.83397	58.00
3.85063	58.00
3.86730	58.00
3.88397	58.00
3.90063	58.00
3.91730	58.00
3.93397	58.00
3.95063	58.00
3.96730	58.00
3.98397	58.00

[Status Trace (Carrier Gas Flow)]
Interval(msec)	1000
# of Points	240
Start Time(min)	0.001
End Time(min)	3.984
Intensity Units	
Intensity Multiplier	1
R.Time (min)	Intensity
0.00063	34.52
0.01730	33.88
0.03397	34.54
0.05063	34.55
0.06730	34.51
0.08397	34.51
0.10063	34.52
0.11730	34.52
0.13397	34.52
0.15063	34.52
0.16730	34.52
0.18397	34.52
0.20063	34.52
0.21730	34.52
0.23397	34.52
0.25063	34.52
0.26730	34.52
0.28397	34.52
0.30063	34.52
0.31730	34.52
0.33397	34.52
0.35063	34.52
0.36730	34.52
0.38397	34.52
0.40063	34.52
0.41730	34.52
0.43397	34.52
0.45063	34.52
0.46730	34.52
0.48397	34.52
0.50063	34.52
0.51730	34.52
0.53397	34.52
0.55063	34.52
0.56730	34.52
0.58397	34.52
0.60063	34.52
0.61730	34.52
0.63397	34.52
0.65063	34.52
0.66730	34.52
0.68397	34.52
0.70063	34.52
0.71730	34.52
0.73397	34.51
0.75063	34.51
0.76730	34.51
0.78397	34.52
0.80063	34.51
0.81730	34.52
0.83397	34.52
0.85063	34.52
0.86730	34.52
0.88397	34.52
0.90063	34.52
0.91730	34.52
0.93397	34.52
0.95063	34.52
0.96730	34.52
0.98397	34.52
1.00063	34.52
1.01730	34.52
1.03397	34.52
1.05063	34.52
1.06730	34.52
1.08397	34.52
1.10063	34.52
1.11730	34.52
1.13397	34.52
1.15063	34.52
1.16730	34.52
1.18397	34.52
1.20063	34.52
1.21730	34.52
1.23397	34.52
1.25063	34.52
1.26730	34.52
1.28397	34.52
1.30063	34.52
1.31730	34.52
1.33397	34.52
1.35063	34.52
1.36730	34.52
1.38397	34.52
1.40063	34.52
1.41730	34.52
1.43397	34.52
1.45063	34.52
1.46730	34.52
1.48397	34.52
1.50063	34.52
1.51730	34.52
1.53397	34.52
1.55063	34.52
1.56730	34.52
1.58397	34.52
1.60063	34.52
1.61730	34.52
1.63397	34.52
1.65063	34.52
1.66730	34.52
1.68397	34.52
1.70063	34.52
1.71730	34.52
1.73397	34.52
1.75063	34.52
1.76730	34.51
1.78397	34.52
1.80063	34.51
1.81730	34.52
1.83397	34.52
1.85063	34.52
1.86730	34.52
1.88397	34.52
1.90063	34.52
1.91730	34.52
1.93397	34.52
1.95063	34.52
1.96730	34.51
1.98397	34.52
2.00063	34.52
2.01730	34.52
2.03397	34.52
2.05063	34.52
2.06730	34.52
2.08397	34.52
2.10063	34.52
2.11730	34.52
2.13397	34.52
2.15063	34.52
2.16730	34.52
2.18397	34.52
2.20063	34.52
2.21730	34.52
2.23397	34.52
2.25063	34.52
2.26730	34.52
2.28397	34.52
2.30063	34.52
2.31730	34.52
2.33397	34.52
2.35063	34.52
2.36730	34.52
2.38397	34.52
2.40063	34.52
2.41730	34.52
2.43397	34.52
2.45063	34.52
2.46730	34.52
2.48397	34.52
2.50063	34.52
2.51730	34.52
2.53397	34.51
2.55063	34.52
2.56730	34.52
2.58397	34.52
2.60063	34.51
2.61730	34.52
2.63397	34.52
2.65063	34.52
2.66730	34.52
2.68397	34.52
2.70063	34.52
2.71730	34.52
2.73397	34.52
2.75063	34.52
2.76730	34.52
2.78397	34.52
2.80063	34.52
2.81730	34.52
2.83397	34.52
2.85063	34.52
2.86730	34.52
2.88397	34.52
2.90063	34.52
2.91730	34.52
2.93397	34.52
2.95063	34.52
2.96730	34.52
2.98397	34.52
3.00063	34.52
3.01730	34.52
3.03397	34.52
3.05063	34.52
3.06730	34.52
3.08397	34.52
3.10063	34.52
3.11730	34.52
3.13397	34.52
3.15063	34.52
3.16730	34.52
3.18397	34.52
3.20063	34.52
3.21730	34.52
3.23397	34.52
3.25063	34.52
3.26730	34.52
3.28397	34.52
3.30063	34.52
3.31730	34.52
3.33397	34.52
3.35063	34.52
3.36730	34.52
3.38397	34.52
3.40063	34.52
3.41730	34.52
3.43397	34.52
3.45063	34.52
3.46730	34.52
3.48397	34.52
3.50063	34.51
3.51730	34.52
3.53397	34.52
3.55063	34.52
3.56730	34.52
3.58397	34.52
3.60063	34.52
3.61730	34.52
3.63397	34.52
3.65063	34.52
3.66730	34.52
3.68397	34.52
3.70063	34.52
3.71730	34.52
3.73397	34.52
3.75063	34.52
3.76730	34.52
3.78397	34.52
3.80063	34.52
3.81730	34.52
3.83397	34.52
3.85063	34.52
3.86730	34.52
3.88397	34.52
3.90063	34.52
3.91730	34.52
3.93397	34.52
3.95063	34.52
3.96730	34.52
3.98397	34.52

[Status Trace (Column Flow)]
Interval(msec)	1000
# of Points	240
Start Time(min)	0.001
End Time(min)	3.984
Intensity Units	
Intensity Multiplier	1
R.Time (min)	Intensity
0.00063	5.48
0.01730	5.32
0.03397	5.24
0.05063	5.51
0.06730	5.70
0.08397	5.54
0.10063	5.48
0.11730	5.48
0.13397	5.48
0.15063	5.48
0.16730	5.48
0.18397	5.48
0.20063	5.48
0.21730	5.48
0.23397	5.48
0.25063	5.48
0.26730	5.48
0.28397	5.48
0.30063	5.48
0.31730	5.48
0.33397	5.48
0.35063	5.48
0.36730	5.48
0.38397	5.48
0.40063	5.48
0.41730	5.48
0.43397	5.48
0.45063	5.48
0.46730	5.48
0.48397	5.48
0.50063	5.48
0.51730	5.48
0.53397	5.48
0.55063	5.48
0.56730	5.48
0.58397	5.48
0.60063	5.48
0.61730	5.48
0.63397	5.48
0.65063	5.48
0.66730	5.48
0.68397	5.48
0.70063	5.48
0.71730	5.48
0.73397	5.48
0.75063	5.48
0.76730	5.48
0.78397	5.48
0.80063	5.48
0.81730	5.48
0.83397	5.48
0.85063	5.48
0.86730	5.48
0.88397	5.48
0.90063	5.48
0.91730	5.48
0.93397	5.48
0.95063	5.48
0.96730	5.48
0.98397	5.48
1.00063	5.48
1.01730	5.48
1.03397	5.48
1.05063	5.48
1.06730	5.48
1.08397	5.48
1.10063	5.48
1.11730	5.48
1.13397	5.48
1.15063	5.48
1.16730	5.48
1.18397	5.48
1.20063	5.48
1.21730	5.48
1.23397	5.48
1.25063	5.48
1.26730	5.48
1.28397	5.48
1.30063	5.48
1.31730	5.48
1.33397	5.48
1.35063	5.48
1.36730	5.48
1.38397	5.48
1.40063	5.48
1.41730	5.48
1.43397	5.48
1.45063	5.48
1.46730	5.48
1.48397	5.48
1.50063	5.48
1.51730	5.48
1.53397	5.48
1.55063	5.48
1.56730	5.48
1.58397	5.48
1.60063	5.48
1.61730	5.48
1.63397	5.47
1.65063	5.46
1.66730	5.45
1.68397	5.44
1.70063	5.43
1.71730	5.42
1.73397	5.41
1.75063	5.40
1.76730	5.39
1.78397	5.38
1.80063	5.37
1.81730	5.36
1.83397	5.35
1.85063	5.34
1.86730	5.33
1.88397	5.32
1.90063	5.31
1.91730	5.30
1.93397	5.29
1.95063	5.28
1.96730	5.27
1.98397	5.26
2.00063	5.25
2.01730	5.24
2.03397	5.24
2.05063	5.23
2.06730	5.22
2.08397	5.21
2.10063	5.20
2.11730	5.19
2.13397	5.18
2.15063	5.17
2.16730	5.16
2.18397	5.15
2.20063	5.14
2.21730	5.13
2.23397	5.12
2.25063	5.11
2.26730	5.10
2.28397	5.09
2.30063	5.09
2.31730	5.08
2.33397	5.07
2.35063	5.06
2.36730	5.05
2.38397	5.05
2.40063	5.05
2.41730	5.05
2.43397	5.05
2.45063	5.05
2.46730	5.05
2.48397	5.05
2.50063	5.05
2.51730	5.04
2.53397	5.04
2.55063	5.05
2.56730	5.05
2.58397	5.04
2.60063	5.04
2.61730	5.04
2.63397	5.04
2.65063	5.04
2.66730	5.04
2.68397	5.04
2.70063	5.04
2.71730	5.04
2.73397	5.04
2.75063	5.04
2.76730	5.04
2.78397	5.04
2.80063	5.04
2.81730	5.04
2.83397	5.04
2.85063	5.04
2.86730	5.04
2.88397	5.04
2.90063	5.04
2.91730	5.04
2.93397	5.04
2.95063	5.04
2.96730	5.04
2.98397	5.04
3.00063	5.04
3.01730	5.04
3.03397	5.04
3.05063	5.04
3.06730	5.04
3.08397	5.04
3.10063	5.04
3.11730	5.04
3.13397	5.04
3.15063	5.04
3.16730	5.04
3.18397	5.04
3.20063	5.04
3.21730	5.04
3.23397	5.04
3.25063	5.04
3.26730	5.04
3.28397	5.04
3.30063	5.04
3.31730	5.04
3.33397	5.04
3.35063	5.04
3.36730	5.04
3.38397	5.04
3.40063	5.04
3.41730	5.04
3.43397	5.04
3.45063	5.04
3.46730	5.04
3.48397	5.04
3.50063	5.04
3.51730	5.04
3.53397	5.04
3.55063	5.04
3.56730	5.04
3.58397	5.04
3.60063	5.04
3.61730	5.04
3.63397	5.04
3.65063	5.04
3.66730	5.04
3.68397	5.04
3.70063	5.04
3.71730	5.04
3.73397	5.04
3.75063	5.04
3.76730	5.04
3.78397	5.04
3.80063	5.04
3.81730	5.04
3.83397	5.04
3.85063	5.04
3.86730	5.04
3.88397	5.04
3.90063	5.04
3.91730	5.04
3.93397	5.04
3.95063	5.04
3.96730	5.04
3.98397	5.04

[Status Trace (Linear Velocity)]
Interval(msec)	1000
# of Points	240
Start Time(min)	0.001
End Time(min)	3.984
Intensity Units	
Intensity Multiplier	1
R.Time (min)	Intensity
0.00063	39.01
0.01730	38.11
0.03397	37.66
0.05063	39.20
0.06730	40.25
0.08397	39.32
0.10063	38.99
0.11730	39.01
0.13397	39.01
0.15063	39.01
0.16730	39.01
0.18397	39.01
0.20063	39.01
0.21730	39.01
0.23397	39.01
0.25063	39.01
0.26730	39.01
0.28397	39.01
0.30063	39.01
0.31730	39.01
0.33397	39.01
0.35063	39.01
0.36730	39.01
0.38397	39.01
0.40063	39.01
0.41730	39.01
0.43397	39.01
0.45063	39.01
0.46730	39.01
0.48397	39.01
0.50063	39.01
0.51730	39.01
0.53397	39.01
0.55063	39.01
0.56730	39.01
0.58397	39.01
0.60063	39.01
0.61730	39.01
0.63397	39.01
0.65063	39.01
0.66730	39.01
0.68397	39.01
0.70063	39.01
0.71730	39.01
0.73397	39.01
0.75063	39.01
0.76730	39.01
0.78397	39.01
0.80063	39.01
0.81730	39.01
0.83397	39.01
0.85063	39.01
0.86730	39.01
0.88397	39.01
0.90063	39.01
0.91730	39.01
0.93397	39.01
0.95063	39.01
0.96730	39.01
0.98397	39.01
1.00063	39.01
1.01730	39.01
1.03397	39.01
1.05063	39.01
1.06730	39.01
1.08397	39.01
1.10063	39.01
1.11730	39.01
1.13397	39.01
1.15063	39.01
1.16730	39.01
1.18397	39.01
1.20063	39.01
1.21730	39.01
1.23397	39.01
1.25063	39.01
1.26730	39.01
1.28397	39.01
1.30063	39.01
1.31730	39.01
1.33397	39.01
1.35063	39.01
1.36730	39.01
1.38397	39.01
1.40063	39.01
1.41730	39.01
1.43397	39.01
1.45063	39.01
1.46730	39.01
1.48397	39.01
1.50063	39.01
1.51730	39.01
1.53397	39.01
1.55063	39.01
1.56730	39.01
1.58397	39.01
1.60063	39.00
1.61730	39.00
1.63397	38.98
1.65063	38.96
1.66730	38.93
1.68397	38.90
1.70063	38.86
1.71730	38.83
1.73397	38.80
1.75063	38.77
1.76730	38.74
1.78397	38.71
1.80063	38.67
1.81730	38.64
1.83397	38.61
1.85063	38.58
1.86730	38.55
1.88397	38.52
1.90063	38.48
1.91730	38.45
1.93397	38.43
1.95063	38.39
1.96730	38.36
1.98397	38.34
2.00063	38.31
2.01730	38.28
2.03397	38.25
2.05063	38.22
2.06730	38.19
2.08397	38.16
2.10063	38.13
2.11730	38.10
2.13397	38.07
2.15063	38.04
2.16730	38.01
2.18397	37.98
2.20063	37.95
2.21730	37.92
2.23397	37.89
2.25063	37.86
2.26730	37.83
2.28397	37.80
2.30063	37.77
2.31730	37.74
2.33397	37.71
2.35063	37.68
2.36730	37.66
2.38397	37.65
2.40063	37.64
2.41730	37.65
2.43397	37.65
2.45063	37.65
2.46730	37.65
2.48397	37.65
2.50063	37.64
2.51730	37.63
2.53397	37.64
2.55063	37.64
2.56730	37.64
2.58397	37.64
2.60063	37.64
2.61730	37.64
2.63397	37.64
2.65063	37.64
2.66730	37.64
2.68397	37.64
2.70063	37.64
2.71730	37.64
2.73397	37.63
2.75063	37.64
2.76730	37.64
2.78397	37.64
2.80063	37.64
2.81730	37.63
2.83397	37.63
2.85063	37.63
2.86730	37.63
2.88397	37.63
2.90063	37.63
2.91730	37.63
2.93397	37.63
2.95063	37.63
2.96730	37.63
2.98397	37.63
3.00063	37.62
3.01730	37.62
3.03397	37.62
3.05063	37.62
3.06730	37.62
3.08397	37.62
3.10063	37.62
3.11730	37.62
3.13397	37.62
3.15063	37.62
3.16730	37.62
3.18397	37.62
3.20063	37.62
3.21730	37.62
3.23397	37.62
3.25063	37.62
3.26730	37.62
3.28397	37.62
3.30063	37.62
3.31730	37.61
3.33397	37.61
3.35063	37.61
3.36730	37.61
3.38397	37.61
3.40063	37.61
3.41730	37.61
3.43397	37.62
3.45063	37.62
3.46730	37.62
3.48397	37.62
3.50063	37.62
3.51730	37.62
3.53397	37.62
3.55063	37.62
3.56730	37.62
3.58397	37.62
3.60063	37.62
3.61730	37.62
3.63397	37.62
3.65063	37.62
3.66730	37.62
3.68397	37.62
3.70063	37.62
3.71730	37.62
3.73397	37.62
3.75063	37.62
3.76730	37.62
3.78397	37.62
3.80063	37.62
3.81730	37.62
3.83397	37.62
3.85063	37.62
3.86730	37.62
3.88397	37.62
3.90063	37.62
3.91730	37.62
3.93397	37.62
3.95063	37.62
3.96730	37.62
3.98397	37.62

