[Header]
Application Name	LabSolutions
Version	5.110
Data File Name	C:\Users\User\Desktop\GC Analyses\Jack\UIC Prairie Sampling\9.30.22\220930_005.gcd
Output Date	1/4/2023
Output Time	2:28:00 PM

[File Information]
Type	Data File
Generated	11/29/2022 11:47:41 AM
Generated by	System Administrator
Modified	11/29/2022 11:51:51 AM
Modified by	System Administrator

[Sample Information]
Operator Name	System Administrator
Acquired	11/29/2022 11:47:50 AM
Sample Type	1:Standard
Level	1
Sample Name	220930_UICPrairie
Sample ID	220930_UICPrairie
ISTD Amount1	1
ISTD Amount2	1
ISTD Amount3	1
ISTD Amount4	1
ISTD Amount5	1
ISTD Amount6	1
ISTD Amount7	1
ISTD Amount8	1
ISTD Amount9	1
ISTD Amount10	1
ISTD Amount11	1
ISTD Amount12	1
ISTD Amount13	1
ISTD Amount14	1
ISTD Amount15	1
ISTD Amount16	1
ISTD Amount17	1
ISTD Amount18	1
ISTD Amount19	1
ISTD Amount20	1
ISTD Amount21	1
ISTD Amount22	1
ISTD Amount23	1
ISTD Amount24	1
ISTD Amount25	1
ISTD Amount26	1
ISTD Amount27	1
ISTD Amount28	1
ISTD Amount29	1
ISTD Amount30	1
ISTD Amount31	1
ISTD Amount32	1
Sample Amount	1
Dilution Factor	1
Vial#	1
Injection Volume	1
Injection Count	1
Bar Code	

[Original Files]
Data File	C:\Users\User\Desktop\GC Analyses\Jack\UIC Prairie Sampling\9.30.22\220930_005.gcd
Method File	C:\LabSolutions\Data\GHG_4min_2022\ghg3_togas_w_acet_4 min_new_int.gcm
Batch File	
Report Format File	c:\LabSolutions\System\DEFAULT.lsr

[File Description]


[Configuration]
Instrument Name	C0B7VH3-Instrument1
Instrument #	1
Line #	1
# of Detectors	3
Detector ID	DET#1	DET#2	DET#3
Detector Name	FID	PTCD	ECD
# of Channels	1	1	1

[Peak Table(Ch1)]
# of Peaks	3
Peak#	R.Time	I.Time	F.Time	Area	Height	A/H	Conc.	Mark	ID#	Name	k'	Plate #	Plate Ht.	Tailing	Resolution	Sep.Factor	Area Ratio	Height Ratio	Conc. %	Norm Conc.
1	1.476	1.439	1.538	10171	4437	2.292	100.000	   	1	CO	0.000	8200	18.292	1.319	0.000	0.000	0	0	16.667	16.667
2	1.571	1.538	1.633	4962	2509	1.978	100.000	 V 	2	CH4	0.065	11526	13.014	1.130	1.541	0.000	0	0	16.667	16.667
3	2.000	1.952	2.506	1832811	878916	2.085	400.000	   	3	CO2	0.355	17728	8.461	1.201	7.233	5.500	0	0	66.667	66.667

[Peak Table(Ch2)]
# of Peaks	0

[Peak Table(Ch3)]
# of Peaks	5
Peak#	R.Time	I.Time	F.Time	Area	Height	A/H	Conc.	Mark	ID#	Name	k'	Plate #	Plate Ht.	Tailing	Resolution	Sep.Factor	Area Ratio	Height Ratio	Conc. %	Norm Conc.
1	2.458	2.341	2.502	1323	319	4.152	0.000	   			0.000	5595	26.811	0.000	0.000	0.000	0	0	0.000	0.000
2	2.524	2.502	2.565	791	236	3.347	0.000	 V 			0.027	1212	123.730	0.000	0.313	0.000	0	0	0.000	0.000
3	2.609	2.565	2.653	861	233	3.701	0.000	 V 			0.061	2428	61.780	0.000	0.336	2.278	0	0	0.000	0.000
4	2.887	2.675	3.126	27637	5398	5.120	1.000	   	1	N2O	0.175	13743	10.914	0.000	1.796	2.854	0	0	50.000	50.000
5	3.170	3.126	3.874	13861	594	23.319	1.000	 V 	2	SF6	0.289	59	2541.998	0.000	0.323	1.658	0	0	50.000	50.000

[Compound Results(Ch1)]
# of IDs	6
ID#	Name	R.Time	Area	Height	Conc.	Curve	3rd	2nd	1st	Constant	Area Ratio	Height Ratio	Conc. %	Norm Conc.
1	CO	1.476	10171	4437	100.000	Linear	0.000000e+00	0.000000e+00	1.017077e+002	0.000000e+00	0	0	16.667	16.667
2	CH4	1.571	4962	2509	100.000	Linear	0.000000e+00	0.000000e+00	4.962285e+001	0.000000e+00	0	0	16.667	16.667
3	CO2	2.000	1832811	878916	400.000	Linear	0.000000e+00	0.000000e+00	4.582027e+003	0.000000e+00	0	0	66.667	66.667
4	Ethylene	0.000	0	0	0.000	Linear	0.000000e+00	0.000000e+00	0.000000e+00	0.000000e+00	0	0	0.000	0.000
5	Acetylene	0.000	0	0	0.000	Linear	0.000000e+00	0.000000e+00	0.000000e+00	0.000000e+00	0	0	0.000	0.000
6	Ethane	0.000	0	0	0.000	Linear	0.000000e+00	0.000000e+00	0.000000e+00	0.000000e+00	0	0	0.000	0.000

[Compound Results(Ch2)]
# of IDs	5
ID#	Name	R.Time	Area	Height	Conc.	Curve	3rd	2nd	1st	Constant	Area Ratio	Height Ratio	Conc. %	Norm Conc.
1	Hydrogen	0.000	0	0	0.000	Linear	0.000000e+00	0.000000e+00	0.000000e+00	0.000000e+00	0	0	0.000	0.000
2	Oxygen	0.000	0	0	0.000	Linear	0.000000e+00	0.000000e+00	0.000000e+00	0.000000e+00	0	0	0.000	0.000
3	Nitrogen	0.000	0	0	0.000	Linear	0.000000e+00	0.000000e+00	0.000000e+00	0.000000e+00	0	0	0.000	0.000
4	Methane	0.000	0	0	0.000	Linear	0.000000e+00	0.000000e+00	0.000000e+00	0.000000e+00	0	0	0.000	0.000
5	Carbon Monoxide	0.000	0	0	0.000	Linear	0.000000e+00	0.000000e+00	0.000000e+00	0.000000e+00	0	0	0.000	0.000

[Compound Results(Ch3)]
# of IDs	2
ID#	Name	R.Time	Area	Height	Conc.	Curve	3rd	2nd	1st	Constant	Area Ratio	Height Ratio	Conc. %	Norm Conc.
1	N2O	2.887	27637	5398	1.000	Linear	0.000000e+00	0.000000e+00	2.763695e+004	0.000000e+00	0	0	50.000	50.000
2	SF6	3.170	13861	594	1.000	Linear	0.000000e+00	0.000000e+00	1.386079e+004	0.000000e+00	0	0	50.000	50.000

[Group Results(Ch1)]
# of Groups	0

[Group Results(Ch2)]
# of Groups	0

[Group Results(Ch3)]
# of Groups	0

[Chromatogram (Ch1)]
Interval(msec)	220
# of Points	1091
Start Time(min)	0.002
End Time(min)	3.998
R.Time (min)	Intensity
0.00167	26
0.00533	29
0.00900	27
0.01267	24
0.01633	23
0.02000	26
0.02367	31
0.02733	33
0.03100	34
0.03467	32
0.03833	28
0.04200	20
0.04567	8
0.04933	-2
0.05300	-8
0.05667	-15
0.06033	-21
0.06400	-21
0.06767	-13
0.07133	1
0.07500	13
0.07867	18
0.08233	20
0.08600	23
0.08967	32
0.09333	41
0.09700	47
0.10067	50
0.10433	55
0.10800	61
0.11167	65
0.11533	65
0.11900	61
0.12267	56
0.12633	50
0.13000	46
0.13367	41
0.13733	40
0.14100	43
0.14467	47
0.14833	50
0.15200	49
0.15567	48
0.15933	50
0.16300	51
0.16667	48
0.17033	41
0.17400	31
0.17767	24
0.18133	19
0.18500	19
0.18867	22
0.19233	26
0.19600	28
0.19967	30
0.20333	31
0.20700	33
0.21067	35
0.21433	40
0.21800	43
0.22167	44
0.22533	44
0.22900	43
0.23267	41
0.23633	36
0.24000	31
0.24367	26
0.24733	24
0.25100	24
0.25467	29
0.25833	36
0.26200	43
0.26567	50
0.26933	56
0.27300	53
0.27667	46
0.28033	39
0.28400	33
0.28767	31
0.29133	33
0.29500	39
0.29867	42
0.30233	41
0.30600	35
0.30967	29
0.31333	26
0.31700	27
0.32067	27
0.32433	27
0.32800	29
0.33167	30
0.33533	27
0.33900	21
0.34267	15
0.34633	12
0.35000	11
0.35367	13
0.35733	18
0.36100	25
0.36467	33
0.36833	36
0.37200	33
0.37567	26
0.37933	23
0.38300	22
0.38667	23
0.39033	24
0.39400	24
0.39767	25
0.40133	28
0.40500	29
0.40867	30
0.41233	33
0.41600	36
0.41967	40
0.42333	45
0.42700	49
0.43067	48
0.43433	44
0.43800	38
0.44167	29
0.44533	21
0.44900	16
0.45267	15
0.45633	17
0.46000	21
0.46367	26
0.46733	27
0.47100	23
0.47467	18
0.47833	15
0.48200	13
0.48567	11
0.48933	10
0.49300	11
0.49667	13
0.50033	16
0.50400	20
0.50767	23
0.51133	27
0.51500	30
0.51867	35
0.52233	39
0.52600	39
0.52967	33
0.53333	20
0.53700	8
0.54067	3
0.54433	5
0.54800	9
0.55167	13
0.55533	15
0.55900	14
0.56267	13
0.56633	13
0.57000	10
0.57367	3
0.57733	-3
0.58100	-4
0.58467	-2
0.58833	2
0.59200	5
0.59567	5
0.59933	3
0.60300	-0
0.60667	-3
0.61033	-2
0.61400	3
0.61767	8
0.62133	11
0.62500	13
0.62867	17
0.63233	19
0.63600	19
0.63967	17
0.64333	14
0.64700	8
0.65067	-1
0.65433	-8
0.65800	-12
0.66167	-11
0.66533	-8
0.66900	-5
0.67267	-4
0.67633	-3
0.68000	-0
0.68367	-1
0.68733	-6
0.69100	-10
0.69467	-9
0.69833	-4
0.70200	3
0.70567	8
0.70933	13
0.71300	16
0.71667	18
0.72033	15
0.72400	10
0.72767	2
0.73133	-4
0.73500	-6
0.73867	-6
0.74233	-9
0.74600	-15
0.74967	-19
0.75333	-21
0.75700	-23
0.76067	-23
0.76433	-18
0.76800	-8
0.77167	2
0.77533	10
0.77900	12
0.78267	9
0.78633	-1
0.79000	-14
0.79367	-25
0.79733	-36
0.80100	-43
0.80467	-48
0.80833	-48
0.81200	-43
0.81567	-34
0.81933	-23
0.82300	-14
0.82667	-5
0.83033	1
0.83400	3
0.83767	3
0.84133	4
0.84500	7
0.84867	8
0.85233	3
0.85600	-7
0.85967	-15
0.86333	-21
0.86700	-26
0.87067	-31
0.87433	-35
0.87800	-33
0.88167	-31
0.88533	-28
0.88900	-24
0.89267	-20
0.89633	-15
0.90000	-10
0.90367	-10
0.90733	-14
0.91100	-17
0.91467	-19
0.91833	-21
0.92200	-26
0.92567	-30
0.92933	-33
0.93300	-36
0.93667	-38
0.94033	-40
0.94400	-40
0.94767	-34
0.95133	-24
0.95500	-18
0.95867	-18
0.96233	-22
0.96600	-28
0.96967	-30
0.97333	-29
0.97700	-24
0.98067	-20
0.98433	-19
0.98800	-20
0.99167	-24
0.99533	-30
0.99900	-34
1.00267	-33
1.00633	-25
1.01000	-14
1.01367	-8
1.01733	-6
1.02100	-5
1.02467	-8
1.02833	-14
1.03200	-21
1.03567	-26
1.03933	-30
1.04300	-33
1.04667	-34
1.05033	-33
1.05400	-31
1.05767	-29
1.06133	-29
1.06500	-28
1.06867	-27
1.07233	-26
1.07600	-29
1.07967	-32
1.08333	-30
1.08700	-25
1.09067	-23
1.09433	-27
1.09800	-32
1.10167	-34
1.10533	-34
1.10900	-33
1.11267	-37
1.11633	-45
1.12000	-54
1.12367	-60
1.12733	-61
1.13100	-58
1.13467	-54
1.13833	-51
1.14200	-50
1.14567	-46
1.14933	-37
1.15300	-30
1.15667	-27
1.16033	-26
1.16400	-27
1.16767	-28
1.17133	-29
1.17500	-29
1.17867	-28
1.18233	-28
1.18600	-32
1.18967	-36
1.19333	-37
1.19700	-37
1.20067	-37
1.20433	-38
1.20800	-40
1.21167	-40
1.21533	-40
1.21900	-45
1.22267	-49
1.22633	-52
1.23000	-51
1.23367	-48
1.23733	-49
1.24100	-53
1.24467	-59
1.24833	-65
1.25200	-68
1.25567	-71
1.25933	-72
1.26300	-76
1.26667	-78
1.27033	-77
1.27400	-72
1.27767	-69
1.28133	-69
1.28500	-72
1.28867	-75
1.29233	-76
1.29600	-74
1.29967	-71
1.30333	-67
1.30700	-64
1.31067	-63
1.31433	-60
1.31800	-55
1.32167	-48
1.32533	-41
1.32900	-40
1.33267	-44
1.33633	-47
1.34000	-45
1.34367	-43
1.34733	-42
1.35100	-46
1.35467	-53
1.35833	-58
1.36200	-64
1.36567	-70
1.36933	-68
1.37300	-63
1.37667	-60
1.38033	-62
1.38400	-67
1.38767	-71
1.39133	-72
1.39500	-74
1.39867	-71
1.40233	-65
1.40600	-56
1.40967	-46
1.41333	-42
1.41700	-42
1.42067	-44
1.42433	-51
1.42800	-61
1.43167	-67
1.43533	-69
1.43900	-56
1.44267	12
1.44633	198
1.45000	505
1.45367	958
1.45733	1606
1.46100	2378
1.46467	3125
1.46833	3737
1.47200	4164
1.47567	4379
1.47933	4351
1.48300	4068
1.48667	3570
1.49033	2955
1.49400	2330
1.49767	1771
1.50133	1313
1.50500	959
1.50867	696
1.51233	504
1.51600	362
1.51967	257
1.52333	182
1.52700	127
1.53067	88
1.53433	59
1.53800	42
1.54167	64
1.54533	188
1.54900	478
1.55267	917
1.55633	1408
1.56000	1853
1.56367	2196
1.56733	2404
1.57100	2445
1.57467	2294
1.57833	1975
1.58200	1568
1.58567	1164
1.58933	821
1.59300	556
1.59667	362
1.60033	227
1.60400	133
1.60767	64
1.61133	13
1.61500	-21
1.61867	-42
1.62233	-51
1.62600	-56
1.62967	-61
1.63333	-67
1.63700	-72
1.64067	-74
1.64433	-78
1.64800	-81
1.65167	-83
1.65533	-84
1.65900	-86
1.66267	-89
1.66633	-89
1.67000	-87
1.67367	-83
1.67733	-76
1.68100	-69
1.68467	-64
1.68833	-65
1.69200	-71
1.69567	-77
1.69933	-79
1.70300	-79
1.70667	-81
1.71033	-85
1.71400	-88
1.71767	-91
1.72133	-94
1.72500	-95
1.72867	-93
1.73233	-93
1.73600	-93
1.73967	-94
1.74333	-95
1.74700	-96
1.75067	-96
1.75433	-94
1.75800	-93
1.76167	-90
1.76533	-87
1.76900	-84
1.77267	-84
1.77633	-89
1.78000	-97
1.78367	-108
1.78733	-115
1.79100	-116
1.79467	-113
1.79833	-109
1.80200	-107
1.80567	-107
1.80933	-106
1.81300	-101
1.81667	-93
1.82033	-88
1.82400	-85
1.82767	-85
1.83133	-87
1.83500	-90
1.83867	-89
1.84233	-87
1.84600	-87
1.84967	-89
1.85333	-93
1.85700	-94
1.86067	-93
1.86433	-92
1.86800	-92
1.87167	-92
1.87533	-90
1.87900	-88
1.88267	-90
1.88633	-95
1.89000	-98
1.89367	-102
1.89733	-106
1.90100	-107
1.90467	-105
1.90833	-104
1.91200	-104
1.91567	-102
1.91933	-102
1.92300	-106
1.92667	-108
1.93033	-106
1.93400	-100
1.93767	-92
1.94133	-85
1.94500	-81
1.94867	-78
1.95233	-69
1.95600	-10
1.95967	364
1.96333	2318
1.96700	10137
1.97067	33882
1.97433	89366
1.97800	190186
1.98167	334992
1.98533	503435
1.98900	665479
1.99267	793421
1.99633	867721
2.00000	878873
2.00367	828214
2.00733	728782
2.01100	602096
2.01467	470761
2.01833	351873
2.02200	254292
2.02567	179684
2.02933	125439
2.03300	87338
2.03667	61162
2.04033	43401
2.04400	31404
2.04767	23285
2.05133	17747
2.05500	13921
2.05867	11229
2.06233	9298
2.06600	7877
2.06967	6802
2.07333	5964
2.07700	5297
2.08067	4759
2.08433	4319
2.08800	3958
2.09167	3655
2.09533	3394
2.09900	3164
2.10267	2959
2.10633	2777
2.11000	2614
2.11367	2468
2.11733	2337
2.12100	2217
2.12467	2106
2.12833	2002
2.13200	1906
2.13567	1820
2.13933	1742
2.14300	1672
2.14667	1610
2.15033	1548
2.15400	1484
2.15767	1421
2.16133	1363
2.16500	1311
2.16867	1264
2.17233	1221
2.17600	1185
2.17967	1154
2.18333	1123
2.18700	1094
2.19067	1065
2.19433	1036
2.19800	1008
2.20167	981
2.20533	954
2.20900	926
2.21267	901
2.21633	877
2.22000	852
2.22367	823
2.22733	795
2.23100	773
2.23467	753
2.23833	737
2.24200	723
2.24567	705
2.24933	684
2.25300	664
2.25667	649
2.26033	640
2.26400	634
2.26767	628
2.27133	620
2.27500	609
2.27867	596
2.28233	580
2.28600	565
2.28967	552
2.29333	541
2.29700	531
2.30067	520
2.30433	508
2.30800	500
2.31167	494
2.31533	486
2.31900	479
2.32267	473
2.32633	467
2.33000	460
2.33367	450
2.33733	440
2.34100	430
2.34467	421
2.34833	413
2.35200	406
2.35567	402
2.35933	397
2.36300	392
2.36667	386
2.37033	384
2.37400	383
2.37767	379
2.38133	373
2.38500	365
2.38867	357
2.39233	352
2.39600	350
2.39967	349
2.40333	344
2.40700	338
2.41067	332
2.41433	328
2.41800	327
2.42167	329
2.42533	332
2.42900	332
2.43267	326
2.43633	316
2.44000	304
2.44367	297
2.44733	293
2.45100	292
2.45467	290
2.45833	283
2.46200	275
2.46567	268
2.46933	263
2.47300	258
2.47667	256
2.48033	258
2.48400	257
2.48767	254
2.49133	250
2.49500	245
2.49867	242
2.50233	242
2.50600	243
2.50967	248
2.51333	250
2.51700	249
2.52067	246
2.52433	247
2.52800	250
2.53167	248
2.53533	243
2.53900	238
2.54267	233
2.54633	227
2.55000	219
2.55367	211
2.55733	206
2.56100	201
2.56467	196
2.56833	190
2.57200	187
2.57567	187
2.57933	187
2.58300	188
2.58667	190
2.59033	193
2.59400	196
2.59767	198
2.60133	198
2.60500	199
2.60867	203
2.61233	205
2.61600	204
2.61967	198
2.62333	187
2.62700	176
2.63067	168
2.63433	161
2.63800	155
2.64167	152
2.64533	151
2.64900	151
2.65267	151
2.65633	153
2.66000	157
2.66367	159
2.66733	156
2.67100	153
2.67467	154
2.67833	156
2.68200	158
2.68567	158
2.68933	159
2.69300	157
2.69667	155
2.70033	152
2.70400	149
2.70767	147
2.71133	147
2.71500	148
2.71867	150
2.72233	155
2.72600	160
2.72967	161
2.73333	161
2.73700	161
2.74067	161
2.74433	158
2.74800	152
2.75167	145
2.75533	140
2.75900	134
2.76267	125
2.76633	119
2.77000	116
2.77367	114
2.77733	111
2.78100	108
2.78467	107
2.78833	111
2.79200	120
2.79567	131
2.79933	138
2.80300	138
2.80667	133
2.81033	129
2.81400	128
2.81767	130
2.82133	131
2.82500	132
2.82867	131
2.83233	130
2.83600	128
2.83967	125
2.84333	123
2.84700	124
2.85067	122
2.85433	120
2.85800	116
2.86167	112
2.86533	112
2.86900	117
2.87267	122
2.87633	120
2.88000	115
2.88367	115
2.88733	119
2.89100	118
2.89467	111
2.89833	102
2.90200	95
2.90567	92
2.90933	96
2.91300	103
2.91667	109
2.92033	114
2.92400	114
2.92767	113
2.93133	115
2.93500	119
2.93867	122
2.94233	122
2.94600	118
2.94967	116
2.95333	116
2.95700	118
2.96067	117
2.96433	112
2.96800	104
2.97167	96
2.97533	91
2.97900	91
2.98267	94
2.98633	102
2.99000	111
2.99367	120
2.99733	129
3.00100	135
3.00467	138
3.00833	139
3.01200	138
3.01567	138
3.01933	135
3.02300	128
3.02667	123
3.03033	119
3.03400	116
3.03767	115
3.04133	118
3.04500	122
3.04867	123
3.05233	121
3.05600	120
3.05967	122
3.06333	122
3.06700	120
3.07067	116
3.07433	113
3.07800	110
3.08167	107
3.08533	104
3.08900	101
3.09267	98
3.09633	94
3.10000	90
3.10367	89
3.10733	90
3.11100	94
3.11467	96
3.11833	95
3.12200	91
3.12567	85
3.12933	77
3.13300	70
3.13667	68
3.14033	70
3.14400	72
3.14767	74
3.15133	78
3.15500	84
3.15867	91
3.16233	99
3.16600	105
3.16967	107
3.17333	106
3.17700	101
3.18067	96
3.18433	94
3.18800	95
3.19167	95
3.19533	91
3.19900	88
3.20267	89
3.20633	95
3.21000	98
3.21367	95
3.21733	89
3.22100	84
3.22467	84
3.22833	89
3.23200	92
3.23567	91
3.23933	88
3.24300	86
3.24667	84
3.25033	81
3.25400	79
3.25767	78
3.26133	80
3.26500	83
3.26867	87
3.27233	89
3.27600	86
3.27967	83
3.28333	83
3.28700	84
3.29067	83
3.29433	82
3.29800	82
3.30167	82
3.30533	82
3.30900	82
3.31267	82
3.31633	83
3.32000	86
3.32367	86
3.32733	82
3.33100	81
3.33467	84
3.33833	90
3.34200	98
3.34567	103
3.34933	104
3.35300	100
3.35667	95
3.36033	90
3.36400	84
3.36767	80
3.37133	78
3.37500	74
3.37867	68
3.38233	64
3.38600	65
3.38967	65
3.39333	63
3.39700	61
3.40067	63
3.40433	69
3.40800	76
3.41167	80
3.41533	76
3.41900	68
3.42267	59
3.42633	50
3.43000	45
3.43367	44
3.43733	45
3.44100	46
3.44467	50
3.44833	56
3.45200	62
3.45567	63
3.45933	61
3.46300	60
3.46667	60
3.47033	60
3.47400	63
3.47767	66
3.48133	70
3.48500	74
3.48867	77
3.49233	77
3.49600	74
3.49967	68
3.50333	65
3.50700	61
3.51067	55
3.51433	48
3.51800	41
3.52167	34
3.52533	29
3.52900	24
3.53267	24
3.53633	33
3.54000	45
3.54367	50
3.54733	51
3.55100	49
3.55467	48
3.55833	51
3.56200	58
3.56567	63
3.56933	66
3.57300	64
3.57667	55
3.58033	44
3.58400	36
3.58767	34
3.59133	39
3.59500	44
3.59867	43
3.60233	38
3.60600	33
3.60967	30
3.61333	30
3.61700	35
3.62067	42
3.62433	48
3.62800	51
3.63167	52
3.63533	55
3.63900	58
3.64267	59
3.64633	58
3.65000	56
3.65367	55
3.65733	55
3.66100	55
3.66467	54
3.66833	52
3.67200	49
3.67567	48
3.67933	48
3.68300	48
3.68667	48
3.69033	46
3.69400	41
3.69767	37
3.70133	34
3.70500	33
3.70867	35
3.71233	34
3.71600	31
3.71967	29
3.72333	30
3.72700	33
3.73067	37
3.73433	43
3.73800	46
3.74167	45
3.74533	40
3.74900	35
3.75267	28
3.75633	26
3.76000	28
3.76367	32
3.76733	35
3.77100	38
3.77467	43
3.77833	47
3.78200	48
3.78567	44
3.78933	36
3.79300	25
3.79667	16
3.80033	11
3.80400	9
3.80767	10
3.81133	16
3.81500	23
3.81867	26
3.82233	29
3.82600	33
3.82967	38
3.83333	39
3.83700	35
3.84067	30
3.84433	26
3.84800	24
3.85167	22
3.85533	22
3.85900	24
3.86267	28
3.86633	31
3.87000	33
3.87367	34
3.87733	33
3.88100	32
3.88467	32
3.88833	28
3.89200	23
3.89567	18
3.89933	15
3.90300	14
3.90667	16
3.91033	20
3.91400	24
3.91767	25
3.92133	25
3.92500	24
3.92867	22
3.93233	19
3.93600	16
3.93967	14
3.94333	16
3.94700	20
3.95067	20
3.95433	18
3.95800	17
3.96167	14
3.96533	11
3.96900	10
3.97267	9
3.97633	6
3.98000	3
3.98367	1
3.98733	3
3.99100	6
3.99467	10
3.99833	11

[Chromatogram (Ch2)]
Interval(msec)	220
# of Points	1091
Start Time(min)	0.002
End Time(min)	3.998
R.Time (min)	Intensity
0.00167	0
0.00533	1
0.00900	1
0.01267	1
0.01633	1
0.02000	2
0.02367	2
0.02733	2
0.03100	2
0.03467	2
0.03833	2
0.04200	2
0.04567	2
0.04933	2
0.05300	2
0.05667	2
0.06033	2
0.06400	2
0.06767	2
0.07133	2
0.07500	2
0.07867	3
0.08233	3
0.08600	3
0.08967	3
0.09333	3
0.09700	3
0.10067	3
0.10433	4
0.10800	4
0.11167	4
0.11533	4
0.11900	4
0.12267	4
0.12633	4
0.13000	4
0.13367	4
0.13733	4
0.14100	3
0.14467	3
0.14833	3
0.15200	3
0.15567	3
0.15933	3
0.16300	3
0.16667	3
0.17033	3
0.17400	3
0.17767	3
0.18133	3
0.18500	3
0.18867	3
0.19233	3
0.19600	3
0.19967	3
0.20333	3
0.20700	3
0.21067	2
0.21433	2
0.21800	2
0.22167	2
0.22533	2
0.22900	2
0.23267	2
0.23633	2
0.24000	2
0.24367	2
0.24733	2
0.25100	2
0.25467	2
0.25833	2
0.26200	2
0.26567	2
0.26933	2
0.27300	2
0.27667	2
0.28033	3
0.28400	3
0.28767	2
0.29133	2
0.29500	2
0.29867	2
0.30233	3
0.30600	3
0.30967	3
0.31333	3
0.31700	3
0.32067	3
0.32433	2
0.32800	2
0.33167	2
0.33533	2
0.33900	2
0.34267	2
0.34633	2
0.35000	1
0.35367	1
0.35733	1
0.36100	1
0.36467	1
0.36833	1
0.37200	2
0.37567	2
0.37933	2
0.38300	2
0.38667	2
0.39033	2
0.39400	2
0.39767	2
0.40133	2
0.40500	1
0.40867	1
0.41233	1
0.41600	1
0.41967	1
0.42333	1
0.42700	1
0.43067	1
0.43433	2
0.43800	2
0.44167	2
0.44533	2
0.44900	2
0.45267	2
0.45633	2
0.46000	3
0.46367	3
0.46733	3
0.47100	3
0.47467	3
0.47833	3
0.48200	3
0.48567	3
0.48933	3
0.49300	3
0.49667	3
0.50033	3
0.50400	3
0.50767	2
0.51133	2
0.51500	2
0.51867	2
0.52233	2
0.52600	2
0.52967	2
0.53333	2
0.53700	2
0.54067	2
0.54433	2
0.54800	2
0.55167	2
0.55533	1
0.55900	1
0.56267	1
0.56633	1
0.57000	1
0.57367	1
0.57733	0
0.58100	0
0.58467	1
0.58833	1
0.59200	1
0.59567	1
0.59933	1
0.60300	1
0.60667	1
0.61033	1
0.61400	1
0.61767	1
0.62133	1
0.62500	1
0.62867	2
0.63233	2
0.63600	2
0.63967	1
0.64333	1
0.64700	1
0.65067	1
0.65433	1
0.65800	2
0.66167	2
0.66533	2
0.66900	1
0.67267	1
0.67633	1
0.68000	1
0.68367	1
0.68733	1
0.69100	1
0.69467	1
0.69833	2
0.70200	2
0.70567	2
0.70933	2
0.71300	2
0.71667	2
0.72033	2
0.72400	1
0.72767	1
0.73133	1
0.73500	1
0.73867	1
0.74233	1
0.74600	1
0.74967	1
0.75333	1
0.75700	1
0.76067	1
0.76433	1
0.76800	1
0.77167	0
0.77533	0
0.77900	0
0.78267	0
0.78633	0
0.79000	0
0.79367	0
0.79733	-0
0.80100	-0
0.80467	-0
0.80833	0
0.81200	0
0.81567	-0
0.81933	-0
0.82300	-0
0.82667	-0
0.83033	-0
0.83400	-0
0.83767	-0
0.84133	-1
0.84500	-1
0.84867	-1
0.85233	-1
0.85600	-1
0.85967	-1
0.86333	-1
0.86700	-1
0.87067	-1
0.87433	-0
0.87800	0
0.88167	0
0.88533	1
0.88900	1
0.89267	1
0.89633	0
0.90000	0
0.90367	0
0.90733	0
0.91100	0
0.91467	0
0.91833	0
0.92200	-0
0.92567	0
0.92933	0
0.93300	0
0.93667	0
0.94033	0
0.94400	0
0.94767	0
0.95133	0
0.95500	0
0.95867	-0
0.96233	-0
0.96600	-0
0.96967	-0
0.97333	-0
0.97700	-0
0.98067	0
0.98433	0
0.98800	1
0.99167	1
0.99533	1
0.99900	1
1.00267	2
1.00633	2
1.01000	2
1.01367	2
1.01733	2
1.02100	1
1.02467	1
1.02833	1
1.03200	0
1.03567	0
1.03933	0
1.04300	-0
1.04667	-0
1.05033	-0
1.05400	-0
1.05767	-0
1.06133	-1
1.06500	-1
1.06867	-1
1.07233	-1
1.07600	-1
1.07967	-1
1.08333	-1
1.08700	-1
1.09067	-1
1.09433	-1
1.09800	-1
1.10167	-0
1.10533	-0
1.10900	-0
1.11267	-0
1.11633	-0
1.12000	-0
1.12367	-0
1.12733	-0
1.13100	-0
1.13467	-0
1.13833	-0
1.14200	-0
1.14567	-0
1.14933	-0
1.15300	-0
1.15667	-0
1.16033	-0
1.16400	-0
1.16767	-1
1.17133	-1
1.17500	-1
1.17867	-1
1.18233	-1
1.18600	-2
1.18967	-2
1.19333	-2
1.19700	-2
1.20067	-2
1.20433	-2
1.20800	-1
1.21167	-1
1.21533	-1
1.21900	-1
1.22267	-1
1.22633	-1
1.23000	-0
1.23367	-0
1.23733	-1
1.24100	-1
1.24467	-1
1.24833	-1
1.25200	-1
1.25567	-1
1.25933	-1
1.26300	-1
1.26667	-1
1.27033	-1
1.27400	-0
1.27767	-1
1.28133	-1
1.28500	-1
1.28867	-1
1.29233	-1
1.29600	-1
1.29967	-1
1.30333	-0
1.30700	-0
1.31067	-0
1.31433	-0
1.31800	-1
1.32167	-1
1.32533	-1
1.32900	-1
1.33267	-1
1.33633	-1
1.34000	-1
1.34367	-1
1.34733	-1
1.35100	-1
1.35467	-1
1.35833	-1
1.36200	-1
1.36567	-1
1.36933	-1
1.37300	-1
1.37667	-1
1.38033	-1
1.38400	-1
1.38767	-1
1.39133	-1
1.39500	-1
1.39867	-2
1.40233	-2
1.40600	-2
1.40967	-2
1.41333	-2
1.41700	-2
1.42067	-2
1.42433	-2
1.42800	-2
1.43167	-2
1.43533	-2
1.43900	-2
1.44267	-2
1.44633	-2
1.45000	-1
1.45367	-1
1.45733	-1
1.46100	-1
1.46467	-1
1.46833	-0
1.47200	-0
1.47567	-0
1.47933	-0
1.48300	-0
1.48667	-1
1.49033	-1
1.49400	-1
1.49767	-1
1.50133	-1
1.50500	-1
1.50867	-1
1.51233	-1
1.51600	-1
1.51967	-1
1.52333	-1
1.52700	-1
1.53067	-1
1.53433	-1
1.53800	-2
1.54167	-2
1.54533	-2
1.54900	-3
1.55267	-3
1.55633	-3
1.56000	-3
1.56367	-3
1.56733	-3
1.57100	-3
1.57467	-2
1.57833	-2
1.58200	-2
1.58567	-2
1.58933	-2
1.59300	-3
1.59667	-3
1.60033	-3
1.60400	-4
1.60767	-5
1.61133	-6
1.61500	-8
1.61867	-10
1.62233	-12
1.62600	-15
1.62967	-18
1.63333	-21
1.63700	-24
1.64067	-27
1.64433	-30
1.64800	-33
1.65167	-37
1.65533	-40
1.65900	-44
1.66267	-48
1.66633	-52
1.67000	-56
1.67367	-60
1.67733	-65
1.68100	-70
1.68467	-75
1.68833	-79
1.69200	-83
1.69567	-87
1.69933	-90
1.70300	-93
1.70667	-95
1.71033	-97
1.71400	-99
1.71767	-101
1.72133	-102
1.72500	-104
1.72867	-105
1.73233	-106
1.73600	-107
1.73967	-107
1.74333	-108
1.74700	-108
1.75067	-108
1.75433	-108
1.75800	-108
1.76167	-109
1.76533	-110
1.76900	-112
1.77267	-113
1.77633	-114
1.78000	-115
1.78367	-116
1.78733	-116
1.79100	-116
1.79467	-115
1.79833	-115
1.80200	-114
1.80567	-114
1.80933	-113
1.81300	-113
1.81667	-113
1.82033	-114
1.82400	-114
1.82767	-115
1.83133	-115
1.83500	-116
1.83867	-115
1.84233	-115
1.84600	-115
1.84967	-115
1.85333	-116
1.85700	-116
1.86067	-116
1.86433	-115
1.86800	-115
1.87167	-114
1.87533	-114
1.87900	-113
1.88267	-113
1.88633	-113
1.89000	-114
1.89367	-114
1.89733	-114
1.90100	-114
1.90467	-114
1.90833	-114
1.91200	-114
1.91567	-114
1.91933	-114
1.92300	-114
1.92667	-113
1.93033	-113
1.93400	-113
1.93767	-113
1.94133	-113
1.94500	-113
1.94867	-112
1.95233	-112
1.95600	-112
1.95967	-112
1.96333	-111
1.96700	-111
1.97067	-111
1.97433	-111
1.97800	-111
1.98167	-111
1.98533	-110
1.98900	-110
1.99267	-110
1.99633	-110
2.00000	-110
2.00367	-110
2.00733	-109
2.01100	-109
2.01467	-108
2.01833	-108
2.02200	-107
2.02567	-106
2.02933	-106
2.03300	-106
2.03667	-106
2.04033	-106
2.04400	-106
2.04767	-106
2.05133	-106
2.05500	-106
2.05867	-106
2.06233	-105
2.06600	-105
2.06967	-104
2.07333	-104
2.07700	-104
2.08067	-104
2.08433	-104
2.08800	-104
2.09167	-104
2.09533	-103
2.09900	-103
2.10267	-102
2.10633	-102
2.11000	-101
2.11367	-101
2.11733	-101
2.12100	-101
2.12467	-101
2.12833	-101
2.13200	-101
2.13567	-100
2.13933	-100
2.14300	-99
2.14667	-99
2.15033	-98
2.15400	-98
2.15767	-98
2.16133	-97
2.16500	-97
2.16867	-97
2.17233	-96
2.17600	-95
2.17967	-95
2.18333	-95
2.18700	-94
2.19067	-93
2.19433	-93
2.19800	-93
2.20167	-93
2.20533	-93
2.20900	-93
2.21267	-93
2.21633	-93
2.22000	-93
2.22367	-93
2.22733	-92
2.23100	-92
2.23467	-91
2.23833	-91
2.24200	-90
2.24567	-90
2.24933	-90
2.25300	-90
2.25667	-90
2.26033	-90
2.26400	-89
2.26767	-88
2.27133	-87
2.27500	-86
2.27867	-86
2.28233	-86
2.28600	-86
2.28967	-87
2.29333	-87
2.29700	-88
2.30067	-88
2.30433	-88
2.30800	-87
2.31167	-87
2.31533	-86
2.31900	-85
2.32267	-84
2.32633	-83
2.33000	-83
2.33367	-83
2.33733	-82
2.34100	-82
2.34467	-82
2.34833	-82
2.35200	-81
2.35567	-81
2.35933	-80
2.36300	-79
2.36667	-77
2.37033	-75
2.37400	-72
2.37767	-70
2.38133	-67
2.38500	-63
2.38867	-59
2.39233	-56
2.39600	-51
2.39967	-47
2.40333	-43
2.40700	-39
2.41067	-36
2.41433	-32
2.41800	-29
2.42167	-26
2.42533	-24
2.42900	-21
2.43267	-18
2.43633	-16
2.44000	-14
2.44367	-11
2.44733	-9
2.45100	-8
2.45467	-6
2.45833	-4
2.46200	-3
2.46567	-2
2.46933	-0
2.47300	1
2.47667	2
2.48033	2
2.48400	3
2.48767	4
2.49133	5
2.49500	7
2.49867	8
2.50233	9
2.50600	9
2.50967	10
2.51333	10
2.51700	10
2.52067	11
2.52433	11
2.52800	12
2.53167	12
2.53533	13
2.53900	14
2.54267	15
2.54633	15
2.55000	16
2.55367	16
2.55733	16
2.56100	16
2.56467	16
2.56833	15
2.57200	15
2.57567	16
2.57933	16
2.58300	16
2.58667	16
2.59033	16
2.59400	16
2.59767	15
2.60133	15
2.60500	15
2.60867	15
2.61233	16
2.61600	16
2.61967	17
2.62333	17
2.62700	18
2.63067	18
2.63433	19
2.63800	19
2.64167	20
2.64533	20
2.64900	20
2.65267	21
2.65633	21
2.66000	22
2.66367	22
2.66733	22
2.67100	23
2.67467	23
2.67833	23
2.68200	23
2.68567	23
2.68933	23
2.69300	22
2.69667	22
2.70033	22
2.70400	22
2.70767	23
2.71133	23
2.71500	24
2.71867	24
2.72233	25
2.72600	26
2.72967	26
2.73333	26
2.73700	27
2.74067	26
2.74433	26
2.74800	26
2.75167	26
2.75533	26
2.75900	26
2.76267	25
2.76633	25
2.77000	26
2.77367	26
2.77733	26
2.78100	26
2.78467	27
2.78833	27
2.79200	28
2.79567	28
2.79933	28
2.80300	29
2.80667	29
2.81033	29
2.81400	29
2.81767	28
2.82133	28
2.82500	28
2.82867	28
2.83233	28
2.83600	27
2.83967	27
2.84333	27
2.84700	27
2.85067	26
2.85433	25
2.85800	23
2.86167	19
2.86533	13
2.86900	4
2.87267	-8
2.87633	-24
2.88000	-43
2.88367	-66
2.88733	-93
2.89100	-124
2.89467	-159
2.89833	-196
2.90200	-237
2.90567	-280
2.90933	-326
2.91300	-373
2.91667	-422
2.92033	-472
2.92400	-522
2.92767	-572
2.93133	-622
2.93500	-672
2.93867	-722
2.94233	-770
2.94600	-820
2.94967	-872
2.95333	-930
2.95700	-991
2.96067	-1046
2.96433	-1083
2.96800	-1096
2.97167	-1082
2.97533	-1044
2.97900	-988
2.98267	-918
2.98633	-841
2.99000	-761
2.99367	-681
2.99733	-604
3.00100	-531
3.00467	-464
3.00833	-404
3.01200	-349
3.01567	-300
3.01933	-258
3.02300	-220
3.02667	-187
3.03033	-158
3.03400	-134
3.03767	-112
3.04133	-94
3.04500	-78
3.04867	-64
3.05233	-53
3.05600	-43
3.05967	-34
3.06333	-27
3.06700	-21
3.07067	-15
3.07433	-11
3.07800	-7
3.08167	-4
3.08533	-1
3.08900	1
3.09267	3
3.09633	5
3.10000	7
3.10367	8
3.10733	9
3.11100	10
3.11467	11
3.11833	12
3.12200	13
3.12567	14
3.12933	14
3.13300	14
3.13667	15
3.14033	15
3.14400	16
3.14767	16
3.15133	17
3.15500	17
3.15867	18
3.16233	18
3.16600	19
3.16967	19
3.17333	19
3.17700	19
3.18067	20
3.18433	20
3.18800	20
3.19167	20
3.19533	20
3.19900	20
3.20267	21
3.20633	21
3.21000	21
3.21367	21
3.21733	21
3.22100	21
3.22467	22
3.22833	22
3.23200	22
3.23567	22
3.23933	22
3.24300	22
3.24667	22
3.25033	21
3.25400	21
3.25767	21
3.26133	22
3.26500	22
3.26867	22
3.27233	22
3.27600	23
3.27967	23
3.28333	23
3.28700	24
3.29067	24
3.29433	24
3.29800	24
3.30167	24
3.30533	24
3.30900	24
3.31267	24
3.31633	24
3.32000	24
3.32367	24
3.32733	24
3.33100	25
3.33467	25
3.33833	25
3.34200	25
3.34567	26
3.34933	26
3.35300	26
3.35667	27
3.36033	27
3.36400	27
3.36767	27
3.37133	27
3.37500	27
3.37867	27
3.38233	27
3.38600	27
3.38967	27
3.39333	27
3.39700	27
3.40067	27
3.40433	27
3.40800	27
3.41167	27
3.41533	27
3.41900	27
3.42267	27
3.42633	27
3.43000	27
3.43367	27
3.43733	27
3.44100	27
3.44467	27
3.44833	27
3.45200	27
3.45567	27
3.45933	27
3.46300	27
3.46667	27
3.47033	28
3.47400	28
3.47767	28
3.48133	28
3.48500	28
3.48867	28
3.49233	27
3.49600	27
3.49967	27
3.50333	27
3.50700	27
3.51067	27
3.51433	27
3.51800	27
3.52167	27
3.52533	27
3.52900	27
3.53267	26
3.53633	26
3.54000	26
3.54367	26
3.54733	26
3.55100	27
3.55467	27
3.55833	27
3.56200	27
3.56567	27
3.56933	27
3.57300	27
3.57667	27
3.58033	27
3.58400	27
3.58767	27
3.59133	27
3.59500	27
3.59867	27
3.60233	27
3.60600	27
3.60967	27
3.61333	27
3.61700	27
3.62067	27
3.62433	27
3.62800	27
3.63167	27
3.63533	27
3.63900	27
3.64267	27
3.64633	27
3.65000	27
3.65367	27
3.65733	27
3.66100	28
3.66467	28
3.66833	28
3.67200	28
3.67567	28
3.67933	28
3.68300	28
3.68667	28
3.69033	27
3.69400	27
3.69767	27
3.70133	27
3.70500	27
3.70867	27
3.71233	27
3.71600	27
3.71967	27
3.72333	27
3.72700	27
3.73067	27
3.73433	27
3.73800	28
3.74167	28
3.74533	28
3.74900	28
3.75267	28
3.75633	27
3.76000	27
3.76367	27
3.76733	27
3.77100	27
3.77467	27
3.77833	27
3.78200	27
3.78567	27
3.78933	27
3.79300	27
3.79667	27
3.80033	27
3.80400	27
3.80767	27
3.81133	28
3.81500	28
3.81867	28
3.82233	28
3.82600	28
3.82967	28
3.83333	28
3.83700	28
3.84067	28
3.84433	28
3.84800	28
3.85167	27
3.85533	27
3.85900	27
3.86267	27
3.86633	27
3.87000	27
3.87367	27
3.87733	28
3.88100	28
3.88467	28
3.88833	28
3.89200	28
3.89567	27
3.89933	27
3.90300	27
3.90667	27
3.91033	27
3.91400	27
3.91767	27
3.92133	27
3.92500	27
3.92867	27
3.93233	27
3.93600	27
3.93967	27
3.94333	27
3.94700	27
3.95067	27
3.95433	27
3.95800	27
3.96167	27
3.96533	27
3.96900	27
3.97267	27
3.97633	27
3.98000	27
3.98367	27
3.98733	27
3.99100	27
3.99467	27
3.99833	27

[Chromatogram (Ch3)]
Interval(msec)	220
# of Points	1091
Start Time(min)	0.002
End Time(min)	3.998
R.Time (min)	Intensity
0.00167	0
0.00533	-1
0.00900	-0
0.01267	2
0.01633	3
0.02000	6
0.02367	8
0.02733	10
0.03100	12
0.03467	12
0.03833	11
0.04200	12
0.04567	13
0.04933	13
0.05300	14
0.05667	15
0.06033	13
0.06400	12
0.06767	13
0.07133	14
0.07500	14
0.07867	14
0.08233	13
0.08600	10
0.08967	7
0.09333	3
0.09700	1
0.10067	-0
0.10433	-0
0.10800	-1
0.11167	-0
0.11533	3
0.11900	7
0.12267	10
0.12633	11
0.13000	11
0.13367	12
0.13733	14
0.14100	12
0.14467	11
0.14833	10
0.15200	9
0.15567	8
0.15933	8
0.16300	9
0.16667	10
0.17033	10
0.17400	8
0.17767	9
0.18133	10
0.18500	10
0.18867	9
0.19233	10
0.19600	9
0.19967	6
0.20333	5
0.20700	4
0.21067	4
0.21433	3
0.21800	3
0.22167	5
0.22533	8
0.22900	10
0.23267	11
0.23633	10
0.24000	10
0.24367	10
0.24733	12
0.25100	16
0.25467	16
0.25833	15
0.26200	16
0.26567	16
0.26933	17
0.27300	16
0.27667	15
0.28033	14
0.28400	16
0.28767	16
0.29133	15
0.29500	13
0.29867	11
0.30233	12
0.30600	15
0.30967	18
0.31333	22
0.31700	24
0.32067	25
0.32433	25
0.32800	24
0.33167	23
0.33533	22
0.33900	23
0.34267	23
0.34633	23
0.35000	23
0.35367	23
0.35733	23
0.36100	20
0.36467	18
0.36833	18
0.37200	19
0.37567	21
0.37933	23
0.38300	25
0.38667	28
0.39033	28
0.39400	28
0.39767	27
0.40133	25
0.40500	23
0.40867	22
0.41233	24
0.41600	23
0.41967	23
0.42333	23
0.42700	24
0.43067	27
0.43433	29
0.43800	28
0.44167	30
0.44533	33
0.44900	31
0.45267	29
0.45633	28
0.46000	28
0.46367	29
0.46733	31
0.47100	32
0.47467	31
0.47833	30
0.48200	29
0.48567	29
0.48933	31
0.49300	33
0.49667	35
0.50033	35
0.50400	34
0.50767	33
0.51133	32
0.51500	30
0.51867	28
0.52233	28
0.52600	29
0.52967	29
0.53333	31
0.53700	33
0.54067	33
0.54433	33
0.54800	35
0.55167	38
0.55533	39
0.55900	41
0.56267	41
0.56633	39
0.57000	36
0.57367	35
0.57733	36
0.58100	37
0.58467	37
0.58833	36
0.59200	34
0.59567	32
0.59933	32
0.60300	32
0.60667	33
0.61033	36
0.61400	39
0.61767	40
0.62133	40
0.62500	39
0.62867	40
0.63233	39
0.63600	38
0.63967	36
0.64333	34
0.64700	35
0.65067	38
0.65433	37
0.65800	35
0.66167	35
0.66533	35
0.66900	36
0.67267	35
0.67633	35
0.68000	35
0.68367	37
0.68733	38
0.69100	37
0.69467	37
0.69833	37
0.70200	37
0.70567	36
0.70933	37
0.71300	40
0.71667	42
0.72033	45
0.72400	43
0.72767	42
0.73133	41
0.73500	39
0.73867	39
0.74233	39
0.74600	40
0.74967	39
0.75333	37
0.75700	37
0.76067	38
0.76433	39
0.76800	40
0.77167	40
0.77533	43
0.77900	46
0.78267	44
0.78633	42
0.79000	42
0.79367	42
0.79733	42
0.80100	42
0.80467	42
0.80833	43
0.81200	43
0.81567	42
0.81933	42
0.82300	42
0.82667	41
0.83033	41
0.83400	42
0.83767	43
0.84133	46
0.84500	47
0.84867	45
0.85233	44
0.85600	45
0.85967	45
0.86333	46
0.86700	46
0.87067	48
0.87433	49
0.87800	47
0.88167	46
0.88533	45
0.88900	44
0.89267	46
0.89633	49
0.90000	51
0.90367	50
0.90733	46
0.91100	44
0.91467	42
0.91833	41
0.92200	41
0.92567	42
0.92933	44
0.93300	46
0.93667	47
0.94033	49
0.94400	50
0.94767	49
0.95133	48
0.95500	49
0.95867	49
0.96233	46
0.96600	43
0.96967	42
0.97333	42
0.97700	43
0.98067	43
0.98433	44
0.98800	47
0.99167	50
0.99533	53
0.99900	54
1.00267	52
1.00633	50
1.01000	50
1.01367	50
1.01733	49
1.02100	47
1.02467	47
1.02833	47
1.03200	45
1.03567	44
1.03933	45
1.04300	46
1.04667	47
1.05033	47
1.05400	44
1.05767	44
1.06133	44
1.06500	45
1.06867	44
1.07233	47
1.07600	49
1.07967	49
1.08333	49
1.08700	45
1.09067	41
1.09433	40
1.09800	41
1.10167	42
1.10533	41
1.10900	39
1.11267	38
1.11633	40
1.12000	43
1.12367	46
1.12733	47
1.13100	49
1.13467	51
1.13833	48
1.14200	46
1.14567	45
1.14933	42
1.15300	41
1.15667	41
1.16033	44
1.16400	47
1.16767	49
1.17133	51
1.17500	52
1.17867	53
1.18233	50
1.18600	50
1.18967	51
1.19333	50
1.19700	49
1.20067	50
1.20433	49
1.20800	50
1.21167	50
1.21533	49
1.21900	46
1.22267	45
1.22633	44
1.23000	44
1.23367	47
1.23733	50
1.24100	53
1.24467	55
1.24833	56
1.25200	58
1.25567	56
1.25933	55
1.26300	54
1.26667	55
1.27033	53
1.27400	52
1.27767	55
1.28133	57
1.28500	59
1.28867	59
1.29233	58
1.29600	57
1.29967	58
1.30333	58
1.30700	58
1.31067	57
1.31433	54
1.31800	52
1.32167	53
1.32533	56
1.32900	57
1.33267	59
1.33633	62
1.34000	64
1.34367	63
1.34733	61
1.35100	62
1.35467	62
1.35833	63
1.36200	64
1.36567	65
1.36933	63
1.37300	59
1.37667	56
1.38033	56
1.38400	56
1.38767	57
1.39133	56
1.39500	56
1.39867	59
1.40233	60
1.40600	62
1.40967	63
1.41333	62
1.41700	63
1.42067	61
1.42433	61
1.42800	63
1.43167	64
1.43533	63
1.43900	61
1.44267	62
1.44633	62
1.45000	62
1.45367	62
1.45733	61
1.46100	60
1.46467	58
1.46833	58
1.47200	59
1.47567	58
1.47933	59
1.48300	61
1.48667	60
1.49033	60
1.49400	59
1.49767	58
1.50133	58
1.50500	59
1.50867	61
1.51233	64
1.51600	66
1.51967	66
1.52333	67
1.52700	64
1.53067	64
1.53433	63
1.53800	60
1.54167	56
1.54533	56
1.54900	56
1.55267	56
1.55633	57
1.56000	58
1.56367	58
1.56733	57
1.57100	55
1.57467	56
1.57833	58
1.58200	57
1.58567	55
1.58933	54
1.59300	52
1.59667	51
1.60033	52
1.60400	54
1.60767	55
1.61133	54
1.61500	54
1.61867	55
1.62233	56
1.62600	56
1.62967	56
1.63333	59
1.63700	63
1.64067	66
1.64433	66
1.64800	67
1.65167	68
1.65533	68
1.65900	67
1.66267	66
1.66633	65
1.67000	63
1.67367	62
1.67733	63
1.68100	65
1.68467	67
1.68833	66
1.69200	66
1.69567	68
1.69933	70
1.70300	68
1.70667	68
1.71033	68
1.71400	67
1.71767	68
1.72133	69
1.72500	69
1.72867	71
1.73233	73
1.73600	75
1.73967	75
1.74333	76
1.74700	79
1.75067	80
1.75433	79
1.75800	78
1.76167	78
1.76533	78
1.76900	78
1.77267	78
1.77633	79
1.78000	78
1.78367	79
1.78733	81
1.79100	85
1.79467	85
1.79833	84
1.80200	84
1.80567	82
1.80933	81
1.81300	81
1.81667	80
1.82033	80
1.82400	79
1.82767	79
1.83133	82
1.83500	83
1.83867	85
1.84233	87
1.84600	88
1.84967	88
1.85333	85
1.85700	84
1.86067	84
1.86433	85
1.86800	83
1.87167	83
1.87533	84
1.87900	83
1.88267	82
1.88633	84
1.89000	86
1.89367	88
1.89733	89
1.90100	89
1.90467	89
1.90833	92
1.91200	95
1.91567	96
1.91933	93
1.92300	91
1.92667	90
1.93033	90
1.93400	91
1.93767	91
1.94133	89
1.94500	89
1.94867	91
1.95233	91
1.95600	90
1.95967	92
1.96333	92
1.96700	92
1.97067	94
1.97433	93
1.97800	92
1.98167	92
1.98533	92
1.98900	92
1.99267	93
1.99633	95
2.00000	96
2.00367	97
2.00733	98
2.01100	99
2.01467	100
2.01833	102
2.02200	103
2.02567	102
2.02933	102
2.03300	103
2.03667	105
2.04033	108
2.04400	111
2.04767	111
2.05133	110
2.05500	108
2.05867	107
2.06233	109
2.06600	112
2.06967	112
2.07333	112
2.07700	114
2.08067	118
2.08433	120
2.08800	120
2.09167	119
2.09533	118
2.09900	117
2.10267	117
2.10633	118
2.11000	118
2.11367	120
2.11733	121
2.12100	122
2.12467	122
2.12833	123
2.13200	123
2.13567	123
2.13933	122
2.14300	123
2.14667	125
2.15033	125
2.15400	126
2.15767	128
2.16133	130
2.16500	131
2.16867	131
2.17233	132
2.17600	133
2.17967	133
2.18333	136
2.18700	138
2.19067	139
2.19433	140
2.19800	141
2.20167	141
2.20533	140
2.20900	140
2.21267	142
2.21633	145
2.22000	145
2.22367	145
2.22733	147
2.23100	149
2.23467	150
2.23833	150
2.24200	151
2.24567	152
2.24933	153
2.25300	153
2.25667	153
2.26033	153
2.26400	155
2.26767	158
2.27133	156
2.27500	156
2.27867	158
2.28233	161
2.28600	161
2.28967	160
2.29333	160
2.29700	159
2.30067	161
2.30433	164
2.30800	167
2.31167	169
2.31533	172
2.31900	174
2.32267	175
2.32633	176
2.33000	176
2.33367	177
2.33733	176
2.34100	176
2.34467	176
2.34833	177
2.35200	179
2.35567	181
2.35933	179
2.36300	179
2.36667	182
2.37033	183
2.37400	181
2.37767	182
2.38133	183
2.38500	183
2.38867	182
2.39233	182
2.39600	184
2.39967	189
2.40333	192
2.40700	193
2.41067	194
2.41433	195
2.41800	197
2.42167	198
2.42533	200
2.42900	204
2.43267	206
2.43633	206
2.44000	205
2.44367	223
2.44733	272
2.45100	327
2.45467	365
2.45833	373
2.46200	363
2.46567	349
2.46933	341
2.47300	332
2.47667	318
2.48033	299
2.48400	278
2.48767	258
2.49133	242
2.49500	231
2.49867	221
2.50233	216
2.50600	214
2.50967	215
2.51333	217
2.51700	223
2.52067	225
2.52433	222
2.52800	215
2.53167	205
2.53533	192
2.53900	179
2.54267	168
2.54633	157
2.55000	150
2.55367	147
2.55733	143
2.56100	139
2.56467	136
2.56833	133
2.57200	130
2.57567	128
2.57933	126
2.58300	124
2.58667	125
2.59033	127
2.59400	129
2.59767	132
2.60133	134
2.60500	134
2.60867	130
2.61233	122
2.61600	106
2.61967	82
2.62333	53
2.62700	22
2.63067	-10
2.63433	-42
2.63800	-72
2.64167	-97
2.64533	-119
2.64900	-135
2.65267	-148
2.65633	-158
2.66000	-161
2.66367	-162
2.66733	-161
2.67100	-159
2.67467	-156
2.67833	-150
2.68200	-145
2.68567	-136
2.68933	-128
2.69300	-121
2.69667	-114
2.70033	-106
2.70400	-96
2.70767	-85
2.71133	-75
2.71500	-67
2.71867	-61
2.72233	-57
2.72600	-52
2.72967	-46
2.73333	-42
2.73700	-36
2.74067	-33
2.74433	-28
2.74800	-21
2.75167	-14
2.75533	-10
2.75900	-5
2.76267	-1
2.76633	5
2.77000	11
2.77367	17
2.77733	17
2.78100	19
2.78467	22
2.78833	22
2.79200	24
2.79567	24
2.79933	24
2.80300	27
2.80667	32
2.81033	38
2.81400	42
2.81767	44
2.82133	48
2.82500	53
2.82867	63
2.83233	78
2.83600	109
2.83967	168
2.84333	277
2.84700	458
2.85067	739
2.85433	1135
2.85800	1644
2.86167	2248
2.86533	2907
2.86900	3572
2.87267	4186
2.87633	4699
2.88000	5072
2.88367	5273
2.88733	5315
2.89100	5233
2.89467	5046
2.89833	4754
2.90200	4378
2.90567	3957
2.90933	3533
2.91300	3133
2.91667	2771
2.92033	2458
2.92400	2193
2.92767	1970
2.93133	1781
2.93500	1621
2.93867	1483
2.94233	1363
2.94600	1258
2.94967	1167
2.95333	1088
2.95700	1018
2.96067	958
2.96433	905
2.96800	857
2.97167	816
2.97533	782
2.97900	752
2.98267	728
2.98633	708
2.99000	688
2.99367	670
2.99733	658
3.00100	647
3.00467	638
3.00833	629
3.01200	623
3.01567	618
3.01933	614
3.02300	609
3.02667	608
3.03033	605
3.03400	601
3.03767	599
3.04133	596
3.04500	592
3.04867	591
3.05233	592
3.05600	592
3.05967	590
3.06333	589
3.06700	588
3.07067	585
3.07433	583
3.07800	582
3.08167	582
3.08533	580
3.08900	579
3.09267	578
3.09633	578
3.10000	578
3.10367	579
3.10733	578
3.11100	578
3.11467	577
3.11833	577
3.12200	577
3.12567	576
3.12933	576
3.13300	579
3.13667	585
3.14033	589
3.14400	593
3.14767	594
3.15133	595
3.15500	598
3.15867	599
3.16233	600
3.16600	605
3.16967	608
3.17333	607
3.17700	605
3.18067	605
3.18433	606
3.18800	609
3.19167	611
3.19533	611
3.19900	613
3.20267	615
3.20633	615
3.21000	614
3.21367	616
3.21733	619
3.22100	622
3.22467	623
3.22833	621
3.23200	620
3.23567	620
3.23933	619
3.24300	618
3.24667	618
3.25033	617
3.25400	615
3.25767	614
3.26133	613
3.26500	612
3.26867	611
3.27233	611
3.27600	609
3.27967	604
3.28333	602
3.28700	602
3.29067	600
3.29433	595
3.29800	590
3.30167	586
3.30533	584
3.30900	578
3.31267	573
3.31633	570
3.32000	568
3.32367	564
3.32733	559
3.33100	554
3.33467	549
3.33833	544
3.34200	540
3.34567	537
3.34933	535
3.35300	534
3.35667	531
3.36033	528
3.36400	525
3.36767	522
3.37133	519
3.37500	513
3.37867	510
3.38233	508
3.38600	506
3.38967	503
3.39333	498
3.39700	494
3.40067	489
3.40433	485
3.40800	483
3.41167	481
3.41533	478
3.41900	477
3.42267	475
3.42633	472
3.43000	469
3.43367	468
3.43733	466
3.44100	464
3.44467	462
3.44833	460
3.45200	455
3.45567	449
3.45933	445
3.46300	442
3.46667	440
3.47033	439
3.47400	438
3.47767	436
3.48133	432
3.48500	426
3.48867	422
3.49233	417
3.49600	416
3.49967	417
3.50333	415
3.50700	412
3.51067	412
3.51433	412
3.51800	410
3.52167	407
3.52533	404
3.52900	400
3.53267	398
3.53633	397
3.54000	394
3.54367	389
3.54733	385
3.55100	382
3.55467	380
3.55833	378
3.56200	375
3.56567	372
3.56933	371
3.57300	371
3.57667	369
3.58033	367
3.58400	364
3.58767	362
3.59133	359
3.59500	357
3.59867	355
3.60233	355
3.60600	355
3.60967	352
3.61333	349
3.61700	347
3.62067	345
3.62433	342
3.62800	341
3.63167	339
3.63533	336
3.63900	334
3.64267	333
3.64633	332
3.65000	332
3.65367	332
3.65733	330
3.66100	327
3.66467	324
3.66833	324
3.67200	322
3.67567	319
3.67933	317
3.68300	317
3.68667	316
3.69033	316
3.69400	315
3.69767	312
3.70133	311
3.70500	310
3.70867	307
3.71233	306
3.71600	306
3.71967	303
3.72333	301
3.72700	298
3.73067	296
3.73433	294
3.73800	292
3.74167	292
3.74533	290
3.74900	290
3.75267	291
3.75633	289
3.76000	288
3.76367	287
3.76733	287
3.77100	284
3.77467	281
3.77833	280
3.78200	277
3.78567	275
3.78933	274
3.79300	274
3.79667	273
3.80033	272
3.80400	272
3.80767	271
3.81133	269
3.81500	267
3.81867	266
3.82233	268
3.82600	269
3.82967	267
3.83333	265
3.83700	263
3.84067	264
3.84433	263
3.84800	261
3.85167	261
3.85533	261
3.85900	262
3.86267	261
3.86633	258
3.87000	256
3.87367	254
3.87733	253
3.88100	253
3.88467	253
3.88833	253
3.89200	253
3.89567	251
3.89933	249
3.90300	248
3.90667	247
3.91033	245
3.91400	241
3.91767	238
3.92133	238
3.92500	238
3.92867	238
3.93233	241
3.93600	241
3.93967	240
3.94333	238
3.94700	237
3.95067	235
3.95433	235
3.95800	235
3.96167	235
3.96533	236
3.96900	235
3.97267	232
3.97633	229
3.98000	229
3.98367	230
3.98733	229
3.99100	228
3.99467	226
3.99833	225

[Status Trace (Column Oven Temperature)]
Interval(msec)	1000
# of Points	240
Start Time(min)	0.009
End Time(min)	3.992
Intensity Units	
Intensity Multiplier	1
R.Time (min)	Intensity
0.00898	35.05
0.02565	35.05
0.04232	35.05
0.05898	35.04
0.07565	35.04
0.09232	35.03
0.10898	35.04
0.12565	35.04
0.14232	35.03
0.15898	35.03
0.17565	35.03
0.19232	35.02
0.20898	35.00
0.22565	35.01
0.24232	35.00
0.25898	35.00
0.27565	35.00
0.29232	34.99
0.30898	34.99
0.32565	35.00
0.34232	35.00
0.35898	35.00
0.37565	35.00
0.39232	35.00
0.40898	35.00
0.42565	35.01
0.44232	35.01
0.45898	35.01
0.47565	35.01
0.49232	35.01
0.50898	35.01
0.52565	35.00
0.54232	35.00
0.55898	35.00
0.57565	34.99
0.59232	34.99
0.60898	35.00
0.62565	35.00
0.64232	35.01
0.65898	35.00
0.67565	35.00
0.69232	35.00
0.70898	35.01
0.72565	35.00
0.74232	34.99
0.75898	34.99
0.77565	34.99
0.79232	35.00
0.80898	35.01
0.82565	35.01
0.84232	35.01
0.85898	35.01
0.87565	35.00
0.89232	35.00
0.90898	35.00
0.92565	35.01
0.94232	35.01
0.95898	35.01
0.97565	35.00
0.99232	35.00
1.00898	34.99
1.02565	34.99
1.04232	34.99
1.05898	35.00
1.07565	34.99
1.09232	34.99
1.10898	34.99
1.12565	34.99
1.14232	34.99
1.15898	34.99
1.17565	35.00
1.19232	35.00
1.20898	35.00
1.22565	35.00
1.24232	35.00
1.25898	35.00
1.27565	35.00
1.29232	35.00
1.30898	34.99
1.32565	34.99
1.34232	34.99
1.35898	34.99
1.37565	34.99
1.39232	35.00
1.40898	35.00
1.42565	35.00
1.44232	35.00
1.45898	35.00
1.47565	34.99
1.49232	34.98
1.50898	34.98
1.52565	35.00
1.54232	35.00
1.55898	35.01
1.57565	35.02
1.59232	35.04
1.60898	35.10
1.62565	35.22
1.64232	35.40
1.65898	35.64
1.67565	35.97
1.69232	36.34
1.70898	36.69
1.72565	37.05
1.74232	37.37
1.75898	37.70
1.77565	38.04
1.79232	38.36
1.80898	38.68
1.82565	39.02
1.84232	39.35
1.85898	39.67
1.87565	39.99
1.89232	40.33
1.90898	40.66
1.92565	40.98
1.94232	41.30
1.95898	41.62
1.97565	41.96
1.99232	42.27
2.00898	42.59
2.02565	42.91
2.04232	43.23
2.05898	43.57
2.07565	43.89
2.09232	44.23
2.10898	44.54
2.12565	44.89
2.14232	45.21
2.15898	45.54
2.17565	45.86
2.19232	46.21
2.20898	46.53
2.22565	46.85
2.24232	47.18
2.25898	47.52
2.27565	47.83
2.29232	48.21
2.30898	48.53
2.32565	48.84
2.34232	49.19
2.35898	49.45
2.37565	49.60
2.39232	49.62
2.40898	49.62
2.42565	49.62
2.44232	49.64
2.45898	49.65
2.47565	49.67
2.49232	49.68
2.50898	49.70
2.52565	49.72
2.54232	49.72
2.55898	49.77
2.57565	49.78
2.59232	49.81
2.60898	49.81
2.62565	49.82
2.64232	49.83
2.65898	49.83
2.67565	49.84
2.69232	49.85
2.70898	49.85
2.72565	49.84
2.74232	49.85
2.75898	49.87
2.77565	49.87
2.79232	49.85
2.80898	49.85
2.82565	49.86
2.84232	49.87
2.85898	49.88
2.87565	49.89
2.89232	49.89
2.90898	49.90
2.92565	49.91
2.94232	49.93
2.95898	49.94
2.97565	49.95
2.99232	49.96
3.00898	49.98
3.02565	49.99
3.04232	50.00
3.05898	49.99
3.07565	50.00
3.09232	50.00
3.10898	50.01
3.12565	50.01
3.14232	50.02
3.15898	50.02
3.17565	50.03
3.19232	50.04
3.20898	50.05
3.22565	50.06
3.24232	50.08
3.25898	50.09
3.27565	50.09
3.29232	50.10
3.30898	50.10
3.32565	50.10
3.34232	50.09
3.35898	50.09
3.37565	50.08
3.39232	50.08
3.40898	50.08
3.42565	50.08
3.44232	50.07
3.45898	50.08
3.47565	50.08
3.49232	50.09
3.50898	50.09
3.52565	50.09
3.54232	50.09
3.55898	50.08
3.57565	50.08
3.59232	50.08
3.60898	50.08
3.62565	50.08
3.64232	50.09
3.65898	50.09
3.67565	50.09
3.69232	50.09
3.70898	50.09
3.72565	50.09
3.74232	50.09
3.75898	50.09
3.77565	50.09
3.79232	50.10
3.80898	50.09
3.82565	50.09
3.84232	50.08
3.85898	50.08
3.87565	50.08
3.89232	50.07
3.90898	50.08
3.92565	50.08
3.94232	50.08
3.95898	50.08
3.97565	50.08
3.99232	50.08

[Status Trace (Injection Unit Temperature)]
Interval(msec)	1000
# of Points	240
Start Time(min)	0.009
End Time(min)	3.992
Intensity Units	
Intensity Multiplier	1
R.Time (min)	Intensity
0.00898	99.98
0.02565	99.98
0.04232	99.98
0.05898	99.98
0.07565	99.98
0.09232	99.98
0.10898	99.98
0.12565	99.98
0.14232	99.98
0.15898	99.98
0.17565	99.98
0.19232	99.98
0.20898	99.98
0.22565	99.98
0.24232	99.98
0.25898	99.98
0.27565	99.98
0.29232	99.98
0.30898	99.98
0.32565	99.98
0.34232	99.98
0.35898	99.98
0.37565	99.99
0.39232	99.98
0.40898	99.98
0.42565	99.98
0.44232	99.98
0.45898	99.98
0.47565	99.98
0.49232	99.98
0.50898	99.98
0.52565	99.98
0.54232	99.98
0.55898	99.98
0.57565	99.98
0.59232	99.98
0.60898	99.98
0.62565	99.98
0.64232	99.98
0.65898	99.98
0.67565	99.98
0.69232	99.98
0.70898	99.98
0.72565	99.98
0.74232	99.98
0.75898	99.98
0.77565	99.98
0.79232	99.98
0.80898	99.98
0.82565	99.98
0.84232	99.98
0.85898	99.98
0.87565	99.98
0.89232	99.98
0.90898	99.98
0.92565	99.98
0.94232	99.98
0.95898	99.98
0.97565	99.98
0.99232	99.98
1.00898	99.98
1.02565	99.98
1.04232	99.99
1.05898	99.99
1.07565	99.98
1.09232	99.98
1.10898	99.99
1.12565	99.99
1.14232	99.99
1.15898	99.99
1.17565	99.98
1.19232	99.99
1.20898	99.99
1.22565	99.98
1.24232	99.99
1.25898	99.99
1.27565	99.99
1.29232	99.99
1.30898	99.98
1.32565	99.98
1.34232	99.98
1.35898	99.99
1.37565	99.99
1.39232	99.99
1.40898	99.98
1.42565	99.99
1.44232	99.99
1.45898	99.99
1.47565	99.98
1.49232	99.98
1.50898	99.99
1.52565	99.99
1.54232	99.99
1.55898	99.98
1.57565	99.99
1.59232	99.99
1.60898	99.99
1.62565	99.99
1.64232	99.99
1.65898	99.99
1.67565	99.99
1.69232	99.99
1.70898	99.99
1.72565	99.99
1.74232	99.99
1.75898	99.99
1.77565	99.99
1.79232	99.99
1.80898	99.99
1.82565	99.99
1.84232	99.99
1.85898	99.99
1.87565	99.99
1.89232	99.99
1.90898	99.99
1.92565	99.99
1.94232	99.99
1.95898	99.99
1.97565	99.99
1.99232	99.98
2.00898	99.99
2.02565	99.98
2.04232	99.98
2.05898	99.99
2.07565	99.98
2.09232	99.98
2.10898	99.98
2.12565	99.98
2.14232	99.98
2.15898	99.98
2.17565	99.98
2.19232	99.98
2.20898	99.98
2.22565	99.98
2.24232	99.98
2.25898	99.97
2.27565	99.98
2.29232	99.97
2.30898	99.97
2.32565	99.97
2.34232	99.97
2.35898	99.97
2.37565	99.97
2.39232	99.97
2.40898	99.97
2.42565	99.97
2.44232	99.97
2.45898	99.97
2.47565	99.97
2.49232	99.97
2.50898	99.97
2.52565	99.97
2.54232	99.97
2.55898	99.97
2.57565	99.97
2.59232	99.98
2.60898	99.98
2.62565	99.98
2.64232	99.98
2.65898	99.98
2.67565	99.98
2.69232	99.98
2.70898	99.98
2.72565	99.98
2.74232	99.98
2.75898	99.99
2.77565	99.99
2.79232	99.99
2.80898	99.99
2.82565	99.99
2.84232	99.99
2.85898	100.00
2.87565	100.00
2.89232	100.00
2.90898	100.00
2.92565	100.00
2.94232	100.00
2.95898	100.00
2.97565	100.01
2.99232	100.01
3.00898	100.01
3.02565	100.01
3.04232	100.01
3.05898	100.01
3.07565	100.01
3.09232	100.02
3.10898	100.02
3.12565	100.02
3.14232	100.02
3.15898	100.02
3.17565	100.02
3.19232	100.02
3.20898	100.02
3.22565	100.03
3.24232	100.03
3.25898	100.02
3.27565	100.03
3.29232	100.02
3.30898	100.03
3.32565	100.03
3.34232	100.03
3.35898	100.03
3.37565	100.03
3.39232	100.03
3.40898	100.03
3.42565	100.04
3.44232	100.03
3.45898	100.03
3.47565	100.04
3.49232	100.04
3.50898	100.04
3.52565	100.04
3.54232	100.04
3.55898	100.04
3.57565	100.04
3.59232	100.04
3.60898	100.04
3.62565	100.04
3.64232	100.04
3.65898	100.04
3.67565	100.04
3.69232	100.04
3.70898	100.04
3.72565	100.04
3.74232	100.04
3.75898	100.05
3.77565	100.04
3.79232	100.05
3.80898	100.05
3.82565	100.05
3.84232	100.04
3.85898	100.05
3.87565	100.05
3.89232	100.04
3.90898	100.04
3.92565	100.05
3.94232	100.05
3.95898	100.04
3.97565	100.05
3.99232	100.04

[Status Trace (Carrier Gas Pressure)]
Interval(msec)	1000
# of Points	240
Start Time(min)	0.009
End Time(min)	3.992
Intensity Units	
Intensity Multiplier	1
R.Time (min)	Intensity
0.00898	58.00
0.02565	55.25
0.04232	57.25
0.05898	59.28
0.07565	59.39
0.09232	58.05
0.10898	57.98
0.12565	58.01
0.14232	58.01
0.15898	58.01
0.17565	58.00
0.19232	58.00
0.20898	58.00
0.22565	58.00
0.24232	58.00
0.25898	58.00
0.27565	58.00
0.29232	58.00
0.30898	58.00
0.32565	58.00
0.34232	58.00
0.35898	58.00
0.37565	58.00
0.39232	58.00
0.40898	58.00
0.42565	58.00
0.44232	58.00
0.45898	58.00
0.47565	58.00
0.49232	58.00
0.50898	58.00
0.52565	58.00
0.54232	58.00
0.55898	58.00
0.57565	58.00
0.59232	58.00
0.60898	58.00
0.62565	58.00
0.64232	58.00
0.65898	58.00
0.67565	58.00
0.69232	58.00
0.70898	58.00
0.72565	58.00
0.74232	58.00
0.75898	58.00
0.77565	58.00
0.79232	58.00
0.80898	58.00
0.82565	58.00
0.84232	58.00
0.85898	58.00
0.87565	58.00
0.89232	58.00
0.90898	58.00
0.92565	58.00
0.94232	58.00
0.95898	58.00
0.97565	58.00
0.99232	58.00
1.00898	58.00
1.02565	58.00
1.04232	58.00
1.05898	58.00
1.07565	58.00
1.09232	58.00
1.10898	58.00
1.12565	58.00
1.14232	58.00
1.15898	58.00
1.17565	58.00
1.19232	58.00
1.20898	58.00
1.22565	58.00
1.24232	58.00
1.25898	58.00
1.27565	58.00
1.29232	58.00
1.30898	58.00
1.32565	58.00
1.34232	58.00
1.35898	58.00
1.37565	58.00
1.39232	58.00
1.40898	58.00
1.42565	58.00
1.44232	58.00
1.45898	58.00
1.47565	58.00
1.49232	58.00
1.50898	58.00
1.52565	58.00
1.54232	58.00
1.55898	58.00
1.57565	58.00
1.59232	58.00
1.60898	58.00
1.62565	58.00
1.64232	58.00
1.65898	58.00
1.67565	58.01
1.69232	58.00
1.70898	58.00
1.72565	58.00
1.74232	58.00
1.75898	58.00
1.77565	58.00
1.79232	58.00
1.80898	58.00
1.82565	58.00
1.84232	58.00
1.85898	58.00
1.87565	58.00
1.89232	58.00
1.90898	58.00
1.92565	58.00
1.94232	58.00
1.95898	58.00
1.97565	58.00
1.99232	58.00
2.00898	58.00
2.02565	58.00
2.04232	58.00
2.05898	58.00
2.07565	58.00
2.09232	58.00
2.10898	58.00
2.12565	58.00
2.14232	58.00
2.15898	58.00
2.17565	58.00
2.19232	58.00
2.20898	58.00
2.22565	58.00
2.24232	58.00
2.25898	58.00
2.27565	58.00
2.29232	58.00
2.30898	58.00
2.32565	58.00
2.34232	58.00
2.35898	58.00
2.37565	57.99
2.39232	57.99
2.40898	57.99
2.42565	58.00
2.44232	58.00
2.45898	58.00
2.47565	58.00
2.49232	58.00
2.50898	58.00
2.52565	57.98
2.54232	58.00
2.55898	58.00
2.57565	58.00
2.59232	58.00
2.60898	58.00
2.62565	58.00
2.64232	58.00
2.65898	58.00
2.67565	58.00
2.69232	58.00
2.70898	58.00
2.72565	58.00
2.74232	58.00
2.75898	58.00
2.77565	58.00
2.79232	58.00
2.80898	58.00
2.82565	58.00
2.84232	58.00
2.85898	58.00
2.87565	58.00
2.89232	58.00
2.90898	58.00
2.92565	58.00
2.94232	58.00
2.95898	58.00
2.97565	58.00
2.99232	58.00
3.00898	58.00
3.02565	58.00
3.04232	58.00
3.05898	58.00
3.07565	58.00
3.09232	58.00
3.10898	58.00
3.12565	58.00
3.14232	58.00
3.15898	58.00
3.17565	58.00
3.19232	58.00
3.20898	58.00
3.22565	58.00
3.24232	58.00
3.25898	58.00
3.27565	58.00
3.29232	58.00
3.30898	58.00
3.32565	58.00
3.34232	58.00
3.35898	58.00
3.37565	58.00
3.39232	58.00
3.40898	58.00
3.42565	58.00
3.44232	58.00
3.45898	58.00
3.47565	58.00
3.49232	58.00
3.50898	58.00
3.52565	58.00
3.54232	58.00
3.55898	58.00
3.57565	58.00
3.59232	58.00
3.60898	58.00
3.62565	58.00
3.64232	58.00
3.65898	58.00
3.67565	58.00
3.69232	58.00
3.70898	58.00
3.72565	58.00
3.74232	58.00
3.75898	58.00
3.77565	58.00
3.79232	58.00
3.80898	58.00
3.82565	58.00
3.84232	58.00
3.85898	58.00
3.87565	58.00
3.89232	58.00
3.90898	58.00
3.92565	58.00
3.94232	58.00
3.95898	58.00
3.97565	58.00
3.99232	58.00

[Status Trace (Carrier Gas Flow)]
Interval(msec)	1000
# of Points	240
Start Time(min)	0.009
End Time(min)	3.992
Intensity Units	
Intensity Multiplier	1
R.Time (min)	Intensity
0.00898	34.52
0.02565	34.53
0.04232	34.54
0.05898	34.55
0.07565	34.50
0.09232	34.52
0.10898	34.52
0.12565	34.52
0.14232	34.52
0.15898	34.52
0.17565	34.52
0.19232	34.52
0.20898	34.52
0.22565	34.52
0.24232	34.52
0.25898	34.52
0.27565	34.52
0.29232	34.52
0.30898	34.52
0.32565	34.52
0.34232	34.52
0.35898	34.52
0.37565	34.52
0.39232	34.52
0.40898	34.52
0.42565	34.52
0.44232	34.52
0.45898	34.52
0.47565	34.52
0.49232	34.52
0.50898	34.52
0.52565	34.52
0.54232	34.52
0.55898	34.52
0.57565	34.52
0.59232	34.52
0.60898	34.52
0.62565	34.52
0.64232	34.52
0.65898	34.52
0.67565	34.52
0.69232	34.52
0.70898	34.52
0.72565	34.52
0.74232	34.52
0.75898	34.52
0.77565	34.52
0.79232	34.52
0.80898	34.52
0.82565	34.52
0.84232	34.52
0.85898	34.52
0.87565	34.52
0.89232	34.52
0.90898	34.52
0.92565	34.52
0.94232	34.52
0.95898	34.52
0.97565	34.52
0.99232	34.52
1.00898	34.52
1.02565	34.52
1.04232	34.52
1.05898	34.52
1.07565	34.52
1.09232	34.52
1.10898	34.52
1.12565	34.52
1.14232	34.52
1.15898	34.52
1.17565	34.52
1.19232	34.52
1.20898	34.52
1.22565	34.52
1.24232	34.52
1.25898	34.52
1.27565	34.52
1.29232	34.52
1.30898	34.52
1.32565	34.52
1.34232	34.52
1.35898	34.52
1.37565	34.52
1.39232	34.52
1.40898	34.52
1.42565	34.52
1.44232	34.52
1.45898	34.52
1.47565	34.52
1.49232	34.52
1.50898	34.52
1.52565	34.52
1.54232	34.52
1.55898	34.52
1.57565	34.52
1.59232	34.52
1.60898	34.52
1.62565	34.52
1.64232	34.52
1.65898	34.52
1.67565	34.52
1.69232	34.52
1.70898	34.52
1.72565	34.52
1.74232	34.52
1.75898	34.52
1.77565	34.52
1.79232	34.52
1.80898	34.52
1.82565	34.52
1.84232	34.52
1.85898	34.52
1.87565	34.52
1.89232	34.52
1.90898	34.52
1.92565	34.52
1.94232	34.52
1.95898	34.52
1.97565	34.52
1.99232	34.52
2.00898	34.52
2.02565	34.52
2.04232	34.52
2.05898	34.52
2.07565	34.52
2.09232	34.52
2.10898	34.52
2.12565	34.52
2.14232	34.52
2.15898	34.52
2.17565	34.52
2.19232	34.52
2.20898	34.52
2.22565	34.52
2.24232	34.52
2.25898	34.52
2.27565	34.52
2.29232	34.52
2.30898	34.52
2.32565	34.52
2.34232	34.52
2.35898	34.52
2.37565	34.52
2.39232	34.52
2.40898	34.52
2.42565	34.52
2.44232	34.52
2.45898	34.52
2.47565	34.52
2.49232	34.52
2.50898	34.51
2.52565	34.51
2.54232	34.52
2.55898	34.51
2.57565	34.52
2.59232	34.52
2.60898	34.52
2.62565	34.51
2.64232	34.51
2.65898	34.52
2.67565	34.52
2.69232	34.52
2.70898	34.51
2.72565	34.51
2.74232	34.52
2.75898	34.52
2.77565	34.52
2.79232	34.52
2.80898	34.52
2.82565	34.52
2.84232	34.52
2.85898	34.52
2.87565	34.52
2.89232	34.52
2.90898	34.52
2.92565	34.52
2.94232	34.52
2.95898	34.52
2.97565	34.52
2.99232	34.52
3.00898	34.52
3.02565	34.52
3.04232	34.52
3.05898	34.52
3.07565	34.52
3.09232	34.52
3.10898	34.53
3.12565	34.52
3.14232	34.53
3.15898	34.52
3.17565	34.53
3.19232	34.52
3.20898	34.51
3.22565	34.52
3.24232	34.51
3.25898	34.52
3.27565	34.51
3.29232	34.52
3.30898	34.52
3.32565	34.52
3.34232	34.52
3.35898	34.53
3.37565	34.52
3.39232	34.51
3.40898	34.52
3.42565	34.52
3.44232	34.51
3.45898	34.52
3.47565	34.51
3.49232	34.52
3.50898	34.51
3.52565	34.52
3.54232	34.52
3.55898	34.52
3.57565	34.52
3.59232	34.52
3.60898	34.52
3.62565	34.53
3.64232	34.52
3.65898	34.52
3.67565	34.52
3.69232	34.52
3.70898	34.52
3.72565	34.52
3.74232	34.52
3.75898	34.52
3.77565	34.52
3.79232	34.52
3.80898	34.52
3.82565	34.52
3.84232	34.52
3.85898	34.52
3.87565	34.51
3.89232	34.52
3.90898	34.52
3.92565	34.52
3.94232	34.52
3.95898	34.52
3.97565	34.52
3.99232	34.52

[Status Trace (Column Flow)]
Interval(msec)	1000
# of Points	240
Start Time(min)	0.009
End Time(min)	3.992
Intensity Units	
Intensity Multiplier	1
R.Time (min)	Intensity
0.00898	5.45
0.02565	5.13
0.04232	5.36
0.05898	5.60
0.07565	5.61
0.09232	5.45
0.10898	5.45
0.12565	5.45
0.14232	5.45
0.15898	5.45
0.17565	5.45
0.19232	5.45
0.20898	5.45
0.22565	5.45
0.24232	5.45
0.25898	5.45
0.27565	5.45
0.29232	5.45
0.30898	5.45
0.32565	5.45
0.34232	5.45
0.35898	5.45
0.37565	5.45
0.39232	5.45
0.40898	5.45
0.42565	5.45
0.44232	5.45
0.45898	5.45
0.47565	5.45
0.49232	5.45
0.50898	5.45
0.52565	5.45
0.54232	5.45
0.55898	5.45
0.57565	5.45
0.59232	5.45
0.60898	5.45
0.62565	5.45
0.64232	5.45
0.65898	5.45
0.67565	5.45
0.69232	5.45
0.70898	5.45
0.72565	5.45
0.74232	5.45
0.75898	5.45
0.77565	5.45
0.79232	5.45
0.80898	5.45
0.82565	5.45
0.84232	5.45
0.85898	5.45
0.87565	5.45
0.89232	5.45
0.90898	5.45
0.92565	5.45
0.94232	5.45
0.95898	5.45
0.97565	5.45
0.99232	5.45
1.00898	5.45
1.02565	5.45
1.04232	5.45
1.05898	5.45
1.07565	5.45
1.09232	5.45
1.10898	5.45
1.12565	5.45
1.14232	5.45
1.15898	5.45
1.17565	5.45
1.19232	5.45
1.20898	5.45
1.22565	5.45
1.24232	5.45
1.25898	5.45
1.27565	5.45
1.29232	5.45
1.30898	5.45
1.32565	5.45
1.34232	5.45
1.35898	5.45
1.37565	5.45
1.39232	5.45
1.40898	5.45
1.42565	5.45
1.44232	5.45
1.45898	5.45
1.47565	5.45
1.49232	5.45
1.50898	5.45
1.52565	5.45
1.54232	5.45
1.55898	5.45
1.57565	5.45
1.59232	5.45
1.60898	5.45
1.62565	5.44
1.64232	5.44
1.65898	5.43
1.67565	5.42
1.69232	5.41
1.70898	5.40
1.72565	5.39
1.74232	5.38
1.75898	5.37
1.77565	5.36
1.79232	5.35
1.80898	5.34
1.82565	5.33
1.84232	5.32
1.85898	5.31
1.87565	5.30
1.89232	5.29
1.90898	5.28
1.92565	5.27
1.94232	5.26
1.95898	5.25
1.97565	5.24
1.99232	5.23
2.00898	5.22
2.02565	5.21
2.04232	5.20
2.05898	5.19
2.07565	5.18
2.09232	5.17
2.10898	5.16
2.12565	5.16
2.14232	5.14
2.15898	5.14
2.17565	5.13
2.19232	5.12
2.20898	5.11
2.22565	5.10
2.24232	5.09
2.25898	5.08
2.27565	5.07
2.29232	5.06
2.30898	5.05
2.32565	5.04
2.34232	5.03
2.35898	5.03
2.37565	5.02
2.39232	5.02
2.40898	5.02
2.42565	5.02
2.44232	5.02
2.45898	5.02
2.47565	5.02
2.49232	5.02
2.50898	5.02
2.52565	5.02
2.54232	5.02
2.55898	5.02
2.57565	5.02
2.59232	5.02
2.60898	5.02
2.62565	5.02
2.64232	5.02
2.65898	5.02
2.67565	5.02
2.69232	5.02
2.70898	5.02
2.72565	5.02
2.74232	5.02
2.75898	5.02
2.77565	5.01
2.79232	5.02
2.80898	5.02
2.82565	5.02
2.84232	5.02
2.85898	5.01
2.87565	5.01
2.89232	5.01
2.90898	5.01
2.92565	5.01
2.94232	5.01
2.95898	5.01
2.97565	5.01
2.99232	5.01
3.00898	5.01
3.02565	5.01
3.04232	5.01
3.05898	5.01
3.07565	5.01
3.09232	5.01
3.10898	5.01
3.12565	5.01
3.14232	5.01
3.15898	5.01
3.17565	5.01
3.19232	5.01
3.20898	5.01
3.22565	5.01
3.24232	5.01
3.25898	5.01
3.27565	5.01
3.29232	5.01
3.30898	5.01
3.32565	5.01
3.34232	5.01
3.35898	5.01
3.37565	5.01
3.39232	5.01
3.40898	5.01
3.42565	5.01
3.44232	5.01
3.45898	5.01
3.47565	5.01
3.49232	5.01
3.50898	5.01
3.52565	5.01
3.54232	5.01
3.55898	5.01
3.57565	5.01
3.59232	5.01
3.60898	5.01
3.62565	5.01
3.64232	5.01
3.65898	5.01
3.67565	5.01
3.69232	5.01
3.70898	5.01
3.72565	5.01
3.74232	5.01
3.75898	5.01
3.77565	5.01
3.79232	5.01
3.80898	5.01
3.82565	5.01
3.84232	5.01
3.85898	5.01
3.87565	5.01
3.89232	5.01
3.90898	5.01
3.92565	5.01
3.94232	5.01
3.95898	5.01
3.97565	5.01
3.99232	5.01

[Status Trace (Linear Velocity)]
Interval(msec)	1000
# of Points	240
Start Time(min)	0.009
End Time(min)	3.992
Intensity Units	
Intensity Multiplier	1
R.Time (min)	Intensity
0.00898	38.99
0.02565	37.19
0.04232	38.51
0.05898	39.83
0.07565	39.91
0.09232	39.03
0.10898	38.98
0.12565	39.00
0.14232	39.00
0.15898	39.00
0.17565	39.00
0.19232	39.00
0.20898	39.00
0.22565	39.00
0.24232	39.00
0.25898	39.00
0.27565	39.00
0.29232	39.00
0.30898	39.00
0.32565	39.00
0.34232	39.00
0.35898	39.00
0.37565	39.00
0.39232	39.00
0.40898	39.00
0.42565	39.00
0.44232	39.00
0.45898	39.00
0.47565	39.00
0.49232	39.00
0.50898	39.00
0.52565	39.00
0.54232	39.00
0.55898	39.00
0.57565	39.00
0.59232	39.00
0.60898	39.00
0.62565	39.00
0.64232	39.00
0.65898	39.00
0.67565	39.00
0.69232	39.00
0.70898	39.00
0.72565	39.00
0.74232	39.00
0.75898	39.00
0.77565	39.00
0.79232	39.00
0.80898	39.00
0.82565	39.00
0.84232	39.00
0.85898	39.00
0.87565	39.00
0.89232	39.00
0.90898	39.00
0.92565	39.00
0.94232	39.00
0.95898	39.00
0.97565	39.00
0.99232	39.00
1.00898	39.00
1.02565	39.00
1.04232	39.00
1.05898	39.00
1.07565	39.00
1.09232	39.00
1.10898	39.00
1.12565	39.00
1.14232	39.00
1.15898	39.00
1.17565	39.00
1.19232	39.00
1.20898	39.00
1.22565	39.00
1.24232	39.00
1.25898	39.00
1.27565	39.00
1.29232	39.00
1.30898	39.00
1.32565	39.00
1.34232	39.00
1.35898	39.00
1.37565	39.00
1.39232	39.00
1.40898	39.00
1.42565	39.00
1.44232	39.00
1.45898	39.00
1.47565	39.00
1.49232	39.00
1.50898	39.00
1.52565	39.00
1.54232	39.00
1.55898	39.00
1.57565	39.00
1.59232	39.00
1.60898	38.99
1.62565	38.98
1.64232	38.96
1.65898	38.94
1.67565	38.91
1.69232	38.87
1.70898	38.84
1.72565	38.81
1.74232	38.77
1.75898	38.75
1.77565	38.71
1.79232	38.68
1.80898	38.65
1.82565	38.62
1.84232	38.59
1.85898	38.56
1.87565	38.53
1.89232	38.49
1.90898	38.47
1.92565	38.44
1.94232	38.40
1.95898	38.38
1.97565	38.35
1.99232	38.31
2.00898	38.29
2.02565	38.26
2.04232	38.23
2.05898	38.20
2.07565	38.17
2.09232	38.13
2.10898	38.11
2.12565	38.08
2.14232	38.04
2.15898	38.02
2.17565	37.99
2.19232	37.95
2.20898	37.93
2.22565	37.90
2.24232	37.87
2.25898	37.84
2.27565	37.81
2.29232	37.78
2.30898	37.75
2.32565	37.72
2.34232	37.69
2.35898	37.67
2.37565	37.65
2.39232	37.64
2.40898	37.65
2.42565	37.65
2.44232	37.65
2.45898	37.65
2.47565	37.64
2.49232	37.64
2.50898	37.64
2.52565	37.63
2.54232	37.64
2.55898	37.64
2.57565	37.63
2.59232	37.63
2.60898	37.63
2.62565	37.63
2.64232	37.63
2.65898	37.63
2.67565	37.63
2.69232	37.63
2.70898	37.63
2.72565	37.63
2.74232	37.63
2.75898	37.63
2.77565	37.63
2.79232	37.63
2.80898	37.63
2.82565	37.63
2.84232	37.63
2.85898	37.63
2.87565	37.63
2.89232	37.63
2.90898	37.63
2.92565	37.62
2.94232	37.62
2.95898	37.62
2.97565	37.62
2.99232	37.62
3.00898	37.62
3.02565	37.62
3.04232	37.62
3.05898	37.62
3.07565	37.62
3.09232	37.62
3.10898	37.61
3.12565	37.62
3.14232	37.61
3.15898	37.61
3.17565	37.61
3.19232	37.61
3.20898	37.61
3.22565	37.61
3.24232	37.61
3.25898	37.61
3.27565	37.61
3.29232	37.61
3.30898	37.61
3.32565	37.61
3.34232	37.61
3.35898	37.61
3.37565	37.61
3.39232	37.61
3.40898	37.61
3.42565	37.61
3.44232	37.61
3.45898	37.61
3.47565	37.61
3.49232	37.61
3.50898	37.61
3.52565	37.61
3.54232	37.61
3.55898	37.61
3.57565	37.61
3.59232	37.61
3.60898	37.61
3.62565	37.61
3.64232	37.61
3.65898	37.61
3.67565	37.61
3.69232	37.61
3.70898	37.61
3.72565	37.61
3.74232	37.61
3.75898	37.61
3.77565	37.61
3.79232	37.61
3.80898	37.61
3.82565	37.61
3.84232	37.61
3.85898	37.61
3.87565	37.61
3.89232	37.61
3.90898	37.61
3.92565	37.61
3.94232	37.61
3.95898	37.61
3.97565	37.61
3.99232	37.61

