[Header]
Application Name	LabSolutions
Version	5.110
Data File Name	C:\Users\User\Desktop\GC Analyses\Jack\UIC Prairie Sampling\9.30.22\220930_078.gcd
Output Date	1/4/2023
Output Time	2:27:55 PM

[File Information]
Type	Data File
Generated	12/2/2022 12:57:29 PM
Generated by	System Administrator
Modified	12/2/2022 1:01:45 PM
Modified by	System Administrator

[Sample Information]
Operator Name	System Administrator
Acquired	12/2/2022 12:57:44 PM
Sample Type	1:Standard
Level	1
Sample Name	220930_UICPrairie
Sample ID	220930_UICPrairie
ISTD Amount1	1
ISTD Amount2	1
ISTD Amount3	1
ISTD Amount4	1
ISTD Amount5	1
ISTD Amount6	1
ISTD Amount7	1
ISTD Amount8	1
ISTD Amount9	1
ISTD Amount10	1
ISTD Amount11	1
ISTD Amount12	1
ISTD Amount13	1
ISTD Amount14	1
ISTD Amount15	1
ISTD Amount16	1
ISTD Amount17	1
ISTD Amount18	1
ISTD Amount19	1
ISTD Amount20	1
ISTD Amount21	1
ISTD Amount22	1
ISTD Amount23	1
ISTD Amount24	1
ISTD Amount25	1
ISTD Amount26	1
ISTD Amount27	1
ISTD Amount28	1
ISTD Amount29	1
ISTD Amount30	1
ISTD Amount31	1
ISTD Amount32	1
Sample Amount	1
Dilution Factor	1
Vial#	1
Injection Volume	1
Injection Count	1
Bar Code	

[Original Files]
Data File	C:\Users\User\Desktop\GC Analyses\Jack\UIC Prairie Sampling\9.30.22\220930_078.gcd
Method File	C:\LabSolutions\Data\GHG_4min_2022\ghg3_togas_w_acet_4 min_new_int.gcm
Batch File	
Report Format File	c:\LabSolutions\System\DEFAULT.lsr

[File Description]


[Configuration]
Instrument Name	C0B7VH3-Instrument1
Instrument #	1
Line #	1
# of Detectors	3
Detector ID	DET#1	DET#2	DET#3
Detector Name	FID	PTCD	ECD
# of Channels	1	1	1

[Peak Table(Ch1)]
# of Peaks	3
Peak#	R.Time	I.Time	F.Time	Area	Height	A/H	Conc.	Mark	ID#	Name	k'	Plate #	Plate Ht.	Tailing	Resolution	Sep.Factor	Area Ratio	Height Ratio	Conc. %	Norm Conc.
1	1.479	1.439	1.538	14830	6705	2.212	100.000	   	1	CO	0.000	8562	17.519	1.211	0.000	0.000	0	0	16.667	16.667
2	1.571	1.538	1.637	5439	2679	2.031	100.000	 V 	2	CH4	0.062	10975	13.667	0.000	1.479	0.000	0	0	16.667	16.667
3	2.000	1.952	2.535	1394720	665435	2.096	400.000	   	3	CO2	0.352	17285	8.678	1.260	7.101	5.680	0	0	66.667	66.667

[Peak Table(Ch2)]
# of Peaks	0

[Peak Table(Ch3)]
# of Peaks	5
Peak#	R.Time	I.Time	F.Time	Area	Height	A/H	Conc.	Mark	ID#	Name	k'	Plate #	Plate Ht.	Tailing	Resolution	Sep.Factor	Area Ratio	Height Ratio	Conc. %	Norm Conc.
1	2.458	2.293	2.499	1792	376	4.770	0.000	   			0.000	5836	25.702	0.000	0.000	0.000	0	0	0.000	0.000
2	2.521	2.499	2.557	910	287	3.165	0.000	 V 			0.025	1386	108.216	0.000	0.312	0.000	0	0	0.000	0.000
3	2.609	2.557	2.656	1259	304	4.135	0.000	 V 			0.061	2985	50.249	0.000	0.381	2.412	0	0	0.000	0.000
4	2.891	2.675	3.008	22922	5659	4.051	1.000	   	1	N2O	0.176	13002	11.537	1.519	1.931	2.878	0	0	100.000	100.000
5	3.188	3.008	3.995	22327	705	31.671	0.000	 V 			0.297	252	594.126	0.000	0.657	1.686	0	0	0.000	0.000

[Compound Results(Ch1)]
# of IDs	6
ID#	Name	R.Time	Area	Height	Conc.	Curve	3rd	2nd	1st	Constant	Area Ratio	Height Ratio	Conc. %	Norm Conc.
1	CO	1.479	14830	6705	100.000	Linear	0.000000e+00	0.000000e+00	1.483030e+002	0.000000e+00	0	0	16.667	16.667
2	CH4	1.571	5439	2679	100.000	Linear	0.000000e+00	0.000000e+00	5.439280e+001	0.000000e+00	0	0	16.667	16.667
3	CO2	2.000	1394720	665435	400.000	Linear	0.000000e+00	0.000000e+00	3.486800e+003	0.000000e+00	0	0	66.667	66.667
4	Ethylene	0.000	0	0	0.000	Linear	0.000000e+00	0.000000e+00	0.000000e+00	0.000000e+00	0	0	0.000	0.000
5	Acetylene	0.000	0	0	0.000	Linear	0.000000e+00	0.000000e+00	0.000000e+00	0.000000e+00	0	0	0.000	0.000
6	Ethane	0.000	0	0	0.000	Linear	0.000000e+00	0.000000e+00	0.000000e+00	0.000000e+00	0	0	0.000	0.000

[Compound Results(Ch2)]
# of IDs	5
ID#	Name	R.Time	Area	Height	Conc.	Curve	3rd	2nd	1st	Constant	Area Ratio	Height Ratio	Conc. %	Norm Conc.
1	Hydrogen	0.000	0	0	0.000	Linear	0.000000e+00	0.000000e+00	0.000000e+00	0.000000e+00	0	0	0.000	0.000
2	Oxygen	0.000	0	0	0.000	Linear	0.000000e+00	0.000000e+00	0.000000e+00	0.000000e+00	0	0	0.000	0.000
3	Nitrogen	0.000	0	0	0.000	Linear	0.000000e+00	0.000000e+00	0.000000e+00	0.000000e+00	0	0	0.000	0.000
4	Methane	0.000	0	0	0.000	Linear	0.000000e+00	0.000000e+00	0.000000e+00	0.000000e+00	0	0	0.000	0.000
5	Carbon Monoxide	0.000	0	0	0.000	Linear	0.000000e+00	0.000000e+00	0.000000e+00	0.000000e+00	0	0	0.000	0.000

[Compound Results(Ch3)]
# of IDs	2
ID#	Name	R.Time	Area	Height	Conc.	Curve	3rd	2nd	1st	Constant	Area Ratio	Height Ratio	Conc. %	Norm Conc.
1	N2O	2.891	22922	5659	1.000	Linear	0.000000e+00	0.000000e+00	2.292219e+004	0.000000e+00	0	0	100.000	100.000
2	SF6	0.000	0	0	0.000	Linear	0.000000e+00	0.000000e+00	0.000000e+00	0.000000e+00	0	0	0.000	0.000

[Group Results(Ch1)]
# of Groups	0

[Group Results(Ch2)]
# of Groups	0

[Group Results(Ch3)]
# of Groups	0

[Chromatogram (Ch1)]
Interval(msec)	220
# of Points	1091
Start Time(min)	0.002
End Time(min)	3.998
R.Time (min)	Intensity
0.00167	42
0.00533	48
0.00900	47
0.01267	43
0.01633	36
0.02000	27
0.02367	20
0.02733	17
0.03100	15
0.03467	16
0.03833	19
0.04200	21
0.04567	26
0.04933	31
0.05300	33
0.05667	30
0.06033	25
0.06400	18
0.06767	13
0.07133	12
0.07500	14
0.07867	18
0.08233	21
0.08600	25
0.08967	28
0.09333	30
0.09700	31
0.10067	31
0.10433	32
0.10800	32
0.11167	30
0.11533	26
0.11900	20
0.12267	18
0.12633	19
0.13000	20
0.13367	19
0.13733	15
0.14100	8
0.14467	5
0.14833	8
0.15200	15
0.15567	21
0.15933	27
0.16300	31
0.16667	35
0.17033	39
0.17400	40
0.17767	36
0.18133	34
0.18500	34
0.18867	34
0.19233	32
0.19600	30
0.19967	29
0.20333	29
0.20700	29
0.21067	27
0.21433	22
0.21800	16
0.22167	12
0.22533	5
0.22900	-3
0.23267	-9
0.23633	-12
0.24000	-11
0.24367	-7
0.24733	-2
0.25100	4
0.25467	8
0.25833	10
0.26200	14
0.26567	16
0.26933	15
0.27300	13
0.27667	12
0.28033	16
0.28400	25
0.28767	32
0.29133	35
0.29500	35
0.29867	31
0.30233	27
0.30600	25
0.30967	26
0.31333	28
0.31700	28
0.32067	27
0.32433	25
0.32800	19
0.33167	12
0.33533	1
0.33900	-9
0.34267	-14
0.34633	-20
0.35000	-23
0.35367	-23
0.35733	-18
0.36100	-9
0.36467	1
0.36833	11
0.37200	19
0.37567	24
0.37933	29
0.38300	33
0.38667	32
0.39033	27
0.39400	23
0.39767	17
0.40133	10
0.40500	1
0.40867	-7
0.41233	-11
0.41600	-8
0.41967	-1
0.42333	6
0.42700	10
0.43067	10
0.43433	7
0.43800	6
0.44167	7
0.44533	9
0.44900	15
0.45267	19
0.45633	17
0.46000	13
0.46367	12
0.46733	13
0.47100	14
0.47467	11
0.47833	11
0.48200	18
0.48567	21
0.48933	23
0.49300	18
0.49667	11
0.50033	2
0.50400	-1
0.50767	-0
0.51133	1
0.51500	2
0.51867	4
0.52233	10
0.52600	16
0.52967	18
0.53333	15
0.53700	8
0.54067	4
0.54433	2
0.54800	2
0.55167	1
0.55533	2
0.55900	3
0.56267	3
0.56633	0
0.57000	-1
0.57367	-2
0.57733	-4
0.58100	-5
0.58467	-5
0.58833	-4
0.59200	-1
0.59567	-1
0.59933	-3
0.60300	-4
0.60667	-4
0.61033	-5
0.61400	-7
0.61767	-8
0.62133	-5
0.62500	0
0.62867	4
0.63233	8
0.63600	7
0.63967	6
0.64333	8
0.64700	6
0.65067	-1
0.65433	-6
0.65800	-9
0.66167	-9
0.66533	-6
0.66900	0
0.67267	8
0.67633	13
0.68000	16
0.68367	18
0.68733	18
0.69100	17
0.69467	14
0.69833	11
0.70200	9
0.70567	6
0.70933	-1
0.71300	-7
0.71667	-10
0.72033	-9
0.72400	-7
0.72767	-3
0.73133	5
0.73500	15
0.73867	21
0.74233	20
0.74600	16
0.74967	9
0.75333	4
0.75700	-2
0.76067	-6
0.76433	-9
0.76800	-14
0.77167	-17
0.77533	-18
0.77900	-14
0.78267	-7
0.78633	-1
0.79000	8
0.79367	13
0.79733	12
0.80100	5
0.80467	-7
0.80833	-18
0.81200	-24
0.81567	-26
0.81933	-21
0.82300	-9
0.82667	2
0.83033	7
0.83400	7
0.83767	4
0.84133	2
0.84500	-2
0.84867	-6
0.85233	-10
0.85600	-14
0.85967	-14
0.86333	-12
0.86700	-8
0.87067	-4
0.87433	-1
0.87800	0
0.88167	2
0.88533	5
0.88900	7
0.89267	9
0.89633	10
0.90000	10
0.90367	9
0.90733	5
0.91100	-1
0.91467	-9
0.91833	-13
0.92200	-15
0.92567	-17
0.92933	-16
0.93300	-14
0.93667	-8
0.94033	-3
0.94400	1
0.94767	4
0.95133	3
0.95500	4
0.95867	3
0.96233	2
0.96600	2
0.96967	6
0.97333	8
0.97700	9
0.98067	6
0.98433	0
0.98800	-9
0.99167	-20
0.99533	-31
0.99900	-36
1.00267	-38
1.00633	-37
1.01000	-33
1.01367	-23
1.01733	-13
1.02100	-7
1.02467	-3
1.02833	-3
1.03200	-10
1.03567	-18
1.03933	-25
1.04300	-26
1.04667	-24
1.05033	-22
1.05400	-16
1.05767	-11
1.06133	-8
1.06500	-5
1.06867	-6
1.07233	-10
1.07600	-17
1.07967	-25
1.08333	-30
1.08700	-34
1.09067	-35
1.09433	-31
1.09800	-26
1.10167	-21
1.10533	-15
1.10900	-8
1.11267	-1
1.11633	2
1.12000	5
1.12367	5
1.12733	-0
1.13100	-7
1.13467	-12
1.13833	-16
1.14200	-22
1.14567	-29
1.14933	-34
1.15300	-38
1.15667	-41
1.16033	-37
1.16400	-28
1.16767	-18
1.17133	-12
1.17500	-8
1.17867	-7
1.18233	-8
1.18600	-11
1.18967	-19
1.19333	-29
1.19700	-36
1.20067	-40
1.20433	-42
1.20800	-41
1.21167	-37
1.21533	-32
1.21900	-28
1.22267	-27
1.22633	-26
1.23000	-26
1.23367	-30
1.23733	-37
1.24100	-41
1.24467	-42
1.24833	-44
1.25200	-43
1.25567	-43
1.25933	-42
1.26300	-39
1.26667	-33
1.27033	-28
1.27400	-27
1.27767	-27
1.28133	-29
1.28500	-32
1.28867	-33
1.29233	-32
1.29600	-31
1.29967	-30
1.30333	-30
1.30700	-31
1.31067	-31
1.31433	-30
1.31800	-30
1.32167	-31
1.32533	-33
1.32900	-35
1.33267	-38
1.33633	-40
1.34000	-38
1.34367	-32
1.34733	-26
1.35100	-28
1.35467	-35
1.35833	-43
1.36200	-48
1.36567	-50
1.36933	-47
1.37300	-45
1.37667	-44
1.38033	-40
1.38400	-37
1.38767	-35
1.39133	-35
1.39500	-36
1.39867	-36
1.40233	-32
1.40600	-24
1.40967	-19
1.41333	-18
1.41700	-21
1.42067	-25
1.42433	-28
1.42800	-34
1.43167	-42
1.43533	-45
1.43900	-36
1.44267	17
1.44633	184
1.45000	494
1.45367	1020
1.45733	1894
1.46100	3057
1.46467	4268
1.46833	5319
1.47200	6106
1.47567	6575
1.47933	6669
1.48300	6354
1.48667	5664
1.49033	4738
1.49400	3755
1.49767	2853
1.50133	2102
1.50500	1521
1.50867	1094
1.51233	789
1.51600	576
1.51967	426
1.52333	320
1.52700	247
1.53067	198
1.53433	164
1.53800	143
1.54167	154
1.54533	253
1.54900	514
1.55267	940
1.55633	1442
1.56000	1915
1.56367	2294
1.56733	2548
1.57100	2645
1.57467	2549
1.57833	2264
1.58200	1854
1.58567	1414
1.58933	1023
1.59300	714
1.59667	486
1.60033	323
1.60400	209
1.60767	130
1.61133	77
1.61500	43
1.61867	20
1.62233	4
1.62600	-8
1.62967	-18
1.63333	-26
1.63700	-33
1.64067	-32
1.64433	-29
1.64800	-26
1.65167	-23
1.65533	-21
1.65900	-24
1.66267	-28
1.66633	-32
1.67000	-34
1.67367	-38
1.67733	-46
1.68100	-56
1.68467	-64
1.68833	-67
1.69200	-67
1.69567	-63
1.69933	-59
1.70300	-53
1.70667	-46
1.71033	-39
1.71400	-34
1.71767	-30
1.72133	-26
1.72500	-24
1.72867	-23
1.73233	-21
1.73600	-25
1.73967	-35
1.74333	-47
1.74700	-56
1.75067	-59
1.75433	-57
1.75800	-52
1.76167	-46
1.76533	-42
1.76900	-42
1.77267	-43
1.77633	-46
1.78000	-48
1.78367	-47
1.78733	-45
1.79100	-44
1.79467	-41
1.79833	-38
1.80200	-36
1.80567	-37
1.80933	-39
1.81300	-42
1.81667	-46
1.82033	-52
1.82400	-58
1.82767	-64
1.83133	-67
1.83500	-71
1.83867	-72
1.84233	-68
1.84600	-61
1.84967	-55
1.85333	-55
1.85700	-57
1.86067	-58
1.86433	-55
1.86800	-49
1.87167	-41
1.87533	-35
1.87900	-32
1.88267	-33
1.88633	-37
1.89000	-41
1.89367	-44
1.89733	-50
1.90100	-57
1.90467	-60
1.90833	-56
1.91200	-47
1.91567	-39
1.91933	-33
1.92300	-28
1.92667	-27
1.93033	-30
1.93400	-36
1.93767	-40
1.94133	-40
1.94500	-38
1.94867	-37
1.95233	-36
1.95600	-13
1.95967	156
1.96333	1099
1.96700	5145
1.97067	18276
1.97433	51052
1.97800	114846
1.98167	212811
1.98533	334386
1.98900	459109
1.99267	565928
1.99633	638222
2.00000	665426
2.00367	644681
2.00733	582366
2.01100	492625
2.01467	392961
2.01833	298482
2.02200	218364
2.02567	155676
2.02933	109357
2.03300	76456
2.03667	53689
2.04033	38179
2.04400	27682
2.04767	20576
2.05133	15734
2.05500	12392
2.05867	10041
2.06233	8346
2.06600	7093
2.06967	6148
2.07333	5422
2.07700	4851
2.08067	4389
2.08433	4004
2.08800	3677
2.09167	3402
2.09533	3164
2.09900	2952
2.10267	2765
2.10633	2603
2.11000	2464
2.11367	2342
2.11733	2230
2.12100	2123
2.12467	2023
2.12833	1932
2.13200	1853
2.13567	1787
2.13933	1729
2.14300	1671
2.14667	1607
2.15033	1543
2.15400	1480
2.15767	1420
2.16133	1363
2.16500	1312
2.16867	1269
2.17233	1234
2.17600	1200
2.17967	1168
2.18333	1133
2.18700	1104
2.19067	1078
2.19433	1056
2.19800	1032
2.20167	1007
2.20533	981
2.20900	958
2.21267	936
2.21633	912
2.22000	882
2.22367	854
2.22733	830
2.23100	811
2.23467	794
2.23833	779
2.24200	765
2.24567	751
2.24933	737
2.25300	722
2.25667	709
2.26033	698
2.26400	686
2.26767	674
2.27133	663
2.27500	654
2.27867	646
2.28233	634
2.28600	621
2.28967	607
2.29333	592
2.29700	577
2.30067	562
2.30433	551
2.30800	543
2.31167	534
2.31533	526
2.31900	522
2.32267	521
2.32633	522
2.33000	518
2.33367	509
2.33733	501
2.34100	490
2.34467	479
2.34833	468
2.35200	460
2.35567	460
2.35933	462
2.36300	463
2.36667	460
2.37033	451
2.37400	440
2.37767	435
2.38133	435
2.38500	436
2.38867	436
2.39233	432
2.39600	426
2.39967	420
2.40333	416
2.40700	411
2.41067	407
2.41433	402
2.41800	397
2.42167	389
2.42533	378
2.42900	369
2.43267	363
2.43633	359
2.44000	355
2.44367	354
2.44733	355
2.45100	355
2.45467	355
2.45833	354
2.46200	353
2.46567	353
2.46933	350
2.47300	343
2.47667	335
2.48033	326
2.48400	316
2.48767	309
2.49133	306
2.49500	305
2.49867	304
2.50233	302
2.50600	302
2.50967	304
2.51333	308
2.51700	314
2.52067	315
2.52433	311
2.52800	305
2.53167	300
2.53533	294
2.53900	285
2.54267	278
2.54633	276
2.55000	278
2.55367	284
2.55733	291
2.56100	294
2.56467	290
2.56833	286
2.57200	283
2.57567	278
2.57933	274
2.58300	267
2.58667	259
2.59033	252
2.59400	247
2.59767	243
2.60133	241
2.60500	241
2.60867	242
2.61233	246
2.61600	251
2.61967	257
2.62333	259
2.62700	258
2.63067	253
2.63433	248
2.63800	243
2.64167	236
2.64533	230
2.64900	228
2.65267	228
2.65633	227
2.66000	224
2.66367	223
2.66733	220
2.67100	221
2.67467	225
2.67833	227
2.68200	223
2.68567	220
2.68933	216
2.69300	211
2.69667	207
2.70033	201
2.70400	200
2.70767	201
2.71133	203
2.71500	202
2.71867	200
2.72233	200
2.72600	199
2.72967	196
2.73333	194
2.73700	193
2.74067	191
2.74433	187
2.74800	184
2.75167	182
2.75533	182
2.75900	182
2.76267	182
2.76633	184
2.77000	188
2.77367	190
2.77733	191
2.78100	192
2.78467	191
2.78833	188
2.79200	185
2.79567	182
2.79933	178
2.80300	176
2.80667	174
2.81033	172
2.81400	171
2.81767	171
2.82133	173
2.82500	179
2.82867	184
2.83233	184
2.83600	182
2.83967	184
2.84333	187
2.84700	191
2.85067	194
2.85433	194
2.85800	193
2.86167	189
2.86533	180
2.86900	174
2.87267	168
2.87633	158
2.88000	151
2.88367	146
2.88733	146
2.89100	151
2.89467	157
2.89833	159
2.90200	161
2.90567	163
2.90933	166
2.91300	169
2.91667	167
2.92033	167
2.92400	171
2.92767	172
2.93133	171
2.93500	171
2.93867	170
2.94233	165
2.94600	159
2.94967	156
2.95333	152
2.95700	146
2.96067	142
2.96433	141
2.96800	140
2.97167	140
2.97533	141
2.97900	141
2.98267	139
2.98633	138
2.99000	142
2.99367	151
2.99733	163
3.00100	173
3.00467	180
3.00833	183
3.01200	183
3.01567	183
3.01933	185
3.02300	188
3.02667	190
3.03033	192
3.03400	192
3.03767	188
3.04133	181
3.04500	174
3.04867	165
3.05233	155
3.05600	148
3.05967	143
3.06333	142
3.06700	145
3.07067	149
3.07433	153
3.07800	155
3.08167	151
3.08533	146
3.08900	144
3.09267	144
3.09633	145
3.10000	145
3.10367	145
3.10733	142
3.11100	141
3.11467	143
3.11833	146
3.12200	145
3.12567	141
3.12933	135
3.13300	130
3.13667	135
3.14033	143
3.14400	144
3.14767	140
3.15133	132
3.15500	124
3.15867	121
3.16233	120
3.16600	117
3.16967	115
3.17333	117
3.17700	125
3.18067	134
3.18433	140
3.18800	144
3.19167	145
3.19533	138
3.19900	131
3.20267	124
3.20633	123
3.21000	126
3.21367	128
3.21733	124
3.22100	118
3.22467	116
3.22833	118
3.23200	121
3.23567	122
3.23933	120
3.24300	122
3.24667	125
3.25033	126
3.25400	127
3.25767	130
3.26133	134
3.26500	136
3.26867	131
3.27233	123
3.27600	118
3.27967	111
3.28333	110
3.28700	114
3.29067	117
3.29433	118
3.29800	119
3.30167	122
3.30533	122
3.30900	120
3.31267	114
3.31633	110
3.32000	110
3.32367	113
3.32733	116
3.33100	119
3.33467	120
3.33833	120
3.34200	119
3.34567	116
3.34933	113
3.35300	113
3.35667	116
3.36033	121
3.36400	124
3.36767	121
3.37133	115
3.37500	114
3.37867	118
3.38233	123
3.38600	128
3.38967	134
3.39333	140
3.39700	142
3.40067	136
3.40433	130
3.40800	123
3.41167	119
3.41533	115
3.41900	110
3.42267	105
3.42633	99
3.43000	95
3.43367	96
3.43733	99
3.44100	101
3.44467	103
3.44833	107
3.45200	113
3.45567	116
3.45933	114
3.46300	109
3.46667	106
3.47033	106
3.47400	108
3.47767	112
3.48133	119
3.48500	128
3.48867	132
3.49233	131
3.49600	127
3.49967	120
3.50333	114
3.50700	108
3.51067	103
3.51433	100
3.51800	96
3.52167	92
3.52533	89
3.52900	84
3.53267	80
3.53633	78
3.54000	78
3.54367	81
3.54733	86
3.55100	92
3.55467	98
3.55833	99
3.56200	99
3.56567	100
3.56933	102
3.57300	107
3.57667	114
3.58033	119
3.58400	123
3.58767	128
3.59133	132
3.59500	131
3.59867	125
3.60233	117
3.60600	111
3.60967	105
3.61333	101
3.61700	96
3.62067	91
3.62433	84
3.62800	81
3.63167	84
3.63533	89
3.63900	93
3.64267	97
3.64633	99
3.65000	104
3.65367	109
3.65733	111
3.66100	105
3.66467	98
3.66833	89
3.67200	84
3.67567	81
3.67933	81
3.68300	86
3.68667	94
3.69033	102
3.69400	107
3.69767	107
3.70133	104
3.70500	99
3.70867	96
3.71233	99
3.71600	101
3.71967	96
3.72333	91
3.72700	85
3.73067	77
3.73433	70
3.73800	66
3.74167	65
3.74533	69
3.74900	73
3.75267	79
3.75633	87
3.76000	92
3.76367	95
3.76733	95
3.77100	92
3.77467	87
3.77833	89
3.78200	95
3.78567	103
3.78933	107
3.79300	107
3.79667	101
3.80033	94
3.80400	85
3.80767	77
3.81133	70
3.81500	65
3.81867	66
3.82233	71
3.82600	76
3.82967	76
3.83333	70
3.83700	64
3.84067	62
3.84433	65
3.84800	72
3.85167	81
3.85533	90
3.85900	96
3.86267	97
3.86633	94
3.87000	91
3.87367	91
3.87733	91
3.88100	92
3.88467	94
3.88833	94
3.89200	93
3.89567	92
3.89933	91
3.90300	89
3.90667	89
3.91033	87
3.91400	81
3.91767	74
3.92133	70
3.92500	71
3.92867	75
3.93233	78
3.93600	76
3.93967	75
3.94333	76
3.94700	76
3.95067	76
3.95433	77
3.95800	77
3.96167	79
3.96533	78
3.96900	73
3.97267	69
3.97633	70
3.98000	76
3.98367	82
3.98733	87
3.99100	87
3.99467	82
3.99833	75

[Chromatogram (Ch2)]
Interval(msec)	220
# of Points	1091
Start Time(min)	0.002
End Time(min)	3.998
R.Time (min)	Intensity
0.00167	-0
0.00533	-0
0.00900	-1
0.01267	-1
0.01633	-1
0.02000	-1
0.02367	-1
0.02733	-0
0.03100	-0
0.03467	0
0.03833	0
0.04200	1
0.04567	1
0.04933	0
0.05300	1
0.05667	1
0.06033	1
0.06400	1
0.06767	1
0.07133	1
0.07500	2
0.07867	2
0.08233	2
0.08600	2
0.08967	2
0.09333	2
0.09700	2
0.10067	2
0.10433	3
0.10800	3
0.11167	3
0.11533	3
0.11900	3
0.12267	3
0.12633	3
0.13000	3
0.13367	3
0.13733	3
0.14100	3
0.14467	3
0.14833	2
0.15200	2
0.15567	2
0.15933	2
0.16300	2
0.16667	2
0.17033	2
0.17400	2
0.17767	1
0.18133	1
0.18500	1
0.18867	1
0.19233	1
0.19600	0
0.19967	0
0.20333	1
0.20700	1
0.21067	0
0.21433	0
0.21800	-0
0.22167	-0
0.22533	-0
0.22900	-0
0.23267	-0
0.23633	-0
0.24000	-0
0.24367	0
0.24733	0
0.25100	1
0.25467	0
0.25833	0
0.26200	0
0.26567	0
0.26933	-0
0.27300	-0
0.27667	-0
0.28033	-1
0.28400	-1
0.28767	-1
0.29133	-0
0.29500	-0
0.29867	0
0.30233	0
0.30600	0
0.30967	0
0.31333	1
0.31700	1
0.32067	1
0.32433	1
0.32800	1
0.33167	1
0.33533	2
0.33900	2
0.34267	2
0.34633	2
0.35000	2
0.35367	2
0.35733	2
0.36100	2
0.36467	2
0.36833	3
0.37200	3
0.37567	2
0.37933	2
0.38300	2
0.38667	2
0.39033	2
0.39400	2
0.39767	2
0.40133	2
0.40500	2
0.40867	1
0.41233	1
0.41600	1
0.41967	1
0.42333	1
0.42700	1
0.43067	0
0.43433	0
0.43800	0
0.44167	0
0.44533	0
0.44900	0
0.45267	0
0.45633	0
0.46000	0
0.46367	0
0.46733	0
0.47100	-0
0.47467	-0
0.47833	-0
0.48200	-0
0.48567	-0
0.48933	-0
0.49300	-1
0.49667	-1
0.50033	-1
0.50400	-1
0.50767	-0
0.51133	0
0.51500	0
0.51867	0
0.52233	0
0.52600	0
0.52967	0
0.53333	-0
0.53700	-0
0.54067	-0
0.54433	-0
0.54800	-0
0.55167	-0
0.55533	-1
0.55900	-1
0.56267	-1
0.56633	-1
0.57000	-0
0.57367	-0
0.57733	-0
0.58100	-0
0.58467	-0
0.58833	-0
0.59200	-0
0.59567	-1
0.59933	-1
0.60300	-1
0.60667	-1
0.61033	-1
0.61400	-1
0.61767	-1
0.62133	-1
0.62500	-1
0.62867	-1
0.63233	-1
0.63600	-1
0.63967	-1
0.64333	-1
0.64700	-1
0.65067	-1
0.65433	-0
0.65800	-0
0.66167	-0
0.66533	-0
0.66900	-1
0.67267	-1
0.67633	-1
0.68000	-1
0.68367	-1
0.68733	-1
0.69100	-1
0.69467	-2
0.69833	-2
0.70200	-2
0.70567	-2
0.70933	-2
0.71300	-2
0.71667	-1
0.72033	-1
0.72400	-1
0.72767	-1
0.73133	-0
0.73500	-0
0.73867	0
0.74233	0
0.74600	0
0.74967	0
0.75333	-0
0.75700	-1
0.76067	-1
0.76433	-1
0.76800	-1
0.77167	-1
0.77533	-1
0.77900	-1
0.78267	-1
0.78633	-1
0.79000	-1
0.79367	-1
0.79733	-1
0.80100	-1
0.80467	-1
0.80833	-1
0.81200	-0
0.81567	-0
0.81933	-0
0.82300	-1
0.82667	-1
0.83033	-1
0.83400	-0
0.83767	-0
0.84133	-0
0.84500	-0
0.84867	-0
0.85233	-0
0.85600	-0
0.85967	-0
0.86333	0
0.86700	0
0.87067	-0
0.87433	-0
0.87800	-0
0.88167	-0
0.88533	-0
0.88900	-0
0.89267	0
0.89633	0
0.90000	0
0.90367	0
0.90733	0
0.91100	0
0.91467	-0
0.91833	-0
0.92200	-0
0.92567	-0
0.92933	-0
0.93300	-0
0.93667	-0
0.94033	-1
0.94400	-1
0.94767	-1
0.95133	-1
0.95500	-1
0.95867	-1
0.96233	-1
0.96600	-1
0.96967	-1
0.97333	-1
0.97700	-1
0.98067	-1
0.98433	-1
0.98800	-1
0.99167	-0
0.99533	-0
0.99900	0
1.00267	0
1.00633	1
1.01000	1
1.01367	1
1.01733	0
1.02100	0
1.02467	-0
1.02833	-0
1.03200	-0
1.03567	-0
1.03933	-0
1.04300	-1
1.04667	-1
1.05033	-1
1.05400	-1
1.05767	-1
1.06133	-1
1.06500	-1
1.06867	-1
1.07233	-2
1.07600	-1
1.07967	-1
1.08333	-1
1.08700	-1
1.09067	-1
1.09433	-1
1.09800	-1
1.10167	-1
1.10533	-1
1.10900	-1
1.11267	-1
1.11633	-2
1.12000	-2
1.12367	-2
1.12733	-2
1.13100	-2
1.13467	-2
1.13833	-2
1.14200	-2
1.14567	-2
1.14933	-3
1.15300	-3
1.15667	-3
1.16033	-3
1.16400	-3
1.16767	-3
1.17133	-3
1.17500	-3
1.17867	-3
1.18233	-2
1.18600	-2
1.18967	-2
1.19333	-1
1.19700	-1
1.20067	-1
1.20433	-1
1.20800	-1
1.21167	-0
1.21533	-0
1.21900	0
1.22267	0
1.22633	0
1.23000	0
1.23367	0
1.23733	0
1.24100	0
1.24467	0
1.24833	0
1.25200	-0
1.25567	-0
1.25933	-1
1.26300	-1
1.26667	-1
1.27033	-1
1.27400	-1
1.27767	-1
1.28133	-1
1.28500	-1
1.28867	-1
1.29233	-1
1.29600	-1
1.29967	-1
1.30333	-0
1.30700	-0
1.31067	0
1.31433	0
1.31800	0
1.32167	0
1.32533	0
1.32900	1
1.33267	1
1.33633	1
1.34000	1
1.34367	1
1.34733	0
1.35100	0
1.35467	0
1.35833	0
1.36200	-0
1.36567	-0
1.36933	-0
1.37300	-1
1.37667	-1
1.38033	-1
1.38400	-1
1.38767	-2
1.39133	-2
1.39500	-2
1.39867	-2
1.40233	-2
1.40600	-2
1.40967	-3
1.41333	-3
1.41700	-3
1.42067	-4
1.42433	-4
1.42800	-4
1.43167	-4
1.43533	-4
1.43900	-4
1.44267	-4
1.44633	-3
1.45000	-3
1.45367	-3
1.45733	-3
1.46100	-3
1.46467	-3
1.46833	-3
1.47200	-2
1.47567	-2
1.47933	-2
1.48300	-2
1.48667	-2
1.49033	-2
1.49400	-2
1.49767	-2
1.50133	-2
1.50500	-2
1.50867	-1
1.51233	-1
1.51600	-1
1.51967	-1
1.52333	-1
1.52700	-1
1.53067	-1
1.53433	-0
1.53800	-1
1.54167	-1
1.54533	-1
1.54900	-1
1.55267	-2
1.55633	-2
1.56000	-2
1.56367	-2
1.56733	-1
1.57100	-1
1.57467	-2
1.57833	-2
1.58200	-2
1.58567	-2
1.58933	-2
1.59300	-2
1.59667	-3
1.60033	-3
1.60400	-4
1.60767	-5
1.61133	-7
1.61500	-9
1.61867	-11
1.62233	-13
1.62600	-16
1.62967	-19
1.63333	-22
1.63700	-25
1.64067	-28
1.64433	-32
1.64800	-35
1.65167	-39
1.65533	-42
1.65900	-46
1.66267	-51
1.66633	-55
1.67000	-60
1.67367	-65
1.67733	-70
1.68100	-75
1.68467	-79
1.68833	-84
1.69200	-88
1.69567	-91
1.69933	-94
1.70300	-96
1.70667	-98
1.71033	-100
1.71400	-102
1.71767	-103
1.72133	-104
1.72500	-105
1.72867	-107
1.73233	-108
1.73600	-109
1.73967	-110
1.74333	-110
1.74700	-110
1.75067	-111
1.75433	-112
1.75800	-112
1.76167	-113
1.76533	-114
1.76900	-115
1.77267	-115
1.77633	-115
1.78000	-115
1.78367	-115
1.78733	-116
1.79100	-116
1.79467	-116
1.79833	-116
1.80200	-116
1.80567	-117
1.80933	-117
1.81300	-118
1.81667	-118
1.82033	-119
1.82400	-119
1.82767	-119
1.83133	-119
1.83500	-119
1.83867	-118
1.84233	-118
1.84600	-118
1.84967	-118
1.85333	-118
1.85700	-118
1.86067	-117
1.86433	-117
1.86800	-117
1.87167	-117
1.87533	-117
1.87900	-117
1.88267	-117
1.88633	-116
1.89000	-116
1.89367	-116
1.89733	-116
1.90100	-116
1.90467	-116
1.90833	-116
1.91200	-115
1.91567	-115
1.91933	-115
1.92300	-115
1.92667	-115
1.93033	-115
1.93400	-116
1.93767	-116
1.94133	-116
1.94500	-116
1.94867	-116
1.95233	-116
1.95600	-116
1.95967	-115
1.96333	-115
1.96700	-114
1.97067	-113
1.97433	-113
1.97800	-112
1.98167	-111
1.98533	-111
1.98900	-111
1.99267	-110
1.99633	-110
2.00000	-110
2.00367	-109
2.00733	-109
2.01100	-108
2.01467	-107
2.01833	-107
2.02200	-106
2.02567	-106
2.02933	-106
2.03300	-106
2.03667	-107
2.04033	-107
2.04400	-107
2.04767	-107
2.05133	-107
2.05500	-106
2.05867	-106
2.06233	-106
2.06600	-105
2.06967	-105
2.07333	-105
2.07700	-105
2.08067	-105
2.08433	-104
2.08800	-104
2.09167	-104
2.09533	-103
2.09900	-103
2.10267	-103
2.10633	-103
2.11000	-102
2.11367	-102
2.11733	-102
2.12100	-101
2.12467	-101
2.12833	-101
2.13200	-101
2.13567	-101
2.13933	-101
2.14300	-101
2.14667	-100
2.15033	-99
2.15400	-99
2.15767	-99
2.16133	-99
2.16500	-99
2.16867	-100
2.17233	-100
2.17600	-100
2.17967	-99
2.18333	-98
2.18700	-98
2.19067	-97
2.19433	-96
2.19800	-96
2.20167	-95
2.20533	-95
2.20900	-95
2.21267	-95
2.21633	-94
2.22000	-94
2.22367	-94
2.22733	-93
2.23100	-93
2.23467	-93
2.23833	-93
2.24200	-92
2.24567	-92
2.24933	-92
2.25300	-91
2.25667	-91
2.26033	-91
2.26400	-91
2.26767	-91
2.27133	-91
2.27500	-91
2.27867	-91
2.28233	-91
2.28600	-90
2.28967	-90
2.29333	-89
2.29700	-88
2.30067	-88
2.30433	-87
2.30800	-87
2.31167	-86
2.31533	-86
2.31900	-86
2.32267	-86
2.32633	-86
2.33000	-85
2.33367	-84
2.33733	-84
2.34100	-83
2.34467	-82
2.34833	-82
2.35200	-81
2.35567	-80
2.35933	-80
2.36300	-79
2.36667	-77
2.37033	-76
2.37400	-74
2.37767	-71
2.38133	-68
2.38500	-65
2.38867	-61
2.39233	-57
2.39600	-53
2.39967	-49
2.40333	-45
2.40700	-41
2.41067	-38
2.41433	-34
2.41800	-30
2.42167	-27
2.42533	-24
2.42900	-21
2.43267	-18
2.43633	-16
2.44000	-14
2.44367	-12
2.44733	-11
2.45100	-10
2.45467	-9
2.45833	-8
2.46200	-6
2.46567	-5
2.46933	-3
2.47300	-1
2.47667	1
2.48033	2
2.48400	4
2.48767	5
2.49133	6
2.49500	7
2.49867	8
2.50233	9
2.50600	9
2.50967	9
2.51333	9
2.51700	10
2.52067	10
2.52433	11
2.52800	12
2.53167	12
2.53533	13
2.53900	13
2.54267	13
2.54633	13
2.55000	14
2.55367	15
2.55733	15
2.56100	16
2.56467	16
2.56833	17
2.57200	17
2.57567	17
2.57933	17
2.58300	17
2.58667	17
2.59033	17
2.59400	16
2.59767	16
2.60133	16
2.60500	16
2.60867	17
2.61233	17
2.61600	18
2.61967	18
2.62333	19
2.62700	20
2.63067	20
2.63433	20
2.63800	20
2.64167	20
2.64533	20
2.64900	20
2.65267	20
2.65633	20
2.66000	20
2.66367	20
2.66733	20
2.67100	21
2.67467	21
2.67833	22
2.68200	22
2.68567	22
2.68933	22
2.69300	22
2.69667	22
2.70033	22
2.70400	22
2.70767	22
2.71133	22
2.71500	22
2.71867	23
2.72233	23
2.72600	23
2.72967	24
2.73333	24
2.73700	25
2.74067	25
2.74433	26
2.74800	26
2.75167	26
2.75533	26
2.75900	25
2.76267	25
2.76633	25
2.77000	24
2.77367	24
2.77733	24
2.78100	24
2.78467	24
2.78833	24
2.79200	24
2.79567	25
2.79933	25
2.80300	25
2.80667	25
2.81033	25
2.81400	25
2.81767	25
2.82133	25
2.82500	25
2.82867	26
2.83233	26
2.83600	26
2.83967	26
2.84333	26
2.84700	26
2.85067	26
2.85433	26
2.85800	25
2.86167	23
2.86533	20
2.86900	14
2.87267	6
2.87633	-5
2.88000	-20
2.88367	-39
2.88733	-61
2.89100	-87
2.89467	-117
2.89833	-151
2.90200	-188
2.90567	-229
2.90933	-272
2.91300	-317
2.91667	-364
2.92033	-413
2.92400	-463
2.92767	-513
2.93133	-564
2.93500	-614
2.93867	-665
2.94233	-715
2.94600	-764
2.94967	-813
2.95333	-864
2.95700	-921
2.96067	-982
2.96433	-1039
2.96800	-1081
2.97167	-1100
2.97533	-1093
2.97900	-1060
2.98267	-1008
2.98633	-941
2.99000	-865
2.99367	-785
2.99733	-704
3.00100	-626
3.00467	-552
3.00833	-483
3.01200	-421
3.01567	-364
3.01933	-313
3.02300	-269
3.02667	-230
3.03033	-196
3.03400	-166
3.03767	-140
3.04133	-118
3.04500	-99
3.04867	-83
3.05233	-69
3.05600	-57
3.05967	-47
3.06333	-38
3.06700	-30
3.07067	-24
3.07433	-18
3.07800	-13
3.08167	-9
3.08533	-6
3.08900	-3
3.09267	0
3.09633	2
3.10000	4
3.10367	6
3.10733	7
3.11100	8
3.11467	9
3.11833	10
3.12200	11
3.12567	12
3.12933	13
3.13300	13
3.13667	14
3.14033	15
3.14400	15
3.14767	16
3.15133	16
3.15500	17
3.15867	17
3.16233	18
3.16600	18
3.16967	18
3.17333	18
3.17700	18
3.18067	18
3.18433	19
3.18800	19
3.19167	19
3.19533	19
3.19900	19
3.20267	20
3.20633	20
3.21000	20
3.21367	20
3.21733	21
3.22100	21
3.22467	21
3.22833	22
3.23200	22
3.23567	22
3.23933	22
3.24300	22
3.24667	22
3.25033	22
3.25400	22
3.25767	22
3.26133	22
3.26500	22
3.26867	23
3.27233	23
3.27600	23
3.27967	24
3.28333	24
3.28700	24
3.29067	25
3.29433	25
3.29800	25
3.30167	25
3.30533	25
3.30900	25
3.31267	25
3.31633	25
3.32000	25
3.32367	25
3.32733	25
3.33100	25
3.33467	25
3.33833	25
3.34200	25
3.34567	25
3.34933	25
3.35300	25
3.35667	25
3.36033	25
3.36400	25
3.36767	25
3.37133	25
3.37500	25
3.37867	25
3.38233	25
3.38600	26
3.38967	26
3.39333	26
3.39700	26
3.40067	26
3.40433	26
3.40800	27
3.41167	27
3.41533	27
3.41900	28
3.42267	28
3.42633	28
3.43000	28
3.43367	28
3.43733	28
3.44100	29
3.44467	29
3.44833	29
3.45200	29
3.45567	29
3.45933	30
3.46300	30
3.46667	30
3.47033	30
3.47400	30
3.47767	30
3.48133	30
3.48500	30
3.48867	29
3.49233	29
3.49600	29
3.49967	29
3.50333	29
3.50700	29
3.51067	29
3.51433	29
3.51800	29
3.52167	29
3.52533	29
3.52900	29
3.53267	29
3.53633	28
3.54000	28
3.54367	28
3.54733	28
3.55100	28
3.55467	28
3.55833	27
3.56200	27
3.56567	27
3.56933	27
3.57300	27
3.57667	28
3.58033	28
3.58400	28
3.58767	28
3.59133	28
3.59500	28
3.59867	27
3.60233	27
3.60600	27
3.60967	27
3.61333	27
3.61700	27
3.62067	27
3.62433	28
3.62800	28
3.63167	28
3.63533	27
3.63900	27
3.64267	27
3.64633	27
3.65000	27
3.65367	27
3.65733	27
3.66100	27
3.66467	27
3.66833	27
3.67200	27
3.67567	27
3.67933	27
3.68300	28
3.68667	28
3.69033	28
3.69400	28
3.69767	28
3.70133	28
3.70500	28
3.70867	27
3.71233	27
3.71600	27
3.71967	27
3.72333	27
3.72700	27
3.73067	27
3.73433	27
3.73800	27
3.74167	27
3.74533	27
3.74900	27
3.75267	27
3.75633	27
3.76000	27
3.76367	27
3.76733	27
3.77100	27
3.77467	27
3.77833	27
3.78200	27
3.78567	27
3.78933	27
3.79300	27
3.79667	27
3.80033	27
3.80400	27
3.80767	27
3.81133	27
3.81500	27
3.81867	27
3.82233	27
3.82600	27
3.82967	27
3.83333	27
3.83700	27
3.84067	27
3.84433	27
3.84800	27
3.85167	27
3.85533	27
3.85900	27
3.86267	27
3.86633	27
3.87000	27
3.87367	27
3.87733	27
3.88100	27
3.88467	27
3.88833	27
3.89200	27
3.89567	27
3.89933	27
3.90300	27
3.90667	27
3.91033	27
3.91400	27
3.91767	27
3.92133	27
3.92500	27
3.92867	26
3.93233	26
3.93600	26
3.93967	26
3.94333	26
3.94700	26
3.95067	26
3.95433	26
3.95800	26
3.96167	26
3.96533	26
3.96900	27
3.97267	27
3.97633	27
3.98000	27
3.98367	27
3.98733	27
3.99100	27
3.99467	27
3.99833	27

[Chromatogram (Ch3)]
Interval(msec)	220
# of Points	1091
Start Time(min)	0.002
End Time(min)	3.998
R.Time (min)	Intensity
0.00167	1
0.00533	5
0.00900	6
0.01267	6
0.01633	6
0.02000	7
0.02367	6
0.02733	3
0.03100	2
0.03467	-1
0.03833	-4
0.04200	-4
0.04567	-2
0.04933	-0
0.05300	1
0.05667	3
0.06033	3
0.06400	-1
0.06767	-2
0.07133	-3
0.07500	-2
0.07867	-2
0.08233	-1
0.08600	0
0.08967	-0
0.09333	1
0.09700	3
0.10067	4
0.10433	5
0.10800	6
0.11167	4
0.11533	2
0.11900	2
0.12267	3
0.12633	0
0.13000	-2
0.13367	0
0.13733	2
0.14100	2
0.14467	2
0.14833	4
0.15200	5
0.15567	6
0.15933	7
0.16300	6
0.16667	6
0.17033	7
0.17400	6
0.17767	5
0.18133	4
0.18500	4
0.18867	4
0.19233	5
0.19600	4
0.19967	5
0.20333	7
0.20700	6
0.21067	7
0.21433	6
0.21800	4
0.22167	4
0.22533	4
0.22900	5
0.23267	7
0.23633	9
0.24000	7
0.24367	5
0.24733	4
0.25100	3
0.25467	3
0.25833	3
0.26200	2
0.26567	-1
0.26933	0
0.27300	-0
0.27667	-0
0.28033	2
0.28400	5
0.28767	5
0.29133	5
0.29500	6
0.29867	8
0.30233	10
0.30600	10
0.30967	9
0.31333	7
0.31700	8
0.32067	7
0.32433	8
0.32800	9
0.33167	8
0.33533	9
0.33900	10
0.34267	10
0.34633	9
0.35000	8
0.35367	6
0.35733	7
0.36100	10
0.36467	12
0.36833	13
0.37200	12
0.37567	10
0.37933	11
0.38300	11
0.38667	12
0.39033	13
0.39400	14
0.39767	16
0.40133	16
0.40500	16
0.40867	15
0.41233	14
0.41600	14
0.41967	14
0.42333	14
0.42700	14
0.43067	12
0.43433	13
0.43800	16
0.44167	19
0.44533	20
0.44900	18
0.45267	16
0.45633	14
0.46000	13
0.46367	15
0.46733	16
0.47100	15
0.47467	14
0.47833	12
0.48200	13
0.48567	14
0.48933	14
0.49300	14
0.49667	14
0.50033	14
0.50400	14
0.50767	13
0.51133	12
0.51500	10
0.51867	9
0.52233	10
0.52600	12
0.52967	15
0.53333	15
0.53700	15
0.54067	14
0.54433	13
0.54800	15
0.55167	16
0.55533	15
0.55900	16
0.56267	18
0.56633	20
0.57000	18
0.57367	17
0.57733	18
0.58100	19
0.58467	21
0.58833	22
0.59200	22
0.59567	20
0.59933	19
0.60300	18
0.60667	18
0.61033	17
0.61400	16
0.61767	15
0.62133	13
0.62500	13
0.62867	15
0.63233	18
0.63600	18
0.63967	17
0.64333	15
0.64700	16
0.65067	17
0.65433	18
0.65800	20
0.66167	22
0.66533	22
0.66900	19
0.67267	16
0.67633	15
0.68000	15
0.68367	15
0.68733	16
0.69100	17
0.69467	20
0.69833	23
0.70200	23
0.70567	22
0.70933	22
0.71300	24
0.71667	24
0.72033	24
0.72400	23
0.72767	21
0.73133	22
0.73500	22
0.73867	22
0.74233	22
0.74600	23
0.74967	24
0.75333	24
0.75700	26
0.76067	25
0.76433	24
0.76800	25
0.77167	25
0.77533	24
0.77900	23
0.78267	23
0.78633	26
0.79000	26
0.79367	24
0.79733	22
0.80100	23
0.80467	24
0.80833	26
0.81200	24
0.81567	23
0.81933	24
0.82300	24
0.82667	24
0.83033	22
0.83400	22
0.83767	25
0.84133	27
0.84500	26
0.84867	24
0.85233	23
0.85600	23
0.85967	24
0.86333	23
0.86700	23
0.87067	23
0.87433	24
0.87800	26
0.88167	27
0.88533	27
0.88900	26
0.89267	24
0.89633	22
0.90000	19
0.90367	19
0.90733	19
0.91100	20
0.91467	20
0.91833	24
0.92200	29
0.92567	29
0.92933	27
0.93300	27
0.93667	28
0.94033	27
0.94400	27
0.94767	26
0.95133	26
0.95500	25
0.95867	24
0.96233	24
0.96600	25
0.96967	27
0.97333	27
0.97700	24
0.98067	20
0.98433	18
0.98800	18
0.99167	19
0.99533	20
0.99900	21
1.00267	21
1.00633	20
1.01000	20
1.01367	21
1.01733	20
1.02100	22
1.02467	24
1.02833	26
1.03200	26
1.03567	25
1.03933	21
1.04300	18
1.04667	18
1.05033	20
1.05400	22
1.05767	24
1.06133	24
1.06500	25
1.06867	22
1.07233	19
1.07600	18
1.07967	21
1.08333	22
1.08700	21
1.09067	19
1.09433	19
1.09800	20
1.10167	20
1.10533	22
1.10900	25
1.11267	25
1.11633	24
1.12000	24
1.12367	24
1.12733	23
1.13100	22
1.13467	23
1.13833	22
1.14200	24
1.14567	26
1.14933	26
1.15300	27
1.15667	27
1.16033	27
1.16400	27
1.16767	28
1.17133	32
1.17500	33
1.17867	32
1.18233	30
1.18600	29
1.18967	29
1.19333	28
1.19700	27
1.20067	25
1.20433	23
1.20800	25
1.21167	27
1.21533	29
1.21900	30
1.22267	31
1.22633	30
1.23000	29
1.23367	30
1.23733	30
1.24100	30
1.24467	32
1.24833	31
1.25200	30
1.25567	30
1.25933	30
1.26300	27
1.26667	26
1.27033	27
1.27400	28
1.27767	26
1.28133	27
1.28500	27
1.28867	28
1.29233	29
1.29600	31
1.29967	31
1.30333	31
1.30700	31
1.31067	32
1.31433	30
1.31800	30
1.32167	30
1.32533	28
1.32900	28
1.33267	27
1.33633	27
1.34000	27
1.34367	26
1.34733	27
1.35100	28
1.35467	28
1.35833	26
1.36200	25
1.36567	26
1.36933	28
1.37300	30
1.37667	30
1.38033	30
1.38400	30
1.38767	29
1.39133	28
1.39500	27
1.39867	26
1.40233	25
1.40600	23
1.40967	23
1.41333	27
1.41700	28
1.42067	27
1.42433	28
1.42800	29
1.43167	30
1.43533	30
1.43900	28
1.44267	27
1.44633	27
1.45000	28
1.45367	28
1.45733	27
1.46100	27
1.46467	27
1.46833	28
1.47200	29
1.47567	27
1.47933	26
1.48300	27
1.48667	27
1.49033	26
1.49400	25
1.49767	25
1.50133	27
1.50500	27
1.50867	26
1.51233	26
1.51600	25
1.51967	25
1.52333	26
1.52700	26
1.53067	25
1.53433	25
1.53800	25
1.54167	26
1.54533	26
1.54900	25
1.55267	27
1.55633	27
1.56000	26
1.56367	25
1.56733	25
1.57100	25
1.57467	24
1.57833	26
1.58200	28
1.58567	28
1.58933	28
1.59300	27
1.59667	27
1.60033	29
1.60400	30
1.60767	29
1.61133	28
1.61500	29
1.61867	32
1.62233	35
1.62600	35
1.62967	34
1.63333	31
1.63700	29
1.64067	30
1.64433	32
1.64800	34
1.65167	38
1.65533	39
1.65900	40
1.66267	39
1.66633	41
1.67000	42
1.67367	42
1.67733	41
1.68100	40
1.68467	40
1.68833	39
1.69200	38
1.69567	39
1.69933	40
1.70300	41
1.70667	43
1.71033	42
1.71400	42
1.71767	42
1.72133	42
1.72500	40
1.72867	41
1.73233	41
1.73600	41
1.73967	43
1.74333	48
1.74700	51
1.75067	51
1.75433	48
1.75800	47
1.76167	48
1.76533	49
1.76900	49
1.77267	48
1.77633	47
1.78000	47
1.78367	48
1.78733	48
1.79100	47
1.79467	47
1.79833	47
1.80200	46
1.80567	46
1.80933	48
1.81300	50
1.81667	50
1.82033	51
1.82400	52
1.82767	50
1.83133	49
1.83500	51
1.83867	52
1.84233	53
1.84600	55
1.84967	56
1.85333	59
1.85700	62
1.86067	63
1.86433	62
1.86800	61
1.87167	60
1.87533	59
1.87900	60
1.88267	62
1.88633	65
1.89000	64
1.89367	63
1.89733	63
1.90100	61
1.90467	62
1.90833	63
1.91200	65
1.91567	64
1.91933	65
1.92300	65
1.92667	66
1.93033	66
1.93400	66
1.93767	65
1.94133	64
1.94500	65
1.94867	68
1.95233	69
1.95600	71
1.95967	74
1.96333	75
1.96700	74
1.97067	72
1.97433	71
1.97800	73
1.98167	73
1.98533	72
1.98900	72
1.99267	72
1.99633	70
2.00000	71
2.00367	73
2.00733	73
2.01100	74
2.01467	74
2.01833	73
2.02200	73
2.02567	73
2.02933	75
2.03300	76
2.03667	78
2.04033	81
2.04400	85
2.04767	86
2.05133	86
2.05500	86
2.05867	85
2.06233	87
2.06600	87
2.06967	89
2.07333	88
2.07700	89
2.08067	92
2.08433	91
2.08800	89
2.09167	89
2.09533	90
2.09900	93
2.10267	93
2.10633	93
2.11000	95
2.11367	97
2.11733	98
2.12100	100
2.12467	103
2.12833	106
2.13200	106
2.13567	106
2.13933	105
2.14300	105
2.14667	108
2.15033	110
2.15400	110
2.15767	110
2.16133	113
2.16500	115
2.16867	117
2.17233	119
2.17600	120
2.17967	121
2.18333	120
2.18700	121
2.19067	124
2.19433	127
2.19800	131
2.20167	133
2.20533	133
2.20900	134
2.21267	133
2.21633	130
2.22000	126
2.22367	126
2.22733	129
2.23100	134
2.23467	137
2.23833	139
2.24200	139
2.24567	138
2.24933	138
2.25300	140
2.25667	143
2.26033	145
2.26400	146
2.26767	147
2.27133	146
2.27500	145
2.27867	146
2.28233	148
2.28600	150
2.28967	152
2.29333	154
2.29700	153
2.30067	150
2.30433	150
2.30800	151
2.31167	152
2.31533	152
2.31900	156
2.32267	159
2.32633	162
2.33000	164
2.33367	163
2.33733	161
2.34100	160
2.34467	159
2.34833	158
2.35200	159
2.35567	161
2.35933	164
2.36300	166
2.36667	169
2.37033	170
2.37400	172
2.37767	176
2.38133	177
2.38500	177
2.38867	176
2.39233	173
2.39600	173
2.39967	177
2.40333	180
2.40700	182
2.41067	184
2.41433	187
2.41800	189
2.42167	189
2.42533	189
2.42900	191
2.43267	191
2.43633	190
2.44000	193
2.44367	215
2.44733	268
2.45100	328
2.45467	372
2.45833	385
2.46200	377
2.46567	370
2.46933	367
2.47300	355
2.47667	336
2.48033	314
2.48400	289
2.48767	266
2.49133	247
2.49500	234
2.49867	227
2.50233	229
2.50600	232
2.50967	239
2.51333	244
2.51700	245
2.52067	242
2.52433	234
2.52800	223
2.53167	210
2.53533	196
2.53900	183
2.54267	172
2.54633	163
2.55000	155
2.55367	150
2.55733	147
2.56100	144
2.56467	143
2.56833	144
2.57200	146
2.57567	147
2.57933	150
2.58300	154
2.58667	159
2.59033	163
2.59400	167
2.59767	172
2.60133	177
2.60500	181
2.60867	182
2.61233	176
2.61600	164
2.61967	145
2.62333	118
2.62700	83
2.63067	44
2.63433	4
2.63800	-36
2.64167	-73
2.64533	-105
2.64900	-131
2.65267	-152
2.65633	-164
2.66000	-171
2.66367	-174
2.66733	-174
2.67100	-172
2.67467	-168
2.67833	-161
2.68200	-153
2.68567	-146
2.68933	-138
2.69300	-130
2.69667	-121
2.70033	-113
2.70400	-105
2.70767	-97
2.71133	-90
2.71500	-79
2.71867	-69
2.72233	-63
2.72600	-58
2.72967	-53
2.73333	-45
2.73700	-36
2.74067	-28
2.74433	-25
2.74800	-23
2.75167	-19
2.75533	-14
2.75900	-9
2.76267	-2
2.76633	5
2.77000	9
2.77367	13
2.77733	17
2.78100	23
2.78467	29
2.78833	34
2.79200	37
2.79567	43
2.79933	48
2.80300	52
2.80667	57
2.81033	64
2.81400	69
2.81767	71
2.82133	71
2.82500	71
2.82867	74
2.83233	81
2.83600	98
2.83967	134
2.84333	206
2.84700	337
2.85067	553
2.85433	876
2.85800	1319
2.86167	1875
2.86533	2516
2.86900	3200
2.87267	3877
2.87633	4489
2.88000	4989
2.88367	5343
2.88733	5533
2.89100	5562
2.89467	5448
2.89833	5214
2.90200	4895
2.90567	4524
2.90933	4126
2.91300	3723
2.91667	3331
2.92033	2958
2.92400	2612
2.92767	2297
2.93133	2013
2.93500	1761
2.93867	1539
2.94233	1342
2.94600	1170
2.94967	1019
2.95333	886
2.95700	769
2.96067	671
2.96433	586
2.96800	511
2.97167	446
2.97533	389
2.97900	341
2.98267	299
2.98633	267
2.99000	237
2.99367	203
2.99733	163
3.00100	127
3.00467	97
3.00833	81
3.01200	83
3.01567	107
3.01933	147
3.02300	194
3.02667	243
3.03033	292
3.03400	339
3.03767	380
3.04133	417
3.04500	448
3.04867	472
3.05233	496
3.05600	515
3.05967	532
3.06333	547
3.06700	560
3.07067	570
3.07433	579
3.07800	588
3.08167	596
3.08533	602
3.08900	607
3.09267	614
3.09633	622
3.10000	626
3.10367	629
3.10733	632
3.11100	635
3.11467	640
3.11833	645
3.12200	650
3.12567	654
3.12933	654
3.13300	655
3.13667	659
3.14033	667
3.14400	672
3.14767	674
3.15133	677
3.15500	679
3.15867	683
3.16233	686
3.16600	688
3.16967	690
3.17333	693
3.17700	695
3.18067	697
3.18433	702
3.18800	706
3.19167	707
3.19533	709
3.19900	710
3.20267	710
3.20633	709
3.21000	708
3.21367	709
3.21733	712
3.22100	714
3.22467	715
3.22833	714
3.23200	713
3.23567	714
3.23933	715
3.24300	719
3.24667	720
3.25033	720
3.25400	720
3.25767	719
3.26133	719
3.26500	720
3.26867	719
3.27233	717
3.27600	714
3.27967	710
3.28333	707
3.28700	703
3.29067	699
3.29433	699
3.29800	698
3.30167	696
3.30533	694
3.30900	693
3.31267	694
3.31633	691
3.32000	687
3.32367	682
3.32733	676
3.33100	675
3.33467	671
3.33833	666
3.34200	660
3.34567	655
3.34933	653
3.35300	651
3.35667	650
3.36033	647
3.36400	645
3.36767	643
3.37133	639
3.37500	633
3.37867	628
3.38233	625
3.38600	621
3.38967	615
3.39333	609
3.39700	603
3.40067	596
3.40433	590
3.40800	586
3.41167	584
3.41533	581
3.41900	579
3.42267	576
3.42633	569
3.43000	563
3.43367	558
3.43733	554
3.44100	551
3.44467	550
3.44833	550
3.45200	548
3.45567	544
3.45933	538
3.46300	534
3.46667	531
3.47033	527
3.47400	523
3.47767	520
3.48133	516
3.48500	513
3.48867	510
3.49233	505
3.49600	503
3.49967	500
3.50333	497
3.50700	495
3.51067	492
3.51433	489
3.51800	487
3.52167	484
3.52533	480
3.52900	476
3.53267	475
3.53633	472
3.54000	469
3.54367	466
3.54733	465
3.55100	464
3.55467	462
3.55833	457
3.56200	452
3.56567	448
3.56933	446
3.57300	442
3.57667	436
3.58033	429
3.58400	425
3.58767	422
3.59133	421
3.59500	419
3.59867	420
3.60233	419
3.60600	416
3.60967	414
3.61333	414
3.61700	413
3.62067	410
3.62433	407
3.62800	404
3.63167	402
3.63533	400
3.63900	398
3.64267	397
3.64633	395
3.65000	394
3.65367	394
3.65733	392
3.66100	390
3.66467	388
3.66833	386
3.67200	384
3.67567	378
3.67933	373
3.68300	367
3.68667	363
3.69033	362
3.69400	362
3.69767	363
3.70133	363
3.70500	363
3.70867	361
3.71233	361
3.71600	359
3.71967	356
3.72333	354
3.72700	355
3.73067	353
3.73433	353
3.73800	352
3.74167	349
3.74533	347
3.74900	346
3.75267	344
3.75633	342
3.76000	339
3.76367	336
3.76733	335
3.77100	336
3.77467	336
3.77833	335
3.78200	333
3.78567	333
3.78933	335
3.79300	334
3.79667	333
3.80033	332
3.80400	330
3.80767	328
3.81133	326
3.81500	324
3.81867	322
3.82233	315
3.82600	310
3.82967	308
3.83333	307
3.83700	307
3.84067	308
3.84433	308
3.84800	309
3.85167	310
3.85533	309
3.85900	307
3.86267	305
3.86633	304
3.87000	303
3.87367	301
3.87733	297
3.88100	294
3.88467	291
3.88833	289
3.89200	290
3.89567	290
3.89933	290
3.90300	290
3.90667	289
3.91033	290
3.91400	289
3.91767	288
3.92133	287
3.92500	288
3.92867	290
3.93233	290
3.93600	287
3.93967	284
3.94333	282
3.94700	278
3.95067	275
3.95433	274
3.95800	275
3.96167	275
3.96533	276
3.96900	276
3.97267	276
3.97633	274
3.98000	272
3.98367	272
3.98733	273
3.99100	271
3.99467	268
3.99833	266

[Status Trace (Column Oven Temperature)]
Interval(msec)	1000
# of Points	240
Start Time(min)	0.007
End Time(min)	3.990
Intensity Units	
Intensity Multiplier	1
R.Time (min)	Intensity
0.00678	35.06
0.02345	35.06
0.04012	35.06
0.05678	35.05
0.07345	35.04
0.09012	35.03
0.10678	35.03
0.12345	35.02
0.14012	35.02
0.15678	35.02
0.17345	35.01
0.19012	35.01
0.20678	35.02
0.22345	35.03
0.24012	35.03
0.25678	35.03
0.27345	35.04
0.29012	35.03
0.30678	35.02
0.32345	35.02
0.34012	35.01
0.35678	35.00
0.37345	34.99
0.39012	34.98
0.40678	34.98
0.42345	34.98
0.44012	34.99
0.45678	35.00
0.47345	35.00
0.49012	35.00
0.50678	35.00
0.52345	35.00
0.54012	35.00
0.55678	35.00
0.57345	34.99
0.59012	34.99
0.60678	34.99
0.62345	35.00
0.64012	35.00
0.65678	35.00
0.67345	35.00
0.69012	35.01
0.70678	35.01
0.72345	34.99
0.74012	34.99
0.75678	35.00
0.77345	35.00
0.79012	35.00
0.80678	35.01
0.82345	35.00
0.84012	35.00
0.85678	35.01
0.87345	35.00
0.89012	35.00
0.90678	35.00
0.92345	34.99
0.94012	34.99
0.95678	34.99
0.97345	34.99
0.99012	34.99
1.00678	34.99
1.02345	34.98
1.04012	34.99
1.05678	34.99
1.07345	34.99
1.09012	34.99
1.10678	35.00
1.12345	35.01
1.14012	35.01
1.15678	35.02
1.17345	35.02
1.19012	35.02
1.20678	35.01
1.22345	35.00
1.24012	35.00
1.25678	35.00
1.27345	35.00
1.29012	35.00
1.30678	34.99
1.32345	34.98
1.34012	34.99
1.35678	35.00
1.37345	35.01
1.39012	35.02
1.40678	35.02
1.42345	35.02
1.44012	35.02
1.45678	35.02
1.47345	35.01
1.49012	35.01
1.50678	35.01
1.52345	35.00
1.54012	35.00
1.55678	35.00
1.57345	35.00
1.59012	35.01
1.60678	35.06
1.62345	35.18
1.64012	35.35
1.65678	35.59
1.67345	35.93
1.69012	36.29
1.70678	36.64
1.72345	36.99
1.74012	37.31
1.75678	37.66
1.77345	37.99
1.79012	38.30
1.80678	38.65
1.82345	38.97
1.84012	39.30
1.85678	39.64
1.87345	39.95
1.89012	40.29
1.90678	40.60
1.92345	40.93
1.94012	41.27
1.95678	41.60
1.97345	41.92
1.99012	42.25
2.00678	42.55
2.02345	42.87
2.04012	43.20
2.05678	43.52
2.07345	43.85
2.09012	44.17
2.10678	44.49
2.12345	44.82
2.14012	45.15
2.15678	45.49
2.17345	45.82
2.19012	46.13
2.20678	46.46
2.22345	46.79
2.24012	47.13
2.25678	47.46
2.27345	47.81
2.29012	48.14
2.30678	48.47
2.32345	48.81
2.34012	49.12
2.35678	49.45
2.37345	49.64
2.39012	49.68
2.40678	49.68
2.42345	49.66
2.44012	49.67
2.45678	49.70
2.47345	49.71
2.49012	49.70
2.50678	49.73
2.52345	49.74
2.54012	49.77
2.55678	49.77
2.57345	49.80
2.59012	49.81
2.60678	49.81
2.62345	49.80
2.64012	49.82
2.65678	49.84
2.67345	49.84
2.69012	49.85
2.70678	49.86
2.72345	49.86
2.74012	49.84
2.75678	49.85
2.77345	49.87
2.79012	49.87
2.80678	49.88
2.82345	49.90
2.84012	49.90
2.85678	49.92
2.87345	49.92
2.89012	49.92
2.90678	49.92
2.92345	49.93
2.94012	49.94
2.95678	49.95
2.97345	49.95
2.99012	49.96
3.00678	49.96
3.02345	49.97
3.04012	49.98
3.05678	50.00
3.07345	50.01
3.09012	50.02
3.10678	50.02
3.12345	50.03
3.14012	50.03
3.15678	50.04
3.17345	50.05
3.19012	50.06
3.20678	50.07
3.22345	50.08
3.24012	50.07
3.25678	50.09
3.27345	50.09
3.29012	50.09
3.30678	50.09
3.32345	50.09
3.34012	50.09
3.35678	50.10
3.37345	50.12
3.39012	50.11
3.40678	50.11
3.42345	50.09
3.44012	50.08
3.45678	50.07
3.47345	50.05
3.49012	50.05
3.50678	50.04
3.52345	50.03
3.54012	50.03
3.55678	50.04
3.57345	50.05
3.59012	50.04
3.60678	50.05
3.62345	50.05
3.64012	50.05
3.65678	50.05
3.67345	50.05
3.69012	50.05
3.70678	50.05
3.72345	50.05
3.74012	50.05
3.75678	50.05
3.77345	50.06
3.79012	50.06
3.80678	50.06
3.82345	50.06
3.84012	50.06
3.85678	50.06
3.87345	50.06
3.89012	50.05
3.90678	50.06
3.92345	50.07
3.94012	50.07
3.95678	50.08
3.97345	50.07
3.99012	50.07

[Status Trace (Injection Unit Temperature)]
Interval(msec)	1000
# of Points	240
Start Time(min)	0.007
End Time(min)	3.990
Intensity Units	
Intensity Multiplier	1
R.Time (min)	Intensity
0.00678	99.98
0.02345	99.98
0.04012	99.98
0.05678	99.98
0.07345	99.98
0.09012	99.98
0.10678	99.98
0.12345	99.98
0.14012	99.99
0.15678	99.98
0.17345	99.98
0.19012	99.99
0.20678	99.98
0.22345	99.98
0.24012	99.99
0.25678	99.99
0.27345	99.98
0.29012	99.99
0.30678	99.98
0.32345	99.99
0.34012	99.98
0.35678	99.98
0.37345	99.99
0.39012	99.99
0.40678	99.99
0.42345	99.99
0.44012	99.99
0.45678	99.99
0.47345	99.99
0.49012	99.99
0.50678	99.99
0.52345	99.99
0.54012	99.99
0.55678	99.99
0.57345	99.99
0.59012	99.99
0.60678	99.99
0.62345	99.99
0.64012	99.99
0.65678	99.99
0.67345	99.99
0.69012	99.99
0.70678	99.98
0.72345	99.98
0.74012	99.99
0.75678	99.99
0.77345	99.99
0.79012	99.99
0.80678	99.99
0.82345	99.99
0.84012	99.99
0.85678	99.99
0.87345	99.99
0.89012	99.99
0.90678	99.99
0.92345	99.99
0.94012	99.99
0.95678	99.99
0.97345	99.99
0.99012	99.99
1.00678	99.99
1.02345	99.99
1.04012	99.99
1.05678	99.99
1.07345	99.99
1.09012	99.99
1.10678	99.99
1.12345	99.99
1.14012	99.99
1.15678	99.99
1.17345	99.98
1.19012	99.99
1.20678	99.98
1.22345	99.98
1.24012	99.98
1.25678	99.99
1.27345	99.99
1.29012	99.99
1.30678	99.99
1.32345	99.98
1.34012	99.98
1.35678	99.99
1.37345	99.99
1.39012	99.99
1.40678	99.98
1.42345	99.99
1.44012	99.98
1.45678	99.99
1.47345	99.99
1.49012	99.99
1.50678	99.99
1.52345	99.98
1.54012	99.99
1.55678	99.99
1.57345	99.99
1.59012	99.99
1.60678	99.99
1.62345	99.99
1.64012	99.98
1.65678	99.99
1.67345	99.98
1.69012	99.99
1.70678	99.99
1.72345	99.99
1.74012	99.98
1.75678	99.99
1.77345	99.98
1.79012	99.98
1.80678	99.99
1.82345	99.98
1.84012	99.98
1.85678	99.98
1.87345	99.98
1.89012	99.98
1.90678	99.98
1.92345	99.98
1.94012	99.98
1.95678	99.98
1.97345	99.98
1.99012	99.98
2.00678	99.98
2.02345	99.98
2.04012	99.98
2.05678	99.98
2.07345	99.98
2.09012	99.97
2.10678	99.97
2.12345	99.97
2.14012	99.97
2.15678	99.97
2.17345	99.97
2.19012	99.97
2.20678	99.97
2.22345	99.97
2.24012	99.97
2.25678	99.97
2.27345	99.97
2.29012	99.97
2.30678	99.97
2.32345	99.97
2.34012	99.97
2.35678	99.97
2.37345	99.97
2.39012	99.97
2.40678	99.97
2.42345	99.97
2.44012	99.96
2.45678	99.97
2.47345	99.97
2.49012	99.97
2.50678	99.96
2.52345	99.97
2.54012	99.97
2.55678	99.97
2.57345	99.97
2.59012	99.97
2.60678	99.97
2.62345	99.97
2.64012	99.97
2.65678	99.97
2.67345	99.98
2.69012	99.97
2.70678	99.98
2.72345	99.98
2.74012	99.98
2.75678	99.98
2.77345	99.98
2.79012	99.99
2.80678	99.99
2.82345	99.99
2.84012	99.99
2.85678	100.00
2.87345	100.00
2.89012	99.99
2.90678	100.00
2.92345	100.00
2.94012	100.00
2.95678	100.00
2.97345	100.01
2.99012	100.00
3.00678	100.01
3.02345	100.01
3.04012	100.01
3.05678	100.01
3.07345	100.01
3.09012	100.02
3.10678	100.02
3.12345	100.02
3.14012	100.02
3.15678	100.02
3.17345	100.02
3.19012	100.02
3.20678	100.03
3.22345	100.03
3.24012	100.03
3.25678	100.03
3.27345	100.03
3.29012	100.03
3.30678	100.03
3.32345	100.03
3.34012	100.04
3.35678	100.04
3.37345	100.04
3.39012	100.04
3.40678	100.04
3.42345	100.04
3.44012	100.04
3.45678	100.04
3.47345	100.04
3.49012	100.04
3.50678	100.04
3.52345	100.04
3.54012	100.04
3.55678	100.04
3.57345	100.04
3.59012	100.04
3.60678	100.04
3.62345	100.05
3.64012	100.05
3.65678	100.04
3.67345	100.04
3.69012	100.05
3.70678	100.05
3.72345	100.05
3.74012	100.04
3.75678	100.05
3.77345	100.05
3.79012	100.05
3.80678	100.05
3.82345	100.05
3.84012	100.05
3.85678	100.05
3.87345	100.05
3.89012	100.05
3.90678	100.05
3.92345	100.05
3.94012	100.05
3.95678	100.05
3.97345	100.05
3.99012	100.05

[Status Trace (Carrier Gas Pressure)]
Interval(msec)	1000
# of Points	240
Start Time(min)	0.007
End Time(min)	3.990
Intensity Units	
Intensity Multiplier	1
R.Time (min)	Intensity
0.00678	58.00
0.02345	55.58
0.04012	56.94
0.05678	59.00
0.07345	59.62
0.09012	58.11
0.10678	57.98
0.12345	58.01
0.14012	58.01
0.15678	58.01
0.17345	58.00
0.19012	58.00
0.20678	58.00
0.22345	58.00
0.24012	58.00
0.25678	58.00
0.27345	58.00
0.29012	58.00
0.30678	58.00
0.32345	58.00
0.34012	58.00
0.35678	58.00
0.37345	58.00
0.39012	58.00
0.40678	58.00
0.42345	58.00
0.44012	58.00
0.45678	58.00
0.47345	58.00
0.49012	58.00
0.50678	58.00
0.52345	58.00
0.54012	58.00
0.55678	58.00
0.57345	58.00
0.59012	58.00
0.60678	58.00
0.62345	58.00
0.64012	58.00
0.65678	58.00
0.67345	58.00
0.69012	58.00
0.70678	58.00
0.72345	58.00
0.74012	58.00
0.75678	58.00
0.77345	58.00
0.79012	58.00
0.80678	58.00
0.82345	58.00
0.84012	58.00
0.85678	58.00
0.87345	58.00
0.89012	58.00
0.90678	58.00
0.92345	58.00
0.94012	58.00
0.95678	58.00
0.97345	58.00
0.99012	58.00
1.00678	58.00
1.02345	58.00
1.04012	58.00
1.05678	58.00
1.07345	58.00
1.09012	58.00
1.10678	58.00
1.12345	58.00
1.14012	58.00
1.15678	58.00
1.17345	58.00
1.19012	58.00
1.20678	58.00
1.22345	58.00
1.24012	58.00
1.25678	58.00
1.27345	58.00
1.29012	58.00
1.30678	58.00
1.32345	58.00
1.34012	58.00
1.35678	58.00
1.37345	58.00
1.39012	58.00
1.40678	58.00
1.42345	58.00
1.44012	58.00
1.45678	58.00
1.47345	58.00
1.49012	58.00
1.50678	58.00
1.52345	58.00
1.54012	58.00
1.55678	58.00
1.57345	58.00
1.59012	58.00
1.60678	58.00
1.62345	58.00
1.64012	58.01
1.65678	58.00
1.67345	58.01
1.69012	58.00
1.70678	58.00
1.72345	58.00
1.74012	58.00
1.75678	58.00
1.77345	58.00
1.79012	58.00
1.80678	58.00
1.82345	58.00
1.84012	58.00
1.85678	58.00
1.87345	58.00
1.89012	58.00
1.90678	58.00
1.92345	58.00
1.94012	58.00
1.95678	58.00
1.97345	58.00
1.99012	58.00
2.00678	58.00
2.02345	58.00
2.04012	58.00
2.05678	58.00
2.07345	58.00
2.09012	58.00
2.10678	58.00
2.12345	58.00
2.14012	58.00
2.15678	58.00
2.17345	58.00
2.19012	58.00
2.20678	58.00
2.22345	58.00
2.24012	58.00
2.25678	58.00
2.27345	58.00
2.29012	58.00
2.30678	58.00
2.32345	58.00
2.34012	58.00
2.35678	58.00
2.37345	58.00
2.39012	57.99
2.40678	57.99
2.42345	58.00
2.44012	58.00
2.45678	58.00
2.47345	58.00
2.49012	58.00
2.50678	58.00
2.52345	57.98
2.54012	58.00
2.55678	58.00
2.57345	58.00
2.59012	58.00
2.60678	58.00
2.62345	58.00
2.64012	58.00
2.65678	58.00
2.67345	58.00
2.69012	58.00
2.70678	58.00
2.72345	58.00
2.74012	58.00
2.75678	58.00
2.77345	58.00
2.79012	58.00
2.80678	58.00
2.82345	58.00
2.84012	58.00
2.85678	58.00
2.87345	58.00
2.89012	58.00
2.90678	58.00
2.92345	58.00
2.94012	58.00
2.95678	58.00
2.97345	58.00
2.99012	58.00
3.00678	58.00
3.02345	58.00
3.04012	58.00
3.05678	58.00
3.07345	58.00
3.09012	58.00
3.10678	58.00
3.12345	58.00
3.14012	58.00
3.15678	58.00
3.17345	58.00
3.19012	58.00
3.20678	58.00
3.22345	58.00
3.24012	58.00
3.25678	58.00
3.27345	58.00
3.29012	58.00
3.30678	58.00
3.32345	58.00
3.34012	58.00
3.35678	58.00
3.37345	58.00
3.39012	58.00
3.40678	58.00
3.42345	58.00
3.44012	58.00
3.45678	58.00
3.47345	58.00
3.49012	58.00
3.50678	58.00
3.52345	58.00
3.54012	58.00
3.55678	58.00
3.57345	58.00
3.59012	58.00
3.60678	58.00
3.62345	58.00
3.64012	58.00
3.65678	58.00
3.67345	58.00
3.69012	58.00
3.70678	58.00
3.72345	58.00
3.74012	58.00
3.75678	58.00
3.77345	58.00
3.79012	58.00
3.80678	58.00
3.82345	58.00
3.84012	58.00
3.85678	58.00
3.87345	58.00
3.89012	58.00
3.90678	58.00
3.92345	58.00
3.94012	58.00
3.95678	58.00
3.97345	58.00
3.99012	58.00

[Status Trace (Carrier Gas Flow)]
Interval(msec)	1000
# of Points	240
Start Time(min)	0.007
End Time(min)	3.990
Intensity Units	
Intensity Multiplier	1
R.Time (min)	Intensity
0.00678	34.53
0.02345	34.52
0.04012	34.54
0.05678	34.55
0.07345	34.49
0.09012	34.52
0.10678	34.52
0.12345	34.52
0.14012	34.52
0.15678	34.52
0.17345	34.52
0.19012	34.52
0.20678	34.52
0.22345	34.52
0.24012	34.52
0.25678	34.52
0.27345	34.52
0.29012	34.52
0.30678	34.52
0.32345	34.52
0.34012	34.52
0.35678	34.52
0.37345	34.52
0.39012	34.52
0.40678	34.52
0.42345	34.52
0.44012	34.52
0.45678	34.52
0.47345	34.52
0.49012	34.52
0.50678	34.52
0.52345	34.52
0.54012	34.52
0.55678	34.52
0.57345	34.52
0.59012	34.52
0.60678	34.52
0.62345	34.52
0.64012	34.52
0.65678	34.52
0.67345	34.52
0.69012	34.52
0.70678	34.52
0.72345	34.52
0.74012	34.52
0.75678	34.52
0.77345	34.52
0.79012	34.52
0.80678	34.52
0.82345	34.52
0.84012	34.52
0.85678	34.52
0.87345	34.52
0.89012	34.52
0.90678	34.52
0.92345	34.52
0.94012	34.52
0.95678	34.52
0.97345	34.52
0.99012	34.52
1.00678	34.52
1.02345	34.52
1.04012	34.52
1.05678	34.52
1.07345	34.52
1.09012	34.52
1.10678	34.52
1.12345	34.52
1.14012	34.52
1.15678	34.52
1.17345	34.52
1.19012	34.52
1.20678	34.52
1.22345	34.52
1.24012	34.52
1.25678	34.52
1.27345	34.52
1.29012	34.52
1.30678	34.52
1.32345	34.52
1.34012	34.52
1.35678	34.52
1.37345	34.52
1.39012	34.52
1.40678	34.52
1.42345	34.52
1.44012	34.52
1.45678	34.52
1.47345	34.52
1.49012	34.52
1.50678	34.52
1.52345	34.52
1.54012	34.52
1.55678	34.52
1.57345	34.52
1.59012	34.52
1.60678	34.52
1.62345	34.52
1.64012	34.52
1.65678	34.52
1.67345	34.52
1.69012	34.52
1.70678	34.52
1.72345	34.52
1.74012	34.52
1.75678	34.52
1.77345	34.52
1.79012	34.52
1.80678	34.52
1.82345	34.52
1.84012	34.52
1.85678	34.52
1.87345	34.52
1.89012	34.52
1.90678	34.52
1.92345	34.52
1.94012	34.52
1.95678	34.52
1.97345	34.52
1.99012	34.52
2.00678	34.52
2.02345	34.52
2.04012	34.52
2.05678	34.52
2.07345	34.52
2.09012	34.52
2.10678	34.52
2.12345	34.52
2.14012	34.52
2.15678	34.52
2.17345	34.52
2.19012	34.52
2.20678	34.52
2.22345	34.52
2.24012	34.52
2.25678	34.52
2.27345	34.52
2.29012	34.52
2.30678	34.52
2.32345	34.52
2.34012	34.52
2.35678	34.52
2.37345	34.51
2.39012	34.52
2.40678	34.52
2.42345	34.52
2.44012	34.52
2.45678	34.52
2.47345	34.52
2.49012	34.52
2.50678	34.47
2.52345	34.52
2.54012	34.52
2.55678	34.52
2.57345	34.52
2.59012	34.52
2.60678	34.52
2.62345	34.52
2.64012	34.52
2.65678	34.52
2.67345	34.52
2.69012	34.52
2.70678	34.52
2.72345	34.52
2.74012	34.52
2.75678	34.52
2.77345	34.52
2.79012	34.52
2.80678	34.52
2.82345	34.52
2.84012	34.52
2.85678	34.52
2.87345	34.52
2.89012	34.52
2.90678	34.52
2.92345	34.52
2.94012	34.52
2.95678	34.52
2.97345	34.52
2.99012	34.52
3.00678	34.52
3.02345	34.52
3.04012	34.52
3.05678	34.52
3.07345	34.52
3.09012	34.52
3.10678	34.52
3.12345	34.52
3.14012	34.52
3.15678	34.52
3.17345	34.52
3.19012	34.52
3.20678	34.52
3.22345	34.52
3.24012	34.52
3.25678	34.52
3.27345	34.52
3.29012	34.52
3.30678	34.52
3.32345	34.52
3.34012	34.52
3.35678	34.52
3.37345	34.52
3.39012	34.52
3.40678	34.52
3.42345	34.52
3.44012	34.52
3.45678	34.52
3.47345	34.52
3.49012	34.52
3.50678	34.52
3.52345	34.53
3.54012	34.52
3.55678	34.51
3.57345	34.51
3.59012	34.52
3.60678	34.53
3.62345	34.52
3.64012	34.52
3.65678	34.52
3.67345	34.52
3.69012	34.52
3.70678	34.52
3.72345	34.52
3.74012	34.52
3.75678	34.52
3.77345	34.52
3.79012	34.52
3.80678	34.52
3.82345	34.52
3.84012	34.52
3.85678	34.52
3.87345	34.52
3.89012	34.52
3.90678	34.52
3.92345	34.52
3.94012	34.52
3.95678	34.52
3.97345	34.52
3.99012	34.52

[Status Trace (Column Flow)]
Interval(msec)	1000
# of Points	240
Start Time(min)	0.007
End Time(min)	3.990
Intensity Units	
Intensity Multiplier	1
R.Time (min)	Intensity
0.00678	5.48
0.02345	5.20
0.04012	5.35
0.05678	5.59
0.07345	5.67
0.09012	5.49
0.10678	5.47
0.12345	5.48
0.14012	5.48
0.15678	5.48
0.17345	5.48
0.19012	5.48
0.20678	5.48
0.22345	5.48
0.24012	5.48
0.25678	5.48
0.27345	5.48
0.29012	5.48
0.30678	5.48
0.32345	5.48
0.34012	5.48
0.35678	5.48
0.37345	5.48
0.39012	5.48
0.40678	5.48
0.42345	5.48
0.44012	5.48
0.45678	5.48
0.47345	5.48
0.49012	5.48
0.50678	5.48
0.52345	5.48
0.54012	5.48
0.55678	5.48
0.57345	5.48
0.59012	5.48
0.60678	5.48
0.62345	5.48
0.64012	5.48
0.65678	5.48
0.67345	5.48
0.69012	5.48
0.70678	5.48
0.72345	5.48
0.74012	5.48
0.75678	5.48
0.77345	5.48
0.79012	5.48
0.80678	5.48
0.82345	5.48
0.84012	5.48
0.85678	5.48
0.87345	5.48
0.89012	5.48
0.90678	5.48
0.92345	5.48
0.94012	5.48
0.95678	5.48
0.97345	5.48
0.99012	5.48
1.00678	5.48
1.02345	5.48
1.04012	5.48
1.05678	5.48
1.07345	5.48
1.09012	5.48
1.10678	5.48
1.12345	5.48
1.14012	5.48
1.15678	5.48
1.17345	5.48
1.19012	5.48
1.20678	5.48
1.22345	5.48
1.24012	5.48
1.25678	5.48
1.27345	5.48
1.29012	5.48
1.30678	5.48
1.32345	5.48
1.34012	5.48
1.35678	5.48
1.37345	5.48
1.39012	5.48
1.40678	5.48
1.42345	5.48
1.44012	5.48
1.45678	5.48
1.47345	5.48
1.49012	5.48
1.50678	5.48
1.52345	5.48
1.54012	5.48
1.55678	5.48
1.57345	5.48
1.59012	5.48
1.60678	5.48
1.62345	5.47
1.64012	5.47
1.65678	5.46
1.67345	5.45
1.69012	5.44
1.70678	5.43
1.72345	5.42
1.74012	5.41
1.75678	5.40
1.77345	5.39
1.79012	5.38
1.80678	5.37
1.82345	5.36
1.84012	5.35
1.85678	5.34
1.87345	5.33
1.89012	5.32
1.90678	5.31
1.92345	5.30
1.94012	5.29
1.95678	5.28
1.97345	5.27
1.99012	5.26
2.00678	5.25
2.02345	5.24
2.04012	5.23
2.05678	5.22
2.07345	5.21
2.09012	5.20
2.10678	5.19
2.12345	5.18
2.14012	5.17
2.15678	5.17
2.17345	5.16
2.19012	5.15
2.20678	5.14
2.22345	5.13
2.24012	5.12
2.25678	5.11
2.27345	5.10
2.29012	5.09
2.30678	5.08
2.32345	5.07
2.34012	5.06
2.35678	5.05
2.37345	5.05
2.39012	5.05
2.40678	5.05
2.42345	5.05
2.44012	5.05
2.45678	5.05
2.47345	5.05
2.49012	5.05
2.50678	5.04
2.52345	5.04
2.54012	5.04
2.55678	5.04
2.57345	5.04
2.59012	5.04
2.60678	5.04
2.62345	5.04
2.64012	5.04
2.65678	5.04
2.67345	5.04
2.69012	5.04
2.70678	5.04
2.72345	5.04
2.74012	5.04
2.75678	5.04
2.77345	5.04
2.79012	5.04
2.80678	5.04
2.82345	5.04
2.84012	5.04
2.85678	5.04
2.87345	5.04
2.89012	5.04
2.90678	5.04
2.92345	5.04
2.94012	5.04
2.95678	5.04
2.97345	5.04
2.99012	5.04
3.00678	5.04
3.02345	5.04
3.04012	5.04
3.05678	5.04
3.07345	5.04
3.09012	5.04
3.10678	5.04
3.12345	5.04
3.14012	5.04
3.15678	5.04
3.17345	5.04
3.19012	5.04
3.20678	5.04
3.22345	5.04
3.24012	5.04
3.25678	5.04
3.27345	5.04
3.29012	5.04
3.30678	5.04
3.32345	5.04
3.34012	5.04
3.35678	5.04
3.37345	5.04
3.39012	5.04
3.40678	5.04
3.42345	5.04
3.44012	5.04
3.45678	5.04
3.47345	5.04
3.49012	5.04
3.50678	5.04
3.52345	5.04
3.54012	5.04
3.55678	5.04
3.57345	5.04
3.59012	5.04
3.60678	5.04
3.62345	5.04
3.64012	5.04
3.65678	5.04
3.67345	5.04
3.69012	5.04
3.70678	5.04
3.72345	5.04
3.74012	5.04
3.75678	5.04
3.77345	5.04
3.79012	5.04
3.80678	5.04
3.82345	5.04
3.84012	5.04
3.85678	5.04
3.87345	5.04
3.89012	5.04
3.90678	5.04
3.92345	5.04
3.94012	5.04
3.95678	5.04
3.97345	5.04
3.99012	5.04

[Status Trace (Linear Velocity)]
Interval(msec)	1000
# of Points	240
Start Time(min)	0.007
End Time(min)	3.990
Intensity Units	
Intensity Multiplier	1
R.Time (min)	Intensity
0.00678	39.00
0.02345	37.42
0.04012	38.30
0.05678	39.66
0.07345	40.07
0.09012	39.07
0.10678	38.99
0.12345	39.01
0.14012	39.01
0.15678	39.01
0.17345	39.01
0.19012	39.01
0.20678	39.01
0.22345	39.00
0.24012	39.00
0.25678	39.00
0.27345	39.00
0.29012	39.00
0.30678	39.00
0.32345	39.01
0.34012	39.01
0.35678	39.01
0.37345	39.01
0.39012	39.01
0.40678	39.01
0.42345	39.01
0.44012	39.01
0.45678	39.01
0.47345	39.01
0.49012	39.01
0.50678	39.01
0.52345	39.01
0.54012	39.01
0.55678	39.01
0.57345	39.01
0.59012	39.01
0.60678	39.01
0.62345	39.01
0.64012	39.01
0.65678	39.01
0.67345	39.01
0.69012	39.01
0.70678	39.01
0.72345	39.01
0.74012	39.01
0.75678	39.01
0.77345	39.01
0.79012	39.01
0.80678	39.01
0.82345	39.01
0.84012	39.01
0.85678	39.01
0.87345	39.01
0.89012	39.01
0.90678	39.01
0.92345	39.01
0.94012	39.01
0.95678	39.01
0.97345	39.01
0.99012	39.01
1.00678	39.01
1.02345	39.01
1.04012	39.01
1.05678	39.01
1.07345	39.01
1.09012	39.01
1.10678	39.01
1.12345	39.01
1.14012	39.00
1.15678	39.00
1.17345	39.00
1.19012	39.00
1.20678	39.01
1.22345	39.01
1.24012	39.01
1.25678	39.01
1.27345	39.01
1.29012	39.01
1.30678	39.01
1.32345	39.01
1.34012	39.01
1.35678	39.01
1.37345	39.01
1.39012	39.00
1.40678	39.00
1.42345	39.00
1.44012	39.00
1.45678	39.00
1.47345	39.01
1.49012	39.01
1.50678	39.01
1.52345	39.01
1.54012	39.01
1.55678	39.01
1.57345	39.01
1.59012	39.00
1.60678	39.00
1.62345	38.99
1.64012	38.98
1.65678	38.96
1.67345	38.92
1.69012	38.88
1.70678	38.85
1.72345	38.82
1.74012	38.79
1.75678	38.76
1.77345	38.72
1.79012	38.69
1.80678	38.66
1.82345	38.63
1.84012	38.60
1.85678	38.57
1.87345	38.54
1.89012	38.50
1.90678	38.48
1.92345	38.44
1.94012	38.41
1.95678	38.39
1.97345	38.35
1.99012	38.32
2.00678	38.30
2.02345	38.27
2.04012	38.24
2.05678	38.21
2.07345	38.18
2.09012	38.15
2.10678	38.12
2.12345	38.09
2.14012	38.06
2.15678	38.03
2.17345	38.00
2.19012	37.97
2.20678	37.94
2.22345	37.91
2.24012	37.88
2.25678	37.85
2.27345	37.82
2.29012	37.79
2.30678	37.76
2.32345	37.73
2.34012	37.70
2.35678	37.67
2.37345	37.65
2.39012	37.65
2.40678	37.65
2.42345	37.65
2.44012	37.65
2.45678	37.65
2.47345	37.65
2.49012	37.65
2.50678	37.64
2.52345	37.63
2.54012	37.64
2.55678	37.64
2.57345	37.64
2.59012	37.64
2.60678	37.64
2.62345	37.64
2.64012	37.64
2.65678	37.64
2.67345	37.64
2.69012	37.64
2.70678	37.64
2.72345	37.64
2.74012	37.64
2.75678	37.64
2.77345	37.63
2.79012	37.63
2.80678	37.63
2.82345	37.63
2.84012	37.63
2.85678	37.63
2.87345	37.63
2.89012	37.63
2.90678	37.63
2.92345	37.63
2.94012	37.63
2.95678	37.63
2.97345	37.63
2.99012	37.63
3.00678	37.63
3.02345	37.63
3.04012	37.62
3.05678	37.62
3.07345	37.62
3.09012	37.62
3.10678	37.62
3.12345	37.62
3.14012	37.62
3.15678	37.62
3.17345	37.62
3.19012	37.62
3.20678	37.62
3.22345	37.62
3.24012	37.62
3.25678	37.62
3.27345	37.61
3.29012	37.61
3.30678	37.61
3.32345	37.61
3.34012	37.61
3.35678	37.61
3.37345	37.61
3.39012	37.61
3.40678	37.61
3.42345	37.61
3.44012	37.62
3.45678	37.62
3.47345	37.62
3.49012	37.62
3.50678	37.62
3.52345	37.62
3.54012	37.62
3.55678	37.62
3.57345	37.62
3.59012	37.62
3.60678	37.62
3.62345	37.62
3.64012	37.62
3.65678	37.62
3.67345	37.62
3.69012	37.62
3.70678	37.62
3.72345	37.62
3.74012	37.62
3.75678	37.62
3.77345	37.62
3.79012	37.62
3.80678	37.62
3.82345	37.62
3.84012	37.62
3.85678	37.62
3.87345	37.62
3.89012	37.62
3.90678	37.62
3.92345	37.62
3.94012	37.62
3.95678	37.62
3.97345	37.62
3.99012	37.62

