[Header]
Application Name	LabSolutions
Version	5.110
Data File Name	C:\Users\User\Desktop\GC Analyses\Jack\UIC Prairie Sampling\9.30.22\220930_029.gcd
Output Date	1/4/2023
Output Time	2:27:59 PM

[File Information]
Type	Data File
Generated	11/30/2022 10:16:00 AM
Generated by	System Administrator
Modified	11/30/2022 10:20:19 AM
Modified by	System Administrator

[Sample Information]
Operator Name	System Administrator
Acquired	11/30/2022 10:16:17 AM
Sample Type	1:Standard
Level	1
Sample Name	220930_UICPrairie
Sample ID	220930_UICPrairie
ISTD Amount1	1
ISTD Amount2	1
ISTD Amount3	1
ISTD Amount4	1
ISTD Amount5	1
ISTD Amount6	1
ISTD Amount7	1
ISTD Amount8	1
ISTD Amount9	1
ISTD Amount10	1
ISTD Amount11	1
ISTD Amount12	1
ISTD Amount13	1
ISTD Amount14	1
ISTD Amount15	1
ISTD Amount16	1
ISTD Amount17	1
ISTD Amount18	1
ISTD Amount19	1
ISTD Amount20	1
ISTD Amount21	1
ISTD Amount22	1
ISTD Amount23	1
ISTD Amount24	1
ISTD Amount25	1
ISTD Amount26	1
ISTD Amount27	1
ISTD Amount28	1
ISTD Amount29	1
ISTD Amount30	1
ISTD Amount31	1
ISTD Amount32	1
Sample Amount	1
Dilution Factor	1
Vial#	1
Injection Volume	1
Injection Count	1
Bar Code	

[Original Files]
Data File	C:\Users\User\Desktop\GC Analyses\Jack\UIC Prairie Sampling\9.30.22\220930_029.gcd
Method File	C:\LabSolutions\Data\GHG_4min_2022\ghg3_togas_w_acet_4 min_new_int.gcm
Batch File	
Report Format File	c:\LabSolutions\System\DEFAULT.lsr

[File Description]


[Configuration]
Instrument Name	C0B7VH3-Instrument1
Instrument #	1
Line #	1
# of Detectors	3
Detector ID	DET#1	DET#2	DET#3
Detector Name	FID	PTCD	ECD
# of Channels	1	1	1

[Peak Table(Ch1)]
# of Peaks	3
Peak#	R.Time	I.Time	F.Time	Area	Height	A/H	Conc.	Mark	ID#	Name	k'	Plate #	Plate Ht.	Tailing	Resolution	Sep.Factor	Area Ratio	Height Ratio	Conc. %	Norm Conc.
1	1.465	1.439	1.534	3899	1331	2.931	100.000	   	1	CO	0.000	5572	26.918	0.000	0.000	0.000	0	0	16.667	16.667
2	1.571	1.534	1.637	18612	9583	1.942	100.000	 V 	2	CH4	0.073	11786	12.727	1.139	1.560	0.000	0	0	16.667	16.667
3	2.000	1.952	2.543	1982744	941110	2.107	400.000	   	3	CO2	0.365	17533	8.555	1.192	7.253	5.034	0	0	66.667	66.667

[Peak Table(Ch2)]
# of Peaks	0

[Peak Table(Ch3)]
# of Peaks	3
Peak#	R.Time	I.Time	F.Time	Area	Height	A/H	Conc.	Mark	ID#	Name	k'	Plate #	Plate Ht.	Tailing	Resolution	Sep.Factor	Area Ratio	Height Ratio	Conc. %	Norm Conc.
1	2.455	1.182	2.568	17834	577	30.934	0.000	   			0.000	87	1715.071	0.000	0.000	0.000	0	0	0.000	0.000
2	2.601	2.568	2.653	1285	365	3.520	0.000	 V 			0.060	1103	136.017	0.000	0.215	0.000	0	0	0.000	0.000
3	2.887	2.667	3.588	61597	14519	4.242	1.000	   	1	N2O	0.176	12775	11.742	1.586	1.377	2.950	0	0	100.000	100.000

[Compound Results(Ch1)]
# of IDs	6
ID#	Name	R.Time	Area	Height	Conc.	Curve	3rd	2nd	1st	Constant	Area Ratio	Height Ratio	Conc. %	Norm Conc.
1	CO	1.465	3899	1331	100.000	Linear	0.000000e+00	0.000000e+00	3.899290e+001	0.000000e+00	0	0	16.667	16.667
2	CH4	1.571	18612	9583	100.000	Linear	0.000000e+00	0.000000e+00	1.861151e+002	0.000000e+00	0	0	16.667	16.667
3	CO2	2.000	1982744	941110	400.000	Linear	0.000000e+00	0.000000e+00	4.956859e+003	0.000000e+00	0	0	66.667	66.667
4	Ethylene	0.000	0	0	0.000	Linear	0.000000e+00	0.000000e+00	0.000000e+00	0.000000e+00	0	0	0.000	0.000
5	Acetylene	0.000	0	0	0.000	Linear	0.000000e+00	0.000000e+00	0.000000e+00	0.000000e+00	0	0	0.000	0.000
6	Ethane	0.000	0	0	0.000	Linear	0.000000e+00	0.000000e+00	0.000000e+00	0.000000e+00	0	0	0.000	0.000

[Compound Results(Ch2)]
# of IDs	5
ID#	Name	R.Time	Area	Height	Conc.	Curve	3rd	2nd	1st	Constant	Area Ratio	Height Ratio	Conc. %	Norm Conc.
1	Hydrogen	0.000	0	0	0.000	Linear	0.000000e+00	0.000000e+00	0.000000e+00	0.000000e+00	0	0	0.000	0.000
2	Oxygen	0.000	0	0	0.000	Linear	0.000000e+00	0.000000e+00	0.000000e+00	0.000000e+00	0	0	0.000	0.000
3	Nitrogen	0.000	0	0	0.000	Linear	0.000000e+00	0.000000e+00	0.000000e+00	0.000000e+00	0	0	0.000	0.000
4	Methane	0.000	0	0	0.000	Linear	0.000000e+00	0.000000e+00	0.000000e+00	0.000000e+00	0	0	0.000	0.000
5	Carbon Monoxide	0.000	0	0	0.000	Linear	0.000000e+00	0.000000e+00	0.000000e+00	0.000000e+00	0	0	0.000	0.000

[Compound Results(Ch3)]
# of IDs	2
ID#	Name	R.Time	Area	Height	Conc.	Curve	3rd	2nd	1st	Constant	Area Ratio	Height Ratio	Conc. %	Norm Conc.
1	N2O	2.887	61597	14519	1.000	Linear	0.000000e+00	0.000000e+00	6.159687e+004	0.000000e+00	0	0	100.000	100.000
2	SF6	0.000	0	0	0.000	Linear	0.000000e+00	0.000000e+00	0.000000e+00	0.000000e+00	0	0	0.000	0.000

[Group Results(Ch1)]
# of Groups	0

[Group Results(Ch2)]
# of Groups	0

[Group Results(Ch3)]
# of Groups	0

[Chromatogram (Ch1)]
Interval(msec)	220
# of Points	1091
Start Time(min)	0.002
End Time(min)	3.998
R.Time (min)	Intensity
0.00167	0
0.00533	1
0.00900	-4
0.01267	-10
0.01633	-12
0.02000	-10
0.02367	-7
0.02733	-1
0.03100	5
0.03467	9
0.03833	11
0.04200	12
0.04567	13
0.04933	15
0.05300	13
0.05667	9
0.06033	7
0.06400	8
0.06767	13
0.07133	16
0.07500	17
0.07867	16
0.08233	13
0.08600	8
0.08967	6
0.09333	8
0.09700	9
0.10067	6
0.10433	3
0.10800	1
0.11167	1
0.11533	0
0.11900	-1
0.12267	-2
0.12633	-2
0.13000	-3
0.13367	-3
0.13733	-4
0.14100	-6
0.14467	-9
0.14833	-11
0.15200	-12
0.15567	-9
0.15933	-4
0.16300	1
0.16667	5
0.17033	7
0.17400	6
0.17767	4
0.18133	5
0.18500	9
0.18867	15
0.19233	17
0.19600	16
0.19967	15
0.20333	16
0.20700	17
0.21067	21
0.21433	25
0.21800	27
0.22167	24
0.22533	18
0.22900	9
0.23267	0
0.23633	-5
0.24000	-5
0.24367	-1
0.24733	-0
0.25100	-1
0.25467	-3
0.25833	-5
0.26200	-7
0.26567	-8
0.26933	-6
0.27300	-4
0.27667	-5
0.28033	-4
0.28400	-1
0.28767	1
0.29133	1
0.29500	3
0.29867	6
0.30233	12
0.30600	15
0.30967	14
0.31333	14
0.31700	16
0.32067	17
0.32433	15
0.32800	10
0.33167	5
0.33533	1
0.33900	-3
0.34267	-5
0.34633	-9
0.35000	-10
0.35367	-6
0.35733	2
0.36100	10
0.36467	13
0.36833	11
0.37200	7
0.37567	6
0.37933	6
0.38300	6
0.38667	2
0.39033	-2
0.39400	-5
0.39767	-7
0.40133	-5
0.40500	-1
0.40867	3
0.41233	5
0.41600	6
0.41967	4
0.42333	2
0.42700	3
0.43067	5
0.43433	4
0.43800	3
0.44167	1
0.44533	1
0.44900	2
0.45267	1
0.45633	-2
0.46000	-4
0.46367	-7
0.46733	-15
0.47100	-24
0.47467	-32
0.47833	-36
0.48200	-36
0.48567	-35
0.48933	-33
0.49300	-29
0.49667	-23
0.50033	-14
0.50400	-5
0.50767	1
0.51133	4
0.51500	7
0.51867	6
0.52233	5
0.52600	4
0.52967	-0
0.53333	-8
0.53700	-15
0.54067	-16
0.54433	-13
0.54800	-10
0.55167	-8
0.55533	-8
0.55900	-7
0.56267	-5
0.56633	-4
0.57000	-6
0.57367	-10
0.57733	-14
0.58100	-17
0.58467	-18
0.58833	-18
0.59200	-18
0.59567	-14
0.59933	-11
0.60300	-11
0.60667	-13
0.61033	-16
0.61400	-16
0.61767	-11
0.62133	-5
0.62500	0
0.62867	1
0.63233	0
0.63600	-2
0.63967	-6
0.64333	-9
0.64700	-10
0.65067	-8
0.65433	-4
0.65800	-1
0.66167	2
0.66533	4
0.66900	4
0.67267	3
0.67633	1
0.68000	-6
0.68367	-16
0.68733	-18
0.69100	-10
0.69467	1
0.69833	8
0.70200	9
0.70567	6
0.70933	-4
0.71300	-14
0.71667	-23
0.72033	-30
0.72400	-33
0.72767	-32
0.73133	-28
0.73500	-25
0.73867	-21
0.74233	-19
0.74600	-18
0.74967	-18
0.75333	-20
0.75700	-24
0.76067	-25
0.76433	-23
0.76800	-20
0.77167	-17
0.77533	-15
0.77900	-14
0.78267	-14
0.78633	-17
0.79000	-19
0.79367	-21
0.79733	-21
0.80100	-19
0.80467	-16
0.80833	-14
0.81200	-14
0.81567	-18
0.81933	-25
0.82300	-30
0.82667	-28
0.83033	-22
0.83400	-14
0.83767	-7
0.84133	-2
0.84500	-2
0.84867	-5
0.85233	-10
0.85600	-16
0.85967	-20
0.86333	-22
0.86700	-21
0.87067	-16
0.87433	-9
0.87800	-3
0.88167	-1
0.88533	-4
0.88900	-6
0.89267	-6
0.89633	-7
0.90000	-8
0.90367	-9
0.90733	-14
0.91100	-23
0.91467	-30
0.91833	-33
0.92200	-35
0.92567	-36
0.92933	-34
0.93300	-29
0.93667	-27
0.94033	-28
0.94400	-29
0.94767	-30
0.95133	-30
0.95500	-27
0.95867	-22
0.96233	-17
0.96600	-14
0.96967	-12
0.97333	-13
0.97700	-14
0.98067	-12
0.98433	-11
0.98800	-10
0.99167	-11
0.99533	-14
0.99900	-17
1.00267	-14
1.00633	-14
1.01000	-17
1.01367	-19
1.01733	-19
1.02100	-18
1.02467	-17
1.02833	-14
1.03200	-10
1.03567	-6
1.03933	-4
1.04300	-7
1.04667	-10
1.05033	-10
1.05400	-9
1.05767	-6
1.06133	-5
1.06500	-3
1.06867	-2
1.07233	-4
1.07600	-6
1.07967	-10
1.08333	-15
1.08700	-20
1.09067	-23
1.09433	-22
1.09800	-18
1.10167	-17
1.10533	-17
1.10900	-14
1.11267	-8
1.11633	-1
1.12000	5
1.12367	6
1.12733	2
1.13100	-7
1.13467	-18
1.13833	-30
1.14200	-38
1.14567	-40
1.14933	-34
1.15300	-26
1.15667	-20
1.16033	-19
1.16400	-25
1.16767	-33
1.17133	-39
1.17500	-41
1.17867	-37
1.18233	-32
1.18600	-25
1.18967	-18
1.19333	-16
1.19700	-17
1.20067	-17
1.20433	-18
1.20800	-20
1.21167	-19
1.21533	-15
1.21900	-12
1.22267	-9
1.22633	-8
1.23000	-10
1.23367	-11
1.23733	-12
1.24100	-15
1.24467	-17
1.24833	-17
1.25200	-16
1.25567	-15
1.25933	-15
1.26300	-14
1.26667	-14
1.27033	-14
1.27400	-15
1.27767	-18
1.28133	-25
1.28500	-34
1.28867	-40
1.29233	-43
1.29600	-46
1.29967	-47
1.30333	-45
1.30700	-42
1.31067	-39
1.31433	-36
1.31800	-38
1.32167	-43
1.32533	-46
1.32900	-44
1.33267	-40
1.33633	-34
1.34000	-24
1.34367	-11
1.34733	-2
1.35100	1
1.35467	-3
1.35833	-11
1.36200	-20
1.36567	-23
1.36933	-23
1.37300	-23
1.37667	-27
1.38033	-31
1.38400	-35
1.38767	-37
1.39133	-36
1.39500	-29
1.39867	-17
1.40233	-8
1.40600	-7
1.40967	-10
1.41333	-14
1.41700	-18
1.42067	-23
1.42433	-28
1.42800	-30
1.43167	-31
1.43533	-30
1.43900	-9
1.44267	105
1.44633	382
1.45000	741
1.45367	1046
1.45733	1238
1.46100	1321
1.46467	1329
1.46833	1298
1.47200	1253
1.47567	1203
1.47933	1148
1.48300	1082
1.48667	996
1.49033	888
1.49400	766
1.49767	642
1.50133	529
1.50500	431
1.50867	348
1.51233	279
1.51600	223
1.51967	180
1.52333	146
1.52700	121
1.53067	102
1.53433	90
1.53800	117
1.54167	292
1.54533	838
1.54900	1954
1.55267	3579
1.55633	5408
1.56000	7116
1.56367	8489
1.56733	9373
1.57100	9610
1.57467	9090
1.57833	7906
1.58200	6357
1.58567	4787
1.58933	3428
1.59300	2370
1.59667	1601
1.60033	1063
1.60400	697
1.60767	455
1.61133	298
1.61500	195
1.61867	130
1.62233	91
1.62600	66
1.62967	53
1.63333	47
1.63700	45
1.64067	41
1.64433	28
1.64800	11
1.65167	-5
1.65533	-13
1.65900	-16
1.66267	-16
1.66633	-15
1.67000	-13
1.67367	-14
1.67733	-20
1.68100	-25
1.68467	-25
1.68833	-23
1.69200	-22
1.69567	-25
1.69933	-32
1.70300	-38
1.70667	-44
1.71033	-45
1.71400	-43
1.71767	-40
1.72133	-35
1.72500	-30
1.72867	-27
1.73233	-28
1.73600	-27
1.73967	-26
1.74333	-24
1.74700	-22
1.75067	-22
1.75433	-22
1.75800	-20
1.76167	-14
1.76533	-6
1.76900	-2
1.77267	-5
1.77633	-10
1.78000	-13
1.78367	-15
1.78733	-14
1.79100	-14
1.79467	-15
1.79833	-14
1.80200	-11
1.80567	-11
1.80933	-12
1.81300	-16
1.81667	-23
1.82033	-28
1.82400	-28
1.82767	-28
1.83133	-29
1.83500	-30
1.83867	-30
1.84233	-28
1.84600	-25
1.84967	-22
1.85333	-18
1.85700	-20
1.86067	-28
1.86433	-35
1.86800	-37
1.87167	-35
1.87533	-28
1.87900	-21
1.88267	-15
1.88633	-12
1.89000	-13
1.89367	-16
1.89733	-20
1.90100	-25
1.90467	-28
1.90833	-27
1.91200	-19
1.91567	-9
1.91933	-1
1.92300	1
1.92667	-1
1.93033	-2
1.93400	-3
1.93767	-5
1.94133	-10
1.94500	-17
1.94867	-19
1.95233	-9
1.95600	82
1.95967	628
1.96333	3314
1.96700	13441
1.97067	42580
1.97433	107472
1.97800	220543
1.98167	377685
1.98533	556170
1.98900	725338
1.99267	857684
1.99633	933070
2.00000	941139
2.00367	883617
2.00733	775074
2.01100	638635
2.01467	498245
2.01833	371854
2.02200	268553
2.02567	189840
2.02933	132761
2.03300	92743
2.03667	65287
2.04033	46672
2.04400	34098
2.04767	25578
2.05133	19753
2.05500	15714
2.05867	12860
2.06233	10792
2.06600	9253
2.06967	8077
2.07333	7157
2.07700	6423
2.08067	5827
2.08433	5333
2.08800	4915
2.09167	4561
2.09533	4254
2.09900	3982
2.10267	3742
2.10633	3527
2.11000	3339
2.11367	3170
2.11733	3016
2.12100	2875
2.12467	2743
2.12833	2620
2.13200	2505
2.13567	2401
2.13933	2312
2.14300	2232
2.14667	2157
2.15033	2086
2.15400	2016
2.15767	1947
2.16133	1880
2.16500	1819
2.16867	1763
2.17233	1709
2.17600	1656
2.17967	1609
2.18333	1565
2.18700	1523
2.19067	1480
2.19433	1441
2.19800	1403
2.20167	1368
2.20533	1335
2.20900	1306
2.21267	1279
2.21633	1252
2.22000	1225
2.22367	1194
2.22733	1163
2.23100	1135
2.23467	1110
2.23833	1089
2.24200	1067
2.24567	1044
2.24933	1020
2.25300	995
2.25667	972
2.26033	954
2.26400	940
2.26767	928
2.27133	917
2.27500	902
2.27867	890
2.28233	878
2.28600	864
2.28967	851
2.29333	841
2.29700	833
2.30067	824
2.30433	812
2.30800	799
2.31167	787
2.31533	775
2.31900	761
2.32267	746
2.32633	734
2.33000	722
2.33367	711
2.33733	704
2.34100	701
2.34467	697
2.34833	688
2.35200	673
2.35567	660
2.35933	653
2.36300	651
2.36667	655
2.37033	658
2.37400	655
2.37767	646
2.38133	634
2.38500	626
2.38867	619
2.39233	610
2.39600	597
2.39967	584
2.40333	573
2.40700	564
2.41067	558
2.41433	556
2.41800	560
2.42167	567
2.42533	573
2.42900	575
2.43267	573
2.43633	569
2.44000	564
2.44367	557
2.44733	550
2.45100	541
2.45467	529
2.45833	518
2.46200	513
2.46567	512
2.46933	514
2.47300	516
2.47667	514
2.48033	509
2.48400	503
2.48767	497
2.49133	491
2.49500	484
2.49867	477
2.50233	472
2.50600	469
2.50967	465
2.51333	464
2.51700	466
2.52067	470
2.52433	474
2.52800	475
2.53167	475
2.53533	472
2.53900	467
2.54267	464
2.54633	465
2.55000	468
2.55367	468
2.55733	462
2.56100	454
2.56467	445
2.56833	436
2.57200	427
2.57567	419
2.57933	413
2.58300	406
2.58667	400
2.59033	397
2.59400	396
2.59767	396
2.60133	399
2.60500	407
2.60867	415
2.61233	422
2.61600	424
2.61967	421
2.62333	418
2.62700	416
2.63067	414
2.63433	411
2.63800	405
2.64167	400
2.64533	395
2.64900	388
2.65267	382
2.65633	377
2.66000	372
2.66367	371
2.66733	374
2.67100	375
2.67467	377
2.67833	381
2.68200	386
2.68567	393
2.68933	398
2.69300	396
2.69667	391
2.70033	387
2.70400	384
2.70767	382
2.71133	378
2.71500	373
2.71867	365
2.72233	358
2.72600	355
2.72967	355
2.73333	356
2.73700	354
2.74067	351
2.74433	348
2.74800	347
2.75167	349
2.75533	354
2.75900	357
2.76267	358
2.76633	358
2.77000	359
2.77367	361
2.77733	363
2.78100	364
2.78467	366
2.78833	367
2.79200	367
2.79567	364
2.79933	358
2.80300	355
2.80667	357
2.81033	358
2.81400	358
2.81767	355
2.82133	349
2.82500	341
2.82867	336
2.83233	336
2.83600	341
2.83967	346
2.84333	345
2.84700	342
2.85067	338
2.85433	333
2.85800	331
2.86167	333
2.86533	335
2.86900	335
2.87267	334
2.87633	335
2.88000	335
2.88367	335
2.88733	337
2.89100	337
2.89467	335
2.89833	335
2.90200	339
2.90567	339
2.90933	335
2.91300	329
2.91667	325
2.92033	324
2.92400	323
2.92767	324
2.93133	328
2.93500	333
2.93867	339
2.94233	343
2.94600	343
2.94967	341
2.95333	334
2.95700	325
2.96067	319
2.96433	317
2.96800	320
2.97167	322
2.97533	324
2.97900	325
2.98267	326
2.98633	325
2.99000	324
2.99367	325
2.99733	329
3.00100	332
3.00467	333
3.00833	336
3.01200	338
3.01567	337
3.01933	335
3.02300	336
3.02667	341
3.03033	345
3.03400	339
3.03767	326
3.04133	314
3.04500	305
3.04867	300
3.05233	297
3.05600	297
3.05967	298
3.06333	297
3.06700	292
3.07067	288
3.07433	286
3.07800	287
3.08167	290
3.08533	294
3.08900	296
3.09267	298
3.09633	300
3.10000	301
3.10367	302
3.10733	306
3.11100	314
3.11467	321
3.11833	324
3.12200	324
3.12567	323
3.12933	323
3.13300	321
3.13667	320
3.14033	320
3.14400	325
3.14767	332
3.15133	336
3.15500	331
3.15867	322
3.16233	311
3.16600	305
3.16967	304
3.17333	307
3.17700	308
3.18067	308
3.18433	309
3.18800	307
3.19167	303
3.19533	299
3.19900	297
3.20267	293
3.20633	291
3.21000	294
3.21367	295
3.21733	292
3.22100	286
3.22467	282
3.22833	284
3.23200	291
3.23567	299
3.23933	305
3.24300	308
3.24667	304
3.25033	299
3.25400	296
3.25767	293
3.26133	290
3.26500	289
3.26867	289
3.27233	289
3.27600	289
3.27967	289
3.28333	290
3.28700	291
3.29067	293
3.29433	294
3.29800	294
3.30167	296
3.30533	292
3.30900	281
3.31267	268
3.31633	257
3.32000	250
3.32367	250
3.32733	254
3.33100	259
3.33467	263
3.33833	268
3.34200	274
3.34567	281
3.34933	285
3.35300	286
3.35667	284
3.36033	283
3.36400	285
3.36767	287
3.37133	287
3.37500	282
3.37867	276
3.38233	270
3.38600	265
3.38967	262
3.39333	264
3.39700	269
3.40067	276
3.40433	277
3.40800	274
3.41167	270
3.41533	266
3.41900	262
3.42267	261
3.42633	263
3.43000	266
3.43367	271
3.43733	278
3.44100	282
3.44467	282
3.44833	280
3.45200	277
3.45567	276
3.45933	277
3.46300	278
3.46667	278
3.47033	277
3.47400	274
3.47767	268
3.48133	263
3.48500	260
3.48867	257
3.49233	254
3.49600	250
3.49967	248
3.50333	246
3.50700	247
3.51067	247
3.51433	246
3.51800	247
3.52167	252
3.52533	262
3.52900	271
3.53267	279
3.53633	283
3.54000	282
3.54367	274
3.54733	263
3.55100	252
3.55467	242
3.55833	235
3.56200	235
3.56567	240
3.56933	249
3.57300	259
3.57667	268
3.58033	275
3.58400	280
3.58767	284
3.59133	285
3.59500	281
3.59867	274
3.60233	265
3.60600	255
3.60967	247
3.61333	239
3.61700	232
3.62067	226
3.62433	222
3.62800	222
3.63167	223
3.63533	225
3.63900	228
3.64267	229
3.64633	231
3.65000	236
3.65367	240
3.65733	243
3.66100	246
3.66467	247
3.66833	249
3.67200	253
3.67567	255
3.67933	255
3.68300	255
3.68667	256
3.69033	255
3.69400	255
3.69767	255
3.70133	256
3.70500	257
3.70867	258
3.71233	258
3.71600	256
3.71967	250
3.72333	242
3.72700	233
3.73067	227
3.73433	223
3.73800	220
3.74167	219
3.74533	219
3.74900	224
3.75267	232
3.75633	238
3.76000	241
3.76367	238
3.76733	232
3.77100	224
3.77467	221
3.77833	223
3.78200	224
3.78567	226
3.78933	226
3.79300	228
3.79667	230
3.80033	233
3.80400	232
3.80767	228
3.81133	227
3.81500	227
3.81867	226
3.82233	225
3.82600	226
3.82967	229
3.83333	231
3.83700	232
3.84067	233
3.84433	234
3.84800	234
3.85167	234
3.85533	235
3.85900	234
3.86267	232
3.86633	231
3.87000	231
3.87367	233
3.87733	234
3.88100	235
3.88467	234
3.88833	230
3.89200	226
3.89567	220
3.89933	215
3.90300	215
3.90667	222
3.91033	230
3.91400	237
3.91767	242
3.92133	238
3.92500	229
3.92867	220
3.93233	214
3.93600	212
3.93967	213
3.94333	217
3.94700	224
3.95067	236
3.95433	243
3.95800	241
3.96167	232
3.96533	219
3.96900	211
3.97267	210
3.97633	214
3.98000	216
3.98367	219
3.98733	224
3.99100	229
3.99467	235
3.99833	241

[Chromatogram (Ch2)]
Interval(msec)	220
# of Points	1091
Start Time(min)	0.002
End Time(min)	3.998
R.Time (min)	Intensity
0.00167	0
0.00533	0
0.00900	0
0.01267	0
0.01633	0
0.02000	1
0.02367	1
0.02733	1
0.03100	1
0.03467	1
0.03833	1
0.04200	1
0.04567	1
0.04933	1
0.05300	1
0.05667	1
0.06033	0
0.06400	0
0.06767	-0
0.07133	-0
0.07500	-1
0.07867	-1
0.08233	-1
0.08600	-2
0.08967	-2
0.09333	-2
0.09700	-2
0.10067	-2
0.10433	-1
0.10800	-1
0.11167	-1
0.11533	-1
0.11900	-1
0.12267	-1
0.12633	-1
0.13000	-1
0.13367	-1
0.13733	-1
0.14100	-1
0.14467	-1
0.14833	-1
0.15200	-1
0.15567	-1
0.15933	-1
0.16300	-1
0.16667	-1
0.17033	-1
0.17400	-1
0.17767	-0
0.18133	0
0.18500	1
0.18867	1
0.19233	1
0.19600	1
0.19967	1
0.20333	1
0.20700	1
0.21067	1
0.21433	1
0.21800	2
0.22167	2
0.22533	2
0.22900	2
0.23267	2
0.23633	2
0.24000	2
0.24367	1
0.24733	1
0.25100	1
0.25467	1
0.25833	1
0.26200	1
0.26567	1
0.26933	1
0.27300	0
0.27667	0
0.28033	0
0.28400	0
0.28767	0
0.29133	0
0.29500	-0
0.29867	-0
0.30233	-0
0.30600	-0
0.30967	0
0.31333	0
0.31700	0
0.32067	1
0.32433	1
0.32800	0
0.33167	0
0.33533	0
0.33900	0
0.34267	-0
0.34633	-0
0.35000	-0
0.35367	-0
0.35733	-1
0.36100	-1
0.36467	-1
0.36833	-1
0.37200	-1
0.37567	-1
0.37933	-1
0.38300	-1
0.38667	-1
0.39033	-1
0.39400	-1
0.39767	-1
0.40133	-1
0.40500	-1
0.40867	-1
0.41233	-1
0.41600	-1
0.41967	-1
0.42333	-1
0.42700	-2
0.43067	-2
0.43433	-2
0.43800	-2
0.44167	-2
0.44533	-2
0.44900	-2
0.45267	-2
0.45633	-2
0.46000	-2
0.46367	-1
0.46733	-1
0.47100	-1
0.47467	-1
0.47833	-1
0.48200	-0
0.48567	-0
0.48933	0
0.49300	0
0.49667	0
0.50033	0
0.50400	0
0.50767	0
0.51133	0
0.51500	0
0.51867	0
0.52233	0
0.52600	0
0.52967	0
0.53333	0
0.53700	0
0.54067	0
0.54433	-0
0.54800	-0
0.55167	-0
0.55533	-0
0.55900	-0
0.56267	-0
0.56633	-1
0.57000	-1
0.57367	-1
0.57733	-1
0.58100	-2
0.58467	-2
0.58833	-2
0.59200	-2
0.59567	-2
0.59933	-2
0.60300	-2
0.60667	-2
0.61033	-2
0.61400	-2
0.61767	-2
0.62133	-1
0.62500	-1
0.62867	-1
0.63233	-1
0.63600	-1
0.63967	-1
0.64333	-1
0.64700	-1
0.65067	-1
0.65433	-1
0.65800	-1
0.66167	-2
0.66533	-2
0.66900	-2
0.67267	-2
0.67633	-2
0.68000	-2
0.68367	-2
0.68733	-2
0.69100	-2
0.69467	-2
0.69833	-2
0.70200	-2
0.70567	-2
0.70933	-2
0.71300	-2
0.71667	-2
0.72033	-2
0.72400	-2
0.72767	-2
0.73133	-2
0.73500	-3
0.73867	-3
0.74233	-3
0.74600	-3
0.74967	-4
0.75333	-4
0.75700	-4
0.76067	-3
0.76433	-3
0.76800	-3
0.77167	-3
0.77533	-4
0.77900	-4
0.78267	-4
0.78633	-4
0.79000	-4
0.79367	-3
0.79733	-3
0.80100	-3
0.80467	-3
0.80833	-2
0.81200	-2
0.81567	-2
0.81933	-2
0.82300	-2
0.82667	-2
0.83033	-2
0.83400	-2
0.83767	-2
0.84133	-2
0.84500	-1
0.84867	-1
0.85233	-1
0.85600	-1
0.85967	-1
0.86333	-1
0.86700	-1
0.87067	-1
0.87433	-1
0.87800	-1
0.88167	-1
0.88533	-1
0.88900	-1
0.89267	-1
0.89633	-2
0.90000	-1
0.90367	-1
0.90733	-1
0.91100	-1
0.91467	-1
0.91833	-1
0.92200	-1
0.92567	-1
0.92933	-1
0.93300	-2
0.93667	-2
0.94033	-2
0.94400	-2
0.94767	-1
0.95133	-1
0.95500	-1
0.95867	-1
0.96233	-1
0.96600	-1
0.96967	-0
0.97333	-0
0.97700	-0
0.98067	-0
0.98433	-0
0.98800	-1
0.99167	-0
0.99533	-0
0.99900	-0
1.00267	-0
1.00633	-0
1.01000	-0
1.01367	-1
1.01733	-1
1.02100	-1
1.02467	-1
1.02833	-2
1.03200	-2
1.03567	-2
1.03933	-3
1.04300	-3
1.04667	-4
1.05033	-4
1.05400	-4
1.05767	-4
1.06133	-4
1.06500	-4
1.06867	-3
1.07233	-3
1.07600	-3
1.07967	-2
1.08333	-2
1.08700	-1
1.09067	-1
1.09433	-0
1.09800	-0
1.10167	-0
1.10533	-0
1.10900	-0
1.11267	-0
1.11633	-0
1.12000	-0
1.12367	-1
1.12733	-1
1.13100	-1
1.13467	-1
1.13833	-1
1.14200	-1
1.14567	-1
1.14933	-1
1.15300	-1
1.15667	-0
1.16033	-0
1.16400	0
1.16767	0
1.17133	-0
1.17500	-0
1.17867	0
1.18233	0
1.18600	0
1.18967	0
1.19333	0
1.19700	0
1.20067	0
1.20433	0
1.20800	0
1.21167	0
1.21533	-0
1.21900	-0
1.22267	-1
1.22633	-1
1.23000	-1
1.23367	-1
1.23733	-1
1.24100	-1
1.24467	-1
1.24833	-1
1.25200	-1
1.25567	-1
1.25933	-1
1.26300	-2
1.26667	-2
1.27033	-2
1.27400	-2
1.27767	-1
1.28133	-1
1.28500	-1
1.28867	-1
1.29233	-1
1.29600	-1
1.29967	-2
1.30333	-2
1.30700	-2
1.31067	-2
1.31433	-2
1.31800	-2
1.32167	-2
1.32533	-2
1.32900	-2
1.33267	-2
1.33633	-2
1.34000	-2
1.34367	-2
1.34733	-1
1.35100	-1
1.35467	-1
1.35833	-1
1.36200	-1
1.36567	-1
1.36933	-1
1.37300	-1
1.37667	-2
1.38033	-2
1.38400	-2
1.38767	-2
1.39133	-2
1.39500	-2
1.39867	-2
1.40233	-2
1.40600	-2
1.40967	-2
1.41333	-3
1.41700	-3
1.42067	-4
1.42433	-4
1.42800	-4
1.43167	-4
1.43533	-4
1.43900	-4
1.44267	-4
1.44633	-4
1.45000	-4
1.45367	-3
1.45733	-3
1.46100	-2
1.46467	-2
1.46833	-2
1.47200	-2
1.47567	-1
1.47933	-1
1.48300	-1
1.48667	-1
1.49033	-2
1.49400	-2
1.49767	-2
1.50133	-1
1.50500	-1
1.50867	-1
1.51233	-1
1.51600	-1
1.51967	-1
1.52333	-1
1.52700	-1
1.53067	-1
1.53433	-1
1.53800	-1
1.54167	-1
1.54533	-1
1.54900	-1
1.55267	-2
1.55633	-2
1.56000	-2
1.56367	-2
1.56733	-2
1.57100	-2
1.57467	-2
1.57833	-2
1.58200	-2
1.58567	-2
1.58933	-2
1.59300	-2
1.59667	-3
1.60033	-4
1.60400	-5
1.60767	-6
1.61133	-8
1.61500	-10
1.61867	-12
1.62233	-15
1.62600	-18
1.62967	-21
1.63333	-24
1.63700	-28
1.64067	-31
1.64433	-35
1.64800	-39
1.65167	-42
1.65533	-46
1.65900	-50
1.66267	-54
1.66633	-58
1.67000	-62
1.67367	-67
1.67733	-71
1.68100	-76
1.68467	-81
1.68833	-85
1.69200	-89
1.69567	-92
1.69933	-95
1.70300	-98
1.70667	-100
1.71033	-102
1.71400	-104
1.71767	-105
1.72133	-106
1.72500	-107
1.72867	-108
1.73233	-109
1.73600	-111
1.73967	-112
1.74333	-112
1.74700	-113
1.75067	-113
1.75433	-113
1.75800	-113
1.76167	-113
1.76533	-113
1.76900	-114
1.77267	-114
1.77633	-115
1.78000	-116
1.78367	-116
1.78733	-117
1.79100	-117
1.79467	-118
1.79833	-118
1.80200	-118
1.80567	-118
1.80933	-118
1.81300	-118
1.81667	-119
1.82033	-119
1.82400	-119
1.82767	-119
1.83133	-120
1.83500	-120
1.83867	-120
1.84233	-120
1.84600	-120
1.84967	-120
1.85333	-119
1.85700	-119
1.86067	-119
1.86433	-118
1.86800	-118
1.87167	-118
1.87533	-119
1.87900	-119
1.88267	-120
1.88633	-120
1.89000	-120
1.89367	-120
1.89733	-120
1.90100	-120
1.90467	-120
1.90833	-120
1.91200	-120
1.91567	-119
1.91933	-119
1.92300	-119
1.92667	-119
1.93033	-118
1.93400	-118
1.93767	-117
1.94133	-117
1.94500	-117
1.94867	-116
1.95233	-116
1.95600	-116
1.95967	-116
1.96333	-115
1.96700	-115
1.97067	-115
1.97433	-115
1.97800	-115
1.98167	-115
1.98533	-114
1.98900	-113
1.99267	-113
1.99633	-112
2.00000	-112
2.00367	-112
2.00733	-112
2.01100	-112
2.01467	-112
2.01833	-112
2.02200	-112
2.02567	-111
2.02933	-111
2.03300	-110
2.03667	-110
2.04033	-109
2.04400	-109
2.04767	-109
2.05133	-109
2.05500	-109
2.05867	-109
2.06233	-109
2.06600	-109
2.06967	-109
2.07333	-110
2.07700	-110
2.08067	-111
2.08433	-111
2.08800	-110
2.09167	-110
2.09533	-109
2.09900	-108
2.10267	-107
2.10633	-106
2.11000	-106
2.11367	-105
2.11733	-105
2.12100	-104
2.12467	-104
2.12833	-104
2.13200	-103
2.13567	-103
2.13933	-103
2.14300	-102
2.14667	-102
2.15033	-101
2.15400	-101
2.15767	-100
2.16133	-99
2.16500	-99
2.16867	-98
2.17233	-98
2.17600	-98
2.17967	-98
2.18333	-98
2.18700	-98
2.19067	-97
2.19433	-97
2.19800	-96
2.20167	-95
2.20533	-95
2.20900	-94
2.21267	-94
2.21633	-94
2.22000	-94
2.22367	-94
2.22733	-94
2.23100	-93
2.23467	-93
2.23833	-92
2.24200	-92
2.24567	-92
2.24933	-91
2.25300	-91
2.25667	-91
2.26033	-90
2.26400	-90
2.26767	-89
2.27133	-89
2.27500	-88
2.27867	-88
2.28233	-87
2.28600	-87
2.28967	-87
2.29333	-87
2.29700	-87
2.30067	-87
2.30433	-87
2.30800	-87
2.31167	-87
2.31533	-87
2.31900	-86
2.32267	-86
2.32633	-85
2.33000	-85
2.33367	-84
2.33733	-84
2.34100	-84
2.34467	-84
2.34833	-84
2.35200	-83
2.35567	-83
2.35933	-82
2.36300	-80
2.36667	-79
2.37033	-77
2.37400	-75
2.37767	-73
2.38133	-70
2.38500	-67
2.38867	-64
2.39233	-60
2.39600	-56
2.39967	-52
2.40333	-48
2.40700	-43
2.41067	-40
2.41433	-36
2.41800	-32
2.42167	-29
2.42533	-26
2.42900	-23
2.43267	-21
2.43633	-18
2.44000	-15
2.44367	-13
2.44733	-10
2.45100	-9
2.45467	-7
2.45833	-6
2.46200	-4
2.46567	-2
2.46933	-0
2.47300	2
2.47667	3
2.48033	4
2.48400	5
2.48767	6
2.49133	6
2.49500	7
2.49867	7
2.50233	8
2.50600	9
2.50967	10
2.51333	10
2.51700	11
2.52067	12
2.52433	12
2.52800	12
2.53167	13
2.53533	13
2.53900	13
2.54267	13
2.54633	13
2.55000	14
2.55367	14
2.55733	14
2.56100	15
2.56467	15
2.56833	15
2.57200	16
2.57567	16
2.57933	16
2.58300	16
2.58667	16
2.59033	16
2.59400	16
2.59767	16
2.60133	16
2.60500	16
2.60867	16
2.61233	17
2.61600	17
2.61967	18
2.62333	18
2.62700	19
2.63067	19
2.63433	19
2.63800	20
2.64167	20
2.64533	20
2.64900	20
2.65267	20
2.65633	20
2.66000	20
2.66367	20
2.66733	20
2.67100	20
2.67467	20
2.67833	20
2.68200	21
2.68567	21
2.68933	22
2.69300	22
2.69667	23
2.70033	23
2.70400	23
2.70767	24
2.71133	23
2.71500	23
2.71867	23
2.72233	23
2.72600	22
2.72967	22
2.73333	22
2.73700	22
2.74067	22
2.74433	22
2.74800	22
2.75167	22
2.75533	22
2.75900	23
2.76267	23
2.76633	23
2.77000	24
2.77367	24
2.77733	24
2.78100	24
2.78467	24
2.78833	25
2.79200	25
2.79567	25
2.79933	26
2.80300	26
2.80667	26
2.81033	26
2.81400	26
2.81767	26
2.82133	26
2.82500	26
2.82867	26
2.83233	26
2.83600	26
2.83967	26
2.84333	26
2.84700	26
2.85067	26
2.85433	24
2.85800	21
2.86167	16
2.86533	9
2.86900	-2
2.87267	-17
2.87633	-35
2.88000	-58
2.88367	-86
2.88733	-119
2.89100	-157
2.89467	-200
2.89833	-247
2.90200	-298
2.90567	-354
2.90933	-413
2.91300	-475
2.91667	-541
2.92033	-609
2.92400	-680
2.92767	-753
2.93133	-828
2.93500	-906
2.93867	-986
2.94233	-1067
2.94600	-1149
2.94967	-1235
2.95333	-1320
2.95700	-1399
2.96067	-1457
2.96433	-1485
2.96800	-1478
2.97167	-1438
2.97533	-1371
2.97900	-1284
2.98267	-1184
2.98633	-1078
2.99000	-970
2.99367	-866
2.99733	-766
3.00100	-674
3.00467	-589
3.00833	-512
3.01200	-444
3.01567	-383
3.01933	-329
3.02300	-282
3.02667	-241
3.03033	-206
3.03400	-175
3.03767	-149
3.04133	-126
3.04500	-107
3.04867	-90
3.05233	-76
3.05600	-64
3.05967	-53
3.06333	-44
3.06700	-37
3.07067	-30
3.07433	-24
3.07800	-19
3.08167	-15
3.08533	-11
3.08900	-8
3.09267	-5
3.09633	-3
3.10000	-1
3.10367	1
3.10733	3
3.11100	4
3.11467	5
3.11833	7
3.12200	8
3.12567	8
3.12933	9
3.13300	10
3.13667	10
3.14033	11
3.14400	12
3.14767	12
3.15133	13
3.15500	14
3.15867	14
3.16233	15
3.16600	15
3.16967	16
3.17333	16
3.17700	17
3.18067	17
3.18433	17
3.18800	18
3.19167	18
3.19533	18
3.19900	18
3.20267	18
3.20633	18
3.21000	18
3.21367	18
3.21733	19
3.22100	19
3.22467	19
3.22833	19
3.23200	19
3.23567	19
3.23933	20
3.24300	20
3.24667	20
3.25033	20
3.25400	20
3.25767	20
3.26133	20
3.26500	20
3.26867	20
3.27233	20
3.27600	20
3.27967	20
3.28333	20
3.28700	21
3.29067	21
3.29433	22
3.29800	22
3.30167	22
3.30533	23
3.30900	23
3.31267	23
3.31633	23
3.32000	24
3.32367	24
3.32733	24
3.33100	25
3.33467	25
3.33833	25
3.34200	26
3.34567	26
3.34933	26
3.35300	26
3.35667	26
3.36033	25
3.36400	25
3.36767	25
3.37133	25
3.37500	26
3.37867	26
3.38233	26
3.38600	26
3.38967	26
3.39333	26
3.39700	26
3.40067	26
3.40433	26
3.40800	27
3.41167	27
3.41533	27
3.41900	27
3.42267	27
3.42633	27
3.43000	27
3.43367	27
3.43733	27
3.44100	26
3.44467	26
3.44833	26
3.45200	26
3.45567	26
3.45933	26
3.46300	26
3.46667	26
3.47033	26
3.47400	26
3.47767	26
3.48133	26
3.48500	26
3.48867	26
3.49233	26
3.49600	26
3.49967	26
3.50333	26
3.50700	26
3.51067	26
3.51433	26
3.51800	26
3.52167	26
3.52533	26
3.52900	26
3.53267	26
3.53633	25
3.54000	25
3.54367	25
3.54733	25
3.55100	25
3.55467	25
3.55833	25
3.56200	25
3.56567	25
3.56933	25
3.57300	25
3.57667	25
3.58033	25
3.58400	25
3.58767	25
3.59133	25
3.59500	25
3.59867	25
3.60233	25
3.60600	24
3.60967	24
3.61333	24
3.61700	24
3.62067	25
3.62433	25
3.62800	25
3.63167	25
3.63533	25
3.63900	25
3.64267	25
3.64633	25
3.65000	25
3.65367	25
3.65733	25
3.66100	25
3.66467	25
3.66833	25
3.67200	25
3.67567	25
3.67933	25
3.68300	25
3.68667	26
3.69033	26
3.69400	26
3.69767	26
3.70133	26
3.70500	26
3.70867	26
3.71233	26
3.71600	26
3.71967	26
3.72333	25
3.72700	25
3.73067	25
3.73433	25
3.73800	25
3.74167	25
3.74533	25
3.74900	26
3.75267	26
3.75633	26
3.76000	26
3.76367	26
3.76733	26
3.77100	26
3.77467	26
3.77833	26
3.78200	26
3.78567	26
3.78933	26
3.79300	26
3.79667	26
3.80033	26
3.80400	26
3.80767	26
3.81133	26
3.81500	26
3.81867	26
3.82233	26
3.82600	26
3.82967	26
3.83333	26
3.83700	26
3.84067	26
3.84433	26
3.84800	26
3.85167	25
3.85533	25
3.85900	25
3.86267	25
3.86633	25
3.87000	25
3.87367	25
3.87733	25
3.88100	25
3.88467	25
3.88833	25
3.89200	25
3.89567	25
3.89933	25
3.90300	25
3.90667	25
3.91033	25
3.91400	25
3.91767	25
3.92133	25
3.92500	25
3.92867	25
3.93233	25
3.93600	25
3.93967	26
3.94333	26
3.94700	26
3.95067	26
3.95433	26
3.95800	26
3.96167	26
3.96533	26
3.96900	26
3.97267	25
3.97633	25
3.98000	25
3.98367	25
3.98733	25
3.99100	25
3.99467	25
3.99833	25

[Chromatogram (Ch3)]
Interval(msec)	220
# of Points	1091
Start Time(min)	0.002
End Time(min)	3.998
R.Time (min)	Intensity
0.00167	1
0.00533	2
0.00900	1
0.01267	0
0.01633	-1
0.02000	-1
0.02367	0
0.02733	-1
0.03100	-2
0.03467	-2
0.03833	-2
0.04200	2
0.04567	3
0.04933	1
0.05300	0
0.05667	1
0.06033	5
0.06400	7
0.06767	5
0.07133	2
0.07500	0
0.07867	-0
0.08233	-3
0.08600	-3
0.08967	-2
0.09333	-3
0.09700	-4
0.10067	-5
0.10433	-4
0.10800	-4
0.11167	-3
0.11533	-3
0.11900	-5
0.12267	-8
0.12633	-9
0.13000	-11
0.13367	-10
0.13733	-9
0.14100	-8
0.14467	-6
0.14833	-4
0.15200	-3
0.15567	-2
0.15933	-3
0.16300	-5
0.16667	-7
0.17033	-5
0.17400	-4
0.17767	-4
0.18133	-6
0.18500	-9
0.18867	-9
0.19233	-7
0.19600	-5
0.19967	-5
0.20333	-7
0.20700	-7
0.21067	-6
0.21433	-6
0.21800	-6
0.22167	-6
0.22533	-5
0.22900	-5
0.23267	-8
0.23633	-10
0.24000	-10
0.24367	-6
0.24733	-5
0.25100	-5
0.25467	-6
0.25833	-9
0.26200	-11
0.26567	-10
0.26933	-9
0.27300	-8
0.27667	-5
0.28033	-3
0.28400	-5
0.28767	-8
0.29133	-8
0.29500	-8
0.29867	-6
0.30233	-5
0.30600	-5
0.30967	-6
0.31333	-8
0.31700	-11
0.32067	-12
0.32433	-12
0.32800	-11
0.33167	-12
0.33533	-14
0.33900	-14
0.34267	-13
0.34633	-11
0.35000	-10
0.35367	-12
0.35733	-12
0.36100	-11
0.36467	-9
0.36833	-8
0.37200	-9
0.37567	-11
0.37933	-12
0.38300	-12
0.38667	-14
0.39033	-14
0.39400	-13
0.39767	-14
0.40133	-12
0.40500	-10
0.40867	-9
0.41233	-9
0.41600	-8
0.41967	-8
0.42333	-8
0.42700	-9
0.43067	-11
0.43433	-9
0.43800	-10
0.44167	-9
0.44533	-8
0.44900	-9
0.45267	-10
0.45633	-8
0.46000	-6
0.46367	-6
0.46733	-6
0.47100	-8
0.47467	-8
0.47833	-10
0.48200	-10
0.48567	-10
0.48933	-12
0.49300	-15
0.49667	-16
0.50033	-18
0.50400	-18
0.50767	-17
0.51133	-16
0.51500	-18
0.51867	-20
0.52233	-22
0.52600	-22
0.52967	-20
0.53333	-19
0.53700	-18
0.54067	-13
0.54433	-12
0.54800	-13
0.55167	-13
0.55533	-13
0.55900	-14
0.56267	-17
0.56633	-18
0.57000	-17
0.57367	-14
0.57733	-13
0.58100	-13
0.58467	-13
0.58833	-14
0.59200	-15
0.59567	-16
0.59933	-18
0.60300	-17
0.60667	-14
0.61033	-12
0.61400	-13
0.61767	-14
0.62133	-14
0.62500	-16
0.62867	-16
0.63233	-18
0.63600	-20
0.63967	-21
0.64333	-20
0.64700	-19
0.65067	-18
0.65433	-18
0.65800	-17
0.66167	-16
0.66533	-16
0.66900	-16
0.67267	-18
0.67633	-18
0.68000	-17
0.68367	-15
0.68733	-15
0.69100	-16
0.69467	-17
0.69833	-19
0.70200	-22
0.70567	-22
0.70933	-20
0.71300	-17
0.71667	-19
0.72033	-22
0.72400	-23
0.72767	-22
0.73133	-21
0.73500	-19
0.73867	-18
0.74233	-19
0.74600	-22
0.74967	-24
0.75333	-23
0.75700	-22
0.76067	-20
0.76433	-21
0.76800	-21
0.77167	-20
0.77533	-19
0.77900	-19
0.78267	-18
0.78633	-16
0.79000	-15
0.79367	-18
0.79733	-18
0.80100	-16
0.80467	-17
0.80833	-19
0.81200	-18
0.81567	-19
0.81933	-22
0.82300	-25
0.82667	-27
0.83033	-27
0.83400	-26
0.83767	-26
0.84133	-27
0.84500	-25
0.84867	-23
0.85233	-23
0.85600	-23
0.85967	-23
0.86333	-23
0.86700	-24
0.87067	-26
0.87433	-27
0.87800	-25
0.88167	-27
0.88533	-29
0.88900	-28
0.89267	-28
0.89633	-29
0.90000	-28
0.90367	-26
0.90733	-23
0.91100	-24
0.91467	-24
0.91833	-22
0.92200	-22
0.92567	-23
0.92933	-23
0.93300	-26
0.93667	-27
0.94033	-27
0.94400	-26
0.94767	-27
0.95133	-27
0.95500	-26
0.95867	-26
0.96233	-26
0.96600	-23
0.96967	-23
0.97333	-23
0.97700	-24
0.98067	-26
0.98433	-27
0.98800	-26
0.99167	-24
0.99533	-25
0.99900	-25
1.00267	-27
1.00633	-30
1.01000	-29
1.01367	-29
1.01733	-28
1.02100	-28
1.02467	-29
1.02833	-32
1.03200	-32
1.03567	-30
1.03933	-28
1.04300	-27
1.04667	-27
1.05033	-28
1.05400	-30
1.05767	-30
1.06133	-29
1.06500	-28
1.06867	-27
1.07233	-27
1.07600	-29
1.07967	-29
1.08333	-30
1.08700	-31
1.09067	-32
1.09433	-33
1.09800	-34
1.10167	-34
1.10533	-34
1.10900	-31
1.11267	-30
1.11633	-29
1.12000	-29
1.12367	-31
1.12733	-32
1.13100	-30
1.13467	-29
1.13833	-31
1.14200	-34
1.14567	-36
1.14933	-37
1.15300	-35
1.15667	-34
1.16033	-33
1.16400	-34
1.16767	-36
1.17133	-37
1.17500	-37
1.17867	-38
1.18233	-36
1.18600	-35
1.18967	-33
1.19333	-32
1.19700	-33
1.20067	-35
1.20433	-38
1.20800	-40
1.21167	-41
1.21533	-42
1.21900	-43
1.22267	-39
1.22633	-35
1.23000	-36
1.23367	-39
1.23733	-40
1.24100	-41
1.24467	-41
1.24833	-43
1.25200	-43
1.25567	-41
1.25933	-39
1.26300	-40
1.26667	-40
1.27033	-41
1.27400	-40
1.27767	-38
1.28133	-36
1.28500	-36
1.28867	-39
1.29233	-38
1.29600	-36
1.29967	-36
1.30333	-40
1.30700	-42
1.31067	-42
1.31433	-41
1.31800	-40
1.32167	-42
1.32533	-47
1.32900	-50
1.33267	-51
1.33633	-52
1.34000	-53
1.34367	-49
1.34733	-45
1.35100	-48
1.35467	-49
1.35833	-48
1.36200	-50
1.36567	-49
1.36933	-50
1.37300	-51
1.37667	-49
1.38033	-49
1.38400	-48
1.38767	-49
1.39133	-49
1.39500	-50
1.39867	-49
1.40233	-48
1.40600	-46
1.40967	-43
1.41333	-43
1.41700	-44
1.42067	-46
1.42433	-46
1.42800	-48
1.43167	-50
1.43533	-51
1.43900	-50
1.44267	-50
1.44633	-52
1.45000	-51
1.45367	-50
1.45733	-49
1.46100	-49
1.46467	-49
1.46833	-50
1.47200	-52
1.47567	-52
1.47933	-50
1.48300	-49
1.48667	-48
1.49033	-47
1.49400	-46
1.49767	-48
1.50133	-50
1.50500	-51
1.50867	-52
1.51233	-56
1.51600	-60
1.51967	-60
1.52333	-58
1.52700	-57
1.53067	-54
1.53433	-52
1.53800	-52
1.54167	-52
1.54533	-51
1.54900	-51
1.55267	-53
1.55633	-54
1.56000	-54
1.56367	-54
1.56733	-53
1.57100	-55
1.57467	-56
1.57833	-54
1.58200	-53
1.58567	-53
1.58933	-53
1.59300	-54
1.59667	-55
1.60033	-52
1.60400	-51
1.60767	-51
1.61133	-51
1.61500	-52
1.61867	-53
1.62233	-54
1.62600	-52
1.62967	-50
1.63333	-50
1.63700	-49
1.64067	-50
1.64433	-51
1.64800	-51
1.65167	-49
1.65533	-48
1.65900	-48
1.66267	-49
1.66633	-49
1.67000	-48
1.67367	-46
1.67733	-44
1.68100	-41
1.68467	-36
1.68833	-35
1.69200	-34
1.69567	-32
1.69933	-29
1.70300	-26
1.70667	-25
1.71033	-26
1.71400	-29
1.71767	-32
1.72133	-34
1.72500	-33
1.72867	-32
1.73233	-31
1.73600	-28
1.73967	-25
1.74333	-25
1.74700	-26
1.75067	-26
1.75433	-28
1.75800	-27
1.76167	-28
1.76533	-29
1.76900	-30
1.77267	-29
1.77633	-28
1.78000	-27
1.78367	-28
1.78733	-29
1.79100	-29
1.79467	-30
1.79833	-27
1.80200	-23
1.80567	-20
1.80933	-19
1.81300	-18
1.81667	-16
1.82033	-15
1.82400	-14
1.82767	-12
1.83133	-10
1.83500	-10
1.83867	-11
1.84233	-12
1.84600	-11
1.84967	-10
1.85333	-12
1.85700	-14
1.86067	-11
1.86433	-11
1.86800	-10
1.87167	-11
1.87533	-13
1.87900	-13
1.88267	-12
1.88633	-9
1.89000	-6
1.89367	-6
1.89733	-7
1.90100	-3
1.90467	-1
1.90833	-2
1.91200	-4
1.91567	-2
1.91933	2
1.92300	4
1.92667	4
1.93033	3
1.93400	1
1.93767	0
1.94133	-1
1.94500	-0
1.94867	3
1.95233	4
1.95600	5
1.95967	7
1.96333	9
1.96700	12
1.97067	15
1.97433	19
1.97800	21
1.98167	20
1.98533	21
1.98900	22
1.99267	22
1.99633	21
2.00000	23
2.00367	24
2.00733	26
2.01100	29
2.01467	31
2.01833	33
2.02200	33
2.02567	35
2.02933	36
2.03300	36
2.03667	36
2.04033	35
2.04400	36
2.04767	36
2.05133	38
2.05500	39
2.05867	39
2.06233	40
2.06600	42
2.06967	44
2.07333	47
2.07700	52
2.08067	54
2.08433	54
2.08800	56
2.09167	56
2.09533	55
2.09900	58
2.10267	56
2.10633	54
2.11000	54
2.11367	54
2.11733	56
2.12100	60
2.12467	64
2.12833	67
2.13200	66
2.13567	64
2.13933	63
2.14300	62
2.14667	63
2.15033	66
2.15400	69
2.15767	71
2.16133	73
2.16500	73
2.16867	74
2.17233	76
2.17600	77
2.17967	79
2.18333	80
2.18700	80
2.19067	82
2.19433	86
2.19800	87
2.20167	87
2.20533	89
2.20900	91
2.21267	92
2.21633	92
2.22000	90
2.22367	89
2.22733	91
2.23100	91
2.23467	92
2.23833	95
2.24200	100
2.24567	102
2.24933	104
2.25300	104
2.25667	103
2.26033	106
2.26400	110
2.26767	112
2.27133	113
2.27500	115
2.27867	117
2.28233	119
2.28600	121
2.28967	122
2.29333	121
2.29700	121
2.30067	121
2.30433	122
2.30800	124
2.31167	127
2.31533	126
2.31900	125
2.32267	126
2.32633	127
2.33000	128
2.33367	132
2.33733	136
2.34100	137
2.34467	139
2.34833	143
2.35200	146
2.35567	149
2.35933	151
2.36300	152
2.36667	153
2.37033	154
2.37400	155
2.37767	156
2.38133	156
2.38500	155
2.38867	154
2.39233	156
2.39600	160
2.39967	164
2.40333	166
2.40700	166
2.41067	169
2.41433	171
2.41800	174
2.42167	174
2.42533	174
2.42900	176
2.43267	176
2.43633	177
2.44000	179
2.44367	191
2.44733	219
2.45100	242
2.45467	249
2.45833	239
2.46200	223
2.46567	208
2.46933	196
2.47300	182
2.47667	163
2.48033	144
2.48400	125
2.48767	107
2.49133	94
2.49500	86
2.49867	80
2.50233	75
2.50600	72
2.50967	72
2.51333	73
2.51700	70
2.52067	62
2.52433	51
2.52800	40
2.53167	33
2.53533	25
2.53900	15
2.54267	6
2.54633	-1
2.55000	-8
2.55367	-14
2.55733	-19
2.56100	-22
2.56467	-27
2.56833	-28
2.57200	-26
2.57567	-25
2.57933	-21
2.58300	-17
2.58667	-13
2.59033	-8
2.59400	-2
2.59767	3
2.60133	4
2.60500	-2
2.60867	-11
2.61233	-26
2.61600	-52
2.61967	-85
2.62333	-123
2.62700	-165
2.63067	-206
2.63433	-246
2.63800	-282
2.64167	-314
2.64533	-340
2.64900	-361
2.65267	-373
2.65633	-379
2.66000	-379
2.66367	-376
2.66733	-371
2.67100	-363
2.67467	-356
2.67833	-344
2.68200	-329
2.68567	-319
2.68933	-311
2.69300	-301
2.69667	-291
2.70033	-280
2.70400	-270
2.70767	-261
2.71133	-253
2.71500	-247
2.71867	-239
2.72233	-232
2.72600	-225
2.72967	-218
2.73333	-212
2.73700	-207
2.74067	-203
2.74433	-195
2.74800	-188
2.75167	-180
2.75533	-171
2.75900	-161
2.76267	-155
2.76633	-152
2.77000	-149
2.77367	-148
2.77733	-145
2.78100	-138
2.78467	-131
2.78833	-124
2.79200	-119
2.79567	-117
2.79933	-116
2.80300	-116
2.80667	-115
2.81033	-112
2.81400	-109
2.81767	-105
2.82133	-101
2.82500	-96
2.82867	-83
2.83233	-50
2.83600	30
2.83967	202
2.84333	523
2.84700	1058
2.85067	1862
2.85433	2964
2.85800	4351
2.86167	5970
2.86533	7723
2.86900	9481
2.87267	11105
2.87633	12466
2.88000	13462
2.88367	14040
2.88733	14197
2.89100	13975
2.89467	13439
2.89833	12676
2.90200	11767
2.90567	10776
2.90933	9755
2.91300	8747
2.91667	7784
2.92033	6888
2.92400	6066
2.92767	5316
2.93133	4640
2.93500	4037
2.93867	3505
2.94233	3031
2.94600	2613
2.94967	2248
2.95333	1930
2.95700	1653
2.96067	1412
2.96433	1201
2.96800	1017
2.97167	859
2.97533	724
2.97900	608
2.98267	507
2.98633	421
2.99000	348
2.99367	285
2.99733	232
3.00100	186
3.00467	144
3.00833	108
3.01200	75
3.01567	46
3.01933	24
3.02300	6
3.02667	-9
3.03033	-23
3.03400	-36
3.03767	-48
3.04133	-54
3.04500	-61
3.04867	-68
3.05233	-72
3.05600	-77
3.05967	-82
3.06333	-88
3.06700	-92
3.07067	-96
3.07433	-98
3.07800	-98
3.08167	-98
3.08533	-100
3.08900	-99
3.09267	-95
3.09633	-95
3.10000	-97
3.10367	-99
3.10733	-103
3.11100	-105
3.11467	-103
3.11833	-100
3.12200	-97
3.12567	-98
3.12933	-99
3.13300	-100
3.13667	-102
3.14033	-105
3.14400	-106
3.14767	-106
3.15133	-106
3.15500	-104
3.15867	-103
3.16233	-103
3.16600	-103
3.16967	-102
3.17333	-100
3.17700	-97
3.18067	-94
3.18433	-88
3.18800	-86
3.19167	-87
3.19533	-87
3.19900	-88
3.20267	-91
3.20633	-94
3.21000	-95
3.21367	-94
3.21733	-94
3.22100	-92
3.22467	-89
3.22833	-88
3.23200	-86
3.23567	-84
3.23933	-83
3.24300	-83
3.24667	-81
3.25033	-79
3.25400	-78
3.25767	-79
3.26133	-81
3.26500	-82
3.26867	-83
3.27233	-83
3.27600	-84
3.27967	-85
3.28333	-89
3.28700	-91
3.29067	-89
3.29433	-89
3.29800	-91
3.30167	-92
3.30533	-93
3.30900	-96
3.31267	-97
3.31633	-97
3.32000	-99
3.32367	-100
3.32733	-102
3.33100	-102
3.33467	-102
3.33833	-103
3.34200	-103
3.34567	-100
3.34933	-98
3.35300	-100
3.35667	-105
3.36033	-109
3.36400	-110
3.36767	-110
3.37133	-112
3.37500	-113
3.37867	-111
3.38233	-112
3.38600	-114
3.38967	-116
3.39333	-118
3.39700	-120
3.40067	-124
3.40433	-129
3.40800	-132
3.41167	-134
3.41533	-138
3.41900	-140
3.42267	-139
3.42633	-139
3.43000	-139
3.43367	-140
3.43733	-141
3.44100	-142
3.44467	-144
3.44833	-143
3.45200	-139
3.45567	-137
3.45933	-140
3.46300	-141
3.46667	-140
3.47033	-140
3.47400	-142
3.47767	-144
3.48133	-149
3.48500	-153
3.48867	-153
3.49233	-154
3.49600	-153
3.49967	-153
3.50333	-155
3.50700	-156
3.51067	-157
3.51433	-157
3.51800	-157
3.52167	-155
3.52533	-154
3.52900	-156
3.53267	-158
3.53633	-160
3.54000	-160
3.54367	-162
3.54733	-165
3.55100	-168
3.55467	-170
3.55833	-172
3.56200	-171
3.56567	-169
3.56933	-165
3.57300	-163
3.57667	-164
3.58033	-166
3.58400	-167
3.58767	-168
3.59133	-171
3.59500	-173
3.59867	-174
3.60233	-175
3.60600	-173
3.60967	-173
3.61333	-175
3.61700	-177
3.62067	-177
3.62433	-175
3.62800	-171
3.63167	-172
3.63533	-176
3.63900	-177
3.64267	-178
3.64633	-178
3.65000	-179
3.65367	-180
3.65733	-180
3.66100	-180
3.66467	-180
3.66833	-179
3.67200	-179
3.67567	-180
3.67933	-181
3.68300	-179
3.68667	-177
3.69033	-177
3.69400	-176
3.69767	-178
3.70133	-177
3.70500	-178
3.70867	-179
3.71233	-179
3.71600	-179
3.71967	-178
3.72333	-178
3.72700	-180
3.73067	-180
3.73433	-177
3.73800	-178
3.74167	-180
3.74533	-180
3.74900	-181
3.75267	-181
3.75633	-184
3.76000	-185
3.76367	-185
3.76733	-186
3.77100	-188
3.77467	-187
3.77833	-183
3.78200	-182
3.78567	-184
3.78933	-184
3.79300	-186
3.79667	-189
3.80033	-192
3.80400	-195
3.80767	-197
3.81133	-196
3.81500	-195
3.81867	-193
3.82233	-193
3.82600	-195
3.82967	-198
3.83333	-200
3.83700	-200
3.84067	-199
3.84433	-198
3.84800	-198
3.85167	-197
3.85533	-198
3.85900	-200
3.86267	-201
3.86633	-203
3.87000	-203
3.87367	-201
3.87733	-200
3.88100	-199
3.88467	-196
3.88833	-194
3.89200	-194
3.89567	-197
3.89933	-199
3.90300	-199
3.90667	-199
3.91033	-200
3.91400	-202
3.91767	-203
3.92133	-201
3.92500	-200
3.92867	-199
3.93233	-200
3.93600	-201
3.93967	-204
3.94333	-206
3.94700	-207
3.95067	-207
3.95433	-207
3.95800	-208
3.96167	-207
3.96533	-206
3.96900	-207
3.97267	-211
3.97633	-215
3.98000	-215
3.98367	-214
3.98733	-213
3.99100	-214
3.99467	-214
3.99833	-213

[Status Trace (Column Oven Temperature)]
Interval(msec)	1000
# of Points	240
Start Time(min)	0.009
End Time(min)	3.992
Intensity Units	
Intensity Multiplier	1
R.Time (min)	Intensity
0.00907	35.00
0.02573	34.99
0.04240	35.01
0.05907	35.02
0.07573	35.02
0.09240	35.03
0.10907	35.04
0.12573	35.03
0.14240	35.04
0.15907	35.04
0.17573	35.04
0.19240	35.02
0.20907	35.01
0.22573	35.00
0.24240	34.99
0.25907	34.99
0.27573	34.99
0.29240	34.99
0.30907	34.98
0.32573	34.98
0.34240	34.98
0.35907	34.98
0.37573	34.98
0.39240	34.98
0.40907	34.98
0.42573	34.99
0.44240	34.99
0.45907	34.99
0.47573	34.99
0.49240	35.00
0.50907	35.00
0.52573	34.99
0.54240	34.99
0.55907	34.98
0.57573	34.98
0.59240	34.98
0.60907	34.98
0.62573	34.98
0.64240	34.98
0.65907	34.98
0.67573	34.98
0.69240	34.98
0.70907	34.99
0.72573	35.00
0.74240	35.01
0.75907	35.02
0.77573	35.03
0.79240	35.03
0.80907	35.01
0.82573	35.01
0.84240	35.00
0.85907	35.00
0.87573	35.01
0.89240	35.01
0.90907	35.01
0.92573	35.01
0.94240	35.01
0.95907	35.00
0.97573	35.00
0.99240	34.99
1.00907	34.99
1.02573	35.00
1.04240	35.02
1.05907	35.02
1.07573	35.02
1.09240	35.00
1.10907	34.99
1.12573	35.00
1.14240	35.00
1.15907	34.99
1.17573	34.99
1.19240	34.99
1.20907	34.99
1.22573	34.98
1.24240	34.99
1.25907	34.99
1.27573	34.98
1.29240	34.98
1.30907	34.98
1.32573	34.99
1.34240	34.99
1.35907	34.99
1.37573	34.99
1.39240	34.99
1.40907	35.00
1.42573	35.02
1.44240	35.02
1.45907	35.02
1.47573	35.01
1.49240	35.00
1.50907	35.00
1.52573	34.99
1.54240	34.99
1.55907	34.99
1.57573	34.98
1.59240	35.00
1.60907	35.05
1.62573	35.19
1.64240	35.39
1.65907	35.64
1.67573	35.97
1.69240	36.34
1.70907	36.69
1.72573	37.03
1.74240	37.37
1.75907	37.68
1.77573	38.03
1.79240	38.36
1.80907	38.69
1.82573	39.03
1.84240	39.36
1.85907	39.67
1.87573	40.00
1.89240	40.33
1.90907	40.66
1.92573	40.99
1.94240	41.31
1.95907	41.62
1.97573	41.96
1.99240	42.27
2.00907	42.60
2.02573	42.93
2.04240	43.25
2.05907	43.56
2.07573	43.91
2.09240	44.23
2.10907	44.56
2.12573	44.89
2.14240	45.23
2.15907	45.54
2.17573	45.88
2.19240	46.19
2.20907	46.54
2.22573	46.87
2.24240	47.19
2.25907	47.53
2.27573	47.84
2.29240	48.18
2.30907	48.52
2.32573	48.83
2.34240	49.18
2.35907	49.46
2.37573	49.64
2.39240	49.68
2.40907	49.68
2.42573	49.70
2.44240	49.69
2.45907	49.71
2.47573	49.71
2.49240	49.73
2.50907	49.72
2.52573	49.74
2.54240	49.76
2.55907	49.78
2.57573	49.79
2.59240	49.81
2.60907	49.81
2.62573	49.82
2.64240	49.84
2.65907	49.85
2.67573	49.86
2.69240	49.84
2.70907	49.85
2.72573	49.88
2.74240	49.89
2.75907	49.89
2.77573	49.88
2.79240	49.87
2.80907	49.88
2.82573	49.88
2.84240	49.88
2.85907	49.89
2.87573	49.91
2.89240	49.93
2.90907	49.94
2.92573	49.95
2.94240	49.95
2.95907	49.97
2.97573	49.98
2.99240	50.00
3.00907	50.01
3.02573	50.02
3.04240	50.04
3.05907	50.05
3.07573	50.06
3.09240	50.06
3.10907	50.07
3.12573	50.07
3.14240	50.07
3.15907	50.07
3.17573	50.08
3.19240	50.08
3.20907	50.08
3.22573	50.09
3.24240	50.10
3.25907	50.11
3.27573	50.11
3.29240	50.10
3.30907	50.09
3.32573	50.08
3.34240	50.07
3.35907	50.07
3.37573	50.06
3.39240	50.05
3.40907	50.04
3.42573	50.04
3.44240	50.05
3.45907	50.05
3.47573	50.05
3.49240	50.05
3.50907	50.05
3.52573	50.05
3.54240	50.05
3.55907	50.05
3.57573	50.05
3.59240	50.06
3.60907	50.07
3.62573	50.08
3.64240	50.08
3.65907	50.09
3.67573	50.09
3.69240	50.09
3.70907	50.09
3.72573	50.08
3.74240	50.09
3.75907	50.09
3.77573	50.08
3.79240	50.08
3.80907	50.08
3.82573	50.08
3.84240	50.08
3.85907	50.08
3.87573	50.08
3.89240	50.08
3.90907	50.07
3.92573	50.08
3.94240	50.08
3.95907	50.08
3.97573	50.07
3.99240	50.08

[Status Trace (Injection Unit Temperature)]
Interval(msec)	1000
# of Points	240
Start Time(min)	0.009
End Time(min)	3.992
Intensity Units	
Intensity Multiplier	1
R.Time (min)	Intensity
0.00907	100.00
0.02573	100.00
0.04240	100.00
0.05907	100.00
0.07573	100.00
0.09240	100.00
0.10907	100.00
0.12573	100.01
0.14240	100.00
0.15907	100.00
0.17573	100.00
0.19240	100.00
0.20907	100.00
0.22573	100.01
0.24240	100.00
0.25907	100.00
0.27573	100.00
0.29240	100.00
0.30907	100.00
0.32573	100.00
0.34240	100.00
0.35907	100.00
0.37573	100.00
0.39240	100.00
0.40907	100.01
0.42573	100.00
0.44240	100.00
0.45907	100.00
0.47573	100.00
0.49240	100.01
0.50907	100.00
0.52573	100.00
0.54240	100.00
0.55907	100.00
0.57573	100.00
0.59240	100.01
0.60907	100.00
0.62573	100.00
0.64240	100.01
0.65907	100.00
0.67573	100.00
0.69240	100.00
0.70907	100.00
0.72573	100.00
0.74240	100.00
0.75907	100.00
0.77573	100.00
0.79240	100.00
0.80907	100.00
0.82573	100.00
0.84240	100.01
0.85907	100.00
0.87573	100.00
0.89240	100.00
0.90907	100.00
0.92573	100.00
0.94240	100.00
0.95907	100.00
0.97573	100.00
0.99240	100.00
1.00907	100.00
1.02573	100.00
1.04240	100.00
1.05907	100.00
1.07573	100.00
1.09240	100.00
1.10907	100.01
1.12573	100.00
1.14240	100.00
1.15907	100.00
1.17573	100.00
1.19240	100.00
1.20907	100.00
1.22573	100.00
1.24240	100.00
1.25907	100.00
1.27573	100.00
1.29240	100.00
1.30907	100.00
1.32573	100.00
1.34240	100.00
1.35907	100.00
1.37573	100.00
1.39240	100.00
1.40907	100.00
1.42573	100.00
1.44240	100.00
1.45907	100.01
1.47573	100.00
1.49240	100.00
1.50907	100.00
1.52573	100.00
1.54240	100.00
1.55907	100.00
1.57573	100.00
1.59240	100.00
1.60907	100.00
1.62573	100.00
1.64240	100.00
1.65907	100.00
1.67573	100.00
1.69240	100.00
1.70907	100.00
1.72573	100.00
1.74240	100.00
1.75907	100.00
1.77573	100.00
1.79240	100.00
1.80907	99.99
1.82573	100.00
1.84240	100.00
1.85907	99.99
1.87573	99.99
1.89240	99.99
1.90907	99.99
1.92573	99.99
1.94240	99.99
1.95907	99.99
1.97573	99.99
1.99240	99.99
2.00907	99.99
2.02573	99.98
2.04240	99.99
2.05907	99.99
2.07573	99.98
2.09240	99.99
2.10907	99.99
2.12573	99.98
2.14240	99.98
2.15907	99.98
2.17573	99.98
2.19240	99.98
2.20907	99.98
2.22573	99.97
2.24240	99.98
2.25907	99.99
2.27573	99.98
2.29240	99.99
2.30907	99.98
2.32573	99.98
2.34240	99.98
2.35907	99.98
2.37573	99.99
2.39240	99.98
2.40907	99.99
2.42573	99.99
2.44240	99.99
2.45907	99.99
2.47573	99.99
2.49240	99.99
2.50907	99.99
2.52573	99.99
2.54240	99.99
2.55907	99.99
2.57573	99.99
2.59240	99.99
2.60907	99.99
2.62573	99.99
2.64240	99.99
2.65907	100.00
2.67573	100.00
2.69240	100.00
2.70907	100.00
2.72573	100.00
2.74240	100.00
2.75907	100.00
2.77573	100.00
2.79240	100.01
2.80907	100.01
2.82573	100.01
2.84240	100.01
2.85907	100.01
2.87573	100.02
2.89240	100.01
2.90907	100.01
2.92573	100.02
2.94240	100.02
2.95907	100.02
2.97573	100.02
2.99240	100.02
3.00907	100.03
3.02573	100.03
3.04240	100.03
3.05907	100.03
3.07573	100.03
3.09240	100.03
3.10907	100.03
3.12573	100.03
3.14240	100.04
3.15907	100.04
3.17573	100.04
3.19240	100.04
3.20907	100.04
3.22573	100.04
3.24240	100.04
3.25907	100.05
3.27573	100.05
3.29240	100.05
3.30907	100.05
3.32573	100.05
3.34240	100.05
3.35907	100.05
3.37573	100.05
3.39240	100.05
3.40907	100.05
3.42573	100.06
3.44240	100.06
3.45907	100.06
3.47573	100.06
3.49240	100.06
3.50907	100.06
3.52573	100.06
3.54240	100.06
3.55907	100.06
3.57573	100.06
3.59240	100.06
3.60907	100.06
3.62573	100.06
3.64240	100.06
3.65907	100.06
3.67573	100.06
3.69240	100.06
3.70907	100.06
3.72573	100.06
3.74240	100.06
3.75907	100.06
3.77573	100.06
3.79240	100.06
3.80907	100.06
3.82573	100.07
3.84240	100.07
3.85907	100.06
3.87573	100.06
3.89240	100.06
3.90907	100.07
3.92573	100.06
3.94240	100.06
3.95907	100.06
3.97573	100.07
3.99240	100.06

[Status Trace (Carrier Gas Pressure)]
Interval(msec)	1000
# of Points	240
Start Time(min)	0.009
End Time(min)	3.992
Intensity Units	
Intensity Multiplier	1
R.Time (min)	Intensity
0.00907	58.00
0.02573	55.31
0.04240	57.21
0.05907	59.36
0.07573	59.33
0.09240	58.04
0.10907	57.99
0.12573	58.01
0.14240	58.01
0.15907	58.00
0.17573	58.00
0.19240	58.00
0.20907	58.00
0.22573	58.00
0.24240	58.00
0.25907	58.00
0.27573	58.00
0.29240	58.00
0.30907	58.00
0.32573	58.00
0.34240	58.00
0.35907	58.00
0.37573	58.00
0.39240	58.00
0.40907	58.00
0.42573	58.00
0.44240	58.00
0.45907	58.00
0.47573	58.00
0.49240	58.00
0.50907	58.00
0.52573	58.00
0.54240	58.00
0.55907	58.00
0.57573	58.00
0.59240	58.00
0.60907	58.00
0.62573	58.00
0.64240	58.00
0.65907	58.00
0.67573	58.00
0.69240	58.00
0.70907	58.00
0.72573	58.00
0.74240	58.00
0.75907	58.00
0.77573	58.00
0.79240	58.00
0.80907	58.00
0.82573	58.00
0.84240	58.00
0.85907	58.00
0.87573	58.00
0.89240	58.00
0.90907	58.00
0.92573	58.00
0.94240	58.00
0.95907	58.00
0.97573	58.00
0.99240	58.00
1.00907	58.00
1.02573	58.00
1.04240	58.00
1.05907	58.00
1.07573	58.00
1.09240	58.00
1.10907	58.00
1.12573	58.00
1.14240	58.00
1.15907	58.00
1.17573	58.00
1.19240	58.00
1.20907	58.00
1.22573	58.00
1.24240	58.00
1.25907	58.00
1.27573	58.00
1.29240	58.00
1.30907	58.00
1.32573	58.00
1.34240	58.00
1.35907	58.00
1.37573	58.00
1.39240	58.00
1.40907	58.00
1.42573	58.00
1.44240	58.00
1.45907	58.00
1.47573	58.00
1.49240	58.00
1.50907	58.00
1.52573	58.00
1.54240	58.00
1.55907	58.00
1.57573	58.00
1.59240	58.00
1.60907	58.00
1.62573	58.00
1.64240	58.00
1.65907	58.00
1.67573	58.01
1.69240	58.00
1.70907	58.00
1.72573	58.00
1.74240	58.00
1.75907	58.00
1.77573	58.00
1.79240	58.00
1.80907	58.00
1.82573	58.00
1.84240	58.00
1.85907	58.00
1.87573	58.00
1.89240	58.00
1.90907	58.00
1.92573	58.00
1.94240	58.00
1.95907	58.00
1.97573	58.00
1.99240	58.00
2.00907	58.00
2.02573	58.00
2.04240	58.00
2.05907	58.00
2.07573	58.00
2.09240	58.00
2.10907	58.00
2.12573	58.00
2.14240	58.00
2.15907	58.00
2.17573	58.00
2.19240	58.00
2.20907	58.00
2.22573	58.00
2.24240	58.00
2.25907	58.00
2.27573	58.00
2.29240	58.00
2.30907	58.00
2.32573	58.00
2.34240	58.00
2.35907	58.00
2.37573	58.00
2.39240	57.99
2.40907	57.99
2.42573	58.00
2.44240	58.00
2.45907	58.00
2.47573	58.00
2.49240	58.00
2.50907	57.99
2.52573	57.97
2.54240	58.00
2.55907	58.00
2.57573	58.00
2.59240	58.00
2.60907	58.00
2.62573	58.00
2.64240	58.00
2.65907	58.00
2.67573	58.00
2.69240	58.00
2.70907	58.00
2.72573	58.00
2.74240	58.00
2.75907	58.00
2.77573	58.00
2.79240	58.00
2.80907	58.00
2.82573	58.00
2.84240	58.00
2.85907	58.00
2.87573	58.00
2.89240	58.00
2.90907	58.00
2.92573	58.00
2.94240	58.00
2.95907	58.00
2.97573	58.00
2.99240	58.00
3.00907	58.00
3.02573	58.00
3.04240	58.00
3.05907	58.00
3.07573	58.00
3.09240	58.00
3.10907	58.00
3.12573	58.00
3.14240	58.00
3.15907	58.00
3.17573	58.00
3.19240	58.00
3.20907	58.00
3.22573	58.00
3.24240	58.00
3.25907	58.00
3.27573	58.00
3.29240	58.00
3.30907	58.00
3.32573	58.00
3.34240	58.00
3.35907	58.00
3.37573	58.00
3.39240	58.00
3.40907	58.00
3.42573	58.00
3.44240	58.00
3.45907	58.00
3.47573	58.00
3.49240	58.00
3.50907	58.00
3.52573	58.00
3.54240	58.00
3.55907	58.00
3.57573	58.00
3.59240	58.00
3.60907	58.00
3.62573	58.00
3.64240	58.00
3.65907	58.00
3.67573	58.00
3.69240	58.00
3.70907	58.00
3.72573	58.00
3.74240	58.00
3.75907	58.00
3.77573	58.00
3.79240	58.00
3.80907	58.00
3.82573	58.00
3.84240	58.00
3.85907	58.00
3.87573	58.00
3.89240	58.00
3.90907	58.00
3.92573	58.00
3.94240	58.00
3.95907	58.00
3.97573	58.00
3.99240	58.00

[Status Trace (Carrier Gas Flow)]
Interval(msec)	1000
# of Points	240
Start Time(min)	0.009
End Time(min)	3.992
Intensity Units	
Intensity Multiplier	1
R.Time (min)	Intensity
0.00907	34.52
0.02573	34.54
0.04240	34.55
0.05907	34.55
0.07573	34.49
0.09240	34.52
0.10907	34.52
0.12573	34.52
0.14240	34.52
0.15907	34.52
0.17573	34.52
0.19240	34.52
0.20907	34.52
0.22573	34.52
0.24240	34.52
0.25907	34.52
0.27573	34.52
0.29240	34.52
0.30907	34.52
0.32573	34.52
0.34240	34.52
0.35907	34.52
0.37573	34.52
0.39240	34.52
0.40907	34.52
0.42573	34.52
0.44240	34.52
0.45907	34.52
0.47573	34.52
0.49240	34.52
0.50907	34.52
0.52573	34.52
0.54240	34.52
0.55907	34.52
0.57573	34.52
0.59240	34.52
0.60907	34.51
0.62573	34.52
0.64240	34.53
0.65907	34.51
0.67573	34.51
0.69240	34.52
0.70907	34.54
0.72573	34.52
0.74240	34.52
0.75907	34.52
0.77573	34.50
0.79240	34.52
0.80907	34.52
0.82573	34.52
0.84240	34.53
0.85907	34.51
0.87573	34.52
0.89240	34.52
0.90907	34.52
0.92573	34.52
0.94240	34.52
0.95907	34.52
0.97573	34.52
0.99240	34.52
1.00907	34.52
1.02573	34.52
1.04240	34.53
1.05907	34.52
1.07573	34.52
1.09240	34.52
1.10907	34.52
1.12573	34.52
1.14240	34.52
1.15907	34.52
1.17573	34.52
1.19240	34.52
1.20907	34.52
1.22573	34.52
1.24240	34.52
1.25907	34.52
1.27573	34.52
1.29240	34.52
1.30907	34.52
1.32573	34.52
1.34240	34.52
1.35907	34.52
1.37573	34.52
1.39240	34.52
1.40907	34.52
1.42573	34.52
1.44240	34.52
1.45907	34.52
1.47573	34.52
1.49240	34.52
1.50907	34.52
1.52573	34.52
1.54240	34.52
1.55907	34.50
1.57573	34.52
1.59240	34.52
1.60907	34.52
1.62573	34.52
1.64240	34.52
1.65907	34.52
1.67573	34.52
1.69240	34.52
1.70907	34.52
1.72573	34.52
1.74240	34.52
1.75907	34.53
1.77573	34.52
1.79240	34.52
1.80907	34.53
1.82573	34.52
1.84240	34.52
1.85907	34.52
1.87573	34.52
1.89240	34.52
1.90907	34.52
1.92573	34.52
1.94240	34.52
1.95907	34.53
1.97573	34.52
1.99240	34.52
2.00907	34.52
2.02573	34.52
2.04240	34.52
2.05907	34.52
2.07573	34.52
2.09240	34.51
2.10907	34.52
2.12573	34.52
2.14240	34.52
2.15907	34.52
2.17573	34.52
2.19240	34.52
2.20907	34.52
2.22573	34.52
2.24240	34.52
2.25907	34.52
2.27573	34.52
2.29240	34.52
2.30907	34.52
2.32573	34.52
2.34240	34.50
2.35907	34.52
2.37573	34.52
2.39240	34.52
2.40907	34.52
2.42573	34.50
2.44240	34.52
2.45907	34.52
2.47573	34.52
2.49240	34.52
2.50907	34.49
2.52573	34.52
2.54240	34.52
2.55907	34.52
2.57573	34.52
2.59240	34.52
2.60907	34.52
2.62573	34.51
2.64240	34.52
2.65907	34.52
2.67573	34.52
2.69240	34.52
2.70907	34.52
2.72573	34.52
2.74240	34.52
2.75907	34.52
2.77573	34.52
2.79240	34.52
2.80907	34.52
2.82573	34.52
2.84240	34.52
2.85907	34.52
2.87573	34.52
2.89240	34.54
2.90907	34.52
2.92573	34.52
2.94240	34.52
2.95907	34.52
2.97573	34.52
2.99240	34.52
3.00907	34.52
3.02573	34.52
3.04240	34.52
3.05907	34.52
3.07573	34.52
3.09240	34.52
3.10907	34.52
3.12573	34.52
3.14240	34.52
3.15907	34.52
3.17573	34.52
3.19240	34.52
3.20907	34.52
3.22573	34.51
3.24240	34.51
3.25907	34.51
3.27573	34.52
3.29240	34.52
3.30907	34.52
3.32573	34.52
3.34240	34.52
3.35907	34.52
3.37573	34.52
3.39240	34.52
3.40907	34.52
3.42573	34.52
3.44240	34.52
3.45907	34.52
3.47573	34.52
3.49240	34.52
3.50907	34.52
3.52573	34.54
3.54240	34.52
3.55907	34.52
3.57573	34.52
3.59240	34.54
3.60907	34.52
3.62573	34.52
3.64240	34.52
3.65907	34.52
3.67573	34.52
3.69240	34.52
3.70907	34.50
3.72573	34.52
3.74240	34.52
3.75907	34.52
3.77573	34.52
3.79240	34.52
3.80907	34.52
3.82573	34.52
3.84240	34.52
3.85907	34.52
3.87573	34.52
3.89240	34.52
3.90907	34.52
3.92573	34.53
3.94240	34.52
3.95907	34.52
3.97573	34.52
3.99240	34.52

[Status Trace (Column Flow)]
Interval(msec)	1000
# of Points	240
Start Time(min)	0.009
End Time(min)	3.992
Intensity Units	
Intensity Multiplier	1
R.Time (min)	Intensity
0.00907	5.51
0.02573	5.20
0.04240	5.41
0.05907	5.66
0.07573	5.66
0.09240	5.51
0.10907	5.50
0.12573	5.51
0.14240	5.51
0.15907	5.51
0.17573	5.51
0.19240	5.51
0.20907	5.51
0.22573	5.51
0.24240	5.51
0.25907	5.51
0.27573	5.51
0.29240	5.51
0.30907	5.51
0.32573	5.51
0.34240	5.51
0.35907	5.51
0.37573	5.51
0.39240	5.51
0.40907	5.51
0.42573	5.51
0.44240	5.51
0.45907	5.51
0.47573	5.51
0.49240	5.51
0.50907	5.51
0.52573	5.51
0.54240	5.51
0.55907	5.51
0.57573	5.51
0.59240	5.51
0.60907	5.51
0.62573	5.51
0.64240	5.51
0.65907	5.51
0.67573	5.51
0.69240	5.51
0.70907	5.51
0.72573	5.51
0.74240	5.51
0.75907	5.51
0.77573	5.51
0.79240	5.51
0.80907	5.51
0.82573	5.51
0.84240	5.51
0.85907	5.51
0.87573	5.51
0.89240	5.51
0.90907	5.51
0.92573	5.51
0.94240	5.51
0.95907	5.51
0.97573	5.51
0.99240	5.51
1.00907	5.51
1.02573	5.51
1.04240	5.51
1.05907	5.51
1.07573	5.51
1.09240	5.51
1.10907	5.51
1.12573	5.51
1.14240	5.51
1.15907	5.51
1.17573	5.51
1.19240	5.51
1.20907	5.51
1.22573	5.51
1.24240	5.51
1.25907	5.51
1.27573	5.51
1.29240	5.51
1.30907	5.51
1.32573	5.51
1.34240	5.51
1.35907	5.51
1.37573	5.51
1.39240	5.51
1.40907	5.51
1.42573	5.51
1.44240	5.51
1.45907	5.51
1.47573	5.51
1.49240	5.51
1.50907	5.51
1.52573	5.51
1.54240	5.51
1.55907	5.51
1.57573	5.51
1.59240	5.51
1.60907	5.50
1.62573	5.50
1.64240	5.49
1.65907	5.49
1.67573	5.48
1.69240	5.46
1.70907	5.45
1.72573	5.44
1.74240	5.43
1.75907	5.42
1.77573	5.41
1.79240	5.40
1.80907	5.39
1.82573	5.38
1.84240	5.37
1.85907	5.36
1.87573	5.35
1.89240	5.34
1.90907	5.33
1.92573	5.32
1.94240	5.31
1.95907	5.30
1.97573	5.29
1.99240	5.28
2.00907	5.27
2.02573	5.26
2.04240	5.26
2.05907	5.25
2.07573	5.24
2.09240	5.23
2.10907	5.22
2.12573	5.21
2.14240	5.20
2.15907	5.19
2.17573	5.18
2.19240	5.17
2.20907	5.16
2.22573	5.15
2.24240	5.14
2.25907	5.13
2.27573	5.12
2.29240	5.11
2.30907	5.11
2.32573	5.10
2.34240	5.09
2.35907	5.08
2.37573	5.07
2.39240	5.07
2.40907	5.07
2.42573	5.07
2.44240	5.07
2.45907	5.07
2.47573	5.07
2.49240	5.07
2.50907	5.07
2.52573	5.07
2.54240	5.07
2.55907	5.07
2.57573	5.07
2.59240	5.07
2.60907	5.07
2.62573	5.07
2.64240	5.07
2.65907	5.07
2.67573	5.07
2.69240	5.07
2.70907	5.07
2.72573	5.07
2.74240	5.07
2.75907	5.07
2.77573	5.07
2.79240	5.07
2.80907	5.07
2.82573	5.07
2.84240	5.07
2.85907	5.07
2.87573	5.07
2.89240	5.07
2.90907	5.07
2.92573	5.07
2.94240	5.07
2.95907	5.06
2.97573	5.06
2.99240	5.06
3.00907	5.06
3.02573	5.06
3.04240	5.06
3.05907	5.06
3.07573	5.06
3.09240	5.06
3.10907	5.06
3.12573	5.06
3.14240	5.06
3.15907	5.06
3.17573	5.06
3.19240	5.06
3.20907	5.06
3.22573	5.06
3.24240	5.06
3.25907	5.06
3.27573	5.06
3.29240	5.06
3.30907	5.06
3.32573	5.06
3.34240	5.06
3.35907	5.06
3.37573	5.06
3.39240	5.06
3.40907	5.06
3.42573	5.06
3.44240	5.06
3.45907	5.06
3.47573	5.06
3.49240	5.06
3.50907	5.06
3.52573	5.06
3.54240	5.06
3.55907	5.06
3.57573	5.06
3.59240	5.06
3.60907	5.06
3.62573	5.06
3.64240	5.06
3.65907	5.06
3.67573	5.06
3.69240	5.06
3.70907	5.06
3.72573	5.06
3.74240	5.06
3.75907	5.06
3.77573	5.06
3.79240	5.06
3.80907	5.06
3.82573	5.06
3.84240	5.06
3.85907	5.06
3.87573	5.06
3.89240	5.06
3.90907	5.06
3.92573	5.06
3.94240	5.06
3.95907	5.06
3.97573	5.06
3.99240	5.06

[Status Trace (Linear Velocity)]
Interval(msec)	1000
# of Points	240
Start Time(min)	0.009
End Time(min)	3.992
Intensity Units	
Intensity Multiplier	1
R.Time (min)	Intensity
0.00907	39.01
0.02573	37.25
0.04240	38.50
0.05907	39.90
0.07573	39.88
0.09240	39.04
0.10907	39.00
0.12573	39.02
0.14240	39.02
0.15907	39.01
0.17573	39.01
0.19240	39.01
0.20907	39.01
0.22573	39.01
0.24240	39.01
0.25907	39.02
0.27573	39.01
0.29240	39.02
0.30907	39.02
0.32573	39.02
0.34240	39.02
0.35907	39.01
0.37573	39.01
0.39240	39.02
0.40907	39.01
0.42573	39.01
0.44240	39.01
0.45907	39.01
0.47573	39.01
0.49240	39.01
0.50907	39.01
0.52573	39.01
0.54240	39.01
0.55907	39.01
0.57573	39.02
0.59240	39.02
0.60907	39.02
0.62573	39.02
0.64240	39.02
0.65907	39.02
0.67573	39.02
0.69240	39.02
0.70907	39.01
0.72573	39.01
0.74240	39.01
0.75907	39.01
0.77573	39.01
0.79240	39.01
0.80907	39.01
0.82573	39.01
0.84240	39.01
0.85907	39.01
0.87573	39.01
0.89240	39.01
0.90907	39.01
0.92573	39.01
0.94240	39.01
0.95907	39.01
0.97573	39.01
0.99240	39.01
1.00907	39.01
1.02573	39.01
1.04240	39.01
1.05907	39.01
1.07573	39.01
1.09240	39.01
1.10907	39.01
1.12573	39.01
1.14240	39.01
1.15907	39.01
1.17573	39.01
1.19240	39.01
1.20907	39.01
1.22573	39.01
1.24240	39.01
1.25907	39.01
1.27573	39.01
1.29240	39.01
1.30907	39.02
1.32573	39.01
1.34240	39.01
1.35907	39.01
1.37573	39.01
1.39240	39.01
1.40907	39.01
1.42573	39.01
1.44240	39.01
1.45907	39.01
1.47573	39.01
1.49240	39.01
1.50907	39.01
1.52573	39.01
1.54240	39.01
1.55907	39.01
1.57573	39.01
1.59240	39.01
1.60907	39.01
1.62573	39.00
1.64240	38.98
1.65907	38.95
1.67573	38.92
1.69240	38.89
1.70907	38.85
1.72573	38.82
1.74240	38.79
1.75907	38.76
1.77573	38.73
1.79240	38.69
1.80907	38.66
1.82573	38.63
1.84240	38.60
1.85907	38.57
1.87573	38.54
1.89240	38.51
1.90907	38.48
1.92573	38.45
1.94240	38.42
1.95907	38.39
1.97573	38.36
1.99240	38.33
2.00907	38.30
2.02573	38.27
2.04240	38.24
2.05907	38.21
2.07573	38.18
2.09240	38.15
2.10907	38.12
2.12573	38.09
2.14240	38.06
2.15907	38.03
2.17573	38.00
2.19240	37.97
2.20907	37.94
2.22573	37.91
2.24240	37.88
2.25907	37.85
2.27573	37.82
2.29240	37.79
2.30907	37.76
2.32573	37.73
2.34240	37.70
2.35907	37.68
2.37573	37.66
2.39240	37.65
2.40907	37.65
2.42573	37.65
2.44240	37.65
2.45907	37.65
2.47573	37.65
2.49240	37.65
2.50907	37.65
2.52573	37.64
2.54240	37.65
2.55907	37.65
2.57573	37.65
2.59240	37.65
2.60907	37.65
2.62573	37.64
2.64240	37.64
2.65907	37.64
2.67573	37.64
2.69240	37.64
2.70907	37.64
2.72573	37.64
2.74240	37.64
2.75907	37.64
2.77573	37.64
2.79240	37.64
2.80907	37.64
2.82573	37.64
2.84240	37.64
2.85907	37.64
2.87573	37.64
2.89240	37.64
2.90907	37.63
2.92573	37.63
2.94240	37.63
2.95907	37.63
2.97573	37.63
2.99240	37.63
3.00907	37.63
3.02573	37.63
3.04240	37.63
3.05907	37.62
3.07573	37.62
3.09240	37.62
3.10907	37.62
3.12573	37.62
3.14240	37.62
3.15907	37.62
3.17573	37.62
3.19240	37.62
3.20907	37.62
3.22573	37.62
3.24240	37.62
3.25907	37.62
3.27573	37.62
3.29240	37.62
3.30907	37.62
3.32573	37.62
3.34240	37.62
3.35907	37.62
3.37573	37.62
3.39240	37.63
3.40907	37.63
3.42573	37.63
3.44240	37.63
3.45907	37.62
3.47573	37.62
3.49240	37.62
3.50907	37.63
3.52573	37.62
3.54240	37.62
3.55907	37.62
3.57573	37.62
3.59240	37.62
3.60907	37.62
3.62573	37.62
3.64240	37.62
3.65907	37.62
3.67573	37.62
3.69240	37.62
3.70907	37.62
3.72573	37.62
3.74240	37.62
3.75907	37.62
3.77573	37.62
3.79240	37.62
3.80907	37.62
3.82573	37.62
3.84240	37.62
3.85907	37.62
3.87573	37.62
3.89240	37.62
3.90907	37.62
3.92573	37.62
3.94240	37.62
3.95907	37.62
3.97573	37.62
3.99240	37.62

