[Header]
Application Name	LabSolutions
Version	5.110
Data File Name	C:\Users\User\Desktop\GC Analyses\Jack\UIC Prairie Sampling\9.30.22\220930_045.gcd
Output Date	1/4/2023
Output Time	2:27:58 PM

[File Information]
Type	Data File
Generated	11/30/2022 12:31:30 PM
Generated by	System Administrator
Modified	11/30/2022 12:36:35 PM
Modified by	System Administrator

[Sample Information]
Operator Name	System Administrator
Acquired	11/30/2022 12:32:34 PM
Sample Type	1:Standard
Level	1
Sample Name	220930_UICPrairie
Sample ID	220930_UICPrairie
ISTD Amount1	1
ISTD Amount2	1
ISTD Amount3	1
ISTD Amount4	1
ISTD Amount5	1
ISTD Amount6	1
ISTD Amount7	1
ISTD Amount8	1
ISTD Amount9	1
ISTD Amount10	1
ISTD Amount11	1
ISTD Amount12	1
ISTD Amount13	1
ISTD Amount14	1
ISTD Amount15	1
ISTD Amount16	1
ISTD Amount17	1
ISTD Amount18	1
ISTD Amount19	1
ISTD Amount20	1
ISTD Amount21	1
ISTD Amount22	1
ISTD Amount23	1
ISTD Amount24	1
ISTD Amount25	1
ISTD Amount26	1
ISTD Amount27	1
ISTD Amount28	1
ISTD Amount29	1
ISTD Amount30	1
ISTD Amount31	1
ISTD Amount32	1
Sample Amount	1
Dilution Factor	1
Vial#	1
Injection Volume	1
Injection Count	1
Bar Code	

[Original Files]
Data File	C:\Users\User\Desktop\GC Analyses\Jack\UIC Prairie Sampling\9.30.22\220930_045.gcd
Method File	C:\LabSolutions\Data\GHG_4min_2022\ghg3_togas_w_acet_4 min_new_int.gcm
Batch File	
Report Format File	c:\LabSolutions\System\DEFAULT.lsr

[File Description]


[Configuration]
Instrument Name	C0B7VH3-Instrument1
Instrument #	1
Line #	1
# of Detectors	3
Detector ID	DET#1	DET#2	DET#3
Detector Name	FID	PTCD	ECD
# of Channels	1	1	1

[Peak Table(Ch1)]
# of Peaks	3
Peak#	R.Time	I.Time	F.Time	Area	Height	A/H	Conc.	Mark	ID#	Name	k'	Plate #	Plate Ht.	Tailing	Resolution	Sep.Factor	Area Ratio	Height Ratio	Conc. %	Norm Conc.
1	1.479	1.439	1.538	14629	6562	2.229	100.000	   	1	CO	0.000	8491	17.666	1.195	0.000	0.000	0	0	16.667	16.667
2	1.571	1.538	1.630	5271	2645	1.993	100.000	 V 	2	CH4	0.062	11299	13.275	1.059	1.486	0.000	0	0	16.667	16.667
3	2.000	1.952	2.436	1107902	527800	2.099	400.000	   	3	CO2	0.352	17476	8.583	1.213	7.172	5.680	0	0	66.667	66.667

[Peak Table(Ch2)]
# of Peaks	0

[Peak Table(Ch3)]
# of Peaks	5
Peak#	R.Time	I.Time	F.Time	Area	Height	A/H	Conc.	Mark	ID#	Name	k'	Plate #	Plate Ht.	Tailing	Resolution	Sep.Factor	Area Ratio	Height Ratio	Conc. %	Norm Conc.
1	2.469	2.418	2.491	579	238	2.433	0.000	   			0.000	10284	14.586	0.000	0.000	0.000	0	0	0.000	0.000
2	2.517	2.491	2.546	640	216	2.955	0.000	 V 			0.019	1815	82.629	0.000	0.286	0.000	0	0	0.000	0.000
3	2.605	2.546	2.653	1190	277	4.296	0.000	 V 			0.055	3089	48.552	0.000	0.415	2.846	0	0	0.000	0.000
4	2.887	2.667	3.129	25653	5531	4.638	1.000	   	1	N2O	0.169	12569	11.934	1.905	1.944	3.081	0	0	50.000	50.000
5	3.232	3.129	3.874	6174	271	22.745	1.000	 V 	2	SF6	0.309	102	1467.727	0.000	0.499	1.825	0	0	50.000	50.000

[Compound Results(Ch1)]
# of IDs	6
ID#	Name	R.Time	Area	Height	Conc.	Curve	3rd	2nd	1st	Constant	Area Ratio	Height Ratio	Conc. %	Norm Conc.
1	CO	1.479	14629	6562	100.000	Linear	0.000000e+00	0.000000e+00	1.462901e+002	0.000000e+00	0	0	16.667	16.667
2	CH4	1.571	5271	2645	100.000	Linear	0.000000e+00	0.000000e+00	5.270722e+001	0.000000e+00	0	0	16.667	16.667
3	CO2	2.000	1107902	527800	400.000	Linear	0.000000e+00	0.000000e+00	2.769755e+003	0.000000e+00	0	0	66.667	66.667
4	Ethylene	0.000	0	0	0.000	Linear	0.000000e+00	0.000000e+00	0.000000e+00	0.000000e+00	0	0	0.000	0.000
5	Acetylene	0.000	0	0	0.000	Linear	0.000000e+00	0.000000e+00	0.000000e+00	0.000000e+00	0	0	0.000	0.000
6	Ethane	0.000	0	0	0.000	Linear	0.000000e+00	0.000000e+00	0.000000e+00	0.000000e+00	0	0	0.000	0.000

[Compound Results(Ch2)]
# of IDs	5
ID#	Name	R.Time	Area	Height	Conc.	Curve	3rd	2nd	1st	Constant	Area Ratio	Height Ratio	Conc. %	Norm Conc.
1	Hydrogen	0.000	0	0	0.000	Linear	0.000000e+00	0.000000e+00	0.000000e+00	0.000000e+00	0	0	0.000	0.000
2	Oxygen	0.000	0	0	0.000	Linear	0.000000e+00	0.000000e+00	0.000000e+00	0.000000e+00	0	0	0.000	0.000
3	Nitrogen	0.000	0	0	0.000	Linear	0.000000e+00	0.000000e+00	0.000000e+00	0.000000e+00	0	0	0.000	0.000
4	Methane	0.000	0	0	0.000	Linear	0.000000e+00	0.000000e+00	0.000000e+00	0.000000e+00	0	0	0.000	0.000
5	Carbon Monoxide	0.000	0	0	0.000	Linear	0.000000e+00	0.000000e+00	0.000000e+00	0.000000e+00	0	0	0.000	0.000

[Compound Results(Ch3)]
# of IDs	2
ID#	Name	R.Time	Area	Height	Conc.	Curve	3rd	2nd	1st	Constant	Area Ratio	Height Ratio	Conc. %	Norm Conc.
1	N2O	2.887	25653	5531	1.000	Linear	0.000000e+00	0.000000e+00	2.565344e+004	0.000000e+00	0	0	50.000	50.000
2	SF6	3.232	6174	271	1.000	Linear	0.000000e+00	0.000000e+00	6.174190e+003	0.000000e+00	0	0	50.000	50.000

[Group Results(Ch1)]
# of Groups	0

[Group Results(Ch2)]
# of Groups	0

[Group Results(Ch3)]
# of Groups	0

[Chromatogram (Ch1)]
Interval(msec)	220
# of Points	1091
Start Time(min)	0.002
End Time(min)	3.998
R.Time (min)	Intensity
0.00167	6
0.00533	7
0.00900	16
0.01267	28
0.01633	33
0.02000	30
0.02367	25
0.02733	23
0.03100	21
0.03467	16
0.03833	11
0.04200	11
0.04567	16
0.04933	23
0.05300	28
0.05667	24
0.06033	13
0.06400	-0
0.06767	-8
0.07133	-8
0.07500	-2
0.07867	3
0.08233	7
0.08600	6
0.08967	5
0.09333	5
0.09700	6
0.10067	8
0.10433	7
0.10800	4
0.11167	1
0.11533	0
0.11900	4
0.12267	6
0.12633	2
0.13000	-1
0.13367	-3
0.13733	-2
0.14100	1
0.14467	7
0.14833	15
0.15200	22
0.15567	23
0.15933	15
0.16300	2
0.16667	-12
0.17033	-21
0.17400	-24
0.17767	-22
0.18133	-15
0.18500	-7
0.18867	1
0.19233	7
0.19600	9
0.19967	8
0.20333	10
0.20700	11
0.21067	13
0.21433	14
0.21800	15
0.22167	16
0.22533	18
0.22900	19
0.23267	16
0.23633	12
0.24000	9
0.24367	7
0.24733	3
0.25100	1
0.25467	-1
0.25833	1
0.26200	5
0.26567	7
0.26933	5
0.27300	1
0.27667	-1
0.28033	-2
0.28400	-1
0.28767	4
0.29133	8
0.29500	12
0.29867	15
0.30233	16
0.30600	16
0.30967	17
0.31333	17
0.31700	12
0.32067	3
0.32433	-9
0.32800	-17
0.33167	-22
0.33533	-28
0.33900	-32
0.34267	-32
0.34633	-29
0.35000	-25
0.35367	-19
0.35733	-11
0.36100	-2
0.36467	7
0.36833	14
0.37200	18
0.37567	19
0.37933	16
0.38300	10
0.38667	4
0.39033	2
0.39400	5
0.39767	7
0.40133	6
0.40500	2
0.40867	-1
0.41233	-1
0.41600	3
0.41967	4
0.42333	4
0.42700	1
0.43067	-3
0.43433	-5
0.43800	-5
0.44167	-3
0.44533	1
0.44900	6
0.45267	8
0.45633	5
0.46000	0
0.46367	-2
0.46733	-3
0.47100	-1
0.47467	2
0.47833	2
0.48200	-1
0.48567	-3
0.48933	-6
0.49300	-11
0.49667	-15
0.50033	-16
0.50400	-13
0.50767	-8
0.51133	-3
0.51500	-2
0.51867	-4
0.52233	-6
0.52600	-6
0.52967	-5
0.53333	-6
0.53700	-5
0.54067	1
0.54433	7
0.54800	12
0.55167	14
0.55533	15
0.55900	15
0.56267	11
0.56633	3
0.57000	-4
0.57367	-4
0.57733	1
0.58100	9
0.58467	15
0.58833	19
0.59200	15
0.59567	6
0.59933	-4
0.60300	-9
0.60667	-11
0.61033	-8
0.61400	-1
0.61767	5
0.62133	7
0.62500	7
0.62867	4
0.63233	-3
0.63600	-12
0.63967	-20
0.64333	-26
0.64700	-29
0.65067	-31
0.65433	-33
0.65800	-33
0.66167	-30
0.66533	-25
0.66900	-21
0.67267	-19
0.67633	-18
0.68000	-21
0.68367	-23
0.68733	-22
0.69100	-20
0.69467	-17
0.69833	-14
0.70200	-14
0.70567	-16
0.70933	-19
0.71300	-18
0.71667	-11
0.72033	-4
0.72400	-3
0.72767	-7
0.73133	-11
0.73500	-16
0.73867	-18
0.74233	-16
0.74600	-12
0.74967	-10
0.75333	-7
0.75700	-5
0.76067	-4
0.76433	-3
0.76800	-6
0.77167	-12
0.77533	-18
0.77900	-18
0.78267	-15
0.78633	-11
0.79000	-10
0.79367	-11
0.79733	-11
0.80100	-8
0.80467	-8
0.80833	-14
0.81200	-24
0.81567	-33
0.81933	-34
0.82300	-27
0.82667	-18
0.83033	-12
0.83400	-7
0.83767	-4
0.84133	-4
0.84500	-3
0.84867	-5
0.85233	-13
0.85600	-28
0.85967	-41
0.86333	-46
0.86700	-45
0.87067	-39
0.87433	-35
0.87800	-34
0.88167	-33
0.88533	-31
0.88900	-29
0.89267	-32
0.89633	-35
0.90000	-34
0.90367	-29
0.90733	-24
0.91100	-18
0.91467	-11
0.91833	-5
0.92200	-5
0.92567	-11
0.92933	-20
0.93300	-32
0.93667	-45
0.94033	-53
0.94400	-54
0.94767	-49
0.95133	-39
0.95500	-28
0.95867	-22
0.96233	-22
0.96600	-25
0.96967	-29
0.97333	-32
0.97700	-31
0.98067	-27
0.98433	-24
0.98800	-25
0.99167	-28
0.99533	-30
0.99900	-31
1.00267	-30
1.00633	-29
1.01000	-27
1.01367	-24
1.01733	-21
1.02100	-18
1.02467	-17
1.02833	-14
1.03200	-9
1.03567	-8
1.03933	-10
1.04300	-14
1.04667	-18
1.05033	-20
1.05400	-18
1.05767	-15
1.06133	-19
1.06500	-28
1.06867	-38
1.07233	-42
1.07600	-44
1.07967	-45
1.08333	-47
1.08700	-48
1.09067	-49
1.09433	-46
1.09800	-40
1.10167	-33
1.10533	-23
1.10900	-16
1.11267	-13
1.11633	-13
1.12000	-16
1.12367	-20
1.12733	-23
1.13100	-22
1.13467	-20
1.13833	-15
1.14200	-12
1.14567	-13
1.14933	-13
1.15300	-13
1.15667	-13
1.16033	-15
1.16400	-23
1.16767	-34
1.17133	-44
1.17500	-52
1.17867	-54
1.18233	-50
1.18600	-40
1.18967	-30
1.19333	-25
1.19700	-21
1.20067	-17
1.20433	-14
1.20800	-14
1.21167	-18
1.21533	-26
1.21900	-38
1.22267	-50
1.22633	-56
1.23000	-56
1.23367	-52
1.23733	-44
1.24100	-35
1.24467	-29
1.24833	-24
1.25200	-20
1.25567	-20
1.25933	-20
1.26300	-21
1.26667	-23
1.27033	-26
1.27400	-32
1.27767	-35
1.28133	-34
1.28500	-31
1.28867	-29
1.29233	-30
1.29600	-35
1.29967	-43
1.30333	-49
1.30700	-51
1.31067	-49
1.31433	-45
1.31800	-41
1.32167	-36
1.32533	-32
1.32900	-31
1.33267	-32
1.33633	-33
1.34000	-32
1.34367	-32
1.34733	-35
1.35100	-39
1.35467	-41
1.35833	-39
1.36200	-38
1.36567	-33
1.36933	-28
1.37300	-22
1.37667	-18
1.38033	-16
1.38400	-15
1.38767	-17
1.39133	-20
1.39500	-24
1.39867	-25
1.40233	-24
1.40600	-22
1.40967	-21
1.41333	-22
1.41700	-24
1.42067	-26
1.42433	-27
1.42800	-30
1.43167	-34
1.43533	-36
1.43900	-25
1.44267	37
1.44633	216
1.45000	553
1.45367	1158
1.45733	2117
1.46100	3303
1.46467	4473
1.46833	5447
1.47200	6147
1.47567	6528
1.47933	6538
1.48300	6144
1.48667	5405
1.49033	4471
1.49400	3514
1.49767	2662
1.50133	1972
1.50500	1443
1.50867	1051
1.51233	770
1.51600	569
1.51967	424
1.52333	317
1.52700	237
1.53067	175
1.53433	128
1.53800	101
1.54167	126
1.54533	266
1.54900	580
1.55267	1043
1.55633	1553
1.56000	2011
1.56367	2360
1.56733	2575
1.57100	2622
1.57467	2476
1.57833	2157
1.58200	1737
1.58567	1304
1.58933	927
1.59300	635
1.59667	419
1.60033	264
1.60400	159
1.60767	91
1.61133	49
1.61500	22
1.61867	6
1.62233	-5
1.62600	-14
1.62967	-21
1.63333	-24
1.63700	-22
1.64067	-20
1.64433	-22
1.64800	-27
1.65167	-31
1.65533	-34
1.65900	-36
1.66267	-39
1.66633	-42
1.67000	-47
1.67367	-57
1.67733	-64
1.68100	-63
1.68467	-59
1.68833	-52
1.69200	-43
1.69567	-35
1.69933	-30
1.70300	-32
1.70667	-38
1.71033	-46
1.71400	-52
1.71767	-57
1.72133	-58
1.72500	-55
1.72867	-53
1.73233	-52
1.73600	-53
1.73967	-52
1.74333	-48
1.74700	-44
1.75067	-41
1.75433	-37
1.75800	-31
1.76167	-24
1.76533	-16
1.76900	-11
1.77267	-10
1.77633	-14
1.78000	-18
1.78367	-24
1.78733	-33
1.79100	-40
1.79467	-43
1.79833	-45
1.80200	-45
1.80567	-47
1.80933	-51
1.81300	-57
1.81667	-61
1.82033	-61
1.82400	-61
1.82767	-61
1.83133	-61
1.83500	-58
1.83867	-52
1.84233	-46
1.84600	-43
1.84967	-42
1.85333	-42
1.85700	-43
1.86067	-43
1.86433	-42
1.86800	-40
1.87167	-37
1.87533	-35
1.87900	-34
1.88267	-32
1.88633	-31
1.89000	-31
1.89367	-30
1.89733	-26
1.90100	-24
1.90467	-22
1.90833	-22
1.91200	-23
1.91567	-24
1.91933	-27
1.92300	-30
1.92667	-32
1.93033	-34
1.93400	-34
1.93767	-33
1.94133	-33
1.94500	-32
1.94867	-29
1.95233	-21
1.95600	20
1.95967	275
1.96333	1547
1.96700	6452
1.97067	20888
1.97433	53758
1.97800	112587
1.98167	196903
1.98533	295584
1.98900	391788
1.99267	469544
1.99633	517085
2.00000	527815
2.00367	501308
2.00733	444365
2.01100	369401
2.01467	290277
2.01833	217886
2.02200	158062
2.02567	112108
2.02933	78584
2.03300	54975
2.03667	38717
2.04033	27665
2.04400	20185
2.04767	15106
2.05133	11629
2.05500	9217
2.05867	7513
2.06233	6284
2.06600	5372
2.06967	4677
2.07333	4137
2.07700	3707
2.08067	3354
2.08433	3060
2.08800	2813
2.09167	2606
2.09533	2429
2.09900	2274
2.10267	2141
2.10633	2023
2.11000	1918
2.11367	1818
2.11733	1728
2.12100	1649
2.12467	1574
2.12833	1501
2.13200	1433
2.13567	1369
2.13933	1311
2.14300	1261
2.14667	1218
2.15033	1175
2.15400	1135
2.15767	1095
2.16133	1058
2.16500	1025
2.16867	997
2.17233	968
2.17600	938
2.17967	905
2.18333	872
2.18700	844
2.19067	822
2.19433	802
2.19800	784
2.20167	769
2.20533	754
2.20900	740
2.21267	724
2.21633	703
2.22000	682
2.22367	667
2.22733	653
2.23100	639
2.23467	624
2.23833	610
2.24200	598
2.24567	585
2.24933	575
2.25300	568
2.25667	562
2.26033	557
2.26400	554
2.26767	550
2.27133	543
2.27500	532
2.27867	520
2.28233	507
2.28600	495
2.28967	483
2.29333	474
2.29700	473
2.30067	475
2.30433	475
2.30800	468
2.31167	459
2.31533	451
2.31900	443
2.32267	433
2.32633	425
2.33000	421
2.33367	419
2.33733	416
2.34100	410
2.34467	404
2.34833	398
2.35200	394
2.35567	393
2.35933	395
2.36300	396
2.36667	395
2.37033	389
2.37400	381
2.37767	372
2.38133	363
2.38500	352
2.38867	341
2.39233	334
2.39600	332
2.39967	333
2.40333	337
2.40700	340
2.41067	342
2.41433	344
2.41800	349
2.42167	353
2.42533	354
2.42900	351
2.43267	346
2.43633	340
2.44000	333
2.44367	326
2.44733	323
2.45100	325
2.45467	329
2.45833	329
2.46200	326
2.46567	319
2.46933	312
2.47300	305
2.47667	301
2.48033	298
2.48400	295
2.48767	296
2.49133	299
2.49500	304
2.49867	305
2.50233	304
2.50600	302
2.50967	300
2.51333	300
2.51700	303
2.52067	304
2.52433	302
2.52800	298
2.53167	293
2.53533	287
2.53900	283
2.54267	279
2.54633	280
2.55000	284
2.55367	287
2.55733	287
2.56100	285
2.56467	282
2.56833	277
2.57200	273
2.57567	270
2.57933	265
2.58300	260
2.58667	257
2.59033	253
2.59400	249
2.59767	247
2.60133	247
2.60500	248
2.60867	249
2.61233	253
2.61600	256
2.61967	257
2.62333	256
2.62700	255
2.63067	254
2.63433	257
2.63800	261
2.64167	265
2.64533	267
2.64900	267
2.65267	264
2.65633	262
2.66000	262
2.66367	269
2.66733	278
2.67100	281
2.67467	278
2.67833	271
2.68200	262
2.68567	251
2.68933	239
2.69300	230
2.69667	225
2.70033	223
2.70400	224
2.70767	229
2.71133	235
2.71500	241
2.71867	245
2.72233	247
2.72600	247
2.72967	246
2.73333	244
2.73700	243
2.74067	245
2.74433	244
2.74800	241
2.75167	235
2.75533	227
2.75900	222
2.76267	223
2.76633	227
2.77000	232
2.77367	234
2.77733	232
2.78100	230
2.78467	228
2.78833	222
2.79200	217
2.79567	216
2.79933	217
2.80300	220
2.80667	223
2.81033	222
2.81400	220
2.81767	219
2.82133	215
2.82500	207
2.82867	204
2.83233	206
2.83600	207
2.83967	208
2.84333	209
2.84700	212
2.85067	216
2.85433	221
2.85800	228
2.86167	235
2.86533	239
2.86900	241
2.87267	240
2.87633	236
2.88000	231
2.88367	228
2.88733	224
2.89100	219
2.89467	215
2.89833	212
2.90200	210
2.90567	211
2.90933	216
2.91300	220
2.91667	222
2.92033	220
2.92400	215
2.92767	212
2.93133	211
2.93500	209
2.93867	210
2.94233	212
2.94600	214
2.94967	217
2.95333	225
2.95700	234
2.96067	238
2.96433	237
2.96800	234
2.97167	231
2.97533	227
2.97900	220
2.98267	216
2.98633	215
2.99000	216
2.99367	216
2.99733	220
3.00100	231
3.00467	240
3.00833	240
3.01200	234
3.01567	227
3.01933	224
3.02300	222
3.02667	221
3.03033	219
3.03400	215
3.03767	216
3.04133	221
3.04500	225
3.04867	223
3.05233	216
3.05600	208
3.05967	204
3.06333	201
3.06700	199
3.07067	196
3.07433	198
3.07800	204
3.08167	211
3.08533	214
3.08900	214
3.09267	214
3.09633	215
3.10000	218
3.10367	221
3.10733	222
3.11100	222
3.11467	221
3.11833	217
3.12200	214
3.12567	212
3.12933	209
3.13300	207
3.13667	205
3.14033	200
3.14400	196
3.14767	196
3.15133	197
3.15500	198
3.15867	201
3.16233	205
3.16600	211
3.16967	215
3.17333	214
3.17700	207
3.18067	197
3.18433	187
3.18800	179
3.19167	173
3.19533	170
3.19900	172
3.20267	179
3.20633	187
3.21000	190
3.21367	192
3.21733	194
3.22100	200
3.22467	205
3.22833	208
3.23200	208
3.23567	205
3.23933	201
3.24300	194
3.24667	188
3.25033	186
3.25400	188
3.25767	193
3.26133	202
3.26500	208
3.26867	213
3.27233	210
3.27600	202
3.27967	193
3.28333	185
3.28700	180
3.29067	177
3.29433	176
3.29800	176
3.30167	177
3.30533	180
3.30900	185
3.31267	190
3.31633	191
3.32000	191
3.32367	190
3.32733	185
3.33100	180
3.33467	176
3.33833	171
3.34200	167
3.34567	165
3.34933	165
3.35300	167
3.35667	169
3.36033	174
3.36400	180
3.36767	183
3.37133	183
3.37500	181
3.37867	175
3.38233	169
3.38600	168
3.38967	171
3.39333	177
3.39700	181
3.40067	183
3.40433	183
3.40800	182
3.41167	184
3.41533	189
3.41900	196
3.42267	199
3.42633	199
3.43000	195
3.43367	192
3.43733	189
3.44100	181
3.44467	174
3.44833	173
3.45200	174
3.45567	175
3.45933	174
3.46300	176
3.46667	180
3.47033	187
3.47400	195
3.47767	201
3.48133	201
3.48500	197
3.48867	195
3.49233	193
3.49600	189
3.49967	183
3.50333	176
3.50700	171
3.51067	164
3.51433	157
3.51800	152
3.52167	150
3.52533	150
3.52900	152
3.53267	155
3.53633	158
3.54000	161
3.54367	164
3.54733	167
3.55100	168
3.55467	166
3.55833	164
3.56200	158
3.56567	149
3.56933	141
3.57300	138
3.57667	143
3.58033	150
3.58400	156
3.58767	159
3.59133	158
3.59500	155
3.59867	154
3.60233	156
3.60600	159
3.60967	164
3.61333	171
3.61700	175
3.62067	174
3.62433	173
3.62800	172
3.63167	171
3.63533	170
3.63900	168
3.64267	164
3.64633	160
3.65000	157
3.65367	156
3.65733	156
3.66100	159
3.66467	163
3.66833	169
3.67200	177
3.67567	180
3.67933	181
3.68300	179
3.68667	175
3.69033	172
3.69400	168
3.69767	163
3.70133	159
3.70500	156
3.70867	152
3.71233	150
3.71600	153
3.71967	158
3.72333	163
3.72700	166
3.73067	167
3.73433	167
3.73800	164
3.74167	159
3.74533	151
3.74900	141
3.75267	136
3.75633	139
3.76000	147
3.76367	155
3.76733	161
3.77100	162
3.77467	157
3.77833	149
3.78200	144
3.78567	142
3.78933	141
3.79300	142
3.79667	140
3.80033	137
3.80400	139
3.80767	144
3.81133	149
3.81500	155
3.81867	159
3.82233	161
3.82600	162
3.82967	161
3.83333	159
3.83700	157
3.84067	154
3.84433	150
3.84800	144
3.85167	136
3.85533	128
3.85900	126
3.86267	127
3.86633	129
3.87000	132
3.87367	136
3.87733	140
3.88100	142
3.88467	143
3.88833	146
3.89200	146
3.89567	144
3.89933	140
3.90300	136
3.90667	134
3.91033	136
3.91400	139
3.91767	142
3.92133	143
3.92500	145
3.92867	145
3.93233	147
3.93600	150
3.93967	153
3.94333	153
3.94700	148
3.95067	142
3.95433	139
3.95800	139
3.96167	140
3.96533	141
3.96900	141
3.97267	143
3.97633	146
3.98000	149
3.98367	146
3.98733	139
3.99100	132
3.99467	127
3.99833	125

[Chromatogram (Ch2)]
Interval(msec)	220
# of Points	1091
Start Time(min)	0.002
End Time(min)	3.998
R.Time (min)	Intensity
0.00167	-0
0.00533	-0
0.00900	-1
0.01267	-1
0.01633	-1
0.02000	-1
0.02367	-2
0.02733	-2
0.03100	-2
0.03467	-3
0.03833	-3
0.04200	-3
0.04567	-3
0.04933	-3
0.05300	-3
0.05667	-3
0.06033	-3
0.06400	-3
0.06767	-3
0.07133	-3
0.07500	-2
0.07867	-2
0.08233	-2
0.08600	-1
0.08967	-1
0.09333	-1
0.09700	-1
0.10067	-1
0.10433	-1
0.10800	-0
0.11167	-0
0.11533	0
0.11900	1
0.12267	1
0.12633	1
0.13000	1
0.13367	1
0.13733	1
0.14100	2
0.14467	2
0.14833	2
0.15200	1
0.15567	1
0.15933	1
0.16300	1
0.16667	1
0.17033	1
0.17400	1
0.17767	1
0.18133	1
0.18500	1
0.18867	1
0.19233	1
0.19600	1
0.19967	1
0.20333	1
0.20700	1
0.21067	1
0.21433	1
0.21800	0
0.22167	0
0.22533	-0
0.22900	-0
0.23267	-0
0.23633	-1
0.24000	-1
0.24367	-1
0.24733	-1
0.25100	-0
0.25467	-0
0.25833	-0
0.26200	-1
0.26567	-1
0.26933	-1
0.27300	-1
0.27667	-1
0.28033	-1
0.28400	-1
0.28767	-1
0.29133	-1
0.29500	-1
0.29867	-1
0.30233	-1
0.30600	-1
0.30967	-1
0.31333	-1
0.31700	-1
0.32067	-1
0.32433	-1
0.32800	-1
0.33167	-1
0.33533	-1
0.33900	-1
0.34267	-1
0.34633	-1
0.35000	-1
0.35367	-1
0.35733	-1
0.36100	-1
0.36467	-1
0.36833	-1
0.37200	-1
0.37567	-1
0.37933	-1
0.38300	-1
0.38667	-1
0.39033	-1
0.39400	-1
0.39767	-0
0.40133	-0
0.40500	-0
0.40867	-0
0.41233	-0
0.41600	-0
0.41967	-0
0.42333	-0
0.42700	-1
0.43067	-1
0.43433	-1
0.43800	-1
0.44167	-1
0.44533	-1
0.44900	-1
0.45267	-1
0.45633	-2
0.46000	-2
0.46367	-2
0.46733	-2
0.47100	-2
0.47467	-2
0.47833	-1
0.48200	-1
0.48567	-1
0.48933	-1
0.49300	-1
0.49667	-1
0.50033	-1
0.50400	-1
0.50767	-1
0.51133	-1
0.51500	-1
0.51867	-0
0.52233	-0
0.52600	-1
0.52967	-1
0.53333	-1
0.53700	-1
0.54067	-1
0.54433	-1
0.54800	-1
0.55167	-1
0.55533	-1
0.55900	-1
0.56267	-1
0.56633	-1
0.57000	-1
0.57367	-1
0.57733	-1
0.58100	-1
0.58467	-1
0.58833	-1
0.59200	-1
0.59567	-1
0.59933	-1
0.60300	-1
0.60667	-1
0.61033	-1
0.61400	-1
0.61767	-1
0.62133	-1
0.62500	-1
0.62867	-1
0.63233	-1
0.63600	-1
0.63967	-1
0.64333	-1
0.64700	-1
0.65067	-1
0.65433	-1
0.65800	-1
0.66167	-1
0.66533	-1
0.66900	-1
0.67267	-1
0.67633	-1
0.68000	-1
0.68367	-1
0.68733	-2
0.69100	-2
0.69467	-1
0.69833	-1
0.70200	-1
0.70567	-1
0.70933	-1
0.71300	-1
0.71667	-1
0.72033	-0
0.72400	-0
0.72767	-0
0.73133	-0
0.73500	-0
0.73867	-1
0.74233	-1
0.74600	-1
0.74967	-1
0.75333	-1
0.75700	-1
0.76067	-1
0.76433	-1
0.76800	-1
0.77167	-1
0.77533	-1
0.77900	-1
0.78267	-2
0.78633	-2
0.79000	-2
0.79367	-2
0.79733	-2
0.80100	-2
0.80467	-2
0.80833	-2
0.81200	-2
0.81567	-2
0.81933	-2
0.82300	-3
0.82667	-3
0.83033	-3
0.83400	-3
0.83767	-3
0.84133	-4
0.84500	-4
0.84867	-4
0.85233	-4
0.85600	-3
0.85967	-3
0.86333	-3
0.86700	-3
0.87067	-3
0.87433	-3
0.87800	-2
0.88167	-2
0.88533	-3
0.88900	-3
0.89267	-3
0.89633	-3
0.90000	-3
0.90367	-3
0.90733	-3
0.91100	-3
0.91467	-3
0.91833	-2
0.92200	-2
0.92567	-2
0.92933	-2
0.93300	-2
0.93667	-2
0.94033	-2
0.94400	-2
0.94767	-2
0.95133	-1
0.95500	-1
0.95867	-1
0.96233	-1
0.96600	-1
0.96967	-0
0.97333	-0
0.97700	-1
0.98067	-1
0.98433	-1
0.98800	-1
0.99167	-1
0.99533	-1
0.99900	-1
1.00267	-1
1.00633	-1
1.01000	-1
1.01367	-1
1.01733	-1
1.02100	-1
1.02467	-1
1.02833	-1
1.03200	-0
1.03567	-1
1.03933	-1
1.04300	-1
1.04667	-1
1.05033	-1
1.05400	-1
1.05767	-1
1.06133	-2
1.06500	-2
1.06867	-2
1.07233	-2
1.07600	-3
1.07967	-3
1.08333	-3
1.08700	-3
1.09067	-3
1.09433	-3
1.09800	-3
1.10167	-3
1.10533	-4
1.10900	-4
1.11267	-4
1.11633	-5
1.12000	-5
1.12367	-5
1.12733	-5
1.13100	-5
1.13467	-5
1.13833	-5
1.14200	-5
1.14567	-5
1.14933	-5
1.15300	-5
1.15667	-5
1.16033	-5
1.16400	-5
1.16767	-5
1.17133	-5
1.17500	-5
1.17867	-4
1.18233	-4
1.18600	-4
1.18967	-4
1.19333	-4
1.19700	-3
1.20067	-3
1.20433	-3
1.20800	-3
1.21167	-3
1.21533	-3
1.21900	-3
1.22267	-3
1.22633	-3
1.23000	-4
1.23367	-4
1.23733	-4
1.24100	-4
1.24467	-4
1.24833	-3
1.25200	-3
1.25567	-3
1.25933	-3
1.26300	-2
1.26667	-2
1.27033	-2
1.27400	-2
1.27767	-2
1.28133	-2
1.28500	-2
1.28867	-2
1.29233	-2
1.29600	-2
1.29967	-3
1.30333	-3
1.30700	-3
1.31067	-3
1.31433	-3
1.31800	-2
1.32167	-2
1.32533	-2
1.32900	-2
1.33267	-2
1.33633	-2
1.34000	-2
1.34367	-2
1.34733	-2
1.35100	-2
1.35467	-2
1.35833	-2
1.36200	-2
1.36567	-2
1.36933	-2
1.37300	-2
1.37667	-2
1.38033	-2
1.38400	-2
1.38767	-2
1.39133	-2
1.39500	-2
1.39867	-2
1.40233	-2
1.40600	-2
1.40967	-2
1.41333	-2
1.41700	-2
1.42067	-3
1.42433	-3
1.42800	-3
1.43167	-3
1.43533	-3
1.43900	-3
1.44267	-3
1.44633	-3
1.45000	-3
1.45367	-3
1.45733	-3
1.46100	-3
1.46467	-3
1.46833	-3
1.47200	-3
1.47567	-3
1.47933	-2
1.48300	-2
1.48667	-2
1.49033	-2
1.49400	-2
1.49767	-2
1.50133	-2
1.50500	-2
1.50867	-2
1.51233	-2
1.51600	-2
1.51967	-2
1.52333	-2
1.52700	-2
1.53067	-2
1.53433	-2
1.53800	-2
1.54167	-2
1.54533	-1
1.54900	-1
1.55267	-1
1.55633	-1
1.56000	-1
1.56367	-1
1.56733	-2
1.57100	-2
1.57467	-2
1.57833	-3
1.58200	-3
1.58567	-3
1.58933	-3
1.59300	-4
1.59667	-4
1.60033	-5
1.60400	-6
1.60767	-8
1.61133	-10
1.61500	-12
1.61867	-14
1.62233	-16
1.62600	-19
1.62967	-22
1.63333	-25
1.63700	-28
1.64067	-31
1.64433	-34
1.64800	-38
1.65167	-42
1.65533	-45
1.65900	-49
1.66267	-53
1.66633	-57
1.67000	-62
1.67367	-67
1.67733	-72
1.68100	-77
1.68467	-82
1.68833	-87
1.69200	-92
1.69567	-95
1.69933	-99
1.70300	-101
1.70667	-103
1.71033	-105
1.71400	-107
1.71767	-108
1.72133	-109
1.72500	-110
1.72867	-112
1.73233	-113
1.73600	-114
1.73967	-115
1.74333	-115
1.74700	-116
1.75067	-116
1.75433	-116
1.75800	-116
1.76167	-117
1.76533	-117
1.76900	-117
1.77267	-118
1.77633	-118
1.78000	-118
1.78367	-118
1.78733	-118
1.79100	-118
1.79467	-118
1.79833	-118
1.80200	-118
1.80567	-118
1.80933	-118
1.81300	-118
1.81667	-118
1.82033	-118
1.82400	-119
1.82767	-119
1.83133	-119
1.83500	-119
1.83867	-119
1.84233	-119
1.84600	-119
1.84967	-119
1.85333	-120
1.85700	-120
1.86067	-120
1.86433	-120
1.86800	-120
1.87167	-120
1.87533	-120
1.87900	-119
1.88267	-119
1.88633	-119
1.89000	-119
1.89367	-119
1.89733	-119
1.90100	-118
1.90467	-118
1.90833	-118
1.91200	-118
1.91567	-119
1.91933	-119
1.92300	-119
1.92667	-119
1.93033	-118
1.93400	-118
1.93767	-118
1.94133	-117
1.94500	-117
1.94867	-116
1.95233	-116
1.95600	-115
1.95967	-115
1.96333	-114
1.96700	-114
1.97067	-114
1.97433	-114
1.97800	-114
1.98167	-114
1.98533	-114
1.98900	-114
1.99267	-114
1.99633	-114
2.00000	-114
2.00367	-114
2.00733	-114
2.01100	-113
2.01467	-113
2.01833	-113
2.02200	-112
2.02567	-112
2.02933	-111
2.03300	-111
2.03667	-110
2.04033	-110
2.04400	-110
2.04767	-110
2.05133	-110
2.05500	-110
2.05867	-110
2.06233	-109
2.06600	-108
2.06967	-108
2.07333	-108
2.07700	-108
2.08067	-107
2.08433	-107
2.08800	-106
2.09167	-105
2.09533	-105
2.09900	-105
2.10267	-104
2.10633	-104
2.11000	-104
2.11367	-104
2.11733	-103
2.12100	-103
2.12467	-103
2.12833	-102
2.13200	-102
2.13567	-101
2.13933	-100
2.14300	-100
2.14667	-99
2.15033	-99
2.15400	-100
2.15767	-100
2.16133	-100
2.16500	-100
2.16867	-99
2.17233	-99
2.17600	-99
2.17967	-99
2.18333	-98
2.18700	-98
2.19067	-97
2.19433	-97
2.19800	-97
2.20167	-96
2.20533	-96
2.20900	-95
2.21267	-95
2.21633	-95
2.22000	-95
2.22367	-94
2.22733	-94
2.23100	-94
2.23467	-94
2.23833	-93
2.24200	-92
2.24567	-92
2.24933	-92
2.25300	-91
2.25667	-91
2.26033	-91
2.26400	-91
2.26767	-91
2.27133	-90
2.27500	-89
2.27867	-88
2.28233	-88
2.28600	-87
2.28967	-86
2.29333	-86
2.29700	-86
2.30067	-87
2.30433	-87
2.30800	-88
2.31167	-89
2.31533	-89
2.31900	-89
2.32267	-88
2.32633	-88
2.33000	-87
2.33367	-86
2.33733	-85
2.34100	-84
2.34467	-83
2.34833	-82
2.35200	-82
2.35567	-82
2.35933	-81
2.36300	-81
2.36667	-80
2.37033	-79
2.37400	-78
2.37767	-76
2.38133	-73
2.38500	-70
2.38867	-66
2.39233	-62
2.39600	-58
2.39967	-54
2.40333	-50
2.40700	-45
2.41067	-40
2.41433	-35
2.41800	-31
2.42167	-28
2.42533	-24
2.42900	-22
2.43267	-19
2.43633	-17
2.44000	-15
2.44367	-13
2.44733	-11
2.45100	-9
2.45467	-7
2.45833	-5
2.46200	-3
2.46567	-1
2.46933	0
2.47300	2
2.47667	3
2.48033	5
2.48400	6
2.48767	7
2.49133	7
2.49500	8
2.49867	8
2.50233	9
2.50600	9
2.50967	10
2.51333	10
2.51700	11
2.52067	11
2.52433	11
2.52800	12
2.53167	13
2.53533	13
2.53900	14
2.54267	14
2.54633	15
2.55000	16
2.55367	17
2.55733	17
2.56100	18
2.56467	18
2.56833	18
2.57200	18
2.57567	19
2.57933	18
2.58300	18
2.58667	18
2.59033	18
2.59400	18
2.59767	18
2.60133	17
2.60500	17
2.60867	16
2.61233	16
2.61600	17
2.61967	17
2.62333	18
2.62700	18
2.63067	19
2.63433	20
2.63800	20
2.64167	20
2.64533	21
2.64900	21
2.65267	22
2.65633	22
2.66000	23
2.66367	23
2.66733	23
2.67100	23
2.67467	23
2.67833	23
2.68200	23
2.68567	24
2.68933	24
2.69300	24
2.69667	24
2.70033	24
2.70400	24
2.70767	24
2.71133	24
2.71500	24
2.71867	24
2.72233	24
2.72600	24
2.72967	25
2.73333	25
2.73700	25
2.74067	26
2.74433	26
2.74800	27
2.75167	27
2.75533	28
2.75900	28
2.76267	28
2.76633	28
2.77000	28
2.77367	28
2.77733	28
2.78100	28
2.78467	28
2.78833	27
2.79200	27
2.79567	27
2.79933	27
2.80300	27
2.80667	28
2.81033	28
2.81400	28
2.81767	27
2.82133	27
2.82500	27
2.82867	28
2.83233	28
2.83600	28
2.83967	28
2.84333	28
2.84700	28
2.85067	28
2.85433	27
2.85800	25
2.86167	22
2.86533	17
2.86900	9
2.87267	-1
2.87633	-16
2.88000	-34
2.88367	-56
2.88733	-81
2.89100	-111
2.89467	-145
2.89833	-182
2.90200	-222
2.90567	-265
2.90933	-310
2.91300	-357
2.91667	-406
2.92033	-456
2.92400	-506
2.92767	-557
2.93133	-607
2.93500	-657
2.93867	-707
2.94233	-756
2.94600	-805
2.94967	-856
2.95333	-912
2.95700	-973
2.96067	-1032
2.96433	-1079
2.96800	-1103
2.97167	-1102
2.97533	-1074
2.97900	-1025
2.98267	-961
2.98633	-886
2.99000	-806
2.99367	-725
2.99733	-646
3.00100	-570
3.00467	-500
3.00833	-435
3.01200	-377
3.01567	-325
3.01933	-279
3.02300	-238
3.02667	-202
3.03033	-171
3.03400	-145
3.03767	-122
3.04133	-102
3.04500	-85
3.04867	-70
3.05233	-57
3.05600	-47
3.05967	-37
3.06333	-30
3.06700	-23
3.07067	-17
3.07433	-12
3.07800	-8
3.08167	-5
3.08533	-1
3.08900	1
3.09267	3
3.09633	5
3.10000	7
3.10367	8
3.10733	10
3.11100	11
3.11467	12
3.11833	13
3.12200	14
3.12567	15
3.12933	15
3.13300	16
3.13667	16
3.14033	17
3.14400	17
3.14767	17
3.15133	18
3.15500	18
3.15867	18
3.16233	18
3.16600	18
3.16967	18
3.17333	19
3.17700	19
3.18067	19
3.18433	19
3.18800	19
3.19167	20
3.19533	20
3.19900	20
3.20267	21
3.20633	21
3.21000	21
3.21367	21
3.21733	22
3.22100	22
3.22467	22
3.22833	22
3.23200	22
3.23567	22
3.23933	22
3.24300	22
3.24667	23
3.25033	23
3.25400	23
3.25767	23
3.26133	23
3.26500	23
3.26867	23
3.27233	23
3.27600	24
3.27967	24
3.28333	24
3.28700	25
3.29067	25
3.29433	25
3.29800	25
3.30167	25
3.30533	26
3.30900	26
3.31267	26
3.31633	26
3.32000	26
3.32367	26
3.32733	27
3.33100	27
3.33467	27
3.33833	28
3.34200	28
3.34567	28
3.34933	28
3.35300	28
3.35667	28
3.36033	28
3.36400	28
3.36767	28
3.37133	28
3.37500	29
3.37867	29
3.38233	29
3.38600	29
3.38967	29
3.39333	29
3.39700	29
3.40067	29
3.40433	29
3.40800	29
3.41167	29
3.41533	29
3.41900	29
3.42267	29
3.42633	29
3.43000	29
3.43367	29
3.43733	29
3.44100	29
3.44467	29
3.44833	29
3.45200	29
3.45567	29
3.45933	29
3.46300	30
3.46667	30
3.47033	30
3.47400	30
3.47767	29
3.48133	29
3.48500	29
3.48867	29
3.49233	29
3.49600	29
3.49967	30
3.50333	30
3.50700	30
3.51067	30
3.51433	30
3.51800	29
3.52167	29
3.52533	29
3.52900	29
3.53267	29
3.53633	29
3.54000	28
3.54367	28
3.54733	28
3.55100	29
3.55467	29
3.55833	29
3.56200	29
3.56567	29
3.56933	29
3.57300	29
3.57667	29
3.58033	29
3.58400	29
3.58767	30
3.59133	30
3.59500	30
3.59867	30
3.60233	30
3.60600	30
3.60967	30
3.61333	30
3.61700	30
3.62067	30
3.62433	30
3.62800	30
3.63167	29
3.63533	29
3.63900	29
3.64267	29
3.64633	29
3.65000	29
3.65367	29
3.65733	29
3.66100	29
3.66467	29
3.66833	29
3.67200	29
3.67567	29
3.67933	29
3.68300	30
3.68667	30
3.69033	30
3.69400	30
3.69767	30
3.70133	30
3.70500	29
3.70867	29
3.71233	29
3.71600	28
3.71967	28
3.72333	28
3.72700	28
3.73067	28
3.73433	29
3.73800	29
3.74167	30
3.74533	30
3.74900	30
3.75267	31
3.75633	31
3.76000	31
3.76367	32
3.76733	32
3.77100	32
3.77467	32
3.77833	33
3.78200	33
3.78567	33
3.78933	33
3.79300	33
3.79667	33
3.80033	33
3.80400	33
3.80767	33
3.81133	33
3.81500	33
3.81867	33
3.82233	33
3.82600	33
3.82967	33
3.83333	33
3.83700	33
3.84067	33
3.84433	33
3.84800	33
3.85167	33
3.85533	33
3.85900	33
3.86267	33
3.86633	33
3.87000	33
3.87367	33
3.87733	33
3.88100	33
3.88467	33
3.88833	32
3.89200	32
3.89567	32
3.89933	32
3.90300	32
3.90667	32
3.91033	32
3.91400	32
3.91767	32
3.92133	32
3.92500	31
3.92867	31
3.93233	31
3.93600	31
3.93967	31
3.94333	31
3.94700	31
3.95067	31
3.95433	31
3.95800	31
3.96167	31
3.96533	31
3.96900	31
3.97267	31
3.97633	31
3.98000	31
3.98367	31
3.98733	31
3.99100	30
3.99467	30
3.99833	30

[Chromatogram (Ch3)]
Interval(msec)	220
# of Points	1091
Start Time(min)	0.002
End Time(min)	3.998
R.Time (min)	Intensity
0.00167	1
0.00533	2
0.00900	0
0.01267	-3
0.01633	-4
0.02000	-3
0.02367	-3
0.02733	-5
0.03100	-6
0.03467	-5
0.03833	-4
0.04200	-3
0.04567	-2
0.04933	-3
0.05300	-3
0.05667	-4
0.06033	-4
0.06400	-4
0.06767	-3
0.07133	-2
0.07500	-6
0.07867	-7
0.08233	-6
0.08600	-6
0.08967	-7
0.09333	-6
0.09700	-6
0.10067	-6
0.10433	-6
0.10800	-5
0.11167	-5
0.11533	-7
0.11900	-4
0.12267	-3
0.12633	-7
0.13000	-10
0.13367	-10
0.13733	-7
0.14100	-6
0.14467	-6
0.14833	-5
0.15200	-6
0.15567	-4
0.15933	-2
0.16300	-4
0.16667	-5
0.17033	-7
0.17400	-7
0.17767	-5
0.18133	-3
0.18500	-3
0.18867	-5
0.19233	-6
0.19600	-8
0.19967	-9
0.20333	-8
0.20700	-8
0.21067	-11
0.21433	-13
0.21800	-13
0.22167	-12
0.22533	-13
0.22900	-14
0.23267	-15
0.23633	-17
0.24000	-14
0.24367	-13
0.24733	-14
0.25100	-15
0.25467	-15
0.25833	-16
0.26200	-16
0.26567	-16
0.26933	-13
0.27300	-11
0.27667	-10
0.28033	-6
0.28400	-5
0.28767	-8
0.29133	-11
0.29500	-11
0.29867	-10
0.30233	-10
0.30600	-11
0.30967	-11
0.31333	-9
0.31700	-8
0.32067	-8
0.32433	-8
0.32800	-8
0.33167	-10
0.33533	-10
0.33900	-10
0.34267	-12
0.34633	-13
0.35000	-12
0.35367	-13
0.35733	-14
0.36100	-15
0.36467	-16
0.36833	-16
0.37200	-15
0.37567	-17
0.37933	-20
0.38300	-21
0.38667	-19
0.39033	-17
0.39400	-16
0.39767	-15
0.40133	-15
0.40500	-16
0.40867	-18
0.41233	-20
0.41600	-21
0.41967	-21
0.42333	-21
0.42700	-21
0.43067	-20
0.43433	-20
0.43800	-19
0.44167	-17
0.44533	-16
0.44900	-18
0.45267	-16
0.45633	-15
0.46000	-19
0.46367	-22
0.46733	-20
0.47100	-18
0.47467	-16
0.47833	-13
0.48200	-12
0.48567	-14
0.48933	-15
0.49300	-16
0.49667	-15
0.50033	-17
0.50400	-19
0.50767	-20
0.51133	-20
0.51500	-20
0.51867	-18
0.52233	-16
0.52600	-15
0.52967	-16
0.53333	-18
0.53700	-20
0.54067	-23
0.54433	-25
0.54800	-24
0.55167	-24
0.55533	-23
0.55900	-21
0.56267	-21
0.56633	-21
0.57000	-21
0.57367	-21
0.57733	-19
0.58100	-18
0.58467	-18
0.58833	-19
0.59200	-19
0.59567	-18
0.59933	-15
0.60300	-16
0.60667	-18
0.61033	-16
0.61400	-15
0.61767	-12
0.62133	-11
0.62500	-13
0.62867	-13
0.63233	-14
0.63600	-15
0.63967	-13
0.64333	-11
0.64700	-11
0.65067	-11
0.65433	-14
0.65800	-15
0.66167	-16
0.66533	-15
0.66900	-13
0.67267	-12
0.67633	-12
0.68000	-12
0.68367	-11
0.68733	-11
0.69100	-11
0.69467	-10
0.69833	-10
0.70200	-8
0.70567	-5
0.70933	-4
0.71300	-4
0.71667	-7
0.72033	-10
0.72400	-10
0.72767	-10
0.73133	-11
0.73500	-12
0.73867	-14
0.74233	-12
0.74600	-11
0.74967	-12
0.75333	-12
0.75700	-12
0.76067	-13
0.76433	-11
0.76800	-9
0.77167	-11
0.77533	-11
0.77900	-11
0.78267	-12
0.78633	-14
0.79000	-14
0.79367	-13
0.79733	-14
0.80100	-15
0.80467	-15
0.80833	-16
0.81200	-16
0.81567	-16
0.81933	-17
0.82300	-18
0.82667	-17
0.83033	-17
0.83400	-18
0.83767	-16
0.84133	-14
0.84500	-13
0.84867	-13
0.85233	-15
0.85600	-18
0.85967	-20
0.86333	-19
0.86700	-18
0.87067	-19
0.87433	-18
0.87800	-14
0.88167	-13
0.88533	-14
0.88900	-16
0.89267	-17
0.89633	-19
0.90000	-18
0.90367	-18
0.90733	-18
0.91100	-18
0.91467	-19
0.91833	-18
0.92200	-14
0.92567	-15
0.92933	-16
0.93300	-17
0.93667	-17
0.94033	-19
0.94400	-21
0.94767	-22
0.95133	-24
0.95500	-26
0.95867	-27
0.96233	-28
0.96600	-28
0.96967	-28
0.97333	-27
0.97700	-26
0.98067	-25
0.98433	-25
0.98800	-25
0.99167	-25
0.99533	-24
0.99900	-24
1.00267	-24
1.00633	-24
1.01000	-23
1.01367	-21
1.01733	-20
1.02100	-21
1.02467	-25
1.02833	-28
1.03200	-28
1.03567	-28
1.03933	-28
1.04300	-26
1.04667	-26
1.05033	-25
1.05400	-23
1.05767	-22
1.06133	-20
1.06500	-21
1.06867	-20
1.07233	-20
1.07600	-19
1.07967	-20
1.08333	-19
1.08700	-19
1.09067	-21
1.09433	-22
1.09800	-23
1.10167	-25
1.10533	-25
1.10900	-22
1.11267	-20
1.11633	-18
1.12000	-18
1.12367	-19
1.12733	-20
1.13100	-22
1.13467	-23
1.13833	-23
1.14200	-22
1.14567	-20
1.14933	-17
1.15300	-17
1.15667	-18
1.16033	-18
1.16400	-19
1.16767	-19
1.17133	-20
1.17500	-20
1.17867	-19
1.18233	-18
1.18600	-20
1.18967	-21
1.19333	-21
1.19700	-20
1.20067	-19
1.20433	-19
1.20800	-18
1.21167	-16
1.21533	-15
1.21900	-16
1.22267	-19
1.22633	-19
1.23000	-16
1.23367	-16
1.23733	-15
1.24100	-14
1.24467	-16
1.24833	-16
1.25200	-17
1.25567	-18
1.25933	-20
1.26300	-22
1.26667	-22
1.27033	-20
1.27400	-20
1.27767	-20
1.28133	-19
1.28500	-20
1.28867	-19
1.29233	-18
1.29600	-18
1.29967	-17
1.30333	-18
1.30700	-19
1.31067	-22
1.31433	-23
1.31800	-21
1.32167	-20
1.32533	-18
1.32900	-20
1.33267	-21
1.33633	-20
1.34000	-20
1.34367	-20
1.34733	-19
1.35100	-19
1.35467	-19
1.35833	-16
1.36200	-16
1.36567	-19
1.36933	-20
1.37300	-20
1.37667	-21
1.38033	-23
1.38400	-22
1.38767	-23
1.39133	-23
1.39500	-23
1.39867	-23
1.40233	-23
1.40600	-23
1.40967	-24
1.41333	-26
1.41700	-29
1.42067	-30
1.42433	-26
1.42800	-23
1.43167	-22
1.43533	-21
1.43900	-23
1.44267	-27
1.44633	-30
1.45000	-31
1.45367	-31
1.45733	-29
1.46100	-27
1.46467	-28
1.46833	-27
1.47200	-25
1.47567	-28
1.47933	-31
1.48300	-33
1.48667	-33
1.49033	-32
1.49400	-31
1.49767	-30
1.50133	-29
1.50500	-27
1.50867	-27
1.51233	-28
1.51600	-29
1.51967	-30
1.52333	-28
1.52700	-24
1.53067	-23
1.53433	-25
1.53800	-26
1.54167	-27
1.54533	-27
1.54900	-29
1.55267	-30
1.55633	-27
1.56000	-25
1.56367	-25
1.56733	-26
1.57100	-26
1.57467	-27
1.57833	-28
1.58200	-28
1.58567	-28
1.58933	-28
1.59300	-26
1.59667	-24
1.60033	-27
1.60400	-29
1.60767	-30
1.61133	-29
1.61500	-28
1.61867	-31
1.62233	-33
1.62600	-34
1.62967	-34
1.63333	-32
1.63700	-29
1.64067	-29
1.64433	-27
1.64800	-25
1.65167	-24
1.65533	-25
1.65900	-26
1.66267	-26
1.66633	-25
1.67000	-24
1.67367	-23
1.67733	-25
1.68100	-26
1.68467	-24
1.68833	-24
1.69200	-23
1.69567	-20
1.69933	-20
1.70300	-21
1.70667	-21
1.71033	-20
1.71400	-16
1.71767	-15
1.72133	-13
1.72500	-14
1.72867	-14
1.73233	-14
1.73600	-12
1.73967	-11
1.74333	-11
1.74700	-12
1.75067	-13
1.75433	-14
1.75800	-15
1.76167	-17
1.76533	-17
1.76900	-16
1.77267	-13
1.77633	-14
1.78000	-13
1.78367	-10
1.78733	-9
1.79100	-10
1.79467	-10
1.79833	-9
1.80200	-8
1.80567	-9
1.80933	-7
1.81300	-7
1.81667	-7
1.82033	-3
1.82400	1
1.82767	3
1.83133	4
1.83500	3
1.83867	1
1.84233	0
1.84600	2
1.84967	4
1.85333	4
1.85700	2
1.86067	0
1.86433	-2
1.86800	-3
1.87167	-2
1.87533	3
1.87900	8
1.88267	10
1.88633	10
1.89000	9
1.89367	7
1.89733	6
1.90100	4
1.90467	5
1.90833	7
1.91200	7
1.91567	9
1.91933	9
1.92300	8
1.92667	12
1.93033	15
1.93400	18
1.93767	18
1.94133	18
1.94500	17
1.94867	17
1.95233	15
1.95600	15
1.95967	17
1.96333	18
1.96700	21
1.97067	22
1.97433	23
1.97800	23
1.98167	25
1.98533	26
1.98900	27
1.99267	27
1.99633	26
2.00000	26
2.00367	26
2.00733	29
2.01100	30
2.01467	29
2.01833	30
2.02200	31
2.02567	32
2.02933	32
2.03300	34
2.03667	34
2.04033	34
2.04400	32
2.04767	29
2.05133	28
2.05500	29
2.05867	31
2.06233	33
2.06600	34
2.06967	36
2.07333	40
2.07700	43
2.08067	44
2.08433	44
2.08800	44
2.09167	43
2.09533	43
2.09900	42
2.10267	43
2.10633	42
2.11000	43
2.11367	47
2.11733	48
2.12100	48
2.12467	45
2.12833	45
2.13200	47
2.13567	48
2.13933	49
2.14300	51
2.14667	52
2.15033	53
2.15400	55
2.15767	56
2.16133	55
2.16500	58
2.16867	62
2.17233	65
2.17600	65
2.17967	63
2.18333	60
2.18700	60
2.19067	62
2.19433	64
2.19800	66
2.20167	70
2.20533	72
2.20900	75
2.21267	76
2.21633	77
2.22000	74
2.22367	74
2.22733	76
2.23100	78
2.23467	79
2.23833	78
2.24200	76
2.24567	74
2.24933	75
2.25300	77
2.25667	80
2.26033	83
2.26400	86
2.26767	87
2.27133	86
2.27500	86
2.27867	87
2.28233	89
2.28600	90
2.28967	90
2.29333	90
2.29700	91
2.30067	91
2.30433	94
2.30800	97
2.31167	100
2.31533	101
2.31900	102
2.32267	104
2.32633	105
2.33000	107
2.33367	110
2.33733	111
2.34100	111
2.34467	115
2.34833	116
2.35200	118
2.35567	121
2.35933	122
2.36300	126
2.36667	126
2.37033	128
2.37400	130
2.37767	130
2.38133	129
2.38500	128
2.38867	127
2.39233	129
2.39600	132
2.39967	133
2.40333	134
2.40700	138
2.41067	141
2.41433	141
2.41800	139
2.42167	139
2.42533	142
2.42900	146
2.43267	149
2.43633	152
2.44000	155
2.44367	173
2.44733	221
2.45100	279
2.45467	326
2.45833	348
2.46200	350
2.46567	353
2.46933	356
2.47300	353
2.47667	342
2.48033	324
2.48400	306
2.48767	291
2.49133	281
2.49500	279
2.49867	286
2.50233	296
2.50600	303
2.50967	310
2.51333	314
2.51700	315
2.52067	311
2.52433	303
2.52800	294
2.53167	282
2.53533	274
2.53900	268
2.54267	265
2.54633	262
2.55000	263
2.55367	266
2.55733	268
2.56100	272
2.56467	277
2.56833	285
2.57200	291
2.57567	296
2.57933	303
2.58300	307
2.58667	312
2.59033	320
2.59400	330
2.59767	337
2.60133	340
2.60500	339
2.60867	333
2.61233	320
2.61600	298
2.61967	270
2.62333	239
2.62700	208
2.63067	176
2.63433	143
2.63800	114
2.64167	91
2.64533	71
2.64900	55
2.65267	42
2.65633	35
2.66000	35
2.66367	37
2.66733	38
2.67100	41
2.67467	49
2.67833	58
2.68200	66
2.68567	73
2.68933	82
2.69300	90
2.69667	99
2.70033	109
2.70400	120
2.70767	128
2.71133	136
2.71500	141
2.71867	146
2.72233	154
2.72600	162
2.72967	169
2.73333	177
2.73700	183
2.74067	188
2.74433	196
2.74800	202
2.75167	205
2.75533	211
2.75900	216
2.76267	223
2.76633	230
2.77000	236
2.77367	244
2.77733	250
2.78100	256
2.78467	260
2.78833	262
2.79200	266
2.79567	271
2.79933	274
2.80300	275
2.80667	279
2.81033	280
2.81400	279
2.81767	279
2.82133	279
2.82500	281
2.82867	284
2.83233	297
2.83600	327
2.83967	391
2.84333	507
2.84700	702
2.85067	1000
2.85433	1418
2.85800	1943
2.86167	2551
2.86533	3209
2.86900	3864
2.87267	4464
2.87633	4962
2.88000	5317
2.88367	5514
2.88733	5549
2.89100	5442
2.89467	5221
2.89833	4920
2.90200	4565
2.90567	4186
2.90933	3801
2.91300	3424
2.91667	3066
2.92033	2732
2.92400	2429
2.92767	2156
2.93133	1910
2.93500	1692
2.93867	1503
2.94233	1337
2.94600	1192
2.94967	1067
2.95333	957
2.95700	862
2.96067	779
2.96433	707
2.96800	644
2.97167	592
2.97533	546
2.97900	510
2.98267	479
2.98633	450
2.99000	421
2.99367	397
2.99733	378
3.00100	363
3.00467	352
3.00833	340
3.01200	330
3.01567	320
3.01933	311
3.02300	304
3.02667	296
3.03033	291
3.03400	289
3.03767	284
3.04133	281
3.04500	278
3.04867	275
3.05233	272
3.05600	271
3.05967	270
3.06333	269
3.06700	269
3.07067	269
3.07433	269
3.07800	268
3.08167	266
3.08533	265
3.08900	263
3.09267	260
3.09633	259
3.10000	259
3.10367	258
3.10733	255
3.11100	256
3.11467	256
3.11833	258
3.12200	258
3.12567	257
3.12933	256
3.13300	253
3.13667	252
3.14033	251
3.14400	253
3.14767	254
3.15133	256
3.15500	257
3.15867	258
3.16233	257
3.16600	258
3.16967	257
3.17333	254
3.17700	252
3.18067	253
3.18433	254
3.18800	256
3.19167	257
3.19533	256
3.19900	254
3.20267	253
3.20633	254
3.21000	255
3.21367	255
3.21733	257
3.22100	257
3.22467	257
3.22833	259
3.23200	259
3.23567	258
3.23933	255
3.24300	254
3.24667	253
3.25033	251
3.25400	251
3.25767	250
3.26133	249
3.26500	246
3.26867	244
3.27233	244
3.27600	242
3.27967	242
3.28333	241
3.28700	237
3.29067	233
3.29433	231
3.29800	229
3.30167	225
3.30533	223
3.30900	221
3.31267	219
3.31633	217
3.32000	213
3.32367	211
3.32733	209
3.33100	207
3.33467	203
3.33833	198
3.34200	196
3.34567	197
3.34933	199
3.35300	196
3.35667	193
3.36033	189
3.36400	183
3.36767	179
3.37133	176
3.37500	174
3.37867	170
3.38233	166
3.38600	163
3.38967	161
3.39333	159
3.39700	153
3.40067	148
3.40433	145
3.40800	142
3.41167	138
3.41533	133
3.41900	132
3.42267	132
3.42633	132
3.43000	130
3.43367	128
3.43733	125
3.44100	123
3.44467	122
3.44833	120
3.45200	117
3.45567	114
3.45933	112
3.46300	112
3.46667	110
3.47033	108
3.47400	107
3.47767	105
3.48133	103
3.48500	100
3.48867	95
3.49233	90
3.49600	87
3.49967	84
3.50333	83
3.50700	83
3.51067	83
3.51433	81
3.51800	80
3.52167	80
3.52533	78
3.52900	76
3.53267	75
3.53633	74
3.54000	73
3.54367	72
3.54733	72
3.55100	70
3.55467	67
3.55833	64
3.56200	60
3.56567	55
3.56933	52
3.57300	49
3.57667	48
3.58033	49
3.58400	50
3.58767	51
3.59133	53
3.59500	51
3.59867	45
3.60233	41
3.60600	39
3.60967	39
3.61333	38
3.61700	36
3.62067	34
3.62433	31
3.62800	28
3.63167	25
3.63533	22
3.63900	22
3.64267	22
3.64633	23
3.65000	23
3.65367	21
3.65733	18
3.66100	14
3.66467	12
3.66833	12
3.67200	10
3.67567	10
3.67933	10
3.68300	9
3.68667	7
3.69033	2
3.69400	-2
3.69767	-5
3.70133	-7
3.70500	-8
3.70867	-7
3.71233	-6
3.71600	-5
3.71967	-6
3.72333	-8
3.72700	-11
3.73067	-16
3.73433	-21
3.73800	-23
3.74167	-26
3.74533	-30
3.74900	-30
3.75267	-28
3.75633	-27
3.76000	-27
3.76367	-27
3.76733	-28
3.77100	-29
3.77467	-31
3.77833	-32
3.78200	-35
3.78567	-38
3.78933	-41
3.79300	-42
3.79667	-42
3.80033	-43
3.80400	-46
3.80767	-49
3.81133	-50
3.81500	-49
3.81867	-49
3.82233	-52
3.82600	-53
3.82967	-52
3.83333	-54
3.83700	-56
3.84067	-60
3.84433	-61
3.84800	-63
3.85167	-63
3.85533	-64
3.85900	-66
3.86267	-67
3.86633	-68
3.87000	-69
3.87367	-69
3.87733	-71
3.88100	-71
3.88467	-72
3.88833	-72
3.89200	-74
3.89567	-74
3.89933	-73
3.90300	-73
3.90667	-74
3.91033	-74
3.91400	-75
3.91767	-77
3.92133	-80
3.92500	-82
3.92867	-84
3.93233	-83
3.93600	-81
3.93967	-81
3.94333	-84
3.94700	-87
3.95067	-86
3.95433	-87
3.95800	-88
3.96167	-88
3.96533	-91
3.96900	-92
3.97267	-92
3.97633	-92
3.98000	-91
3.98367	-91
3.98733	-91
3.99100	-91
3.99467	-92
3.99833	-94

[Status Trace (Column Oven Temperature)]
Interval(msec)	1000
# of Points	240
Start Time(min)	0.009
End Time(min)	3.992
Intensity Units	
Intensity Multiplier	1
R.Time (min)	Intensity
0.00857	35.00
0.02523	35.01
0.04190	35.02
0.05857	35.02
0.07523	35.02
0.09190	35.02
0.10857	35.01
0.12523	35.01
0.14190	35.01
0.15857	35.00
0.17523	34.99
0.19190	34.98
0.20857	34.99
0.22523	34.99
0.24190	34.99
0.25857	34.99
0.27523	34.99
0.29190	35.00
0.30857	35.00
0.32523	35.00
0.34190	35.00
0.35857	35.01
0.37523	35.01
0.39190	35.01
0.40857	35.00
0.42523	35.00
0.44190	35.00
0.45857	35.00
0.47523	35.00
0.49190	35.00
0.50857	35.00
0.52523	35.01
0.54190	35.00
0.55857	34.99
0.57523	34.99
0.59190	34.98
0.60857	34.98
0.62523	34.99
0.64190	35.00
0.65857	35.00
0.67523	34.99
0.69190	34.99
0.70857	34.99
0.72523	34.99
0.74190	34.99
0.75857	34.99
0.77523	34.99
0.79190	34.99
0.80857	34.99
0.82523	35.00
0.84190	35.01
0.85857	35.02
0.87523	35.02
0.89190	35.02
0.90857	35.01
0.92523	35.01
0.94190	35.01
0.95857	35.00
0.97523	35.00
0.99190	34.99
1.00857	34.98
1.02523	34.98
1.04190	34.98
1.05857	34.98
1.07523	34.99
1.09190	34.99
1.10857	35.00
1.12523	35.00
1.14190	35.00
1.15857	35.00
1.17523	35.01
1.19190	35.01
1.20857	35.01
1.22523	35.00
1.24190	35.01
1.25857	35.00
1.27523	35.01
1.29190	35.01
1.30857	35.01
1.32523	35.01
1.34190	35.01
1.35857	35.00
1.37523	34.99
1.39190	35.00
1.40857	34.99
1.42523	35.01
1.44190	35.00
1.45857	35.01
1.47523	35.00
1.49190	34.99
1.50857	34.99
1.52523	34.99
1.54190	34.99
1.55857	34.99
1.57523	34.99
1.59190	35.01
1.60857	35.07
1.62523	35.19
1.64190	35.37
1.65857	35.62
1.67523	35.96
1.69190	36.33
1.70857	36.67
1.72523	37.01
1.74190	37.35
1.75857	37.68
1.77523	38.02
1.79190	38.34
1.80857	38.67
1.82523	39.00
1.84190	39.34
1.85857	39.67
1.87523	40.00
1.89190	40.33
1.90857	40.64
1.92523	40.98
1.94190	41.30
1.95857	41.60
1.97523	41.93
1.99190	42.28
2.00857	42.60
2.02523	42.92
2.04190	43.27
2.05857	43.59
2.07523	43.91
2.09190	44.23
2.10857	44.55
2.12523	44.87
2.14190	45.19
2.15857	45.52
2.17523	45.85
2.19190	46.18
2.20857	46.50
2.22523	46.84
2.24190	47.17
2.25857	47.51
2.27523	47.83
2.29190	48.14
2.30857	48.53
2.32523	48.85
2.34190	49.14
2.35857	49.45
2.37523	49.65
2.39190	49.71
2.40857	49.70
2.42523	49.70
2.44190	49.72
2.45857	49.72
2.47523	49.72
2.49190	49.73
2.50857	49.75
2.52523	49.76
2.54190	49.77
2.55857	49.77
2.57523	49.79
2.59190	49.80
2.60857	49.83
2.62523	49.82
2.64190	49.83
2.65857	49.83
2.67523	49.84
2.69190	49.85
2.70857	49.86
2.72523	49.86
2.74190	49.85
2.75857	49.85
2.77523	49.86
2.79190	49.87
2.80857	49.87
2.82523	49.86
2.84190	49.86
2.85857	49.87
2.87523	49.89
2.89190	49.90
2.90857	49.91
2.92523	49.92
2.94190	49.92
2.95857	49.94
2.97523	49.96
2.99190	49.98
3.00857	49.98
3.02523	49.98
3.04190	49.98
3.05857	50.00
3.07523	50.00
3.09190	50.01
3.10857	50.01
3.12523	50.02
3.14190	50.03
3.15857	50.04
3.17523	50.05
3.19190	50.06
3.20857	50.06
3.22523	50.07
3.24190	50.08
3.25857	50.09
3.27523	50.10
3.29190	50.10
3.30857	50.10
3.32523	50.10
3.34190	50.10
3.35857	50.10
3.37523	50.09
3.39190	50.09
3.40857	50.09
3.42523	50.09
3.44190	50.08
3.45857	50.08
3.47523	50.08
3.49190	50.07
3.50857	50.08
3.52523	50.08
3.54190	50.08
3.55857	50.09
3.57523	50.08
3.59190	50.09
3.60857	50.08
3.62523	50.09
3.64190	50.09
3.65857	50.10
3.67523	50.10
3.69190	50.10
3.70857	50.11
3.72523	50.11
3.74190	50.10
3.75857	50.09
3.77523	50.07
3.79190	50.06
3.80857	50.04
3.82523	50.03
3.84190	50.02
3.85857	50.01
3.87523	50.00
3.89190	50.00
3.90857	50.00
3.92523	50.00
3.94190	50.00
3.95857	50.00
3.97523	50.00
3.99190	50.00

[Status Trace (Injection Unit Temperature)]
Interval(msec)	1000
# of Points	240
Start Time(min)	0.009
End Time(min)	3.992
Intensity Units	
Intensity Multiplier	1
R.Time (min)	Intensity
0.00857	99.99
0.02523	99.99
0.04190	99.99
0.05857	99.99
0.07523	99.99
0.09190	100.00
0.10857	99.99
0.12523	99.99
0.14190	99.99
0.15857	99.99
0.17523	99.99
0.19190	99.99
0.20857	99.99
0.22523	99.99
0.24190	99.99
0.25857	99.99
0.27523	99.99
0.29190	99.99
0.30857	99.99
0.32523	99.99
0.34190	99.99
0.35857	99.99
0.37523	99.99
0.39190	99.99
0.40857	99.99
0.42523	99.99
0.44190	99.99
0.45857	99.99
0.47523	99.99
0.49190	99.99
0.50857	99.99
0.52523	99.99
0.54190	99.99
0.55857	99.99
0.57523	99.99
0.59190	99.99
0.60857	99.99
0.62523	99.99
0.64190	99.99
0.65857	99.99
0.67523	99.99
0.69190	99.99
0.70857	99.99
0.72523	99.99
0.74190	99.99
0.75857	99.99
0.77523	100.00
0.79190	99.99
0.80857	100.00
0.82523	99.99
0.84190	100.00
0.85857	99.99
0.87523	100.00
0.89190	100.00
0.90857	100.00
0.92523	100.00
0.94190	99.99
0.95857	100.00
0.97523	100.00
0.99190	100.00
1.00857	100.00
1.02523	100.00
1.04190	100.00
1.05857	100.00
1.07523	100.00
1.09190	99.99
1.10857	100.00
1.12523	100.00
1.14190	100.00
1.15857	100.00
1.17523	100.00
1.19190	100.00
1.20857	100.00
1.22523	100.00
1.24190	100.00
1.25857	100.00
1.27523	100.00
1.29190	100.00
1.30857	100.00
1.32523	100.00
1.34190	100.00
1.35857	100.00
1.37523	100.00
1.39190	100.00
1.40857	100.00
1.42523	100.00
1.44190	100.00
1.45857	100.00
1.47523	100.01
1.49190	100.00
1.50857	100.01
1.52523	100.00
1.54190	100.00
1.55857	100.00
1.57523	100.00
1.59190	100.00
1.60857	100.00
1.62523	100.00
1.64190	100.00
1.65857	99.99
1.67523	100.00
1.69190	100.00
1.70857	99.99
1.72523	100.00
1.74190	99.99
1.75857	100.00
1.77523	100.00
1.79190	100.00
1.80857	99.99
1.82523	99.99
1.84190	99.99
1.85857	99.99
1.87523	99.99
1.89190	99.99
1.90857	99.99
1.92523	99.99
1.94190	99.99
1.95857	99.99
1.97523	99.99
1.99190	99.98
2.00857	99.98
2.02523	99.98
2.04190	99.98
2.05857	99.98
2.07523	99.98
2.09190	99.98
2.10857	99.98
2.12523	99.98
2.14190	99.98
2.15857	99.98
2.17523	99.98
2.19190	99.98
2.20857	99.98
2.22523	99.98
2.24190	99.98
2.25857	99.98
2.27523	99.98
2.29190	99.98
2.30857	99.98
2.32523	99.98
2.34190	99.98
2.35857	99.98
2.37523	99.98
2.39190	99.98
2.40857	99.98
2.42523	99.98
2.44190	99.98
2.45857	99.98
2.47523	99.98
2.49190	99.98
2.50857	99.98
2.52523	99.98
2.54190	99.98
2.55857	99.98
2.57523	99.98
2.59190	99.99
2.60857	99.99
2.62523	99.99
2.64190	99.99
2.65857	99.99
2.67523	100.00
2.69190	99.99
2.70857	100.00
2.72523	100.00
2.74190	100.00
2.75857	100.00
2.77523	100.00
2.79190	100.00
2.80857	100.00
2.82523	100.00
2.84190	100.01
2.85857	100.01
2.87523	100.01
2.89190	100.01
2.90857	100.01
2.92523	100.01
2.94190	100.01
2.95857	100.02
2.97523	100.02
2.99190	100.02
3.00857	100.02
3.02523	100.02
3.04190	100.02
3.05857	100.02
3.07523	100.03
3.09190	100.02
3.10857	100.03
3.12523	100.03
3.14190	100.03
3.15857	100.03
3.17523	100.03
3.19190	100.03
3.20857	100.03
3.22523	100.03
3.24190	100.03
3.25857	100.04
3.27523	100.04
3.29190	100.04
3.30857	100.03
3.32523	100.04
3.34190	100.04
3.35857	100.04
3.37523	100.04
3.39190	100.05
3.40857	100.04
3.42523	100.04
3.44190	100.04
3.45857	100.04
3.47523	100.05
3.49190	100.05
3.50857	100.05
3.52523	100.05
3.54190	100.05
3.55857	100.05
3.57523	100.05
3.59190	100.05
3.60857	100.05
3.62523	100.05
3.64190	100.05
3.65857	100.05
3.67523	100.05
3.69190	100.05
3.70857	100.05
3.72523	100.05
3.74190	100.05
3.75857	100.06
3.77523	100.06
3.79190	100.05
3.80857	100.06
3.82523	100.06
3.84190	100.05
3.85857	100.06
3.87523	100.05
3.89190	100.06
3.90857	100.06
3.92523	100.06
3.94190	100.06
3.95857	100.06
3.97523	100.06
3.99190	100.06

[Status Trace (Carrier Gas Pressure)]
Interval(msec)	1000
# of Points	240
Start Time(min)	0.009
End Time(min)	3.992
Intensity Units	
Intensity Multiplier	1
R.Time (min)	Intensity
0.00857	58.00
0.02523	55.29
0.04190	57.09
0.05857	59.25
0.07523	59.42
0.09190	58.08
0.10857	57.98
0.12523	58.01
0.14190	58.01
0.15857	58.01
0.17523	58.00
0.19190	58.00
0.20857	58.00
0.22523	58.00
0.24190	58.00
0.25857	58.00
0.27523	58.00
0.29190	58.00
0.30857	58.00
0.32523	58.00
0.34190	58.00
0.35857	58.00
0.37523	58.00
0.39190	58.00
0.40857	58.00
0.42523	58.00
0.44190	58.00
0.45857	58.00
0.47523	58.00
0.49190	58.00
0.50857	58.00
0.52523	58.00
0.54190	58.00
0.55857	58.00
0.57523	58.00
0.59190	58.00
0.60857	58.00
0.62523	58.00
0.64190	58.00
0.65857	58.00
0.67523	58.00
0.69190	58.00
0.70857	58.00
0.72523	58.00
0.74190	58.00
0.75857	58.00
0.77523	58.00
0.79190	58.00
0.80857	58.00
0.82523	58.00
0.84190	58.00
0.85857	58.00
0.87523	58.00
0.89190	58.00
0.90857	58.00
0.92523	58.00
0.94190	58.00
0.95857	58.00
0.97523	58.00
0.99190	58.00
1.00857	58.00
1.02523	58.00
1.04190	58.00
1.05857	58.00
1.07523	58.00
1.09190	58.00
1.10857	58.00
1.12523	58.00
1.14190	58.00
1.15857	58.00
1.17523	58.00
1.19190	58.00
1.20857	58.00
1.22523	58.00
1.24190	58.00
1.25857	58.00
1.27523	58.00
1.29190	58.00
1.30857	58.00
1.32523	58.00
1.34190	58.00
1.35857	58.00
1.37523	58.00
1.39190	58.00
1.40857	58.00
1.42523	58.00
1.44190	58.00
1.45857	58.00
1.47523	58.00
1.49190	58.00
1.50857	58.00
1.52523	58.00
1.54190	58.00
1.55857	58.00
1.57523	58.00
1.59190	58.00
1.60857	58.00
1.62523	58.00
1.64190	58.00
1.65857	58.00
1.67523	58.01
1.69190	58.00
1.70857	58.00
1.72523	58.00
1.74190	58.00
1.75857	58.00
1.77523	58.00
1.79190	58.00
1.80857	58.00
1.82523	58.00
1.84190	58.00
1.85857	58.00
1.87523	58.00
1.89190	58.00
1.90857	58.00
1.92523	58.00
1.94190	58.00
1.95857	58.00
1.97523	58.00
1.99190	58.00
2.00857	58.00
2.02523	58.00
2.04190	58.00
2.05857	58.00
2.07523	58.00
2.09190	58.00
2.10857	58.00
2.12523	58.00
2.14190	58.00
2.15857	58.00
2.17523	58.00
2.19190	58.00
2.20857	58.00
2.22523	58.00
2.24190	58.00
2.25857	58.00
2.27523	58.00
2.29190	58.00
2.30857	58.00
2.32523	58.00
2.34190	58.00
2.35857	58.00
2.37523	58.00
2.39190	57.99
2.40857	57.99
2.42523	58.00
2.44190	58.00
2.45857	58.00
2.47523	58.00
2.49190	58.00
2.50857	58.00
2.52523	57.98
2.54190	58.00
2.55857	58.00
2.57523	58.00
2.59190	58.00
2.60857	58.00
2.62523	58.00
2.64190	58.00
2.65857	58.00
2.67523	58.00
2.69190	58.00
2.70857	58.00
2.72523	58.00
2.74190	58.00
2.75857	58.00
2.77523	58.00
2.79190	58.00
2.80857	58.00
2.82523	58.00
2.84190	58.00
2.85857	58.00
2.87523	58.00
2.89190	58.00
2.90857	58.00
2.92523	58.00
2.94190	58.00
2.95857	58.00
2.97523	58.00
2.99190	58.00
3.00857	58.00
3.02523	58.00
3.04190	58.00
3.05857	58.00
3.07523	58.00
3.09190	58.00
3.10857	58.00
3.12523	58.00
3.14190	58.00
3.15857	58.00
3.17523	58.00
3.19190	58.00
3.20857	58.00
3.22523	58.00
3.24190	58.00
3.25857	58.00
3.27523	58.00
3.29190	58.00
3.30857	58.00
3.32523	58.00
3.34190	58.00
3.35857	58.00
3.37523	58.00
3.39190	58.00
3.40857	58.00
3.42523	58.00
3.44190	58.00
3.45857	58.00
3.47523	58.00
3.49190	58.00
3.50857	58.00
3.52523	58.00
3.54190	58.00
3.55857	58.00
3.57523	58.00
3.59190	58.00
3.60857	58.00
3.62523	58.00
3.64190	58.00
3.65857	58.00
3.67523	58.00
3.69190	58.00
3.70857	58.00
3.72523	58.00
3.74190	58.00
3.75857	58.00
3.77523	58.00
3.79190	58.00
3.80857	58.00
3.82523	58.00
3.84190	58.00
3.85857	58.00
3.87523	58.00
3.89190	58.00
3.90857	58.00
3.92523	58.00
3.94190	58.00
3.95857	58.00
3.97523	58.00
3.99190	58.00

[Status Trace (Carrier Gas Flow)]
Interval(msec)	1000
# of Points	240
Start Time(min)	0.009
End Time(min)	3.992
Intensity Units	
Intensity Multiplier	1
R.Time (min)	Intensity
0.00857	34.52
0.02523	34.53
0.04190	34.54
0.05857	34.55
0.07523	34.50
0.09190	34.52
0.10857	34.52
0.12523	34.52
0.14190	34.52
0.15857	34.52
0.17523	34.52
0.19190	34.52
0.20857	34.52
0.22523	34.52
0.24190	34.52
0.25857	34.52
0.27523	34.52
0.29190	34.52
0.30857	34.52
0.32523	34.52
0.34190	34.52
0.35857	34.52
0.37523	34.52
0.39190	34.52
0.40857	34.52
0.42523	34.52
0.44190	34.52
0.45857	34.52
0.47523	34.52
0.49190	34.52
0.50857	34.52
0.52523	34.52
0.54190	34.52
0.55857	34.52
0.57523	34.52
0.59190	34.52
0.60857	34.52
0.62523	34.52
0.64190	34.52
0.65857	34.52
0.67523	34.52
0.69190	34.52
0.70857	34.52
0.72523	34.52
0.74190	34.52
0.75857	34.52
0.77523	34.52
0.79190	34.52
0.80857	34.52
0.82523	34.52
0.84190	34.52
0.85857	34.52
0.87523	34.52
0.89190	34.52
0.90857	34.52
0.92523	34.52
0.94190	34.52
0.95857	34.52
0.97523	34.52
0.99190	34.52
1.00857	34.52
1.02523	34.52
1.04190	34.52
1.05857	34.52
1.07523	34.52
1.09190	34.52
1.10857	34.52
1.12523	34.52
1.14190	34.52
1.15857	34.52
1.17523	34.52
1.19190	34.52
1.20857	34.52
1.22523	34.52
1.24190	34.52
1.25857	34.52
1.27523	34.52
1.29190	34.52
1.30857	34.52
1.32523	34.52
1.34190	34.52
1.35857	34.52
1.37523	34.52
1.39190	34.52
1.40857	34.52
1.42523	34.52
1.44190	34.52
1.45857	34.52
1.47523	34.52
1.49190	34.52
1.50857	34.52
1.52523	34.52
1.54190	34.52
1.55857	34.52
1.57523	34.52
1.59190	34.52
1.60857	34.52
1.62523	34.52
1.64190	34.52
1.65857	34.52
1.67523	34.52
1.69190	34.52
1.70857	34.52
1.72523	34.52
1.74190	34.52
1.75857	34.52
1.77523	34.52
1.79190	34.51
1.80857	34.52
1.82523	34.52
1.84190	34.52
1.85857	34.52
1.87523	34.52
1.89190	34.52
1.90857	34.52
1.92523	34.52
1.94190	34.52
1.95857	34.52
1.97523	34.52
1.99190	34.52
2.00857	34.52
2.02523	34.52
2.04190	34.52
2.05857	34.52
2.07523	34.52
2.09190	34.52
2.10857	34.52
2.12523	34.52
2.14190	34.52
2.15857	34.52
2.17523	34.52
2.19190	34.52
2.20857	34.52
2.22523	34.52
2.24190	34.52
2.25857	34.52
2.27523	34.52
2.29190	34.52
2.30857	34.52
2.32523	34.52
2.34190	34.52
2.35857	34.53
2.37523	34.51
2.39190	34.52
2.40857	34.52
2.42523	34.52
2.44190	34.52
2.45857	34.52
2.47523	34.52
2.49190	34.52
2.50857	34.43
2.52523	34.52
2.54190	34.52
2.55857	34.52
2.57523	34.52
2.59190	34.52
2.60857	34.52
2.62523	34.52
2.64190	34.52
2.65857	34.52
2.67523	34.52
2.69190	34.52
2.70857	34.52
2.72523	34.52
2.74190	34.52
2.75857	34.52
2.77523	34.52
2.79190	34.52
2.80857	34.52
2.82523	34.52
2.84190	34.52
2.85857	34.52
2.87523	34.52
2.89190	34.52
2.90857	34.52
2.92523	34.52
2.94190	34.52
2.95857	34.52
2.97523	34.52
2.99190	34.52
3.00857	34.52
3.02523	34.52
3.04190	34.52
3.05857	34.52
3.07523	34.52
3.09190	34.52
3.10857	34.52
3.12523	34.52
3.14190	34.52
3.15857	34.52
3.17523	34.52
3.19190	34.52
3.20857	34.52
3.22523	34.52
3.24190	34.52
3.25857	34.52
3.27523	34.52
3.29190	34.51
3.30857	34.52
3.32523	34.53
3.34190	34.51
3.35857	34.52
3.37523	34.52
3.39190	34.51
3.40857	34.52
3.42523	34.53
3.44190	34.52
3.45857	34.53
3.47523	34.53
3.49190	34.53
3.50857	34.51
3.52523	34.52
3.54190	34.53
3.55857	34.53
3.57523	34.53
3.59190	34.53
3.60857	34.51
3.62523	34.52
3.64190	34.52
3.65857	34.52
3.67523	34.52
3.69190	34.52
3.70857	34.51
3.72523	34.52
3.74190	34.52
3.75857	34.52
3.77523	34.52
3.79190	34.52
3.80857	34.52
3.82523	34.52
3.84190	34.52
3.85857	34.52
3.87523	34.52
3.89190	34.52
3.90857	34.52
3.92523	34.52
3.94190	34.52
3.95857	34.52
3.97523	34.52
3.99190	34.52

[Status Trace (Column Flow)]
Interval(msec)	1000
# of Points	240
Start Time(min)	0.009
End Time(min)	3.992
Intensity Units	
Intensity Multiplier	1
R.Time (min)	Intensity
0.00857	5.51
0.02523	5.20
0.04190	5.40
0.05857	5.65
0.07523	5.68
0.09190	5.52
0.10857	5.51
0.12523	5.51
0.14190	5.51
0.15857	5.51
0.17523	5.51
0.19190	5.51
0.20857	5.51
0.22523	5.51
0.24190	5.51
0.25857	5.51
0.27523	5.51
0.29190	5.51
0.30857	5.51
0.32523	5.51
0.34190	5.51
0.35857	5.51
0.37523	5.51
0.39190	5.51
0.40857	5.51
0.42523	5.51
0.44190	5.51
0.45857	5.51
0.47523	5.51
0.49190	5.51
0.50857	5.51
0.52523	5.51
0.54190	5.51
0.55857	5.51
0.57523	5.51
0.59190	5.51
0.60857	5.51
0.62523	5.51
0.64190	5.51
0.65857	5.51
0.67523	5.51
0.69190	5.51
0.70857	5.51
0.72523	5.51
0.74190	5.51
0.75857	5.51
0.77523	5.51
0.79190	5.51
0.80857	5.51
0.82523	5.51
0.84190	5.51
0.85857	5.51
0.87523	5.51
0.89190	5.51
0.90857	5.51
0.92523	5.51
0.94190	5.51
0.95857	5.51
0.97523	5.51
0.99190	5.51
1.00857	5.51
1.02523	5.51
1.04190	5.51
1.05857	5.51
1.07523	5.51
1.09190	5.51
1.10857	5.51
1.12523	5.51
1.14190	5.51
1.15857	5.51
1.17523	5.51
1.19190	5.51
1.20857	5.51
1.22523	5.51
1.24190	5.51
1.25857	5.51
1.27523	5.51
1.29190	5.51
1.30857	5.51
1.32523	5.51
1.34190	5.51
1.35857	5.51
1.37523	5.51
1.39190	5.51
1.40857	5.51
1.42523	5.51
1.44190	5.51
1.45857	5.51
1.47523	5.51
1.49190	5.51
1.50857	5.51
1.52523	5.51
1.54190	5.51
1.55857	5.51
1.57523	5.51
1.59190	5.51
1.60857	5.51
1.62523	5.51
1.64190	5.50
1.65857	5.49
1.67523	5.48
1.69190	5.47
1.70857	5.46
1.72523	5.45
1.74190	5.44
1.75857	5.43
1.77523	5.42
1.79190	5.41
1.80857	5.40
1.82523	5.39
1.84190	5.38
1.85857	5.37
1.87523	5.36
1.89190	5.35
1.90857	5.34
1.92523	5.33
1.94190	5.32
1.95857	5.31
1.97523	5.30
1.99190	5.29
2.00857	5.28
2.02523	5.27
2.04190	5.26
2.05857	5.25
2.07523	5.24
2.09190	5.23
2.10857	5.22
2.12523	5.21
2.14190	5.20
2.15857	5.19
2.17523	5.18
2.19190	5.18
2.20857	5.17
2.22523	5.16
2.24190	5.15
2.25857	5.14
2.27523	5.13
2.29190	5.12
2.30857	5.11
2.32523	5.10
2.34190	5.09
2.35857	5.08
2.37523	5.08
2.39190	5.08
2.40857	5.08
2.42523	5.08
2.44190	5.08
2.45857	5.08
2.47523	5.08
2.49190	5.08
2.50857	5.07
2.52523	5.07
2.54190	5.07
2.55857	5.07
2.57523	5.07
2.59190	5.07
2.60857	5.07
2.62523	5.07
2.64190	5.07
2.65857	5.07
2.67523	5.07
2.69190	5.07
2.70857	5.07
2.72523	5.07
2.74190	5.07
2.75857	5.07
2.77523	5.07
2.79190	5.07
2.80857	5.07
2.82523	5.07
2.84190	5.07
2.85857	5.07
2.87523	5.07
2.89190	5.07
2.90857	5.07
2.92523	5.07
2.94190	5.07
2.95857	5.07
2.97523	5.07
2.99190	5.07
3.00857	5.07
3.02523	5.07
3.04190	5.07
3.05857	5.07
3.07523	5.07
3.09190	5.07
3.10857	5.07
3.12523	5.07
3.14190	5.07
3.15857	5.07
3.17523	5.07
3.19190	5.07
3.20857	5.07
3.22523	5.07
3.24190	5.07
3.25857	5.07
3.27523	5.07
3.29190	5.07
3.30857	5.07
3.32523	5.07
3.34190	5.07
3.35857	5.07
3.37523	5.07
3.39190	5.07
3.40857	5.07
3.42523	5.07
3.44190	5.07
3.45857	5.07
3.47523	5.07
3.49190	5.07
3.50857	5.07
3.52523	5.07
3.54190	5.07
3.55857	5.07
3.57523	5.07
3.59190	5.07
3.60857	5.07
3.62523	5.07
3.64190	5.07
3.65857	5.07
3.67523	5.07
3.69190	5.07
3.70857	5.07
3.72523	5.07
3.74190	5.07
3.75857	5.07
3.77523	5.07
3.79190	5.07
3.80857	5.07
3.82523	5.07
3.84190	5.07
3.85857	5.07
3.87523	5.07
3.89190	5.07
3.90857	5.07
3.92523	5.07
3.94190	5.07
3.95857	5.07
3.97523	5.07
3.99190	5.07

[Status Trace (Linear Velocity)]
Interval(msec)	1000
# of Points	240
Start Time(min)	0.009
End Time(min)	3.992
Intensity Units	
Intensity Multiplier	1
R.Time (min)	Intensity
0.00857	39.01
0.02523	37.23
0.04190	38.42
0.05857	39.83
0.07523	39.94
0.09190	39.06
0.10857	39.00
0.12523	39.02
0.14190	39.02
0.15857	39.02
0.17523	39.02
0.19190	39.02
0.20857	39.02
0.22523	39.02
0.24190	39.02
0.25857	39.02
0.27523	39.02
0.29190	39.01
0.30857	39.01
0.32523	39.02
0.34190	39.01
0.35857	39.01
0.37523	39.01
0.39190	39.01
0.40857	39.01
0.42523	39.01
0.44190	39.01
0.45857	39.02
0.47523	39.01
0.49190	39.01
0.50857	39.01
0.52523	39.01
0.54190	39.01
0.55857	39.01
0.57523	39.02
0.59190	39.02
0.60857	39.02
0.62523	39.02
0.64190	39.01
0.65857	39.01
0.67523	39.01
0.69190	39.01
0.70857	39.01
0.72523	39.01
0.74190	39.02
0.75857	39.02
0.77523	39.02
0.79190	39.02
0.80857	39.01
0.82523	39.01
0.84190	39.01
0.85857	39.01
0.87523	39.01
0.89190	39.01
0.90857	39.01
0.92523	39.01
0.94190	39.01
0.95857	39.01
0.97523	39.01
0.99190	39.01
1.00857	39.02
1.02523	39.02
1.04190	39.02
1.05857	39.02
1.07523	39.02
1.09190	39.02
1.10857	39.01
1.12523	39.01
1.14190	39.01
1.15857	39.01
1.17523	39.01
1.19190	39.01
1.20857	39.01
1.22523	39.01
1.24190	39.01
1.25857	39.01
1.27523	39.01
1.29190	39.01
1.30857	39.01
1.32523	39.01
1.34190	39.01
1.35857	39.01
1.37523	39.01
1.39190	39.01
1.40857	39.01
1.42523	39.01
1.44190	39.01
1.45857	39.01
1.47523	39.01
1.49190	39.01
1.50857	39.02
1.52523	39.01
1.54190	39.02
1.55857	39.01
1.57523	39.02
1.59190	39.01
1.60857	39.01
1.62523	39.00
1.64190	38.98
1.65857	38.96
1.67523	38.93
1.69190	38.89
1.70857	38.85
1.72523	38.82
1.74190	38.79
1.75857	38.76
1.77523	38.73
1.79190	38.70
1.80857	38.67
1.82523	38.63
1.84190	38.60
1.85857	38.57
1.87523	38.54
1.89190	38.51
1.90857	38.48
1.92523	38.45
1.94190	38.42
1.95857	38.39
1.97523	38.36
1.99190	38.33
2.00857	38.30
2.02523	38.27
2.04190	38.24
2.05857	38.21
2.07523	38.18
2.09190	38.15
2.10857	38.12
2.12523	38.09
2.14190	38.06
2.15857	38.03
2.17523	38.00
2.19190	37.97
2.20857	37.94
2.22523	37.91
2.24190	37.88
2.25857	37.85
2.27523	37.82
2.29190	37.80
2.30857	37.76
2.32523	37.73
2.34190	37.71
2.35857	37.68
2.37523	37.66
2.39190	37.65
2.40857	37.65
2.42523	37.66
2.44190	37.65
2.45857	37.65
2.47523	37.65
2.49190	37.65
2.50857	37.65
2.52523	37.64
2.54190	37.65
2.55857	37.65
2.57523	37.65
2.59190	37.65
2.60857	37.65
2.62523	37.64
2.64190	37.65
2.65857	37.65
2.67523	37.65
2.69190	37.64
2.70857	37.64
2.72523	37.64
2.74190	37.64
2.75857	37.64
2.77523	37.64
2.79190	37.64
2.80857	37.64
2.82523	37.64
2.84190	37.64
2.85857	37.64
2.87523	37.64
2.89190	37.64
2.90857	37.64
2.92523	37.64
2.94190	37.64
2.95857	37.64
2.97523	37.63
2.99190	37.63
3.00857	37.63
3.02523	37.63
3.04190	37.63
3.05857	37.63
3.07523	37.63
3.09190	37.63
3.10857	37.63
3.12523	37.63
3.14190	37.63
3.15857	37.63
3.17523	37.63
3.19190	37.63
3.20857	37.63
3.22523	37.62
3.24190	37.62
3.25857	37.62
3.27523	37.62
3.29190	37.62
3.30857	37.62
3.32523	37.62
3.34190	37.62
3.35857	37.62
3.37523	37.62
3.39190	37.62
3.40857	37.62
3.42523	37.62
3.44190	37.62
3.45857	37.62
3.47523	37.62
3.49190	37.62
3.50857	37.62
3.52523	37.62
3.54190	37.62
3.55857	37.62
3.57523	37.62
3.59190	37.62
3.60857	37.62
3.62523	37.62
3.64190	37.62
3.65857	37.62
3.67523	37.62
3.69190	37.62
3.70857	37.62
3.72523	37.62
3.74190	37.62
3.75857	37.62
3.77523	37.62
3.79190	37.63
3.80857	37.63
3.82523	37.63
3.84190	37.63
3.85857	37.63
3.87523	37.63
3.89190	37.63
3.90857	37.63
3.92523	37.63
3.94190	37.63
3.95857	37.63
3.97523	37.63
3.99190	37.63

