[Header]
Application Name	LabSolutions
Version	5.110
Data File Name	C:\Users\User\Desktop\GC Analyses\Jack\UIC Prairie Sampling\9.30.22\220930_065.gcd
Output Date	1/4/2023
Output Time	2:27:56 PM

[File Information]
Type	Data File
Generated	12/1/2022 3:05:19 PM
Generated by	System Administrator
Modified	12/1/2022 3:09:41 PM
Modified by	System Administrator

[Sample Information]
Operator Name	System Administrator
Acquired	12/1/2022 3:05:39 PM
Sample Type	1:Standard
Level	1
Sample Name	220930_UICPrairie
Sample ID	220930_UICPrairie
ISTD Amount1	1
ISTD Amount2	1
ISTD Amount3	1
ISTD Amount4	1
ISTD Amount5	1
ISTD Amount6	1
ISTD Amount7	1
ISTD Amount8	1
ISTD Amount9	1
ISTD Amount10	1
ISTD Amount11	1
ISTD Amount12	1
ISTD Amount13	1
ISTD Amount14	1
ISTD Amount15	1
ISTD Amount16	1
ISTD Amount17	1
ISTD Amount18	1
ISTD Amount19	1
ISTD Amount20	1
ISTD Amount21	1
ISTD Amount22	1
ISTD Amount23	1
ISTD Amount24	1
ISTD Amount25	1
ISTD Amount26	1
ISTD Amount27	1
ISTD Amount28	1
ISTD Amount29	1
ISTD Amount30	1
ISTD Amount31	1
ISTD Amount32	1
Sample Amount	1
Dilution Factor	1
Vial#	1
Injection Volume	1
Injection Count	1
Bar Code	

[Original Files]
Data File	C:\Users\User\Desktop\GC Analyses\Jack\UIC Prairie Sampling\9.30.22\220930_065.gcd
Method File	C:\LabSolutions\Data\GHG_4min_2022\ghg3_togas_w_acet_4 min_new_int.gcm
Batch File	
Report Format File	c:\LabSolutions\System\DEFAULT.lsr

[File Description]


[Configuration]
Instrument Name	C0B7VH3-Instrument1
Instrument #	1
Line #	1
# of Detectors	3
Detector ID	DET#1	DET#2	DET#3
Detector Name	FID	PTCD	ECD
# of Channels	1	1	1

[Peak Table(Ch1)]
# of Peaks	3
Peak#	R.Time	I.Time	F.Time	Area	Height	A/H	Conc.	Mark	ID#	Name	k'	Plate #	Plate Ht.	Tailing	Resolution	Sep.Factor	Area Ratio	Height Ratio	Conc. %	Norm Conc.
1	1.479	1.439	1.538	14652	6557	2.234	100.000	   	1	CO	0.000	8417	17.822	1.194	0.000	0.000	0	0	16.667	16.667
2	1.571	1.538	1.626	4620	2277	2.029	100.000	 V 	2	CH4	0.062	10890	13.774	0.000	1.470	0.000	0	0	16.667	16.667
3	2.000	1.952	2.565	1731138	818121	2.116	400.000	   	3	CO2	0.352	17294	8.674	1.203	7.088	5.680	0	0	66.667	66.667

[Peak Table(Ch2)]
# of Peaks	0

[Peak Table(Ch3)]
# of Peaks	5
Peak#	R.Time	I.Time	F.Time	Area	Height	A/H	Conc.	Mark	ID#	Name	k'	Plate #	Plate Ht.	Tailing	Resolution	Sep.Factor	Area Ratio	Height Ratio	Conc. %	Norm Conc.
1	0.966	0.497	1.190	420	19	22.155	0.000	   			0.000	1467	102.248	0.737	0.000	0.000	0	0	0.000	0.000
2	2.458	2.363	2.499	1138	325	3.506	0.000	   			1.545	6984	21.478	0.000	13.657	0.000	0	0	0.000	0.000
3	2.521	2.499	2.550	684	246	2.783	0.000	 V 			1.609	1712	87.606	0.000	0.345	1.042	0	0	0.000	0.000
4	2.605	2.550	2.656	1209	288	4.200	0.000	 V 			1.697	4702	31.905	0.000	0.426	1.054	0	0	0.000	0.000
5	2.887	2.814	3.910	44964	5857	7.678	1.000	   	1	N2O	1.989	11251	13.332	6.592	2.165	1.172	0	0	100.000	100.000

[Compound Results(Ch1)]
# of IDs	6
ID#	Name	R.Time	Area	Height	Conc.	Curve	3rd	2nd	1st	Constant	Area Ratio	Height Ratio	Conc. %	Norm Conc.
1	CO	1.479	14652	6557	100.000	Linear	0.000000e+00	0.000000e+00	1.465158e+002	0.000000e+00	0	0	16.667	16.667
2	CH4	1.571	4620	2277	100.000	Linear	0.000000e+00	0.000000e+00	4.620386e+001	0.000000e+00	0	0	16.667	16.667
3	CO2	2.000	1731138	818121	400.000	Linear	0.000000e+00	0.000000e+00	4.327844e+003	0.000000e+00	0	0	66.667	66.667
4	Ethylene	0.000	0	0	0.000	Linear	0.000000e+00	0.000000e+00	0.000000e+00	0.000000e+00	0	0	0.000	0.000
5	Acetylene	0.000	0	0	0.000	Linear	0.000000e+00	0.000000e+00	0.000000e+00	0.000000e+00	0	0	0.000	0.000
6	Ethane	0.000	0	0	0.000	Linear	0.000000e+00	0.000000e+00	0.000000e+00	0.000000e+00	0	0	0.000	0.000

[Compound Results(Ch2)]
# of IDs	5
ID#	Name	R.Time	Area	Height	Conc.	Curve	3rd	2nd	1st	Constant	Area Ratio	Height Ratio	Conc. %	Norm Conc.
1	Hydrogen	0.000	0	0	0.000	Linear	0.000000e+00	0.000000e+00	0.000000e+00	0.000000e+00	0	0	0.000	0.000
2	Oxygen	0.000	0	0	0.000	Linear	0.000000e+00	0.000000e+00	0.000000e+00	0.000000e+00	0	0	0.000	0.000
3	Nitrogen	0.000	0	0	0.000	Linear	0.000000e+00	0.000000e+00	0.000000e+00	0.000000e+00	0	0	0.000	0.000
4	Methane	0.000	0	0	0.000	Linear	0.000000e+00	0.000000e+00	0.000000e+00	0.000000e+00	0	0	0.000	0.000
5	Carbon Monoxide	0.000	0	0	0.000	Linear	0.000000e+00	0.000000e+00	0.000000e+00	0.000000e+00	0	0	0.000	0.000

[Compound Results(Ch3)]
# of IDs	2
ID#	Name	R.Time	Area	Height	Conc.	Curve	3rd	2nd	1st	Constant	Area Ratio	Height Ratio	Conc. %	Norm Conc.
1	N2O	2.887	44964	5857	1.000	Linear	0.000000e+00	0.000000e+00	4.496399e+004	0.000000e+00	0	0	100.000	100.000
2	SF6	0.000	0	0	0.000	Linear	0.000000e+00	0.000000e+00	0.000000e+00	0.000000e+00	0	0	0.000	0.000

[Group Results(Ch1)]
# of Groups	0

[Group Results(Ch2)]
# of Groups	0

[Group Results(Ch3)]
# of Groups	0

[Chromatogram (Ch1)]
Interval(msec)	220
# of Points	1091
Start Time(min)	0.002
End Time(min)	3.998
R.Time (min)	Intensity
0.00167	-17
0.00533	-10
0.00900	-3
0.01267	2
0.01633	5
0.02000	6
0.02367	7
0.02733	5
0.03100	1
0.03467	-4
0.03833	-8
0.04200	-11
0.04567	-15
0.04933	-19
0.05300	-21
0.05667	-21
0.06033	-24
0.06400	-27
0.06767	-28
0.07133	-28
0.07500	-26
0.07867	-27
0.08233	-29
0.08600	-27
0.08967	-19
0.09333	-10
0.09700	-2
0.10067	1
0.10433	-1
0.10800	-7
0.11167	-13
0.11533	-16
0.11900	-18
0.12267	-20
0.12633	-24
0.13000	-29
0.13367	-33
0.13733	-30
0.14100	-26
0.14467	-28
0.14833	-35
0.15200	-40
0.15567	-43
0.15933	-42
0.16300	-39
0.16667	-37
0.17033	-37
0.17400	-40
0.17767	-43
0.18133	-45
0.18500	-42
0.18867	-35
0.19233	-27
0.19600	-20
0.19967	-20
0.20333	-20
0.20700	-21
0.21067	-23
0.21433	-25
0.21800	-27
0.22167	-28
0.22533	-28
0.22900	-24
0.23267	-22
0.23633	-25
0.24000	-30
0.24367	-34
0.24733	-34
0.25100	-34
0.25467	-34
0.25833	-35
0.26200	-37
0.26567	-36
0.26933	-33
0.27300	-31
0.27667	-32
0.28033	-34
0.28400	-34
0.28767	-33
0.29133	-31
0.29500	-29
0.29867	-28
0.30233	-29
0.30600	-32
0.30967	-34
0.31333	-36
0.31700	-36
0.32067	-31
0.32433	-26
0.32800	-22
0.33167	-23
0.33533	-26
0.33900	-23
0.34267	-19
0.34633	-20
0.35000	-24
0.35367	-33
0.35733	-40
0.36100	-43
0.36467	-44
0.36833	-46
0.37200	-46
0.37567	-44
0.37933	-43
0.38300	-47
0.38667	-56
0.39033	-64
0.39400	-67
0.39767	-63
0.40133	-59
0.40500	-55
0.40867	-52
0.41233	-50
0.41600	-52
0.41967	-59
0.42333	-64
0.42700	-63
0.43067	-60
0.43433	-58
0.43800	-55
0.44167	-52
0.44533	-50
0.44900	-52
0.45267	-55
0.45633	-58
0.46000	-58
0.46367	-56
0.46733	-56
0.47100	-57
0.47467	-60
0.47833	-63
0.48200	-66
0.48567	-70
0.48933	-71
0.49300	-66
0.49667	-59
0.50033	-51
0.50400	-49
0.50767	-57
0.51133	-69
0.51500	-72
0.51867	-76
0.52233	-80
0.52600	-79
0.52967	-76
0.53333	-73
0.53700	-67
0.54067	-59
0.54433	-56
0.54800	-57
0.55167	-61
0.55533	-62
0.55900	-58
0.56267	-54
0.56633	-51
0.57000	-53
0.57367	-58
0.57733	-63
0.58100	-70
0.58467	-78
0.58833	-85
0.59200	-86
0.59567	-85
0.59933	-81
0.60300	-74
0.60667	-67
0.61033	-64
0.61400	-64
0.61767	-66
0.62133	-69
0.62500	-72
0.62867	-75
0.63233	-78
0.63600	-82
0.63967	-85
0.64333	-88
0.64700	-90
0.65067	-91
0.65433	-89
0.65800	-86
0.66167	-86
0.66533	-88
0.66900	-86
0.67267	-83
0.67633	-79
0.68000	-76
0.68367	-73
0.68733	-71
0.69100	-72
0.69467	-77
0.69833	-80
0.70200	-83
0.70567	-87
0.70933	-94
0.71300	-103
0.71667	-107
0.72033	-108
0.72400	-108
0.72767	-106
0.73133	-104
0.73500	-104
0.73867	-101
0.74233	-94
0.74600	-86
0.74967	-81
0.75333	-83
0.75700	-90
0.76067	-94
0.76433	-95
0.76800	-95
0.77167	-92
0.77533	-90
0.77900	-87
0.78267	-83
0.78633	-77
0.79000	-70
0.79367	-68
0.79733	-73
0.80100	-83
0.80467	-93
0.80833	-103
0.81200	-109
0.81567	-109
0.81933	-106
0.82300	-101
0.82667	-93
0.83033	-85
0.83400	-77
0.83767	-74
0.84133	-76
0.84500	-82
0.84867	-86
0.85233	-87
0.85600	-86
0.85967	-86
0.86333	-84
0.86700	-82
0.87067	-81
0.87433	-80
0.87800	-82
0.88167	-86
0.88533	-90
0.88900	-92
0.89267	-91
0.89633	-89
0.90000	-89
0.90367	-90
0.90733	-94
0.91100	-97
0.91467	-97
0.91833	-97
0.92200	-100
0.92567	-105
0.92933	-111
0.93300	-116
0.93667	-120
0.94033	-122
0.94400	-123
0.94767	-121
0.95133	-115
0.95500	-107
0.95867	-101
0.96233	-96
0.96600	-96
0.96967	-101
0.97333	-107
0.97700	-113
0.98067	-117
0.98433	-117
0.98800	-114
0.99167	-109
0.99533	-102
0.99900	-92
1.00267	-84
1.00633	-84
1.01000	-91
1.01367	-102
1.01733	-111
1.02100	-115
1.02467	-118
1.02833	-117
1.03200	-112
1.03567	-106
1.03933	-100
1.04300	-95
1.04667	-93
1.05033	-95
1.05400	-99
1.05767	-104
1.06133	-110
1.06500	-114
1.06867	-112
1.07233	-107
1.07600	-103
1.07967	-101
1.08333	-99
1.08700	-98
1.09067	-98
1.09433	-97
1.09800	-98
1.10167	-101
1.10533	-107
1.10900	-112
1.11267	-114
1.11633	-118
1.12000	-124
1.12367	-132
1.12733	-139
1.13100	-145
1.13467	-145
1.13833	-139
1.14200	-130
1.14567	-121
1.14933	-113
1.15300	-109
1.15667	-114
1.16033	-120
1.16400	-124
1.16767	-126
1.17133	-127
1.17500	-124
1.17867	-119
1.18233	-117
1.18600	-117
1.18967	-117
1.19333	-117
1.19700	-119
1.20067	-120
1.20433	-119
1.20800	-118
1.21167	-117
1.21533	-118
1.21900	-118
1.22267	-121
1.22633	-125
1.23000	-129
1.23367	-128
1.23733	-127
1.24100	-126
1.24467	-127
1.24833	-128
1.25200	-127
1.25567	-126
1.25933	-127
1.26300	-131
1.26667	-134
1.27033	-135
1.27400	-134
1.27767	-131
1.28133	-126
1.28500	-118
1.28867	-111
1.29233	-108
1.29600	-113
1.29967	-124
1.30333	-135
1.30700	-139
1.31067	-136
1.31433	-131
1.31800	-131
1.32167	-133
1.32533	-135
1.32900	-135
1.33267	-136
1.33633	-135
1.34000	-133
1.34367	-133
1.34733	-137
1.35100	-139
1.35467	-142
1.35833	-144
1.36200	-143
1.36567	-136
1.36933	-130
1.37300	-128
1.37667	-131
1.38033	-134
1.38400	-136
1.38767	-138
1.39133	-137
1.39500	-135
1.39867	-134
1.40233	-134
1.40600	-130
1.40967	-124
1.41333	-121
1.41700	-122
1.42067	-125
1.42433	-130
1.42800	-136
1.43167	-141
1.43533	-147
1.43900	-143
1.44267	-83
1.44633	90
1.45000	409
1.45367	989
1.45733	1929
1.46100	3105
1.46467	4273
1.46833	5255
1.47200	5973
1.47567	6379
1.47933	6420
1.48300	6071
1.48667	5374
1.49033	4462
1.49400	3507
1.49767	2642
1.50133	1930
1.50500	1377
1.50867	968
1.51233	672
1.51600	460
1.51967	310
1.52333	202
1.52700	127
1.53067	81
1.53433	55
1.53800	41
1.54167	57
1.54533	166
1.54900	421
1.55267	804
1.55633	1233
1.56000	1623
1.56367	1921
1.56733	2106
1.57100	2153
1.57467	2039
1.57833	1780
1.58200	1429
1.58567	1060
1.58933	731
1.59300	467
1.59667	269
1.60033	134
1.60400	47
1.60767	-10
1.61133	-50
1.61500	-79
1.61867	-100
1.62233	-113
1.62600	-117
1.62967	-120
1.63333	-125
1.63700	-129
1.64067	-134
1.64433	-137
1.64800	-138
1.65167	-142
1.65533	-146
1.65900	-150
1.66267	-152
1.66633	-153
1.67000	-151
1.67367	-148
1.67733	-147
1.68100	-150
1.68467	-155
1.68833	-158
1.69200	-160
1.69567	-157
1.69933	-153
1.70300	-153
1.70667	-155
1.71033	-157
1.71400	-157
1.71767	-155
1.72133	-154
1.72500	-157
1.72867	-162
1.73233	-165
1.73600	-168
1.73967	-170
1.74333	-171
1.74700	-172
1.75067	-172
1.75433	-172
1.75800	-173
1.76167	-174
1.76533	-171
1.76900	-163
1.77267	-156
1.77633	-152
1.78000	-151
1.78367	-150
1.78733	-149
1.79100	-148
1.79467	-153
1.79833	-160
1.80200	-162
1.80567	-156
1.80933	-149
1.81300	-144
1.81667	-141
1.82033	-144
1.82400	-149
1.82767	-154
1.83133	-158
1.83500	-158
1.83867	-158
1.84233	-163
1.84600	-170
1.84967	-181
1.85333	-192
1.85700	-196
1.86067	-197
1.86433	-196
1.86800	-192
1.87167	-190
1.87533	-187
1.87900	-183
1.88267	-177
1.88633	-171
1.89000	-167
1.89367	-165
1.89733	-165
1.90100	-162
1.90467	-157
1.90833	-154
1.91200	-156
1.91567	-158
1.91933	-159
1.92300	-160
1.92667	-160
1.93033	-161
1.93400	-157
1.93767	-152
1.94133	-152
1.94500	-156
1.94867	-159
1.95233	-156
1.95600	-89
1.95967	344
1.96333	2493
1.96700	10677
1.97067	34603
1.97433	88823
1.97800	184741
1.98167	319602
1.98533	474052
1.98900	621422
1.99267	737821
1.99633	806104
2.00000	817988
2.00367	774151
2.00733	685112
2.01100	569392
2.01467	447594
2.01833	336041
2.02200	243660
2.02567	172565
2.02933	120644
2.03300	84072
2.03667	58908
2.04033	41821
2.04400	30283
2.04767	22478
2.05133	17157
2.05500	13484
2.05867	10904
2.06233	9050
2.06600	7684
2.06967	6652
2.07333	5851
2.07700	5217
2.08067	4707
2.08433	4285
2.08800	3928
2.09167	3621
2.09533	3353
2.09900	3120
2.10267	2914
2.10633	2735
2.11000	2579
2.11367	2439
2.11733	2310
2.12100	2193
2.12467	2086
2.12833	1987
2.13200	1899
2.13567	1818
2.13933	1741
2.14300	1671
2.14667	1605
2.15033	1541
2.15400	1476
2.15767	1414
2.16133	1354
2.16500	1299
2.16867	1251
2.17233	1211
2.17600	1170
2.17967	1125
2.18333	1083
2.18700	1049
2.19067	1024
2.19433	1001
2.19800	975
2.20167	950
2.20533	924
2.20900	895
2.21267	868
2.21633	848
2.22000	833
2.22367	817
2.22733	796
2.23100	771
2.23467	744
2.23833	717
2.24200	695
2.24567	677
2.24933	664
2.25300	649
2.25667	628
2.26033	602
2.26400	578
2.26767	563
2.27133	554
2.27500	544
2.27867	531
2.28233	517
2.28600	510
2.28967	506
2.29333	501
2.29700	495
2.30067	487
2.30433	478
2.30800	470
2.31167	460
2.31533	449
2.31900	439
2.32267	429
2.32633	419
2.33000	408
2.33367	397
2.33733	388
2.34100	381
2.34467	377
2.34833	375
2.35200	378
2.35567	384
2.35933	387
2.36300	385
2.36667	375
2.37033	362
2.37400	348
2.37767	335
2.38133	321
2.38500	310
2.38867	300
2.39233	292
2.39600	286
2.39967	284
2.40333	284
2.40700	282
2.41067	278
2.41433	274
2.41800	267
2.42167	259
2.42533	251
2.42900	244
2.43267	240
2.43633	240
2.44000	242
2.44367	245
2.44733	243
2.45100	236
2.45467	226
2.45833	218
2.46200	212
2.46567	207
2.46933	203
2.47300	199
2.47667	197
2.48033	197
2.48400	196
2.48767	192
2.49133	189
2.49500	188
2.49867	186
2.50233	183
2.50600	182
2.50967	182
2.51333	178
2.51700	174
2.52067	173
2.52433	171
2.52800	169
2.53167	167
2.53533	165
2.53900	165
2.54267	165
2.54633	160
2.55000	154
2.55367	150
2.55733	146
2.56100	144
2.56467	139
2.56833	132
2.57200	125
2.57567	121
2.57933	122
2.58300	126
2.58667	128
2.59033	128
2.59400	130
2.59767	136
2.60133	141
2.60500	144
2.60867	142
2.61233	136
2.61600	128
2.61967	120
2.62333	116
2.62700	114
2.63067	112
2.63433	104
2.63800	92
2.64167	82
2.64533	80
2.64900	83
2.65267	87
2.65633	91
2.66000	94
2.66367	95
2.66733	93
2.67100	88
2.67467	82
2.67833	79
2.68200	75
2.68567	72
2.68933	71
2.69300	70
2.69667	69
2.70033	69
2.70400	70
2.70767	69
2.71133	68
2.71500	66
2.71867	64
2.72233	65
2.72600	67
2.72967	68
2.73333	67
2.73700	68
2.74067	68
2.74433	68
2.74800	68
2.75167	66
2.75533	63
2.75900	62
2.76267	58
2.76633	50
2.77000	43
2.77367	39
2.77733	39
2.78100	44
2.78467	47
2.78833	47
2.79200	47
2.79567	51
2.79933	56
2.80300	58
2.80667	56
2.81033	49
2.81400	39
2.81767	31
2.82133	28
2.82500	29
2.82867	32
2.83233	34
2.83600	40
2.83967	46
2.84333	51
2.84700	56
2.85067	57
2.85433	53
2.85800	41
2.86167	30
2.86533	23
2.86900	21
2.87267	23
2.87633	27
2.88000	29
2.88367	28
2.88733	23
2.89100	18
2.89467	15
2.89833	15
2.90200	14
2.90567	15
2.90933	18
2.91300	24
2.91667	32
2.92033	34
2.92400	32
2.92767	24
2.93133	12
2.93500	3
2.93867	-4
2.94233	-10
2.94600	-14
2.94967	-17
2.95333	-15
2.95700	-7
2.96067	4
2.96433	13
2.96800	18
2.97167	21
2.97533	20
2.97900	18
2.98267	15
2.98633	13
2.99000	14
2.99367	17
2.99733	21
3.00100	24
3.00467	23
3.00833	19
3.01200	14
3.01567	6
3.01933	-3
3.02300	-12
3.02667	-15
3.03033	-17
3.03400	-18
3.03767	-18
3.04133	-17
3.04500	-12
3.04867	-7
3.05233	-2
3.05600	3
3.05967	6
3.06333	6
3.06700	1
3.07067	-5
3.07433	-9
3.07800	-13
3.08167	-15
3.08533	-13
3.08900	-5
3.09267	1
3.09633	3
3.10000	4
3.10367	3
3.10733	-3
3.11100	-13
3.11467	-21
3.11833	-24
3.12200	-29
3.12567	-37
3.12933	-41
3.13300	-40
3.13667	-36
3.14033	-32
3.14400	-27
3.14767	-20
3.15133	-16
3.15500	-18
3.15867	-25
3.16233	-32
3.16600	-37
3.16967	-42
3.17333	-44
3.17700	-47
3.18067	-50
3.18433	-48
3.18800	-45
3.19167	-39
3.19533	-31
3.19900	-25
3.20267	-20
3.20633	-14
3.21000	-9
3.21367	-11
3.21733	-15
3.22100	-15
3.22467	-20
3.22833	-24
3.23200	-22
3.23567	-19
3.23933	-22
3.24300	-32
3.24667	-41
3.25033	-46
3.25400	-43
3.25767	-36
3.26133	-32
3.26500	-31
3.26867	-30
3.27233	-33
3.27600	-37
3.27967	-39
3.28333	-40
3.28700	-43
3.29067	-43
3.29433	-38
3.29800	-33
3.30167	-32
3.30533	-33
3.30900	-34
3.31267	-35
3.31633	-34
3.32000	-34
3.32367	-35
3.32733	-37
3.33100	-37
3.33467	-36
3.33833	-34
3.34200	-31
3.34567	-27
3.34933	-22
3.35300	-17
3.35667	-19
3.36033	-26
3.36400	-34
3.36767	-39
3.37133	-44
3.37500	-48
3.37867	-52
3.38233	-57
3.38600	-59
3.38967	-56
3.39333	-53
3.39700	-54
3.40067	-55
3.40433	-53
3.40800	-51
3.41167	-49
3.41533	-50
3.41900	-50
3.42267	-47
3.42633	-46
3.43000	-47
3.43367	-52
3.43733	-58
3.44100	-62
3.44467	-62
3.44833	-58
3.45200	-52
3.45567	-47
3.45933	-49
3.46300	-50
3.46667	-51
3.47033	-51
3.47400	-51
3.47767	-51
3.48133	-54
3.48500	-53
3.48867	-50
3.49233	-48
3.49600	-50
3.49967	-51
3.50333	-50
3.50700	-50
3.51067	-51
3.51433	-51
3.51800	-48
3.52167	-46
3.52533	-45
3.52900	-46
3.53267	-46
3.53633	-49
3.54000	-53
3.54367	-58
3.54733	-67
3.55100	-75
3.55467	-78
3.55833	-76
3.56200	-71
3.56567	-67
3.56933	-66
3.57300	-70
3.57667	-76
3.58033	-81
3.58400	-81
3.58767	-77
3.59133	-74
3.59500	-68
3.59867	-61
3.60233	-55
3.60600	-53
3.60967	-56
3.61333	-62
3.61700	-67
3.62067	-68
3.62433	-64
3.62800	-59
3.63167	-52
3.63533	-49
3.63900	-52
3.64267	-57
3.64633	-65
3.65000	-73
3.65367	-79
3.65733	-82
3.66100	-81
3.66467	-79
3.66833	-78
3.67200	-74
3.67567	-70
3.67933	-64
3.68300	-59
3.68667	-57
3.69033	-59
3.69400	-62
3.69767	-69
3.70133	-75
3.70500	-82
3.70867	-85
3.71233	-88
3.71600	-87
3.71967	-83
3.72333	-82
3.72700	-82
3.73067	-81
3.73433	-77
3.73800	-71
3.74167	-67
3.74533	-66
3.74900	-63
3.75267	-61
3.75633	-67
3.76000	-70
3.76367	-70
3.76733	-71
3.77100	-71
3.77467	-72
3.77833	-73
3.78200	-75
3.78567	-73
3.78933	-71
3.79300	-70
3.79667	-73
3.80033	-77
3.80400	-80
3.80767	-79
3.81133	-76
3.81500	-75
3.81867	-78
3.82233	-79
3.82600	-79
3.82967	-77
3.83333	-75
3.83700	-70
3.84067	-63
3.84433	-59
3.84800	-60
3.85167	-65
3.85533	-69
3.85900	-75
3.86267	-85
3.86633	-92
3.87000	-94
3.87367	-91
3.87733	-86
3.88100	-85
3.88467	-90
3.88833	-94
3.89200	-97
3.89567	-97
3.89933	-97
3.90300	-97
3.90667	-98
3.91033	-97
3.91400	-93
3.91767	-89
3.92133	-84
3.92500	-79
3.92867	-74
3.93233	-74
3.93600	-78
3.93967	-81
3.94333	-84
3.94700	-90
3.95067	-95
3.95433	-97
3.95800	-94
3.96167	-92
3.96533	-93
3.96900	-94
3.97267	-97
3.97633	-99
3.98000	-93
3.98367	-83
3.98733	-75
3.99100	-74
3.99467	-78
3.99833	-84

[Chromatogram (Ch2)]
Interval(msec)	220
# of Points	1091
Start Time(min)	0.002
End Time(min)	3.998
R.Time (min)	Intensity
0.00167	-1
0.00533	-1
0.00900	-1
0.01267	-1
0.01633	-0
0.02000	-0
0.02367	-0
0.02733	0
0.03100	0
0.03467	1
0.03833	1
0.04200	1
0.04567	1
0.04933	1
0.05300	2
0.05667	2
0.06033	2
0.06400	2
0.06767	2
0.07133	2
0.07500	2
0.07867	2
0.08233	2
0.08600	2
0.08967	2
0.09333	2
0.09700	2
0.10067	2
0.10433	2
0.10800	2
0.11167	2
0.11533	2
0.11900	2
0.12267	3
0.12633	3
0.13000	3
0.13367	4
0.13733	4
0.14100	4
0.14467	5
0.14833	4
0.15200	4
0.15567	4
0.15933	4
0.16300	4
0.16667	4
0.17033	4
0.17400	4
0.17767	4
0.18133	4
0.18500	4
0.18867	4
0.19233	3
0.19600	3
0.19967	2
0.20333	2
0.20700	2
0.21067	1
0.21433	1
0.21800	1
0.22167	2
0.22533	2
0.22900	2
0.23267	2
0.23633	1
0.24000	1
0.24367	1
0.24733	1
0.25100	2
0.25467	2
0.25833	2
0.26200	2
0.26567	2
0.26933	2
0.27300	2
0.27667	2
0.28033	2
0.28400	2
0.28767	2
0.29133	3
0.29500	3
0.29867	3
0.30233	3
0.30600	2
0.30967	3
0.31333	3
0.31700	2
0.32067	2
0.32433	2
0.32800	2
0.33167	2
0.33533	2
0.33900	2
0.34267	1
0.34633	1
0.35000	1
0.35367	0
0.35733	0
0.36100	0
0.36467	0
0.36833	1
0.37200	1
0.37567	1
0.37933	1
0.38300	1
0.38667	1
0.39033	1
0.39400	1
0.39767	1
0.40133	1
0.40500	1
0.40867	1
0.41233	1
0.41600	0
0.41967	0
0.42333	1
0.42700	1
0.43067	1
0.43433	1
0.43800	1
0.44167	1
0.44533	1
0.44900	1
0.45267	1
0.45633	1
0.46000	1
0.46367	2
0.46733	2
0.47100	2
0.47467	2
0.47833	2
0.48200	2
0.48567	2
0.48933	1
0.49300	1
0.49667	1
0.50033	1
0.50400	1
0.50767	0
0.51133	0
0.51500	0
0.51867	-0
0.52233	-0
0.52600	-0
0.52967	-1
0.53333	-1
0.53700	-1
0.54067	-1
0.54433	-1
0.54800	-1
0.55167	-2
0.55533	-2
0.55900	-2
0.56267	-3
0.56633	-3
0.57000	-3
0.57367	-3
0.57733	-3
0.58100	-3
0.58467	-3
0.58833	-3
0.59200	-3
0.59567	-2
0.59933	-2
0.60300	-2
0.60667	-2
0.61033	-1
0.61400	-1
0.61767	-1
0.62133	-1
0.62500	-1
0.62867	-1
0.63233	-0
0.63600	0
0.63967	1
0.64333	1
0.64700	1
0.65067	1
0.65433	1
0.65800	2
0.66167	2
0.66533	2
0.66900	2
0.67267	2
0.67633	2
0.68000	2
0.68367	2
0.68733	2
0.69100	2
0.69467	2
0.69833	2
0.70200	2
0.70567	2
0.70933	2
0.71300	2
0.71667	1
0.72033	1
0.72400	1
0.72767	1
0.73133	1
0.73500	1
0.73867	1
0.74233	1
0.74600	1
0.74967	1
0.75333	1
0.75700	1
0.76067	0
0.76433	0
0.76800	0
0.77167	0
0.77533	0
0.77900	0
0.78267	-0
0.78633	-0
0.79000	-1
0.79367	-1
0.79733	-1
0.80100	-2
0.80467	-2
0.80833	-1
0.81200	-1
0.81567	-1
0.81933	-1
0.82300	-1
0.82667	-0
0.83033	-0
0.83400	0
0.83767	0
0.84133	1
0.84500	1
0.84867	1
0.85233	1
0.85600	2
0.85967	2
0.86333	2
0.86700	2
0.87067	2
0.87433	1
0.87800	1
0.88167	1
0.88533	1
0.88900	1
0.89267	1
0.89633	1
0.90000	1
0.90367	1
0.90733	1
0.91100	0
0.91467	1
0.91833	1
0.92200	1
0.92567	1
0.92933	1
0.93300	1
0.93667	1
0.94033	1
0.94400	1
0.94767	1
0.95133	1
0.95500	1
0.95867	0
0.96233	0
0.96600	-0
0.96967	-0
0.97333	-0
0.97700	-0
0.98067	-0
0.98433	-0
0.98800	-0
0.99167	-1
0.99533	-1
0.99900	-1
1.00267	-1
1.00633	-1
1.01000	-1
1.01367	-1
1.01733	-1
1.02100	-1
1.02467	-1
1.02833	-1
1.03200	-1
1.03567	-1
1.03933	-1
1.04300	-1
1.04667	-1
1.05033	-1
1.05400	-1
1.05767	-1
1.06133	-1
1.06500	-1
1.06867	-1
1.07233	-0
1.07600	-0
1.07967	-0
1.08333	-0
1.08700	-0
1.09067	-0
1.09433	-0
1.09800	-1
1.10167	-1
1.10533	-1
1.10900	-1
1.11267	-1
1.11633	-1
1.12000	-1
1.12367	-1
1.12733	-1
1.13100	-1
1.13467	-1
1.13833	-1
1.14200	-0
1.14567	-0
1.14933	-0
1.15300	-0
1.15667	0
1.16033	0
1.16400	0
1.16767	0
1.17133	0
1.17500	0
1.17867	0
1.18233	0
1.18600	0
1.18967	0
1.19333	-0
1.19700	-0
1.20067	-0
1.20433	-0
1.20800	-1
1.21167	-1
1.21533	-1
1.21900	-1
1.22267	-1
1.22633	-1
1.23000	-1
1.23367	-1
1.23733	-1
1.24100	-1
1.24467	-1
1.24833	-1
1.25200	-1
1.25567	-1
1.25933	-1
1.26300	-1
1.26667	-1
1.27033	-1
1.27400	-1
1.27767	-2
1.28133	-2
1.28500	-2
1.28867	-2
1.29233	-2
1.29600	-2
1.29967	-2
1.30333	-2
1.30700	-1
1.31067	-1
1.31433	-1
1.31800	-1
1.32167	-1
1.32533	-1
1.32900	-1
1.33267	-1
1.33633	-1
1.34000	-1
1.34367	-1
1.34733	-1
1.35100	-1
1.35467	-1
1.35833	-1
1.36200	-1
1.36567	-1
1.36933	-1
1.37300	-1
1.37667	-1
1.38033	-2
1.38400	-2
1.38767	-2
1.39133	-2
1.39500	-3
1.39867	-3
1.40233	-2
1.40600	-2
1.40967	-2
1.41333	-2
1.41700	-2
1.42067	-1
1.42433	-1
1.42800	-1
1.43167	-2
1.43533	-1
1.43900	-1
1.44267	-1
1.44633	-1
1.45000	-1
1.45367	-1
1.45733	-1
1.46100	-1
1.46467	-1
1.46833	-1
1.47200	-1
1.47567	-1
1.47933	-1
1.48300	-1
1.48667	-1
1.49033	-1
1.49400	-1
1.49767	-1
1.50133	-1
1.50500	-1
1.50867	-1
1.51233	-1
1.51600	-0
1.51967	-0
1.52333	-0
1.52700	-0
1.53067	0
1.53433	0
1.53800	0
1.54167	0
1.54533	0
1.54900	-0
1.55267	-0
1.55633	-0
1.56000	-0
1.56367	-0
1.56733	-0
1.57100	-0
1.57467	-0
1.57833	-1
1.58200	-1
1.58567	-1
1.58933	-1
1.59300	-2
1.59667	-2
1.60033	-3
1.60400	-4
1.60767	-6
1.61133	-7
1.61500	-9
1.61867	-12
1.62233	-14
1.62600	-17
1.62967	-20
1.63333	-23
1.63700	-27
1.64067	-31
1.64433	-35
1.64800	-38
1.65167	-42
1.65533	-46
1.65900	-50
1.66267	-54
1.66633	-58
1.67000	-63
1.67367	-68
1.67733	-74
1.68100	-79
1.68467	-85
1.68833	-90
1.69200	-94
1.69567	-98
1.69933	-101
1.70300	-104
1.70667	-106
1.71033	-108
1.71400	-109
1.71767	-110
1.72133	-110
1.72500	-111
1.72867	-111
1.73233	-111
1.73600	-111
1.73967	-111
1.74333	-110
1.74700	-111
1.75067	-111
1.75433	-112
1.75800	-113
1.76167	-114
1.76533	-115
1.76900	-116
1.77267	-117
1.77633	-117
1.78000	-118
1.78367	-118
1.78733	-118
1.79100	-118
1.79467	-118
1.79833	-118
1.80200	-119
1.80567	-119
1.80933	-119
1.81300	-119
1.81667	-120
1.82033	-120
1.82400	-120
1.82767	-121
1.83133	-121
1.83500	-122
1.83867	-122
1.84233	-122
1.84600	-121
1.84967	-120
1.85333	-120
1.85700	-119
1.86067	-118
1.86433	-118
1.86800	-118
1.87167	-118
1.87533	-118
1.87900	-118
1.88267	-118
1.88633	-118
1.89000	-119
1.89367	-119
1.89733	-119
1.90100	-120
1.90467	-120
1.90833	-120
1.91200	-119
1.91567	-119
1.91933	-120
1.92300	-120
1.92667	-119
1.93033	-119
1.93400	-119
1.93767	-118
1.94133	-118
1.94500	-117
1.94867	-116
1.95233	-116
1.95600	-116
1.95967	-115
1.96333	-115
1.96700	-114
1.97067	-114
1.97433	-114
1.97800	-114
1.98167	-114
1.98533	-114
1.98900	-114
1.99267	-114
1.99633	-114
2.00000	-114
2.00367	-113
2.00733	-113
2.01100	-112
2.01467	-112
2.01833	-111
2.02200	-111
2.02567	-111
2.02933	-110
2.03300	-110
2.03667	-110
2.04033	-110
2.04400	-110
2.04767	-110
2.05133	-110
2.05500	-110
2.05867	-109
2.06233	-109
2.06600	-109
2.06967	-109
2.07333	-109
2.07700	-109
2.08067	-110
2.08433	-109
2.08800	-109
2.09167	-108
2.09533	-107
2.09900	-106
2.10267	-106
2.10633	-105
2.11000	-104
2.11367	-103
2.11733	-102
2.12100	-101
2.12467	-101
2.12833	-101
2.13200	-101
2.13567	-101
2.13933	-101
2.14300	-101
2.14667	-100
2.15033	-100
2.15400	-100
2.15767	-99
2.16133	-99
2.16500	-99
2.16867	-98
2.17233	-98
2.17600	-97
2.17967	-97
2.18333	-96
2.18700	-96
2.19067	-96
2.19433	-96
2.19800	-96
2.20167	-96
2.20533	-96
2.20900	-96
2.21267	-96
2.21633	-95
2.22000	-94
2.22367	-94
2.22733	-93
2.23100	-92
2.23467	-92
2.23833	-92
2.24200	-92
2.24567	-92
2.24933	-92
2.25300	-92
2.25667	-91
2.26033	-91
2.26400	-91
2.26767	-90
2.27133	-90
2.27500	-89
2.27867	-88
2.28233	-88
2.28600	-87
2.28967	-88
2.29333	-88
2.29700	-89
2.30067	-89
2.30433	-89
2.30800	-88
2.31167	-88
2.31533	-87
2.31900	-86
2.32267	-85
2.32633	-84
2.33000	-83
2.33367	-82
2.33733	-82
2.34100	-82
2.34467	-82
2.34833	-82
2.35200	-82
2.35567	-82
2.35933	-81
2.36300	-80
2.36667	-79
2.37033	-78
2.37400	-76
2.37767	-73
2.38133	-70
2.38500	-66
2.38867	-63
2.39233	-59
2.39600	-55
2.39967	-50
2.40333	-46
2.40700	-42
2.41067	-38
2.41433	-34
2.41800	-30
2.42167	-26
2.42533	-23
2.42900	-20
2.43267	-18
2.43633	-15
2.44000	-13
2.44367	-10
2.44733	-8
2.45100	-6
2.45467	-4
2.45833	-3
2.46200	-1
2.46567	-1
2.46933	0
2.47300	1
2.47667	2
2.48033	3
2.48400	5
2.48767	6
2.49133	7
2.49500	8
2.49867	8
2.50233	9
2.50600	9
2.50967	10
2.51333	10
2.51700	11
2.52067	11
2.52433	11
2.52800	12
2.53167	12
2.53533	12
2.53900	12
2.54267	12
2.54633	13
2.55000	13
2.55367	14
2.55733	15
2.56100	16
2.56467	17
2.56833	18
2.57200	18
2.57567	18
2.57933	19
2.58300	19
2.58667	18
2.59033	18
2.59400	18
2.59767	18
2.60133	18
2.60500	19
2.60867	19
2.61233	19
2.61600	19
2.61967	20
2.62333	20
2.62700	20
2.63067	20
2.63433	20
2.63800	20
2.64167	20
2.64533	21
2.64900	21
2.65267	21
2.65633	21
2.66000	22
2.66367	22
2.66733	23
2.67100	24
2.67467	24
2.67833	24
2.68200	24
2.68567	24
2.68933	24
2.69300	24
2.69667	25
2.70033	25
2.70400	25
2.70767	26
2.71133	26
2.71500	27
2.71867	27
2.72233	28
2.72600	28
2.72967	28
2.73333	28
2.73700	28
2.74067	28
2.74433	27
2.74800	27
2.75167	27
2.75533	27
2.75900	26
2.76267	26
2.76633	26
2.77000	26
2.77367	26
2.77733	26
2.78100	27
2.78467	27
2.78833	28
2.79200	28
2.79567	29
2.79933	29
2.80300	30
2.80667	30
2.81033	30
2.81400	30
2.81767	30
2.82133	30
2.82500	30
2.82867	30
2.83233	30
2.83600	30
2.83967	30
2.84333	30
2.84700	30
2.85067	30
2.85433	30
2.85800	29
2.86167	26
2.86533	22
2.86900	15
2.87267	6
2.87633	-6
2.88000	-22
2.88367	-42
2.88733	-66
2.89100	-94
2.89467	-126
2.89833	-161
2.90200	-199
2.90567	-241
2.90933	-285
2.91300	-331
2.91667	-380
2.92033	-429
2.92400	-480
2.92767	-531
2.93133	-582
2.93500	-633
2.93867	-684
2.94233	-735
2.94600	-785
2.94967	-835
2.95333	-888
2.95700	-947
2.96067	-1009
2.96433	-1064
2.96800	-1102
2.97167	-1115
2.97533	-1102
2.97900	-1064
2.98267	-1007
2.98633	-937
2.99000	-859
2.99367	-779
2.99733	-698
3.00100	-620
3.00467	-546
3.00833	-478
3.01200	-416
3.01567	-361
3.01933	-311
3.02300	-267
3.02667	-228
3.03033	-194
3.03400	-165
3.03767	-139
3.04133	-117
3.04500	-98
3.04867	-81
3.05233	-67
3.05600	-55
3.05967	-45
3.06333	-36
3.06700	-28
3.07067	-22
3.07433	-17
3.07800	-12
3.08167	-8
3.08533	-4
3.08900	-1
3.09267	1
3.09633	4
3.10000	6
3.10367	7
3.10733	9
3.11100	10
3.11467	11
3.11833	12
3.12200	13
3.12567	14
3.12933	14
3.13300	15
3.13667	15
3.14033	16
3.14400	16
3.14767	17
3.15133	17
3.15500	18
3.15867	18
3.16233	18
3.16600	18
3.16967	19
3.17333	19
3.17700	19
3.18067	19
3.18433	19
3.18800	19
3.19167	19
3.19533	19
3.19900	20
3.20267	20
3.20633	21
3.21000	21
3.21367	21
3.21733	22
3.22100	22
3.22467	22
3.22833	22
3.23200	22
3.23567	22
3.23933	23
3.24300	23
3.24667	23
3.25033	23
3.25400	24
3.25767	24
3.26133	24
3.26500	24
3.26867	25
3.27233	25
3.27600	25
3.27967	25
3.28333	26
3.28700	26
3.29067	26
3.29433	26
3.29800	26
3.30167	27
3.30533	27
3.30900	27
3.31267	27
3.31633	27
3.32000	27
3.32367	27
3.32733	27
3.33100	27
3.33467	27
3.33833	27
3.34200	27
3.34567	28
3.34933	28
3.35300	28
3.35667	29
3.36033	29
3.36400	29
3.36767	30
3.37133	30
3.37500	31
3.37867	31
3.38233	31
3.38600	31
3.38967	32
3.39333	32
3.39700	32
3.40067	32
3.40433	32
3.40800	32
3.41167	32
3.41533	32
3.41900	32
3.42267	32
3.42633	32
3.43000	32
3.43367	31
3.43733	31
3.44100	31
3.44467	31
3.44833	31
3.45200	31
3.45567	31
3.45933	31
3.46300	31
3.46667	31
3.47033	31
3.47400	31
3.47767	31
3.48133	31
3.48500	31
3.48867	30
3.49233	30
3.49600	30
3.49967	30
3.50333	29
3.50700	29
3.51067	29
3.51433	29
3.51800	29
3.52167	29
3.52533	29
3.52900	29
3.53267	29
3.53633	28
3.54000	28
3.54367	28
3.54733	28
3.55100	28
3.55467	28
3.55833	28
3.56200	29
3.56567	29
3.56933	29
3.57300	29
3.57667	29
3.58033	28
3.58400	28
3.58767	28
3.59133	28
3.59500	28
3.59867	28
3.60233	28
3.60600	28
3.60967	28
3.61333	28
3.61700	28
3.62067	28
3.62433	28
3.62800	28
3.63167	28
3.63533	28
3.63900	28
3.64267	28
3.64633	28
3.65000	28
3.65367	28
3.65733	28
3.66100	28
3.66467	28
3.66833	28
3.67200	29
3.67567	29
3.67933	29
3.68300	29
3.68667	29
3.69033	29
3.69400	29
3.69767	29
3.70133	29
3.70500	29
3.70867	29
3.71233	29
3.71600	29
3.71967	29
3.72333	29
3.72700	29
3.73067	29
3.73433	29
3.73800	29
3.74167	29
3.74533	29
3.74900	29
3.75267	29
3.75633	29
3.76000	29
3.76367	29
3.76733	28
3.77100	28
3.77467	28
3.77833	28
3.78200	28
3.78567	28
3.78933	28
3.79300	28
3.79667	28
3.80033	28
3.80400	27
3.80767	27
3.81133	27
3.81500	27
3.81867	27
3.82233	27
3.82600	27
3.82967	28
3.83333	28
3.83700	28
3.84067	28
3.84433	28
3.84800	28
3.85167	28
3.85533	28
3.85900	29
3.86267	29
3.86633	29
3.87000	29
3.87367	29
3.87733	29
3.88100	29
3.88467	29
3.88833	29
3.89200	28
3.89567	28
3.89933	28
3.90300	29
3.90667	29
3.91033	29
3.91400	29
3.91767	29
3.92133	29
3.92500	29
3.92867	29
3.93233	28
3.93600	28
3.93967	28
3.94333	28
3.94700	28
3.95067	28
3.95433	28
3.95800	28
3.96167	28
3.96533	28
3.96900	28
3.97267	29
3.97633	29
3.98000	29
3.98367	29
3.98733	29
3.99100	29
3.99467	29
3.99833	29

[Chromatogram (Ch3)]
Interval(msec)	220
# of Points	1091
Start Time(min)	0.002
End Time(min)	3.998
R.Time (min)	Intensity
0.00167	1
0.00533	3
0.00900	4
0.01267	5
0.01633	4
0.02000	-2
0.02367	-6
0.02733	-6
0.03100	-6
0.03467	-6
0.03833	-5
0.04200	-4
0.04567	-4
0.04933	-3
0.05300	-2
0.05667	-1
0.06033	-1
0.06400	-2
0.06767	-2
0.07133	-0
0.07500	1
0.07867	0
0.08233	2
0.08600	3
0.08967	5
0.09333	7
0.09700	9
0.10067	9
0.10433	9
0.10800	9
0.11167	9
0.11533	10
0.11900	9
0.12267	8
0.12633	5
0.13000	4
0.13367	3
0.13733	1
0.14100	-0
0.14467	-1
0.14833	1
0.15200	6
0.15567	8
0.15933	8
0.16300	7
0.16667	7
0.17033	5
0.17400	5
0.17767	6
0.18133	6
0.18500	7
0.18867	10
0.19233	10
0.19600	10
0.19967	10
0.20333	10
0.20700	9
0.21067	11
0.21433	12
0.21800	13
0.22167	14
0.22533	14
0.22900	13
0.23267	12
0.23633	12
0.24000	11
0.24367	11
0.24733	12
0.25100	13
0.25467	13
0.25833	13
0.26200	14
0.26567	15
0.26933	14
0.27300	13
0.27667	13
0.28033	13
0.28400	12
0.28767	12
0.29133	11
0.29500	9
0.29867	7
0.30233	6
0.30600	9
0.30967	13
0.31333	17
0.31700	17
0.32067	15
0.32433	12
0.32800	11
0.33167	12
0.33533	15
0.33900	17
0.34267	18
0.34633	18
0.35000	18
0.35367	21
0.35733	22
0.36100	21
0.36467	20
0.36833	20
0.37200	19
0.37567	19
0.37933	20
0.38300	20
0.38667	22
0.39033	23
0.39400	24
0.39767	25
0.40133	24
0.40500	24
0.40867	25
0.41233	26
0.41600	26
0.41967	27
0.42333	26
0.42700	26
0.43067	27
0.43433	28
0.43800	28
0.44167	26
0.44533	25
0.44900	25
0.45267	25
0.45633	26
0.46000	26
0.46367	27
0.46733	26
0.47100	25
0.47467	23
0.47833	20
0.48200	18
0.48567	19
0.48933	19
0.49300	21
0.49667	23
0.50033	26
0.50400	28
0.50767	28
0.51133	27
0.51500	29
0.51867	30
0.52233	29
0.52600	30
0.52967	33
0.53333	34
0.53700	33
0.54067	32
0.54433	34
0.54800	35
0.55167	36
0.55533	37
0.55900	38
0.56267	37
0.56633	36
0.57000	37
0.57367	39
0.57733	39
0.58100	38
0.58467	38
0.58833	38
0.59200	39
0.59567	39
0.59933	37
0.60300	35
0.60667	35
0.61033	34
0.61400	34
0.61767	35
0.62133	35
0.62500	36
0.62867	36
0.63233	38
0.63600	37
0.63967	38
0.64333	36
0.64700	34
0.65067	34
0.65433	34
0.65800	34
0.66167	38
0.66533	41
0.66900	43
0.67267	43
0.67633	43
0.68000	42
0.68367	41
0.68733	41
0.69100	41
0.69467	42
0.69833	44
0.70200	43
0.70567	41
0.70933	40
0.71300	42
0.71667	42
0.72033	43
0.72400	41
0.72767	39
0.73133	37
0.73500	39
0.73867	43
0.74233	45
0.74600	44
0.74967	42
0.75333	42
0.75700	44
0.76067	45
0.76433	45
0.76800	46
0.77167	47
0.77533	45
0.77900	44
0.78267	45
0.78633	46
0.79000	45
0.79367	45
0.79733	46
0.80100	47
0.80467	48
0.80833	45
0.81200	42
0.81567	41
0.81933	43
0.82300	45
0.82667	46
0.83033	47
0.83400	49
0.83767	48
0.84133	50
0.84500	50
0.84867	49
0.85233	47
0.85600	46
0.85967	47
0.86333	46
0.86700	45
0.87067	44
0.87433	45
0.87800	46
0.88167	45
0.88533	43
0.88900	42
0.89267	43
0.89633	44
0.90000	45
0.90367	46
0.90733	46
0.91100	47
0.91467	50
0.91833	54
0.92200	53
0.92567	50
0.92933	49
0.93300	50
0.93667	51
0.94033	53
0.94400	53
0.94767	49
0.95133	45
0.95500	48
0.95867	54
0.96233	57
0.96600	58
0.96967	57
0.97333	54
0.97700	53
0.98067	53
0.98433	54
0.98800	55
0.99167	53
0.99533	50
0.99900	49
1.00267	47
1.00633	48
1.01000	48
1.01367	48
1.01733	48
1.02100	46
1.02467	47
1.02833	51
1.03200	54
1.03567	56
1.03933	56
1.04300	56
1.04667	56
1.05033	56
1.05400	59
1.05767	61
1.06133	58
1.06500	56
1.06867	55
1.07233	56
1.07600	55
1.07967	54
1.08333	54
1.08700	55
1.09067	53
1.09433	51
1.09800	48
1.10167	47
1.10533	48
1.10900	47
1.11267	46
1.11633	45
1.12000	47
1.12367	49
1.12733	48
1.13100	49
1.13467	51
1.13833	50
1.14200	49
1.14567	50
1.14933	50
1.15300	51
1.15667	51
1.16033	50
1.16400	50
1.16767	51
1.17133	51
1.17500	51
1.17867	51
1.18233	50
1.18600	48
1.18967	46
1.19333	44
1.19700	44
1.20067	45
1.20433	45
1.20800	45
1.21167	45
1.21533	46
1.21900	48
1.22267	49
1.22633	47
1.23000	45
1.23367	45
1.23733	45
1.24100	45
1.24467	47
1.24833	49
1.25200	49
1.25567	50
1.25933	52
1.26300	53
1.26667	53
1.27033	53
1.27400	53
1.27767	53
1.28133	53
1.28500	53
1.28867	50
1.29233	48
1.29600	47
1.29967	47
1.30333	45
1.30700	44
1.31067	46
1.31433	50
1.31800	50
1.32167	52
1.32533	54
1.32900	54
1.33267	52
1.33633	50
1.34000	50
1.34367	50
1.34733	51
1.35100	52
1.35467	54
1.35833	54
1.36200	53
1.36567	54
1.36933	54
1.37300	53
1.37667	53
1.38033	54
1.38400	55
1.38767	55
1.39133	54
1.39500	52
1.39867	50
1.40233	49
1.40600	48
1.40967	47
1.41333	46
1.41700	44
1.42067	43
1.42433	44
1.42800	48
1.43167	51
1.43533	52
1.43900	51
1.44267	53
1.44633	54
1.45000	55
1.45367	56
1.45733	56
1.46100	53
1.46467	50
1.46833	48
1.47200	49
1.47567	49
1.47933	50
1.48300	51
1.48667	52
1.49033	54
1.49400	55
1.49767	55
1.50133	56
1.50500	54
1.50867	53
1.51233	52
1.51600	52
1.51967	51
1.52333	51
1.52700	50
1.53067	50
1.53433	49
1.53800	47
1.54167	46
1.54533	45
1.54900	45
1.55267	47
1.55633	49
1.56000	51
1.56367	51
1.56733	52
1.57100	52
1.57467	49
1.57833	46
1.58200	46
1.58567	47
1.58933	50
1.59300	52
1.59667	53
1.60033	51
1.60400	47
1.60767	47
1.61133	47
1.61500	46
1.61867	46
1.62233	49
1.62600	52
1.62967	54
1.63333	54
1.63700	53
1.64067	50
1.64433	49
1.64800	49
1.65167	51
1.65533	52
1.65900	54
1.66267	56
1.66633	57
1.67000	57
1.67367	58
1.67733	59
1.68100	59
1.68467	58
1.68833	58
1.69200	60
1.69567	61
1.69933	60
1.70300	60
1.70667	58
1.71033	57
1.71400	57
1.71767	57
1.72133	57
1.72500	57
1.72867	56
1.73233	55
1.73600	59
1.73967	58
1.74333	56
1.74700	59
1.75067	63
1.75433	67
1.75800	69
1.76167	68
1.76533	68
1.76900	67
1.77267	66
1.77633	70
1.78000	73
1.78367	73
1.78733	71
1.79100	70
1.79467	72
1.79833	71
1.80200	70
1.80567	70
1.80933	70
1.81300	69
1.81667	70
1.82033	72
1.82400	73
1.82767	76
1.83133	77
1.83500	76
1.83867	73
1.84233	72
1.84600	73
1.84967	73
1.85333	73
1.85700	72
1.86067	73
1.86433	74
1.86800	75
1.87167	76
1.87533	77
1.87900	78
1.88267	78
1.88633	78
1.89000	76
1.89367	75
1.89733	76
1.90100	76
1.90467	78
1.90833	79
1.91200	80
1.91567	82
1.91933	83
1.92300	83
1.92667	81
1.93033	81
1.93400	80
1.93767	82
1.94133	84
1.94500	88
1.94867	89
1.95233	90
1.95600	91
1.95967	91
1.96333	90
1.96700	89
1.97067	90
1.97433	90
1.97800	90
1.98167	90
1.98533	90
1.98900	93
1.99267	95
1.99633	96
2.00000	95
2.00367	94
2.00733	95
2.01100	96
2.01467	97
2.01833	99
2.02200	100
2.02567	102
2.02933	103
2.03300	103
2.03667	104
2.04033	103
2.04400	104
2.04767	103
2.05133	102
2.05500	104
2.05867	105
2.06233	106
2.06600	110
2.06967	114
2.07333	115
2.07700	115
2.08067	115
2.08433	116
2.08800	117
2.09167	118
2.09533	119
2.09900	119
2.10267	118
2.10633	118
2.11000	120
2.11367	122
2.11733	124
2.12100	126
2.12467	126
2.12833	125
2.13200	126
2.13567	127
2.13933	128
2.14300	127
2.14667	128
2.15033	129
2.15400	129
2.15767	131
2.16133	132
2.16500	132
2.16867	132
2.17233	130
2.17600	131
2.17967	134
2.18333	135
2.18700	134
2.19067	133
2.19433	133
2.19800	134
2.20167	136
2.20533	140
2.20900	144
2.21267	145
2.21633	142
2.22000	139
2.22367	137
2.22733	139
2.23100	142
2.23467	143
2.23833	144
2.24200	145
2.24567	146
2.24933	148
2.25300	149
2.25667	149
2.26033	149
2.26400	150
2.26767	151
2.27133	149
2.27500	147
2.27867	147
2.28233	150
2.28600	152
2.28967	152
2.29333	153
2.29700	153
2.30067	152
2.30433	153
2.30800	153
2.31167	152
2.31533	153
2.31900	155
2.32267	159
2.32633	161
2.33000	160
2.33367	160
2.33733	160
2.34100	161
2.34467	163
2.34833	166
2.35200	168
2.35567	170
2.35933	172
2.36300	175
2.36667	178
2.37033	180
2.37400	178
2.37767	174
2.38133	173
2.38500	172
2.38867	171
2.39233	172
2.39600	173
2.39967	175
2.40333	178
2.40700	179
2.41067	181
2.41433	184
2.41800	185
2.42167	185
2.42533	187
2.42900	186
2.43267	185
2.43633	183
2.44000	183
2.44367	202
2.44733	256
2.45100	318
2.45467	362
2.45833	374
2.46200	362
2.46567	348
2.46933	337
2.47300	324
2.47667	306
2.48033	283
2.48400	257
2.48767	233
2.49133	217
2.49500	207
2.49867	201
2.50233	199
2.50600	201
2.50967	208
2.51333	215
2.51700	216
2.52067	213
2.52433	204
2.52800	191
2.53167	178
2.53533	166
2.53900	152
2.54267	141
2.54633	133
2.55000	125
2.55367	120
2.55733	118
2.56100	117
2.56467	115
2.56833	114
2.57200	115
2.57567	115
2.57933	117
2.58300	118
2.58667	119
2.59033	121
2.59400	127
2.59767	135
2.60133	141
2.60500	143
2.60867	137
2.61233	124
2.61600	103
2.61967	75
2.62333	40
2.62700	2
2.63067	-37
2.63433	-74
2.63800	-109
2.64167	-136
2.64533	-160
2.64900	-183
2.65267	-200
2.65633	-212
2.66000	-218
2.66367	-220
2.66733	-218
2.67100	-213
2.67467	-206
2.67833	-197
2.68200	-189
2.68567	-182
2.68933	-172
2.69300	-161
2.69667	-149
2.70033	-138
2.70400	-130
2.70767	-121
2.71133	-112
2.71500	-104
2.71867	-96
2.72233	-89
2.72600	-79
2.72967	-71
2.73333	-65
2.73700	-60
2.74067	-53
2.74433	-46
2.74800	-41
2.75167	-39
2.75533	-34
2.75900	-30
2.76267	-25
2.76633	-19
2.77000	-12
2.77367	-4
2.77733	0
2.78100	6
2.78467	10
2.78833	13
2.79200	17
2.79567	20
2.79933	24
2.80300	24
2.80667	8
2.81033	-8
2.81400	-3
2.81767	27
2.82133	68
2.82500	101
2.82867	126
2.83233	159
2.83600	221
2.83967	332
2.84333	511
2.84700	776
2.85067	1142
2.85433	1617
2.85800	2190
2.86167	2837
2.86533	3518
2.86900	4188
2.87267	4793
2.87633	5287
2.88000	5639
2.88367	5835
2.88733	5873
2.89100	5773
2.89467	5560
2.89833	5266
2.90200	4919
2.90567	4550
2.90933	4173
2.91300	3806
2.91667	3460
2.92033	3144
2.92400	2852
2.92767	2590
2.93133	2356
2.93500	2149
2.93867	1967
2.94233	1806
2.94600	1666
2.94967	1545
2.95333	1440
2.95700	1346
2.96067	1266
2.96433	1196
2.96800	1136
2.97167	1083
2.97533	1039
2.97900	1005
2.98267	972
2.98633	943
2.99000	918
2.99367	897
2.99733	879
3.00100	862
3.00467	847
3.00833	833
3.01200	822
3.01567	811
3.01933	802
3.02300	795
3.02667	788
3.03033	783
3.03400	777
3.03767	773
3.04133	771
3.04500	770
3.04867	766
3.05233	763
3.05600	758
3.05967	754
3.06333	749
3.06700	748
3.07067	748
3.07433	750
3.07800	747
3.08167	745
3.08533	745
3.08900	747
3.09267	751
3.09633	753
3.10000	752
3.10367	750
3.10733	749
3.11100	751
3.11467	754
3.11833	755
3.12200	756
3.12567	757
3.12933	758
3.13300	759
3.13667	760
3.14033	759
3.14400	759
3.14767	759
3.15133	758
3.15500	754
3.15867	752
3.16233	748
3.16600	745
3.16967	743
3.17333	743
3.17700	743
3.18067	743
3.18433	742
3.18800	740
3.19167	740
3.19533	742
3.19900	744
3.20267	744
3.20633	742
3.21000	738
3.21367	734
3.21733	731
3.22100	727
3.22467	725
3.22833	722
3.23200	719
3.23567	714
3.23933	712
3.24300	710
3.24667	707
3.25033	704
3.25400	701
3.25767	699
3.26133	696
3.26500	691
3.26867	684
3.27233	681
3.27600	679
3.27967	674
3.28333	668
3.28700	663
3.29067	659
3.29433	654
3.29800	651
3.30167	649
3.30533	647
3.30900	643
3.31267	638
3.31633	632
3.32000	627
3.32367	625
3.32733	623
3.33100	620
3.33467	616
3.33833	612
3.34200	608
3.34567	605
3.34933	601
3.35300	597
3.35667	593
3.36033	588
3.36400	585
3.36767	582
3.37133	578
3.37500	573
3.37867	568
3.38233	565
3.38600	562
3.38967	557
3.39333	554
3.39700	551
3.40067	549
3.40433	545
3.40800	540
3.41167	536
3.41533	533
3.41900	531
3.42267	527
3.42633	524
3.43000	520
3.43367	516
3.43733	512
3.44100	508
3.44467	506
3.44833	502
3.45200	499
3.45567	499
3.45933	498
3.46300	493
3.46667	488
3.47033	482
3.47400	479
3.47767	478
3.48133	476
3.48500	473
3.48867	470
3.49233	468
3.49600	466
3.49967	464
3.50333	461
3.50700	461
3.51067	460
3.51433	455
3.51800	453
3.52167	452
3.52533	451
3.52900	450
3.53267	447
3.53633	443
3.54000	442
3.54367	440
3.54733	439
3.55100	438
3.55467	433
3.55833	427
3.56200	422
3.56567	419
3.56933	416
3.57300	414
3.57667	414
3.58033	414
3.58400	414
3.58767	415
3.59133	414
3.59500	413
3.59867	412
3.60233	410
3.60600	408
3.60967	404
3.61333	398
3.61700	396
3.62067	394
3.62433	393
3.62800	391
3.63167	389
3.63533	386
3.63900	384
3.64267	382
3.64633	380
3.65000	380
3.65367	377
3.65733	375
3.66100	372
3.66467	371
3.66833	368
3.67200	367
3.67567	365
3.67933	363
3.68300	363
3.68667	362
3.69033	362
3.69400	361
3.69767	358
3.70133	356
3.70500	355
3.70867	354
3.71233	354
3.71600	354
3.71967	353
3.72333	353
3.72700	353
3.73067	354
3.73433	351
3.73800	349
3.74167	345
3.74533	343
3.74900	342
3.75267	341
3.75633	340
3.76000	340
3.76367	338
3.76733	337
3.77100	336
3.77467	336
3.77833	335
3.78200	332
3.78567	330
3.78933	332
3.79300	334
3.79667	334
3.80033	331
3.80400	326
3.80767	323
3.81133	323
3.81500	323
3.81867	322
3.82233	321
3.82600	322
3.82967	319
3.83333	315
3.83700	312
3.84067	310
3.84433	309
3.84800	310
3.85167	311
3.85533	312
3.85900	312
3.86267	312
3.86633	311
3.87000	307
3.87367	304
3.87733	303
3.88100	305
3.88467	305
3.88833	305
3.89200	306
3.89567	306
3.89933	303
3.90300	301
3.90667	300
3.91033	301
3.91400	301
3.91767	301
3.92133	300
3.92500	301
3.92867	303
3.93233	302
3.93600	302
3.93967	304
3.94333	303
3.94700	301
3.95067	298
3.95433	293
3.95800	291
3.96167	291
3.96533	290
3.96900	288
3.97267	288
3.97633	285
3.98000	281
3.98367	278
3.98733	277
3.99100	278
3.99467	279
3.99833	278

[Status Trace (Column Oven Temperature)]
Interval(msec)	1000
# of Points	240
Start Time(min)	0.001
End Time(min)	3.984
Intensity Units	
Intensity Multiplier	1
R.Time (min)	Intensity
0.00080	35.05
0.01747	35.05
0.03413	35.05
0.05080	35.04
0.06747	35.04
0.08413	35.04
0.10080	35.05
0.11747	35.05
0.13413	35.04
0.15080	35.03
0.16747	35.02
0.18413	35.02
0.20080	35.02
0.21747	35.02
0.23413	35.01
0.25080	35.00
0.26747	35.00
0.28413	34.99
0.30080	34.99
0.31747	34.99
0.33413	34.99
0.35080	35.00
0.36747	34.99
0.38413	34.99
0.40080	35.00
0.41747	35.00
0.43413	35.00
0.45080	34.99
0.46747	34.99
0.48413	34.99
0.50080	34.99
0.51747	35.00
0.53413	35.01
0.55080	35.02
0.56747	35.03
0.58413	35.03
0.60080	35.04
0.61747	35.03
0.63413	35.02
0.65080	35.01
0.66747	35.00
0.68413	35.00
0.70080	35.00
0.71747	35.00
0.73413	34.99
0.75080	34.99
0.76747	34.99
0.78413	35.00
0.80080	35.00
0.81747	34.99
0.83413	34.99
0.85080	34.99
0.86747	34.99
0.88413	34.99
0.90080	34.99
0.91747	34.98
0.93413	34.98
0.95080	34.98
0.96747	34.98
0.98413	34.99
1.00080	34.99
1.01747	34.99
1.03413	34.99
1.05080	34.99
1.06747	34.99
1.08413	35.00
1.10080	34.99
1.11747	35.00
1.13413	34.99
1.15080	34.99
1.16747	34.99
1.18413	34.98
1.20080	34.99
1.21747	34.99
1.23413	34.99
1.25080	34.99
1.26747	34.99
1.28413	34.98
1.30080	34.98
1.31747	34.99
1.33413	34.99
1.35080	34.99
1.36747	34.99
1.38413	34.99
1.40080	34.99
1.41747	34.99
1.43413	35.00
1.45080	34.99
1.46747	34.99
1.48413	34.99
1.50080	34.99
1.51747	34.99
1.53413	34.99
1.55080	34.99
1.56747	34.99
1.58413	34.98
1.60080	35.03
1.61747	35.13
1.63413	35.29
1.65080	35.50
1.66747	35.80
1.68413	36.18
1.70080	36.56
1.71747	36.89
1.73413	37.20
1.75080	37.53
1.76747	37.87
1.78413	38.20
1.80080	38.54
1.81747	38.87
1.83413	39.21
1.85080	39.51
1.86747	39.83
1.88413	40.16
1.90080	40.50
1.91747	40.83
1.93413	41.16
1.95080	41.48
1.96747	41.79
1.98413	42.14
2.00080	42.46
2.01747	42.78
2.03413	43.10
2.05080	43.44
2.06747	43.77
2.08413	44.10
2.10080	44.42
2.11747	44.75
2.13413	45.08
2.15080	45.41
2.16747	45.72
2.18413	46.04
2.20080	46.38
2.21747	46.69
2.23413	47.02
2.25080	47.36
2.26747	47.68
2.28413	48.02
2.30080	48.36
2.31747	48.69
2.33413	49.00
2.35080	49.34
2.36747	49.57
2.38413	49.68
2.40080	49.68
2.41747	49.68
2.43413	49.69
2.45080	49.68
2.46747	49.71
2.48413	49.70
2.50080	49.73
2.51747	49.74
2.53413	49.77
2.55080	49.79
2.56747	49.79
2.58413	49.80
2.60080	49.81
2.61747	49.80
2.63413	49.83
2.65080	49.84
2.66747	49.85
2.68413	49.86
2.70080	49.85
2.71747	49.84
2.73413	49.85
2.75080	49.87
2.76747	49.87
2.78413	49.86
2.80080	49.86
2.81747	49.86
2.83413	49.86
2.85080	49.86
2.86747	49.86
2.88413	49.87
2.90080	49.88
2.91747	49.89
2.93413	49.92
2.95080	49.94
2.96747	49.95
2.98413	49.96
3.00080	49.98
3.01747	49.99
3.03413	50.00
3.05080	50.01
3.06747	50.00
3.08413	50.01
3.10080	50.02
3.11747	50.03
3.13413	50.03
3.15080	50.04
3.16747	50.04
3.18413	50.06
3.20080	50.07
3.21747	50.08
3.23413	50.08
3.25080	50.09
3.26747	50.10
3.28413	50.10
3.30080	50.11
3.31747	50.11
3.33413	50.11
3.35080	50.09
3.36747	50.07
3.38413	50.05
3.40080	50.04
3.41747	50.03
3.43413	50.02
3.45080	50.01
3.46747	50.00
3.48413	49.99
3.50080	50.00
3.51747	49.99
3.53413	50.00
3.55080	50.01
3.56747	50.01
3.58413	50.01
3.60080	50.02
3.61747	50.02
3.63413	50.02
3.65080	50.03
3.66747	50.02
3.68413	50.02
3.70080	50.02
3.71747	50.02
3.73413	50.02
3.75080	50.03
3.76747	50.04
3.78413	50.04
3.80080	50.05
3.81747	50.05
3.83413	50.05
3.85080	50.04
3.86747	50.04
3.88413	50.04
3.90080	50.05
3.91747	50.06
3.93413	50.06
3.95080	50.06
3.96747	50.06
3.98413	50.06

[Status Trace (Injection Unit Temperature)]
Interval(msec)	1000
# of Points	240
Start Time(min)	0.001
End Time(min)	3.984
Intensity Units	
Intensity Multiplier	1
R.Time (min)	Intensity
0.00080	99.98
0.01747	99.99
0.03413	99.98
0.05080	99.98
0.06747	99.98
0.08413	99.99
0.10080	99.99
0.11747	99.98
0.13413	99.99
0.15080	99.98
0.16747	99.99
0.18413	99.99
0.20080	99.99
0.21747	99.99
0.23413	99.99
0.25080	99.99
0.26747	99.99
0.28413	99.99
0.30080	99.99
0.31747	99.98
0.33413	99.99
0.35080	99.99
0.36747	99.98
0.38413	99.98
0.40080	99.98
0.41747	99.99
0.43413	99.98
0.45080	99.98
0.46747	99.98
0.48413	99.98
0.50080	99.98
0.51747	99.99
0.53413	99.99
0.55080	99.98
0.56747	99.98
0.58413	99.98
0.60080	99.98
0.61747	99.98
0.63413	99.98
0.65080	99.98
0.66747	99.98
0.68413	99.98
0.70080	99.98
0.71747	99.98
0.73413	99.98
0.75080	99.98
0.76747	99.98
0.78413	99.98
0.80080	99.98
0.81747	99.98
0.83413	99.98
0.85080	99.98
0.86747	99.98
0.88413	99.98
0.90080	99.98
0.91747	99.98
0.93413	99.98
0.95080	99.98
0.96747	99.98
0.98413	99.98
1.00080	99.98
1.01747	99.98
1.03413	99.98
1.05080	99.98
1.06747	99.98
1.08413	99.98
1.10080	99.99
1.11747	99.98
1.13413	99.98
1.15080	99.98
1.16747	99.98
1.18413	99.99
1.20080	99.98
1.21747	99.98
1.23413	99.98
1.25080	99.98
1.26747	99.99
1.28413	99.98
1.30080	99.98
1.31747	99.98
1.33413	99.99
1.35080	99.99
1.36747	99.98
1.38413	99.98
1.40080	99.98
1.41747	99.99
1.43413	99.99
1.45080	99.99
1.46747	99.98
1.48413	99.99
1.50080	99.99
1.51747	99.99
1.53413	99.98
1.55080	99.98
1.56747	99.98
1.58413	99.99
1.60080	99.98
1.61747	99.99
1.63413	99.98
1.65080	99.98
1.66747	99.98
1.68413	99.99
1.70080	99.98
1.71747	99.99
1.73413	99.99
1.75080	99.99
1.76747	99.98
1.78413	99.98
1.80080	99.98
1.81747	99.98
1.83413	99.98
1.85080	99.98
1.86747	99.98
1.88413	99.98
1.90080	99.98
1.91747	99.98
1.93413	99.98
1.95080	99.98
1.96747	99.98
1.98413	99.98
2.00080	99.98
2.01747	99.98
2.03413	99.98
2.05080	99.98
2.06747	99.98
2.08413	99.98
2.10080	99.98
2.11747	99.98
2.13413	99.98
2.15080	99.98
2.16747	99.97
2.18413	99.97
2.20080	99.98
2.21747	99.98
2.23413	99.97
2.25080	99.97
2.26747	99.97
2.28413	99.97
2.30080	99.97
2.31747	99.97
2.33413	99.97
2.35080	99.97
2.36747	99.97
2.38413	99.97
2.40080	99.97
2.41747	99.97
2.43413	99.97
2.45080	99.97
2.46747	99.97
2.48413	99.97
2.50080	99.97
2.51747	99.97
2.53413	99.97
2.55080	99.97
2.56747	99.97
2.58413	99.97
2.60080	99.98
2.61747	99.98
2.63413	99.97
2.65080	99.98
2.66747	99.98
2.68413	99.98
2.70080	99.98
2.71747	99.98
2.73413	99.98
2.75080	99.99
2.76747	99.98
2.78413	99.98
2.80080	99.99
2.81747	99.99
2.83413	99.99
2.85080	99.99
2.86747	100.00
2.88413	100.00
2.90080	100.00
2.91747	100.00
2.93413	100.00
2.95080	100.00
2.96747	100.01
2.98413	100.01
3.00080	100.01
3.01747	100.01
3.03413	100.01
3.05080	100.01
3.06747	100.01
3.08413	100.01
3.10080	100.02
3.11747	100.02
3.13413	100.02
3.15080	100.02
3.16747	100.02
3.18413	100.02
3.20080	100.02
3.21747	100.03
3.23413	100.03
3.25080	100.03
3.26747	100.03
3.28413	100.03
3.30080	100.03
3.31747	100.03
3.33413	100.03
3.35080	100.03
3.36747	100.04
3.38413	100.04
3.40080	100.03
3.41747	100.04
3.43413	100.04
3.45080	100.04
3.46747	100.04
3.48413	100.04
3.50080	100.04
3.51747	100.04
3.53413	100.04
3.55080	100.04
3.56747	100.05
3.58413	100.05
3.60080	100.04
3.61747	100.05
3.63413	100.05
3.65080	100.05
3.66747	100.04
3.68413	100.05
3.70080	100.05
3.71747	100.05
3.73413	100.05
3.75080	100.04
3.76747	100.05
3.78413	100.05
3.80080	100.05
3.81747	100.05
3.83413	100.05
3.85080	100.05
3.86747	100.05
3.88413	100.05
3.90080	100.05
3.91747	100.05
3.93413	100.05
3.95080	100.05
3.96747	100.05
3.98413	100.05

[Status Trace (Carrier Gas Pressure)]
Interval(msec)	1000
# of Points	240
Start Time(min)	0.001
End Time(min)	3.984
Intensity Units	
Intensity Multiplier	1
R.Time (min)	Intensity
0.00080	58.00
0.01747	56.54
0.03413	55.99
0.05080	58.31
0.06747	59.91
0.08413	58.50
0.10080	57.97
0.11747	58.00
0.13413	58.01
0.15080	58.01
0.16747	58.00
0.18413	58.00
0.20080	58.00
0.21747	58.00
0.23413	58.00
0.25080	58.00
0.26747	58.00
0.28413	58.00
0.30080	58.00
0.31747	58.00
0.33413	58.00
0.35080	58.00
0.36747	58.00
0.38413	58.00
0.40080	58.00
0.41747	58.00
0.43413	58.00
0.45080	58.00
0.46747	58.00
0.48413	58.00
0.50080	58.00
0.51747	58.00
0.53413	58.00
0.55080	58.00
0.56747	58.00
0.58413	58.00
0.60080	58.00
0.61747	58.00
0.63413	58.00
0.65080	58.00
0.66747	58.00
0.68413	58.00
0.70080	58.00
0.71747	58.00
0.73413	58.00
0.75080	58.00
0.76747	58.00
0.78413	58.00
0.80080	58.00
0.81747	58.00
0.83413	58.00
0.85080	58.00
0.86747	58.00
0.88413	58.00
0.90080	58.00
0.91747	58.00
0.93413	58.00
0.95080	58.00
0.96747	58.00
0.98413	58.00
1.00080	58.00
1.01747	58.00
1.03413	58.00
1.05080	58.00
1.06747	58.00
1.08413	58.00
1.10080	58.00
1.11747	58.00
1.13413	58.00
1.15080	58.00
1.16747	58.00
1.18413	58.00
1.20080	58.00
1.21747	58.00
1.23413	58.00
1.25080	58.00
1.26747	58.00
1.28413	58.00
1.30080	58.00
1.31747	58.00
1.33413	58.00
1.35080	58.00
1.36747	58.00
1.38413	58.00
1.40080	58.00
1.41747	58.00
1.43413	58.00
1.45080	58.00
1.46747	58.00
1.48413	58.00
1.50080	58.00
1.51747	58.00
1.53413	58.00
1.55080	58.00
1.56747	58.00
1.58413	58.00
1.60080	58.00
1.61747	58.00
1.63413	58.00
1.65080	58.00
1.66747	58.00
1.68413	58.01
1.70080	58.00
1.71747	58.00
1.73413	58.00
1.75080	58.00
1.76747	58.00
1.78413	58.00
1.80080	58.00
1.81747	58.00
1.83413	58.00
1.85080	58.00
1.86747	58.00
1.88413	58.00
1.90080	58.00
1.91747	58.00
1.93413	58.00
1.95080	58.00
1.96747	58.00
1.98413	58.00
2.00080	58.00
2.01747	58.00
2.03413	58.00
2.05080	58.00
2.06747	58.00
2.08413	58.00
2.10080	58.00
2.11747	58.00
2.13413	58.00
2.15080	58.00
2.16747	58.00
2.18413	58.00
2.20080	58.00
2.21747	58.00
2.23413	58.00
2.25080	58.00
2.26747	58.00
2.28413	58.00
2.30080	58.00
2.31747	58.00
2.33413	58.00
2.35080	58.00
2.36747	58.00
2.38413	57.99
2.40080	57.99
2.41747	58.00
2.43413	58.00
2.45080	58.00
2.46747	58.00
2.48413	58.00
2.50080	58.00
2.51747	57.99
2.53413	57.99
2.55080	58.00
2.56747	58.00
2.58413	58.00
2.60080	58.00
2.61747	58.00
2.63413	58.00
2.65080	58.00
2.66747	58.00
2.68413	58.00
2.70080	58.00
2.71747	58.00
2.73413	58.00
2.75080	58.00
2.76747	58.00
2.78413	58.00
2.80080	58.00
2.81747	58.00
2.83413	58.00
2.85080	58.00
2.86747	58.00
2.88413	58.00
2.90080	58.00
2.91747	58.00
2.93413	58.00
2.95080	58.00
2.96747	58.00
2.98413	58.00
3.00080	58.00
3.01747	58.00
3.03413	58.00
3.05080	58.00
3.06747	58.00
3.08413	58.00
3.10080	58.00
3.11747	58.00
3.13413	58.00
3.15080	58.00
3.16747	58.00
3.18413	58.00
3.20080	58.00
3.21747	58.00
3.23413	58.00
3.25080	58.00
3.26747	58.00
3.28413	58.00
3.30080	58.00
3.31747	58.00
3.33413	58.00
3.35080	58.00
3.36747	58.00
3.38413	58.00
3.40080	58.00
3.41747	58.00
3.43413	58.00
3.45080	58.00
3.46747	58.00
3.48413	58.00
3.50080	58.00
3.51747	58.00
3.53413	58.00
3.55080	58.00
3.56747	58.00
3.58413	58.00
3.60080	58.00
3.61747	58.00
3.63413	58.00
3.65080	58.00
3.66747	58.00
3.68413	58.00
3.70080	58.00
3.71747	58.00
3.73413	58.00
3.75080	58.00
3.76747	58.00
3.78413	58.00
3.80080	58.00
3.81747	58.00
3.83413	58.00
3.85080	58.00
3.86747	58.00
3.88413	58.00
3.90080	58.00
3.91747	58.00
3.93413	58.00
3.95080	58.00
3.96747	58.00
3.98413	58.00

[Status Trace (Carrier Gas Flow)]
Interval(msec)	1000
# of Points	240
Start Time(min)	0.001
End Time(min)	3.984
Intensity Units	
Intensity Multiplier	1
R.Time (min)	Intensity
0.00080	34.52
0.01747	34.16
0.03413	34.56
0.05080	34.55
0.06747	34.51
0.08413	34.50
0.10080	34.52
0.11747	34.52
0.13413	34.52
0.15080	34.52
0.16747	34.52
0.18413	34.52
0.20080	34.52
0.21747	34.52
0.23413	34.52
0.25080	34.52
0.26747	34.52
0.28413	34.52
0.30080	34.52
0.31747	34.52
0.33413	34.52
0.35080	34.52
0.36747	34.52
0.38413	34.52
0.40080	34.52
0.41747	34.52
0.43413	34.52
0.45080	34.52
0.46747	34.52
0.48413	34.52
0.50080	34.52
0.51747	34.52
0.53413	34.52
0.55080	34.52
0.56747	34.52
0.58413	34.52
0.60080	34.52
0.61747	34.52
0.63413	34.52
0.65080	34.52
0.66747	34.52
0.68413	34.52
0.70080	34.52
0.71747	34.52
0.73413	34.52
0.75080	34.52
0.76747	34.52
0.78413	34.52
0.80080	34.52
0.81747	34.52
0.83413	34.52
0.85080	34.52
0.86747	34.52
0.88413	34.52
0.90080	34.52
0.91747	34.52
0.93413	34.52
0.95080	34.52
0.96747	34.52
0.98413	34.52
1.00080	34.52
1.01747	34.52
1.03413	34.52
1.05080	34.51
1.06747	34.52
1.08413	34.52
1.10080	34.51
1.11747	34.52
1.13413	34.53
1.15080	34.52
1.16747	34.52
1.18413	34.52
1.20080	34.51
1.21747	34.52
1.23413	34.52
1.25080	34.52
1.26747	34.51
1.28413	34.51
1.30080	34.53
1.31747	34.52
1.33413	34.51
1.35080	34.52
1.36747	34.53
1.38413	34.52
1.40080	34.52
1.41747	34.52
1.43413	34.52
1.45080	34.52
1.46747	34.52
1.48413	34.52
1.50080	34.52
1.51747	34.52
1.53413	34.52
1.55080	34.52
1.56747	34.52
1.58413	34.52
1.60080	34.52
1.61747	34.52
1.63413	34.52
1.65080	34.52
1.66747	34.52
1.68413	34.52
1.70080	34.52
1.71747	34.52
1.73413	34.52
1.75080	34.52
1.76747	34.52
1.78413	34.52
1.80080	34.52
1.81747	34.52
1.83413	34.52
1.85080	34.52
1.86747	34.52
1.88413	34.52
1.90080	34.52
1.91747	34.52
1.93413	34.52
1.95080	34.52
1.96747	34.52
1.98413	34.52
2.00080	34.52
2.01747	34.52
2.03413	34.52
2.05080	34.52
2.06747	34.52
2.08413	34.52
2.10080	34.52
2.11747	34.52
2.13413	34.52
2.15080	34.52
2.16747	34.52
2.18413	34.52
2.20080	34.52
2.21747	34.52
2.23413	34.52
2.25080	34.52
2.26747	34.52
2.28413	34.52
2.30080	34.52
2.31747	34.52
2.33413	34.52
2.35080	34.52
2.36747	34.52
2.38413	34.52
2.40080	34.52
2.41747	34.52
2.43413	34.52
2.45080	34.52
2.46747	34.52
2.48413	34.52
2.50080	34.52
2.51747	34.52
2.53413	34.52
2.55080	34.52
2.56747	34.52
2.58413	34.52
2.60080	34.52
2.61747	34.52
2.63413	34.52
2.65080	34.52
2.66747	34.52
2.68413	34.52
2.70080	34.52
2.71747	34.52
2.73413	34.52
2.75080	34.52
2.76747	34.52
2.78413	34.52
2.80080	34.52
2.81747	34.52
2.83413	34.52
2.85080	34.52
2.86747	34.52
2.88413	34.52
2.90080	34.52
2.91747	34.52
2.93413	34.52
2.95080	34.52
2.96747	34.52
2.98413	34.52
3.00080	34.52
3.01747	34.52
3.03413	34.52
3.05080	34.52
3.06747	34.52
3.08413	34.52
3.10080	34.52
3.11747	34.52
3.13413	34.52
3.15080	34.52
3.16747	34.52
3.18413	34.52
3.20080	34.52
3.21747	34.52
3.23413	34.52
3.25080	34.52
3.26747	34.52
3.28413	34.52
3.30080	34.52
3.31747	34.52
3.33413	34.52
3.35080	34.52
3.36747	34.52
3.38413	34.52
3.40080	34.52
3.41747	34.52
3.43413	34.52
3.45080	34.52
3.46747	34.52
3.48413	34.52
3.50080	34.52
3.51747	34.52
3.53413	34.52
3.55080	34.52
3.56747	34.52
3.58413	34.52
3.60080	34.52
3.61747	34.52
3.63413	34.52
3.65080	34.52
3.66747	34.52
3.68413	34.52
3.70080	34.52
3.71747	34.52
3.73413	34.52
3.75080	34.52
3.76747	34.52
3.78413	34.52
3.80080	34.52
3.81747	34.52
3.83413	34.52
3.85080	34.52
3.86747	34.52
3.88413	34.52
3.90080	34.52
3.91747	34.52
3.93413	34.52
3.95080	34.52
3.96747	34.52
3.98413	34.52

[Status Trace (Column Flow)]
Interval(msec)	1000
# of Points	240
Start Time(min)	0.001
End Time(min)	3.984
Intensity Units	
Intensity Multiplier	1
R.Time (min)	Intensity
0.00080	5.55
0.01747	5.38
0.03413	5.32
0.05080	5.59
0.06747	5.78
0.08413	5.61
0.10080	5.55
0.11747	5.56
0.13413	5.56
0.15080	5.56
0.16747	5.56
0.18413	5.56
0.20080	5.56
0.21747	5.56
0.23413	5.56
0.25080	5.56
0.26747	5.56
0.28413	5.56
0.30080	5.56
0.31747	5.56
0.33413	5.56
0.35080	5.56
0.36747	5.56
0.38413	5.56
0.40080	5.56
0.41747	5.56
0.43413	5.56
0.45080	5.56
0.46747	5.56
0.48413	5.56
0.50080	5.56
0.51747	5.56
0.53413	5.56
0.55080	5.56
0.56747	5.56
0.58413	5.56
0.60080	5.56
0.61747	5.56
0.63413	5.56
0.65080	5.56
0.66747	5.56
0.68413	5.56
0.70080	5.56
0.71747	5.56
0.73413	5.56
0.75080	5.56
0.76747	5.56
0.78413	5.56
0.80080	5.56
0.81747	5.56
0.83413	5.56
0.85080	5.56
0.86747	5.56
0.88413	5.56
0.90080	5.56
0.91747	5.56
0.93413	5.56
0.95080	5.56
0.96747	5.56
0.98413	5.56
1.00080	5.56
1.01747	5.56
1.03413	5.56
1.05080	5.56
1.06747	5.56
1.08413	5.56
1.10080	5.56
1.11747	5.56
1.13413	5.56
1.15080	5.56
1.16747	5.56
1.18413	5.56
1.20080	5.56
1.21747	5.56
1.23413	5.56
1.25080	5.56
1.26747	5.56
1.28413	5.56
1.30080	5.56
1.31747	5.56
1.33413	5.56
1.35080	5.56
1.36747	5.56
1.38413	5.56
1.40080	5.56
1.41747	5.56
1.43413	5.56
1.45080	5.56
1.46747	5.56
1.48413	5.56
1.50080	5.56
1.51747	5.56
1.53413	5.56
1.55080	5.56
1.56747	5.56
1.58413	5.56
1.60080	5.56
1.61747	5.55
1.63413	5.55
1.65080	5.54
1.66747	5.53
1.68413	5.52
1.70080	5.51
1.71747	5.50
1.73413	5.49
1.75080	5.48
1.76747	5.47
1.78413	5.46
1.80080	5.45
1.81747	5.44
1.83413	5.43
1.85080	5.42
1.86747	5.41
1.88413	5.40
1.90080	5.39
1.91747	5.38
1.93413	5.37
1.95080	5.36
1.96747	5.35
1.98413	5.34
2.00080	5.33
2.01747	5.32
2.03413	5.31
2.05080	5.30
2.06747	5.29
2.08413	5.28
2.10080	5.27
2.11747	5.26
2.13413	5.25
2.15080	5.24
2.16747	5.23
2.18413	5.22
2.20080	5.21
2.21747	5.20
2.23413	5.20
2.25080	5.19
2.26747	5.18
2.28413	5.17
2.30080	5.16
2.31747	5.15
2.33413	5.14
2.35080	5.13
2.36747	5.12
2.38413	5.12
2.40080	5.12
2.41747	5.12
2.43413	5.12
2.45080	5.12
2.46747	5.12
2.48413	5.12
2.50080	5.12
2.51747	5.12
2.53413	5.12
2.55080	5.12
2.56747	5.12
2.58413	5.12
2.60080	5.12
2.61747	5.12
2.63413	5.12
2.65080	5.12
2.66747	5.11
2.68413	5.11
2.70080	5.11
2.71747	5.12
2.73413	5.12
2.75080	5.11
2.76747	5.11
2.78413	5.11
2.80080	5.11
2.81747	5.11
2.83413	5.11
2.85080	5.11
2.86747	5.11
2.88413	5.11
2.90080	5.11
2.91747	5.11
2.93413	5.11
2.95080	5.11
2.96747	5.11
2.98413	5.11
3.00080	5.11
3.01747	5.11
3.03413	5.11
3.05080	5.11
3.06747	5.11
3.08413	5.11
3.10080	5.11
3.11747	5.11
3.13413	5.11
3.15080	5.11
3.16747	5.11
3.18413	5.11
3.20080	5.11
3.21747	5.11
3.23413	5.11
3.25080	5.11
3.26747	5.11
3.28413	5.11
3.30080	5.11
3.31747	5.11
3.33413	5.11
3.35080	5.11
3.36747	5.11
3.38413	5.11
3.40080	5.11
3.41747	5.11
3.43413	5.11
3.45080	5.11
3.46747	5.11
3.48413	5.11
3.50080	5.11
3.51747	5.11
3.53413	5.11
3.55080	5.11
3.56747	5.11
3.58413	5.11
3.60080	5.11
3.61747	5.11
3.63413	5.11
3.65080	5.11
3.66747	5.11
3.68413	5.11
3.70080	5.11
3.71747	5.11
3.73413	5.11
3.75080	5.11
3.76747	5.11
3.78413	5.11
3.80080	5.11
3.81747	5.11
3.83413	5.11
3.85080	5.11
3.86747	5.11
3.88413	5.11
3.90080	5.11
3.91747	5.11
3.93413	5.11
3.95080	5.11
3.96747	5.11
3.98413	5.11

[Status Trace (Linear Velocity)]
Interval(msec)	1000
# of Points	240
Start Time(min)	0.001
End Time(min)	3.984
Intensity Units	
Intensity Multiplier	1
R.Time (min)	Intensity
0.00080	39.02
0.01747	38.06
0.03413	37.70
0.05080	39.23
0.06747	40.27
0.08413	39.35
0.10080	39.00
0.11747	39.02
0.13413	39.03
0.15080	39.03
0.16747	39.03
0.18413	39.03
0.20080	39.03
0.21747	39.02
0.23413	39.02
0.25080	39.03
0.26747	39.03
0.28413	39.03
0.30080	39.03
0.31747	39.03
0.33413	39.03
0.35080	39.03
0.36747	39.02
0.38413	39.03
0.40080	39.03
0.41747	39.03
0.43413	39.03
0.45080	39.03
0.46747	39.03
0.48413	39.03
0.50080	39.03
0.51747	39.03
0.53413	39.02
0.55080	39.02
0.56747	39.02
0.58413	39.02
0.60080	39.02
0.61747	39.02
0.63413	39.02
0.65080	39.02
0.66747	39.02
0.68413	39.02
0.70080	39.03
0.71747	39.02
0.73413	39.03
0.75080	39.03
0.76747	39.03
0.78413	39.02
0.80080	39.03
0.81747	39.03
0.83413	39.03
0.85080	39.03
0.86747	39.03
0.88413	39.03
0.90080	39.03
0.91747	39.03
0.93413	39.03
0.95080	39.03
0.96747	39.03
0.98413	39.03
1.00080	39.03
1.01747	39.03
1.03413	39.02
1.05080	39.03
1.06747	39.03
1.08413	39.03
1.10080	39.03
1.11747	39.02
1.13413	39.03
1.15080	39.03
1.16747	39.03
1.18413	39.03
1.20080	39.03
1.21747	39.03
1.23413	39.03
1.25080	39.03
1.26747	39.03
1.28413	39.03
1.30080	39.03
1.31747	39.03
1.33413	39.03
1.35080	39.03
1.36747	39.03
1.38413	39.03
1.40080	39.03
1.41747	39.03
1.43413	39.03
1.45080	39.03
1.46747	39.03
1.48413	39.03
1.50080	39.03
1.51747	39.03
1.53413	39.03
1.55080	39.03
1.56747	39.03
1.58413	39.03
1.60080	39.02
1.61747	39.02
1.63413	39.00
1.65080	38.98
1.66747	38.95
1.68413	38.92
1.70080	38.88
1.71747	38.84
1.73413	38.82
1.75080	38.78
1.76747	38.75
1.78413	38.72
1.80080	38.69
1.81747	38.66
1.83413	38.63
1.85080	38.60
1.86747	38.57
1.88413	38.54
1.90080	38.50
1.91747	38.47
1.93413	38.44
1.95080	38.41
1.96747	38.38
1.98413	38.35
2.00080	38.32
2.01747	38.29
2.03413	38.26
2.05080	38.23
2.06747	38.20
2.08413	38.17
2.10080	38.14
2.11747	38.11
2.13413	38.08
2.15080	38.05
2.16747	38.02
2.18413	38.00
2.20080	37.96
2.21747	37.93
2.23413	37.91
2.25080	37.88
2.26747	37.85
2.28413	37.82
2.30080	37.79
2.31747	37.76
2.33413	37.73
2.35080	37.70
2.36747	37.68
2.38413	37.66
2.40080	37.66
2.41747	37.67
2.43413	37.67
2.45080	37.67
2.46747	37.67
2.48413	37.67
2.50080	37.66
2.51747	37.66
2.53413	37.65
2.55080	37.66
2.56747	37.66
2.58413	37.66
2.60080	37.66
2.61747	37.66
2.63413	37.66
2.65080	37.65
2.66747	37.65
2.68413	37.65
2.70080	37.65
2.71747	37.65
2.73413	37.66
2.75080	37.65
2.76747	37.65
2.78413	37.65
2.80080	37.65
2.81747	37.65
2.83413	37.65
2.85080	37.65
2.86747	37.65
2.88413	37.65
2.90080	37.65
2.91747	37.65
2.93413	37.65
2.95080	37.65
2.96747	37.64
2.98413	37.64
3.00080	37.64
3.01747	37.64
3.03413	37.64
3.05080	37.64
3.06747	37.64
3.08413	37.64
3.10080	37.64
3.11747	37.64
3.13413	37.64
3.15080	37.64
3.16747	37.64
3.18413	37.64
3.20080	37.63
3.21747	37.63
3.23413	37.63
3.25080	37.63
3.26747	37.63
3.28413	37.63
3.30080	37.63
3.31747	37.63
3.33413	37.63
3.35080	37.63
3.36747	37.63
3.38413	37.64
3.40080	37.64
3.41747	37.64
3.43413	37.64
3.45080	37.64
3.46747	37.64
3.48413	37.64
3.50080	37.64
3.51747	37.64
3.53413	37.64
3.55080	37.64
3.56747	37.64
3.58413	37.64
3.60080	37.64
3.61747	37.64
3.63413	37.64
3.65080	37.64
3.66747	37.64
3.68413	37.64
3.70080	37.64
3.71747	37.64
3.73413	37.64
3.75080	37.64
3.76747	37.64
3.78413	37.64
3.80080	37.64
3.81747	37.64
3.83413	37.64
3.85080	37.64
3.86747	37.64
3.88413	37.64
3.90080	37.64
3.91747	37.64
3.93413	37.64
3.95080	37.64
3.96747	37.64
3.98413	37.64

