[Header]
Application Name	LabSolutions
Version	5.110
Data File Name	C:\Users\User\Desktop\GC Analyses\Jack\UIC Prairie Sampling\9.30.22\220930_016.gcd
Output Date	1/4/2023
Output Time	2:28:00 PM

[File Information]
Type	Data File
Generated	11/29/2022 1:27:14 PM
Generated by	System Administrator
Modified	11/29/2022 1:31:26 PM
Modified by	System Administrator

[Sample Information]
Operator Name	System Administrator
Acquired	11/29/2022 1:27:26 PM
Sample Type	1:Standard
Level	1
Sample Name	220930_UICPrairie
Sample ID	220930_UICPrairie
ISTD Amount1	1
ISTD Amount2	1
ISTD Amount3	1
ISTD Amount4	1
ISTD Amount5	1
ISTD Amount6	1
ISTD Amount7	1
ISTD Amount8	1
ISTD Amount9	1
ISTD Amount10	1
ISTD Amount11	1
ISTD Amount12	1
ISTD Amount13	1
ISTD Amount14	1
ISTD Amount15	1
ISTD Amount16	1
ISTD Amount17	1
ISTD Amount18	1
ISTD Amount19	1
ISTD Amount20	1
ISTD Amount21	1
ISTD Amount22	1
ISTD Amount23	1
ISTD Amount24	1
ISTD Amount25	1
ISTD Amount26	1
ISTD Amount27	1
ISTD Amount28	1
ISTD Amount29	1
ISTD Amount30	1
ISTD Amount31	1
ISTD Amount32	1
Sample Amount	1
Dilution Factor	1
Vial#	1
Injection Volume	1
Injection Count	1
Bar Code	

[Original Files]
Data File	C:\Users\User\Desktop\GC Analyses\Jack\UIC Prairie Sampling\9.30.22\220930_016.gcd
Method File	C:\LabSolutions\Data\GHG_4min_2022\ghg3_togas_w_acet_4 min_new_int.gcm
Batch File	
Report Format File	c:\LabSolutions\System\DEFAULT.lsr

[File Description]


[Configuration]
Instrument Name	C0B7VH3-Instrument1
Instrument #	1
Line #	1
# of Detectors	3
Detector ID	DET#1	DET#2	DET#3
Detector Name	FID	PTCD	ECD
# of Channels	1	1	1

[Peak Table(Ch1)]
# of Peaks	3
Peak#	R.Time	I.Time	F.Time	Area	Height	A/H	Conc.	Mark	ID#	Name	k'	Plate #	Plate Ht.	Tailing	Resolution	Sep.Factor	Area Ratio	Height Ratio	Conc. %	Norm Conc.
1	1.476	1.439	1.538	13409	6043	2.219	100.000	   	1	CO	0.000	8546	17.552	1.352	0.000	0.000	0	0	16.667	16.667
2	1.571	1.538	1.622	5158	2587	1.994	100.000	 V 	2	CH4	0.065	11268	13.313	0.000	1.550	0.000	0	0	16.667	16.667
3	2.000	1.952	2.444	1463254	707070	2.069	400.000	   	3	CO2	0.355	17847	8.405	1.214	7.205	5.500	0	0	66.667	66.667

[Peak Table(Ch2)]
# of Peaks	0

[Peak Table(Ch3)]
# of Peaks	6
Peak#	R.Time	I.Time	F.Time	Area	Height	A/H	Conc.	Mark	ID#	Name	k'	Plate #	Plate Ht.	Tailing	Resolution	Sep.Factor	Area Ratio	Height Ratio	Conc. %	Norm Conc.
1	2.458	2.268	2.506	2038	368	5.541	0.000	   			0.000	6314	23.756	0.000	0.000	0.000	0	0	0.000	0.000
2	2.521	2.506	2.557	617	223	2.761	0.000	 V 			0.025	1622	92.465	0.000	0.333	0.000	0	0	0.000	0.000
3	2.612	2.557	2.653	885	215	4.112	0.000	 V 			0.063	2888	51.934	0.000	0.412	2.471	0	0	0.000	0.000
4	2.755	2.711	2.777	25	12	2.044	0.001	   	1	N2O	0.121	29077	5.159	0.747	1.104	1.929	0	0	0.061	0.061
5	2.810	2.799	2.821	39	51	0.754	0.001	   	1	N2O	0.143	198466	0.756	0.000	1.224	1.185	0	0	0.092	0.092
6	2.887	2.821	3.962	41867	5822	7.192	0.998	 V 	1	N2O	0.175	11535	13.004	6.625	1.160	1.219	0	0	99.847	99.847

[Compound Results(Ch1)]
# of IDs	6
ID#	Name	R.Time	Area	Height	Conc.	Curve	3rd	2nd	1st	Constant	Area Ratio	Height Ratio	Conc. %	Norm Conc.
1	CO	1.476	13409	6043	100.000	Linear	0.000000e+00	0.000000e+00	1.340907e+002	0.000000e+00	0	0	16.667	16.667
2	CH4	1.571	5158	2587	100.000	Linear	0.000000e+00	0.000000e+00	5.158296e+001	0.000000e+00	0	0	16.667	16.667
3	CO2	2.000	1463254	707070	400.000	Linear	0.000000e+00	0.000000e+00	3.658136e+003	0.000000e+00	0	0	66.667	66.667
4	Ethylene	0.000	0	0	0.000	Linear	0.000000e+00	0.000000e+00	0.000000e+00	0.000000e+00	0	0	0.000	0.000
5	Acetylene	0.000	0	0	0.000	Linear	0.000000e+00	0.000000e+00	0.000000e+00	0.000000e+00	0	0	0.000	0.000
6	Ethane	0.000	0	0	0.000	Linear	0.000000e+00	0.000000e+00	0.000000e+00	0.000000e+00	0	0	0.000	0.000

[Compound Results(Ch2)]
# of IDs	5
ID#	Name	R.Time	Area	Height	Conc.	Curve	3rd	2nd	1st	Constant	Area Ratio	Height Ratio	Conc. %	Norm Conc.
1	Hydrogen	0.000	0	0	0.000	Linear	0.000000e+00	0.000000e+00	0.000000e+00	0.000000e+00	0	0	0.000	0.000
2	Oxygen	0.000	0	0	0.000	Linear	0.000000e+00	0.000000e+00	0.000000e+00	0.000000e+00	0	0	0.000	0.000
3	Nitrogen	0.000	0	0	0.000	Linear	0.000000e+00	0.000000e+00	0.000000e+00	0.000000e+00	0	0	0.000	0.000
4	Methane	0.000	0	0	0.000	Linear	0.000000e+00	0.000000e+00	0.000000e+00	0.000000e+00	0	0	0.000	0.000
5	Carbon Monoxide	0.000	0	0	0.000	Linear	0.000000e+00	0.000000e+00	0.000000e+00	0.000000e+00	0	0	0.000	0.000

[Compound Results(Ch3)]
# of IDs	2
ID#	Name	R.Time	Area	Height	Conc.	Curve	3rd	2nd	1st	Constant	Area Ratio	Height Ratio	Conc. %	Norm Conc.
1	N2O	2.887	41931	5885	1.000	Linear	0.000000e+00	0.000000e+00	4.193143e+004	0.000000e+00	0	0	100.000	100.000
2	SF6	0.000	0	0	0.000	Linear	0.000000e+00	0.000000e+00	0.000000e+00	0.000000e+00	0	0	0.000	0.000

[Group Results(Ch1)]
# of Groups	0

[Group Results(Ch2)]
# of Groups	0

[Group Results(Ch3)]
# of Groups	0

[Chromatogram (Ch1)]
Interval(msec)	220
# of Points	1091
Start Time(min)	0.002
End Time(min)	3.998
R.Time (min)	Intensity
0.00167	43
0.00533	44
0.00900	44
0.01267	43
0.01633	42
0.02000	41
0.02367	37
0.02733	43
0.03100	65
0.03467	91
0.03833	111
0.04200	126
0.04567	132
0.04933	130
0.05300	121
0.05667	111
0.06033	100
0.06400	83
0.06767	69
0.07133	63
0.07500	62
0.07867	61
0.08233	62
0.08600	67
0.08967	75
0.09333	83
0.09700	86
0.10067	89
0.10433	86
0.10800	79
0.11167	75
0.11533	75
0.11900	76
0.12267	78
0.12633	74
0.13000	70
0.13367	66
0.13733	64
0.14100	67
0.14467	71
0.14833	79
0.15200	85
0.15567	89
0.15933	89
0.16300	86
0.16667	82
0.17033	77
0.17400	69
0.17767	62
0.18133	60
0.18500	64
0.18867	72
0.19233	78
0.19600	83
0.19967	85
0.20333	87
0.20700	87
0.21067	87
0.21433	90
0.21800	90
0.22167	87
0.22533	81
0.22900	77
0.23267	74
0.23633	71
0.24000	68
0.24367	63
0.24733	61
0.25100	63
0.25467	68
0.25833	75
0.26200	80
0.26567	80
0.26933	80
0.27300	81
0.27667	80
0.28033	79
0.28400	83
0.28767	87
0.29133	89
0.29500	87
0.29867	82
0.30233	78
0.30600	73
0.30967	68
0.31333	65
0.31700	62
0.32067	59
0.32433	55
0.32800	52
0.33167	53
0.33533	56
0.33900	59
0.34267	61
0.34633	62
0.35000	64
0.35367	65
0.35733	67
0.36100	69
0.36467	70
0.36833	68
0.37200	70
0.37567	73
0.37933	74
0.38300	73
0.38667	70
0.39033	67
0.39400	65
0.39767	65
0.40133	67
0.40500	66
0.40867	64
0.41233	63
0.41600	63
0.41967	60
0.42333	55
0.42700	51
0.43067	50
0.43433	49
0.43800	47
0.44167	49
0.44533	54
0.44900	59
0.45267	59
0.45633	59
0.46000	58
0.46367	61
0.46733	64
0.47100	63
0.47467	57
0.47833	51
0.48200	43
0.48567	34
0.48933	26
0.49300	24
0.49667	26
0.50033	29
0.50400	31
0.50767	37
0.51133	46
0.51500	53
0.51867	55
0.52233	51
0.52600	45
0.52967	40
0.53333	37
0.53700	35
0.54067	35
0.54433	37
0.54800	38
0.55167	34
0.55533	29
0.55900	30
0.56267	34
0.56633	41
0.57000	45
0.57367	49
0.57733	52
0.58100	52
0.58467	51
0.58833	50
0.59200	52
0.59567	57
0.59933	61
0.60300	62
0.60667	61
0.61033	59
0.61400	59
0.61767	59
0.62133	59
0.62500	53
0.62867	43
0.63233	31
0.63600	27
0.63967	24
0.64333	24
0.64700	28
0.65067	34
0.65433	38
0.65800	41
0.66167	43
0.66533	43
0.66900	43
0.67267	49
0.67633	54
0.68000	56
0.68367	58
0.68733	56
0.69100	51
0.69467	45
0.69833	42
0.70200	40
0.70567	40
0.70933	39
0.71300	41
0.71667	47
0.72033	48
0.72400	45
0.72767	40
0.73133	34
0.73500	28
0.73867	24
0.74233	26
0.74600	30
0.74967	34
0.75333	38
0.75700	46
0.76067	57
0.76433	62
0.76800	60
0.77167	54
0.77533	46
0.77900	39
0.78267	34
0.78633	31
0.79000	29
0.79367	23
0.79733	19
0.80100	17
0.80467	14
0.80833	11
0.81200	12
0.81567	14
0.81933	17
0.82300	20
0.82667	24
0.83033	27
0.83400	26
0.83767	22
0.84133	14
0.84500	7
0.84867	5
0.85233	8
0.85600	12
0.85967	17
0.86333	25
0.86700	33
0.87067	36
0.87433	34
0.87800	28
0.88167	20
0.88533	12
0.88900	7
0.89267	6
0.89633	11
0.90000	16
0.90367	16
0.90733	13
0.91100	11
0.91467	9
0.91833	7
0.92200	7
0.92567	7
0.92933	6
0.93300	7
0.93667	10
0.94033	12
0.94400	16
0.94767	20
0.95133	18
0.95500	14
0.95867	11
0.96233	9
0.96600	5
0.96967	-1
0.97333	-6
0.97700	-5
0.98067	0
0.98433	7
0.98800	14
0.99167	21
0.99533	27
0.99900	28
1.00267	25
1.00633	20
1.01000	15
1.01367	14
1.01733	18
1.02100	24
1.02467	27
1.02833	25
1.03200	20
1.03567	14
1.03933	7
1.04300	-1
1.04667	-6
1.05033	-7
1.05400	-5
1.05767	-5
1.06133	-7
1.06500	-10
1.06867	-9
1.07233	-7
1.07600	-5
1.07967	-4
1.08333	-2
1.08700	-0
1.09067	1
1.09433	3
1.09800	4
1.10167	5
1.10533	3
1.10900	1
1.11267	0
1.11633	-1
1.12000	-0
1.12367	-0
1.12733	-3
1.13100	-8
1.13467	-14
1.13833	-19
1.14200	-22
1.14567	-19
1.14933	-11
1.15300	-2
1.15667	1
1.16033	1
1.16400	-1
1.16767	-3
1.17133	-1
1.17500	2
1.17867	6
1.18233	8
1.18600	7
1.18967	7
1.19333	6
1.19700	6
1.20067	3
1.20433	-0
1.20800	-6
1.21167	-13
1.21533	-16
1.21900	-16
1.22267	-12
1.22633	-6
1.23000	-3
1.23367	-7
1.23733	-16
1.24100	-25
1.24467	-30
1.24833	-32
1.25200	-35
1.25567	-37
1.25933	-37
1.26300	-36
1.26667	-33
1.27033	-24
1.27400	-11
1.27767	-2
1.28133	-0
1.28500	-2
1.28867	-9
1.29233	-18
1.29600	-28
1.29967	-33
1.30333	-33
1.30700	-33
1.31067	-37
1.31433	-43
1.31800	-49
1.32167	-51
1.32533	-53
1.32900	-55
1.33267	-54
1.33633	-50
1.34000	-45
1.34367	-38
1.34733	-34
1.35100	-31
1.35467	-26
1.35833	-20
1.36200	-19
1.36567	-21
1.36933	-26
1.37300	-33
1.37667	-39
1.38033	-43
1.38400	-42
1.38767	-39
1.39133	-35
1.39500	-30
1.39867	-25
1.40233	-16
1.40600	-6
1.40967	-2
1.41333	-8
1.41700	-23
1.42067	-36
1.42433	-48
1.42800	-57
1.43167	-60
1.43533	-61
1.43900	-51
1.44267	8
1.44633	182
1.45000	499
1.45367	1041
1.45733	1901
1.46100	2987
1.46467	4076
1.46833	4992
1.47200	5649
1.47567	5995
1.47933	5981
1.48300	5594
1.48667	4895
1.49033	4029
1.49400	3155
1.49767	2383
1.50133	1759
1.50500	1282
1.50867	931
1.51233	678
1.51600	499
1.51967	369
1.52333	275
1.52700	210
1.53067	164
1.53433	129
1.53800	108
1.54167	126
1.54533	247
1.54900	531
1.55267	966
1.55633	1461
1.56000	1916
1.56367	2271
1.56733	2493
1.57100	2548
1.57467	2407
1.57833	2090
1.58200	1680
1.58567	1267
1.58933	906
1.59300	623
1.59667	416
1.60033	273
1.60400	175
1.60767	103
1.61133	49
1.61500	8
1.61867	-20
1.62233	-34
1.62600	-36
1.62967	-34
1.63333	-31
1.63700	-32
1.64067	-36
1.64433	-40
1.64800	-44
1.65167	-44
1.65533	-45
1.65900	-47
1.66267	-47
1.66633	-49
1.67000	-54
1.67367	-62
1.67733	-69
1.68100	-72
1.68467	-72
1.68833	-70
1.69200	-67
1.69567	-63
1.69933	-58
1.70300	-53
1.70667	-49
1.71033	-46
1.71400	-46
1.71767	-48
1.72133	-50
1.72500	-52
1.72867	-52
1.73233	-52
1.73600	-50
1.73967	-45
1.74333	-34
1.74700	-26
1.75067	-27
1.75433	-37
1.75800	-47
1.76167	-53
1.76533	-54
1.76900	-52
1.77267	-48
1.77633	-46
1.78000	-44
1.78367	-44
1.78733	-43
1.79100	-45
1.79467	-46
1.79833	-43
1.80200	-44
1.80567	-49
1.80933	-54
1.81300	-58
1.81667	-63
1.82033	-71
1.82400	-79
1.82767	-84
1.83133	-78
1.83500	-66
1.83867	-54
1.84233	-47
1.84600	-43
1.84967	-40
1.85333	-40
1.85700	-46
1.86067	-53
1.86433	-57
1.86800	-56
1.87167	-56
1.87533	-61
1.87900	-66
1.88267	-69
1.88633	-70
1.89000	-69
1.89367	-65
1.89733	-59
1.90100	-54
1.90467	-49
1.90833	-43
1.91200	-39
1.91567	-35
1.91933	-34
1.92300	-33
1.92667	-27
1.93033	-25
1.93400	-25
1.93767	-31
1.94133	-37
1.94500	-42
1.94867	-44
1.95233	-40
1.95600	-1
1.95967	254
1.96333	1608
1.96700	7113
1.97067	24146
1.97433	64840
1.97800	140593
1.98167	252456
1.98533	386303
1.98900	518607
1.99267	626224
1.99633	692149
2.00000	707065
2.00367	670893
2.00733	593531
2.01100	492301
2.01467	385984
2.01833	289042
2.02200	209114
2.02567	147831
2.02933	103207
2.03300	71842
2.03667	50291
2.04033	35672
2.04400	25802
2.04767	19126
2.05133	14574
2.05500	11431
2.05867	9222
2.06233	7637
2.06600	6473
2.06967	5599
2.07333	4924
2.07700	4389
2.08067	3954
2.08433	3594
2.08800	3289
2.09167	3028
2.09533	2806
2.09900	2615
2.10267	2448
2.10633	2302
2.11000	2170
2.11367	2047
2.11733	1934
2.12100	1834
2.12467	1746
2.12833	1669
2.13200	1599
2.13567	1532
2.13933	1466
2.14300	1406
2.14667	1351
2.15033	1301
2.15400	1256
2.15767	1214
2.16133	1175
2.16500	1137
2.16867	1099
2.17233	1061
2.17600	1025
2.17967	987
2.18333	948
2.18700	915
2.19067	886
2.19433	866
2.19800	850
2.20167	834
2.20533	815
2.20900	797
2.21267	782
2.21633	766
2.22000	749
2.22367	735
2.22733	721
2.23100	705
2.23467	686
2.23833	666
2.24200	648
2.24567	631
2.24933	611
2.25300	591
2.25667	573
2.26033	558
2.26400	546
2.26767	540
2.27133	538
2.27500	534
2.27867	526
2.28233	520
2.28600	513
2.28967	504
2.29333	497
2.29700	493
2.30067	493
2.30433	491
2.30800	487
2.31167	480
2.31533	470
2.31900	456
2.32267	442
2.32633	432
2.33000	427
2.33367	426
2.33733	426
2.34100	425
2.34467	422
2.34833	414
2.35200	405
2.35567	394
2.35933	386
2.36300	379
2.36667	374
2.37033	372
2.37400	372
2.37767	369
2.38133	364
2.38500	358
2.38867	353
2.39233	351
2.39600	352
2.39967	353
2.40333	353
2.40700	353
2.41067	349
2.41433	346
2.41800	344
2.42167	339
2.42533	333
2.42900	328
2.43267	326
2.43633	325
2.44000	324
2.44367	323
2.44733	321
2.45100	318
2.45467	315
2.45833	315
2.46200	316
2.46567	315
2.46933	311
2.47300	308
2.47667	303
2.48033	298
2.48400	293
2.48767	288
2.49133	285
2.49500	280
2.49867	275
2.50233	273
2.50600	269
2.50967	265
2.51333	265
2.51700	270
2.52067	277
2.52433	280
2.52800	278
2.53167	272
2.53533	264
2.53900	258
2.54267	253
2.54633	251
2.55000	251
2.55367	249
2.55733	247
2.56100	244
2.56467	243
2.56833	244
2.57200	247
2.57567	245
2.57933	242
2.58300	237
2.58667	233
2.59033	231
2.59400	229
2.59767	230
2.60133	231
2.60500	228
2.60867	224
2.61233	220
2.61600	219
2.61967	220
2.62333	223
2.62700	225
2.63067	222
2.63433	217
2.63800	217
2.64167	217
2.64533	215
2.64900	215
2.65267	217
2.65633	217
2.66000	219
2.66367	219
2.66733	218
2.67100	215
2.67467	212
2.67833	208
2.68200	201
2.68567	196
2.68933	197
2.69300	199
2.69667	202
2.70033	204
2.70400	206
2.70767	208
2.71133	212
2.71500	214
2.71867	213
2.72233	211
2.72600	209
2.72967	202
2.73333	196
2.73700	193
2.74067	190
2.74433	186
2.74800	182
2.75167	175
2.75533	170
2.75900	169
2.76267	173
2.76633	180
2.77000	186
2.77367	191
2.77733	194
2.78100	193
2.78467	189
2.78833	186
2.79200	185
2.79567	186
2.79933	188
2.80300	188
2.80667	184
2.81033	179
2.81400	174
2.81767	172
2.82133	173
2.82500	176
2.82867	179
2.83233	183
2.83600	187
2.83967	192
2.84333	194
2.84700	188
2.85067	181
2.85433	176
2.85800	171
2.86167	166
2.86533	159
2.86900	154
2.87267	152
2.87633	151
2.88000	153
2.88367	157
2.88733	163
2.89100	168
2.89467	178
2.89833	189
2.90200	197
2.90567	201
2.90933	199
2.91300	197
2.91667	197
2.92033	200
2.92400	201
2.92767	197
2.93133	186
2.93500	170
2.93867	156
2.94233	148
2.94600	140
2.94967	132
2.95333	126
2.95700	125
2.96067	129
2.96433	132
2.96800	133
2.97167	137
2.97533	139
2.97900	140
2.98267	142
2.98633	147
2.99000	153
2.99367	159
2.99733	165
3.00100	172
3.00467	178
3.00833	182
3.01200	184
3.01567	183
3.01933	179
3.02300	174
3.02667	171
3.03033	171
3.03400	176
3.03767	182
3.04133	186
3.04500	188
3.04867	186
3.05233	180
3.05600	171
3.05967	161
3.06333	154
3.06700	152
3.07067	153
3.07433	157
3.07800	159
3.08167	158
3.08533	158
3.08900	158
3.09267	158
3.09633	159
3.10000	161
3.10367	166
3.10733	170
3.11100	173
3.11467	173
3.11833	167
3.12200	158
3.12567	151
3.12933	150
3.13300	152
3.13667	154
3.14033	154
3.14400	153
3.14767	151
3.15133	151
3.15500	152
3.15867	150
3.16233	149
3.16600	149
3.16967	151
3.17333	154
3.17700	160
3.18067	166
3.18433	169
3.18800	166
3.19167	160
3.19533	158
3.19900	156
3.20267	155
3.20633	155
3.21000	160
3.21367	166
3.21733	170
3.22100	169
3.22467	163
3.22833	151
3.23200	137
3.23567	127
3.23933	125
3.24300	128
3.24667	132
3.25033	139
3.25400	142
3.25767	141
3.26133	139
3.26500	139
3.26867	136
3.27233	135
3.27600	137
3.27967	141
3.28333	144
3.28700	144
3.29067	146
3.29433	149
3.29800	155
3.30167	158
3.30533	157
3.30900	154
3.31267	156
3.31633	156
3.32000	153
3.32367	148
3.32733	146
3.33100	144
3.33467	141
3.33833	138
3.34200	136
3.34567	137
3.34933	140
3.35300	141
3.35667	140
3.36033	138
3.36400	135
3.36767	133
3.37133	129
3.37500	129
3.37867	129
3.38233	128
3.38600	129
3.38967	130
3.39333	133
3.39700	137
3.40067	135
3.40433	132
3.40800	130
3.41167	130
3.41533	129
3.41900	129
3.42267	128
3.42633	128
3.43000	129
3.43367	130
3.43733	133
3.44100	133
3.44467	130
3.44833	127
3.45200	127
3.45567	127
3.45933	127
3.46300	125
3.46667	123
3.47033	122
3.47400	119
3.47767	120
3.48133	126
3.48500	132
3.48867	136
3.49233	140
3.49600	141
3.49967	136
3.50333	124
3.50700	111
3.51067	102
3.51433	98
3.51800	98
3.52167	102
3.52533	105
3.52900	104
3.53267	101
3.53633	101
3.54000	104
3.54367	110
3.54733	117
3.55100	124
3.55467	125
3.55833	123
3.56200	117
3.56567	109
3.56933	99
3.57300	91
3.57667	85
3.58033	81
3.58400	79
3.58767	81
3.59133	90
3.59500	102
3.59867	113
3.60233	118
3.60600	117
3.60967	115
3.61333	110
3.61700	104
3.62067	98
3.62433	96
3.62800	101
3.63167	110
3.63533	120
3.63900	123
3.64267	118
3.64633	111
3.65000	106
3.65367	102
3.65733	101
3.66100	98
3.66467	92
3.66833	90
3.67200	93
3.67567	96
3.67933	96
3.68300	98
3.68667	101
3.69033	101
3.69400	98
3.69767	92
3.70133	90
3.70500	88
3.70867	88
3.71233	90
3.71600	90
3.71967	91
3.72333	96
3.72700	100
3.73067	100
3.73433	98
3.73800	96
3.74167	93
3.74533	93
3.74900	94
3.75267	96
3.75633	98
3.76000	99
3.76367	101
3.76733	101
3.77100	101
3.77467	99
3.77833	99
3.78200	97
3.78567	94
3.78933	89
3.79300	84
3.79667	79
3.80033	76
3.80400	73
3.80767	73
3.81133	78
3.81500	86
3.81867	94
3.82233	99
3.82600	102
3.82967	100
3.83333	94
3.83700	91
3.84067	90
3.84433	88
3.84800	85
3.85167	84
3.85533	86
3.85900	89
3.86267	89
3.86633	88
3.87000	85
3.87367	80
3.87733	77
3.88100	78
3.88467	83
3.88833	89
3.89200	95
3.89567	96
3.89933	91
3.90300	87
3.90667	85
3.91033	84
3.91400	84
3.91767	86
3.92133	88
3.92500	88
3.92867	85
3.93233	81
3.93600	77
3.93967	74
3.94333	70
3.94700	71
3.95067	79
3.95433	88
3.95800	91
3.96167	91
3.96533	89
3.96900	88
3.97267	89
3.97633	89
3.98000	89
3.98367	91
3.98733	95
3.99100	105
3.99467	114
3.99833	121

[Chromatogram (Ch2)]
Interval(msec)	220
# of Points	1091
Start Time(min)	0.002
End Time(min)	3.998
R.Time (min)	Intensity
0.00167	-1
0.00533	-1
0.00900	-1
0.01267	-1
0.01633	-1
0.02000	-1
0.02367	-2
0.02733	-2
0.03100	-2
0.03467	-2
0.03833	-2
0.04200	-2
0.04567	-2
0.04933	-2
0.05300	-1
0.05667	-1
0.06033	-1
0.06400	-1
0.06767	-1
0.07133	-1
0.07500	-1
0.07867	-2
0.08233	-2
0.08600	-2
0.08967	-2
0.09333	-2
0.09700	-2
0.10067	-1
0.10433	-1
0.10800	-1
0.11167	-1
0.11533	-1
0.11900	-1
0.12267	-1
0.12633	-2
0.13000	-2
0.13367	-2
0.13733	-2
0.14100	-2
0.14467	-2
0.14833	-2
0.15200	-2
0.15567	-2
0.15933	-2
0.16300	-2
0.16667	-1
0.17033	-1
0.17400	-1
0.17767	-1
0.18133	-1
0.18500	-1
0.18867	-1
0.19233	-1
0.19600	-1
0.19967	-1
0.20333	-1
0.20700	-2
0.21067	-2
0.21433	-2
0.21800	-2
0.22167	-2
0.22533	-2
0.22900	-2
0.23267	-2
0.23633	-2
0.24000	-2
0.24367	-3
0.24733	-3
0.25100	-3
0.25467	-3
0.25833	-3
0.26200	-3
0.26567	-3
0.26933	-3
0.27300	-3
0.27667	-3
0.28033	-3
0.28400	-3
0.28767	-3
0.29133	-2
0.29500	-2
0.29867	-2
0.30233	-2
0.30600	-2
0.30967	-1
0.31333	-1
0.31700	-1
0.32067	-1
0.32433	-1
0.32800	-1
0.33167	-1
0.33533	-1
0.33900	-1
0.34267	-2
0.34633	-2
0.35000	-3
0.35367	-3
0.35733	-3
0.36100	-3
0.36467	-4
0.36833	-4
0.37200	-4
0.37567	-4
0.37933	-4
0.38300	-4
0.38667	-4
0.39033	-3
0.39400	-3
0.39767	-3
0.40133	-3
0.40500	-3
0.40867	-3
0.41233	-3
0.41600	-3
0.41967	-3
0.42333	-4
0.42700	-4
0.43067	-4
0.43433	-4
0.43800	-4
0.44167	-4
0.44533	-4
0.44900	-4
0.45267	-3
0.45633	-3
0.46000	-3
0.46367	-3
0.46733	-3
0.47100	-3
0.47467	-3
0.47833	-3
0.48200	-3
0.48567	-3
0.48933	-3
0.49300	-3
0.49667	-3
0.50033	-3
0.50400	-3
0.50767	-3
0.51133	-3
0.51500	-3
0.51867	-3
0.52233	-3
0.52600	-3
0.52967	-3
0.53333	-3
0.53700	-3
0.54067	-3
0.54433	-3
0.54800	-3
0.55167	-3
0.55533	-3
0.55900	-3
0.56267	-4
0.56633	-4
0.57000	-4
0.57367	-4
0.57733	-4
0.58100	-4
0.58467	-4
0.58833	-4
0.59200	-5
0.59567	-5
0.59933	-5
0.60300	-4
0.60667	-4
0.61033	-4
0.61400	-4
0.61767	-4
0.62133	-4
0.62500	-3
0.62867	-3
0.63233	-3
0.63600	-3
0.63967	-3
0.64333	-3
0.64700	-3
0.65067	-3
0.65433	-3
0.65800	-3
0.66167	-2
0.66533	-3
0.66900	-3
0.67267	-3
0.67633	-3
0.68000	-3
0.68367	-3
0.68733	-3
0.69100	-3
0.69467	-3
0.69833	-3
0.70200	-3
0.70567	-3
0.70933	-3
0.71300	-3
0.71667	-3
0.72033	-3
0.72400	-3
0.72767	-3
0.73133	-3
0.73500	-3
0.73867	-3
0.74233	-3
0.74600	-3
0.74967	-3
0.75333	-3
0.75700	-3
0.76067	-3
0.76433	-3
0.76800	-3
0.77167	-3
0.77533	-3
0.77900	-4
0.78267	-4
0.78633	-4
0.79000	-5
0.79367	-5
0.79733	-5
0.80100	-5
0.80467	-5
0.80833	-5
0.81200	-5
0.81567	-5
0.81933	-5
0.82300	-5
0.82667	-4
0.83033	-4
0.83400	-4
0.83767	-5
0.84133	-5
0.84500	-4
0.84867	-4
0.85233	-4
0.85600	-4
0.85967	-4
0.86333	-4
0.86700	-4
0.87067	-4
0.87433	-3
0.87800	-3
0.88167	-3
0.88533	-3
0.88900	-3
0.89267	-3
0.89633	-3
0.90000	-3
0.90367	-3
0.90733	-3
0.91100	-3
0.91467	-3
0.91833	-3
0.92200	-3
0.92567	-3
0.92933	-3
0.93300	-3
0.93667	-3
0.94033	-3
0.94400	-3
0.94767	-3
0.95133	-3
0.95500	-3
0.95867	-3
0.96233	-3
0.96600	-3
0.96967	-3
0.97333	-3
0.97700	-4
0.98067	-4
0.98433	-4
0.98800	-4
0.99167	-4
0.99533	-4
0.99900	-5
1.00267	-5
1.00633	-5
1.01000	-4
1.01367	-4
1.01733	-4
1.02100	-4
1.02467	-4
1.02833	-4
1.03200	-3
1.03567	-3
1.03933	-3
1.04300	-3
1.04667	-4
1.05033	-4
1.05400	-4
1.05767	-4
1.06133	-4
1.06500	-5
1.06867	-5
1.07233	-5
1.07600	-4
1.07967	-4
1.08333	-4
1.08700	-4
1.09067	-4
1.09433	-4
1.09800	-4
1.10167	-4
1.10533	-4
1.10900	-4
1.11267	-4
1.11633	-4
1.12000	-4
1.12367	-5
1.12733	-5
1.13100	-5
1.13467	-5
1.13833	-5
1.14200	-5
1.14567	-5
1.14933	-5
1.15300	-5
1.15667	-5
1.16033	-5
1.16400	-5
1.16767	-5
1.17133	-6
1.17500	-6
1.17867	-5
1.18233	-5
1.18600	-5
1.18967	-5
1.19333	-4
1.19700	-4
1.20067	-3
1.20433	-3
1.20800	-3
1.21167	-3
1.21533	-3
1.21900	-3
1.22267	-3
1.22633	-3
1.23000	-4
1.23367	-4
1.23733	-4
1.24100	-3
1.24467	-3
1.24833	-3
1.25200	-3
1.25567	-3
1.25933	-3
1.26300	-3
1.26667	-3
1.27033	-3
1.27400	-3
1.27767	-3
1.28133	-4
1.28500	-4
1.28867	-4
1.29233	-4
1.29600	-4
1.29967	-4
1.30333	-4
1.30700	-3
1.31067	-3
1.31433	-3
1.31800	-3
1.32167	-3
1.32533	-4
1.32900	-4
1.33267	-4
1.33633	-4
1.34000	-4
1.34367	-4
1.34733	-4
1.35100	-4
1.35467	-4
1.35833	-4
1.36200	-4
1.36567	-4
1.36933	-4
1.37300	-4
1.37667	-4
1.38033	-4
1.38400	-4
1.38767	-4
1.39133	-4
1.39500	-4
1.39867	-5
1.40233	-5
1.40600	-5
1.40967	-5
1.41333	-5
1.41700	-6
1.42067	-6
1.42433	-6
1.42800	-6
1.43167	-6
1.43533	-6
1.43900	-7
1.44267	-7
1.44633	-6
1.45000	-6
1.45367	-6
1.45733	-5
1.46100	-5
1.46467	-5
1.46833	-5
1.47200	-5
1.47567	-5
1.47933	-5
1.48300	-5
1.48667	-5
1.49033	-5
1.49400	-5
1.49767	-5
1.50133	-5
1.50500	-6
1.50867	-6
1.51233	-6
1.51600	-6
1.51967	-6
1.52333	-6
1.52700	-6
1.53067	-6
1.53433	-6
1.53800	-6
1.54167	-5
1.54533	-5
1.54900	-5
1.55267	-4
1.55633	-4
1.56000	-4
1.56367	-3
1.56733	-3
1.57100	-2
1.57467	-2
1.57833	-2
1.58200	-2
1.58567	-2
1.58933	-3
1.59300	-3
1.59667	-4
1.60033	-5
1.60400	-6
1.60767	-7
1.61133	-8
1.61500	-10
1.61867	-13
1.62233	-15
1.62600	-18
1.62967	-21
1.63333	-25
1.63700	-28
1.64067	-32
1.64433	-36
1.64800	-39
1.65167	-43
1.65533	-47
1.65900	-51
1.66267	-55
1.66633	-59
1.67000	-64
1.67367	-69
1.67733	-73
1.68100	-78
1.68467	-83
1.68833	-87
1.69200	-91
1.69567	-94
1.69933	-97
1.70300	-100
1.70667	-102
1.71033	-104
1.71400	-106
1.71767	-107
1.72133	-108
1.72500	-109
1.72867	-110
1.73233	-111
1.73600	-112
1.73967	-112
1.74333	-113
1.74700	-114
1.75067	-114
1.75433	-114
1.75800	-114
1.76167	-114
1.76533	-114
1.76900	-114
1.77267	-114
1.77633	-113
1.78000	-113
1.78367	-113
1.78733	-114
1.79100	-115
1.79467	-116
1.79833	-117
1.80200	-118
1.80567	-119
1.80933	-120
1.81300	-120
1.81667	-120
1.82033	-120
1.82400	-120
1.82767	-120
1.83133	-120
1.83500	-120
1.83867	-120
1.84233	-120
1.84600	-120
1.84967	-120
1.85333	-120
1.85700	-120
1.86067	-119
1.86433	-119
1.86800	-118
1.87167	-118
1.87533	-118
1.87900	-119
1.88267	-119
1.88633	-120
1.89000	-120
1.89367	-120
1.89733	-120
1.90100	-119
1.90467	-119
1.90833	-119
1.91200	-119
1.91567	-119
1.91933	-119
1.92300	-119
1.92667	-119
1.93033	-119
1.93400	-119
1.93767	-118
1.94133	-118
1.94500	-117
1.94867	-116
1.95233	-116
1.95600	-115
1.95967	-115
1.96333	-115
1.96700	-115
1.97067	-115
1.97433	-115
1.97800	-115
1.98167	-115
1.98533	-115
1.98900	-115
1.99267	-115
1.99633	-114
2.00000	-114
2.00367	-114
2.00733	-114
2.01100	-114
2.01467	-114
2.01833	-114
2.02200	-115
2.02567	-115
2.02933	-115
2.03300	-115
2.03667	-115
2.04033	-114
2.04400	-114
2.04767	-113
2.05133	-113
2.05500	-113
2.05867	-112
2.06233	-112
2.06600	-111
2.06967	-111
2.07333	-110
2.07700	-109
2.08067	-109
2.08433	-109
2.08800	-108
2.09167	-108
2.09533	-108
2.09900	-107
2.10267	-107
2.10633	-107
2.11000	-106
2.11367	-106
2.11733	-106
2.12100	-105
2.12467	-105
2.12833	-105
2.13200	-104
2.13567	-104
2.13933	-103
2.14300	-103
2.14667	-102
2.15033	-102
2.15400	-102
2.15767	-102
2.16133	-102
2.16500	-102
2.16867	-102
2.17233	-102
2.17600	-101
2.17967	-101
2.18333	-100
2.18700	-99
2.19067	-98
2.19433	-97
2.19800	-97
2.20167	-96
2.20533	-96
2.20900	-96
2.21267	-95
2.21633	-95
2.22000	-95
2.22367	-96
2.22733	-96
2.23100	-96
2.23467	-96
2.23833	-96
2.24200	-95
2.24567	-95
2.24933	-95
2.25300	-95
2.25667	-95
2.26033	-95
2.26400	-95
2.26767	-95
2.27133	-95
2.27500	-94
2.27867	-94
2.28233	-93
2.28600	-92
2.28967	-91
2.29333	-90
2.29700	-89
2.30067	-88
2.30433	-88
2.30800	-87
2.31167	-87
2.31533	-87
2.31900	-87
2.32267	-86
2.32633	-86
2.33000	-85
2.33367	-85
2.33733	-85
2.34100	-84
2.34467	-84
2.34833	-84
2.35200	-84
2.35567	-83
2.35933	-83
2.36300	-82
2.36667	-81
2.37033	-79
2.37400	-78
2.37767	-75
2.38133	-73
2.38500	-70
2.38867	-66
2.39233	-63
2.39600	-59
2.39967	-55
2.40333	-51
2.40700	-47
2.41067	-42
2.41433	-38
2.41800	-34
2.42167	-31
2.42533	-28
2.42900	-25
2.43267	-23
2.43633	-20
2.44000	-18
2.44367	-16
2.44733	-15
2.45100	-13
2.45467	-12
2.45833	-10
2.46200	-8
2.46567	-7
2.46933	-6
2.47300	-5
2.47667	-3
2.48033	-2
2.48400	-1
2.48767	0
2.49133	2
2.49500	3
2.49867	4
2.50233	5
2.50600	6
2.50967	7
2.51333	7
2.51700	7
2.52067	8
2.52433	8
2.52800	8
2.53167	9
2.53533	9
2.53900	9
2.54267	10
2.54633	10
2.55000	11
2.55367	11
2.55733	11
2.56100	11
2.56467	11
2.56833	11
2.57200	11
2.57567	11
2.57933	11
2.58300	11
2.58667	11
2.59033	11
2.59400	11
2.59767	11
2.60133	11
2.60500	11
2.60867	12
2.61233	12
2.61600	13
2.61967	14
2.62333	14
2.62700	15
2.63067	15
2.63433	15
2.63800	14
2.64167	14
2.64533	14
2.64900	15
2.65267	15
2.65633	15
2.66000	16
2.66367	16
2.66733	17
2.67100	17
2.67467	17
2.67833	18
2.68200	18
2.68567	18
2.68933	18
2.69300	18
2.69667	18
2.70033	18
2.70400	18
2.70767	19
2.71133	19
2.71500	19
2.71867	19
2.72233	20
2.72600	20
2.72967	20
2.73333	20
2.73700	20
2.74067	21
2.74433	21
2.74800	21
2.75167	21
2.75533	22
2.75900	22
2.76267	22
2.76633	23
2.77000	23
2.77367	23
2.77733	23
2.78100	23
2.78467	22
2.78833	22
2.79200	22
2.79567	21
2.79933	21
2.80300	21
2.80667	21
2.81033	21
2.81400	21
2.81767	21
2.82133	21
2.82500	21
2.82867	22
2.83233	22
2.83600	22
2.83967	22
2.84333	22
2.84700	22
2.85067	22
2.85433	20
2.85800	18
2.86167	14
2.86533	7
2.86900	-2
2.87267	-14
2.87633	-30
2.88000	-50
2.88367	-74
2.88733	-101
2.89100	-133
2.89467	-168
2.89833	-206
2.90200	-247
2.90567	-290
2.90933	-336
2.91300	-383
2.91667	-432
2.92033	-482
2.92400	-532
2.92767	-582
2.93133	-632
2.93500	-682
2.93867	-731
2.94233	-780
2.94600	-830
2.94967	-884
2.95333	-943
2.95700	-1004
2.96067	-1056
2.96433	-1088
2.96800	-1095
2.97167	-1075
2.97533	-1033
2.97900	-973
2.98267	-901
2.98633	-822
2.99000	-742
2.99367	-663
2.99733	-587
3.00100	-515
3.00467	-450
3.00833	-391
3.01200	-338
3.01567	-291
3.01933	-249
3.02300	-213
3.02667	-181
3.03033	-154
3.03400	-130
3.03767	-110
3.04133	-92
3.04500	-77
3.04867	-65
3.05233	-54
3.05600	-44
3.05967	-36
3.06333	-30
3.06700	-24
3.07067	-19
3.07433	-15
3.07800	-11
3.08167	-8
3.08533	-5
3.08900	-3
3.09267	-1
3.09633	1
3.10000	2
3.10367	3
3.10733	4
3.11100	5
3.11467	6
3.11833	7
3.12200	8
3.12567	9
3.12933	10
3.13300	10
3.13667	11
3.14033	11
3.14400	12
3.14767	12
3.15133	13
3.15500	13
3.15867	13
3.16233	14
3.16600	14
3.16967	14
3.17333	14
3.17700	14
3.18067	14
3.18433	14
3.18800	15
3.19167	15
3.19533	15
3.19900	16
3.20267	16
3.20633	16
3.21000	17
3.21367	17
3.21733	17
3.22100	17
3.22467	18
3.22833	18
3.23200	18
3.23567	18
3.23933	18
3.24300	18
3.24667	19
3.25033	19
3.25400	19
3.25767	19
3.26133	19
3.26500	19
3.26867	19
3.27233	19
3.27600	19
3.27967	19
3.28333	20
3.28700	20
3.29067	20
3.29433	20
3.29800	20
3.30167	20
3.30533	20
3.30900	20
3.31267	20
3.31633	21
3.32000	21
3.32367	21
3.32733	22
3.33100	22
3.33467	22
3.33833	23
3.34200	23
3.34567	23
3.34933	24
3.35300	24
3.35667	24
3.36033	24
3.36400	24
3.36767	24
3.37133	24
3.37500	24
3.37867	24
3.38233	24
3.38600	24
3.38967	24
3.39333	24
3.39700	24
3.40067	24
3.40433	24
3.40800	24
3.41167	24
3.41533	24
3.41900	24
3.42267	24
3.42633	24
3.43000	24
3.43367	24
3.43733	24
3.44100	24
3.44467	24
3.44833	24
3.45200	25
3.45567	25
3.45933	25
3.46300	25
3.46667	25
3.47033	24
3.47400	24
3.47767	24
3.48133	24
3.48500	24
3.48867	24
3.49233	24
3.49600	24
3.49967	24
3.50333	24
3.50700	24
3.51067	24
3.51433	24
3.51800	24
3.52167	24
3.52533	24
3.52900	24
3.53267	24
3.53633	24
3.54000	24
3.54367	24
3.54733	24
3.55100	24
3.55467	24
3.55833	23
3.56200	23
3.56567	23
3.56933	23
3.57300	23
3.57667	23
3.58033	23
3.58400	22
3.58767	22
3.59133	22
3.59500	22
3.59867	23
3.60233	22
3.60600	22
3.60967	22
3.61333	22
3.61700	23
3.62067	23
3.62433	23
3.62800	23
3.63167	23
3.63533	23
3.63900	24
3.64267	24
3.64633	24
3.65000	23
3.65367	23
3.65733	23
3.66100	23
3.66467	23
3.66833	23
3.67200	23
3.67567	22
3.67933	22
3.68300	22
3.68667	22
3.69033	22
3.69400	22
3.69767	23
3.70133	23
3.70500	23
3.70867	23
3.71233	23
3.71600	23
3.71967	23
3.72333	23
3.72700	23
3.73067	23
3.73433	23
3.73800	23
3.74167	23
3.74533	23
3.74900	23
3.75267	23
3.75633	23
3.76000	22
3.76367	22
3.76733	22
3.77100	22
3.77467	22
3.77833	22
3.78200	22
3.78567	22
3.78933	21
3.79300	21
3.79667	22
3.80033	22
3.80400	22
3.80767	22
3.81133	21
3.81500	21
3.81867	21
3.82233	22
3.82600	22
3.82967	22
3.83333	22
3.83700	22
3.84067	23
3.84433	23
3.84800	23
3.85167	23
3.85533	23
3.85900	23
3.86267	23
3.86633	24
3.87000	24
3.87367	24
3.87733	24
3.88100	24
3.88467	24
3.88833	24
3.89200	24
3.89567	24
3.89933	24
3.90300	24
3.90667	24
3.91033	25
3.91400	25
3.91767	25
3.92133	24
3.92500	24
3.92867	24
3.93233	24
3.93600	24
3.93967	24
3.94333	24
3.94700	24
3.95067	24
3.95433	24
3.95800	24
3.96167	24
3.96533	24
3.96900	24
3.97267	24
3.97633	24
3.98000	24
3.98367	24
3.98733	23
3.99100	23
3.99467	23
3.99833	23

[Chromatogram (Ch3)]
Interval(msec)	220
# of Points	1091
Start Time(min)	0.002
End Time(min)	3.998
R.Time (min)	Intensity
0.00167	-0
0.00533	0
0.00900	1
0.01267	1
0.01633	3
0.02000	3
0.02367	3
0.02733	1
0.03100	1
0.03467	2
0.03833	3
0.04200	3
0.04567	4
0.04933	6
0.05300	4
0.05667	3
0.06033	5
0.06400	8
0.06767	8
0.07133	7
0.07500	8
0.07867	9
0.08233	9
0.08600	9
0.08967	7
0.09333	6
0.09700	6
0.10067	6
0.10433	6
0.10800	6
0.11167	7
0.11533	7
0.11900	9
0.12267	9
0.12633	8
0.13000	8
0.13367	9
0.13733	12
0.14100	14
0.14467	15
0.14833	14
0.15200	14
0.15567	14
0.15933	13
0.16300	12
0.16667	12
0.17033	11
0.17400	9
0.17767	9
0.18133	9
0.18500	9
0.18867	11
0.19233	13
0.19600	13
0.19967	13
0.20333	13
0.20700	12
0.21067	10
0.21433	10
0.21800	12
0.22167	14
0.22533	14
0.22900	15
0.23267	15
0.23633	13
0.24000	13
0.24367	13
0.24733	13
0.25100	14
0.25467	17
0.25833	19
0.26200	19
0.26567	18
0.26933	18
0.27300	17
0.27667	15
0.28033	15
0.28400	16
0.28767	17
0.29133	21
0.29500	20
0.29867	19
0.30233	19
0.30600	18
0.30967	18
0.31333	18
0.31700	17
0.32067	18
0.32433	17
0.32800	16
0.33167	17
0.33533	19
0.33900	18
0.34267	19
0.34633	20
0.35000	20
0.35367	19
0.35733	19
0.36100	20
0.36467	20
0.36833	21
0.37200	22
0.37567	20
0.37933	19
0.38300	18
0.38667	20
0.39033	20
0.39400	20
0.39767	20
0.40133	20
0.40500	21
0.40867	23
0.41233	23
0.41600	24
0.41967	25
0.42333	23
0.42700	23
0.43067	23
0.43433	23
0.43800	23
0.44167	23
0.44533	22
0.44900	21
0.45267	19
0.45633	19
0.46000	21
0.46367	23
0.46733	26
0.47100	27
0.47467	29
0.47833	29
0.48200	28
0.48567	28
0.48933	29
0.49300	29
0.49667	29
0.50033	29
0.50400	30
0.50767	33
0.51133	34
0.51500	36
0.51867	35
0.52233	34
0.52600	32
0.52967	28
0.53333	27
0.53700	26
0.54067	24
0.54433	24
0.54800	26
0.55167	30
0.55533	32
0.55900	31
0.56267	30
0.56633	30
0.57000	32
0.57367	31
0.57733	31
0.58100	32
0.58467	32
0.58833	33
0.59200	34
0.59567	35
0.59933	33
0.60300	32
0.60667	30
0.61033	29
0.61400	32
0.61767	35
0.62133	36
0.62500	37
0.62867	35
0.63233	33
0.63600	33
0.63967	32
0.64333	31
0.64700	30
0.65067	30
0.65433	30
0.65800	30
0.66167	30
0.66533	29
0.66900	29
0.67267	28
0.67633	28
0.68000	29
0.68367	30
0.68733	28
0.69100	27
0.69467	28
0.69833	28
0.70200	27
0.70567	28
0.70933	29
0.71300	30
0.71667	29
0.72033	28
0.72400	28
0.72767	28
0.73133	26
0.73500	26
0.73867	27
0.74233	27
0.74600	27
0.74967	26
0.75333	28
0.75700	30
0.76067	28
0.76433	27
0.76800	26
0.77167	28
0.77533	31
0.77900	33
0.78267	36
0.78633	37
0.79000	36
0.79367	33
0.79733	31
0.80100	34
0.80467	35
0.80833	34
0.81200	33
0.81567	34
0.81933	36
0.82300	35
0.82667	36
0.83033	37
0.83400	36
0.83767	35
0.84133	35
0.84500	35
0.84867	33
0.85233	32
0.85600	33
0.85967	36
0.86333	40
0.86700	42
0.87067	44
0.87433	42
0.87800	41
0.88167	40
0.88533	41
0.88900	42
0.89267	43
0.89633	41
0.90000	38
0.90367	35
0.90733	35
0.91100	35
0.91467	33
0.91833	32
0.92200	34
0.92567	35
0.92933	34
0.93300	33
0.93667	34
0.94033	37
0.94400	41
0.94767	41
0.95133	36
0.95500	35
0.95867	36
0.96233	39
0.96600	40
0.96967	41
0.97333	43
0.97700	42
0.98067	43
0.98433	41
0.98800	41
0.99167	39
0.99533	39
0.99900	40
1.00267	40
1.00633	39
1.01000	38
1.01367	38
1.01733	39
1.02100	40
1.02467	41
1.02833	41
1.03200	41
1.03567	40
1.03933	39
1.04300	38
1.04667	37
1.05033	38
1.05400	38
1.05767	40
1.06133	41
1.06500	41
1.06867	41
1.07233	40
1.07600	40
1.07967	39
1.08333	38
1.08700	38
1.09067	37
1.09433	36
1.09800	37
1.10167	38
1.10533	38
1.10900	38
1.11267	40
1.11633	40
1.12000	41
1.12367	43
1.12733	42
1.13100	42
1.13467	42
1.13833	42
1.14200	44
1.14567	44
1.14933	42
1.15300	39
1.15667	36
1.16033	33
1.16400	33
1.16767	35
1.17133	34
1.17500	32
1.17867	31
1.18233	30
1.18600	28
1.18967	30
1.19333	35
1.19700	36
1.20067	36
1.20433	35
1.20800	31
1.21167	31
1.21533	31
1.21900	33
1.22267	34
1.22633	34
1.23000	35
1.23367	35
1.23733	36
1.24100	39
1.24467	42
1.24833	41
1.25200	40
1.25567	38
1.25933	38
1.26300	37
1.26667	36
1.27033	38
1.27400	39
1.27767	40
1.28133	40
1.28500	41
1.28867	42
1.29233	41
1.29600	42
1.29967	43
1.30333	44
1.30700	46
1.31067	44
1.31433	44
1.31800	47
1.32167	45
1.32533	44
1.32900	42
1.33267	40
1.33633	39
1.34000	40
1.34367	41
1.34733	41
1.35100	40
1.35467	39
1.35833	41
1.36200	42
1.36567	40
1.36933	37
1.37300	35
1.37667	35
1.38033	38
1.38400	39
1.38767	40
1.39133	40
1.39500	38
1.39867	40
1.40233	42
1.40600	43
1.40967	41
1.41333	39
1.41700	38
1.42067	38
1.42433	37
1.42800	37
1.43167	40
1.43533	41
1.43900	41
1.44267	41
1.44633	40
1.45000	39
1.45367	39
1.45733	39
1.46100	39
1.46467	39
1.46833	38
1.47200	38
1.47567	40
1.47933	41
1.48300	41
1.48667	41
1.49033	39
1.49400	38
1.49767	38
1.50133	37
1.50500	35
1.50867	32
1.51233	33
1.51600	34
1.51967	32
1.52333	33
1.52700	36
1.53067	39
1.53433	40
1.53800	42
1.54167	44
1.54533	43
1.54900	42
1.55267	42
1.55633	40
1.56000	41
1.56367	44
1.56733	46
1.57100	45
1.57467	43
1.57833	42
1.58200	39
1.58567	38
1.58933	38
1.59300	38
1.59667	40
1.60033	41
1.60400	40
1.60767	39
1.61133	38
1.61500	38
1.61867	38
1.62233	38
1.62600	38
1.62967	38
1.63333	38
1.63700	39
1.64067	41
1.64433	43
1.64800	44
1.65167	46
1.65533	47
1.65900	46
1.66267	48
1.66633	48
1.67000	48
1.67367	48
1.67733	49
1.68100	51
1.68467	51
1.68833	50
1.69200	47
1.69567	44
1.69933	43
1.70300	43
1.70667	46
1.71033	48
1.71400	48
1.71767	49
1.72133	47
1.72500	47
1.72867	48
1.73233	51
1.73600	52
1.73967	52
1.74333	52
1.74700	51
1.75067	50
1.75433	50
1.75800	50
1.76167	52
1.76533	54
1.76900	57
1.77267	56
1.77633	57
1.78000	58
1.78367	59
1.78733	63
1.79100	65
1.79467	64
1.79833	65
1.80200	65
1.80567	64
1.80933	66
1.81300	66
1.81667	66
1.82033	67
1.82400	67
1.82767	66
1.83133	63
1.83500	62
1.83867	63
1.84233	65
1.84600	66
1.84967	67
1.85333	66
1.85700	65
1.86067	65
1.86433	66
1.86800	66
1.87167	67
1.87533	67
1.87900	67
1.88267	67
1.88633	68
1.89000	68
1.89367	69
1.89733	67
1.90100	67
1.90467	67
1.90833	66
1.91200	64
1.91567	62
1.91933	62
1.92300	64
1.92667	65
1.93033	65
1.93400	68
1.93767	70
1.94133	71
1.94500	71
1.94867	72
1.95233	74
1.95600	77
1.95967	78
1.96333	80
1.96700	82
1.97067	83
1.97433	82
1.97800	80
1.98167	79
1.98533	77
1.98900	78
1.99267	79
1.99633	81
2.00000	85
2.00367	87
2.00733	87
2.01100	86
2.01467	86
2.01833	89
2.02200	92
2.02567	93
2.02933	92
2.03300	90
2.03667	89
2.04033	90
2.04400	91
2.04767	91
2.05133	90
2.05500	90
2.05867	92
2.06233	93
2.06600	95
2.06967	96
2.07333	97
2.07700	99
2.08067	100
2.08433	102
2.08800	103
2.09167	104
2.09533	103
2.09900	103
2.10267	103
2.10633	105
2.11000	107
2.11367	108
2.11733	108
2.12100	110
2.12467	112
2.12833	114
2.13200	114
2.13567	115
2.13933	115
2.14300	117
2.14667	117
2.15033	116
2.15400	117
2.15767	117
2.16133	116
2.16500	115
2.16867	116
2.17233	119
2.17600	121
2.17967	123
2.18333	123
2.18700	124
2.19067	123
2.19433	125
2.19800	126
2.20167	127
2.20533	128
2.20900	128
2.21267	126
2.21633	126
2.22000	129
2.22367	130
2.22733	131
2.23100	133
2.23467	136
2.23833	138
2.24200	139
2.24567	139
2.24933	139
2.25300	138
2.25667	136
2.26033	137
2.26400	140
2.26767	140
2.27133	138
2.27500	139
2.27867	141
2.28233	141
2.28600	142
2.28967	144
2.29333	144
2.29700	143
2.30067	142
2.30433	143
2.30800	146
2.31167	147
2.31533	147
2.31900	145
2.32267	146
2.32633	147
2.33000	149
2.33367	151
2.33733	151
2.34100	152
2.34467	151
2.34833	152
2.35200	154
2.35567	155
2.35933	156
2.36300	158
2.36667	159
2.37033	160
2.37400	163
2.37767	165
2.38133	165
2.38500	163
2.38867	161
2.39233	162
2.39600	165
2.39967	168
2.40333	169
2.40700	171
2.41067	174
2.41433	179
2.41800	186
2.42167	189
2.42533	187
2.42900	183
2.43267	181
2.43633	182
2.44000	183
2.44367	204
2.44733	255
2.45100	311
2.45467	345
2.45833	345
2.46200	325
2.46567	303
2.46933	286
2.47300	274
2.47667	258
2.48033	237
2.48400	214
2.48767	190
2.49133	170
2.49500	155
2.49867	146
2.50233	139
2.50600	135
2.50967	135
2.51333	140
2.51700	145
2.52067	147
2.52433	143
2.52800	135
2.53167	124
2.53533	113
2.53900	103
2.54267	92
2.54633	83
2.55000	75
2.55367	67
2.55733	64
2.56100	63
2.56467	62
2.56833	61
2.57200	56
2.57567	52
2.57933	47
2.58300	46
2.58667	47
2.59033	52
2.59400	55
2.59767	60
2.60133	61
2.60500	61
2.60867	61
2.61233	60
2.61600	50
2.61967	32
2.62333	8
2.62700	-20
2.63067	-48
2.63433	-77
2.63800	-105
2.64167	-134
2.64533	-157
2.64900	-175
2.65267	-189
2.65633	-197
2.66000	-201
2.66367	-203
2.66733	-203
2.67100	-202
2.67467	-200
2.67833	-198
2.68200	-192
2.68567	-186
2.68933	-180
2.69300	-172
2.69667	-162
2.70033	-157
2.70400	-152
2.70767	-147
2.71133	-138
2.71500	-130
2.71867	-123
2.72233	-119
2.72600	-116
2.72967	-113
2.73333	-109
2.73700	-103
2.74067	-95
2.74433	-88
2.74800	-82
2.75167	-77
2.75533	-71
2.75900	-68
2.76267	-64
2.76633	-61
2.77000	-58
2.77367	-57
2.77733	-56
2.78100	-52
2.78467	-47
2.78833	-59
2.79200	-90
2.79567	-113
2.79933	-116
2.80300	-97
2.80667	-73
2.81033	-63
2.81400	-74
2.81767	-93
2.82133	-102
2.82500	-89
2.82867	-54
2.83233	1
2.83600	80
2.83967	187
2.84333	341
2.84700	559
2.85067	865
2.85433	1277
2.85800	1795
2.86167	2406
2.86533	3076
2.86900	3757
2.87267	4395
2.87633	4943
2.88000	5361
2.88367	5620
2.88733	5719
2.89100	5669
2.89467	5496
2.89833	5229
2.90200	4896
2.90567	4528
2.90933	4145
2.91300	3767
2.91667	3404
2.92033	3063
2.92400	2750
2.92767	2469
2.93133	2214
2.93500	1986
2.93867	1785
2.94233	1606
2.94600	1449
2.94967	1312
2.95333	1196
2.95700	1096
2.96067	1011
2.96433	936
2.96800	870
2.97167	812
2.97533	758
2.97900	714
2.98267	678
2.98633	648
2.99000	622
2.99367	601
2.99733	582
3.00100	563
3.00467	548
3.00833	537
3.01200	526
3.01567	516
3.01933	505
3.02300	497
3.02667	489
3.03033	485
3.03400	485
3.03767	484
3.04133	482
3.04500	480
3.04867	478
3.05233	479
3.05600	480
3.05967	479
3.06333	478
3.06700	475
3.07067	473
3.07433	474
3.07800	477
3.08167	479
3.08533	479
3.08900	480
3.09267	482
3.09633	484
3.10000	486
3.10367	485
3.10733	487
3.11100	488
3.11467	487
3.11833	485
3.12200	485
3.12567	486
3.12933	487
3.13300	486
3.13667	485
3.14033	484
3.14400	483
3.14767	484
3.15133	485
3.15500	486
3.15867	485
3.16233	483
3.16600	482
3.16967	482
3.17333	485
3.17700	487
3.18067	489
3.18433	489
3.18800	487
3.19167	485
3.19533	484
3.19900	481
3.20267	477
3.20633	475
3.21000	475
3.21367	474
3.21733	473
3.22100	473
3.22467	475
3.22833	475
3.23200	474
3.23567	474
3.23933	472
3.24300	468
3.24667	463
3.25033	462
3.25400	461
3.25767	459
3.26133	456
3.26500	453
3.26867	449
3.27233	444
3.27600	440
3.27967	436
3.28333	434
3.28700	432
3.29067	429
3.29433	425
3.29800	423
3.30167	419
3.30533	417
3.30900	415
3.31267	411
3.31633	405
3.32000	404
3.32367	403
3.32733	403
3.33100	398
3.33467	394
3.33833	390
3.34200	388
3.34567	384
3.34933	381
3.35300	379
3.35667	377
3.36033	375
3.36400	374
3.36767	370
3.37133	365
3.37500	360
3.37867	355
3.38233	354
3.38600	350
3.38967	350
3.39333	349
3.39700	345
3.40067	342
3.40433	339
3.40800	337
3.41167	331
3.41533	324
3.41900	319
3.42267	315
3.42633	312
3.43000	309
3.43367	307
3.43733	302
3.44100	297
3.44467	293
3.44833	290
3.45200	290
3.45567	289
3.45933	287
3.46300	284
3.46667	280
3.47033	277
3.47400	273
3.47767	268
3.48133	264
3.48500	264
3.48867	261
3.49233	257
3.49600	257
3.49967	255
3.50333	252
3.50700	250
3.51067	250
3.51433	248
3.51800	246
3.52167	243
3.52533	240
3.52900	237
3.53267	234
3.53633	231
3.54000	229
3.54367	229
3.54733	227
3.55100	224
3.55467	221
3.55833	218
3.56200	214
3.56567	212
3.56933	213
3.57300	214
3.57667	213
3.58033	211
3.58400	206
3.58767	202
3.59133	201
3.59500	199
3.59867	197
3.60233	193
3.60600	189
3.60967	185
3.61333	182
3.61700	181
3.62067	179
3.62433	175
3.62800	170
3.63167	167
3.63533	167
3.63900	167
3.64267	167
3.64633	165
3.65000	163
3.65367	162
3.65733	160
3.66100	158
3.66467	156
3.66833	157
3.67200	156
3.67567	154
3.67933	151
3.68300	150
3.68667	150
3.69033	149
3.69400	147
3.69767	144
3.70133	140
3.70500	138
3.70867	136
3.71233	134
3.71600	133
3.71967	131
3.72333	129
3.72700	124
3.73067	117
3.73433	114
3.73800	112
3.74167	110
3.74533	109
3.74900	111
3.75267	111
3.75633	112
3.76000	114
3.76367	115
3.76733	114
3.77100	112
3.77467	110
3.77833	108
3.78200	106
3.78567	103
3.78933	101
3.79300	101
3.79667	100
3.80033	98
3.80400	95
3.80767	90
3.81133	85
3.81500	83
3.81867	84
3.82233	87
3.82600	88
3.82967	88
3.83333	87
3.83700	84
3.84067	83
3.84433	80
3.84800	76
3.85167	74
3.85533	73
3.85900	70
3.86267	66
3.86633	65
3.87000	65
3.87367	65
3.87733	64
3.88100	65
3.88467	67
3.88833	66
3.89200	65
3.89567	67
3.89933	69
3.90300	71
3.90667	70
3.91033	68
3.91400	65
3.91767	62
3.92133	61
3.92500	62
3.92867	62
3.93233	62
3.93600	59
3.93967	58
3.94333	57
3.94700	57
3.95067	58
3.95433	57
3.95800	55
3.96167	53
3.96533	53
3.96900	53
3.97267	53
3.97633	51
3.98000	50
3.98367	51
3.98733	51
3.99100	51
3.99467	52
3.99833	52

[Status Trace (Column Oven Temperature)]
Interval(msec)	1000
# of Points	240
Start Time(min)	0.016
End Time(min)	4.000
Intensity Units	
Intensity Multiplier	1
R.Time (min)	Intensity
0.01648	35.00
0.03315	35.00
0.04982	34.99
0.06648	34.99
0.08315	35.00
0.09982	35.00
0.11648	35.00
0.13315	35.01
0.14982	35.01
0.16648	35.00
0.18315	34.99
0.19982	35.00
0.21648	35.00
0.23315	35.00
0.24982	35.01
0.26648	35.01
0.28315	35.00
0.29982	35.00
0.31648	34.99
0.33315	34.99
0.34982	35.00
0.36648	35.00
0.38315	35.00
0.39982	35.00
0.41648	35.00
0.43315	35.01
0.44982	35.01
0.46648	35.01
0.48315	35.00
0.49982	34.99
0.51648	35.00
0.53315	35.00
0.54982	35.02
0.56648	35.02
0.58315	35.02
0.59982	35.01
0.61648	35.01
0.63315	35.01
0.64982	35.00
0.66648	35.00
0.68315	34.99
0.69982	34.99
0.71648	34.99
0.73315	34.99
0.74982	35.00
0.76648	34.99
0.78315	35.00
0.79982	35.01
0.81648	35.00
0.83315	35.00
0.84982	35.00
0.86648	35.00
0.88315	35.00
0.89982	35.00
0.91648	35.00
0.93315	35.00
0.94982	34.99
0.96648	35.00
0.98315	34.99
0.99982	34.98
1.01648	34.98
1.03315	34.99
1.04982	34.98
1.06648	34.98
1.08315	34.98
1.09982	35.00
1.11648	35.00
1.13315	35.00
1.14982	35.00
1.16648	35.00
1.18315	35.00
1.19982	35.00
1.21648	35.00
1.23315	34.98
1.24982	34.99
1.26648	34.99
1.28315	34.99
1.29982	35.00
1.31648	34.99
1.33315	34.99
1.34982	35.00
1.36648	35.00
1.38315	35.00
1.39982	35.00
1.41648	35.01
1.43315	35.02
1.44982	35.02
1.46648	35.01
1.48315	35.02
1.49982	35.02
1.51648	35.02
1.53315	35.03
1.54982	35.02
1.56648	35.00
1.58315	34.99
1.59982	35.01
1.61648	35.10
1.63315	35.26
1.64982	35.49
1.66648	35.79
1.68315	36.16
1.69982	36.51
1.71648	36.85
1.73315	37.20
1.74982	37.54
1.76648	37.85
1.78315	38.16
1.79982	38.51
1.81648	38.85
1.83315	39.18
1.84982	39.51
1.86648	39.83
1.88315	40.17
1.89982	40.49
1.91648	40.81
1.93315	41.15
1.94982	41.46
1.96648	41.80
1.98315	42.13
1.99982	42.45
2.01648	42.79
2.03315	43.12
2.04982	43.45
2.06648	43.78
2.08315	44.10
2.09982	44.44
2.11648	44.76
2.13315	45.09
2.14982	45.40
2.16648	45.75
2.18315	46.04
2.19982	46.38
2.21648	46.70
2.23315	47.04
2.24982	47.35
2.26648	47.69
2.28315	48.00
2.29982	48.33
2.31648	48.67
2.33315	49.00
2.34982	49.31
2.36648	49.55
2.38315	49.67
2.39982	49.68
2.41648	49.68
2.43315	49.68
2.44982	49.69
2.46648	49.71
2.48315	49.71
2.49982	49.71
2.51648	49.72
2.53315	49.73
2.54982	49.74
2.56648	49.76
2.58315	49.78
2.59982	49.79
2.61648	49.79
2.63315	49.80
2.64982	49.82
2.66648	49.83
2.68315	49.84
2.69982	49.85
2.71648	49.85
2.73315	49.85
2.74982	49.85
2.76648	49.85
2.78315	49.87
2.79982	49.90
2.81648	49.90
2.83315	49.90
2.84982	49.91
2.86648	49.91
2.88315	49.91
2.89982	49.91
2.91648	49.91
2.93315	49.93
2.94982	49.95
2.96648	49.96
2.98315	49.98
2.99982	49.99
3.01648	49.99
3.03315	50.00
3.04982	50.01
3.06648	50.03
3.08315	50.04
3.09982	50.06
3.11648	50.07
3.13315	50.07
3.14982	50.07
3.16648	50.08
3.18315	50.08
3.19982	50.08
3.21648	50.08
3.23315	50.08
3.24982	50.09
3.26648	50.10
3.28315	50.11
3.29982	50.11
3.31648	50.11
3.33315	50.09
3.34982	50.08
3.36648	50.07
3.38315	50.07
3.39982	50.06
3.41648	50.05
3.43315	50.04
3.44982	50.04
3.46648	50.04
3.48315	50.03
3.49982	50.02
3.51648	50.02
3.53315	50.04
3.54982	50.04
3.56648	50.04
3.58315	50.04
3.59982	50.05
3.61648	50.04
3.63315	50.05
3.64982	50.04
3.66648	50.05
3.68315	50.05
3.69982	50.05
3.71648	50.05
3.73315	50.05
3.74982	50.06
3.76648	50.07
3.78315	50.07
3.79982	50.08
3.81648	50.08
3.83315	50.07
3.84982	50.07
3.86648	50.07
3.88315	50.07
3.89982	50.06
3.91648	50.05
3.93315	50.04
3.94982	50.04
3.96648	50.05
3.98315	50.05
3.99982	50.05

[Status Trace (Injection Unit Temperature)]
Interval(msec)	1000
# of Points	240
Start Time(min)	0.016
End Time(min)	4.000
Intensity Units	
Intensity Multiplier	1
R.Time (min)	Intensity
0.01648	99.99
0.03315	99.98
0.04982	99.99
0.06648	99.98
0.08315	99.99
0.09982	99.99
0.11648	99.98
0.13315	99.99
0.14982	99.99
0.16648	99.99
0.18315	99.99
0.19982	99.98
0.21648	99.98
0.23315	99.99
0.24982	99.98
0.26648	99.99
0.28315	99.98
0.29982	99.98
0.31648	99.99
0.33315	99.98
0.34982	99.98
0.36648	99.99
0.38315	99.98
0.39982	99.98
0.41648	99.98
0.43315	99.98
0.44982	99.98
0.46648	99.98
0.48315	99.98
0.49982	99.98
0.51648	99.98
0.53315	99.98
0.54982	99.98
0.56648	99.98
0.58315	99.98
0.59982	99.98
0.61648	99.98
0.63315	99.98
0.64982	99.98
0.66648	99.98
0.68315	99.98
0.69982	99.98
0.71648	99.98
0.73315	99.98
0.74982	99.98
0.76648	99.98
0.78315	99.98
0.79982	99.98
0.81648	99.98
0.83315	99.98
0.84982	99.98
0.86648	99.98
0.88315	99.98
0.89982	99.98
0.91648	99.98
0.93315	99.99
0.94982	99.99
0.96648	99.98
0.98315	99.98
0.99982	99.98
1.01648	99.99
1.03315	99.98
1.04982	99.98
1.06648	99.98
1.08315	99.99
1.09982	99.98
1.11648	99.98
1.13315	99.98
1.14982	99.97
1.16648	99.98
1.18315	99.99
1.19982	99.99
1.21648	99.99
1.23315	99.99
1.24982	99.99
1.26648	99.99
1.28315	99.99
1.29982	99.98
1.31648	99.98
1.33315	99.98
1.34982	99.99
1.36648	99.99
1.38315	99.99
1.39982	99.99
1.41648	99.99
1.43315	99.99
1.44982	99.99
1.46648	99.98
1.48315	99.98
1.49982	99.99
1.51648	99.98
1.53315	99.98
1.54982	99.99
1.56648	99.98
1.58315	99.99
1.59982	99.98
1.61648	99.99
1.63315	99.98
1.64982	99.98
1.66648	99.99
1.68315	99.99
1.69982	99.98
1.71648	99.99
1.73315	99.99
1.74982	99.98
1.76648	99.98
1.78315	99.98
1.79982	99.98
1.81648	99.98
1.83315	99.98
1.84982	99.98
1.86648	99.98
1.88315	99.98
1.89982	99.98
1.91648	99.98
1.93315	99.97
1.94982	99.98
1.96648	99.98
1.98315	99.98
1.99982	99.98
2.01648	99.98
2.03315	99.98
2.04982	99.98
2.06648	99.98
2.08315	99.98
2.09982	99.98
2.11648	99.97
2.13315	99.98
2.14982	99.97
2.16648	99.97
2.18315	99.97
2.19982	99.97
2.21648	99.97
2.23315	99.97
2.24982	99.97
2.26648	99.97
2.28315	99.97
2.29982	99.97
2.31648	99.97
2.33315	99.97
2.34982	99.97
2.36648	99.97
2.38315	99.97
2.39982	99.97
2.41648	99.98
2.43315	99.97
2.44982	99.97
2.46648	99.98
2.48315	99.98
2.49982	99.98
2.51648	99.98
2.53315	99.97
2.54982	99.97
2.56648	99.98
2.58315	99.98
2.59982	99.98
2.61648	99.98
2.63315	99.98
2.64982	99.98
2.66648	99.99
2.68315	99.99
2.69982	99.98
2.71648	99.99
2.73315	99.99
2.74982	100.00
2.76648	99.99
2.78315	99.99
2.79982	99.99
2.81648	99.99
2.83315	100.00
2.84982	100.00
2.86648	100.00
2.88315	100.00
2.89982	100.00
2.91648	100.00
2.93315	100.01
2.94982	100.01
2.96648	100.01
2.98315	100.01
2.99982	100.01
3.01648	100.01
3.03315	100.01
3.04982	100.01
3.06648	100.01
3.08315	100.02
3.09982	100.01
3.11648	100.02
3.13315	100.02
3.14982	100.02
3.16648	100.02
3.18315	100.02
3.19982	100.02
3.21648	100.02
3.23315	100.02
3.24982	100.02
3.26648	100.02
3.28315	100.03
3.29982	100.03
3.31648	100.02
3.33315	100.02
3.34982	100.03
3.36648	100.02
3.38315	100.03
3.39982	100.03
3.41648	100.03
3.43315	100.03
3.44982	100.04
3.46648	100.03
3.48315	100.03
3.49982	100.04
3.51648	100.03
3.53315	100.03
3.54982	100.03
3.56648	100.03
3.58315	100.03
3.59982	100.04
3.61648	100.04
3.63315	100.03
3.64982	100.04
3.66648	100.03
3.68315	100.03
3.69982	100.04
3.71648	100.04
3.73315	100.04
3.74982	100.04
3.76648	100.04
3.78315	100.04
3.79982	100.04
3.81648	100.04
3.83315	100.04
3.84982	100.04
3.86648	100.04
3.88315	100.04
3.89982	100.04
3.91648	100.04
3.93315	100.04
3.94982	100.04
3.96648	100.04
3.98315	100.03
3.99982	100.04

[Status Trace (Carrier Gas Pressure)]
Interval(msec)	1000
# of Points	240
Start Time(min)	0.016
End Time(min)	4.000
Intensity Units	
Intensity Multiplier	1
R.Time (min)	Intensity
0.01648	56.93
0.03315	55.88
0.04982	58.24
0.06648	59.90
0.08315	58.53
0.09982	57.97
0.11648	58.00
0.13315	58.01
0.14982	58.01
0.16648	58.00
0.18315	58.00
0.19982	58.00
0.21648	58.00
0.23315	58.00
0.24982	58.00
0.26648	58.00
0.28315	58.00
0.29982	58.00
0.31648	58.00
0.33315	58.00
0.34982	58.00
0.36648	58.00
0.38315	58.00
0.39982	58.00
0.41648	58.00
0.43315	58.00
0.44982	58.00
0.46648	58.00
0.48315	58.00
0.49982	58.00
0.51648	58.00
0.53315	58.00
0.54982	58.00
0.56648	58.00
0.58315	58.00
0.59982	58.00
0.61648	58.00
0.63315	58.00
0.64982	58.00
0.66648	58.00
0.68315	58.00
0.69982	58.00
0.71648	58.00
0.73315	58.00
0.74982	58.00
0.76648	58.00
0.78315	58.00
0.79982	58.00
0.81648	58.00
0.83315	58.00
0.84982	58.00
0.86648	58.00
0.88315	58.00
0.89982	58.00
0.91648	58.00
0.93315	58.00
0.94982	58.00
0.96648	58.00
0.98315	58.00
0.99982	58.00
1.01648	58.00
1.03315	58.00
1.04982	58.00
1.06648	58.00
1.08315	58.00
1.09982	58.00
1.11648	58.00
1.13315	58.00
1.14982	58.00
1.16648	58.00
1.18315	58.00
1.19982	58.00
1.21648	58.00
1.23315	58.00
1.24982	58.00
1.26648	58.00
1.28315	58.00
1.29982	58.00
1.31648	58.00
1.33315	58.00
1.34982	58.00
1.36648	58.00
1.38315	58.00
1.39982	58.00
1.41648	58.00
1.43315	58.00
1.44982	58.00
1.46648	58.00
1.48315	58.00
1.49982	58.00
1.51648	58.00
1.53315	58.00
1.54982	58.00
1.56648	58.00
1.58315	58.00
1.59982	58.00
1.61648	58.00
1.63315	58.01
1.64982	58.00
1.66648	58.01
1.68315	58.01
1.69982	58.00
1.71648	58.00
1.73315	58.00
1.74982	58.00
1.76648	58.00
1.78315	58.00
1.79982	58.00
1.81648	58.00
1.83315	58.00
1.84982	58.00
1.86648	58.00
1.88315	58.00
1.89982	58.00
1.91648	58.00
1.93315	58.00
1.94982	58.00
1.96648	58.00
1.98315	58.00
1.99982	58.00
2.01648	58.00
2.03315	58.00
2.04982	58.00
2.06648	58.00
2.08315	58.00
2.09982	58.00
2.11648	58.00
2.13315	58.00
2.14982	58.00
2.16648	58.00
2.18315	58.00
2.19982	58.00
2.21648	58.00
2.23315	58.00
2.24982	58.00
2.26648	58.00
2.28315	58.00
2.29982	58.00
2.31648	58.00
2.33315	58.00
2.34982	58.00
2.36648	58.00
2.38315	57.99
2.39982	57.99
2.41648	58.00
2.43315	58.00
2.44982	58.00
2.46648	58.00
2.48315	58.00
2.49982	58.00
2.51648	57.99
2.53315	57.99
2.54982	58.00
2.56648	58.00
2.58315	58.00
2.59982	58.00
2.61648	58.00
2.63315	58.00
2.64982	58.00
2.66648	58.00
2.68315	58.00
2.69982	58.00
2.71648	58.00
2.73315	58.00
2.74982	58.00
2.76648	58.00
2.78315	58.00
2.79982	58.00
2.81648	58.00
2.83315	58.00
2.84982	58.00
2.86648	58.00
2.88315	58.00
2.89982	58.00
2.91648	58.00
2.93315	58.00
2.94982	58.00
2.96648	58.00
2.98315	58.00
2.99982	58.00
3.01648	58.00
3.03315	58.00
3.04982	58.00
3.06648	58.00
3.08315	58.00
3.09982	58.00
3.11648	58.00
3.13315	58.00
3.14982	58.00
3.16648	58.00
3.18315	58.00
3.19982	58.00
3.21648	58.00
3.23315	58.00
3.24982	58.00
3.26648	58.00
3.28315	58.00
3.29982	58.00
3.31648	58.00
3.33315	58.00
3.34982	58.00
3.36648	58.00
3.38315	58.00
3.39982	58.00
3.41648	58.00
3.43315	58.00
3.44982	58.00
3.46648	58.00
3.48315	58.00
3.49982	58.00
3.51648	58.00
3.53315	58.00
3.54982	58.00
3.56648	58.00
3.58315	58.00
3.59982	58.00
3.61648	58.00
3.63315	58.00
3.64982	58.00
3.66648	58.00
3.68315	58.00
3.69982	58.00
3.71648	58.00
3.73315	58.00
3.74982	58.00
3.76648	58.00
3.78315	58.00
3.79982	58.00
3.81648	58.00
3.83315	58.00
3.84982	58.00
3.86648	58.00
3.88315	58.00
3.89982	58.00
3.91648	58.00
3.93315	58.00
3.94982	58.00
3.96648	58.00
3.98315	58.00
3.99982	58.00

[Status Trace (Carrier Gas Flow)]
Interval(msec)	1000
# of Points	240
Start Time(min)	0.016
End Time(min)	4.000
Intensity Units	
Intensity Multiplier	1
R.Time (min)	Intensity
0.01648	33.93
0.03315	34.54
0.04982	34.55
0.06648	34.51
0.08315	34.52
0.09982	34.52
0.11648	34.52
0.13315	34.52
0.14982	34.52
0.16648	34.52
0.18315	34.52
0.19982	34.52
0.21648	34.52
0.23315	34.52
0.24982	34.52
0.26648	34.52
0.28315	34.52
0.29982	34.52
0.31648	34.52
0.33315	34.52
0.34982	34.52
0.36648	34.52
0.38315	34.52
0.39982	34.52
0.41648	34.52
0.43315	34.52
0.44982	34.52
0.46648	34.52
0.48315	34.52
0.49982	34.52
0.51648	34.52
0.53315	34.52
0.54982	34.52
0.56648	34.52
0.58315	34.52
0.59982	34.52
0.61648	34.52
0.63315	34.52
0.64982	34.52
0.66648	34.52
0.68315	34.52
0.69982	34.52
0.71648	34.52
0.73315	34.52
0.74982	34.52
0.76648	34.52
0.78315	34.52
0.79982	34.52
0.81648	34.52
0.83315	34.52
0.84982	34.52
0.86648	34.52
0.88315	34.52
0.89982	34.52
0.91648	34.52
0.93315	34.52
0.94982	34.52
0.96648	34.52
0.98315	34.52
0.99982	34.52
1.01648	34.52
1.03315	34.52
1.04982	34.52
1.06648	34.52
1.08315	34.52
1.09982	34.52
1.11648	34.52
1.13315	34.52
1.14982	34.52
1.16648	34.52
1.18315	34.52
1.19982	34.52
1.21648	34.52
1.23315	34.52
1.24982	34.52
1.26648	34.52
1.28315	34.52
1.29982	34.52
1.31648	34.52
1.33315	34.52
1.34982	34.52
1.36648	34.52
1.38315	34.52
1.39982	34.52
1.41648	34.52
1.43315	34.52
1.44982	34.52
1.46648	34.52
1.48315	34.52
1.49982	34.52
1.51648	34.52
1.53315	34.52
1.54982	34.52
1.56648	34.52
1.58315	34.52
1.59982	34.52
1.61648	34.52
1.63315	34.52
1.64982	34.52
1.66648	34.52
1.68315	34.52
1.69982	34.52
1.71648	34.52
1.73315	34.52
1.74982	34.52
1.76648	34.52
1.78315	34.52
1.79982	34.52
1.81648	34.52
1.83315	34.52
1.84982	34.52
1.86648	34.52
1.88315	34.52
1.89982	34.52
1.91648	34.52
1.93315	34.52
1.94982	34.52
1.96648	34.52
1.98315	34.52
1.99982	34.52
2.01648	34.52
2.03315	34.52
2.04982	34.52
2.06648	34.52
2.08315	34.52
2.09982	34.52
2.11648	34.52
2.13315	34.52
2.14982	34.52
2.16648	34.52
2.18315	34.52
2.19982	34.52
2.21648	34.52
2.23315	34.52
2.24982	34.52
2.26648	34.52
2.28315	34.52
2.29982	34.52
2.31648	34.52
2.33315	34.52
2.34982	34.52
2.36648	34.52
2.38315	34.52
2.39982	34.52
2.41648	34.52
2.43315	34.52
2.44982	34.52
2.46648	34.52
2.48315	34.52
2.49982	34.52
2.51648	34.52
2.53315	34.52
2.54982	34.52
2.56648	34.52
2.58315	34.52
2.59982	34.52
2.61648	34.52
2.63315	34.52
2.64982	34.52
2.66648	34.52
2.68315	34.52
2.69982	34.52
2.71648	34.52
2.73315	34.52
2.74982	34.52
2.76648	34.52
2.78315	34.52
2.79982	34.52
2.81648	34.52
2.83315	34.52
2.84982	34.52
2.86648	34.52
2.88315	34.52
2.89982	34.52
2.91648	34.52
2.93315	34.52
2.94982	34.52
2.96648	34.52
2.98315	34.52
2.99982	34.52
3.01648	34.52
3.03315	34.52
3.04982	34.52
3.06648	34.52
3.08315	34.52
3.09982	34.52
3.11648	34.52
3.13315	34.52
3.14982	34.52
3.16648	34.52
3.18315	34.52
3.19982	34.52
3.21648	34.52
3.23315	34.52
3.24982	34.52
3.26648	34.52
3.28315	34.52
3.29982	34.52
3.31648	34.52
3.33315	34.52
3.34982	34.52
3.36648	34.52
3.38315	34.52
3.39982	34.52
3.41648	34.52
3.43315	34.52
3.44982	34.52
3.46648	34.52
3.48315	34.52
3.49982	34.52
3.51648	34.52
3.53315	34.52
3.54982	34.52
3.56648	34.52
3.58315	34.52
3.59982	34.52
3.61648	34.52
3.63315	34.52
3.64982	34.52
3.66648	34.52
3.68315	34.52
3.69982	34.52
3.71648	34.52
3.73315	34.52
3.74982	34.52
3.76648	34.52
3.78315	34.52
3.79982	34.52
3.81648	34.52
3.83315	34.52
3.84982	34.52
3.86648	34.52
3.88315	34.52
3.89982	34.52
3.91648	34.52
3.93315	34.52
3.94982	34.52
3.96648	34.52
3.98315	34.52
3.99982	34.52

[Status Trace (Column Flow)]
Interval(msec)	1000
# of Points	240
Start Time(min)	0.016
End Time(min)	4.000
Intensity Units	
Intensity Multiplier	1
R.Time (min)	Intensity
0.01648	5.32
0.03315	5.20
0.04982	5.47
0.06648	5.66
0.08315	5.50
0.09982	5.43
0.11648	5.44
0.13315	5.44
0.14982	5.44
0.16648	5.44
0.18315	5.44
0.19982	5.44
0.21648	5.44
0.23315	5.44
0.24982	5.44
0.26648	5.44
0.28315	5.44
0.29982	5.44
0.31648	5.44
0.33315	5.44
0.34982	5.44
0.36648	5.44
0.38315	5.44
0.39982	5.44
0.41648	5.44
0.43315	5.44
0.44982	5.44
0.46648	5.44
0.48315	5.44
0.49982	5.44
0.51648	5.44
0.53315	5.44
0.54982	5.44
0.56648	5.44
0.58315	5.44
0.59982	5.44
0.61648	5.44
0.63315	5.44
0.64982	5.44
0.66648	5.44
0.68315	5.44
0.69982	5.44
0.71648	5.44
0.73315	5.44
0.74982	5.44
0.76648	5.44
0.78315	5.44
0.79982	5.44
0.81648	5.44
0.83315	5.44
0.84982	5.44
0.86648	5.44
0.88315	5.44
0.89982	5.44
0.91648	5.44
0.93315	5.44
0.94982	5.44
0.96648	5.44
0.98315	5.44
0.99982	5.44
1.01648	5.44
1.03315	5.44
1.04982	5.44
1.06648	5.44
1.08315	5.44
1.09982	5.44
1.11648	5.44
1.13315	5.44
1.14982	5.44
1.16648	5.44
1.18315	5.44
1.19982	5.44
1.21648	5.44
1.23315	5.44
1.24982	5.44
1.26648	5.44
1.28315	5.44
1.29982	5.44
1.31648	5.44
1.33315	5.44
1.34982	5.44
1.36648	5.44
1.38315	5.44
1.39982	5.44
1.41648	5.44
1.43315	5.44
1.44982	5.44
1.46648	5.44
1.48315	5.44
1.49982	5.44
1.51648	5.44
1.53315	5.44
1.54982	5.44
1.56648	5.44
1.58315	5.44
1.59982	5.44
1.61648	5.44
1.63315	5.43
1.64982	5.42
1.66648	5.42
1.68315	5.40
1.69982	5.39
1.71648	5.38
1.73315	5.37
1.74982	5.36
1.76648	5.35
1.78315	5.34
1.79982	5.33
1.81648	5.32
1.83315	5.31
1.84982	5.30
1.86648	5.29
1.88315	5.28
1.89982	5.27
1.91648	5.26
1.93315	5.25
1.94982	5.24
1.96648	5.24
1.98315	5.23
1.99982	5.22
2.01648	5.21
2.03315	5.20
2.04982	5.19
2.06648	5.18
2.08315	5.17
2.09982	5.16
2.11648	5.15
2.13315	5.14
2.14982	5.13
2.16648	5.12
2.18315	5.11
2.19982	5.10
2.21648	5.09
2.23315	5.08
2.24982	5.07
2.26648	5.07
2.28315	5.06
2.29982	5.05
2.31648	5.04
2.33315	5.03
2.34982	5.02
2.36648	5.01
2.38315	5.01
2.39982	5.01
2.41648	5.01
2.43315	5.01
2.44982	5.01
2.46648	5.01
2.48315	5.01
2.49982	5.01
2.51648	5.01
2.53315	5.01
2.54982	5.01
2.56648	5.01
2.58315	5.01
2.59982	5.01
2.61648	5.01
2.63315	5.01
2.64982	5.01
2.66648	5.01
2.68315	5.01
2.69982	5.01
2.71648	5.01
2.73315	5.01
2.74982	5.01
2.76648	5.01
2.78315	5.01
2.79982	5.00
2.81648	5.00
2.83315	5.00
2.84982	5.00
2.86648	5.00
2.88315	5.00
2.89982	5.00
2.91648	5.00
2.93315	5.00
2.94982	5.00
2.96648	5.00
2.98315	5.00
2.99982	5.00
3.01648	5.00
3.03315	5.00
3.04982	5.00
3.06648	5.00
3.08315	5.00
3.09982	5.00
3.11648	5.00
3.13315	5.00
3.14982	5.00
3.16648	5.00
3.18315	5.00
3.19982	5.00
3.21648	5.00
3.23315	5.00
3.24982	5.00
3.26648	5.00
3.28315	5.00
3.29982	5.00
3.31648	5.00
3.33315	5.00
3.34982	5.00
3.36648	5.00
3.38315	5.00
3.39982	5.00
3.41648	5.00
3.43315	5.00
3.44982	5.00
3.46648	5.00
3.48315	5.00
3.49982	5.00
3.51648	5.00
3.53315	5.00
3.54982	5.00
3.56648	5.00
3.58315	5.00
3.59982	5.00
3.61648	5.00
3.63315	5.00
3.64982	5.00
3.66648	5.00
3.68315	5.00
3.69982	5.00
3.71648	5.00
3.73315	5.00
3.74982	5.00
3.76648	5.00
3.78315	5.00
3.79982	5.00
3.81648	5.00
3.83315	5.00
3.84982	5.00
3.86648	5.00
3.88315	5.00
3.89982	5.00
3.91648	5.00
3.93315	5.00
3.94982	5.00
3.96648	5.00
3.98315	5.00
3.99982	5.00

[Status Trace (Linear Velocity)]
Interval(msec)	1000
# of Points	240
Start Time(min)	0.016
End Time(min)	4.000
Intensity Units	
Intensity Multiplier	1
R.Time (min)	Intensity
0.01648	38.29
0.03315	37.61
0.04982	39.16
0.06648	40.24
0.08315	39.34
0.09982	38.98
0.11648	39.00
0.13315	39.00
0.14982	39.00
0.16648	39.00
0.18315	39.00
0.19982	39.00
0.21648	39.00
0.23315	39.00
0.24982	39.00
0.26648	39.00
0.28315	39.00
0.29982	39.00
0.31648	39.00
0.33315	39.00
0.34982	39.00
0.36648	39.00
0.38315	39.00
0.39982	39.00
0.41648	39.00
0.43315	39.00
0.44982	39.00
0.46648	39.00
0.48315	39.00
0.49982	39.00
0.51648	39.00
0.53315	39.00
0.54982	39.00
0.56648	39.00
0.58315	38.99
0.59982	39.00
0.61648	39.00
0.63315	39.00
0.64982	39.00
0.66648	39.00
0.68315	39.00
0.69982	39.00
0.71648	39.00
0.73315	39.00
0.74982	39.00
0.76648	39.00
0.78315	39.00
0.79982	39.00
0.81648	39.00
0.83315	39.00
0.84982	39.00
0.86648	39.00
0.88315	39.00
0.89982	39.00
0.91648	39.00
0.93315	39.00
0.94982	39.00
0.96648	39.00
0.98315	39.00
0.99982	39.00
1.01648	39.00
1.03315	39.00
1.04982	39.00
1.06648	39.00
1.08315	39.00
1.09982	39.00
1.11648	39.00
1.13315	39.00
1.14982	39.00
1.16648	39.00
1.18315	39.00
1.19982	39.00
1.21648	39.00
1.23315	39.00
1.24982	39.00
1.26648	39.00
1.28315	39.00
1.29982	39.00
1.31648	39.00
1.33315	39.00
1.34982	39.00
1.36648	39.00
1.38315	39.00
1.39982	39.00
1.41648	39.00
1.43315	39.00
1.44982	39.00
1.46648	39.00
1.48315	39.00
1.49982	39.00
1.51648	38.99
1.53315	38.99
1.54982	39.00
1.56648	39.00
1.58315	39.00
1.59982	39.00
1.61648	38.99
1.63315	38.98
1.64982	38.95
1.66648	38.93
1.68315	38.89
1.69982	38.85
1.71648	38.82
1.73315	38.79
1.74982	38.76
1.76648	38.73
1.78315	38.70
1.79982	38.66
1.81648	38.63
1.83315	38.60
1.84982	38.57
1.86648	38.54
1.88315	38.51
1.89982	38.48
1.91648	38.45
1.93315	38.42
1.94982	38.39
1.96648	38.36
1.98315	38.33
1.99982	38.29
2.01648	38.27
2.03315	38.24
2.04982	38.20
2.06648	38.18
2.08315	38.15
2.09982	38.11
2.11648	38.09
2.13315	38.06
2.14982	38.03
2.16648	38.00
2.18315	37.97
2.19982	37.94
2.21648	37.91
2.23315	37.88
2.24982	37.85
2.26648	37.82
2.28315	37.79
2.29982	37.76
2.31648	37.73
2.33315	37.70
2.34982	37.68
2.36648	37.65
2.38315	37.64
2.39982	37.64
2.41648	37.64
2.43315	37.64
2.44982	37.64
2.46648	37.64
2.48315	37.64
2.49982	37.64
2.51648	37.63
2.53315	37.63
2.54982	37.64
2.56648	37.64
2.58315	37.63
2.59982	37.63
2.61648	37.63
2.63315	37.63
2.64982	37.63
2.66648	37.63
2.68315	37.63
2.69982	37.63
2.71648	37.63
2.73315	37.63
2.74982	37.63
2.76648	37.63
2.78315	37.63
2.79982	37.62
2.81648	37.62
2.83315	37.62
2.84982	37.62
2.86648	37.62
2.88315	37.62
2.89982	37.62
2.91648	37.62
2.93315	37.62
2.94982	37.62
2.96648	37.62
2.98315	37.62
2.99982	37.61
3.01648	37.61
3.03315	37.61
3.04982	37.61
3.06648	37.61
3.08315	37.61
3.09982	37.61
3.11648	37.61
3.13315	37.61
3.14982	37.61
3.16648	37.61
3.18315	37.61
3.19982	37.61
3.21648	37.61
3.23315	37.61
3.24982	37.60
3.26648	37.60
3.28315	37.60
3.29982	37.60
3.31648	37.60
3.33315	37.60
3.34982	37.61
3.36648	37.61
3.38315	37.61
3.39982	37.61
3.41648	37.61
3.43315	37.61
3.44982	37.61
3.46648	37.61
3.48315	37.61
3.49982	37.61
3.51648	37.61
3.53315	37.61
3.54982	37.61
3.56648	37.61
3.58315	37.61
3.59982	37.61
3.61648	37.61
3.63315	37.61
3.64982	37.61
3.66648	37.61
3.68315	37.61
3.69982	37.61
3.71648	37.61
3.73315	37.61
3.74982	37.61
3.76648	37.61
3.78315	37.61
3.79982	37.61
3.81648	37.61
3.83315	37.61
3.84982	37.61
3.86648	37.61
3.88315	37.61
3.89982	37.61
3.91648	37.61
3.93315	37.61
3.94982	37.61
3.96648	37.61
3.98315	37.61
3.99982	37.61

