[Header]
Application Name	LabSolutions
Version	5.110
Data File Name	C:\Users\User\Desktop\GC Analyses\Jack\UIC Prairie Sampling\9.30.22\220930_037.gcd
Output Date	1/4/2023
Output Time	2:27:58 PM

[File Information]
Type	Data File
Generated	11/30/2022 11:19:31 AM
Generated by	System Administrator
Modified	11/30/2022 11:23:53 AM
Modified by	System Administrator

[Sample Information]
Operator Name	System Administrator
Acquired	11/30/2022 11:19:52 AM
Sample Type	1:Standard
Level	1
Sample Name	220930_UICPrairie
Sample ID	220930_UICPrairie
ISTD Amount1	1
ISTD Amount2	1
ISTD Amount3	1
ISTD Amount4	1
ISTD Amount5	1
ISTD Amount6	1
ISTD Amount7	1
ISTD Amount8	1
ISTD Amount9	1
ISTD Amount10	1
ISTD Amount11	1
ISTD Amount12	1
ISTD Amount13	1
ISTD Amount14	1
ISTD Amount15	1
ISTD Amount16	1
ISTD Amount17	1
ISTD Amount18	1
ISTD Amount19	1
ISTD Amount20	1
ISTD Amount21	1
ISTD Amount22	1
ISTD Amount23	1
ISTD Amount24	1
ISTD Amount25	1
ISTD Amount26	1
ISTD Amount27	1
ISTD Amount28	1
ISTD Amount29	1
ISTD Amount30	1
ISTD Amount31	1
ISTD Amount32	1
Sample Amount	1
Dilution Factor	1
Vial#	1
Injection Volume	1
Injection Count	1
Bar Code	

[Original Files]
Data File	C:\Users\User\Desktop\GC Analyses\Jack\UIC Prairie Sampling\9.30.22\220930_037.gcd
Method File	C:\LabSolutions\Data\GHG_4min_2022\ghg3_togas_w_acet_4 min_new_int.gcm
Batch File	
Report Format File	c:\LabSolutions\System\DEFAULT.lsr

[File Description]


[Configuration]
Instrument Name	C0B7VH3-Instrument1
Instrument #	1
Line #	1
# of Detectors	3
Detector ID	DET#1	DET#2	DET#3
Detector Name	FID	PTCD	ECD
# of Channels	1	1	1

[Peak Table(Ch1)]
# of Peaks	3
Peak#	R.Time	I.Time	F.Time	Area	Height	A/H	Conc.	Mark	ID#	Name	k'	Plate #	Plate Ht.	Tailing	Resolution	Sep.Factor	Area Ratio	Height Ratio	Conc. %	Norm Conc.
1	1.483	1.454	1.549	4869	2735	1.780	100.000	   	1	CO	0.000	12503	11.997	1.308	0.000	0.000	0	0	16.667	16.667
2	1.575	1.549	1.615	1754	1185	1.480	100.000	 V 	2	CH4	0.062	18941	7.919	1.354	1.855	0.000	0	0	16.667	16.667
3	2.004	1.963	2.345	499247	282455	1.768	400.000	   	3	CO2	0.351	24891	6.026	1.448	8.885	5.680	0	0	66.667	66.667

[Peak Table(Ch2)]
# of Peaks	0

[Peak Table(Ch3)]
# of Peaks	5
Peak#	R.Time	I.Time	F.Time	Area	Height	A/H	Conc.	Mark	ID#	Name	k'	Plate #	Plate Ht.	Tailing	Resolution	Sep.Factor	Area Ratio	Height Ratio	Conc. %	Norm Conc.
1	2.458	2.264	2.506	1805	323	5.596	0.000	   			0.000	8216	18.256	0.000	0.000	0.000	0	0	0.000	0.000
2	2.521	2.506	2.565	447	166	2.696	0.000	 V 			0.025	4316	34.751	0.000	0.476	0.000	0	0	0.000	0.000
3	2.620	2.565	2.656	596	162	3.686	0.000	 V 			0.066	4705	31.881	0.000	0.647	2.588	0	0	0.000	0.000
4	2.891	2.836	3.045	7064	2116	3.338	1.000	   	1	N2O	0.176	16250	9.231	1.651	2.229	2.682	0	0	50.000	50.000
5	3.335	3.181	3.511	482	42	11.416	1.000	   	2	SF6	0.356	1834	81.788	1.075	2.206	2.025	0	0	50.000	50.000

[Compound Results(Ch1)]
# of IDs	6
ID#	Name	R.Time	Area	Height	Conc.	Curve	3rd	2nd	1st	Constant	Area Ratio	Height Ratio	Conc. %	Norm Conc.
1	CO	1.483	4869	2735	100.000	Linear	0.000000e+00	0.000000e+00	4.868782e+001	0.000000e+00	0	0	16.667	16.667
2	CH4	1.575	1754	1185	100.000	Linear	0.000000e+00	0.000000e+00	1.754194e+001	0.000000e+00	0	0	16.667	16.667
3	CO2	2.004	499247	282455	400.000	Linear	0.000000e+00	0.000000e+00	1.248118e+003	0.000000e+00	0	0	66.667	66.667
4	Ethylene	0.000	0	0	0.000	Linear	0.000000e+00	0.000000e+00	0.000000e+00	0.000000e+00	0	0	0.000	0.000
5	Acetylene	0.000	0	0	0.000	Linear	0.000000e+00	0.000000e+00	0.000000e+00	0.000000e+00	0	0	0.000	0.000
6	Ethane	0.000	0	0	0.000	Linear	0.000000e+00	0.000000e+00	0.000000e+00	0.000000e+00	0	0	0.000	0.000

[Compound Results(Ch2)]
# of IDs	5
ID#	Name	R.Time	Area	Height	Conc.	Curve	3rd	2nd	1st	Constant	Area Ratio	Height Ratio	Conc. %	Norm Conc.
1	Hydrogen	0.000	0	0	0.000	Linear	0.000000e+00	0.000000e+00	0.000000e+00	0.000000e+00	0	0	0.000	0.000
2	Oxygen	0.000	0	0	0.000	Linear	0.000000e+00	0.000000e+00	0.000000e+00	0.000000e+00	0	0	0.000	0.000
3	Nitrogen	0.000	0	0	0.000	Linear	0.000000e+00	0.000000e+00	0.000000e+00	0.000000e+00	0	0	0.000	0.000
4	Methane	0.000	0	0	0.000	Linear	0.000000e+00	0.000000e+00	0.000000e+00	0.000000e+00	0	0	0.000	0.000
5	Carbon Monoxide	0.000	0	0	0.000	Linear	0.000000e+00	0.000000e+00	0.000000e+00	0.000000e+00	0	0	0.000	0.000

[Compound Results(Ch3)]
# of IDs	2
ID#	Name	R.Time	Area	Height	Conc.	Curve	3rd	2nd	1st	Constant	Area Ratio	Height Ratio	Conc. %	Norm Conc.
1	N2O	2.891	7064	2116	1.000	Linear	0.000000e+00	0.000000e+00	7.064152e+003	0.000000e+00	0	0	50.000	50.000
2	SF6	3.335	482	42	1.000	Linear	0.000000e+00	0.000000e+00	4.823436e+002	0.000000e+00	0	0	50.000	50.000

[Group Results(Ch1)]
# of Groups	0

[Group Results(Ch2)]
# of Groups	0

[Group Results(Ch3)]
# of Groups	0

[Chromatogram (Ch1)]
Interval(msec)	220
# of Points	1091
Start Time(min)	0.002
End Time(min)	3.998
R.Time (min)	Intensity
0.00167	-5
0.00533	-9
0.00900	-13
0.01267	-20
0.01633	-27
0.02000	-33
0.02367	-34
0.02733	-28
0.03100	-22
0.03467	-17
0.03833	-12
0.04200	-8
0.04567	-2
0.04933	7
0.05300	16
0.05667	21
0.06033	21
0.06400	19
0.06767	13
0.07133	4
0.07500	-4
0.07867	-6
0.08233	-5
0.08600	1
0.08967	7
0.09333	12
0.09700	18
0.10067	23
0.10433	25
0.10800	23
0.11167	18
0.11533	10
0.11900	1
0.12267	-9
0.12633	-16
0.13000	-20
0.13367	-22
0.13733	-22
0.14100	-24
0.14467	-29
0.14833	-34
0.15200	-36
0.15567	-32
0.15933	-26
0.16300	-20
0.16667	-13
0.17033	-7
0.17400	-2
0.17767	1
0.18133	4
0.18500	6
0.18867	7
0.19233	2
0.19600	-6
0.19967	-13
0.20333	-19
0.20700	-24
0.21067	-26
0.21433	-27
0.21800	-28
0.22167	-26
0.22533	-22
0.22900	-19
0.23267	-18
0.23633	-19
0.24000	-20
0.24367	-20
0.24733	-19
0.25100	-16
0.25467	-15
0.25833	-19
0.26200	-26
0.26567	-31
0.26933	-30
0.27300	-27
0.27667	-26
0.28033	-25
0.28400	-26
0.28767	-24
0.29133	-22
0.29500	-21
0.29867	-25
0.30233	-27
0.30600	-27
0.30967	-27
0.31333	-28
0.31700	-26
0.32067	-18
0.32433	-10
0.32800	-4
0.33167	-2
0.33533	-8
0.33900	-18
0.34267	-26
0.34633	-33
0.35000	-36
0.35367	-39
0.35733	-41
0.36100	-43
0.36467	-44
0.36833	-41
0.37200	-34
0.37567	-26
0.37933	-20
0.38300	-15
0.38667	-12
0.39033	-11
0.39400	-12
0.39767	-15
0.40133	-19
0.40500	-20
0.40867	-19
0.41233	-18
0.41600	-20
0.41967	-27
0.42333	-36
0.42700	-41
0.43067	-40
0.43433	-35
0.43800	-29
0.44167	-25
0.44533	-23
0.44900	-21
0.45267	-18
0.45633	-18
0.46000	-18
0.46367	-19
0.46733	-20
0.47100	-23
0.47467	-28
0.47833	-30
0.48200	-29
0.48567	-27
0.48933	-22
0.49300	-21
0.49667	-25
0.50033	-32
0.50400	-40
0.50767	-43
0.51133	-44
0.51500	-46
0.51867	-47
0.52233	-47
0.52600	-48
0.52967	-49
0.53333	-48
0.53700	-46
0.54067	-43
0.54433	-38
0.54800	-35
0.55167	-34
0.55533	-35
0.55900	-35
0.56267	-34
0.56633	-31
0.57000	-27
0.57367	-23
0.57733	-21
0.58100	-23
0.58467	-25
0.58833	-28
0.59200	-33
0.59567	-39
0.59933	-46
0.60300	-53
0.60667	-55
0.61033	-50
0.61400	-46
0.61767	-45
0.62133	-44
0.62500	-46
0.62867	-47
0.63233	-45
0.63600	-44
0.63967	-44
0.64333	-46
0.64700	-48
0.65067	-48
0.65433	-46
0.65800	-42
0.66167	-43
0.66533	-46
0.66900	-46
0.67267	-46
0.67633	-45
0.68000	-45
0.68367	-46
0.68733	-49
0.69100	-51
0.69467	-50
0.69833	-49
0.70200	-49
0.70567	-48
0.70933	-47
0.71300	-46
0.71667	-46
0.72033	-49
0.72400	-52
0.72767	-55
0.73133	-58
0.73500	-59
0.73867	-60
0.74233	-58
0.74600	-53
0.74967	-47
0.75333	-41
0.75700	-37
0.76067	-34
0.76433	-31
0.76800	-31
0.77167	-36
0.77533	-45
0.77900	-53
0.78267	-57
0.78633	-58
0.79000	-60
0.79367	-62
0.79733	-62
0.80100	-62
0.80467	-62
0.80833	-60
0.81200	-56
0.81567	-54
0.81933	-57
0.82300	-61
0.82667	-62
0.83033	-61
0.83400	-62
0.83767	-60
0.84133	-53
0.84500	-46
0.84867	-46
0.85233	-51
0.85600	-54
0.85967	-56
0.86333	-58
0.86700	-59
0.87067	-61
0.87433	-66
0.87800	-71
0.88167	-73
0.88533	-75
0.88900	-78
0.89267	-80
0.89633	-78
0.90000	-76
0.90367	-74
0.90733	-74
0.91100	-74
0.91467	-79
0.91833	-83
0.92200	-81
0.92567	-75
0.92933	-65
0.93300	-59
0.93667	-60
0.94033	-64
0.94400	-73
0.94767	-82
0.95133	-87
0.95500	-86
0.95867	-81
0.96233	-76
0.96600	-73
0.96967	-72
0.97333	-73
0.97700	-71
0.98067	-65
0.98433	-60
0.98800	-59
0.99167	-60
0.99533	-62
0.99900	-63
1.00267	-63
1.00633	-67
1.01000	-71
1.01367	-71
1.01733	-67
1.02100	-64
1.02467	-62
1.02833	-61
1.03200	-62
1.03567	-63
1.03933	-66
1.04300	-72
1.04667	-80
1.05033	-86
1.05400	-89
1.05767	-93
1.06133	-97
1.06500	-100
1.06867	-99
1.07233	-92
1.07600	-85
1.07967	-84
1.08333	-85
1.08700	-86
1.09067	-88
1.09433	-90
1.09800	-92
1.10167	-93
1.10533	-92
1.10900	-91
1.11267	-91
1.11633	-106
1.12000	-110
1.12367	-105
1.12733	-87
1.13100	-55
1.13467	-30
1.13833	-31
1.14200	-43
1.14567	-57
1.14933	-68
1.15300	-75
1.15667	-82
1.16033	-85
1.16400	-84
1.16767	-84
1.17133	-86
1.17500	-86
1.17867	-83
1.18233	-78
1.18600	-75
1.18967	-81
1.19333	-92
1.19700	-105
1.20067	-115
1.20433	-119
1.20800	-119
1.21167	-118
1.21533	-108
1.21900	-101
1.22267	-100
1.22633	-102
1.23000	-104
1.23367	-103
1.23733	-98
1.24100	-93
1.24467	-93
1.24833	-94
1.25200	-93
1.25567	-91
1.25933	-88
1.26300	-82
1.26667	-79
1.27033	-79
1.27400	-83
1.27767	-88
1.28133	-89
1.28500	-90
1.28867	-92
1.29233	-94
1.29600	-95
1.29967	-96
1.30333	-94
1.30700	-85
1.31067	-77
1.31433	-71
1.31800	-71
1.32167	-74
1.32533	-81
1.32900	-90
1.33267	-100
1.33633	-104
1.34000	-105
1.34367	-104
1.34733	-104
1.35100	-100
1.35467	-95
1.35833	-94
1.36200	-92
1.36567	-92
1.36933	-94
1.37300	-95
1.37667	-96
1.38033	-96
1.38400	-98
1.38767	-101
1.39133	-102
1.39500	-103
1.39867	-104
1.40233	-109
1.40600	-116
1.40967	-119
1.41333	-118
1.41700	-112
1.42067	-106
1.42433	-102
1.42800	-95
1.43167	-89
1.43533	-84
1.43900	-80
1.44267	-78
1.44633	-81
1.45000	-87
1.45367	-81
1.45733	-16
1.46100	153
1.46467	411
1.46833	762
1.47200	1255
1.47567	1855
1.47933	2384
1.48300	2654
1.48667	2595
1.49033	2280
1.49400	1845
1.49767	1404
1.50133	1017
1.50500	704
1.50867	464
1.51233	286
1.51600	164
1.51967	86
1.52333	39
1.52700	7
1.53067	-15
1.53433	-33
1.53800	-48
1.54167	-61
1.54533	-70
1.54900	-71
1.55267	-62
1.55633	-18
1.56000	113
1.56367	363
1.56733	688
1.57100	972
1.57467	1106
1.57833	1060
1.58200	886
1.58567	662
1.58933	449
1.59300	278
1.59667	149
1.60033	64
1.60400	11
1.60767	-37
1.61133	-65
1.61500	-79
1.61867	-93
1.62233	-93
1.62600	-92
1.62967	-92
1.63333	-92
1.63700	-94
1.64067	-98
1.64433	-102
1.64800	-101
1.65167	-103
1.65533	-111
1.65900	-118
1.66267	-121
1.66633	-124
1.67000	-125
1.67367	-121
1.67733	-117
1.68100	-117
1.68467	-119
1.68833	-122
1.69200	-121
1.69567	-120
1.69933	-119
1.70300	-118
1.70667	-116
1.71033	-117
1.71400	-119
1.71767	-119
1.72133	-121
1.72500	-123
1.72867	-122
1.73233	-117
1.73600	-111
1.73967	-108
1.74333	-105
1.74700	-103
1.75067	-104
1.75433	-107
1.75800	-113
1.76167	-116
1.76533	-116
1.76900	-116
1.77267	-120
1.77633	-124
1.78000	-122
1.78367	-115
1.78733	-109
1.79100	-109
1.79467	-116
1.79833	-124
1.80200	-127
1.80567	-128
1.80933	-128
1.81300	-129
1.81667	-132
1.82033	-135
1.82400	-137
1.82767	-137
1.83133	-134
1.83500	-128
1.83867	-123
1.84233	-119
1.84600	-119
1.84967	-123
1.85333	-128
1.85700	-134
1.86067	-136
1.86433	-132
1.86800	-127
1.87167	-122
1.87533	-119
1.87900	-118
1.88267	-115
1.88633	-108
1.89000	-105
1.89367	-108
1.89733	-116
1.90100	-125
1.90467	-132
1.90833	-139
1.91200	-142
1.91567	-142
1.91933	-136
1.92300	-125
1.92667	-113
1.93033	-103
1.93400	-98
1.93767	-98
1.94133	-104
1.94500	-111
1.94867	-113
1.95233	-112
1.95600	-113
1.95967	-115
1.96333	-111
1.96700	-84
1.97067	25
1.97433	508
1.97800	2505
1.98167	9226
1.98533	26904
1.98900	62950
1.99267	119702
1.99633	187913
2.00000	248411
2.00367	282366
2.00733	281966
2.01100	252746
2.01467	207684
2.01833	159555
2.02200	116673
2.02567	82486
2.02933	57144
2.03300	39239
2.03667	26978
2.04033	18740
2.04400	13258
2.04767	9611
2.05133	7173
2.05500	5523
2.05867	4385
2.06233	3583
2.06600	3005
2.06967	2577
2.07333	2252
2.07700	1997
2.08067	1789
2.08433	1614
2.08800	1465
2.09167	1339
2.09533	1232
2.09900	1144
2.10267	1071
2.10633	1006
2.11000	948
2.11367	896
2.11733	852
2.12100	809
2.12467	763
2.12833	716
2.13200	669
2.13567	628
2.13933	594
2.14300	568
2.14667	548
2.15033	529
2.15400	514
2.15767	501
2.16133	486
2.16500	467
2.16867	446
2.17233	424
2.17600	403
2.17967	381
2.18333	360
2.18700	344
2.19067	329
2.19433	317
2.19800	307
2.20167	298
2.20533	290
2.20900	282
2.21267	272
2.21633	267
2.22000	267
2.22367	266
2.22733	261
2.23100	251
2.23467	242
2.23833	236
2.24200	230
2.24567	222
2.24933	211
2.25300	200
2.25667	189
2.26033	181
2.26400	176
2.26767	172
2.27133	165
2.27500	158
2.27867	153
2.28233	150
2.28600	148
2.28967	144
2.29333	142
2.29700	142
2.30067	144
2.30433	145
2.30800	145
2.31167	142
2.31533	137
2.31900	132
2.32267	131
2.32633	130
2.33000	126
2.33367	119
2.33733	111
2.34100	106
2.34467	100
2.34833	96
2.35200	96
2.35567	97
2.35933	97
2.36300	93
2.36667	86
2.37033	83
2.37400	84
2.37767	87
2.38133	89
2.38500	88
2.38867	87
2.39233	88
2.39600	89
2.39967	89
2.40333	87
2.40700	82
2.41067	78
2.41433	74
2.41800	71
2.42167	69
2.42533	67
2.42900	70
2.43267	75
2.43633	80
2.44000	83
2.44367	85
2.44733	85
2.45100	85
2.45467	84
2.45833	80
2.46200	73
2.46567	65
2.46933	60
2.47300	56
2.47667	53
2.48033	52
2.48400	55
2.48767	60
2.49133	61
2.49500	58
2.49867	54
2.50233	46
2.50600	42
2.50967	42
2.51333	45
2.51700	48
2.52067	49
2.52433	44
2.52800	38
2.53167	35
2.53533	33
2.53900	33
2.54267	35
2.54633	38
2.55000	42
2.55367	46
2.55733	47
2.56100	47
2.56467	47
2.56833	46
2.57200	42
2.57567	34
2.57933	25
2.58300	18
2.58667	15
2.59033	17
2.59400	21
2.59767	24
2.60133	27
2.60500	28
2.60867	30
2.61233	28
2.61600	22
2.61967	15
2.62333	11
2.62700	13
2.63067	17
2.63433	21
2.63800	24
2.64167	27
2.64533	32
2.64900	36
2.65267	37
2.65633	34
2.66000	29
2.66367	21
2.66733	14
2.67100	9
2.67467	6
2.67833	6
2.68200	8
2.68567	9
2.68933	9
2.69300	8
2.69667	9
2.70033	13
2.70400	15
2.70767	15
2.71133	15
2.71500	13
2.71867	9
2.72233	6
2.72600	2
2.72967	-3
2.73333	-5
2.73700	-4
2.74067	0
2.74433	9
2.74800	17
2.75167	18
2.75533	17
2.75900	13
2.76267	9
2.76633	4
2.77000	-2
2.77367	-5
2.77733	-2
2.78100	2
2.78467	5
2.78833	6
2.79200	8
2.79567	9
2.79933	5
2.80300	-4
2.80667	-13
2.81033	-15
2.81400	-13
2.81767	-9
2.82133	-6
2.82500	-5
2.82867	-2
2.83233	1
2.83600	7
2.83967	14
2.84333	17
2.84700	17
2.85067	13
2.85433	7
2.85800	4
2.86167	1
2.86533	2
2.86900	3
2.87267	2
2.87633	0
2.88000	-3
2.88367	-7
2.88733	-9
2.89100	-6
2.89467	0
2.89833	9
2.90200	18
2.90567	21
2.90933	13
2.91300	3
2.91667	-4
2.92033	-8
2.92400	-13
2.92767	-17
2.93133	-16
2.93500	-12
2.93867	-7
2.94233	0
2.94600	9
2.94967	15
2.95333	14
2.95700	9
2.96067	2
2.96433	-5
2.96800	-15
2.97167	-25
2.97533	-32
2.97900	-33
2.98267	-27
2.98633	-18
2.99000	-9
2.99367	-1
2.99733	7
3.00100	12
3.00467	15
3.00833	18
3.01200	17
3.01567	14
3.01933	12
3.02300	13
3.02667	14
3.03033	12
3.03400	9
3.03767	8
3.04133	14
3.04500	18
3.04867	18
3.05233	16
3.05600	14
3.05967	16
3.06333	17
3.06700	16
3.07067	11
3.07433	4
3.07800	-4
3.08167	-11
3.08533	-19
3.08900	-25
3.09267	-27
3.09633	-24
3.10000	-18
3.10367	-11
3.10733	-5
3.11100	-2
3.11467	-1
3.11833	-0
3.12200	1
3.12567	2
3.12933	1
3.13300	2
3.13667	5
3.14033	3
3.14400	0
3.14767	1
3.15133	2
3.15500	0
3.15867	-4
3.16233	-8
3.16600	-10
3.16967	-12
3.17333	-12
3.17700	-10
3.18067	-7
3.18433	-4
3.18800	-4
3.19167	-8
3.19533	-13
3.19900	-15
3.20267	-14
3.20633	-12
3.21000	-7
3.21367	0
3.21733	6
3.22100	7
3.22467	5
3.22833	6
3.23200	8
3.23567	8
3.23933	3
3.24300	-6
3.24667	-11
3.25033	-9
3.25400	-3
3.25767	1
3.26133	3
3.26500	5
3.26867	9
3.27233	12
3.27600	14
3.27967	16
3.28333	15
3.28700	11
3.29067	5
3.29433	-1
3.29800	-4
3.30167	-6
3.30533	-8
3.30900	-11
3.31267	-13
3.31633	-15
3.32000	-15
3.32367	-14
3.32733	-11
3.33100	-6
3.33467	-2
3.33833	-2
3.34200	-3
3.34567	-5
3.34933	-6
3.35300	-7
3.35667	-7
3.36033	-3
3.36400	-3
3.36767	-11
3.37133	-23
3.37500	-33
3.37867	-38
3.38233	-40
3.38600	-40
3.38967	-38
3.39333	-34
3.39700	-28
3.40067	-20
3.40433	-14
3.40800	-11
3.41167	-12
3.41533	-14
3.41900	-15
3.42267	-11
3.42633	-8
3.43000	-6
3.43367	-9
3.43733	-13
3.44100	-19
3.44467	-22
3.44833	-19
3.45200	-14
3.45567	-12
3.45933	-12
3.46300	-10
3.46667	-5
3.47033	-4
3.47400	-7
3.47767	-11
3.48133	-15
3.48500	-20
3.48867	-25
3.49233	-27
3.49600	-23
3.49967	-13
3.50333	-5
3.50700	-2
3.51067	-3
3.51433	-6
3.51800	-12
3.52167	-18
3.52533	-19
3.52900	-19
3.53267	-22
3.53633	-31
3.54000	-39
3.54367	-38
3.54733	-33
3.55100	-28
3.55467	-26
3.55833	-28
3.56200	-31
3.56567	-34
3.56933	-38
3.57300	-39
3.57667	-37
3.58033	-34
3.58400	-32
3.58767	-29
3.59133	-29
3.59500	-28
3.59867	-24
3.60233	-19
3.60600	-15
3.60967	-13
3.61333	-16
3.61700	-21
3.62067	-28
3.62433	-32
3.62800	-33
3.63167	-33
3.63533	-33
3.63900	-35
3.64267	-38
3.64633	-40
3.65000	-39
3.65367	-34
3.65733	-26
3.66100	-20
3.66467	-20
3.66833	-23
3.67200	-26
3.67567	-31
3.67933	-34
3.68300	-34
3.68667	-29
3.69033	-23
3.69400	-22
3.69767	-21
3.70133	-17
3.70500	-12
3.70867	-11
3.71233	-14
3.71600	-21
3.71967	-32
3.72333	-41
3.72700	-44
3.73067	-43
3.73433	-41
3.73800	-40
3.74167	-39
3.74533	-38
3.74900	-37
3.75267	-35
3.75633	-31
3.76000	-25
3.76367	-20
3.76733	-21
3.77100	-29
3.77467	-41
3.77833	-50
3.78200	-51
3.78567	-47
3.78933	-42
3.79300	-39
3.79667	-36
3.80033	-32
3.80400	-25
3.80767	-22
3.81133	-24
3.81500	-30
3.81867	-36
3.82233	-43
3.82600	-46
3.82967	-47
3.83333	-47
3.83700	-43
3.84067	-35
3.84433	-27
3.84800	-21
3.85167	-22
3.85533	-25
3.85900	-26
3.86267	-23
3.86633	-19
3.87000	-17
3.87367	-22
3.87733	-33
3.88100	-41
3.88467	-46
3.88833	-49
3.89200	-49
3.89567	-48
3.89933	-45
3.90300	-44
3.90667	-44
3.91033	-44
3.91400	-45
3.91767	-46
3.92133	-46
3.92500	-43
3.92867	-41
3.93233	-37
3.93600	-32
3.93967	-31
3.94333	-33
3.94700	-35
3.95067	-38
3.95433	-41
3.95800	-39
3.96167	-33
3.96533	-28
3.96900	-27
3.97267	-27
3.97633	-26
3.98000	-25
3.98367	-27
3.98733	-32
3.99100	-42
3.99467	-52
3.99833	-58

[Chromatogram (Ch2)]
Interval(msec)	220
# of Points	1091
Start Time(min)	0.002
End Time(min)	3.998
R.Time (min)	Intensity
0.00167	0
0.00533	0
0.00900	0
0.01267	-0
0.01633	-0
0.02000	-1
0.02367	-1
0.02733	-1
0.03100	-1
0.03467	-0
0.03833	-0
0.04200	-0
0.04567	0
0.04933	0
0.05300	1
0.05667	0
0.06033	0
0.06400	0
0.06767	-0
0.07133	-0
0.07500	-0
0.07867	-1
0.08233	-1
0.08600	-1
0.08967	-1
0.09333	-1
0.09700	-1
0.10067	-1
0.10433	-1
0.10800	-1
0.11167	-1
0.11533	-1
0.11900	-1
0.12267	-1
0.12633	-1
0.13000	-2
0.13367	-2
0.13733	-2
0.14100	-2
0.14467	-2
0.14833	-2
0.15200	-2
0.15567	-3
0.15933	-3
0.16300	-3
0.16667	-3
0.17033	-3
0.17400	-3
0.17767	-2
0.18133	-2
0.18500	-1
0.18867	-1
0.19233	-0
0.19600	-0
0.19967	0
0.20333	0
0.20700	0
0.21067	0
0.21433	0
0.21800	0
0.22167	-0
0.22533	-0
0.22900	-1
0.23267	-1
0.23633	-1
0.24000	-1
0.24367	-1
0.24733	-1
0.25100	-1
0.25467	-1
0.25833	-1
0.26200	-0
0.26567	-0
0.26933	0
0.27300	0
0.27667	0
0.28033	1
0.28400	1
0.28767	1
0.29133	1
0.29500	1
0.29867	1
0.30233	1
0.30600	1
0.30967	1
0.31333	1
0.31700	1
0.32067	1
0.32433	0
0.32800	0
0.33167	0
0.33533	0
0.33900	0
0.34267	0
0.34633	0
0.35000	1
0.35367	1
0.35733	1
0.36100	1
0.36467	1
0.36833	0
0.37200	0
0.37567	0
0.37933	0
0.38300	0
0.38667	0
0.39033	0
0.39400	1
0.39767	1
0.40133	1
0.40500	1
0.40867	1
0.41233	1
0.41600	1
0.41967	1
0.42333	1
0.42700	1
0.43067	1
0.43433	0
0.43800	0
0.44167	0
0.44533	0
0.44900	0
0.45267	0
0.45633	-0
0.46000	-0
0.46367	-0
0.46733	-1
0.47100	-1
0.47467	-1
0.47833	-1
0.48200	-1
0.48567	-1
0.48933	-0
0.49300	-0
0.49667	-0
0.50033	-0
0.50400	-0
0.50767	-0
0.51133	-0
0.51500	0
0.51867	0
0.52233	0
0.52600	-0
0.52967	-0
0.53333	-0
0.53700	-1
0.54067	-1
0.54433	-1
0.54800	-1
0.55167	-1
0.55533	-1
0.55900	-1
0.56267	-1
0.56633	-1
0.57000	-1
0.57367	-1
0.57733	-1
0.58100	-1
0.58467	-1
0.58833	-1
0.59200	-1
0.59567	-1
0.59933	-1
0.60300	-1
0.60667	-1
0.61033	-1
0.61400	-1
0.61767	-1
0.62133	-1
0.62500	-1
0.62867	-2
0.63233	-2
0.63600	-2
0.63967	-2
0.64333	-2
0.64700	-2
0.65067	-2
0.65433	-2
0.65800	-2
0.66167	-2
0.66533	-2
0.66900	-2
0.67267	-2
0.67633	-2
0.68000	-2
0.68367	-2
0.68733	-2
0.69100	-2
0.69467	-2
0.69833	-2
0.70200	-2
0.70567	-2
0.70933	-2
0.71300	-2
0.71667	-2
0.72033	-2
0.72400	-2
0.72767	-2
0.73133	-2
0.73500	-2
0.73867	-2
0.74233	-3
0.74600	-3
0.74967	-3
0.75333	-3
0.75700	-3
0.76067	-2
0.76433	-2
0.76800	-2
0.77167	-2
0.77533	-2
0.77900	-2
0.78267	-2
0.78633	-2
0.79000	-2
0.79367	-2
0.79733	-1
0.80100	-1
0.80467	-1
0.80833	-1
0.81200	-1
0.81567	-1
0.81933	-1
0.82300	-2
0.82667	-2
0.83033	-2
0.83400	-2
0.83767	-3
0.84133	-3
0.84500	-3
0.84867	-3
0.85233	-3
0.85600	-2
0.85967	-2
0.86333	-1
0.86700	-1
0.87067	-1
0.87433	-0
0.87800	-0
0.88167	-1
0.88533	-1
0.88900	-1
0.89267	-1
0.89633	-1
0.90000	-2
0.90367	-2
0.90733	-2
0.91100	-2
0.91467	-2
0.91833	-2
0.92200	-2
0.92567	-2
0.92933	-2
0.93300	-2
0.93667	-2
0.94033	-2
0.94400	-2
0.94767	-2
0.95133	-2
0.95500	-2
0.95867	-2
0.96233	-2
0.96600	-2
0.96967	-2
0.97333	-2
0.97700	-2
0.98067	-2
0.98433	-2
0.98800	-2
0.99167	-2
0.99533	-2
0.99900	-2
1.00267	-2
1.00633	-2
1.01000	-2
1.01367	-2
1.01733	-2
1.02100	-2
1.02467	-3
1.02833	-3
1.03200	-3
1.03567	-2
1.03933	-3
1.04300	-3
1.04667	-2
1.05033	-2
1.05400	-3
1.05767	-3
1.06133	-3
1.06500	-3
1.06867	-3
1.07233	-2
1.07600	-2
1.07967	-2
1.08333	-2
1.08700	-2
1.09067	-2
1.09433	-2
1.09800	-2
1.10167	-2
1.10533	-2
1.10900	-2
1.11267	-2
1.11633	-2
1.12000	-2
1.12367	-1
1.12733	-1
1.13100	-1
1.13467	-1
1.13833	-1
1.14200	-1
1.14567	-1
1.14933	-1
1.15300	-2
1.15667	-2
1.16033	-1
1.16400	-1
1.16767	-1
1.17133	-1
1.17500	-1
1.17867	-1
1.18233	-1
1.18600	-1
1.18967	-1
1.19333	-1
1.19700	-2
1.20067	-2
1.20433	-2
1.20800	-2
1.21167	-3
1.21533	-3
1.21900	-3
1.22267	-3
1.22633	-3
1.23000	-3
1.23367	-3
1.23733	-3
1.24100	-3
1.24467	-3
1.24833	-3
1.25200	-3
1.25567	-4
1.25933	-3
1.26300	-3
1.26667	-3
1.27033	-3
1.27400	-2
1.27767	-2
1.28133	-2
1.28500	-2
1.28867	-1
1.29233	-1
1.29600	-1
1.29967	-1
1.30333	-1
1.30700	-1
1.31067	-1
1.31433	-1
1.31800	-1
1.32167	-1
1.32533	-1
1.32900	-1
1.33267	-1
1.33633	-1
1.34000	-1
1.34367	-1
1.34733	-1
1.35100	-1
1.35467	-2
1.35833	-2
1.36200	-2
1.36567	-2
1.36933	-2
1.37300	-2
1.37667	-2
1.38033	-2
1.38400	-2
1.38767	-2
1.39133	-2
1.39500	-2
1.39867	-2
1.40233	-2
1.40600	-2
1.40967	-2
1.41333	-2
1.41700	-2
1.42067	-2
1.42433	-2
1.42800	-2
1.43167	-2
1.43533	-2
1.43900	-2
1.44267	-2
1.44633	-3
1.45000	-3
1.45367	-3
1.45733	-3
1.46100	-3
1.46467	-3
1.46833	-3
1.47200	-3
1.47567	-2
1.47933	-2
1.48300	-2
1.48667	-2
1.49033	-2
1.49400	-2
1.49767	-3
1.50133	-3
1.50500	-3
1.50867	-3
1.51233	-3
1.51600	-3
1.51967	-3
1.52333	-3
1.52700	-2
1.53067	-2
1.53433	-2
1.53800	-2
1.54167	-2
1.54533	-2
1.54900	-2
1.55267	-2
1.55633	-1
1.56000	-1
1.56367	-1
1.56733	-1
1.57100	-2
1.57467	-2
1.57833	-2
1.58200	-2
1.58567	-2
1.58933	-2
1.59300	-2
1.59667	-3
1.60033	-3
1.60400	-4
1.60767	-6
1.61133	-7
1.61500	-9
1.61867	-11
1.62233	-14
1.62600	-17
1.62967	-20
1.63333	-23
1.63700	-26
1.64067	-30
1.64433	-33
1.64800	-36
1.65167	-40
1.65533	-44
1.65900	-47
1.66267	-51
1.66633	-55
1.67000	-60
1.67367	-65
1.67733	-70
1.68100	-76
1.68467	-81
1.68833	-86
1.69200	-90
1.69567	-95
1.69933	-98
1.70300	-101
1.70667	-104
1.71033	-106
1.71400	-107
1.71767	-109
1.72133	-110
1.72500	-110
1.72867	-111
1.73233	-111
1.73600	-111
1.73967	-111
1.74333	-111
1.74700	-111
1.75067	-112
1.75433	-112
1.75800	-113
1.76167	-114
1.76533	-115
1.76900	-116
1.77267	-116
1.77633	-116
1.78000	-117
1.78367	-117
1.78733	-117
1.79100	-117
1.79467	-118
1.79833	-118
1.80200	-118
1.80567	-119
1.80933	-119
1.81300	-120
1.81667	-120
1.82033	-120
1.82400	-120
1.82767	-120
1.83133	-120
1.83500	-120
1.83867	-120
1.84233	-119
1.84600	-120
1.84967	-120
1.85333	-120
1.85700	-120
1.86067	-120
1.86433	-120
1.86800	-120
1.87167	-120
1.87533	-120
1.87900	-120
1.88267	-120
1.88633	-119
1.89000	-119
1.89367	-119
1.89733	-118
1.90100	-118
1.90467	-118
1.90833	-119
1.91200	-119
1.91567	-119
1.91933	-119
1.92300	-118
1.92667	-118
1.93033	-118
1.93400	-118
1.93767	-117
1.94133	-117
1.94500	-117
1.94867	-117
1.95233	-117
1.95600	-117
1.95967	-116
1.96333	-116
1.96700	-116
1.97067	-115
1.97433	-115
1.97800	-115
1.98167	-114
1.98533	-114
1.98900	-114
1.99267	-114
1.99633	-113
2.00000	-113
2.00367	-113
2.00733	-113
2.01100	-113
2.01467	-113
2.01833	-113
2.02200	-113
2.02567	-112
2.02933	-112
2.03300	-111
2.03667	-110
2.04033	-110
2.04400	-109
2.04767	-109
2.05133	-108
2.05500	-107
2.05867	-107
2.06233	-107
2.06600	-107
2.06967	-106
2.07333	-106
2.07700	-106
2.08067	-106
2.08433	-106
2.08800	-106
2.09167	-106
2.09533	-106
2.09900	-106
2.10267	-106
2.10633	-106
2.11000	-105
2.11367	-104
2.11733	-103
2.12100	-102
2.12467	-101
2.12833	-101
2.13200	-101
2.13567	-101
2.13933	-101
2.14300	-101
2.14667	-101
2.15033	-101
2.15400	-101
2.15767	-100
2.16133	-99
2.16500	-98
2.16867	-97
2.17233	-96
2.17600	-95
2.17967	-95
2.18333	-95
2.18700	-95
2.19067	-96
2.19433	-95
2.19800	-95
2.20167	-95
2.20533	-95
2.20900	-95
2.21267	-94
2.21633	-94
2.22000	-93
2.22367	-93
2.22733	-93
2.23100	-94
2.23467	-94
2.23833	-95
2.24200	-94
2.24567	-94
2.24933	-94
2.25300	-93
2.25667	-93
2.26033	-92
2.26400	-92
2.26767	-91
2.27133	-91
2.27500	-91
2.27867	-90
2.28233	-90
2.28600	-90
2.28967	-90
2.29333	-90
2.29700	-89
2.30067	-89
2.30433	-89
2.30800	-89
2.31167	-89
2.31533	-89
2.31900	-89
2.32267	-88
2.32633	-87
2.33000	-86
2.33367	-86
2.33733	-86
2.34100	-86
2.34467	-86
2.34833	-86
2.35200	-86
2.35567	-85
2.35933	-84
2.36300	-82
2.36667	-81
2.37033	-79
2.37400	-77
2.37767	-74
2.38133	-70
2.38500	-66
2.38867	-62
2.39233	-58
2.39600	-53
2.39967	-48
2.40333	-44
2.40700	-39
2.41067	-35
2.41433	-30
2.41800	-27
2.42167	-23
2.42533	-20
2.42900	-17
2.43267	-14
2.43633	-12
2.44000	-10
2.44367	-8
2.44733	-7
2.45100	-5
2.45467	-4
2.45833	-3
2.46200	-2
2.46567	-1
2.46933	-0
2.47300	1
2.47667	2
2.48033	3
2.48400	5
2.48767	6
2.49133	7
2.49500	8
2.49867	8
2.50233	9
2.50600	10
2.50967	10
2.51333	11
2.51700	11
2.52067	12
2.52433	12
2.52800	13
2.53167	13
2.53533	14
2.53900	14
2.54267	14
2.54633	15
2.55000	15
2.55367	15
2.55733	16
2.56100	16
2.56467	17
2.56833	17
2.57200	18
2.57567	18
2.57933	19
2.58300	19
2.58667	19
2.59033	19
2.59400	19
2.59767	19
2.60133	19
2.60500	19
2.60867	19
2.61233	19
2.61600	19
2.61967	20
2.62333	20
2.62700	19
2.63067	19
2.63433	19
2.63800	19
2.64167	19
2.64533	19
2.64900	19
2.65267	19
2.65633	20
2.66000	20
2.66367	20
2.66733	20
2.67100	20
2.67467	20
2.67833	20
2.68200	20
2.68567	20
2.68933	21
2.69300	21
2.69667	22
2.70033	22
2.70400	23
2.70767	23
2.71133	23
2.71500	23
2.71867	23
2.72233	23
2.72600	23
2.72967	23
2.73333	23
2.73700	24
2.74067	24
2.74433	24
2.74800	24
2.75167	25
2.75533	25
2.75900	26
2.76267	26
2.76633	26
2.77000	26
2.77367	26
2.77733	26
2.78100	26
2.78467	26
2.78833	25
2.79200	25
2.79567	25
2.79933	24
2.80300	24
2.80667	24
2.81033	24
2.81400	23
2.81767	23
2.82133	23
2.82500	23
2.82867	23
2.83233	24
2.83600	24
2.83967	24
2.84333	24
2.84700	25
2.85067	25
2.85433	26
2.85800	26
2.86167	26
2.86533	27
2.86900	27
2.87267	27
2.87633	26
2.88000	24
2.88367	20
2.88733	14
2.89100	6
2.89467	-6
2.89833	-21
2.90200	-39
2.90567	-60
2.90933	-84
2.91300	-112
2.91667	-143
2.92033	-176
2.92400	-211
2.92767	-249
2.93133	-289
2.93500	-332
2.93867	-375
2.94233	-414
2.94600	-443
2.94967	-459
2.95333	-462
2.95700	-452
2.96067	-432
2.96433	-406
2.96800	-374
2.97167	-340
2.97533	-305
2.97900	-271
2.98267	-239
2.98633	-208
2.99000	-180
2.99367	-155
2.99733	-132
3.00100	-112
3.00467	-95
3.00833	-79
3.01200	-66
3.01567	-54
3.01933	-44
3.02300	-35
3.02667	-28
3.03033	-21
3.03400	-15
3.03767	-10
3.04133	-6
3.04500	-2
3.04867	1
3.05233	4
3.05600	7
3.05967	9
3.06333	11
3.06700	12
3.07067	14
3.07433	15
3.07800	16
3.08167	16
3.08533	17
3.08900	18
3.09267	18
3.09633	19
3.10000	19
3.10367	20
3.10733	20
3.11100	20
3.11467	21
3.11833	21
3.12200	21
3.12567	22
3.12933	22
3.13300	22
3.13667	22
3.14033	22
3.14400	22
3.14767	22
3.15133	22
3.15500	23
3.15867	23
3.16233	23
3.16600	23
3.16967	23
3.17333	23
3.17700	23
3.18067	23
3.18433	23
3.18800	23
3.19167	23
3.19533	23
3.19900	23
3.20267	24
3.20633	24
3.21000	24
3.21367	24
3.21733	24
3.22100	24
3.22467	24
3.22833	24
3.23200	24
3.23567	24
3.23933	24
3.24300	25
3.24667	25
3.25033	25
3.25400	25
3.25767	25
3.26133	25
3.26500	25
3.26867	25
3.27233	25
3.27600	24
3.27967	24
3.28333	24
3.28700	24
3.29067	24
3.29433	24
3.29800	24
3.30167	25
3.30533	25
3.30900	25
3.31267	25
3.31633	26
3.32000	26
3.32367	26
3.32733	27
3.33100	27
3.33467	28
3.33833	28
3.34200	29
3.34567	29
3.34933	29
3.35300	29
3.35667	29
3.36033	29
3.36400	29
3.36767	29
3.37133	29
3.37500	29
3.37867	29
3.38233	29
3.38600	29
3.38967	29
3.39333	29
3.39700	29
3.40067	29
3.40433	29
3.40800	29
3.41167	29
3.41533	29
3.41900	28
3.42267	28
3.42633	28
3.43000	28
3.43367	28
3.43733	28
3.44100	28
3.44467	28
3.44833	27
3.45200	27
3.45567	27
3.45933	27
3.46300	27
3.46667	27
3.47033	27
3.47400	27
3.47767	27
3.48133	27
3.48500	27
3.48867	27
3.49233	27
3.49600	27
3.49967	27
3.50333	27
3.50700	27
3.51067	27
3.51433	27
3.51800	27
3.52167	27
3.52533	26
3.52900	26
3.53267	26
3.53633	26
3.54000	27
3.54367	27
3.54733	27
3.55100	27
3.55467	27
3.55833	27
3.56200	27
3.56567	27
3.56933	27
3.57300	27
3.57667	27
3.58033	27
3.58400	27
3.58767	27
3.59133	27
3.59500	27
3.59867	27
3.60233	27
3.60600	27
3.60967	27
3.61333	27
3.61700	27
3.62067	27
3.62433	27
3.62800	27
3.63167	27
3.63533	27
3.63900	27
3.64267	27
3.64633	27
3.65000	27
3.65367	27
3.65733	27
3.66100	27
3.66467	27
3.66833	27
3.67200	27
3.67567	27
3.67933	27
3.68300	27
3.68667	27
3.69033	26
3.69400	26
3.69767	27
3.70133	27
3.70500	27
3.70867	27
3.71233	27
3.71600	27
3.71967	27
3.72333	27
3.72700	26
3.73067	26
3.73433	26
3.73800	26
3.74167	26
3.74533	26
3.74900	27
3.75267	27
3.75633	27
3.76000	27
3.76367	27
3.76733	27
3.77100	27
3.77467	27
3.77833	27
3.78200	27
3.78567	27
3.78933	27
3.79300	27
3.79667	27
3.80033	27
3.80400	27
3.80767	27
3.81133	27
3.81500	27
3.81867	27
3.82233	27
3.82600	27
3.82967	27
3.83333	26
3.83700	26
3.84067	26
3.84433	26
3.84800	26
3.85167	26
3.85533	26
3.85900	26
3.86267	26
3.86633	26
3.87000	26
3.87367	26
3.87733	26
3.88100	26
3.88467	26
3.88833	26
3.89200	27
3.89567	27
3.89933	27
3.90300	27
3.90667	27
3.91033	27
3.91400	27
3.91767	27
3.92133	27
3.92500	27
3.92867	27
3.93233	27
3.93600	27
3.93967	27
3.94333	27
3.94700	27
3.95067	27
3.95433	27
3.95800	27
3.96167	27
3.96533	27
3.96900	27
3.97267	27
3.97633	28
3.98000	28
3.98367	28
3.98733	28
3.99100	28
3.99467	28
3.99833	28

[Chromatogram (Ch3)]
Interval(msec)	220
# of Points	1091
Start Time(min)	0.002
End Time(min)	3.998
R.Time (min)	Intensity
0.00167	1
0.00533	2
0.00900	2
0.01267	2
0.01633	1
0.02000	-2
0.02367	-3
0.02733	-2
0.03100	-2
0.03467	-1
0.03833	-0
0.04200	-0
0.04567	2
0.04933	3
0.05300	3
0.05667	5
0.06033	6
0.06400	7
0.06767	8
0.07133	9
0.07500	9
0.07867	9
0.08233	9
0.08600	8
0.08967	9
0.09333	11
0.09700	12
0.10067	11
0.10433	10
0.10800	12
0.11167	13
0.11533	12
0.11900	11
0.12267	10
0.12633	14
0.13000	16
0.13367	16
0.13733	15
0.14100	13
0.14467	12
0.14833	14
0.15200	14
0.15567	10
0.15933	7
0.16300	6
0.16667	4
0.17033	3
0.17400	4
0.17767	4
0.18133	4
0.18500	2
0.18867	4
0.19233	7
0.19600	10
0.19967	12
0.20333	15
0.20700	18
0.21067	19
0.21433	21
0.21800	19
0.22167	15
0.22533	11
0.22900	9
0.23267	7
0.23633	4
0.24000	6
0.24367	10
0.24733	14
0.25100	17
0.25467	19
0.25833	20
0.26200	21
0.26567	19
0.26933	16
0.27300	16
0.27667	17
0.28033	16
0.28400	16
0.28767	15
0.29133	15
0.29500	15
0.29867	16
0.30233	17
0.30600	16
0.30967	15
0.31333	14
0.31700	15
0.32067	15
0.32433	16
0.32800	14
0.33167	11
0.33533	11
0.33900	11
0.34267	12
0.34633	15
0.35000	15
0.35367	14
0.35733	13
0.36100	13
0.36467	13
0.36833	13
0.37200	13
0.37567	14
0.37933	15
0.38300	14
0.38667	13
0.39033	15
0.39400	14
0.39767	14
0.40133	11
0.40500	12
0.40867	13
0.41233	13
0.41600	14
0.41967	15
0.42333	14
0.42700	13
0.43067	13
0.43433	14
0.43800	15
0.44167	15
0.44533	15
0.44900	17
0.45267	16
0.45633	16
0.46000	15
0.46367	15
0.46733	13
0.47100	14
0.47467	17
0.47833	22
0.48200	25
0.48567	24
0.48933	23
0.49300	23
0.49667	20
0.50033	19
0.50400	21
0.50767	21
0.51133	21
0.51500	20
0.51867	17
0.52233	17
0.52600	17
0.52967	17
0.53333	17
0.53700	16
0.54067	17
0.54433	16
0.54800	17
0.55167	21
0.55533	23
0.55900	22
0.56267	20
0.56633	19
0.57000	20
0.57367	22
0.57733	24
0.58100	26
0.58467	25
0.58833	24
0.59200	25
0.59567	23
0.59933	20
0.60300	21
0.60667	22
0.61033	22
0.61400	23
0.61767	25
0.62133	24
0.62500	25
0.62867	27
0.63233	30
0.63600	28
0.63967	27
0.64333	27
0.64700	29
0.65067	30
0.65433	32
0.65800	30
0.66167	29
0.66533	27
0.66900	27
0.67267	29
0.67633	30
0.68000	29
0.68367	28
0.68733	27
0.69100	24
0.69467	24
0.69833	27
0.70200	29
0.70567	28
0.70933	27
0.71300	24
0.71667	23
0.72033	24
0.72400	24
0.72767	24
0.73133	24
0.73500	25
0.73867	25
0.74233	26
0.74600	25
0.74967	25
0.75333	25
0.75700	27
0.76067	29
0.76433	31
0.76800	33
0.77167	35
0.77533	37
0.77900	35
0.78267	31
0.78633	30
0.79000	32
0.79367	34
0.79733	34
0.80100	35
0.80467	38
0.80833	40
0.81200	41
0.81567	37
0.81933	34
0.82300	32
0.82667	30
0.83033	27
0.83400	24
0.83767	23
0.84133	23
0.84500	23
0.84867	24
0.85233	27
0.85600	31
0.85967	31
0.86333	29
0.86700	28
0.87067	30
0.87433	30
0.87800	30
0.88167	29
0.88533	32
0.88900	31
0.89267	29
0.89633	29
0.90000	31
0.90367	33
0.90733	34
0.91100	36
0.91467	37
0.91833	37
0.92200	38
0.92567	38
0.92933	37
0.93300	39
0.93667	39
0.94033	37
0.94400	37
0.94767	37
0.95133	37
0.95500	35
0.95867	35
0.96233	35
0.96600	33
0.96967	31
0.97333	32
0.97700	32
0.98067	32
0.98433	33
0.98800	34
0.99167	35
0.99533	37
0.99900	39
1.00267	39
1.00633	37
1.01000	35
1.01367	33
1.01733	32
1.02100	32
1.02467	31
1.02833	31
1.03200	32
1.03567	34
1.03933	36
1.04300	37
1.04667	37
1.05033	35
1.05400	35
1.05767	34
1.06133	33
1.06500	33
1.06867	33
1.07233	32
1.07600	32
1.07967	35
1.08333	39
1.08700	43
1.09067	45
1.09433	44
1.09800	42
1.10167	40
1.10533	40
1.10900	41
1.11267	40
1.11633	36
1.12000	32
1.12367	31
1.12733	33
1.13100	35
1.13467	36
1.13833	38
1.14200	42
1.14567	42
1.14933	38
1.15300	34
1.15667	31
1.16033	32
1.16400	33
1.16767	33
1.17133	34
1.17500	33
1.17867	33
1.18233	33
1.18600	33
1.18967	33
1.19333	34
1.19700	33
1.20067	30
1.20433	28
1.20800	28
1.21167	30
1.21533	32
1.21900	32
1.22267	31
1.22633	34
1.23000	35
1.23367	35
1.23733	35
1.24100	35
1.24467	35
1.24833	35
1.25200	37
1.25567	38
1.25933	39
1.26300	37
1.26667	36
1.27033	35
1.27400	35
1.27767	34
1.28133	31
1.28500	30
1.28867	29
1.29233	28
1.29600	27
1.29967	25
1.30333	26
1.30700	27
1.31067	27
1.31433	27
1.31800	27
1.32167	27
1.32533	27
1.32900	29
1.33267	31
1.33633	32
1.34000	31
1.34367	30
1.34733	30
1.35100	29
1.35467	29
1.35833	29
1.36200	31
1.36567	31
1.36933	28
1.37300	29
1.37667	29
1.38033	29
1.38400	28
1.38767	30
1.39133	31
1.39500	32
1.39867	31
1.40233	30
1.40600	31
1.40967	30
1.41333	30
1.41700	33
1.42067	35
1.42433	35
1.42800	34
1.43167	32
1.43533	30
1.43900	27
1.44267	24
1.44633	24
1.45000	26
1.45367	29
1.45733	29
1.46100	30
1.46467	27
1.46833	25
1.47200	23
1.47567	23
1.47933	23
1.48300	22
1.48667	24
1.49033	24
1.49400	25
1.49767	27
1.50133	28
1.50500	29
1.50867	28
1.51233	28
1.51600	26
1.51967	24
1.52333	23
1.52700	21
1.53067	22
1.53433	24
1.53800	27
1.54167	28
1.54533	29
1.54900	28
1.55267	26
1.55633	26
1.56000	26
1.56367	26
1.56733	27
1.57100	28
1.57467	29
1.57833	30
1.58200	32
1.58567	33
1.58933	32
1.59300	29
1.59667	27
1.60033	28
1.60400	29
1.60767	30
1.61133	29
1.61500	28
1.61867	27
1.62233	27
1.62600	29
1.62967	30
1.63333	29
1.63700	26
1.64067	26
1.64433	24
1.64800	24
1.65167	26
1.65533	29
1.65900	29
1.66267	29
1.66633	31
1.67000	33
1.67367	34
1.67733	35
1.68100	34
1.68467	35
1.68833	37
1.69200	39
1.69567	36
1.69933	35
1.70300	36
1.70667	38
1.71033	40
1.71400	42
1.71767	43
1.72133	44
1.72500	47
1.72867	48
1.73233	47
1.73600	45
1.73967	46
1.74333	46
1.74700	45
1.75067	43
1.75433	43
1.75800	45
1.76167	46
1.76533	47
1.76900	47
1.77267	48
1.77633	49
1.78000	47
1.78367	46
1.78733	50
1.79100	55
1.79467	55
1.79833	54
1.80200	53
1.80567	55
1.80933	59
1.81300	60
1.81667	57
1.82033	55
1.82400	54
1.82767	57
1.83133	57
1.83500	59
1.83867	60
1.84233	61
1.84600	62
1.84967	62
1.85333	61
1.85700	60
1.86067	62
1.86433	63
1.86800	63
1.87167	65
1.87533	64
1.87900	63
1.88267	62
1.88633	63
1.89000	66
1.89367	68
1.89733	70
1.90100	70
1.90467	69
1.90833	71
1.91200	72
1.91567	73
1.91933	72
1.92300	69
1.92667	70
1.93033	72
1.93400	73
1.93767	72
1.94133	71
1.94500	71
1.94867	72
1.95233	72
1.95600	74
1.95967	75
1.96333	79
1.96700	82
1.97067	83
1.97433	82
1.97800	81
1.98167	80
1.98533	79
1.98900	79
1.99267	78
1.99633	79
2.00000	82
2.00367	82
2.00733	83
2.01100	85
2.01467	87
2.01833	86
2.02200	84
2.02567	83
2.02933	83
2.03300	85
2.03667	86
2.04033	87
2.04400	88
2.04767	88
2.05133	89
2.05500	91
2.05867	93
2.06233	93
2.06600	93
2.06967	93
2.07333	93
2.07700	94
2.08067	93
2.08433	95
2.08800	94
2.09167	92
2.09533	92
2.09900	94
2.10267	95
2.10633	96
2.11000	95
2.11367	93
2.11733	92
2.12100	95
2.12467	98
2.12833	100
2.13200	100
2.13567	102
2.13933	101
2.14300	100
2.14667	101
2.15033	101
2.15400	99
2.15767	100
2.16133	102
2.16500	102
2.16867	102
2.17233	101
2.17600	102
2.17967	102
2.18333	104
2.18700	106
2.19067	108
2.19433	110
2.19800	112
2.20167	113
2.20533	117
2.20900	119
2.21267	118
2.21633	117
2.22000	116
2.22367	115
2.22733	115
2.23100	117
2.23467	121
2.23833	127
2.24200	131
2.24567	132
2.24933	131
2.25300	131
2.25667	133
2.26033	133
2.26400	133
2.26767	132
2.27133	129
2.27500	128
2.27867	129
2.28233	129
2.28600	132
2.28967	137
2.29333	137
2.29700	136
2.30067	137
2.30433	139
2.30800	142
2.31167	147
2.31533	148
2.31900	147
2.32267	147
2.32633	149
2.33000	149
2.33367	149
2.33733	152
2.34100	156
2.34467	160
2.34833	162
2.35200	163
2.35567	163
2.35933	162
2.36300	163
2.36667	165
2.37033	166
2.37400	168
2.37767	168
2.38133	168
2.38500	170
2.38867	172
2.39233	173
2.39600	173
2.39967	175
2.40333	178
2.40700	181
2.41067	183
2.41433	184
2.41800	181
2.42167	183
2.42533	185
2.42900	188
2.43267	188
2.43633	188
2.44000	188
2.44367	205
2.44733	250
2.45100	298
2.45467	328
2.45833	326
2.46200	308
2.46567	291
2.46933	277
2.47300	261
2.47667	242
2.48033	219
2.48400	194
2.48767	170
2.49133	150
2.49500	137
2.49867	127
2.50233	120
2.50600	120
2.50967	124
2.51333	128
2.51700	130
2.52067	128
2.52433	121
2.52800	109
2.53167	95
2.53533	80
2.53900	66
2.54267	53
2.54633	43
2.55000	36
2.55367	32
2.55733	30
2.56100	25
2.56467	23
2.56833	23
2.57200	23
2.57567	22
2.57933	24
2.58300	28
2.58667	32
2.59033	36
2.59400	39
2.59767	38
2.60133	39
2.60500	44
2.60867	49
2.61233	55
2.61600	58
2.61967	58
2.62333	52
2.62700	41
2.63067	22
2.63433	-0
2.63800	-25
2.64167	-49
2.64533	-74
2.64900	-96
2.65267	-115
2.65633	-128
2.66000	-136
2.66367	-141
2.66733	-143
2.67100	-144
2.67467	-145
2.67833	-143
2.68200	-138
2.68567	-133
2.68933	-127
2.69300	-121
2.69667	-117
2.70033	-115
2.70400	-112
2.70767	-110
2.71133	-107
2.71500	-101
2.71867	-94
2.72233	-90
2.72600	-86
2.72967	-80
2.73333	-76
2.73700	-72
2.74067	-69
2.74433	-67
2.74800	-63
2.75167	-61
2.75533	-58
2.75900	-56
2.76267	-55
2.76633	-51
2.77000	-46
2.77367	-45
2.77733	-45
2.78100	-42
2.78467	-38
2.78833	-34
2.79200	-30
2.79567	-28
2.79933	-26
2.80300	-22
2.80667	-17
2.81033	-11
2.81400	-4
2.81767	2
2.82133	4
2.82500	5
2.82867	7
2.83233	8
2.83600	9
2.83967	11
2.84333	18
2.84700	30
2.85067	53
2.85433	103
2.85800	196
2.86167	344
2.86533	556
2.86900	825
2.87267	1132
2.87633	1443
2.88000	1721
2.88367	1936
2.88733	2073
2.89100	2124
2.89467	2099
2.89833	2016
2.90200	1890
2.90567	1739
2.90933	1578
2.91300	1415
2.91667	1255
2.92033	1103
2.92400	964
2.92767	840
2.93133	729
2.93500	628
2.93867	541
2.94233	466
2.94600	401
2.94967	344
2.95333	293
2.95700	250
2.96067	213
2.96433	181
2.96800	152
2.97167	127
2.97533	105
2.97900	89
2.98267	75
2.98633	65
2.99000	58
2.99367	51
2.99733	43
3.00100	36
3.00467	29
3.00833	24
3.01200	19
3.01567	16
3.01933	12
3.02300	10
3.02667	8
3.03033	7
3.03400	5
3.03767	4
3.04133	4
3.04500	3
3.04867	2
3.05233	2
3.05600	1
3.05967	-0
3.06333	-3
3.06700	-6
3.07067	-8
3.07433	-10
3.07800	-11
3.08167	-11
3.08533	-9
3.08900	-8
3.09267	-8
3.09633	-10
3.10000	-10
3.10367	-12
3.10733	-12
3.11100	-11
3.11467	-10
3.11833	-11
3.12200	-12
3.12567	-13
3.12933	-14
3.13300	-13
3.13667	-12
3.14033	-13
3.14400	-13
3.14767	-14
3.15133	-12
3.15500	-9
3.15867	-5
3.16233	-4
3.16600	-6
3.16967	-9
3.17333	-9
3.17700	-8
3.18067	-6
3.18433	-3
3.18800	-0
3.19167	1
3.19533	-0
3.19900	-2
3.20267	-3
3.20633	-2
3.21000	-1
3.21367	2
3.21733	5
3.22100	8
3.22467	12
3.22833	15
3.23200	17
3.23567	21
3.23933	22
3.24300	23
3.24667	22
3.25033	20
3.25400	19
3.25767	20
3.26133	22
3.26500	24
3.26867	25
3.27233	27
3.27600	28
3.27967	29
3.28333	30
3.28700	31
3.29067	32
3.29433	36
3.29800	36
3.30167	35
3.30533	35
3.30900	36
3.31267	38
3.31633	37
3.32000	36
3.32367	37
3.32733	38
3.33100	39
3.33467	39
3.33833	37
3.34200	35
3.34567	34
3.34933	34
3.35300	35
3.35667	36
3.36033	36
3.36400	36
3.36767	36
3.37133	36
3.37500	34
3.37867	32
3.38233	29
3.38600	27
3.38967	28
3.39333	27
3.39700	27
3.40067	25
3.40433	23
3.40800	22
3.41167	23
3.41533	21
3.41900	19
3.42267	17
3.42633	19
3.43000	19
3.43367	19
3.43733	20
3.44100	21
3.44467	21
3.44833	21
3.45200	19
3.45567	17
3.45933	16
3.46300	15
3.46667	14
3.47033	11
3.47400	9
3.47767	7
3.48133	6
3.48500	7
3.48867	9
3.49233	9
3.49600	8
3.49967	8
3.50333	7
3.50700	3
3.51067	-1
3.51433	-3
3.51800	-3
3.52167	-2
3.52533	0
3.52900	3
3.53267	3
3.53633	-0
3.54000	-2
3.54367	-5
3.54733	-7
3.55100	-7
3.55467	-5
3.55833	-4
3.56200	-6
3.56567	-7
3.56933	-5
3.57300	-14
3.57667	-32
3.58033	-45
3.58400	-49
3.58767	-49
3.59133	-49
3.59500	-51
3.59867	-54
3.60233	-56
3.60600	-55
3.60967	-49
3.61333	-43
3.61700	-37
3.62067	-32
3.62433	-27
3.62800	-25
3.63167	-21
3.63533	-15
3.63900	-7
3.64267	1
3.64633	7
3.65000	14
3.65367	22
3.65733	31
3.66100	42
3.66467	49
3.66833	54
3.67200	62
3.67567	70
3.67933	78
3.68300	89
3.68667	97
3.69033	103
3.69400	110
3.69767	116
3.70133	123
3.70500	129
3.70867	134
3.71233	140
3.71600	144
3.71967	147
3.72333	150
3.72700	154
3.73067	159
3.73433	162
3.73800	163
3.74167	164
3.74533	165
3.74900	168
3.75267	171
3.75633	171
3.76000	171
3.76367	172
3.76733	174
3.77100	172
3.77467	170
3.77833	169
3.78200	169
3.78567	170
3.78933	173
3.79300	175
3.79667	175
3.80033	176
3.80400	177
3.80767	179
3.81133	180
3.81500	182
3.81867	181
3.82233	180
3.82600	179
3.82967	179
3.83333	178
3.83700	178
3.84067	178
3.84433	177
3.84800	175
3.85167	172
3.85533	170
3.85900	170
3.86267	169
3.86633	168
3.87000	168
3.87367	168
3.87733	170
3.88100	171
3.88467	169
3.88833	168
3.89200	167
3.89567	164
3.89933	161
3.90300	162
3.90667	163
3.91033	163
3.91400	163
3.91767	163
3.92133	166
3.92500	170
3.92867	170
3.93233	168
3.93600	166
3.93967	166
3.94333	165
3.94700	162
3.95067	160
3.95433	159
3.95800	157
3.96167	156
3.96533	154
3.96900	155
3.97267	157
3.97633	155
3.98000	154
3.98367	156
3.98733	156
3.99100	155
3.99467	153
3.99833	151

[Status Trace (Column Oven Temperature)]
Interval(msec)	1000
# of Points	240
Start Time(min)	0.012
End Time(min)	3.996
Intensity Units	
Intensity Multiplier	1
R.Time (min)	Intensity
0.01223	35.05
0.02890	35.05
0.04557	35.05
0.06223	35.04
0.07890	35.04
0.09557	35.05
0.11223	35.05
0.12890	35.06
0.14557	35.07
0.16223	35.07
0.17890	35.05
0.19557	35.04
0.21223	35.03
0.22890	35.03
0.24557	35.04
0.26223	35.03
0.27890	35.02
0.29557	35.02
0.31223	35.02
0.32890	35.01
0.34557	35.00
0.36223	34.99
0.37890	34.99
0.39557	34.98
0.41223	34.99
0.42890	34.98
0.44557	34.98
0.46223	34.99
0.47890	35.00
0.49557	34.99
0.51223	34.98
0.52890	34.98
0.54557	34.99
0.56223	34.99
0.57890	34.98
0.59557	34.98
0.61223	34.97
0.62890	34.98
0.64557	34.98
0.66223	34.99
0.67890	34.98
0.69557	34.99
0.71223	34.99
0.72890	34.99
0.74557	35.00
0.76223	35.00
0.77890	35.01
0.79557	35.01
0.81223	35.01
0.82890	35.00
0.84557	35.01
0.86223	35.00
0.87890	35.00
0.89557	35.00
0.91223	35.00
0.92890	35.00
0.94557	34.98
0.96223	34.98
0.97890	34.98
0.99557	34.98
1.01223	34.98
1.02890	34.99
1.04557	35.00
1.06223	34.99
1.07890	34.99
1.09557	34.99
1.11223	35.00
1.12890	34.99
1.14557	34.99
1.16223	34.98
1.17890	34.98
1.19557	34.99
1.21223	35.00
1.22890	35.01
1.24557	35.01
1.26223	35.01
1.27890	35.01
1.29557	35.00
1.31223	35.00
1.32890	34.99
1.34557	34.99
1.36223	34.99
1.37890	34.98
1.39557	34.98
1.41223	34.99
1.42890	34.99
1.44557	35.00
1.46223	35.00
1.47890	35.00
1.49557	35.00
1.51223	35.00
1.52890	35.00
1.54557	35.01
1.56223	35.00
1.57890	35.01
1.59557	35.02
1.61223	35.09
1.62890	35.24
1.64557	35.43
1.66223	35.69
1.67890	36.03
1.69557	36.41
1.71223	36.77
1.72890	37.09
1.74557	37.40
1.76223	37.75
1.77890	38.07
1.79557	38.40
1.81223	38.75
1.82890	39.07
1.84557	39.41
1.86223	39.74
1.87890	40.06
1.89557	40.39
1.91223	40.71
1.92890	41.03
1.94557	41.37
1.96223	41.70
1.97890	42.02
1.99557	42.35
2.01223	42.69
2.02890	43.01
2.04557	43.32
2.06223	43.65
2.07890	43.97
2.09557	44.31
2.11223	44.62
2.12890	44.95
2.14557	45.30
2.16223	45.60
2.17890	45.92
2.19557	46.24
2.21223	46.56
2.22890	46.92
2.24557	47.25
2.26223	47.57
2.27890	47.91
2.29557	48.23
2.31223	48.57
2.32890	48.89
2.34557	49.23
2.36223	49.50
2.37890	49.65
2.39557	49.69
2.41223	49.67
2.42890	49.67
2.44557	49.68
2.46223	49.70
2.47890	49.70
2.49557	49.72
2.51223	49.74
2.52890	49.74
2.54557	49.75
2.56223	49.77
2.57890	49.77
2.59557	49.80
2.61223	49.80
2.62890	49.81
2.64557	49.81
2.66223	49.83
2.67890	49.85
2.69557	49.85
2.71223	49.85
2.72890	49.86
2.74557	49.86
2.76223	49.84
2.77890	49.85
2.79557	49.86
2.81223	49.88
2.82890	49.90
2.84557	49.89
2.86223	49.89
2.87890	49.89
2.89557	49.91
2.91223	49.92
2.92890	49.92
2.94557	49.92
2.96223	49.93
2.97890	49.94
2.99557	49.96
3.01223	49.98
3.02890	50.00
3.04557	50.01
3.06223	50.02
3.07890	50.03
3.09557	50.04
3.11223	50.04
3.12890	50.04
3.14557	50.05
3.16223	50.06
3.17890	50.06
3.19557	50.07
3.21223	50.07
3.22890	50.08
3.24557	50.08
3.26223	50.10
3.27890	50.11
3.29557	50.10
3.31223	50.10
3.32890	50.09
3.34557	50.08
3.36223	50.07
3.37890	50.07
3.39557	50.06
3.41223	50.05
3.42890	50.04
3.44557	50.04
3.46223	50.04
3.47890	50.04
3.49557	50.05
3.51223	50.05
3.52890	50.06
3.54557	50.06
3.56223	50.06
3.57890	50.05
3.59557	50.05
3.61223	50.06
3.62890	50.05
3.64557	50.05
3.66223	50.05
3.67890	50.06
3.69557	50.06
3.71223	50.06
3.72890	50.07
3.74557	50.06
3.76223	50.06
3.77890	50.06
3.79557	50.06
3.81223	50.07
3.82890	50.07
3.84557	50.07
3.86223	50.07
3.87890	50.08
3.89557	50.08
3.91223	50.07
3.92890	50.07
3.94557	50.06
3.96223	50.06
3.97890	50.05
3.99557	50.05

[Status Trace (Injection Unit Temperature)]
Interval(msec)	1000
# of Points	240
Start Time(min)	0.012
End Time(min)	3.996
Intensity Units	
Intensity Multiplier	1
R.Time (min)	Intensity
0.01223	99.98
0.02890	99.98
0.04557	99.98
0.06223	99.98
0.07890	99.98
0.09557	99.99
0.11223	99.98
0.12890	99.98
0.14557	99.98
0.16223	99.99
0.17890	99.99
0.19557	99.99
0.21223	99.99
0.22890	99.98
0.24557	99.99
0.26223	99.98
0.27890	99.99
0.29557	99.99
0.31223	99.99
0.32890	99.99
0.34557	99.99
0.36223	99.99
0.37890	99.99
0.39557	99.98
0.41223	99.98
0.42890	99.99
0.44557	99.99
0.46223	99.99
0.47890	99.99
0.49557	99.99
0.51223	99.99
0.52890	99.99
0.54557	99.99
0.56223	99.99
0.57890	99.98
0.59557	99.99
0.61223	99.99
0.62890	99.98
0.64557	99.99
0.66223	99.99
0.67890	99.98
0.69557	99.98
0.71223	99.98
0.72890	99.98
0.74557	99.98
0.76223	99.98
0.77890	99.98
0.79557	99.98
0.81223	99.98
0.82890	99.98
0.84557	99.98
0.86223	99.98
0.87890	99.98
0.89557	99.98
0.91223	99.98
0.92890	99.98
0.94557	99.98
0.96223	99.97
0.97890	99.98
0.99557	99.98
1.01223	99.98
1.02890	99.98
1.04557	99.98
1.06223	99.98
1.07890	99.98
1.09557	99.98
1.11223	99.98
1.12890	99.98
1.14557	99.98
1.16223	99.97
1.17890	99.98
1.19557	99.98
1.21223	99.98
1.22890	99.98
1.24557	99.98
1.26223	99.98
1.27890	99.98
1.29557	99.98
1.31223	99.98
1.32890	99.98
1.34557	99.98
1.36223	99.98
1.37890	99.98
1.39557	99.98
1.41223	99.98
1.42890	99.98
1.44557	99.98
1.46223	99.98
1.47890	99.98
1.49557	99.98
1.51223	99.98
1.52890	99.98
1.54557	99.98
1.56223	99.98
1.57890	99.98
1.59557	99.98
1.61223	99.99
1.62890	99.98
1.64557	99.98
1.66223	99.98
1.67890	99.98
1.69557	99.98
1.71223	99.99
1.72890	99.98
1.74557	99.99
1.76223	99.99
1.77890	99.98
1.79557	99.99
1.81223	99.99
1.82890	99.98
1.84557	99.99
1.86223	99.99
1.87890	99.98
1.89557	99.98
1.91223	99.99
1.92890	99.98
1.94557	99.99
1.96223	99.98
1.97890	99.98
1.99557	99.98
2.01223	99.98
2.02890	99.98
2.04557	99.98
2.06223	99.98
2.07890	99.98
2.09557	99.98
2.11223	99.98
2.12890	99.98
2.14557	99.98
2.16223	99.98
2.17890	99.98
2.19557	99.98
2.21223	99.97
2.22890	99.97
2.24557	99.97
2.26223	99.97
2.27890	99.97
2.29557	99.97
2.31223	99.97
2.32890	99.97
2.34557	99.97
2.36223	99.97
2.37890	99.97
2.39557	99.97
2.41223	99.97
2.42890	99.97
2.44557	99.97
2.46223	99.97
2.47890	99.97
2.49557	99.97
2.51223	99.97
2.52890	99.97
2.54557	99.97
2.56223	99.97
2.57890	99.97
2.59557	99.97
2.61223	99.98
2.62890	99.98
2.64557	99.98
2.66223	99.98
2.67890	99.98
2.69557	99.98
2.71223	99.98
2.72890	99.99
2.74557	99.98
2.76223	99.98
2.77890	99.98
2.79557	99.99
2.81223	99.99
2.82890	99.99
2.84557	99.99
2.86223	100.00
2.87890	100.00
2.89557	100.00
2.91223	100.00
2.92890	100.00
2.94557	100.00
2.96223	100.00
2.97890	100.00
2.99557	100.01
3.01223	100.01
3.02890	100.01
3.04557	100.01
3.06223	100.02
3.07890	100.02
3.09557	100.02
3.11223	100.02
3.12890	100.02
3.14557	100.02
3.16223	100.02
3.17890	100.02
3.19557	100.02
3.21223	100.03
3.22890	100.03
3.24557	100.03
3.26223	100.03
3.27890	100.03
3.29557	100.03
3.31223	100.03
3.32890	100.03
3.34557	100.03
3.36223	100.04
3.37890	100.04
3.39557	100.04
3.41223	100.04
3.42890	100.04
3.44557	100.04
3.46223	100.04
3.47890	100.04
3.49557	100.04
3.51223	100.04
3.52890	100.04
3.54557	100.04
3.56223	100.04
3.57890	100.05
3.59557	100.04
3.61223	100.04
3.62890	100.05
3.64557	100.04
3.66223	100.05
3.67890	100.05
3.69557	100.05
3.71223	100.05
3.72890	100.05
3.74557	100.04
3.76223	100.05
3.77890	100.05
3.79557	100.05
3.81223	100.05
3.82890	100.05
3.84557	100.05
3.86223	100.05
3.87890	100.05
3.89557	100.05
3.91223	100.05
3.92890	100.05
3.94557	100.04
3.96223	100.05
3.97890	100.05
3.99557	100.05

[Status Trace (Carrier Gas Pressure)]
Interval(msec)	1000
# of Points	240
Start Time(min)	0.012
End Time(min)	3.996
Intensity Units	
Intensity Multiplier	1
R.Time (min)	Intensity
0.01223	57.98
0.02890	54.96
0.04557	57.62
0.06223	59.67
0.07890	59.07
0.09557	58.00
0.11223	57.99
0.12890	58.01
0.14557	58.01
0.16223	58.00
0.17890	58.00
0.19557	58.00
0.21223	58.00
0.22890	58.00
0.24557	58.00
0.26223	58.00
0.27890	58.00
0.29557	58.00
0.31223	58.00
0.32890	58.00
0.34557	58.00
0.36223	58.00
0.37890	58.00
0.39557	58.00
0.41223	58.00
0.42890	58.00
0.44557	58.00
0.46223	58.00
0.47890	58.00
0.49557	58.00
0.51223	58.00
0.52890	58.00
0.54557	58.00
0.56223	58.00
0.57890	58.00
0.59557	58.00
0.61223	58.00
0.62890	58.00
0.64557	58.00
0.66223	58.00
0.67890	58.00
0.69557	58.00
0.71223	58.00
0.72890	58.00
0.74557	58.00
0.76223	58.00
0.77890	58.00
0.79557	58.00
0.81223	58.00
0.82890	58.00
0.84557	58.00
0.86223	58.00
0.87890	58.00
0.89557	58.00
0.91223	58.00
0.92890	58.00
0.94557	58.00
0.96223	58.00
0.97890	58.00
0.99557	58.00
1.01223	58.00
1.02890	58.00
1.04557	58.00
1.06223	58.00
1.07890	58.00
1.09557	58.00
1.11223	58.00
1.12890	58.00
1.14557	58.00
1.16223	58.00
1.17890	58.00
1.19557	58.00
1.21223	58.00
1.22890	58.00
1.24557	58.00
1.26223	58.00
1.27890	58.00
1.29557	58.00
1.31223	58.00
1.32890	58.00
1.34557	58.00
1.36223	58.00
1.37890	58.00
1.39557	58.00
1.41223	58.00
1.42890	58.00
1.44557	58.00
1.46223	58.00
1.47890	58.00
1.49557	58.00
1.51223	58.00
1.52890	58.00
1.54557	58.00
1.56223	58.00
1.57890	58.00
1.59557	58.00
1.61223	58.00
1.62890	58.00
1.64557	58.01
1.66223	58.00
1.67890	58.01
1.69557	58.00
1.71223	58.00
1.72890	58.00
1.74557	58.00
1.76223	58.00
1.77890	58.00
1.79557	58.00
1.81223	58.00
1.82890	58.00
1.84557	58.00
1.86223	58.00
1.87890	58.00
1.89557	58.00
1.91223	58.00
1.92890	58.00
1.94557	58.00
1.96223	58.00
1.97890	58.00
1.99557	58.00
2.01223	58.00
2.02890	58.00
2.04557	58.00
2.06223	58.00
2.07890	58.00
2.09557	58.00
2.11223	58.00
2.12890	58.00
2.14557	58.00
2.16223	58.00
2.17890	58.00
2.19557	58.00
2.21223	58.00
2.22890	58.00
2.24557	58.00
2.26223	58.00
2.27890	58.00
2.29557	58.00
2.31223	58.00
2.32890	58.00
2.34557	58.00
2.36223	58.00
2.37890	57.99
2.39557	57.99
2.41223	57.99
2.42890	58.00
2.44557	58.00
2.46223	58.00
2.47890	58.00
2.49557	58.00
2.51223	57.99
2.52890	57.98
2.54557	58.00
2.56223	58.00
2.57890	58.00
2.59557	58.00
2.61223	58.00
2.62890	58.00
2.64557	58.00
2.66223	58.00
2.67890	58.00
2.69557	58.00
2.71223	58.00
2.72890	58.00
2.74557	58.00
2.76223	58.00
2.77890	58.00
2.79557	58.00
2.81223	58.00
2.82890	58.00
2.84557	58.00
2.86223	58.00
2.87890	58.00
2.89557	58.00
2.91223	58.00
2.92890	58.00
2.94557	58.00
2.96223	58.00
2.97890	58.00
2.99557	58.00
3.01223	58.00
3.02890	58.00
3.04557	58.00
3.06223	58.00
3.07890	58.00
3.09557	58.00
3.11223	58.00
3.12890	58.00
3.14557	58.00
3.16223	58.00
3.17890	58.00
3.19557	58.00
3.21223	58.00
3.22890	58.00
3.24557	58.00
3.26223	58.00
3.27890	58.00
3.29557	58.00
3.31223	58.00
3.32890	58.00
3.34557	58.00
3.36223	58.00
3.37890	58.00
3.39557	58.00
3.41223	58.00
3.42890	58.00
3.44557	58.00
3.46223	58.00
3.47890	58.00
3.49557	58.00
3.51223	58.00
3.52890	58.00
3.54557	58.00
3.56223	58.00
3.57890	58.00
3.59557	58.00
3.61223	58.00
3.62890	58.00
3.64557	58.00
3.66223	58.00
3.67890	58.00
3.69557	58.00
3.71223	58.00
3.72890	58.00
3.74557	58.00
3.76223	58.00
3.77890	58.00
3.79557	58.00
3.81223	58.00
3.82890	58.00
3.84557	58.00
3.86223	58.00
3.87890	58.00
3.89557	58.00
3.91223	58.00
3.92890	58.00
3.94557	58.00
3.96223	58.00
3.97890	58.00
3.99557	58.00

[Status Trace (Carrier Gas Flow)]
Interval(msec)	1000
# of Points	240
Start Time(min)	0.012
End Time(min)	3.996
Intensity Units	
Intensity Multiplier	1
R.Time (min)	Intensity
0.01223	34.56
0.02890	34.53
0.04557	34.54
0.06223	34.54
0.07890	34.50
0.09557	34.52
0.11223	34.52
0.12890	34.52
0.14557	34.52
0.16223	34.52
0.17890	34.52
0.19557	34.52
0.21223	34.52
0.22890	34.52
0.24557	34.52
0.26223	34.52
0.27890	34.52
0.29557	34.52
0.31223	34.52
0.32890	34.52
0.34557	34.52
0.36223	34.52
0.37890	34.52
0.39557	34.52
0.41223	34.52
0.42890	34.52
0.44557	34.52
0.46223	34.52
0.47890	34.52
0.49557	34.51
0.51223	34.52
0.52890	34.52
0.54557	34.52
0.56223	34.52
0.57890	34.51
0.59557	34.52
0.61223	34.52
0.62890	34.52
0.64557	34.53
0.66223	34.52
0.67890	34.53
0.69557	34.51
0.71223	34.52
0.72890	34.52
0.74557	34.52
0.76223	34.52
0.77890	34.52
0.79557	34.53
0.81223	34.52
0.82890	34.52
0.84557	34.52
0.86223	34.52
0.87890	34.52
0.89557	34.53
0.91223	34.51
0.92890	34.52
0.94557	34.52
0.96223	34.51
0.97890	34.52
0.99557	34.53
1.01223	34.52
1.02890	34.52
1.04557	34.52
1.06223	34.51
1.07890	34.52
1.09557	34.52
1.11223	34.52
1.12890	34.52
1.14557	34.52
1.16223	34.52
1.17890	34.51
1.19557	34.53
1.21223	34.52
1.22890	34.52
1.24557	34.51
1.26223	34.52
1.27890	34.52
1.29557	34.52
1.31223	34.52
1.32890	34.52
1.34557	34.52
1.36223	34.52
1.37890	34.51
1.39557	34.53
1.41223	34.52
1.42890	34.52
1.44557	34.52
1.46223	34.52
1.47890	34.52
1.49557	34.50
1.51223	34.52
1.52890	34.52
1.54557	34.52
1.56223	34.52
1.57890	34.52
1.59557	34.53
1.61223	34.52
1.62890	34.52
1.64557	34.52
1.66223	34.52
1.67890	34.51
1.69557	34.52
1.71223	34.52
1.72890	34.52
1.74557	34.51
1.76223	34.52
1.77890	34.52
1.79557	34.52
1.81223	34.51
1.82890	34.52
1.84557	34.52
1.86223	34.52
1.87890	34.52
1.89557	34.52
1.91223	34.51
1.92890	34.52
1.94557	34.51
1.96223	34.51
1.97890	34.54
1.99557	34.53
2.01223	34.52
2.02890	34.51
2.04557	34.52
2.06223	34.52
2.07890	34.52
2.09557	34.52
2.11223	34.52
2.12890	34.51
2.14557	34.52
2.16223	34.52
2.17890	34.52
2.19557	34.52
2.21223	34.51
2.22890	34.52
2.24557	34.53
2.26223	34.52
2.27890	34.52
2.29557	34.52
2.31223	34.53
2.32890	34.52
2.34557	34.52
2.36223	34.51
2.37890	34.52
2.39557	34.52
2.41223	34.53
2.42890	34.52
2.44557	34.51
2.46223	34.53
2.47890	34.52
2.49557	34.52
2.51223	34.52
2.52890	34.52
2.54557	34.52
2.56223	34.52
2.57890	34.52
2.59557	34.52
2.61223	34.52
2.62890	34.52
2.64557	34.52
2.66223	34.52
2.67890	34.52
2.69557	34.52
2.71223	34.52
2.72890	34.52
2.74557	34.52
2.76223	34.52
2.77890	34.52
2.79557	34.52
2.81223	34.52
2.82890	34.52
2.84557	34.52
2.86223	34.52
2.87890	34.52
2.89557	34.52
2.91223	34.52
2.92890	34.52
2.94557	34.52
2.96223	34.52
2.97890	34.52
2.99557	34.52
3.01223	34.52
3.02890	34.52
3.04557	34.52
3.06223	34.52
3.07890	34.52
3.09557	34.52
3.11223	34.52
3.12890	34.52
3.14557	34.52
3.16223	34.52
3.17890	34.52
3.19557	34.52
3.21223	34.52
3.22890	34.52
3.24557	34.52
3.26223	34.52
3.27890	34.52
3.29557	34.51
3.31223	34.52
3.32890	34.52
3.34557	34.52
3.36223	34.52
3.37890	34.52
3.39557	34.52
3.41223	34.53
3.42890	34.52
3.44557	34.52
3.46223	34.52
3.47890	34.52
3.49557	34.51
3.51223	34.52
3.52890	34.52
3.54557	34.52
3.56223	34.52
3.57890	34.52
3.59557	34.52
3.61223	34.52
3.62890	34.50
3.64557	34.52
3.66223	34.52
3.67890	34.52
3.69557	34.52
3.71223	34.52
3.72890	34.50
3.74557	34.52
3.76223	34.52
3.77890	34.52
3.79557	34.52
3.81223	34.52
3.82890	34.51
3.84557	34.52
3.86223	34.52
3.87890	34.52
3.89557	34.52
3.91223	34.52
3.92890	34.52
3.94557	34.52
3.96223	34.52
3.97890	34.52
3.99557	34.52

[Status Trace (Column Flow)]
Interval(msec)	1000
# of Points	240
Start Time(min)	0.012
End Time(min)	3.996
Intensity Units	
Intensity Multiplier	1
R.Time (min)	Intensity
0.01223	5.50
0.02890	5.16
0.04557	5.46
0.06223	5.70
0.07890	5.63
0.09557	5.51
0.11223	5.50
0.12890	5.51
0.14557	5.51
0.16223	5.51
0.17890	5.51
0.19557	5.51
0.21223	5.51
0.22890	5.51
0.24557	5.51
0.26223	5.51
0.27890	5.51
0.29557	5.51
0.31223	5.51
0.32890	5.51
0.34557	5.51
0.36223	5.51
0.37890	5.51
0.39557	5.51
0.41223	5.51
0.42890	5.51
0.44557	5.51
0.46223	5.51
0.47890	5.51
0.49557	5.51
0.51223	5.51
0.52890	5.51
0.54557	5.51
0.56223	5.51
0.57890	5.51
0.59557	5.51
0.61223	5.51
0.62890	5.51
0.64557	5.51
0.66223	5.51
0.67890	5.51
0.69557	5.51
0.71223	5.51
0.72890	5.51
0.74557	5.51
0.76223	5.51
0.77890	5.51
0.79557	5.51
0.81223	5.51
0.82890	5.51
0.84557	5.51
0.86223	5.51
0.87890	5.51
0.89557	5.51
0.91223	5.51
0.92890	5.51
0.94557	5.51
0.96223	5.51
0.97890	5.51
0.99557	5.51
1.01223	5.51
1.02890	5.51
1.04557	5.51
1.06223	5.51
1.07890	5.51
1.09557	5.51
1.11223	5.51
1.12890	5.51
1.14557	5.51
1.16223	5.51
1.17890	5.51
1.19557	5.51
1.21223	5.51
1.22890	5.51
1.24557	5.51
1.26223	5.51
1.27890	5.51
1.29557	5.51
1.31223	5.51
1.32890	5.51
1.34557	5.51
1.36223	5.51
1.37890	5.51
1.39557	5.51
1.41223	5.51
1.42890	5.51
1.44557	5.51
1.46223	5.51
1.47890	5.51
1.49557	5.51
1.51223	5.51
1.52890	5.51
1.54557	5.51
1.56223	5.51
1.57890	5.51
1.59557	5.51
1.61223	5.50
1.62890	5.50
1.64557	5.49
1.66223	5.49
1.67890	5.48
1.69557	5.46
1.71223	5.45
1.72890	5.44
1.74557	5.43
1.76223	5.42
1.77890	5.41
1.79557	5.40
1.81223	5.39
1.82890	5.38
1.84557	5.37
1.86223	5.36
1.87890	5.35
1.89557	5.34
1.91223	5.33
1.92890	5.32
1.94557	5.31
1.96223	5.30
1.97890	5.29
1.99557	5.28
2.01223	5.27
2.02890	5.26
2.04557	5.25
2.06223	5.25
2.07890	5.24
2.09557	5.23
2.11223	5.22
2.12890	5.21
2.14557	5.20
2.16223	5.19
2.17890	5.18
2.19557	5.17
2.21223	5.16
2.22890	5.15
2.24557	5.14
2.26223	5.13
2.27890	5.12
2.29557	5.11
2.31223	5.11
2.32890	5.10
2.34557	5.09
2.36223	5.08
2.37890	5.07
2.39557	5.07
2.41223	5.07
2.42890	5.07
2.44557	5.07
2.46223	5.07
2.47890	5.07
2.49557	5.07
2.51223	5.07
2.52890	5.07
2.54557	5.07
2.56223	5.07
2.57890	5.07
2.59557	5.07
2.61223	5.07
2.62890	5.07
2.64557	5.07
2.66223	5.07
2.67890	5.07
2.69557	5.07
2.71223	5.07
2.72890	5.07
2.74557	5.07
2.76223	5.07
2.77890	5.07
2.79557	5.07
2.81223	5.07
2.82890	5.07
2.84557	5.07
2.86223	5.07
2.87890	5.07
2.89557	5.07
2.91223	5.07
2.92890	5.07
2.94557	5.07
2.96223	5.07
2.97890	5.07
2.99557	5.07
3.01223	5.07
3.02890	5.07
3.04557	5.07
3.06223	5.06
3.07890	5.06
3.09557	5.06
3.11223	5.06
3.12890	5.06
3.14557	5.06
3.16223	5.06
3.17890	5.06
3.19557	5.06
3.21223	5.06
3.22890	5.06
3.24557	5.06
3.26223	5.06
3.27890	5.06
3.29557	5.06
3.31223	5.06
3.32890	5.06
3.34557	5.06
3.36223	5.06
3.37890	5.06
3.39557	5.06
3.41223	5.06
3.42890	5.06
3.44557	5.06
3.46223	5.06
3.47890	5.06
3.49557	5.06
3.51223	5.06
3.52890	5.06
3.54557	5.06
3.56223	5.06
3.57890	5.06
3.59557	5.06
3.61223	5.06
3.62890	5.06
3.64557	5.06
3.66223	5.06
3.67890	5.06
3.69557	5.06
3.71223	5.06
3.72890	5.06
3.74557	5.06
3.76223	5.06
3.77890	5.06
3.79557	5.06
3.81223	5.06
3.82890	5.06
3.84557	5.06
3.86223	5.06
3.87890	5.06
3.89557	5.06
3.91223	5.06
3.92890	5.06
3.94557	5.06
3.96223	5.06
3.97890	5.06
3.99557	5.06

[Status Trace (Linear Velocity)]
Interval(msec)	1000
# of Points	240
Start Time(min)	0.012
End Time(min)	3.996
Intensity Units	
Intensity Multiplier	1
R.Time (min)	Intensity
0.01223	39.00
0.02890	37.01
0.04557	38.76
0.06223	40.10
0.07890	39.71
0.09557	39.01
0.11223	39.00
0.12890	39.02
0.14557	39.01
0.16223	39.01
0.17890	39.01
0.19557	39.01
0.21223	39.01
0.22890	39.01
0.24557	39.01
0.26223	39.01
0.27890	39.01
0.29557	39.01
0.31223	39.01
0.32890	39.01
0.34557	39.01
0.36223	39.01
0.37890	39.01
0.39557	39.01
0.41223	39.02
0.42890	39.02
0.44557	39.02
0.46223	39.01
0.47890	39.01
0.49557	39.01
0.51223	39.02
0.52890	39.02
0.54557	39.01
0.56223	39.01
0.57890	39.02
0.59557	39.02
0.61223	39.02
0.62890	39.02
0.64557	39.02
0.66223	39.02
0.67890	39.02
0.69557	39.01
0.71223	39.01
0.72890	39.01
0.74557	39.01
0.76223	39.01
0.77890	39.01
0.79557	39.01
0.81223	39.01
0.82890	39.01
0.84557	39.01
0.86223	39.01
0.87890	39.01
0.89557	39.01
0.91223	39.01
0.92890	39.01
0.94557	39.01
0.96223	39.02
0.97890	39.02
0.99557	39.02
1.01223	39.02
1.02890	39.01
1.04557	39.01
1.06223	39.01
1.07890	39.01
1.09557	39.01
1.11223	39.01
1.12890	39.01
1.14557	39.01
1.16223	39.02
1.17890	39.01
1.19557	39.01
1.21223	39.01
1.22890	39.01
1.24557	39.01
1.26223	39.01
1.27890	39.01
1.29557	39.01
1.31223	39.01
1.32890	39.01
1.34557	39.01
1.36223	39.01
1.37890	39.02
1.39557	39.01
1.41223	39.01
1.42890	39.01
1.44557	39.01
1.46223	39.01
1.47890	39.01
1.49557	39.01
1.51223	39.01
1.52890	39.01
1.54557	39.01
1.56223	39.01
1.57890	39.01
1.59557	39.01
1.61223	39.01
1.62890	38.99
1.64557	38.98
1.66223	38.95
1.67890	38.92
1.69557	38.88
1.71223	38.84
1.72890	38.81
1.74557	38.78
1.76223	38.75
1.77890	38.72
1.79557	38.69
1.81223	38.66
1.82890	38.63
1.84557	38.59
1.86223	38.56
1.87890	38.53
1.89557	38.50
1.91223	38.47
1.92890	38.44
1.94557	38.41
1.96223	38.38
1.97890	38.35
1.99557	38.32
2.01223	38.29
2.02890	38.26
2.04557	38.23
2.06223	38.20
2.07890	38.17
2.09557	38.14
2.11223	38.11
2.12890	38.08
2.14557	38.05
2.16223	38.02
2.17890	37.99
2.19557	37.97
2.21223	37.94
2.22890	37.91
2.24557	37.87
2.26223	37.85
2.27890	37.82
2.29557	37.79
2.31223	37.76
2.32890	37.73
2.34557	37.70
2.36223	37.67
2.37890	37.66
2.39557	37.65
2.41223	37.66
2.42890	37.66
2.44557	37.66
2.46223	37.66
2.47890	37.65
2.49557	37.65
2.51223	37.65
2.52890	37.64
2.54557	37.65
2.56223	37.65
2.57890	37.65
2.59557	37.65
2.61223	37.65
2.62890	37.65
2.64557	37.65
2.66223	37.65
2.67890	37.64
2.69557	37.64
2.71223	37.64
2.72890	37.64
2.74557	37.64
2.76223	37.64
2.77890	37.64
2.79557	37.64
2.81223	37.64
2.82890	37.64
2.84557	37.64
2.86223	37.64
2.87890	37.64
2.89557	37.64
2.91223	37.64
2.92890	37.64
2.94557	37.64
2.96223	37.64
2.97890	37.63
2.99557	37.63
3.01223	37.63
3.02890	37.63
3.04557	37.63
3.06223	37.63
3.07890	37.63
3.09557	37.63
3.11223	37.63
3.12890	37.63
3.14557	37.62
3.16223	37.62
3.17890	37.62
3.19557	37.62
3.21223	37.62
3.22890	37.62
3.24557	37.62
3.26223	37.62
3.27890	37.62
3.29557	37.62
3.31223	37.62
3.32890	37.62
3.34557	37.62
3.36223	37.62
3.37890	37.62
3.39557	37.62
3.41223	37.62
3.42890	37.63
3.44557	37.63
3.46223	37.63
3.47890	37.63
3.49557	37.62
3.51223	37.63
3.52890	37.62
3.54557	37.62
3.56223	37.62
3.57890	37.63
3.59557	37.62
3.61223	37.62
3.62890	37.62
3.64557	37.63
3.66223	37.63
3.67890	37.62
3.69557	37.62
3.71223	37.62
3.72890	37.62
3.74557	37.62
3.76223	37.62
3.77890	37.62
3.79557	37.62
3.81223	37.62
3.82890	37.62
3.84557	37.62
3.86223	37.62
3.87890	37.62
3.89557	37.62
3.91223	37.62
3.92890	37.62
3.94557	37.62
3.96223	37.62
3.97890	37.63
3.99557	37.62

