[Header]
Application Name	LabSolutions
Version	5.110
Data File Name	C:\Users\User\Desktop\Junior\UIC Prairie Sampling\3.23.23\032323_020.gcd
Output Date	5/24/2023
Output Time	10:27:36 AM

[File Information]
Type	Data File
Generated	5/23/2023 5:34:56 PM
Generated by	System Administrator
Modified	5/23/2023 5:41:52 PM
Modified by	System Administrator

[Sample Information]
Operator Name	System Administrator
Acquired	5/23/2023 5:37:52 PM
Sample Type	0:Unknown
Level	0
Sample Name	020
Sample ID	020
ISTD Amount1	1
ISTD Amount2	1
ISTD Amount3	1
ISTD Amount4	1
ISTD Amount5	1
ISTD Amount6	1
ISTD Amount7	1
ISTD Amount8	1
ISTD Amount9	1
ISTD Amount10	1
ISTD Amount11	1
ISTD Amount12	1
ISTD Amount13	1
ISTD Amount14	1
ISTD Amount15	1
ISTD Amount16	1
ISTD Amount17	1
ISTD Amount18	1
ISTD Amount19	1
ISTD Amount20	1
ISTD Amount21	1
ISTD Amount22	1
ISTD Amount23	1
ISTD Amount24	1
ISTD Amount25	1
ISTD Amount26	1
ISTD Amount27	1
ISTD Amount28	1
ISTD Amount29	1
ISTD Amount30	1
ISTD Amount31	1
ISTD Amount32	1
Sample Amount	1
Dilution Factor	1
Vial#	19
Injection Volume	1
Injection Count	1
Bar Code	

[Original Files]
Data File	C:\Users\User\Desktop\GC Analyses\Jack\Nachusa Grasslands Sampling\20220924\t2\032323_020.gcd
Method File	C:\LabSolutions\Data\GHG_4min_2022\ghg3_togas_w_acet_4 min_new_int.gcm
Batch File	C:\LabSolutions\Data\AutoSamplerTesting\032323.gcb
Report Format File	c:\LabSolutions\System\DEFAULT.lsr

[File Description]


[Configuration]
Instrument Name	C0B7VH3-Instrument1
Instrument #	1
Line #	1
# of Detectors	3
Detector ID	DET#1	DET#2	DET#3
Detector Name	FID	PTCD	ECD
# of Channels	1	1	1

[Peak Table(Ch1)]
# of Peaks	3
Peak#	R.Time	I.Time	F.Time	Area	Height	A/H	Conc.	Mark	ID#	Name	k'	Plate #	Plate Ht.	Tailing	Resolution	Sep.Factor	Area Ratio	Height Ratio	Conc. %	Norm Conc.
1	1.476	1.435	1.527	6057	2965	2.043	0.000	   	1	CO	0.000	9566	15.680	1.103	0.000	0.000	0	0	0.000	0.000
2	1.567	1.531	1.611	4227	2178	1.941	20.610	   	2	CH4	0.062	11691	12.831	1.065	1.549	0.000	0	0	9.714	9.714
3	1.993	1.949	2.348	994005	475722	2.089	191.563	   	3	CO2	0.350	17472	8.585	1.308	7.192	5.640	0	0	90.286	90.286

[Peak Table(Ch2)]
# of Peaks	0

[Peak Table(Ch3)]
# of Peaks	5
Peak#	R.Time	I.Time	F.Time	Area	Height	A/H	Conc.	Mark	ID#	Name	k'	Plate #	Plate Ht.	Tailing	Resolution	Sep.Factor	Area Ratio	Height Ratio	Conc. %	Norm Conc.
1	2.458	2.363	2.502	729	263	2.773	0.000	   			0.000	17650	8.499	0.000	0.000	0.000	0	0	0.000	0.000
2	2.513	2.502	2.557	200	100	1.996	0.000	 V 			0.022	11565	12.970	0.000	0.657	0.000	0	0	0.000	0.000
3	2.616	2.557	2.653	255	78	3.285	0.000	 V 			0.064	13483	11.125	0.000	1.118	2.867	0	0	0.000	0.000
4	2.887	2.825	2.986	15095	4274	3.532	0.223	   	1	N2O	0.175	14220	10.548	1.472	2.902	2.721	0	0	100.000	100.000
5	3.162	2.986	3.760	11161	445	25.077	0.000	 V 	2	SF6	0.286	455	329.604	0.000	0.797	1.641	0	0	0.000	0.000

[Compound Results(Ch1)]
# of IDs	6
ID#	Name	R.Time	Area	Height	Conc.	Curve	3rd	2nd	1st	Constant	Area Ratio	Height Ratio	Conc. %	Norm Conc.
1	CO	1.476	6057	2965	0.000	Linear	0.000000e+00	0.000000e+00	0.000000e+00	0.000000e+00	0	0	0.000	0.000
2	CH4	1.567	4227	2178	20.610	Linear	0.000000e+00	0.000000e+00	2.051179e+002	0.000000e+00	0	0	9.714	9.714
3	CO2	1.993	994005	475722	191.563	Linear	0.000000e+00	0.000000e+00	5.188919e+003	0.000000e+00	0	0	90.286	90.286
4	Ethylene	0.000	0	0	0.000	Linear	0.000000e+00	0.000000e+00	0.000000e+00	0.000000e+00	0	0	0.000	0.000
5	Acetylene	0.000	0	0	0.000	Linear	0.000000e+00	0.000000e+00	0.000000e+00	0.000000e+00	0	0	0.000	0.000
6	Ethane	0.000	0	0	0.000	Linear	0.000000e+00	0.000000e+00	0.000000e+00	0.000000e+00	0	0	0.000	0.000

[Compound Results(Ch2)]
# of IDs	5
ID#	Name	R.Time	Area	Height	Conc.	Curve	3rd	2nd	1st	Constant	Area Ratio	Height Ratio	Conc. %	Norm Conc.
1	Hydrogen	0.000	0	0	0.000	Linear	0.000000e+00	0.000000e+00	0.000000e+00	0.000000e+00	0	0	0.000	0.000
2	Oxygen	0.000	0	0	0.000	Linear	0.000000e+00	0.000000e+00	0.000000e+00	0.000000e+00	0	0	0.000	0.000
3	Nitrogen	0.000	0	0	0.000	Linear	0.000000e+00	0.000000e+00	0.000000e+00	0.000000e+00	0	0	0.000	0.000
4	Methane	0.000	0	0	0.000	Linear	0.000000e+00	0.000000e+00	0.000000e+00	0.000000e+00	0	0	0.000	0.000
5	Carbon Monoxide	0.000	0	0	0.000	Linear	0.000000e+00	0.000000e+00	0.000000e+00	0.000000e+00	0	0	0.000	0.000

[Compound Results(Ch3)]
# of IDs	2
ID#	Name	R.Time	Area	Height	Conc.	Curve	3rd	2nd	1st	Constant	Area Ratio	Height Ratio	Conc. %	Norm Conc.
1	N2O	2.887	15095	4274	0.223	Linear	0.000000e+00	0.000000e+00	6.759880e+004	0.000000e+00	0	0	100.000	100.000
2	SF6	3.162	11161	445	0.000	Linear	0.000000e+00	0.000000e+00	0.000000e+00	0.000000e+00	0	0	0.000	0.000

[Group Results(Ch1)]
# of Groups	0

[Group Results(Ch2)]
# of Groups	0

[Group Results(Ch3)]
# of Groups	0

[Chromatogram (Ch1)]
Interval(msec)	220
# of Points	1091
Start Time(min)	0.002
End Time(min)	3.998
R.Time (min)	Intensity
0.00167	13
0.00533	17
0.00900	16
0.01267	12
0.01633	8
0.02000	2
0.02367	-1
0.02733	-3
0.03100	-3
0.03467	-3
0.03833	-4
0.04200	-5
0.04567	-6
0.04933	-10
0.05300	-15
0.05667	-20
0.06033	-21
0.06400	-18
0.06767	-9
0.07133	3
0.07500	15
0.07867	27
0.08233	36
0.08600	36
0.08967	24
0.09333	8
0.09700	-5
0.10067	-13
0.10433	-16
0.10800	-15
0.11167	-10
0.11533	-6
0.11900	-5
0.12267	-9
0.12633	-12
0.13000	-14
0.13367	-15
0.13733	-18
0.14100	-18
0.14467	-17
0.14833	-17
0.15200	-21
0.15567	-21
0.15933	-17
0.16300	-12
0.16667	-5
0.17033	-0
0.17400	-1
0.17767	-4
0.18133	-7
0.18500	-9
0.18867	-7
0.19233	-0
0.19600	6
0.19967	10
0.20333	11
0.20700	10
0.21067	4
0.21433	-4
0.21800	-10
0.22167	-11
0.22533	-10
0.22900	-12
0.23267	-16
0.23633	-16
0.24000	-10
0.24367	-1
0.24733	6
0.25100	9
0.25467	8
0.25833	7
0.26200	6
0.26567	1
0.26933	-6
0.27300	-11
0.27667	-12
0.28033	-11
0.28400	-9
0.28767	-8
0.29133	-10
0.29500	-13
0.29867	-14
0.30233	-15
0.30600	-16
0.30967	-17
0.31333	-15
0.31700	-11
0.32067	-9
0.32433	-5
0.32800	1
0.33167	8
0.33533	12
0.33900	11
0.34267	4
0.34633	-2
0.35000	-4
0.35367	-5
0.35733	-3
0.36100	-6
0.36467	-12
0.36833	-19
0.37200	-25
0.37567	-31
0.37933	-33
0.38300	-29
0.38667	-21
0.39033	-13
0.39400	-5
0.39767	1
0.40133	5
0.40500	5
0.40867	5
0.41233	7
0.41600	11
0.41967	14
0.42333	13
0.42700	10
0.43067	6
0.43433	-1
0.43800	-6
0.44167	-10
0.44533	-11
0.44900	-7
0.45267	2
0.45633	13
0.46000	23
0.46367	27
0.46733	27
0.47100	24
0.47467	14
0.47833	2
0.48200	-10
0.48567	-21
0.48933	-28
0.49300	-28
0.49667	-27
0.50033	-27
0.50400	-28
0.50767	-22
0.51133	-14
0.51500	-10
0.51867	-12
0.52233	-13
0.52600	-10
0.52967	-8
0.53333	-8
0.53700	-9
0.54067	-12
0.54433	-15
0.54800	-15
0.55167	-10
0.55533	-2
0.55900	1
0.56267	-4
0.56633	-8
0.57000	-10
0.57367	-11
0.57733	-13
0.58100	-14
0.58467	-7
0.58833	3
0.59200	9
0.59567	9
0.59933	7
0.60300	8
0.60667	11
0.61033	5
0.61400	-6
0.61767	-13
0.62133	-17
0.62500	-22
0.62867	-27
0.63233	-31
0.63600	-32
0.63967	-30
0.64333	-24
0.64700	-13
0.65067	-6
0.65433	-4
0.65800	-4
0.66167	-4
0.66533	-4
0.66900	-5
0.67267	-7
0.67633	-9
0.68000	-10
0.68367	-7
0.68733	-1
0.69100	4
0.69467	2
0.69833	-2
0.70200	-4
0.70567	-3
0.70933	-0
0.71300	-2
0.71667	-6
0.72033	-11
0.72400	-14
0.72767	-16
0.73133	-18
0.73500	-18
0.73867	-19
0.74233	-20
0.74600	-18
0.74967	-17
0.75333	-16
0.75700	-14
0.76067	-13
0.76433	-16
0.76800	-20
0.77167	-22
0.77533	-21
0.77900	-20
0.78267	-18
0.78633	-14
0.79000	-7
0.79367	-2
0.79733	1
0.80100	0
0.80467	-1
0.80833	1
0.81200	4
0.81567	7
0.81933	4
0.82300	-3
0.82667	-12
0.83033	-21
0.83400	-25
0.83767	-25
0.84133	-23
0.84500	-20
0.84867	-21
0.85233	-27
0.85600	-30
0.85967	-31
0.86333	-32
0.86700	-30
0.87067	-29
0.87433	-31
0.87800	-31
0.88167	-27
0.88533	-21
0.88900	-14
0.89267	-7
0.89633	-2
0.90000	-2
0.90367	-6
0.90733	-9
0.91100	-11
0.91467	-12
0.91833	-14
0.92200	-18
0.92567	-23
0.92933	-25
0.93300	-26
0.93667	-28
0.94033	-31
0.94400	-35
0.94767	-37
0.95133	-37
0.95500	-34
0.95867	-26
0.96233	-18
0.96600	-15
0.96967	-16
0.97333	-18
0.97700	-18
0.98067	-15
0.98433	-16
0.98800	-21
0.99167	-28
0.99533	-33
0.99900	-36
1.00267	-36
1.00633	-34
1.01000	-31
1.01367	-31
1.01733	-30
1.02100	-27
1.02467	-24
1.02833	-23
1.03200	-21
1.03567	-17
1.03933	-16
1.04300	-18
1.04667	-22
1.05033	-26
1.05400	-31
1.05767	-35
1.06133	-35
1.06500	-30
1.06867	-23
1.07233	-19
1.07600	-19
1.07967	-24
1.08333	-29
1.08700	-31
1.09067	-31
1.09433	-30
1.09800	-27
1.10167	-22
1.10533	-14
1.10900	-3
1.11267	4
1.11633	8
1.12000	13
1.12367	16
1.12733	12
1.13100	1
1.13467	-14
1.13833	-28
1.14200	-39
1.14567	-45
1.14933	-46
1.15300	-44
1.15667	-40
1.16033	-34
1.16400	-27
1.16767	-24
1.17133	-29
1.17500	-35
1.17867	-34
1.18233	-31
1.18600	-28
1.18967	-28
1.19333	-28
1.19700	-25
1.20067	-20
1.20433	-16
1.20800	-16
1.21167	-21
1.21533	-27
1.21900	-34
1.22267	-41
1.22633	-48
1.23000	-51
1.23367	-51
1.23733	-50
1.24100	-46
1.24467	-41
1.24833	-39
1.25200	-41
1.25567	-44
1.25933	-42
1.26300	-38
1.26667	-31
1.27033	-27
1.27400	-27
1.27767	-25
1.28133	-23
1.28500	-23
1.28867	-26
1.29233	-29
1.29600	-28
1.29967	-26
1.30333	-27
1.30700	-28
1.31067	-29
1.31433	-31
1.31800	-34
1.32167	-36
1.32533	-36
1.32900	-35
1.33267	-34
1.33633	-35
1.34000	-38
1.34367	-40
1.34733	-39
1.35100	-38
1.35467	-37
1.35833	-37
1.36200	-38
1.36567	-37
1.36933	-35
1.37300	-36
1.37667	-37
1.38033	-40
1.38400	-39
1.38767	-36
1.39133	-33
1.39500	-28
1.39867	-25
1.40233	-29
1.40600	-33
1.40967	-35
1.41333	-35
1.41700	-34
1.42067	-31
1.42433	-30
1.42800	-30
1.43167	-27
1.43533	-18
1.43900	7
1.44267	58
1.44633	144
1.45000	348
1.45367	755
1.45733	1310
1.46100	1878
1.46467	2363
1.46833	2721
1.47200	2926
1.47567	2944
1.47933	2756
1.48300	2391
1.48667	1929
1.49033	1468
1.49400	1070
1.49767	751
1.50133	506
1.50500	326
1.50867	198
1.51233	113
1.51600	57
1.51967	18
1.52333	-8
1.52700	-24
1.53067	-30
1.53433	-18
1.53800	40
1.54167	206
1.54533	516
1.54900	932
1.55267	1358
1.55633	1722
1.56000	1989
1.56367	2140
1.56733	2145
1.57100	1986
1.57467	1688
1.57833	1323
1.58200	966
1.58567	664
1.58933	432
1.59300	260
1.59667	137
1.60033	55
1.60400	2
1.60767	-25
1.61133	-37
1.61500	-41
1.61867	-40
1.62233	-38
1.62600	-37
1.62967	-38
1.63333	-39
1.63700	-41
1.64067	-44
1.64433	-54
1.64800	-70
1.65167	-85
1.65533	-96
1.65900	-104
1.66267	-105
1.66633	-100
1.67000	-96
1.67367	-93
1.67733	-87
1.68100	-78
1.68467	-72
1.68833	-71
1.69200	-73
1.69567	-76
1.69933	-75
1.70300	-71
1.70667	-70
1.71033	-71
1.71400	-74
1.71767	-76
1.72133	-79
1.72500	-81
1.72867	-80
1.73233	-80
1.73600	-81
1.73967	-78
1.74333	-71
1.74700	-70
1.75067	-73
1.75433	-80
1.75800	-84
1.76167	-82
1.76533	-79
1.76900	-74
1.77267	-69
1.77633	-64
1.78000	-61
1.78367	-61
1.78733	-62
1.79100	-65
1.79467	-69
1.79833	-72
1.80200	-73
1.80567	-74
1.80933	-75
1.81300	-77
1.81667	-82
1.82033	-87
1.82400	-90
1.82767	-90
1.83133	-86
1.83500	-81
1.83867	-71
1.84233	-62
1.84600	-57
1.84967	-53
1.85333	-51
1.85700	-53
1.86067	-59
1.86433	-66
1.86800	-76
1.87167	-87
1.87533	-95
1.87900	-101
1.88267	-103
1.88633	-101
1.89000	-97
1.89367	-93
1.89733	-90
1.90100	-84
1.90467	-78
1.90833	-73
1.91200	-68
1.91567	-62
1.91933	-58
1.92300	-57
1.92667	-56
1.93033	-56
1.93400	-54
1.93767	-48
1.94133	-45
1.94500	-46
1.94867	-39
1.95233	29
1.95600	455
1.95967	2448
1.96333	9419
1.96700	27987
1.97067	66437
1.97433	129377
1.97800	212540
1.98167	303101
1.98533	385328
1.98900	445813
1.99267	475714
1.99633	471182
2.00000	434497
2.00367	374295
2.00733	303062
2.01100	232785
2.01467	171549
2.01833	122738
2.02200	86224
2.02567	60092
2.02933	41936
2.03300	29544
2.03667	21168
2.04033	15519
2.04400	11690
2.04767	9061
2.05133	7225
2.05500	5916
2.05867	4966
2.06233	4261
2.06600	3725
2.06967	3299
2.07333	2952
2.07700	2662
2.08067	2415
2.08433	2207
2.08800	2034
2.09167	1892
2.09533	1771
2.09900	1664
2.10267	1561
2.10633	1458
2.11000	1364
2.11367	1283
2.11733	1215
2.12100	1156
2.12467	1105
2.12833	1056
2.13200	1007
2.13567	957
2.13933	913
2.14300	875
2.14667	842
2.15033	810
2.15400	776
2.15767	746
2.16133	722
2.16500	701
2.16867	680
2.17233	661
2.17600	642
2.17967	625
2.18333	607
2.18700	590
2.19067	573
2.19433	559
2.19800	546
2.20167	532
2.20533	518
2.20900	507
2.21267	498
2.21633	483
2.22000	464
2.22367	448
2.22733	434
2.23100	425
2.23467	419
2.23833	412
2.24200	404
2.24567	396
2.24933	389
2.25300	380
2.25667	369
2.26033	357
2.26400	346
2.26767	337
2.27133	332
2.27500	332
2.27867	332
2.28233	327
2.28600	319
2.28967	310
2.29333	302
2.29700	297
2.30067	294
2.30433	290
2.30800	289
2.31167	290
2.31533	288
2.31900	286
2.32267	284
2.32633	284
2.33000	282
2.33367	276
2.33733	269
2.34100	260
2.34467	251
2.34833	245
2.35200	242
2.35567	237
2.35933	232
2.36300	231
2.36667	235
2.37033	241
2.37400	246
2.37767	248
2.38133	246
2.38500	245
2.38867	245
2.39233	243
2.39600	241
2.39967	241
2.40333	243
2.40700	243
2.41067	244
2.41433	244
2.41800	241
2.42167	241
2.42533	244
2.42900	251
2.43267	259
2.43633	266
2.44000	264
2.44367	254
2.44733	240
2.45100	226
2.45467	215
2.45833	210
2.46200	210
2.46567	211
2.46933	213
2.47300	217
2.47667	218
2.48033	219
2.48400	222
2.48767	226
2.49133	229
2.49500	231
2.49867	233
2.50233	238
2.50600	247
2.50967	254
2.51333	255
2.51700	251
2.52067	240
2.52433	226
2.52800	214
2.53167	210
2.53533	214
2.53900	221
2.54267	225
2.54633	227
2.55000	229
2.55367	230
2.55733	231
2.56100	233
2.56467	235
2.56833	238
2.57200	240
2.57567	237
2.57933	232
2.58300	230
2.58667	228
2.59033	224
2.59400	221
2.59767	219
2.60133	215
2.60500	216
2.60867	222
2.61233	230
2.61600	240
2.61967	245
2.62333	245
2.62700	246
2.63067	251
2.63433	255
2.63800	256
2.64167	253
2.64533	251
2.64900	253
2.65267	256
2.65633	261
2.66000	270
2.66367	277
2.66733	279
2.67100	274
2.67467	264
2.67833	255
2.68200	251
2.68567	252
2.68933	254
2.69300	258
2.69667	259
2.70033	256
2.70400	253
2.70767	253
2.71133	254
2.71500	255
2.71867	261
2.72233	270
2.72600	277
2.72967	281
2.73333	282
2.73700	281
2.74067	281
2.74433	284
2.74800	288
2.75167	289
2.75533	291
2.75900	292
2.76267	291
2.76633	292
2.77000	291
2.77367	289
2.77733	285
2.78100	284
2.78467	288
2.78833	293
2.79200	297
2.79567	301
2.79933	302
2.80300	299
2.80667	296
2.81033	295
2.81400	298
2.81767	303
2.82133	307
2.82500	307
2.82867	302
2.83233	298
2.83600	297
2.83967	302
2.84333	314
2.84700	325
2.85067	328
2.85433	327
2.85800	325
2.86167	322
2.86533	317
2.86900	312
2.87267	308
2.87633	304
2.88000	301
2.88367	300
2.88733	302
2.89100	307
2.89467	312
2.89833	314
2.90200	313
2.90567	312
2.90933	311
2.91300	308
2.91667	306
2.92033	302
2.92400	294
2.92767	285
2.93133	283
2.93500	284
2.93867	289
2.94233	293
2.94600	300
2.94967	305
2.95333	307
2.95700	311
2.96067	317
2.96433	321
2.96800	326
2.97167	333
2.97533	339
2.97900	342
2.98267	339
2.98633	336
2.99000	338
2.99367	345
2.99733	354
3.00100	361
3.00467	362
3.00833	361
3.01200	363
3.01567	364
3.01933	363
3.02300	360
3.02667	354
3.03033	347
3.03400	344
3.03767	343
3.04133	341
3.04500	338
3.04867	334
3.05233	324
3.05600	315
3.05967	314
3.06333	320
3.06700	332
3.07067	348
3.07433	358
3.07800	359
3.08167	353
3.08533	349
3.08900	347
3.09267	348
3.09633	349
3.10000	349
3.10367	351
3.10733	352
3.11100	352
3.11467	348
3.11833	344
3.12200	342
3.12567	340
3.12933	336
3.13300	332
3.13667	332
3.14033	335
3.14400	339
3.14767	343
3.15133	347
3.15500	348
3.15867	348
3.16233	346
3.16600	346
3.16967	346
3.17333	348
3.17700	348
3.18067	347
3.18433	347
3.18800	347
3.19167	344
3.19533	343
3.19900	344
3.20267	346
3.20633	347
3.21000	349
3.21367	349
3.21733	346
3.22100	342
3.22467	341
3.22833	344
3.23200	346
3.23567	343
3.23933	335
3.24300	329
3.24667	325
3.25033	324
3.25400	325
3.25767	326
3.26133	329
3.26500	331
3.26867	333
3.27233	334
3.27600	333
3.27967	328
3.28333	322
3.28700	319
3.29067	322
3.29433	329
3.29800	336
3.30167	335
3.30533	327
3.30900	320
3.31267	318
3.31633	322
3.32000	330
3.32367	336
3.32733	337
3.33100	337
3.33467	337
3.33833	336
3.34200	334
3.34567	328
3.34933	320
3.35300	316
3.35667	315
3.36033	315
3.36400	315
3.36767	314
3.37133	313
3.37500	313
3.37867	315
3.38233	320
3.38600	323
3.38967	322
3.39333	323
3.39700	323
3.40067	323
3.40433	324
3.40800	325
3.41167	323
3.41533	321
3.41900	323
3.42267	322
3.42633	323
3.43000	328
3.43367	335
3.43733	339
3.44100	335
3.44467	329
3.44833	322
3.45200	314
3.45567	310
3.45933	310
3.46300	310
3.46667	309
3.47033	304
3.47400	300
3.47767	296
3.48133	294
3.48500	297
3.48867	301
3.49233	304
3.49600	310
3.49967	316
3.50333	317
3.50700	313
3.51067	310
3.51433	310
3.51800	313
3.52167	315
3.52533	315
3.52900	315
3.53267	313
3.53633	309
3.54000	301
3.54367	292
3.54733	284
3.55100	279
3.55467	278
3.55833	284
3.56200	294
3.56567	306
3.56933	318
3.57300	320
3.57667	315
3.58033	308
3.58400	302
3.58767	293
3.59133	287
3.59500	283
3.59867	282
3.60233	284
3.60600	287
3.60967	289
3.61333	292
3.61700	296
3.62067	301
3.62433	303
3.62800	299
3.63167	298
3.63533	302
3.63900	308
3.64267	310
3.64633	306
3.65000	298
3.65367	290
3.65733	283
3.66100	280
3.66467	281
3.66833	284
3.67200	290
3.67567	294
3.67933	297
3.68300	298
3.68667	293
3.69033	285
3.69400	281
3.69767	282
3.70133	290
3.70500	298
3.70867	302
3.71233	301
3.71600	292
3.71967	282
3.72333	274
3.72700	271
3.73067	269
3.73433	270
3.73800	274
3.74167	276
3.74533	279
3.74900	282
3.75267	286
3.75633	290
3.76000	293
3.76367	292
3.76733	285
3.77100	277
3.77467	269
3.77833	266
3.78200	267
3.78567	266
3.78933	267
3.79300	270
3.79667	276
3.80033	282
3.80400	286
3.80767	287
3.81133	287
3.81500	287
3.81867	283
3.82233	275
3.82600	265
3.82967	256
3.83333	249
3.83700	249
3.84067	253
3.84433	253
3.84800	249
3.85167	249
3.85533	252
3.85900	255
3.86267	260
3.86633	264
3.87000	265
3.87367	265
3.87733	264
3.88100	263
3.88467	267
3.88833	276
3.89200	283
3.89567	285
3.89933	283
3.90300	279
3.90667	275
3.91033	272
3.91400	267
3.91767	263
3.92133	261
3.92500	260
3.92867	260
3.93233	266
3.93600	273
3.93967	278
3.94333	275
3.94700	266
3.95067	254
3.95433	241
3.95800	233
3.96167	231
3.96533	236
3.96900	244
3.97267	250
3.97633	256
3.98000	260
3.98367	262
3.98733	260
3.99100	255
3.99467	251
3.99833	248

[Chromatogram (Ch2)]
Interval(msec)	220
# of Points	1091
Start Time(min)	0.002
End Time(min)	3.998
R.Time (min)	Intensity
0.00167	-0
0.00533	-0
0.00900	-0
0.01267	-0
0.01633	-0
0.02000	-1
0.02367	-1
0.02733	-1
0.03100	-1
0.03467	-1
0.03833	-1
0.04200	-1
0.04567	-1
0.04933	-1
0.05300	-1
0.05667	-1
0.06033	-1
0.06400	-1
0.06767	-0
0.07133	-0
0.07500	0
0.07867	0
0.08233	1
0.08600	1
0.08967	1
0.09333	1
0.09700	1
0.10067	1
0.10433	1
0.10800	1
0.11167	1
0.11533	0
0.11900	0
0.12267	0
0.12633	-0
0.13000	-0
0.13367	-0
0.13733	-0
0.14100	-0
0.14467	-1
0.14833	-1
0.15200	-1
0.15567	-1
0.15933	-2
0.16300	-2
0.16667	-2
0.17033	-2
0.17400	-2
0.17767	-2
0.18133	-2
0.18500	-2
0.18867	-2
0.19233	-2
0.19600	-2
0.19967	-2
0.20333	-2
0.20700	-2
0.21067	-2
0.21433	-2
0.21800	-2
0.22167	-1
0.22533	-1
0.22900	-1
0.23267	-1
0.23633	-1
0.24000	-1
0.24367	-2
0.24733	-2
0.25100	-2
0.25467	-2
0.25833	-2
0.26200	-2
0.26567	-2
0.26933	-2
0.27300	-2
0.27667	-2
0.28033	-1
0.28400	-1
0.28767	-1
0.29133	-1
0.29500	-1
0.29867	-1
0.30233	-1
0.30600	-1
0.30967	-1
0.31333	-1
0.31700	-0
0.32067	-0
0.32433	-0
0.32800	-0
0.33167	-0
0.33533	-1
0.33900	-1
0.34267	-1
0.34633	-1
0.35000	-1
0.35367	-1
0.35733	-1
0.36100	-1
0.36467	-1
0.36833	-1
0.37200	-1
0.37567	-0
0.37933	-0
0.38300	-0
0.38667	0
0.39033	0
0.39400	0
0.39767	0
0.40133	1
0.40500	1
0.40867	1
0.41233	1
0.41600	1
0.41967	1
0.42333	1
0.42700	1
0.43067	1
0.43433	1
0.43800	1
0.44167	1
0.44533	1
0.44900	0
0.45267	0
0.45633	0
0.46000	0
0.46367	0
0.46733	0
0.47100	0
0.47467	0
0.47833	-0
0.48200	-0
0.48567	-1
0.48933	-1
0.49300	-2
0.49667	-2
0.50033	-3
0.50400	-3
0.50767	-3
0.51133	-3
0.51500	-3
0.51867	-3
0.52233	-3
0.52600	-3
0.52967	-2
0.53333	-2
0.53700	-2
0.54067	-2
0.54433	-2
0.54800	-1
0.55167	-1
0.55533	-1
0.55900	-1
0.56267	-0
0.56633	-0
0.57000	0
0.57367	0
0.57733	1
0.58100	1
0.58467	1
0.58833	1
0.59200	1
0.59567	2
0.59933	2
0.60300	2
0.60667	2
0.61033	2
0.61400	2
0.61767	2
0.62133	2
0.62500	1
0.62867	1
0.63233	1
0.63600	1
0.63967	1
0.64333	0
0.64700	0
0.65067	-0
0.65433	-0
0.65800	-0
0.66167	-0
0.66533	-0
0.66900	-1
0.67267	-1
0.67633	-1
0.68000	-1
0.68367	-1
0.68733	-1
0.69100	-1
0.69467	-1
0.69833	-1
0.70200	-1
0.70567	-1
0.70933	-1
0.71300	-1
0.71667	-1
0.72033	-1
0.72400	-2
0.72767	-2
0.73133	-2
0.73500	-2
0.73867	-2
0.74233	-2
0.74600	-2
0.74967	-2
0.75333	-2
0.75700	-2
0.76067	-2
0.76433	-2
0.76800	-2
0.77167	-2
0.77533	-2
0.77900	-2
0.78267	-2
0.78633	-2
0.79000	-2
0.79367	-2
0.79733	-2
0.80100	-2
0.80467	-2
0.80833	-2
0.81200	-2
0.81567	-2
0.81933	-2
0.82300	-2
0.82667	-2
0.83033	-1
0.83400	-1
0.83767	-1
0.84133	-1
0.84500	-2
0.84867	-2
0.85233	-2
0.85600	-2
0.85967	-2
0.86333	-2
0.86700	-2
0.87067	-3
0.87433	-3
0.87800	-3
0.88167	-3
0.88533	-3
0.88900	-3
0.89267	-4
0.89633	-4
0.90000	-4
0.90367	-4
0.90733	-4
0.91100	-4
0.91467	-4
0.91833	-4
0.92200	-4
0.92567	-4
0.92933	-4
0.93300	-3
0.93667	-3
0.94033	-3
0.94400	-3
0.94767	-3
0.95133	-3
0.95500	-3
0.95867	-3
0.96233	-3
0.96600	-3
0.96967	-2
0.97333	-2
0.97700	-2
0.98067	-2
0.98433	-2
0.98800	-2
0.99167	-2
0.99533	-2
0.99900	-3
1.00267	-3
1.00633	-2
1.01000	-2
1.01367	-2
1.01733	-2
1.02100	-2
1.02467	-2
1.02833	-3
1.03200	-3
1.03567	-3
1.03933	-3
1.04300	-3
1.04667	-3
1.05033	-3
1.05400	-3
1.05767	-4
1.06133	-4
1.06500	-4
1.06867	-4
1.07233	-4
1.07600	-4
1.07967	-4
1.08333	-4
1.08700	-4
1.09067	-4
1.09433	-4
1.09800	-3
1.10167	-3
1.10533	-3
1.10900	-3
1.11267	-2
1.11633	-2
1.12000	-2
1.12367	-2
1.12733	-2
1.13100	-2
1.13467	-2
1.13833	-2
1.14200	-2
1.14567	-2
1.14933	-2
1.15300	-2
1.15667	-2
1.16033	-2
1.16400	-2
1.16767	-2
1.17133	-2
1.17500	-2
1.17867	-2
1.18233	-2
1.18600	-2
1.18967	-2
1.19333	-3
1.19700	-3
1.20067	-3
1.20433	-3
1.20800	-4
1.21167	-4
1.21533	-4
1.21900	-4
1.22267	-4
1.22633	-5
1.23000	-5
1.23367	-5
1.23733	-5
1.24100	-5
1.24467	-5
1.24833	-5
1.25200	-5
1.25567	-6
1.25933	-6
1.26300	-5
1.26667	-5
1.27033	-5
1.27400	-5
1.27767	-4
1.28133	-4
1.28500	-4
1.28867	-4
1.29233	-3
1.29600	-3
1.29967	-3
1.30333	-4
1.30700	-4
1.31067	-4
1.31433	-4
1.31800	-4
1.32167	-5
1.32533	-5
1.32900	-5
1.33267	-5
1.33633	-6
1.34000	-6
1.34367	-6
1.34733	-6
1.35100	-6
1.35467	-5
1.35833	-5
1.36200	-5
1.36567	-4
1.36933	-4
1.37300	-4
1.37667	-4
1.38033	-4
1.38400	-3
1.38767	-3
1.39133	-3
1.39500	-3
1.39867	-3
1.40233	-3
1.40600	-2
1.40967	-2
1.41333	-2
1.41700	-2
1.42067	-2
1.42433	-2
1.42800	-3
1.43167	-3
1.43533	-3
1.43900	-3
1.44267	-3
1.44633	-3
1.45000	-3
1.45367	-2
1.45733	-2
1.46100	-2
1.46467	-2
1.46833	-2
1.47200	-2
1.47567	-2
1.47933	-2
1.48300	-2
1.48667	-2
1.49033	-2
1.49400	-2
1.49767	-2
1.50133	-2
1.50500	-2
1.50867	-2
1.51233	-2
1.51600	-2
1.51967	-2
1.52333	-2
1.52700	-2
1.53067	-2
1.53433	-2
1.53800	-2
1.54167	-3
1.54533	-3
1.54900	-3
1.55267	-2
1.55633	-2
1.56000	-2
1.56367	-3
1.56733	-3
1.57100	-2
1.57467	-3
1.57833	-3
1.58200	-3
1.58567	-3
1.58933	-3
1.59300	-4
1.59667	-4
1.60033	-5
1.60400	-6
1.60767	-7
1.61133	-9
1.61500	-11
1.61867	-13
1.62233	-16
1.62600	-19
1.62967	-22
1.63333	-25
1.63700	-29
1.64067	-32
1.64433	-35
1.64800	-38
1.65167	-42
1.65533	-45
1.65900	-48
1.66267	-52
1.66633	-56
1.67000	-60
1.67367	-64
1.67733	-69
1.68100	-74
1.68467	-79
1.68833	-83
1.69200	-87
1.69567	-91
1.69933	-93
1.70300	-95
1.70667	-97
1.71033	-98
1.71400	-99
1.71767	-100
1.72133	-101
1.72500	-101
1.72867	-101
1.73233	-101
1.73600	-100
1.73967	-100
1.74333	-100
1.74700	-99
1.75067	-99
1.75433	-98
1.75800	-98
1.76167	-99
1.76533	-99
1.76900	-100
1.77267	-101
1.77633	-102
1.78000	-103
1.78367	-104
1.78733	-105
1.79100	-105
1.79467	-105
1.79833	-106
1.80200	-106
1.80567	-106
1.80933	-106
1.81300	-106
1.81667	-106
1.82033	-106
1.82400	-105
1.82767	-105
1.83133	-105
1.83500	-105
1.83867	-105
1.84233	-106
1.84600	-106
1.84967	-106
1.85333	-107
1.85700	-107
1.86067	-107
1.86433	-107
1.86800	-107
1.87167	-106
1.87533	-106
1.87900	-106
1.88267	-106
1.88633	-105
1.89000	-105
1.89367	-105
1.89733	-105
1.90100	-105
1.90467	-105
1.90833	-105
1.91200	-104
1.91567	-105
1.91933	-105
1.92300	-105
1.92667	-105
1.93033	-105
1.93400	-105
1.93767	-104
1.94133	-104
1.94500	-103
1.94867	-103
1.95233	-103
1.95600	-102
1.95967	-102
1.96333	-102
1.96700	-102
1.97067	-102
1.97433	-102
1.97800	-101
1.98167	-101
1.98533	-100
1.98900	-100
1.99267	-99
1.99633	-99
2.00000	-99
2.00367	-98
2.00733	-98
2.01100	-98
2.01467	-98
2.01833	-98
2.02200	-98
2.02567	-99
2.02933	-99
2.03300	-98
2.03667	-98
2.04033	-98
2.04400	-97
2.04767	-97
2.05133	-96
2.05500	-95
2.05867	-95
2.06233	-95
2.06600	-94
2.06967	-94
2.07333	-94
2.07700	-94
2.08067	-94
2.08433	-94
2.08800	-94
2.09167	-94
2.09533	-93
2.09900	-93
2.10267	-92
2.10633	-92
2.11000	-92
2.11367	-91
2.11733	-91
2.12100	-91
2.12467	-90
2.12833	-90
2.13200	-89
2.13567	-89
2.13933	-89
2.14300	-89
2.14667	-89
2.15033	-89
2.15400	-89
2.15767	-89
2.16133	-88
2.16500	-88
2.16867	-87
2.17233	-87
2.17600	-87
2.17967	-87
2.18333	-87
2.18700	-87
2.19067	-87
2.19433	-87
2.19800	-86
2.20167	-85
2.20533	-85
2.20900	-84
2.21267	-83
2.21633	-83
2.22000	-82
2.22367	-82
2.22733	-82
2.23100	-82
2.23467	-82
2.23833	-82
2.24200	-82
2.24567	-82
2.24933	-82
2.25300	-82
2.25667	-81
2.26033	-81
2.26400	-81
2.26767	-80
2.27133	-80
2.27500	-80
2.27867	-80
2.28233	-80
2.28600	-80
2.28967	-79
2.29333	-79
2.29700	-78
2.30067	-77
2.30433	-76
2.30800	-76
2.31167	-75
2.31533	-75
2.31900	-74
2.32267	-74
2.32633	-73
2.33000	-73
2.33367	-72
2.33733	-72
2.34100	-71
2.34467	-71
2.34833	-70
2.35200	-70
2.35567	-69
2.35933	-68
2.36300	-67
2.36667	-65
2.37033	-63
2.37400	-60
2.37767	-57
2.38133	-54
2.38500	-50
2.38867	-46
2.39233	-42
2.39600	-38
2.39967	-34
2.40333	-30
2.40700	-25
2.41067	-21
2.41433	-18
2.41800	-15
2.42167	-12
2.42533	-10
2.42900	-8
2.43267	-6
2.43633	-4
2.44000	-3
2.44367	-1
2.44733	1
2.45100	3
2.45467	4
2.45833	5
2.46200	5
2.46567	6
2.46933	7
2.47300	7
2.47667	8
2.48033	8
2.48400	9
2.48767	9
2.49133	10
2.49500	10
2.49867	10
2.50233	10
2.50600	10
2.50967	9
2.51333	9
2.51700	8
2.52067	7
2.52433	6
2.52800	6
2.53167	6
2.53533	6
2.53900	6
2.54267	6
2.54633	7
2.55000	8
2.55367	9
2.55733	10
2.56100	10
2.56467	11
2.56833	11
2.57200	11
2.57567	12
2.57933	12
2.58300	12
2.58667	13
2.59033	13
2.59400	13
2.59767	13
2.60133	13
2.60500	13
2.60867	13
2.61233	14
2.61600	14
2.61967	14
2.62333	15
2.62700	15
2.63067	15
2.63433	16
2.63800	16
2.64167	16
2.64533	17
2.64900	17
2.65267	17
2.65633	18
2.66000	18
2.66367	19
2.66733	19
2.67100	19
2.67467	20
2.67833	20
2.68200	20
2.68567	20
2.68933	20
2.69300	20
2.69667	20
2.70033	21
2.70400	21
2.70767	21
2.71133	21
2.71500	21
2.71867	21
2.72233	21
2.72600	22
2.72967	22
2.73333	23
2.73700	24
2.74067	24
2.74433	25
2.74800	25
2.75167	25
2.75533	25
2.75900	26
2.76267	26
2.76633	25
2.77000	25
2.77367	24
2.77733	24
2.78100	23
2.78467	22
2.78833	22
2.79200	21
2.79567	21
2.79933	21
2.80300	21
2.80667	21
2.81033	21
2.81400	21
2.81767	22
2.82133	22
2.82500	23
2.82867	23
2.83233	23
2.83600	24
2.83967	24
2.84333	25
2.84700	25
2.85067	25
2.85433	25
2.85800	23
2.86167	20
2.86533	14
2.86900	5
2.87267	-8
2.87633	-26
2.88000	-49
2.88367	-77
2.88733	-110
2.89100	-148
2.89467	-191
2.89833	-239
2.90200	-290
2.90567	-345
2.90933	-403
2.91300	-463
2.91667	-525
2.92033	-587
2.92400	-649
2.92767	-711
2.93133	-770
2.93500	-827
2.93867	-880
2.94233	-933
2.94600	-989
2.94967	-1045
2.95333	-1091
2.95700	-1118
2.96067	-1120
2.96433	-1097
2.96800	-1051
2.97167	-988
2.97533	-914
2.97900	-834
2.98267	-752
2.98633	-672
2.99000	-595
2.99367	-523
2.99733	-457
3.00100	-397
3.00467	-343
3.00833	-295
3.01200	-253
3.01567	-216
3.01933	-184
3.02300	-157
3.02667	-132
3.03033	-112
3.03400	-94
3.03767	-78
3.04133	-65
3.04500	-54
3.04867	-44
3.05233	-36
3.05600	-29
3.05967	-23
3.06333	-17
3.06700	-13
3.07067	-9
3.07433	-6
3.07800	-3
3.08167	-0
3.08533	2
3.08900	4
3.09267	5
3.09633	7
3.10000	8
3.10367	9
3.10733	9
3.11100	10
3.11467	10
3.11833	10
3.12200	11
3.12567	11
3.12933	12
3.13300	12
3.13667	13
3.14033	13
3.14400	14
3.14767	14
3.15133	15
3.15500	16
3.15867	16
3.16233	17
3.16600	18
3.16967	18
3.17333	18
3.17700	19
3.18067	19
3.18433	20
3.18800	20
3.19167	20
3.19533	21
3.19900	21
3.20267	21
3.20633	21
3.21000	21
3.21367	21
3.21733	22
3.22100	22
3.22467	22
3.22833	21
3.23200	21
3.23567	21
3.23933	22
3.24300	22
3.24667	22
3.25033	22
3.25400	22
3.25767	22
3.26133	22
3.26500	21
3.26867	22
3.27233	22
3.27600	22
3.27967	22
3.28333	22
3.28700	22
3.29067	22
3.29433	22
3.29800	22
3.30167	23
3.30533	23
3.30900	23
3.31267	23
3.31633	23
3.32000	23
3.32367	23
3.32733	23
3.33100	23
3.33467	23
3.33833	24
3.34200	24
3.34567	24
3.34933	24
3.35300	24
3.35667	24
3.36033	24
3.36400	24
3.36767	24
3.37133	24
3.37500	24
3.37867	24
3.38233	24
3.38600	24
3.38967	24
3.39333	24
3.39700	24
3.40067	24
3.40433	24
3.40800	24
3.41167	24
3.41533	24
3.41900	24
3.42267	24
3.42633	24
3.43000	23
3.43367	23
3.43733	23
3.44100	23
3.44467	23
3.44833	23
3.45200	23
3.45567	23
3.45933	24
3.46300	24
3.46667	24
3.47033	24
3.47400	24
3.47767	24
3.48133	25
3.48500	25
3.48867	25
3.49233	25
3.49600	25
3.49967	26
3.50333	26
3.50700	26
3.51067	27
3.51433	27
3.51800	28
3.52167	28
3.52533	28
3.52900	28
3.53267	29
3.53633	29
3.54000	29
3.54367	29
3.54733	29
3.55100	29
3.55467	29
3.55833	29
3.56200	29
3.56567	29
3.56933	29
3.57300	29
3.57667	29
3.58033	29
3.58400	29
3.58767	29
3.59133	28
3.59500	28
3.59867	28
3.60233	28
3.60600	27
3.60967	27
3.61333	27
3.61700	26
3.62067	26
3.62433	26
3.62800	26
3.63167	26
3.63533	25
3.63900	25
3.64267	25
3.64633	25
3.65000	26
3.65367	26
3.65733	26
3.66100	26
3.66467	26
3.66833	26
3.67200	26
3.67567	25
3.67933	25
3.68300	25
3.68667	25
3.69033	25
3.69400	25
3.69767	26
3.70133	25
3.70500	25
3.70867	26
3.71233	26
3.71600	26
3.71967	26
3.72333	26
3.72700	26
3.73067	26
3.73433	26
3.73800	25
3.74167	25
3.74533	25
3.74900	25
3.75267	25
3.75633	24
3.76000	24
3.76367	24
3.76733	24
3.77100	25
3.77467	25
3.77833	25
3.78200	25
3.78567	25
3.78933	25
3.79300	25
3.79667	25
3.80033	25
3.80400	24
3.80767	25
3.81133	25
3.81500	25
3.81867	25
3.82233	25
3.82600	25
3.82967	25
3.83333	25
3.83700	25
3.84067	26
3.84433	26
3.84800	26
3.85167	26
3.85533	26
3.85900	26
3.86267	26
3.86633	26
3.87000	26
3.87367	27
3.87733	27
3.88100	27
3.88467	27
3.88833	26
3.89200	26
3.89567	26
3.89933	26
3.90300	26
3.90667	26
3.91033	26
3.91400	26
3.91767	26
3.92133	26
3.92500	26
3.92867	26
3.93233	26
3.93600	26
3.93967	26
3.94333	26
3.94700	26
3.95067	26
3.95433	26
3.95800	25
3.96167	25
3.96533	25
3.96900	25
3.97267	25
3.97633	25
3.98000	25
3.98367	25
3.98733	26
3.99100	26
3.99467	26
3.99833	26

[Chromatogram (Ch3)]
Interval(msec)	220
# of Points	1091
Start Time(min)	0.002
End Time(min)	3.998
R.Time (min)	Intensity
0.00167	0
0.00533	1
0.00900	3
0.01267	5
0.01633	4
0.02000	3
0.02367	1
0.02733	-0
0.03100	-1
0.03467	1
0.03833	3
0.04200	4
0.04567	4
0.04933	5
0.05300	3
0.05667	2
0.06033	2
0.06400	3
0.06767	3
0.07133	4
0.07500	5
0.07867	6
0.08233	6
0.08600	6
0.08967	6
0.09333	5
0.09700	5
0.10067	7
0.10433	9
0.10800	10
0.11167	7
0.11533	5
0.11900	3
0.12267	1
0.12633	0
0.13000	1
0.13367	3
0.13733	4
0.14100	4
0.14467	7
0.14833	10
0.15200	9
0.15567	9
0.15933	7
0.16300	4
0.16667	2
0.17033	-2
0.17400	-2
0.17767	2
0.18133	5
0.18500	6
0.18867	5
0.19233	7
0.19600	7
0.19967	8
0.20333	8
0.20700	6
0.21067	6
0.21433	7
0.21800	7
0.22167	6
0.22533	6
0.22900	7
0.23267	8
0.23633	8
0.24000	7
0.24367	6
0.24733	5
0.25100	7
0.25467	9
0.25833	10
0.26200	8
0.26567	6
0.26933	3
0.27300	3
0.27667	4
0.28033	5
0.28400	7
0.28767	7
0.29133	8
0.29500	9
0.29867	8
0.30233	6
0.30600	6
0.30967	5
0.31333	5
0.31700	4
0.32067	5
0.32433	8
0.32800	12
0.33167	13
0.33533	15
0.33900	15
0.34267	11
0.34633	8
0.35000	11
0.35367	13
0.35733	14
0.36100	15
0.36467	15
0.36833	14
0.37200	13
0.37567	14
0.37933	13
0.38300	11
0.38667	9
0.39033	10
0.39400	13
0.39767	15
0.40133	13
0.40500	12
0.40867	11
0.41233	9
0.41600	8
0.41967	9
0.42333	12
0.42700	13
0.43067	13
0.43433	14
0.43800	16
0.44167	15
0.44533	13
0.44900	14
0.45267	15
0.45633	14
0.46000	11
0.46367	10
0.46733	12
0.47100	14
0.47467	14
0.47833	13
0.48200	15
0.48567	15
0.48933	11
0.49300	11
0.49667	13
0.50033	15
0.50400	15
0.50767	13
0.51133	10
0.51500	8
0.51867	6
0.52233	6
0.52600	8
0.52967	10
0.53333	12
0.53700	13
0.54067	14
0.54433	12
0.54800	10
0.55167	10
0.55533	10
0.55900	8
0.56267	8
0.56633	9
0.57000	10
0.57367	13
0.57733	14
0.58100	13
0.58467	12
0.58833	13
0.59200	15
0.59567	14
0.59933	15
0.60300	14
0.60667	11
0.61033	10
0.61400	9
0.61767	9
0.62133	11
0.62500	12
0.62867	13
0.63233	13
0.63600	14
0.63967	16
0.64333	14
0.64700	14
0.65067	14
0.65433	13
0.65800	12
0.66167	12
0.66533	10
0.66900	11
0.67267	11
0.67633	10
0.68000	9
0.68367	12
0.68733	13
0.69100	14
0.69467	13
0.69833	11
0.70200	9
0.70567	9
0.70933	10
0.71300	13
0.71667	15
0.72033	17
0.72400	18
0.72767	18
0.73133	17
0.73500	15
0.73867	14
0.74233	13
0.74600	14
0.74967	15
0.75333	17
0.75700	19
0.76067	18
0.76433	17
0.76800	16
0.77167	16
0.77533	14
0.77900	12
0.78267	12
0.78633	11
0.79000	11
0.79367	12
0.79733	12
0.80100	14
0.80467	16
0.80833	15
0.81200	14
0.81567	15
0.81933	15
0.82300	16
0.82667	16
0.83033	15
0.83400	15
0.83767	13
0.84133	12
0.84500	12
0.84867	10
0.85233	7
0.85600	8
0.85967	9
0.86333	10
0.86700	11
0.87067	11
0.87433	12
0.87800	14
0.88167	13
0.88533	12
0.88900	13
0.89267	14
0.89633	14
0.90000	16
0.90367	19
0.90733	20
0.91100	19
0.91467	18
0.91833	16
0.92200	16
0.92567	16
0.92933	17
0.93300	17
0.93667	17
0.94033	16
0.94400	15
0.94767	12
0.95133	12
0.95500	13
0.95867	14
0.96233	16
0.96600	18
0.96967	18
0.97333	17
0.97700	16
0.98067	15
0.98433	15
0.98800	17
0.99167	18
0.99533	20
0.99900	21
1.00267	22
1.00633	22
1.01000	20
1.01367	19
1.01733	21
1.02100	23
1.02467	22
1.02833	21
1.03200	19
1.03567	17
1.03933	15
1.04300	16
1.04667	17
1.05033	18
1.05400	20
1.05767	18
1.06133	17
1.06500	15
1.06867	14
1.07233	14
1.07600	15
1.07967	16
1.08333	18
1.08700	17
1.09067	15
1.09433	15
1.09800	16
1.10167	18
1.10533	18
1.10900	18
1.11267	17
1.11633	18
1.12000	20
1.12367	19
1.12733	18
1.13100	15
1.13467	15
1.13833	16
1.14200	17
1.14567	19
1.14933	19
1.15300	19
1.15667	17
1.16033	16
1.16400	17
1.16767	19
1.17133	19
1.17500	18
1.17867	17
1.18233	17
1.18600	19
1.18967	21
1.19333	20
1.19700	17
1.20067	17
1.20433	17
1.20800	18
1.21167	18
1.21533	17
1.21900	16
1.22267	17
1.22633	16
1.23000	16
1.23367	16
1.23733	17
1.24100	15
1.24467	16
1.24833	18
1.25200	21
1.25567	24
1.25933	24
1.26300	24
1.26667	23
1.27033	20
1.27400	19
1.27767	19
1.28133	23
1.28500	25
1.28867	24
1.29233	21
1.29600	20
1.29967	17
1.30333	16
1.30700	18
1.31067	19
1.31433	19
1.31800	17
1.32167	15
1.32533	14
1.32900	15
1.33267	17
1.33633	20
1.34000	20
1.34367	19
1.34733	20
1.35100	19
1.35467	20
1.35833	20
1.36200	21
1.36567	21
1.36933	23
1.37300	23
1.37667	21
1.38033	20
1.38400	20
1.38767	23
1.39133	24
1.39500	22
1.39867	21
1.40233	20
1.40600	20
1.40967	18
1.41333	14
1.41700	11
1.42067	13
1.42433	16
1.42800	19
1.43167	20
1.43533	19
1.43900	18
1.44267	17
1.44633	16
1.45000	19
1.45367	18
1.45733	18
1.46100	20
1.46467	21
1.46833	20
1.47200	18
1.47567	16
1.47933	16
1.48300	15
1.48667	14
1.49033	13
1.49400	13
1.49767	12
1.50133	11
1.50500	10
1.50867	11
1.51233	10
1.51600	12
1.51967	15
1.52333	17
1.52700	17
1.53067	17
1.53433	16
1.53800	15
1.54167	15
1.54533	14
1.54900	12
1.55267	12
1.55633	13
1.56000	15
1.56367	14
1.56733	11
1.57100	8
1.57467	7
1.57833	9
1.58200	12
1.58567	13
1.58933	13
1.59300	12
1.59667	12
1.60033	13
1.60400	12
1.60767	12
1.61133	13
1.61500	14
1.61867	13
1.62233	13
1.62600	14
1.62967	16
1.63333	18
1.63700	16
1.64067	16
1.64433	15
1.64800	15
1.65167	15
1.65533	17
1.65900	17
1.66267	18
1.66633	19
1.67000	19
1.67367	18
1.67733	19
1.68100	21
1.68467	22
1.68833	25
1.69200	26
1.69567	26
1.69933	28
1.70300	27
1.70667	26
1.71033	27
1.71400	27
1.71767	28
1.72133	29
1.72500	29
1.72867	28
1.73233	26
1.73600	26
1.73967	30
1.74333	31
1.74700	33
1.75067	34
1.75433	34
1.75800	34
1.76167	33
1.76533	32
1.76900	33
1.77267	34
1.77633	36
1.78000	37
1.78367	38
1.78733	37
1.79100	35
1.79467	33
1.79833	33
1.80200	34
1.80567	36
1.80933	36
1.81300	37
1.81667	36
1.82033	37
1.82400	37
1.82767	38
1.83133	39
1.83500	40
1.83867	39
1.84233	39
1.84600	41
1.84967	44
1.85333	46
1.85700	45
1.86067	46
1.86433	47
1.86800	45
1.87167	45
1.87533	45
1.87900	47
1.88267	49
1.88633	51
1.89000	53
1.89367	54
1.89733	55
1.90100	55
1.90467	53
1.90833	53
1.91200	54
1.91567	58
1.91933	60
1.92300	62
1.92667	64
1.93033	66
1.93400	66
1.93767	66
1.94133	64
1.94500	62
1.94867	62
1.95233	63
1.95600	67
1.95967	70
1.96333	69
1.96700	68
1.97067	67
1.97433	68
1.97800	69
1.98167	69
1.98533	68
1.98900	68
1.99267	69
1.99633	71
2.00000	72
2.00367	74
2.00733	77
2.01100	80
2.01467	81
2.01833	82
2.02200	82
2.02567	82
2.02933	82
2.03300	83
2.03667	84
2.04033	84
2.04400	85
2.04767	89
2.05133	93
2.05500	95
2.05867	95
2.06233	95
2.06600	96
2.06967	96
2.07333	97
2.07700	97
2.08067	98
2.08433	99
2.08800	101
2.09167	104
2.09533	105
2.09900	105
2.10267	104
2.10633	103
2.11000	104
2.11367	107
2.11733	109
2.12100	111
2.12467	113
2.12833	114
2.13200	116
2.13567	118
2.13933	120
2.14300	121
2.14667	121
2.15033	122
2.15400	121
2.15767	121
2.16133	121
2.16500	122
2.16867	124
2.17233	127
2.17600	128
2.17967	127
2.18333	124
2.18700	125
2.19067	127
2.19433	130
2.19800	132
2.20167	133
2.20533	135
2.20900	136
2.21267	138
2.21633	138
2.22000	140
2.22367	140
2.22733	138
2.23100	137
2.23467	137
2.23833	137
2.24200	138
2.24567	140
2.24933	143
2.25300	146
2.25667	147
2.26033	149
2.26400	149
2.26767	150
2.27133	151
2.27500	152
2.27867	151
2.28233	152
2.28600	151
2.28967	150
2.29333	149
2.29700	148
2.30067	148
2.30433	149
2.30800	151
2.31167	152
2.31533	152
2.31900	155
2.32267	156
2.32633	157
2.33000	158
2.33367	159
2.33733	159
2.34100	159
2.34467	160
2.34833	161
2.35200	161
2.35567	159
2.35933	157
2.36300	158
2.36667	162
2.37033	166
2.37400	169
2.37767	169
2.38133	168
2.38500	166
2.38867	162
2.39233	161
2.39600	161
2.39967	163
2.40333	165
2.40700	166
2.41067	166
2.41433	165
2.41800	167
2.42167	169
2.42533	171
2.42900	169
2.43267	166
2.43633	165
2.44000	170
2.44367	204
2.44733	272
2.45100	338
2.45467	381
2.45833	390
2.46200	382
2.46567	371
2.46933	361
2.47300	346
2.47667	325
2.48033	298
2.48400	269
2.48767	242
2.49133	220
2.49500	206
2.49867	198
2.50233	197
2.50600	203
2.50967	209
2.51333	210
2.51700	209
2.52067	202
2.52433	189
2.52800	175
2.53167	159
2.53533	146
2.53900	137
2.54267	130
2.54633	125
2.55000	119
2.55367	115
2.55733	112
2.56100	112
2.56467	112
2.56833	114
2.57200	116
2.57567	118
2.57933	119
2.58300	122
2.58667	128
2.59033	136
2.59400	143
2.59767	148
2.60133	152
2.60500	155
2.60867	157
2.61233	156
2.61600	155
2.61967	154
2.62333	147
2.62700	137
2.63067	126
2.63433	116
2.63800	105
2.64167	95
2.64533	84
2.64900	73
2.65267	66
2.65633	61
2.66000	59
2.66367	57
2.66733	56
2.67100	57
2.67467	58
2.67833	60
2.68200	62
2.68567	66
2.68933	68
2.69300	70
2.69667	71
2.70033	72
2.70400	72
2.70767	72
2.71133	71
2.71500	69
2.71867	69
2.72233	69
2.72600	71
2.72967	73
2.73333	77
2.73700	80
2.74067	83
2.74433	86
2.74800	87
2.75167	91
2.75533	95
2.75900	96
2.76267	99
2.76633	103
2.77000	107
2.77367	113
2.77733	119
2.78100	121
2.78467	123
2.78833	126
2.79200	127
2.79567	127
2.79933	126
2.80300	124
2.80667	123
2.81033	125
2.81400	128
2.81767	129
2.82133	129
2.82500	129
2.82867	133
2.83233	142
2.83600	159
2.83967	198
2.84333	277
2.84700	415
2.85067	636
2.85433	952
2.85800	1362
2.86167	1854
2.86533	2395
2.86900	2945
2.87267	3452
2.87633	3878
2.88000	4192
2.88367	4374
2.88733	4424
2.89100	4354
2.89467	4183
2.89833	3938
2.90200	3646
2.90567	3332
2.90933	3013
2.91300	2701
2.91667	2405
2.92033	2132
2.92400	1883
2.92767	1658
2.93133	1459
2.93500	1281
2.93867	1122
2.94233	983
2.94600	862
2.94967	756
2.95333	665
2.95700	588
2.96067	524
2.96433	468
2.96800	411
2.97167	345
2.97533	291
2.97900	260
2.98267	248
2.98633	247
2.99000	254
2.99367	263
2.99733	278
3.00100	296
3.00467	320
3.00833	349
3.01200	382
3.01567	413
3.01933	443
3.02300	474
3.02667	501
3.03033	524
3.03400	545
3.03767	561
3.04133	574
3.04500	586
3.04867	595
3.05233	605
3.05600	611
3.05967	616
3.06333	620
3.06700	624
3.07067	627
3.07433	628
3.07800	631
3.08167	633
3.08533	634
3.08900	635
3.09267	640
3.09633	645
3.10000	646
3.10367	648
3.10733	650
3.11100	652
3.11467	654
3.11833	654
3.12200	658
3.12567	660
3.12933	663
3.13300	667
3.13667	671
3.14033	674
3.14400	677
3.14767	680
3.15133	683
3.15500	685
3.15867	686
3.16233	688
3.16600	689
3.16967	689
3.17333	689
3.17700	689
3.18067	686
3.18433	685
3.18800	686
3.19167	689
3.19533	692
3.19900	695
3.20267	698
3.20633	701
3.21000	702
3.21367	702
3.21733	701
3.22100	702
3.22467	702
3.22833	700
3.23200	698
3.23567	695
3.23933	693
3.24300	692
3.24667	689
3.25033	686
3.25400	687
3.25767	685
3.26133	683
3.26500	677
3.26867	672
3.27233	666
3.27600	661
3.27967	658
3.28333	655
3.28700	654
3.29067	652
3.29433	648
3.29800	645
3.30167	643
3.30533	637
3.30900	632
3.31267	628
3.31633	625
3.32000	624
3.32367	619
3.32733	615
3.33100	612
3.33467	610
3.33833	609
3.34200	609
3.34567	607
3.34933	603
3.35300	600
3.35667	598
3.36033	594
3.36400	590
3.36767	586
3.37133	584
3.37500	580
3.37867	574
3.38233	570
3.38600	568
3.38967	569
3.39333	568
3.39700	568
3.40067	568
3.40433	566
3.40800	564
3.41167	561
3.41533	557
3.41900	553
3.42267	549
3.42633	547
3.43000	546
3.43367	545
3.43733	542
3.44100	538
3.44467	534
3.44833	533
3.45200	534
3.45567	534
3.45933	534
3.46300	531
3.46667	531
3.47033	530
3.47400	528
3.47767	525
3.48133	522
3.48500	520
3.48867	517
3.49233	515
3.49600	510
3.49967	506
3.50333	502
3.50700	500
3.51067	496
3.51433	495
3.51800	495
3.52167	495
3.52533	493
3.52900	490
3.53267	487
3.53633	483
3.54000	479
3.54367	476
3.54733	476
3.55100	477
3.55467	476
3.55833	476
3.56200	477
3.56567	476
3.56933	474
3.57300	471
3.57667	471
3.58033	473
3.58400	475
3.58767	474
3.59133	472
3.59500	472
3.59867	473
3.60233	470
3.60600	466
3.60967	466
3.61333	468
3.61700	468
3.62067	467
3.62433	468
3.62800	470
3.63167	470
3.63533	471
3.63900	468
3.64267	466
3.64633	464
3.65000	462
3.65367	458
3.65733	455
3.66100	456
3.66467	457
3.66833	458
3.67200	457
3.67567	456
3.67933	457
3.68300	455
3.68667	453
3.69033	449
3.69400	447
3.69767	445
3.70133	445
3.70500	448
3.70867	451
3.71233	451
3.71600	449
3.71967	445
3.72333	443
3.72700	445
3.73067	446
3.73433	446
3.73800	445
3.74167	444
3.74533	444
3.74900	445
3.75267	445
3.75633	444
3.76000	445
3.76367	447
3.76733	447
3.77100	446
3.77467	444
3.77833	443
3.78200	443
3.78567	443
3.78933	440
3.79300	440
3.79667	438
3.80033	435
3.80400	435
3.80767	437
3.81133	437
3.81500	438
3.81867	440
3.82233	441
3.82600	439
3.82967	437
3.83333	435
3.83700	433
3.84067	433
3.84433	430
3.84800	428
3.85167	428
3.85533	428
3.85900	428
3.86267	428
3.86633	428
3.87000	428
3.87367	428
3.87733	426
3.88100	424
3.88467	422
3.88833	425
3.89200	427
3.89567	428
3.89933	427
3.90300	425
3.90667	423
3.91033	421
3.91400	419
3.91767	417
3.92133	415
3.92500	415
3.92867	415
3.93233	413
3.93600	412
3.93967	413
3.94333	412
3.94700	409
3.95067	405
3.95433	404
3.95800	404
3.96167	405
3.96533	406
3.96900	405
3.97267	407
3.97633	407
3.98000	408
3.98367	409
3.98733	407
3.99100	403
3.99467	404
3.99833	403

[Status Trace (Column Oven Temperature)]
Interval(msec)	1000
# of Points	240
Start Time(min)	0.011
End Time(min)	3.995
Intensity Units	
Intensity Multiplier	1
R.Time (min)	Intensity
0.01148	35.05
0.02815	35.04
0.04482	35.04
0.06148	35.05
0.07815	35.04
0.09482	35.04
0.11148	35.04
0.12815	35.04
0.14482	35.05
0.16148	35.06
0.17815	35.06
0.19482	35.06
0.21148	35.06
0.22815	35.05
0.24482	35.05
0.26148	35.05
0.27815	35.05
0.29482	35.05
0.31148	35.04
0.32815	35.04
0.34482	35.03
0.36148	35.04
0.37815	35.04
0.39482	35.03
0.41148	35.01
0.42815	35.00
0.44482	34.99
0.46148	34.99
0.47815	35.00
0.49482	35.01
0.51148	35.02
0.52815	35.03
0.54482	35.02
0.56148	35.02
0.57815	35.01
0.59482	35.00
0.61148	34.99
0.62815	34.99
0.64482	34.98
0.66148	34.98
0.67815	34.98
0.69482	34.98
0.71148	34.98
0.72815	34.98
0.74482	34.99
0.76148	34.99
0.77815	34.98
0.79482	34.98
0.81148	34.97
0.82815	34.97
0.84482	34.97
0.86148	34.97
0.87815	34.98
0.89482	34.99
0.91148	35.00
0.92815	35.00
0.94482	35.00
0.96148	34.99
0.97815	34.99
0.99482	34.99
1.01148	35.00
1.02815	35.00
1.04482	35.00
1.06148	35.00
1.07815	35.00
1.09482	35.00
1.11148	34.99
1.12815	34.99
1.14482	34.98
1.16148	34.98
1.17815	34.98
1.19482	34.98
1.21148	34.99
1.22815	34.99
1.24482	35.00
1.26148	35.01
1.27815	35.01
1.29482	35.01
1.31148	35.02
1.32815	35.03
1.34482	35.03
1.36148	35.02
1.37815	35.01
1.39482	35.01
1.41148	35.00
1.42815	35.00
1.44482	35.00
1.46148	34.99
1.47815	34.99
1.49482	34.99
1.51148	34.99
1.52815	34.99
1.54482	34.98
1.56148	34.99
1.57815	34.98
1.59482	34.99
1.61148	35.06
1.62815	35.21
1.64482	35.41
1.66148	35.67
1.67815	36.03
1.69482	36.41
1.71148	36.77
1.72815	37.10
1.74482	37.39
1.76148	37.70
1.77815	38.05
1.79482	38.38
1.81148	38.71
1.82815	39.04
1.84482	39.37
1.86148	39.70
1.87815	40.04
1.89482	40.36
1.91148	40.68
1.92815	41.01
1.94482	41.33
1.96148	41.66
1.97815	41.99
1.99482	42.31
2.01148	42.63
2.02815	42.97
2.04482	43.28
2.06148	43.60
2.07815	43.93
2.09482	44.27
2.11148	44.60
2.12815	44.92
2.14482	45.25
2.16148	45.57
2.17815	45.91
2.19482	46.24
2.21148	46.57
2.22815	46.89
2.24482	47.24
2.26148	47.56
2.27815	47.91
2.29482	48.23
2.31148	48.58
2.32815	48.89
2.34482	49.21
2.36148	49.47
2.37815	49.61
2.39482	49.65
2.41148	49.64
2.42815	49.66
2.44482	49.65
2.46148	49.68
2.47815	49.69
2.49482	49.69
2.51148	49.69
2.52815	49.72
2.54482	49.72
2.56148	49.74
2.57815	49.77
2.59482	49.79
2.61148	49.80
2.62815	49.81
2.64482	49.83
2.66148	49.84
2.67815	49.85
2.69482	49.86
2.71148	49.87
2.72815	49.87
2.74482	49.85
2.76148	49.84
2.77815	49.87
2.79482	49.90
2.81148	49.91
2.82815	49.91
2.84482	49.89
2.86148	49.88
2.87815	49.87
2.89482	49.88
2.91148	49.89
2.92815	49.91
2.94482	49.94
2.96148	49.97
2.97815	49.99
2.99482	50.01
3.01148	50.02
3.02815	50.02
3.04482	50.03
3.06148	50.02
3.07815	50.03
3.09482	50.03
3.11148	50.04
3.12815	50.05
3.14482	50.05
3.16148	50.05
3.17815	50.05
3.19482	50.05
3.21148	50.05
3.22815	50.04
3.24482	50.05
3.26148	50.06
3.27815	50.06
3.29482	50.06
3.31148	50.06
3.32815	50.07
3.34482	50.07
3.36148	50.07
3.37815	50.07
3.39482	50.08
3.41148	50.09
3.42815	50.10
3.44482	50.11
3.46148	50.11
3.47815	50.11
3.49482	50.10
3.51148	50.08
3.52815	50.06
3.54482	50.04
3.56148	50.03
3.57815	50.02
3.59482	50.03
3.61148	50.03
3.62815	50.03
3.64482	50.03
3.66148	50.03
3.67815	50.03
3.69482	50.03
3.71148	50.03
3.72815	50.04
3.74482	50.05
3.76148	50.05
3.77815	50.06
3.79482	50.06
3.81148	50.07
3.82815	50.06
3.84482	50.05
3.86148	50.05
3.87815	50.05
3.89482	50.05
3.91148	50.04
3.92815	50.05
3.94482	50.04
3.96148	50.05
3.97815	50.05
3.99482	50.05

[Status Trace (Injection Unit Temperature)]
Interval(msec)	1000
# of Points	240
Start Time(min)	0.011
End Time(min)	3.995
Intensity Units	
Intensity Multiplier	1
R.Time (min)	Intensity
0.01148	99.97
0.02815	99.98
0.04482	99.98
0.06148	99.98
0.07815	99.97
0.09482	99.98
0.11148	99.98
0.12815	99.98
0.14482	99.98
0.16148	99.98
0.17815	99.98
0.19482	99.98
0.21148	99.97
0.22815	99.98
0.24482	99.98
0.26148	99.98
0.27815	99.98
0.29482	99.98
0.31148	99.98
0.32815	99.98
0.34482	99.98
0.36148	99.98
0.37815	99.98
0.39482	99.98
0.41148	99.98
0.42815	99.98
0.44482	99.98
0.46148	99.98
0.47815	99.98
0.49482	99.99
0.51148	99.98
0.52815	99.98
0.54482	99.98
0.56148	99.99
0.57815	99.99
0.59482	99.99
0.61148	99.99
0.62815	99.99
0.64482	99.98
0.66148	99.99
0.67815	99.99
0.69482	99.98
0.71148	99.99
0.72815	99.98
0.74482	99.99
0.76148	99.99
0.77815	99.99
0.79482	99.99
0.81148	99.99
0.82815	99.99
0.84482	99.98
0.86148	99.99
0.87815	99.99
0.89482	99.99
0.91148	99.99
0.92815	99.99
0.94482	99.98
0.96148	99.99
0.97815	99.99
0.99482	99.98
1.01148	99.98
1.02815	99.99
1.04482	99.98
1.06148	99.98
1.07815	99.98
1.09482	99.99
1.11148	99.98
1.12815	99.98
1.14482	99.98
1.16148	99.98
1.17815	99.98
1.19482	99.98
1.21148	99.98
1.22815	99.98
1.24482	99.98
1.26148	99.98
1.27815	99.99
1.29482	99.98
1.31148	99.98
1.32815	99.99
1.34482	99.98
1.36148	99.99
1.37815	99.99
1.39482	99.98
1.41148	99.99
1.42815	99.99
1.44482	99.99
1.46148	99.98
1.47815	99.98
1.49482	99.99
1.51148	99.98
1.52815	99.98
1.54482	99.98
1.56148	99.98
1.57815	99.98
1.59482	99.99
1.61148	99.99
1.62815	99.99
1.64482	99.99
1.66148	99.98
1.67815	99.99
1.69482	99.99
1.71148	99.99
1.72815	99.99
1.74482	99.99
1.76148	99.99
1.77815	99.98
1.79482	99.98
1.81148	99.99
1.82815	99.99
1.84482	99.98
1.86148	99.99
1.87815	99.99
1.89482	99.98
1.91148	99.99
1.92815	99.98
1.94482	99.98
1.96148	99.98
1.97815	99.98
1.99482	99.98
2.01148	99.98
2.02815	99.98
2.04482	99.98
2.06148	99.98
2.07815	99.98
2.09482	99.98
2.11148	99.98
2.12815	99.98
2.14482	99.97
2.16148	99.98
2.17815	99.98
2.19482	99.97
2.21148	99.98
2.22815	99.97
2.24482	99.97
2.26148	99.97
2.27815	99.97
2.29482	99.97
2.31148	99.97
2.32815	99.97
2.34482	99.97
2.36148	99.97
2.37815	99.97
2.39482	99.97
2.41148	99.97
2.42815	99.97
2.44482	99.97
2.46148	99.97
2.47815	99.97
2.49482	99.97
2.51148	99.96
2.52815	99.97
2.54482	99.96
2.56148	99.97
2.57815	99.97
2.59482	99.97
2.61148	99.97
2.62815	99.97
2.64482	99.97
2.66148	99.97
2.67815	99.98
2.69482	99.98
2.71148	99.98
2.72815	99.98
2.74482	99.98
2.76148	99.98
2.77815	99.98
2.79482	99.99
2.81148	99.99
2.82815	99.99
2.84482	99.99
2.86148	100.00
2.87815	100.00
2.89482	100.00
2.91148	100.00
2.92815	100.00
2.94482	100.00
2.96148	100.00
2.97815	100.01
2.99482	100.00
3.01148	100.01
3.02815	100.01
3.04482	100.01
3.06148	100.01
3.07815	100.01
3.09482	100.02
3.11148	100.01
3.12815	100.02
3.14482	100.02
3.16148	100.02
3.17815	100.02
3.19482	100.02
3.21148	100.02
3.22815	100.02
3.24482	100.02
3.26148	100.02
3.27815	100.02
3.29482	100.03
3.31148	100.03
3.32815	100.03
3.34482	100.03
3.36148	100.03
3.37815	100.03
3.39482	100.03
3.41148	100.03
3.42815	100.04
3.44482	100.04
3.46148	100.03
3.47815	100.04
3.49482	100.04
3.51148	100.04
3.52815	100.04
3.54482	100.04
3.56148	100.04
3.57815	100.04
3.59482	100.04
3.61148	100.04
3.62815	100.04
3.64482	100.04
3.66148	100.04
3.67815	100.05
3.69482	100.04
3.71148	100.05
3.72815	100.05
3.74482	100.05
3.76148	100.05
3.77815	100.05
3.79482	100.05
3.81148	100.05
3.82815	100.05
3.84482	100.05
3.86148	100.05
3.87815	100.05
3.89482	100.05
3.91148	100.05
3.92815	100.05
3.94482	100.05
3.96148	100.05
3.97815	100.05
3.99482	100.05

[Status Trace (Carrier Gas Pressure)]
Interval(msec)	1000
# of Points	240
Start Time(min)	0.011
End Time(min)	3.995
Intensity Units	
Intensity Multiplier	1
R.Time (min)	Intensity
0.01148	58.00
0.02815	54.98
0.04482	57.63
0.06148	59.72
0.07815	58.79
0.09482	57.99
0.11148	57.99
0.12815	58.01
0.14482	58.01
0.16148	58.00
0.17815	58.00
0.19482	58.00
0.21148	58.00
0.22815	58.00
0.24482	58.00
0.26148	58.00
0.27815	58.00
0.29482	58.00
0.31148	58.00
0.32815	58.00
0.34482	58.00
0.36148	58.00
0.37815	58.00
0.39482	58.00
0.41148	58.00
0.42815	58.00
0.44482	58.00
0.46148	58.00
0.47815	58.00
0.49482	58.00
0.51148	58.00
0.52815	58.00
0.54482	58.00
0.56148	58.00
0.57815	58.00
0.59482	58.00
0.61148	58.00
0.62815	58.00
0.64482	58.00
0.66148	58.00
0.67815	58.00
0.69482	58.00
0.71148	58.00
0.72815	58.00
0.74482	58.00
0.76148	58.00
0.77815	58.00
0.79482	58.00
0.81148	58.00
0.82815	58.00
0.84482	58.00
0.86148	58.00
0.87815	58.00
0.89482	58.00
0.91148	58.00
0.92815	58.00
0.94482	58.00
0.96148	58.00
0.97815	58.00
0.99482	58.00
1.01148	58.00
1.02815	58.00
1.04482	58.00
1.06148	58.00
1.07815	58.00
1.09482	58.00
1.11148	58.00
1.12815	58.00
1.14482	58.00
1.16148	58.00
1.17815	58.00
1.19482	58.00
1.21148	58.00
1.22815	58.00
1.24482	58.00
1.26148	58.00
1.27815	58.00
1.29482	58.00
1.31148	58.00
1.32815	58.00
1.34482	58.00
1.36148	58.00
1.37815	58.00
1.39482	58.00
1.41148	58.00
1.42815	58.00
1.44482	58.00
1.46148	58.00
1.47815	58.00
1.49482	58.00
1.51148	58.00
1.52815	58.00
1.54482	58.00
1.56148	58.00
1.57815	58.00
1.59482	58.00
1.61148	58.00
1.62815	58.00
1.64482	58.00
1.66148	58.00
1.67815	58.01
1.69482	58.00
1.71148	58.00
1.72815	58.00
1.74482	58.00
1.76148	58.00
1.77815	58.00
1.79482	58.00
1.81148	58.00
1.82815	58.00
1.84482	58.00
1.86148	58.00
1.87815	58.00
1.89482	58.00
1.91148	58.00
1.92815	58.00
1.94482	58.00
1.96148	58.00
1.97815	58.00
1.99482	58.00
2.01148	58.00
2.02815	58.00
2.04482	58.00
2.06148	58.00
2.07815	58.00
2.09482	58.00
2.11148	58.00
2.12815	58.00
2.14482	58.00
2.16148	58.00
2.17815	58.00
2.19482	58.00
2.21148	58.00
2.22815	58.00
2.24482	58.00
2.26148	58.00
2.27815	58.00
2.29482	58.00
2.31148	58.00
2.32815	58.00
2.34482	58.00
2.36148	58.00
2.37815	57.99
2.39482	57.99
2.41148	57.99
2.42815	58.00
2.44482	58.00
2.46148	58.00
2.47815	58.00
2.49482	58.00
2.51148	57.99
2.52815	57.99
2.54482	58.00
2.56148	58.00
2.57815	58.00
2.59482	58.00
2.61148	58.00
2.62815	58.00
2.64482	58.00
2.66148	58.00
2.67815	58.00
2.69482	58.00
2.71148	58.00
2.72815	58.00
2.74482	58.00
2.76148	58.00
2.77815	58.00
2.79482	58.00
2.81148	58.00
2.82815	58.00
2.84482	58.00
2.86148	58.00
2.87815	58.00
2.89482	58.00
2.91148	58.00
2.92815	58.00
2.94482	58.00
2.96148	58.00
2.97815	58.00
2.99482	58.00
3.01148	58.00
3.02815	58.00
3.04482	58.00
3.06148	58.00
3.07815	58.00
3.09482	58.00
3.11148	58.00
3.12815	58.00
3.14482	58.00
3.16148	58.00
3.17815	58.00
3.19482	58.00
3.21148	58.00
3.22815	58.00
3.24482	58.00
3.26148	58.00
3.27815	58.00
3.29482	58.00
3.31148	58.00
3.32815	58.00
3.34482	58.00
3.36148	58.00
3.37815	58.00
3.39482	58.00
3.41148	58.00
3.42815	58.00
3.44482	58.00
3.46148	58.00
3.47815	58.00
3.49482	58.00
3.51148	58.00
3.52815	58.00
3.54482	58.00
3.56148	58.00
3.57815	58.00
3.59482	58.00
3.61148	58.00
3.62815	58.00
3.64482	58.00
3.66148	58.00
3.67815	58.00
3.69482	58.00
3.71148	58.00
3.72815	58.00
3.74482	58.00
3.76148	58.00
3.77815	58.00
3.79482	58.00
3.81148	58.00
3.82815	58.00
3.84482	58.00
3.86148	58.00
3.87815	58.00
3.89482	58.00
3.91148	58.00
3.92815	58.00
3.94482	58.00
3.96148	58.00
3.97815	58.00
3.99482	58.00

[Status Trace (Carrier Gas Flow)]
Interval(msec)	1000
# of Points	240
Start Time(min)	0.011
End Time(min)	3.995
Intensity Units	
Intensity Multiplier	1
R.Time (min)	Intensity
0.01148	34.52
0.02815	34.53
0.04482	34.55
0.06148	34.53
0.07815	34.51
0.09482	34.52
0.11148	34.52
0.12815	34.52
0.14482	34.52
0.16148	34.52
0.17815	34.52
0.19482	34.52
0.21148	34.52
0.22815	34.51
0.24482	34.52
0.26148	34.53
0.27815	34.52
0.29482	34.51
0.31148	34.52
0.32815	34.52
0.34482	34.52
0.36148	34.52
0.37815	34.52
0.39482	34.52
0.41148	34.52
0.42815	34.52
0.44482	34.52
0.46148	34.52
0.47815	34.52
0.49482	34.52
0.51148	34.52
0.52815	34.52
0.54482	34.51
0.56148	34.52
0.57815	34.52
0.59482	34.52
0.61148	34.52
0.62815	34.52
0.64482	34.52
0.66148	34.52
0.67815	34.52
0.69482	34.52
0.71148	34.51
0.72815	34.51
0.74482	34.52
0.76148	34.52
0.77815	34.52
0.79482	34.51
0.81148	34.52
0.82815	34.52
0.84482	34.53
0.86148	34.52
0.87815	34.53
0.89482	34.52
0.91148	34.52
0.92815	34.52
0.94482	34.52
0.96148	34.52
0.97815	34.51
0.99482	34.52
1.01148	34.51
1.02815	34.51
1.04482	34.51
1.06148	34.52
1.07815	34.52
1.09482	34.51
1.11148	34.52
1.12815	34.52
1.14482	34.52
1.16148	34.51
1.17815	34.51
1.19482	34.52
1.21148	34.52
1.22815	34.52
1.24482	34.52
1.26148	34.52
1.27815	34.52
1.29482	34.52
1.31148	34.52
1.32815	34.53
1.34482	34.52
1.36148	34.52
1.37815	34.52
1.39482	34.52
1.41148	34.52
1.42815	34.52
1.44482	34.52
1.46148	34.52
1.47815	34.51
1.49482	34.52
1.51148	34.52
1.52815	34.52
1.54482	34.52
1.56148	34.52
1.57815	34.52
1.59482	34.52
1.61148	34.52
1.62815	34.52
1.64482	34.52
1.66148	34.52
1.67815	34.52
1.69482	34.52
1.71148	34.52
1.72815	34.51
1.74482	34.52
1.76148	34.52
1.77815	34.52
1.79482	34.51
1.81148	34.52
1.82815	34.52
1.84482	34.52
1.86148	34.52
1.87815	34.52
1.89482	34.52
1.91148	34.52
1.92815	34.52
1.94482	34.52
1.96148	34.52
1.97815	34.52
1.99482	34.52
2.01148	34.53
2.02815	34.52
2.04482	34.52
2.06148	34.52
2.07815	34.52
2.09482	34.51
2.11148	34.52
2.12815	34.52
2.14482	34.52
2.16148	34.51
2.17815	34.52
2.19482	34.52
2.21148	34.52
2.22815	34.52
2.24482	34.52
2.26148	34.52
2.27815	34.52
2.29482	34.52
2.31148	34.52
2.32815	34.52
2.34482	34.52
2.36148	34.52
2.37815	34.52
2.39482	34.52
2.41148	34.52
2.42815	34.52
2.44482	34.52
2.46148	34.52
2.47815	34.51
2.49482	34.52
2.51148	34.52
2.52815	34.52
2.54482	34.52
2.56148	34.52
2.57815	34.52
2.59482	34.52
2.61148	34.52
2.62815	34.53
2.64482	34.52
2.66148	34.51
2.67815	34.53
2.69482	34.52
2.71148	34.51
2.72815	34.52
2.74482	34.52
2.76148	34.52
2.77815	34.52
2.79482	34.53
2.81148	34.52
2.82815	34.52
2.84482	34.52
2.86148	34.52
2.87815	34.52
2.89482	34.51
2.91148	34.52
2.92815	34.52
2.94482	34.52
2.96148	34.52
2.97815	34.52
2.99482	34.52
3.01148	34.51
3.02815	34.52
3.04482	34.52
3.06148	34.51
3.07815	34.51
3.09482	34.52
3.11148	34.52
3.12815	34.51
3.14482	34.52
3.16148	34.52
3.17815	34.52
3.19482	34.52
3.21148	34.52
3.22815	34.52
3.24482	34.51
3.26148	34.51
3.27815	34.53
3.29482	34.52
3.31148	34.52
3.32815	34.52
3.34482	34.52
3.36148	34.52
3.37815	34.51
3.39482	34.52
3.41148	34.52
3.42815	34.51
3.44482	34.51
3.46148	34.52
3.47815	34.52
3.49482	34.52
3.51148	34.51
3.52815	34.52
3.54482	34.52
3.56148	34.51
3.57815	34.51
3.59482	34.51
3.61148	34.52
3.62815	34.52
3.64482	34.52
3.66148	34.52
3.67815	34.52
3.69482	34.52
3.71148	34.51
3.72815	34.52
3.74482	34.52
3.76148	34.52
3.77815	34.53
3.79482	34.52
3.81148	34.51
3.82815	34.51
3.84482	34.53
3.86148	34.52
3.87815	34.52
3.89482	34.52
3.91148	34.52
3.92815	34.53
3.94482	34.52
3.96148	34.52
3.97815	34.52
3.99482	34.52

[Status Trace (Column Flow)]
Interval(msec)	1000
# of Points	240
Start Time(min)	0.011
End Time(min)	3.995
Intensity Units	
Intensity Multiplier	1
R.Time (min)	Intensity
0.01148	5.51
0.02815	5.17
0.04482	5.47
0.06148	5.72
0.07815	5.61
0.09482	5.51
0.11148	5.51
0.12815	5.52
0.14482	5.51
0.16148	5.51
0.17815	5.51
0.19482	5.51
0.21148	5.51
0.22815	5.51
0.24482	5.51
0.26148	5.51
0.27815	5.51
0.29482	5.51
0.31148	5.51
0.32815	5.51
0.34482	5.51
0.36148	5.51
0.37815	5.51
0.39482	5.51
0.41148	5.52
0.42815	5.52
0.44482	5.52
0.46148	5.52
0.47815	5.52
0.49482	5.52
0.51148	5.52
0.52815	5.52
0.54482	5.52
0.56148	5.52
0.57815	5.52
0.59482	5.52
0.61148	5.52
0.62815	5.52
0.64482	5.52
0.66148	5.52
0.67815	5.52
0.69482	5.52
0.71148	5.52
0.72815	5.52
0.74482	5.52
0.76148	5.52
0.77815	5.52
0.79482	5.52
0.81148	5.52
0.82815	5.52
0.84482	5.52
0.86148	5.52
0.87815	5.52
0.89482	5.52
0.91148	5.52
0.92815	5.52
0.94482	5.52
0.96148	5.52
0.97815	5.52
0.99482	5.52
1.01148	5.52
1.02815	5.52
1.04482	5.52
1.06148	5.52
1.07815	5.52
1.09482	5.52
1.11148	5.52
1.12815	5.52
1.14482	5.52
1.16148	5.52
1.17815	5.52
1.19482	5.52
1.21148	5.52
1.22815	5.52
1.24482	5.52
1.26148	5.52
1.27815	5.52
1.29482	5.52
1.31148	5.52
1.32815	5.51
1.34482	5.51
1.36148	5.51
1.37815	5.52
1.39482	5.52
1.41148	5.52
1.42815	5.52
1.44482	5.52
1.46148	5.52
1.47815	5.52
1.49482	5.52
1.51148	5.52
1.52815	5.52
1.54482	5.52
1.56148	5.52
1.57815	5.52
1.59482	5.52
1.61148	5.51
1.62815	5.51
1.64482	5.50
1.66148	5.50
1.67815	5.48
1.69482	5.47
1.71148	5.46
1.72815	5.45
1.74482	5.44
1.76148	5.43
1.77815	5.42
1.79482	5.41
1.81148	5.40
1.82815	5.39
1.84482	5.38
1.86148	5.37
1.87815	5.36
1.89482	5.35
1.91148	5.34
1.92815	5.33
1.94482	5.32
1.96148	5.31
1.97815	5.30
1.99482	5.29
2.01148	5.28
2.02815	5.27
2.04482	5.26
2.06148	5.25
2.07815	5.25
2.09482	5.24
2.11148	5.23
2.12815	5.22
2.14482	5.21
2.16148	5.20
2.17815	5.19
2.19482	5.18
2.21148	5.17
2.22815	5.16
2.24482	5.15
2.26148	5.14
2.27815	5.13
2.29482	5.12
2.31148	5.11
2.32815	5.10
2.34482	5.09
2.36148	5.09
2.37815	5.08
2.39482	5.08
2.41148	5.08
2.42815	5.08
2.44482	5.08
2.46148	5.08
2.47815	5.08
2.49482	5.08
2.51148	5.08
2.52815	5.08
2.54482	5.08
2.56148	5.08
2.57815	5.08
2.59482	5.08
2.61148	5.08
2.62815	5.08
2.64482	5.08
2.66148	5.08
2.67815	5.08
2.69482	5.08
2.71148	5.08
2.72815	5.08
2.74482	5.08
2.76148	5.08
2.77815	5.08
2.79482	5.08
2.81148	5.08
2.82815	5.08
2.84482	5.08
2.86148	5.08
2.87815	5.08
2.89482	5.08
2.91148	5.08
2.92815	5.08
2.94482	5.07
2.96148	5.07
2.97815	5.07
2.99482	5.07
3.01148	5.07
3.02815	5.07
3.04482	5.07
3.06148	5.07
3.07815	5.07
3.09482	5.07
3.11148	5.07
3.12815	5.07
3.14482	5.07
3.16148	5.07
3.17815	5.07
3.19482	5.07
3.21148	5.07
3.22815	5.07
3.24482	5.07
3.26148	5.07
3.27815	5.07
3.29482	5.07
3.31148	5.07
3.32815	5.07
3.34482	5.07
3.36148	5.07
3.37815	5.07
3.39482	5.07
3.41148	5.07
3.42815	5.07
3.44482	5.07
3.46148	5.07
3.47815	5.07
3.49482	5.07
3.51148	5.07
3.52815	5.07
3.54482	5.07
3.56148	5.07
3.57815	5.07
3.59482	5.07
3.61148	5.07
3.62815	5.07
3.64482	5.07
3.66148	5.07
3.67815	5.07
3.69482	5.07
3.71148	5.07
3.72815	5.07
3.74482	5.07
3.76148	5.07
3.77815	5.07
3.79482	5.07
3.81148	5.07
3.82815	5.07
3.84482	5.07
3.86148	5.07
3.87815	5.07
3.89482	5.07
3.91148	5.07
3.92815	5.07
3.94482	5.07
3.96148	5.07
3.97815	5.07
3.99482	5.07

[Status Trace (Linear Velocity)]
Interval(msec)	1000
# of Points	240
Start Time(min)	0.011
End Time(min)	3.995
Intensity Units	
Intensity Multiplier	1
R.Time (min)	Intensity
0.01148	39.01
0.02815	37.03
0.04482	38.77
0.06148	40.14
0.07815	39.53
0.09482	39.01
0.11148	39.01
0.12815	39.02
0.14482	39.02
0.16148	39.01
0.17815	39.01
0.19482	39.01
0.21148	39.01
0.22815	39.01
0.24482	39.01
0.26148	39.01
0.27815	39.01
0.29482	39.01
0.31148	39.01
0.32815	39.01
0.34482	39.01
0.36148	39.01
0.37815	39.01
0.39482	39.01
0.41148	39.01
0.42815	39.02
0.44482	39.02
0.46148	39.02
0.47815	39.02
0.49482	39.01
0.51148	39.01
0.52815	39.01
0.54482	39.01
0.56148	39.01
0.57815	39.01
0.59482	39.02
0.61148	39.02
0.62815	39.02
0.64482	39.02
0.66148	39.02
0.67815	39.02
0.69482	39.02
0.71148	39.02
0.72815	39.02
0.74482	39.02
0.76148	39.02
0.77815	39.02
0.79482	39.02
0.81148	39.02
0.82815	39.02
0.84482	39.02
0.86148	39.02
0.87815	39.02
0.89482	39.02
0.91148	39.02
0.92815	39.01
0.94482	39.02
0.96148	39.02
0.97815	39.02
0.99482	39.02
1.01148	39.02
1.02815	39.02
1.04482	39.02
1.06148	39.02
1.07815	39.01
1.09482	39.02
1.11148	39.02
1.12815	39.02
1.14482	39.02
1.16148	39.02
1.17815	39.02
1.19482	39.02
1.21148	39.02
1.22815	39.02
1.24482	39.02
1.26148	39.01
1.27815	39.01
1.29482	39.01
1.31148	39.01
1.32815	39.01
1.34482	39.01
1.36148	39.01
1.37815	39.01
1.39482	39.01
1.41148	39.01
1.42815	39.02
1.44482	39.02
1.46148	39.02
1.47815	39.02
1.49482	39.02
1.51148	39.02
1.52815	39.02
1.54482	39.02
1.56148	39.02
1.57815	39.02
1.59482	39.02
1.61148	39.01
1.62815	39.00
1.64482	38.98
1.66148	38.95
1.67815	38.92
1.69482	38.88
1.71148	38.85
1.72815	38.81
1.74482	38.79
1.76148	38.76
1.77815	38.73
1.79482	38.69
1.81148	38.66
1.82815	38.63
1.84482	38.60
1.86148	38.57
1.87815	38.54
1.89482	38.51
1.91148	38.48
1.92815	38.45
1.94482	38.42
1.96148	38.39
1.97815	38.35
1.99482	38.33
2.01148	38.30
2.02815	38.27
2.04482	38.24
2.06148	38.21
2.07815	38.18
2.09482	38.15
2.11148	38.12
2.12815	38.09
2.14482	38.06
2.16148	38.03
2.17815	38.00
2.19482	37.97
2.21148	37.94
2.22815	37.91
2.24482	37.88
2.26148	37.85
2.27815	37.82
2.29482	37.79
2.31148	37.76
2.32815	37.73
2.34482	37.70
2.36148	37.68
2.37815	37.66
2.39482	37.66
2.41148	37.66
2.42815	37.66
2.44482	37.66
2.46148	37.66
2.47815	37.66
2.49482	37.66
2.51148	37.65
2.52815	37.65
2.54482	37.65
2.56148	37.65
2.57815	37.65
2.59482	37.65
2.61148	37.65
2.62815	37.65
2.64482	37.65
2.66148	37.65
2.67815	37.64
2.69482	37.64
2.71148	37.64
2.72815	37.64
2.74482	37.64
2.76148	37.65
2.77815	37.64
2.79482	37.64
2.81148	37.64
2.82815	37.64
2.84482	37.64
2.86148	37.64
2.87815	37.64
2.89482	37.64
2.91148	37.64
2.92815	37.64
2.94482	37.64
2.96148	37.63
2.97815	37.63
2.99482	37.63
3.01148	37.63
3.02815	37.63
3.04482	37.63
3.06148	37.63
3.07815	37.63
3.09482	37.63
3.11148	37.63
3.12815	37.63
3.14482	37.63
3.16148	37.63
3.17815	37.63
3.19482	37.63
3.21148	37.63
3.22815	37.63
3.24482	37.63
3.26148	37.63
3.27815	37.63
3.29482	37.63
3.31148	37.63
3.32815	37.63
3.34482	37.62
3.36148	37.63
3.37815	37.63
3.39482	37.62
3.41148	37.62
3.42815	37.62
3.44482	37.62
3.46148	37.62
3.47815	37.62
3.49482	37.62
3.51148	37.62
3.52815	37.63
3.54482	37.63
3.56148	37.63
3.57815	37.63
3.59482	37.63
3.61148	37.63
3.62815	37.63
3.64482	37.63
3.66148	37.63
3.67815	37.63
3.69482	37.63
3.71148	37.63
3.72815	37.63
3.74482	37.63
3.76148	37.63
3.77815	37.63
3.79482	37.63
3.81148	37.63
3.82815	37.63
3.84482	37.63
3.86148	37.63
3.87815	37.63
3.89482	37.63
3.91148	37.63
3.92815	37.63
3.94482	37.63
3.96148	37.63
3.97815	37.63
3.99482	37.63

