[Header]
Application Name	LabSolutions
Version	5.110
Data File Name	C:\Users\User\Desktop\Junior\UIC Prairie Sampling\3.23.23\032323_074.gcd
Output Date	5/24/2023
Output Time	10:27:40 AM

[File Information]
Type	Data File
Generated	5/23/2023 11:52:03 PM
Generated by	System Administrator
Modified	5/23/2023 11:59:00 PM
Modified by	System Administrator

[Sample Information]
Operator Name	System Administrator
Acquired	5/23/2023 11:54:59 PM
Sample Type	0:Unknown
Level	0
Sample Name	074
Sample ID	074
ISTD Amount1	1
ISTD Amount2	1
ISTD Amount3	1
ISTD Amount4	1
ISTD Amount5	1
ISTD Amount6	1
ISTD Amount7	1
ISTD Amount8	1
ISTD Amount9	1
ISTD Amount10	1
ISTD Amount11	1
ISTD Amount12	1
ISTD Amount13	1
ISTD Amount14	1
ISTD Amount15	1
ISTD Amount16	1
ISTD Amount17	1
ISTD Amount18	1
ISTD Amount19	1
ISTD Amount20	1
ISTD Amount21	1
ISTD Amount22	1
ISTD Amount23	1
ISTD Amount24	1
ISTD Amount25	1
ISTD Amount26	1
ISTD Amount27	1
ISTD Amount28	1
ISTD Amount29	1
ISTD Amount30	1
ISTD Amount31	1
ISTD Amount32	1
Sample Amount	1
Dilution Factor	1
Vial#	73
Injection Volume	1
Injection Count	1
Bar Code	

[Original Files]
Data File	C:\Users\User\Desktop\GC Analyses\Jack\Nachusa Grasslands Sampling\20220924\t2\032323_074.gcd
Method File	C:\LabSolutions\Data\GHG_4min_2022\ghg3_togas_w_acet_4 min_new_int.gcm
Batch File	C:\LabSolutions\Data\AutoSamplerTesting\032323.gcb
Report Format File	c:\LabSolutions\System\DEFAULT.lsr

[File Description]


[Configuration]
Instrument Name	C0B7VH3-Instrument1
Instrument #	1
Line #	1
# of Detectors	3
Detector ID	DET#1	DET#2	DET#3
Detector Name	FID	PTCD	ECD
# of Channels	1	1	1

[Peak Table(Ch1)]
# of Peaks	3
Peak#	R.Time	I.Time	F.Time	Area	Height	A/H	Conc.	Mark	ID#	Name	k'	Plate #	Plate Ht.	Tailing	Resolution	Sep.Factor	Area Ratio	Height Ratio	Conc. %	Norm Conc.
1	1.472	1.435	1.531	8171	3986	2.050	0.000	   	1	CO	0.000	9461	15.854	1.286	0.000	0.000	0	0	0.000	0.000
2	1.564	1.531	1.619	4643	2304	2.016	22.637	 V 	2	CH4	0.062	10921	13.734	1.261	1.523	0.000	0	0	8.016	8.016
3	1.993	1.945	2.422	1347861	647013	2.083	259.758	   	3	CO2	0.354	17233	8.704	1.259	7.116	5.680	0	0	91.984	91.984

[Peak Table(Ch2)]
# of Peaks	0

[Peak Table(Ch3)]
# of Peaks	5
Peak#	R.Time	I.Time	F.Time	Area	Height	A/H	Conc.	Mark	ID#	Name	k'	Plate #	Plate Ht.	Tailing	Resolution	Sep.Factor	Area Ratio	Height Ratio	Conc. %	Norm Conc.
1	2.458	2.337	2.506	839	301	2.784	0.000	   			0.000	18635	8.049	0.000	0.000	0.000	0	0	0.000	0.000
2	2.521	2.506	2.565	174	87	1.995	0.000	 V 			0.025	13354	11.232	0.000	0.783	0.000	0	0	0.000	0.000
3	2.620	2.565	2.664	232	80	2.887	0.000	 V 			0.066	15372	9.758	0.000	1.153	2.588	0	0	0.000	0.000
4	2.891	2.755	3.005	16518	4534	3.643	0.244	   	1	N2O	0.176	13929	10.769	1.485	2.974	2.682	0	0	100.000	100.000
5	3.236	3.005	3.995	12845	403	31.904	0.000	 V 			0.316	297	505.733	0.000	0.811	1.797	0	0	0.000	0.000

[Compound Results(Ch1)]
# of IDs	6
ID#	Name	R.Time	Area	Height	Conc.	Curve	3rd	2nd	1st	Constant	Area Ratio	Height Ratio	Conc. %	Norm Conc.
1	CO	1.472	8171	3986	0.000	Linear	0.000000e+00	0.000000e+00	0.000000e+00	0.000000e+00	0	0	0.000	0.000
2	CH4	1.564	4643	2304	22.637	Linear	0.000000e+00	0.000000e+00	2.051179e+002	0.000000e+00	0	0	8.016	8.016
3	CO2	1.993	1347861	647013	259.758	Linear	0.000000e+00	0.000000e+00	5.188919e+003	0.000000e+00	0	0	91.984	91.984
4	Ethylene	0.000	0	0	0.000	Linear	0.000000e+00	0.000000e+00	0.000000e+00	0.000000e+00	0	0	0.000	0.000
5	Acetylene	0.000	0	0	0.000	Linear	0.000000e+00	0.000000e+00	0.000000e+00	0.000000e+00	0	0	0.000	0.000
6	Ethane	0.000	0	0	0.000	Linear	0.000000e+00	0.000000e+00	0.000000e+00	0.000000e+00	0	0	0.000	0.000

[Compound Results(Ch2)]
# of IDs	5
ID#	Name	R.Time	Area	Height	Conc.	Curve	3rd	2nd	1st	Constant	Area Ratio	Height Ratio	Conc. %	Norm Conc.
1	Hydrogen	0.000	0	0	0.000	Linear	0.000000e+00	0.000000e+00	0.000000e+00	0.000000e+00	0	0	0.000	0.000
2	Oxygen	0.000	0	0	0.000	Linear	0.000000e+00	0.000000e+00	0.000000e+00	0.000000e+00	0	0	0.000	0.000
3	Nitrogen	0.000	0	0	0.000	Linear	0.000000e+00	0.000000e+00	0.000000e+00	0.000000e+00	0	0	0.000	0.000
4	Methane	0.000	0	0	0.000	Linear	0.000000e+00	0.000000e+00	0.000000e+00	0.000000e+00	0	0	0.000	0.000
5	Carbon Monoxide	0.000	0	0	0.000	Linear	0.000000e+00	0.000000e+00	0.000000e+00	0.000000e+00	0	0	0.000	0.000

[Compound Results(Ch3)]
# of IDs	2
ID#	Name	R.Time	Area	Height	Conc.	Curve	3rd	2nd	1st	Constant	Area Ratio	Height Ratio	Conc. %	Norm Conc.
1	N2O	2.891	16518	4534	0.244	Linear	0.000000e+00	0.000000e+00	6.759880e+004	0.000000e+00	0	0	100.000	100.000
2	SF6	0.000	0	0	0.000	Linear	0.000000e+00	0.000000e+00	0.000000e+00	0.000000e+00	0	0	0.000	0.000

[Group Results(Ch1)]
# of Groups	0

[Group Results(Ch2)]
# of Groups	0

[Group Results(Ch3)]
# of Groups	0

[Chromatogram (Ch1)]
Interval(msec)	220
# of Points	1091
Start Time(min)	0.002
End Time(min)	3.998
R.Time (min)	Intensity
0.00167	-21
0.00533	-28
0.00900	-33
0.01267	-32
0.01633	-28
0.02000	-24
0.02367	-20
0.02733	-15
0.03100	-13
0.03467	-15
0.03833	-18
0.04200	-18
0.04567	-16
0.04933	-13
0.05300	-11
0.05667	-12
0.06033	-13
0.06400	-12
0.06767	-11
0.07133	-14
0.07500	-21
0.07867	-25
0.08233	-26
0.08600	-26
0.08967	-27
0.09333	-28
0.09700	-30
0.10067	-30
0.10433	-25
0.10800	-19
0.11167	-14
0.11533	-7
0.11900	-4
0.12267	-6
0.12633	-12
0.13000	-14
0.13367	-11
0.13733	-7
0.14100	-8
0.14467	-11
0.14833	-12
0.15200	-8
0.15567	-3
0.15933	3
0.16300	6
0.16667	2
0.17033	-4
0.17400	-8
0.17767	-12
0.18133	-13
0.18500	-13
0.18867	-12
0.19233	-4
0.19600	5
0.19967	10
0.20333	11
0.20700	7
0.21067	1
0.21433	-0
0.21800	3
0.22167	7
0.22533	5
0.22900	-5
0.23267	-17
0.23633	-25
0.24000	-29
0.24367	-27
0.24733	-16
0.25100	0
0.25467	10
0.25833	11
0.26200	5
0.26567	-5
0.26933	-10
0.27300	-10
0.27667	-7
0.28033	-5
0.28400	-3
0.28767	-3
0.29133	-2
0.29500	2
0.29867	6
0.30233	10
0.30600	7
0.30967	1
0.31333	-7
0.31700	-12
0.32067	-12
0.32433	-13
0.32800	-17
0.33167	-24
0.33533	-28
0.33900	-26
0.34267	-21
0.34633	-13
0.35000	-7
0.35367	-5
0.35733	-6
0.36100	-8
0.36467	-12
0.36833	-16
0.37200	-20
0.37567	-21
0.37933	-18
0.38300	-15
0.38667	-14
0.39033	-10
0.39400	-3
0.39767	4
0.40133	8
0.40500	8
0.40867	6
0.41233	2
0.41600	-1
0.41967	-4
0.42333	-10
0.42700	-16
0.43067	-17
0.43433	-15
0.43800	-10
0.44167	-8
0.44533	-11
0.44900	-13
0.45267	-7
0.45633	-0
0.46000	2
0.46367	-7
0.46733	-21
0.47100	-33
0.47467	-41
0.47833	-47
0.48200	-47
0.48567	-42
0.48933	-32
0.49300	-21
0.49667	-14
0.50033	-8
0.50400	-4
0.50767	-10
0.51133	-20
0.51500	-28
0.51867	-32
0.52233	-35
0.52600	-39
0.52967	-39
0.53333	-37
0.53700	-32
0.54067	-27
0.54433	-25
0.54800	-26
0.55167	-27
0.55533	-25
0.55900	-20
0.56267	-17
0.56633	-19
0.57000	-22
0.57367	-24
0.57733	-24
0.58100	-25
0.58467	-29
0.58833	-31
0.59200	-30
0.59567	-25
0.59933	-18
0.60300	-13
0.60667	-6
0.61033	2
0.61400	9
0.61767	13
0.62133	11
0.62500	4
0.62867	-4
0.63233	-9
0.63600	-9
0.63967	-9
0.64333	-13
0.64700	-17
0.65067	-20
0.65433	-25
0.65800	-27
0.66167	-24
0.66533	-16
0.66900	-5
0.67267	-0
0.67633	-0
0.68000	-3
0.68367	-11
0.68733	-22
0.69100	-31
0.69467	-36
0.69833	-37
0.70200	-36
0.70567	-36
0.70933	-37
0.71300	-38
0.71667	-37
0.72033	-34
0.72400	-30
0.72767	-29
0.73133	-31
0.73500	-33
0.73867	-32
0.74233	-31
0.74600	-30
0.74967	-29
0.75333	-29
0.75700	-30
0.76067	-31
0.76433	-28
0.76800	-24
0.77167	-21
0.77533	-16
0.77900	-9
0.78267	-5
0.78633	-3
0.79000	-3
0.79367	-7
0.79733	-14
0.80100	-21
0.80467	-27
0.80833	-37
0.81200	-48
0.81567	-53
0.81933	-54
0.82300	-54
0.82667	-52
0.83033	-48
0.83400	-46
0.83767	-45
0.84133	-42
0.84500	-40
0.84867	-39
0.85233	-41
0.85600	-45
0.85967	-50
0.86333	-55
0.86700	-58
0.87067	-55
0.87433	-51
0.87800	-47
0.88167	-41
0.88533	-34
0.88900	-29
0.89267	-26
0.89633	-24
0.90000	-25
0.90367	-29
0.90733	-30
0.91100	-27
0.91467	-26
0.91833	-28
0.92200	-32
0.92567	-37
0.92933	-40
0.93300	-39
0.93667	-38
0.94033	-40
0.94400	-44
0.94767	-49
0.95133	-53
0.95500	-54
0.95867	-51
0.96233	-43
0.96600	-35
0.96967	-33
0.97333	-33
0.97700	-34
0.98067	-35
0.98433	-36
0.98800	-33
0.99167	-29
0.99533	-26
0.99900	-28
1.00267	-32
1.00633	-37
1.01000	-44
1.01367	-46
1.01733	-46
1.02100	-46
1.02467	-47
1.02833	-47
1.03200	-47
1.03567	-47
1.03933	-45
1.04300	-42
1.04667	-40
1.05033	-41
1.05400	-44
1.05767	-47
1.06133	-48
1.06500	-48
1.06867	-45
1.07233	-42
1.07600	-39
1.07967	-38
1.08333	-38
1.08700	-38
1.09067	-39
1.09433	-40
1.09800	-44
1.10167	-48
1.10533	-48
1.10900	-46
1.11267	-46
1.11633	-45
1.12000	-45
1.12367	-45
1.12733	-46
1.13100	-47
1.13467	-50
1.13833	-53
1.14200	-54
1.14567	-52
1.14933	-50
1.15300	-48
1.15667	-48
1.16033	-53
1.16400	-56
1.16767	-57
1.17133	-56
1.17500	-55
1.17867	-53
1.18233	-52
1.18600	-52
1.18967	-50
1.19333	-44
1.19700	-39
1.20067	-38
1.20433	-39
1.20800	-41
1.21167	-43
1.21533	-45
1.21900	-47
1.22267	-52
1.22633	-56
1.23000	-57
1.23367	-57
1.23733	-61
1.24100	-68
1.24467	-73
1.24833	-69
1.25200	-59
1.25567	-45
1.25933	-31
1.26300	-23
1.26667	-25
1.27033	-38
1.27400	-54
1.27767	-65
1.28133	-68
1.28500	-64
1.28867	-59
1.29233	-59
1.29600	-63
1.29967	-65
1.30333	-66
1.30700	-66
1.31067	-66
1.31433	-62
1.31800	-56
1.32167	-53
1.32533	-50
1.32900	-49
1.33267	-52
1.33633	-56
1.34000	-59
1.34367	-63
1.34733	-68
1.35100	-75
1.35467	-78
1.35833	-75
1.36200	-64
1.36567	-52
1.36933	-42
1.37300	-39
1.37667	-39
1.38033	-41
1.38400	-45
1.38767	-51
1.39133	-58
1.39500	-65
1.39867	-72
1.40233	-74
1.40600	-75
1.40967	-72
1.41333	-65
1.41700	-59
1.42067	-55
1.42433	-50
1.42800	-50
1.43167	-55
1.43533	-53
1.43900	-29
1.44267	27
1.44633	152
1.45000	485
1.45367	1101
1.45733	1879
1.46100	2636
1.46467	3260
1.46833	3703
1.47200	3922
1.47567	3876
1.47933	3558
1.48300	3031
1.48667	2413
1.49033	1816
1.49400	1306
1.49767	905
1.50133	605
1.50500	392
1.50867	239
1.51233	130
1.51600	58
1.51967	12
1.52333	-14
1.52700	-31
1.53067	-41
1.53433	-30
1.53800	40
1.54167	234
1.54533	581
1.54900	1022
1.55267	1458
1.55633	1820
1.56000	2078
1.56367	2211
1.56733	2185
1.57100	1987
1.57467	1663
1.57833	1292
1.58200	942
1.58567	657
1.58933	442
1.59300	282
1.59667	161
1.60033	68
1.60400	0
1.60767	-47
1.61133	-78
1.61500	-99
1.61867	-110
1.62233	-113
1.62600	-116
1.62967	-120
1.63333	-118
1.63700	-112
1.64067	-101
1.64433	-89
1.64800	-81
1.65167	-81
1.65533	-83
1.65900	-84
1.66267	-80
1.66633	-73
1.67000	-70
1.67367	-72
1.67733	-78
1.68100	-88
1.68467	-97
1.68833	-102
1.69200	-98
1.69567	-89
1.69933	-77
1.70300	-70
1.70667	-74
1.71033	-81
1.71400	-85
1.71767	-90
1.72133	-97
1.72500	-102
1.72867	-101
1.73233	-96
1.73600	-95
1.73967	-101
1.74333	-111
1.74700	-117
1.75067	-116
1.75433	-110
1.75800	-103
1.76167	-98
1.76533	-94
1.76900	-93
1.77267	-93
1.77633	-94
1.78000	-94
1.78367	-93
1.78733	-89
1.79100	-87
1.79467	-87
1.79833	-88
1.80200	-87
1.80567	-86
1.80933	-87
1.81300	-89
1.81667	-92
1.82033	-97
1.82400	-100
1.82767	-100
1.83133	-97
1.83500	-93
1.83867	-89
1.84233	-87
1.84600	-84
1.84967	-80
1.85333	-77
1.85700	-75
1.86067	-74
1.86433	-70
1.86800	-65
1.87167	-58
1.87533	-50
1.87900	-46
1.88267	-50
1.88633	-62
1.89000	-74
1.89367	-82
1.89733	-87
1.90100	-88
1.90467	-86
1.90833	-80
1.91200	-75
1.91567	-73
1.91933	-74
1.92300	-72
1.92667	-71
1.93033	-75
1.93400	-81
1.93767	-87
1.94133	-87
1.94500	-79
1.94867	-53
1.95233	99
1.95600	955
1.95967	4719
1.96333	17101
1.96700	48241
1.97067	109249
1.97433	203942
1.97800	322241
1.98167	444183
1.98533	548804
1.98900	619770
1.99267	646962
1.99633	627587
2.00000	567530
2.00367	480475
2.00733	383385
2.01100	291074
2.01467	212658
2.01833	151270
2.02200	105928
2.02567	73766
2.02933	51556
2.03300	36459
2.03667	26270
2.04033	19389
2.04400	14707
2.04767	11482
2.05133	9226
2.05500	7617
2.05867	6440
2.06233	5551
2.06600	4859
2.06967	4304
2.07333	3855
2.07700	3486
2.08067	3180
2.08433	2923
2.08800	2703
2.09167	2514
2.09533	2349
2.09900	2202
2.10267	2062
2.10633	1929
2.11000	1810
2.11367	1704
2.11733	1614
2.12100	1532
2.12467	1456
2.12833	1382
2.13200	1313
2.13567	1254
2.13933	1203
2.14300	1160
2.14667	1122
2.15033	1084
2.15400	1047
2.15767	1012
2.16133	981
2.16500	949
2.16867	912
2.17233	875
2.17600	842
2.17967	809
2.18333	778
2.18700	753
2.19067	731
2.19433	706
2.19800	682
2.20167	659
2.20533	638
2.20900	618
2.21267	598
2.21633	579
2.22000	563
2.22367	549
2.22733	536
2.23100	527
2.23467	518
2.23833	509
2.24200	499
2.24567	492
2.24933	486
2.25300	475
2.25667	459
2.26033	442
2.26400	428
2.26767	419
2.27133	416
2.27500	413
2.27867	411
2.28233	404
2.28600	396
2.28967	388
2.29333	378
2.29700	366
2.30067	356
2.30433	350
2.30800	342
2.31167	332
2.31533	324
2.31900	318
2.32267	311
2.32633	305
2.33000	300
2.33367	295
2.33733	290
2.34100	284
2.34467	278
2.34833	275
2.35200	274
2.35567	273
2.35933	272
2.36300	275
2.36667	278
2.37033	283
2.37400	286
2.37767	280
2.38133	264
2.38500	244
2.38867	228
2.39233	218
2.39600	214
2.39967	211
2.40333	211
2.40700	211
2.41067	210
2.41433	207
2.41800	205
2.42167	206
2.42533	211
2.42900	215
2.43267	215
2.43633	213
2.44000	207
2.44367	199
2.44733	192
2.45100	191
2.45467	194
2.45833	199
2.46200	200
2.46567	197
2.46933	190
2.47300	185
2.47667	184
2.48033	187
2.48400	191
2.48767	191
2.49133	189
2.49500	185
2.49867	183
2.50233	181
2.50600	175
2.50967	170
2.51333	168
2.51700	169
2.52067	172
2.52433	180
2.52800	189
2.53167	191
2.53533	188
2.53900	184
2.54267	179
2.54633	176
2.55000	174
2.55367	170
2.55733	163
2.56100	156
2.56467	150
2.56833	148
2.57200	148
2.57567	150
2.57933	156
2.58300	160
2.58667	160
2.59033	161
2.59400	164
2.59767	161
2.60133	154
2.60500	148
2.60867	142
2.61233	139
2.61600	143
2.61967	155
2.62333	163
2.62700	163
2.63067	156
2.63433	150
2.63800	147
2.64167	142
2.64533	139
2.64900	139
2.65267	139
2.65633	138
2.66000	136
2.66367	131
2.66733	124
2.67100	118
2.67467	117
2.67833	120
2.68200	127
2.68567	135
2.68933	139
2.69300	139
2.69667	138
2.70033	137
2.70400	136
2.70767	133
2.71133	130
2.71500	128
2.71867	129
2.72233	135
2.72600	144
2.72967	151
2.73333	154
2.73700	152
2.74067	143
2.74433	130
2.74800	119
2.75167	114
2.75533	117
2.75900	122
2.76267	129
2.76633	134
2.77000	135
2.77367	133
2.77733	126
2.78100	119
2.78467	113
2.78833	113
2.79200	114
2.79567	115
2.79933	116
2.80300	119
2.80667	124
2.81033	128
2.81400	126
2.81767	123
2.82133	117
2.82500	112
2.82867	110
2.83233	116
2.83600	124
2.83967	135
2.84333	141
2.84700	142
2.85067	140
2.85433	136
2.85800	130
2.86167	123
2.86533	126
2.86900	132
2.87267	132
2.87633	130
2.88000	129
2.88367	128
2.88733	123
2.89100	113
2.89467	102
2.89833	93
2.90200	87
2.90567	84
2.90933	85
2.91300	87
2.91667	91
2.92033	97
2.92400	100
2.92767	104
2.93133	111
2.93500	122
2.93867	130
2.94233	134
2.94600	133
2.94967	130
2.95333	129
2.95700	131
2.96067	135
2.96433	138
2.96800	134
2.97167	130
2.97533	128
2.97900	127
2.98267	126
2.98633	126
2.99000	127
2.99367	128
2.99733	130
3.00100	131
3.00467	131
3.00833	131
3.01200	132
3.01567	136
3.01933	143
3.02300	151
3.02667	151
3.03033	140
3.03400	124
3.03767	110
3.04133	103
3.04500	102
3.04867	107
3.05233	116
3.05600	128
3.05967	138
3.06333	142
3.06700	138
3.07067	130
3.07433	123
3.07800	119
3.08167	116
3.08533	111
3.08900	105
3.09267	103
3.09633	105
3.10000	107
3.10367	109
3.10733	108
3.11100	107
3.11467	105
3.11833	103
3.12200	104
3.12567	105
3.12933	105
3.13300	108
3.13667	110
3.14033	107
3.14400	102
3.14767	99
3.15133	95
3.15500	95
3.15867	98
3.16233	103
3.16600	109
3.16967	112
3.17333	114
3.17700	113
3.18067	112
3.18433	112
3.18800	110
3.19167	109
3.19533	111
3.19900	115
3.20267	122
3.20633	128
3.21000	131
3.21367	130
3.21733	126
3.22100	124
3.22467	123
3.22833	119
3.23200	114
3.23567	108
3.23933	102
3.24300	101
3.24667	102
3.25033	101
3.25400	96
3.25767	92
3.26133	91
3.26500	94
3.26867	99
3.27233	105
3.27600	114
3.27967	119
3.28333	119
3.28700	117
3.29067	114
3.29433	111
3.29800	107
3.30167	105
3.30533	104
3.30900	102
3.31267	103
3.31633	105
3.32000	102
3.32367	96
3.32733	88
3.33100	81
3.33467	77
3.33833	76
3.34200	78
3.34567	83
3.34933	92
3.35300	101
3.35667	109
3.36033	109
3.36400	104
3.36767	97
3.37133	89
3.37500	82
3.37867	78
3.38233	79
3.38600	85
3.38967	95
3.39333	104
3.39700	115
3.40067	124
3.40433	124
3.40800	113
3.41167	96
3.41533	79
3.41900	67
3.42267	65
3.42633	69
3.43000	70
3.43367	70
3.43733	66
3.44100	62
3.44467	58
3.44833	62
3.45200	74
3.45567	83
3.45933	86
3.46300	81
3.46667	74
3.47033	71
3.47400	71
3.47767	74
3.48133	77
3.48500	82
3.48867	88
3.49233	89
3.49600	88
3.49967	86
3.50333	85
3.50700	85
3.51067	86
3.51433	88
3.51800	91
3.52167	92
3.52533	91
3.52900	89
3.53267	89
3.53633	90
3.54000	91
3.54367	91
3.54733	88
3.55100	82
3.55467	78
3.55833	76
3.56200	78
3.56567	88
3.56933	98
3.57300	102
3.57667	100
3.58033	96
3.58400	92
3.58767	88
3.59133	80
3.59500	70
3.59867	63
3.60233	62
3.60600	65
3.60967	66
3.61333	66
3.61700	66
3.62067	69
3.62433	75
3.62800	79
3.63167	79
3.63533	77
3.63900	74
3.64267	71
3.64633	68
3.65000	65
3.65367	63
3.65733	64
3.66100	68
3.66467	72
3.66833	73
3.67200	72
3.67567	73
3.67933	75
3.68300	76
3.68667	79
3.69033	83
3.69400	83
3.69767	81
3.70133	78
3.70500	76
3.70867	72
3.71233	67
3.71600	62
3.71967	56
3.72333	54
3.72700	57
3.73067	62
3.73433	70
3.73800	78
3.74167	82
3.74533	80
3.74900	74
3.75267	69
3.75633	68
3.76000	70
3.76367	69
3.76733	66
3.77100	63
3.77467	61
3.77833	59
3.78200	63
3.78567	68
3.78933	73
3.79300	73
3.79667	72
3.80033	70
3.80400	68
3.80767	64
3.81133	61
3.81500	55
3.81867	50
3.82233	49
3.82600	51
3.82967	49
3.83333	46
3.83700	45
3.84067	48
3.84433	52
3.84800	53
3.85167	51
3.85533	49
3.85900	50
3.86267	52
3.86633	56
3.87000	59
3.87367	61
3.87733	62
3.88100	61
3.88467	58
3.88833	55
3.89200	56
3.89567	57
3.89933	54
3.90300	50
3.90667	46
3.91033	43
3.91400	42
3.91767	44
3.92133	46
3.92500	46
3.92867	46
3.93233	50
3.93600	54
3.93967	58
3.94333	63
3.94700	69
3.95067	74
3.95433	80
3.95800	82
3.96167	79
3.96533	73
3.96900	67
3.97267	62
3.97633	54
3.98000	44
3.98367	35
3.98733	28
3.99100	26
3.99467	28
3.99833	31

[Chromatogram (Ch2)]
Interval(msec)	220
# of Points	1091
Start Time(min)	0.002
End Time(min)	3.998
R.Time (min)	Intensity
0.00167	0
0.00533	0
0.00900	0
0.01267	0
0.01633	0
0.02000	0
0.02367	0
0.02733	1
0.03100	1
0.03467	1
0.03833	1
0.04200	1
0.04567	1
0.04933	1
0.05300	1
0.05667	1
0.06033	1
0.06400	1
0.06767	1
0.07133	2
0.07500	2
0.07867	2
0.08233	2
0.08600	2
0.08967	3
0.09333	3
0.09700	3
0.10067	3
0.10433	3
0.10800	3
0.11167	3
0.11533	4
0.11900	4
0.12267	3
0.12633	3
0.13000	3
0.13367	3
0.13733	3
0.14100	3
0.14467	3
0.14833	2
0.15200	2
0.15567	2
0.15933	1
0.16300	1
0.16667	1
0.17033	1
0.17400	1
0.17767	1
0.18133	1
0.18500	1
0.18867	1
0.19233	2
0.19600	2
0.19967	2
0.20333	2
0.20700	2
0.21067	2
0.21433	2
0.21800	2
0.22167	1
0.22533	1
0.22900	0
0.23267	-0
0.23633	-1
0.24000	-1
0.24367	-1
0.24733	-2
0.25100	-2
0.25467	-2
0.25833	-2
0.26200	-2
0.26567	-2
0.26933	-2
0.27300	-1
0.27667	-1
0.28033	-1
0.28400	-0
0.28767	-0
0.29133	-0
0.29500	-0
0.29867	-0
0.30233	0
0.30600	0
0.30967	1
0.31333	1
0.31700	1
0.32067	1
0.32433	1
0.32800	1
0.33167	1
0.33533	1
0.33900	1
0.34267	1
0.34633	1
0.35000	1
0.35367	1
0.35733	1
0.36100	1
0.36467	1
0.36833	1
0.37200	1
0.37567	1
0.37933	1
0.38300	0
0.38667	0
0.39033	0
0.39400	0
0.39767	0
0.40133	0
0.40500	0
0.40867	0
0.41233	0
0.41600	0
0.41967	0
0.42333	0
0.42700	0
0.43067	0
0.43433	-0
0.43800	0
0.44167	0
0.44533	0
0.44900	0
0.45267	0
0.45633	0
0.46000	0
0.46367	1
0.46733	1
0.47100	1
0.47467	1
0.47833	1
0.48200	1
0.48567	1
0.48933	0
0.49300	0
0.49667	0
0.50033	0
0.50400	-0
0.50767	-0
0.51133	-0
0.51500	-0
0.51867	-0
0.52233	-0
0.52600	-0
0.52967	-0
0.53333	-0
0.53700	-0
0.54067	-0
0.54433	0
0.54800	0
0.55167	0
0.55533	0
0.55900	0
0.56267	-0
0.56633	-0
0.57000	-0
0.57367	-0
0.57733	-1
0.58100	-1
0.58467	-1
0.58833	-1
0.59200	-2
0.59567	-2
0.59933	-2
0.60300	-2
0.60667	-2
0.61033	-2
0.61400	-1
0.61767	-1
0.62133	-1
0.62500	-1
0.62867	-0
0.63233	0
0.63600	0
0.63967	0
0.64333	1
0.64700	1
0.65067	1
0.65433	1
0.65800	1
0.66167	1
0.66533	1
0.66900	1
0.67267	1
0.67633	1
0.68000	1
0.68367	1
0.68733	1
0.69100	1
0.69467	1
0.69833	1
0.70200	1
0.70567	1
0.70933	1
0.71300	1
0.71667	1
0.72033	1
0.72400	1
0.72767	1
0.73133	1
0.73500	0
0.73867	0
0.74233	0
0.74600	0
0.74967	0
0.75333	-0
0.75700	-0
0.76067	-1
0.76433	-1
0.76800	-1
0.77167	-1
0.77533	-1
0.77900	-1
0.78267	-1
0.78633	-0
0.79000	-0
0.79367	0
0.79733	0
0.80100	0
0.80467	0
0.80833	-0
0.81200	-0
0.81567	-0
0.81933	0
0.82300	0
0.82667	1
0.83033	0
0.83400	0
0.83767	0
0.84133	0
0.84500	0
0.84867	0
0.85233	0
0.85600	-0
0.85967	-0
0.86333	-0
0.86700	-1
0.87067	-1
0.87433	-1
0.87800	-1
0.88167	-1
0.88533	-1
0.88900	-1
0.89267	-1
0.89633	-1
0.90000	-1
0.90367	-0
0.90733	-0
0.91100	-0
0.91467	-0
0.91833	-0
0.92200	-0
0.92567	-0
0.92933	0
0.93300	0
0.93667	1
0.94033	1
0.94400	1
0.94767	1
0.95133	1
0.95500	1
0.95867	1
0.96233	1
0.96600	1
0.96967	1
0.97333	0
0.97700	0
0.98067	-0
0.98433	-0
0.98800	-0
0.99167	-1
0.99533	-1
0.99900	-1
1.00267	-1
1.00633	-1
1.01000	-0
1.01367	-0
1.01733	-0
1.02100	-0
1.02467	-0
1.02833	-0
1.03200	-0
1.03567	-0
1.03933	-0
1.04300	0
1.04667	0
1.05033	0
1.05400	1
1.05767	1
1.06133	1
1.06500	0
1.06867	0
1.07233	0
1.07600	-0
1.07967	-0
1.08333	-0
1.08700	-0
1.09067	-0
1.09433	-0
1.09800	-0
1.10167	-0
1.10533	-0
1.10900	-0
1.11267	-0
1.11633	-0
1.12000	-0
1.12367	-0
1.12733	-0
1.13100	-0
1.13467	-0
1.13833	-0
1.14200	-0
1.14567	-0
1.14933	-0
1.15300	-0
1.15667	0
1.16033	0
1.16400	0
1.16767	0
1.17133	-0
1.17500	-0
1.17867	-1
1.18233	-1
1.18600	-1
1.18967	-1
1.19333	-1
1.19700	-1
1.20067	-1
1.20433	-2
1.20800	-1
1.21167	-1
1.21533	-1
1.21900	-1
1.22267	-1
1.22633	-0
1.23000	-0
1.23367	-0
1.23733	-0
1.24100	-0
1.24467	-0
1.24833	-0
1.25200	-0
1.25567	-0
1.25933	-0
1.26300	-0
1.26667	-0
1.27033	-0
1.27400	-0
1.27767	-0
1.28133	-0
1.28500	-0
1.28867	-0
1.29233	-0
1.29600	-0
1.29967	-1
1.30333	-1
1.30700	-1
1.31067	-1
1.31433	-1
1.31800	-1
1.32167	-1
1.32533	-1
1.32900	-1
1.33267	-1
1.33633	-1
1.34000	-1
1.34367	-0
1.34733	-0
1.35100	-0
1.35467	-0
1.35833	-0
1.36200	-0
1.36567	-0
1.36933	-0
1.37300	-0
1.37667	-1
1.38033	-0
1.38400	-0
1.38767	-0
1.39133	-0
1.39500	0
1.39867	0
1.40233	-0
1.40600	-0
1.40967	-0
1.41333	-0
1.41700	-0
1.42067	-0
1.42433	-0
1.42800	-1
1.43167	-1
1.43533	-1
1.43900	-2
1.44267	-2
1.44633	-2
1.45000	-3
1.45367	-3
1.45733	-3
1.46100	-3
1.46467	-3
1.46833	-3
1.47200	-3
1.47567	-3
1.47933	-3
1.48300	-3
1.48667	-3
1.49033	-3
1.49400	-3
1.49767	-3
1.50133	-2
1.50500	-2
1.50867	-2
1.51233	-1
1.51600	-1
1.51967	-1
1.52333	-1
1.52700	-2
1.53067	-2
1.53433	-2
1.53800	-2
1.54167	-2
1.54533	-2
1.54900	-2
1.55267	-2
1.55633	-3
1.56000	-4
1.56367	-4
1.56733	-4
1.57100	-4
1.57467	-4
1.57833	-4
1.58200	-4
1.58567	-4
1.58933	-4
1.59300	-5
1.59667	-5
1.60033	-6
1.60400	-7
1.60767	-9
1.61133	-10
1.61500	-12
1.61867	-14
1.62233	-16
1.62600	-19
1.62967	-21
1.63333	-24
1.63700	-27
1.64067	-30
1.64433	-33
1.64800	-36
1.65167	-39
1.65533	-42
1.65900	-45
1.66267	-49
1.66633	-52
1.67000	-55
1.67367	-59
1.67733	-63
1.68100	-67
1.68467	-71
1.68833	-75
1.69200	-79
1.69567	-82
1.69933	-86
1.70300	-89
1.70667	-91
1.71033	-94
1.71400	-95
1.71767	-97
1.72133	-97
1.72500	-98
1.72867	-98
1.73233	-98
1.73600	-97
1.73967	-97
1.74333	-97
1.74700	-97
1.75067	-97
1.75433	-98
1.75800	-99
1.76167	-99
1.76533	-100
1.76900	-100
1.77267	-101
1.77633	-102
1.78000	-102
1.78367	-103
1.78733	-104
1.79100	-104
1.79467	-104
1.79833	-104
1.80200	-104
1.80567	-105
1.80933	-105
1.81300	-105
1.81667	-104
1.82033	-104
1.82400	-103
1.82767	-103
1.83133	-103
1.83500	-103
1.83867	-104
1.84233	-104
1.84600	-104
1.84967	-104
1.85333	-103
1.85700	-102
1.86067	-101
1.86433	-100
1.86800	-100
1.87167	-99
1.87533	-99
1.87900	-100
1.88267	-100
1.88633	-101
1.89000	-101
1.89367	-101
1.89733	-101
1.90100	-102
1.90467	-102
1.90833	-102
1.91200	-103
1.91567	-103
1.91933	-102
1.92300	-102
1.92667	-102
1.93033	-102
1.93400	-101
1.93767	-101
1.94133	-100
1.94500	-100
1.94867	-99
1.95233	-99
1.95600	-99
1.95967	-99
1.96333	-99
1.96700	-99
1.97067	-99
1.97433	-99
1.97800	-98
1.98167	-98
1.98533	-98
1.98900	-97
1.99267	-97
1.99633	-97
2.00000	-96
2.00367	-96
2.00733	-96
2.01100	-95
2.01467	-95
2.01833	-95
2.02200	-95
2.02567	-95
2.02933	-95
2.03300	-94
2.03667	-94
2.04033	-94
2.04400	-94
2.04767	-93
2.05133	-93
2.05500	-93
2.05867	-93
2.06233	-93
2.06600	-94
2.06967	-93
2.07333	-93
2.07700	-93
2.08067	-92
2.08433	-92
2.08800	-91
2.09167	-91
2.09533	-90
2.09900	-90
2.10267	-89
2.10633	-88
2.11000	-88
2.11367	-87
2.11733	-87
2.12100	-86
2.12467	-86
2.12833	-86
2.13200	-85
2.13567	-85
2.13933	-85
2.14300	-85
2.14667	-84
2.15033	-84
2.15400	-83
2.15767	-83
2.16133	-83
2.16500	-83
2.16867	-83
2.17233	-83
2.17600	-83
2.17967	-83
2.18333	-83
2.18700	-83
2.19067	-82
2.19433	-82
2.19800	-82
2.20167	-82
2.20533	-82
2.20900	-82
2.21267	-82
2.21633	-82
2.22000	-81
2.22367	-81
2.22733	-80
2.23100	-79
2.23467	-78
2.23833	-77
2.24200	-76
2.24567	-75
2.24933	-75
2.25300	-75
2.25667	-74
2.26033	-75
2.26400	-75
2.26767	-75
2.27133	-75
2.27500	-75
2.27867	-75
2.28233	-74
2.28600	-74
2.28967	-74
2.29333	-74
2.29700	-74
2.30067	-75
2.30433	-75
2.30800	-75
2.31167	-75
2.31533	-74
2.31900	-74
2.32267	-74
2.32633	-73
2.33000	-72
2.33367	-72
2.33733	-71
2.34100	-70
2.34467	-70
2.34833	-69
2.35200	-68
2.35567	-67
2.35933	-66
2.36300	-65
2.36667	-64
2.37033	-62
2.37400	-60
2.37767	-58
2.38133	-54
2.38500	-51
2.38867	-47
2.39233	-43
2.39600	-39
2.39967	-35
2.40333	-30
2.40700	-26
2.41067	-22
2.41433	-18
2.41800	-15
2.42167	-12
2.42533	-10
2.42900	-8
2.43267	-6
2.43633	-3
2.44000	-1
2.44367	1
2.44733	2
2.45100	4
2.45467	5
2.45833	6
2.46200	7
2.46567	9
2.46933	10
2.47300	10
2.47667	11
2.48033	12
2.48400	12
2.48767	12
2.49133	13
2.49500	14
2.49867	15
2.50233	15
2.50600	15
2.50967	15
2.51333	14
2.51700	14
2.52067	14
2.52433	13
2.52800	13
2.53167	12
2.53533	12
2.53900	11
2.54267	11
2.54633	11
2.55000	11
2.55367	12
2.55733	12
2.56100	14
2.56467	15
2.56833	16
2.57200	18
2.57567	18
2.57933	19
2.58300	19
2.58667	18
2.59033	18
2.59400	17
2.59767	17
2.60133	17
2.60500	17
2.60867	17
2.61233	17
2.61600	18
2.61967	19
2.62333	20
2.62700	21
2.63067	22
2.63433	22
2.63800	23
2.64167	23
2.64533	23
2.64900	23
2.65267	22
2.65633	22
2.66000	22
2.66367	22
2.66733	22
2.67100	22
2.67467	23
2.67833	23
2.68200	24
2.68567	25
2.68933	26
2.69300	27
2.69667	28
2.70033	28
2.70400	28
2.70767	29
2.71133	28
2.71500	28
2.71867	27
2.72233	27
2.72600	27
2.72967	26
2.73333	26
2.73700	26
2.74067	26
2.74433	26
2.74800	27
2.75167	27
2.75533	27
2.75900	28
2.76267	28
2.76633	29
2.77000	29
2.77367	30
2.77733	30
2.78100	30
2.78467	30
2.78833	30
2.79200	30
2.79567	30
2.79933	29
2.80300	29
2.80667	29
2.81033	29
2.81400	29
2.81767	29
2.82133	29
2.82500	29
2.82867	30
2.83233	30
2.83600	30
2.83967	30
2.84333	30
2.84700	30
2.85067	29
2.85433	29
2.85800	28
2.86167	27
2.86533	24
2.86900	19
2.87267	12
2.87633	1
2.88000	-14
2.88367	-34
2.88733	-58
2.89100	-89
2.89467	-124
2.89833	-164
2.90200	-209
2.90567	-258
2.90933	-311
2.91300	-367
2.91667	-426
2.92033	-486
2.92400	-548
2.92767	-610
2.93133	-671
2.93500	-731
2.93867	-789
2.94233	-843
2.94600	-895
2.94967	-948
2.95333	-1004
2.95700	-1057
2.96067	-1096
2.96433	-1114
2.96800	-1106
2.97167	-1073
2.97533	-1021
2.97900	-954
2.98267	-877
2.98633	-796
2.99000	-715
2.99367	-635
2.99733	-560
3.00100	-490
3.00467	-427
3.00833	-369
3.01200	-318
3.01567	-273
3.01933	-233
3.02300	-198
3.02667	-167
3.03033	-141
3.03400	-118
3.03767	-98
3.04133	-82
3.04500	-67
3.04867	-55
3.05233	-45
3.05600	-36
3.05967	-28
3.06333	-21
3.06700	-15
3.07067	-10
3.07433	-6
3.07800	-2
3.08167	1
3.08533	4
3.08900	6
3.09267	8
3.09633	10
3.10000	11
3.10367	12
3.10733	13
3.11100	14
3.11467	15
3.11833	15
3.12200	16
3.12567	16
3.12933	17
3.13300	17
3.13667	18
3.14033	18
3.14400	19
3.14767	19
3.15133	19
3.15500	19
3.15867	20
3.16233	20
3.16600	20
3.16967	21
3.17333	21
3.17700	21
3.18067	22
3.18433	22
3.18800	22
3.19167	22
3.19533	22
3.19900	22
3.20267	23
3.20633	23
3.21000	23
3.21367	23
3.21733	24
3.22100	24
3.22467	24
3.22833	25
3.23200	25
3.23567	25
3.23933	25
3.24300	25
3.24667	25
3.25033	25
3.25400	25
3.25767	25
3.26133	25
3.26500	26
3.26867	26
3.27233	26
3.27600	26
3.27967	26
3.28333	25
3.28700	25
3.29067	25
3.29433	26
3.29800	26
3.30167	26
3.30533	26
3.30900	27
3.31267	27
3.31633	27
3.32000	27
3.32367	27
3.32733	28
3.33100	28
3.33467	28
3.33833	28
3.34200	28
3.34567	28
3.34933	28
3.35300	28
3.35667	28
3.36033	28
3.36400	28
3.36767	28
3.37133	28
3.37500	28
3.37867	28
3.38233	28
3.38600	28
3.38967	28
3.39333	28
3.39700	29
3.40067	29
3.40433	29
3.40800	29
3.41167	29
3.41533	30
3.41900	30
3.42267	30
3.42633	30
3.43000	30
3.43367	30
3.43733	30
3.44100	30
3.44467	30
3.44833	30
3.45200	30
3.45567	30
3.45933	30
3.46300	30
3.46667	30
3.47033	30
3.47400	30
3.47767	30
3.48133	30
3.48500	31
3.48867	31
3.49233	31
3.49600	31
3.49967	31
3.50333	31
3.50700	31
3.51067	31
3.51433	31
3.51800	31
3.52167	31
3.52533	31
3.52900	31
3.53267	31
3.53633	31
3.54000	31
3.54367	31
3.54733	31
3.55100	31
3.55467	30
3.55833	30
3.56200	30
3.56567	30
3.56933	30
3.57300	30
3.57667	30
3.58033	30
3.58400	30
3.58767	30
3.59133	30
3.59500	30
3.59867	30
3.60233	30
3.60600	30
3.60967	29
3.61333	29
3.61700	29
3.62067	29
3.62433	29
3.62800	29
3.63167	29
3.63533	29
3.63900	29
3.64267	29
3.64633	30
3.65000	30
3.65367	30
3.65733	30
3.66100	29
3.66467	29
3.66833	29
3.67200	29
3.67567	29
3.67933	29
3.68300	29
3.68667	29
3.69033	29
3.69400	28
3.69767	28
3.70133	28
3.70500	29
3.70867	29
3.71233	29
3.71600	29
3.71967	29
3.72333	29
3.72700	29
3.73067	30
3.73433	30
3.73800	30
3.74167	30
3.74533	31
3.74900	31
3.75267	31
3.75633	31
3.76000	31
3.76367	31
3.76733	31
3.77100	31
3.77467	31
3.77833	31
3.78200	31
3.78567	31
3.78933	31
3.79300	31
3.79667	31
3.80033	31
3.80400	31
3.80767	31
3.81133	31
3.81500	32
3.81867	32
3.82233	32
3.82600	32
3.82967	32
3.83333	32
3.83700	32
3.84067	32
3.84433	32
3.84800	32
3.85167	32
3.85533	31
3.85900	31
3.86267	31
3.86633	31
3.87000	31
3.87367	30
3.87733	30
3.88100	30
3.88467	30
3.88833	30
3.89200	30
3.89567	30
3.89933	30
3.90300	30
3.90667	30
3.91033	30
3.91400	30
3.91767	30
3.92133	30
3.92500	30
3.92867	30
3.93233	30
3.93600	30
3.93967	30
3.94333	30
3.94700	30
3.95067	30
3.95433	30
3.95800	29
3.96167	29
3.96533	29
3.96900	29
3.97267	29
3.97633	28
3.98000	28
3.98367	28
3.98733	29
3.99100	29
3.99467	29
3.99833	29

[Chromatogram (Ch3)]
Interval(msec)	220
# of Points	1091
Start Time(min)	0.002
End Time(min)	3.998
R.Time (min)	Intensity
0.00167	0
0.00533	1
0.00900	1
0.01267	2
0.01633	2
0.02000	2
0.02367	2
0.02733	3
0.03100	2
0.03467	3
0.03833	5
0.04200	5
0.04567	5
0.04933	7
0.05300	8
0.05667	6
0.06033	4
0.06400	3
0.06767	2
0.07133	1
0.07500	1
0.07867	2
0.08233	3
0.08600	3
0.08967	1
0.09333	-0
0.09700	1
0.10067	2
0.10433	0
0.10800	1
0.11167	5
0.11533	5
0.11900	4
0.12267	4
0.12633	5
0.13000	6
0.13367	6
0.13733	8
0.14100	7
0.14467	7
0.14833	8
0.15200	8
0.15567	7
0.15933	7
0.16300	9
0.16667	10
0.17033	10
0.17400	10
0.17767	8
0.18133	5
0.18500	2
0.18867	2
0.19233	1
0.19600	4
0.19967	7
0.20333	8
0.20700	7
0.21067	7
0.21433	6
0.21800	6
0.22167	8
0.22533	10
0.22900	12
0.23267	12
0.23633	10
0.24000	9
0.24367	8
0.24733	8
0.25100	9
0.25467	11
0.25833	11
0.26200	11
0.26567	12
0.26933	10
0.27300	11
0.27667	12
0.28033	11
0.28400	10
0.28767	9
0.29133	10
0.29500	12
0.29867	12
0.30233	11
0.30600	9
0.30967	8
0.31333	8
0.31700	8
0.32067	8
0.32433	8
0.32800	9
0.33167	10
0.33533	10
0.33900	10
0.34267	10
0.34633	10
0.35000	11
0.35367	9
0.35733	8
0.36100	8
0.36467	9
0.36833	12
0.37200	14
0.37567	14
0.37933	14
0.38300	15
0.38667	15
0.39033	15
0.39400	14
0.39767	13
0.40133	12
0.40500	12
0.40867	12
0.41233	11
0.41600	11
0.41967	12
0.42333	13
0.42700	11
0.43067	9
0.43433	8
0.43800	8
0.44167	9
0.44533	10
0.44900	10
0.45267	11
0.45633	11
0.46000	11
0.46367	11
0.46733	12
0.47100	13
0.47467	11
0.47833	10
0.48200	10
0.48567	8
0.48933	10
0.49300	14
0.49667	17
0.50033	18
0.50400	16
0.50767	14
0.51133	13
0.51500	13
0.51867	15
0.52233	14
0.52600	11
0.52967	12
0.53333	12
0.53700	11
0.54067	11
0.54433	10
0.54800	10
0.55167	10
0.55533	13
0.55900	14
0.56267	14
0.56633	14
0.57000	13
0.57367	14
0.57733	15
0.58100	16
0.58467	17
0.58833	18
0.59200	17
0.59567	17
0.59933	18
0.60300	19
0.60667	18
0.61033	19
0.61400	19
0.61767	18
0.62133	16
0.62500	15
0.62867	18
0.63233	22
0.63600	24
0.63967	23
0.64333	22
0.64700	22
0.65067	23
0.65433	22
0.65800	22
0.66167	23
0.66533	23
0.66900	23
0.67267	22
0.67633	20
0.68000	16
0.68367	14
0.68733	14
0.69100	14
0.69467	13
0.69833	14
0.70200	15
0.70567	17
0.70933	17
0.71300	18
0.71667	18
0.72033	18
0.72400	19
0.72767	20
0.73133	21
0.73500	21
0.73867	21
0.74233	21
0.74600	21
0.74967	21
0.75333	22
0.75700	22
0.76067	20
0.76433	18
0.76800	19
0.77167	19
0.77533	18
0.77900	18
0.78267	17
0.78633	17
0.79000	17
0.79367	18
0.79733	19
0.80100	20
0.80467	20
0.80833	20
0.81200	19
0.81567	22
0.81933	26
0.82300	26
0.82667	25
0.83033	22
0.83400	20
0.83767	19
0.84133	21
0.84500	23
0.84867	25
0.85233	25
0.85600	25
0.85967	24
0.86333	25
0.86700	24
0.87067	21
0.87433	21
0.87800	21
0.88167	20
0.88533	20
0.88900	21
0.89267	24
0.89633	26
0.90000	28
0.90367	29
0.90733	27
0.91100	25
0.91467	22
0.91833	20
0.92200	19
0.92567	19
0.92933	22
0.93300	25
0.93667	25
0.94033	25
0.94400	24
0.94767	23
0.95133	22
0.95500	23
0.95867	25
0.96233	27
0.96600	27
0.96967	24
0.97333	22
0.97700	21
0.98067	22
0.98433	25
0.98800	26
0.99167	26
0.99533	29
0.99900	32
1.00267	33
1.00633	33
1.01000	30
1.01367	26
1.01733	23
1.02100	24
1.02467	25
1.02833	24
1.03200	24
1.03567	24
1.03933	23
1.04300	23
1.04667	23
1.05033	23
1.05400	24
1.05767	24
1.06133	25
1.06500	28
1.06867	30
1.07233	31
1.07600	31
1.07967	32
1.08333	32
1.08700	32
1.09067	31
1.09433	31
1.09800	30
1.10167	31
1.10533	34
1.10900	34
1.11267	33
1.11633	32
1.12000	31
1.12367	30
1.12733	31
1.13100	32
1.13467	33
1.13833	33
1.14200	32
1.14567	29
1.14933	28
1.15300	28
1.15667	30
1.16033	33
1.16400	35
1.16767	38
1.17133	39
1.17500	37
1.17867	33
1.18233	30
1.18600	28
1.18967	27
1.19333	29
1.19700	32
1.20067	33
1.20433	35
1.20800	36
1.21167	37
1.21533	36
1.21900	34
1.22267	32
1.22633	30
1.23000	27
1.23367	27
1.23733	26
1.24100	25
1.24467	24
1.24833	22
1.25200	22
1.25567	23
1.25933	26
1.26300	27
1.26667	29
1.27033	30
1.27400	30
1.27767	29
1.28133	29
1.28500	30
1.28867	29
1.29233	29
1.29600	30
1.29967	31
1.30333	33
1.30700	33
1.31067	31
1.31433	30
1.31800	30
1.32167	30
1.32533	31
1.32900	33
1.33267	30
1.33633	29
1.34000	29
1.34367	29
1.34733	29
1.35100	27
1.35467	29
1.35833	31
1.36200	32
1.36567	32
1.36933	30
1.37300	29
1.37667	30
1.38033	32
1.38400	33
1.38767	33
1.39133	34
1.39500	35
1.39867	35
1.40233	36
1.40600	34
1.40967	32
1.41333	30
1.41700	30
1.42067	31
1.42433	32
1.42800	32
1.43167	33
1.43533	33
1.43900	31
1.44267	28
1.44633	26
1.45000	26
1.45367	29
1.45733	31
1.46100	32
1.46467	32
1.46833	33
1.47200	34
1.47567	32
1.47933	30
1.48300	30
1.48667	29
1.49033	29
1.49400	30
1.49767	32
1.50133	32
1.50500	30
1.50867	27
1.51233	25
1.51600	23
1.51967	21
1.52333	20
1.52700	20
1.53067	20
1.53433	22
1.53800	26
1.54167	27
1.54533	28
1.54900	30
1.55267	30
1.55633	30
1.56000	28
1.56367	27
1.56733	25
1.57100	24
1.57467	26
1.57833	27
1.58200	29
1.58567	31
1.58933	32
1.59300	32
1.59667	31
1.60033	29
1.60400	28
1.60767	28
1.61133	29
1.61500	32
1.61867	34
1.62233	34
1.62600	33
1.62967	31
1.63333	29
1.63700	30
1.64067	31
1.64433	31
1.64800	32
1.65167	31
1.65533	29
1.65900	29
1.66267	29
1.66633	31
1.67000	33
1.67367	32
1.67733	32
1.68100	33
1.68467	35
1.68833	37
1.69200	36
1.69567	37
1.69933	40
1.70300	41
1.70667	42
1.71033	41
1.71400	40
1.71767	39
1.72133	38
1.72500	37
1.72867	36
1.73233	37
1.73600	37
1.73967	38
1.74333	38
1.74700	40
1.75067	40
1.75433	41
1.75800	40
1.76167	41
1.76533	42
1.76900	43
1.77267	42
1.77633	43
1.78000	45
1.78367	49
1.78733	51
1.79100	53
1.79467	51
1.79833	50
1.80200	51
1.80567	52
1.80933	51
1.81300	49
1.81667	47
1.82033	49
1.82400	51
1.82767	51
1.83133	53
1.83500	54
1.83867	55
1.84233	54
1.84600	51
1.84967	52
1.85333	53
1.85700	55
1.86067	54
1.86433	54
1.86800	54
1.87167	54
1.87533	55
1.87900	57
1.88267	59
1.88633	60
1.89000	60
1.89367	61
1.89733	62
1.90100	64
1.90467	65
1.90833	65
1.91200	66
1.91567	67
1.91933	67
1.92300	66
1.92667	65
1.93033	65
1.93400	67
1.93767	67
1.94133	66
1.94500	65
1.94867	67
1.95233	70
1.95600	75
1.95967	77
1.96333	76
1.96700	72
1.97067	71
1.97433	73
1.97800	78
1.98167	80
1.98533	80
1.98900	81
1.99267	82
1.99633	81
2.00000	81
2.00367	81
2.00733	81
2.01100	80
2.01467	82
2.01833	84
2.02200	84
2.02567	85
2.02933	86
2.03300	86
2.03667	87
2.04033	88
2.04400	88
2.04767	88
2.05133	89
2.05500	90
2.05867	92
2.06233	94
2.06600	97
2.06967	95
2.07333	96
2.07700	98
2.08067	98
2.08433	98
2.08800	100
2.09167	102
2.09533	102
2.09900	105
2.10267	109
2.10633	110
2.11000	111
2.11367	110
2.11733	109
2.12100	110
2.12467	109
2.12833	108
2.13200	106
2.13567	105
2.13933	104
2.14300	103
2.14667	104
2.15033	106
2.15400	108
2.15767	110
2.16133	114
2.16500	118
2.16867	118
2.17233	118
2.17600	117
2.17967	117
2.18333	117
2.18700	118
2.19067	118
2.19433	119
2.19800	119
2.20167	118
2.20533	116
2.20900	118
2.21267	121
2.21633	122
2.22000	126
2.22367	129
2.22733	131
2.23100	131
2.23467	131
2.23833	131
2.24200	129
2.24567	127
2.24933	129
2.25300	135
2.25667	138
2.26033	138
2.26400	138
2.26767	139
2.27133	139
2.27500	139
2.27867	137
2.28233	136
2.28600	137
2.28967	138
2.29333	140
2.29700	141
2.30067	142
2.30433	142
2.30800	141
2.31167	143
2.31533	146
2.31900	146
2.32267	145
2.32633	145
2.33000	146
2.33367	147
2.33733	146
2.34100	145
2.34467	145
2.34833	145
2.35200	145
2.35567	144
2.35933	145
2.36300	145
2.36667	146
2.37033	146
2.37400	148
2.37767	147
2.38133	146
2.38500	148
2.38867	148
2.39233	146
2.39600	144
2.39967	143
2.40333	145
2.40700	147
2.41067	148
2.41433	147
2.41800	146
2.42167	147
2.42533	150
2.42900	152
2.43267	152
2.43633	152
2.44000	153
2.44367	191
2.44733	266
2.45100	336
2.45467	384
2.45833	395
2.46200	381
2.46567	360
2.46933	340
2.47300	322
2.47667	299
2.48033	268
2.48400	235
2.48767	206
2.49133	181
2.49500	160
2.49867	147
2.50233	140
2.50600	137
2.50967	139
2.51333	146
2.51700	152
2.52067	154
2.52433	151
2.52800	143
2.53167	131
2.53533	116
2.53900	104
2.54267	92
2.54633	83
2.55000	74
2.55367	66
2.55733	61
2.56100	56
2.56467	54
2.56833	53
2.57200	52
2.57567	51
2.57933	51
2.58300	51
2.58667	56
2.59033	64
2.59400	70
2.59767	76
2.60133	84
2.60500	93
2.60867	99
2.61233	101
2.61600	105
2.61967	105
2.62333	100
2.62700	93
2.63067	86
2.63433	78
2.63800	69
2.64167	60
2.64533	51
2.64900	41
2.65267	29
2.65633	20
2.66000	11
2.66367	5
2.66733	2
2.67100	-0
2.67467	-1
2.67833	-2
2.68200	-0
2.68567	0
2.68933	1
2.69300	-0
2.69667	0
2.70033	2
2.70400	3
2.70767	3
2.71133	5
2.71500	6
2.71867	9
2.72233	12
2.72600	12
2.72967	12
2.73333	15
2.73700	15
2.74067	14
2.74433	13
2.74800	14
2.75167	16
2.75533	18
2.75900	22
2.76267	27
2.76633	30
2.77000	35
2.77367	39
2.77733	40
2.78100	41
2.78467	43
2.78833	45
2.79200	48
2.79567	51
2.79933	54
2.80300	55
2.80667	58
2.81033	62
2.81400	67
2.81767	71
2.82133	74
2.82500	75
2.82867	76
2.83233	80
2.83600	89
2.83967	112
2.84333	161
2.84700	259
2.85067	422
2.85433	677
2.85800	1032
2.86167	1483
2.86533	2010
2.86900	2579
2.87267	3145
2.87633	3664
2.88000	4090
2.88367	4393
2.88733	4558
2.89100	4585
2.89467	4488
2.89833	4292
2.90200	4025
2.90567	3714
2.90933	3382
2.91300	3049
2.91667	2726
2.92033	2420
2.92400	2137
2.92767	1877
2.93133	1643
2.93500	1434
2.93867	1250
2.94233	1088
2.94600	947
2.94967	824
2.95333	719
2.95700	625
2.96067	544
2.96433	474
2.96800	411
2.97167	360
2.97533	318
2.97900	282
2.98267	244
2.98633	191
2.99000	142
2.99367	112
2.99733	102
3.00100	102
3.00467	102
3.00833	104
3.01200	113
3.01567	128
3.01933	151
3.02300	181
3.02667	215
3.03033	249
3.03400	280
3.03767	309
3.04133	335
3.04500	358
3.04867	378
3.05233	394
3.05600	406
3.05967	417
3.06333	427
3.06700	435
3.07067	441
3.07433	446
3.07800	450
3.08167	455
3.08533	460
3.08900	463
3.09267	468
3.09633	471
3.10000	472
3.10367	471
3.10733	469
3.11100	471
3.11467	472
3.11833	475
3.12200	478
3.12567	479
3.12933	480
3.13300	483
3.13667	486
3.14033	486
3.14400	489
3.14767	490
3.15133	491
3.15500	493
3.15867	496
3.16233	500
3.16600	502
3.16967	504
3.17333	505
3.17700	507
3.18067	507
3.18433	508
3.18800	509
3.19167	511
3.19533	513
3.19900	514
3.20267	516
3.20633	519
3.21000	521
3.21367	523
3.21733	524
3.22100	524
3.22467	527
3.22833	530
3.23200	534
3.23567	536
3.23933	535
3.24300	533
3.24667	533
3.25033	535
3.25400	538
3.25767	541
3.26133	540
3.26500	535
3.26867	530
3.27233	528
3.27600	527
3.27967	527
3.28333	527
3.28700	530
3.29067	533
3.29433	532
3.29800	528
3.30167	523
3.30533	520
3.30900	519
3.31267	518
3.31633	516
3.32000	513
3.32367	513
3.32733	513
3.33100	513
3.33467	512
3.33833	510
3.34200	508
3.34567	505
3.34933	503
3.35300	501
3.35667	497
3.36033	495
3.36400	493
3.36767	490
3.37133	487
3.37500	484
3.37867	483
3.38233	481
3.38600	478
3.38967	478
3.39333	479
3.39700	480
3.40067	480
3.40433	479
3.40800	478
3.41167	477
3.41533	475
3.41900	474
3.42267	474
3.42633	475
3.43000	472
3.43367	470
3.43733	469
3.44100	467
3.44467	462
3.44833	456
3.45200	452
3.45567	451
3.45933	453
3.46300	456
3.46667	458
3.47033	457
3.47400	453
3.47767	448
3.48133	446
3.48500	445
3.48867	443
3.49233	442
3.49600	440
3.49967	439
3.50333	435
3.50700	430
3.51067	425
3.51433	423
3.51800	425
3.52167	427
3.52533	427
3.52900	424
3.53267	422
3.53633	420
3.54000	418
3.54367	415
3.54733	414
3.55100	412
3.55467	410
3.55833	410
3.56200	410
3.56567	408
3.56933	406
3.57300	403
3.57667	401
3.58033	401
3.58400	400
3.58767	399
3.59133	397
3.59500	396
3.59867	395
3.60233	393
3.60600	390
3.60967	390
3.61333	391
3.61700	390
3.62067	390
3.62433	387
3.62800	385
3.63167	384
3.63533	383
3.63900	381
3.64267	378
3.64633	375
3.65000	372
3.65367	370
3.65733	369
3.66100	371
3.66467	373
3.66833	372
3.67200	372
3.67567	371
3.67933	371
3.68300	373
3.68667	372
3.69033	369
3.69400	367
3.69767	366
3.70133	364
3.70500	362
3.70867	361
3.71233	360
3.71600	357
3.71967	355
3.72333	355
3.72700	356
3.73067	355
3.73433	356
3.73800	356
3.74167	355
3.74533	352
3.74900	351
3.75267	352
3.75633	351
3.76000	350
3.76367	349
3.76733	348
3.77100	346
3.77467	347
3.77833	348
3.78200	345
3.78567	342
3.78933	339
3.79300	337
3.79667	336
3.80033	338
3.80400	339
3.80767	339
3.81133	338
3.81500	337
3.81867	336
3.82233	335
3.82600	334
3.82967	333
3.83333	333
3.83700	333
3.84067	333
3.84433	335
3.84800	337
3.85167	338
3.85533	338
3.85900	336
3.86267	335
3.86633	332
3.87000	330
3.87367	329
3.87733	328
3.88100	328
3.88467	328
3.88833	328
3.89200	328
3.89567	328
3.89933	327
3.90300	326
3.90667	326
3.91033	327
3.91400	327
3.91767	328
3.92133	325
3.92500	324
3.92867	323
3.93233	321
3.93600	322
3.93967	322
3.94333	321
3.94700	320
3.95067	318
3.95433	316
3.95800	315
3.96167	316
3.96533	318
3.96900	318
3.97267	318
3.97633	315
3.98000	313
3.98367	314
3.98733	315
3.99100	316
3.99467	315
3.99833	313

[Status Trace (Column Oven Temperature)]
Interval(msec)	1000
# of Points	240
Start Time(min)	0.011
End Time(min)	3.994
Intensity Units	
Intensity Multiplier	1
R.Time (min)	Intensity
0.01070	35.05
0.02737	35.06
0.04403	35.05
0.06070	35.04
0.07737	35.04
0.09403	35.03
0.11070	35.02
0.12737	35.02
0.14403	35.01
0.16070	35.01
0.17737	35.01
0.19403	35.02
0.21070	35.01
0.22737	35.02
0.24403	35.02
0.26070	35.03
0.27737	35.03
0.29403	35.02
0.31070	35.02
0.32737	35.02
0.34403	35.02
0.36070	35.02
0.37737	35.01
0.39403	35.02
0.41070	35.02
0.42737	35.01
0.44403	35.02
0.46070	35.01
0.47737	35.01
0.49403	35.00
0.51070	35.01
0.52737	35.01
0.54403	35.01
0.56070	35.01
0.57737	35.02
0.59403	35.02
0.61070	35.02
0.62737	35.02
0.64403	35.01
0.66070	35.00
0.67737	35.00
0.69403	34.99
0.71070	34.99
0.72737	35.00
0.74403	35.00
0.76070	35.01
0.77737	35.01
0.79403	35.01
0.81070	35.00
0.82737	34.99
0.84403	34.99
0.86070	34.99
0.87737	35.00
0.89403	35.00
0.91070	34.99
0.92737	34.99
0.94403	34.99
0.96070	34.99
0.97737	34.99
0.99403	34.99
1.01070	34.99
1.02737	35.00
1.04403	34.99
1.06070	34.99
1.07737	34.99
1.09403	35.00
1.11070	35.00
1.12737	35.00
1.14403	34.99
1.16070	34.99
1.17737	34.99
1.19403	34.99
1.21070	35.00
1.22737	34.99
1.24403	34.99
1.26070	34.98
1.27737	34.98
1.29403	34.98
1.31070	34.99
1.32737	34.99
1.34403	34.97
1.36070	34.98
1.37737	34.99
1.39403	34.98
1.41070	34.98
1.42737	34.98
1.44403	34.99
1.46070	35.00
1.47737	35.00
1.49403	35.00
1.51070	35.00
1.52737	35.00
1.54403	35.01
1.56070	35.02
1.57737	35.04
1.59403	35.07
1.61070	35.14
1.62737	35.27
1.64403	35.46
1.66070	35.69
1.67737	36.01
1.69403	36.38
1.71070	36.74
1.72737	37.06
1.74403	37.38
1.76070	37.71
1.77737	38.06
1.79403	38.39
1.81070	38.72
1.82737	39.05
1.84403	39.40
1.86070	39.70
1.87737	40.01
1.89403	40.34
1.91070	40.68
1.92737	41.00
1.94403	41.33
1.96070	41.66
1.97737	41.98
1.99403	42.32
2.01070	42.64
2.02737	42.97
2.04403	43.29
2.06070	43.63
2.07737	43.96
2.09403	44.29
2.11070	44.62
2.12737	44.93
2.14403	45.25
2.16070	45.58
2.17737	45.91
2.19403	46.22
2.21070	46.56
2.22737	46.89
2.24403	47.20
2.26070	47.54
2.27737	47.88
2.29403	48.21
2.31070	48.54
2.32737	48.87
2.34403	49.19
2.36070	49.48
2.37737	49.67
2.39403	49.73
2.41070	49.72
2.42737	49.75
2.44403	49.75
2.46070	49.75
2.47737	49.77
2.49403	49.77
2.51070	49.78
2.52737	49.79
2.54403	49.81
2.56070	49.80
2.57737	49.80
2.59403	49.85
2.61070	49.85
2.62737	49.84
2.64403	49.85
2.66070	49.86
2.67737	49.86
2.69403	49.83
2.71070	49.84
2.72737	49.86
2.74403	49.87
2.76070	49.85
2.77737	49.85
2.79403	49.86
2.81070	49.87
2.82737	49.85
2.84403	49.86
2.86070	49.87
2.87737	49.88
2.89403	49.89
2.91070	49.90
2.92737	49.91
2.94403	49.94
2.96070	49.96
2.97737	49.98
2.99403	49.98
3.01070	49.99
3.02737	49.99
3.04403	49.99
3.06070	49.99
3.07737	49.99
3.09403	49.99
3.11070	49.99
3.12737	50.00
3.14403	50.01
3.16070	50.01
3.17737	50.02
3.19403	50.04
3.21070	50.05
3.22737	50.05
3.24403	50.06
3.26070	50.06
3.27737	50.08
3.29403	50.09
3.31070	50.08
3.32737	50.09
3.34403	50.10
3.36070	50.10
3.37737	50.10
3.39403	50.10
3.41070	50.09
3.42737	50.08
3.44403	50.08
3.46070	50.07
3.47737	50.07
3.49403	50.06
3.51070	50.07
3.52737	50.06
3.54403	50.06
3.56070	50.06
3.57737	50.06
3.59403	50.07
3.61070	50.07
3.62737	50.07
3.64403	50.07
3.66070	50.08
3.67737	50.09
3.69403	50.11
3.71070	50.10
3.72737	50.09
3.74403	50.08
3.76070	50.07
3.77737	50.06
3.79403	50.05
3.81070	50.05
3.82737	50.03
3.84403	50.02
3.86070	50.02
3.87737	50.01
3.89403	50.02
3.91070	50.02
3.92737	50.01
3.94403	50.02
3.96070	50.02
3.97737	50.03
3.99403	50.03

[Status Trace (Injection Unit Temperature)]
Interval(msec)	1000
# of Points	240
Start Time(min)	0.011
End Time(min)	3.994
Intensity Units	
Intensity Multiplier	1
R.Time (min)	Intensity
0.01070	99.98
0.02737	99.98
0.04403	99.98
0.06070	99.98
0.07737	99.98
0.09403	99.98
0.11070	99.97
0.12737	99.98
0.14403	99.98
0.16070	99.98
0.17737	99.98
0.19403	99.98
0.21070	99.98
0.22737	99.98
0.24403	99.99
0.26070	99.98
0.27737	99.98
0.29403	99.98
0.31070	99.98
0.32737	99.98
0.34403	99.98
0.36070	99.98
0.37737	99.98
0.39403	99.98
0.41070	99.98
0.42737	99.98
0.44403	99.98
0.46070	99.98
0.47737	99.98
0.49403	99.98
0.51070	99.98
0.52737	99.98
0.54403	99.98
0.56070	99.98
0.57737	99.98
0.59403	99.98
0.61070	99.98
0.62737	99.98
0.64403	99.98
0.66070	99.97
0.67737	99.97
0.69403	99.98
0.71070	99.98
0.72737	99.98
0.74403	99.98
0.76070	99.98
0.77737	99.98
0.79403	99.98
0.81070	99.98
0.82737	99.98
0.84403	99.98
0.86070	99.98
0.87737	99.98
0.89403	99.98
0.91070	99.97
0.92737	99.98
0.94403	99.98
0.96070	99.98
0.97737	99.97
0.99403	99.98
1.01070	99.98
1.02737	99.98
1.04403	99.98
1.06070	99.98
1.07737	99.98
1.09403	99.98
1.11070	99.98
1.12737	99.98
1.14403	99.98
1.16070	99.98
1.17737	99.98
1.19403	99.98
1.21070	99.98
1.22737	99.98
1.24403	99.98
1.26070	99.98
1.27737	99.98
1.29403	99.98
1.31070	99.98
1.32737	99.98
1.34403	99.98
1.36070	99.98
1.37737	99.98
1.39403	99.98
1.41070	99.98
1.42737	99.99
1.44403	99.98
1.46070	99.99
1.47737	99.99
1.49403	99.99
1.51070	99.99
1.52737	99.99
1.54403	99.98
1.56070	99.98
1.57737	99.98
1.59403	99.99
1.61070	99.99
1.62737	99.99
1.64403	99.99
1.66070	99.98
1.67737	99.99
1.69403	99.98
1.71070	99.99
1.72737	99.98
1.74403	99.98
1.76070	99.98
1.77737	99.98
1.79403	99.98
1.81070	99.98
1.82737	99.98
1.84403	99.98
1.86070	99.98
1.87737	99.98
1.89403	99.97
1.91070	99.98
1.92737	99.98
1.94403	99.98
1.96070	99.98
1.97737	99.98
1.99403	99.97
2.01070	99.97
2.02737	99.97
2.04403	99.97
2.06070	99.97
2.07737	99.97
2.09403	99.97
2.11070	99.97
2.12737	99.97
2.14403	99.97
2.16070	99.97
2.17737	99.96
2.19403	99.97
2.21070	99.96
2.22737	99.97
2.24403	99.96
2.26070	99.96
2.27737	99.96
2.29403	99.96
2.31070	99.96
2.32737	99.96
2.34403	99.96
2.36070	99.97
2.37737	99.96
2.39403	99.96
2.41070	99.96
2.42737	99.96
2.44403	99.97
2.46070	99.97
2.47737	99.97
2.49403	99.97
2.51070	99.97
2.52737	99.97
2.54403	99.97
2.56070	99.98
2.57737	99.97
2.59403	99.98
2.61070	99.97
2.62737	99.98
2.64403	99.98
2.66070	99.98
2.67737	99.98
2.69403	99.99
2.71070	99.99
2.72737	99.99
2.74403	99.99
2.76070	99.99
2.77737	99.99
2.79403	99.99
2.81070	99.99
2.82737	100.00
2.84403	100.00
2.86070	100.00
2.87737	100.00
2.89403	100.00
2.91070	100.01
2.92737	100.01
2.94403	100.01
2.96070	100.01
2.97737	100.02
2.99403	100.01
3.01070	100.02
3.02737	100.02
3.04403	100.02
3.06070	100.02
3.07737	100.02
3.09403	100.02
3.11070	100.02
3.12737	100.02
3.14403	100.02
3.16070	100.03
3.17737	100.02
3.19403	100.03
3.21070	100.02
3.22737	100.03
3.24403	100.03
3.26070	100.03
3.27737	100.03
3.29403	100.03
3.31070	100.03
3.32737	100.03
3.34403	100.03
3.36070	100.03
3.37737	100.03
3.39403	100.04
3.41070	100.04
3.42737	100.04
3.44403	100.04
3.46070	100.03
3.47737	100.04
3.49403	100.04
3.51070	100.04
3.52737	100.04
3.54403	100.04
3.56070	100.04
3.57737	100.05
3.59403	100.04
3.61070	100.04
3.62737	100.05
3.64403	100.05
3.66070	100.05
3.67737	100.05
3.69403	100.05
3.71070	100.05
3.72737	100.05
3.74403	100.05
3.76070	100.05
3.77737	100.05
3.79403	100.05
3.81070	100.05
3.82737	100.05
3.84403	100.05
3.86070	100.05
3.87737	100.05
3.89403	100.05
3.91070	100.05
3.92737	100.05
3.94403	100.05
3.96070	100.05
3.97737	100.05
3.99403	100.05

[Status Trace (Carrier Gas Pressure)]
Interval(msec)	1000
# of Points	240
Start Time(min)	0.011
End Time(min)	3.994
Intensity Units	
Intensity Multiplier	1
R.Time (min)	Intensity
0.01070	58.00
0.02737	55.09
0.04403	57.55
0.06070	59.68
0.07737	58.98
0.09403	58.00
0.11070	57.99
0.12737	58.01
0.14403	58.01
0.16070	58.00
0.17737	58.00
0.19403	58.00
0.21070	58.00
0.22737	58.00
0.24403	58.00
0.26070	58.00
0.27737	58.00
0.29403	58.00
0.31070	58.00
0.32737	58.00
0.34403	58.00
0.36070	58.00
0.37737	58.00
0.39403	58.00
0.41070	58.00
0.42737	58.00
0.44403	58.00
0.46070	58.00
0.47737	58.00
0.49403	58.00
0.51070	58.00
0.52737	58.00
0.54403	58.00
0.56070	58.00
0.57737	58.00
0.59403	58.00
0.61070	58.00
0.62737	58.00
0.64403	58.00
0.66070	58.00
0.67737	58.00
0.69403	58.00
0.71070	58.00
0.72737	58.00
0.74403	58.00
0.76070	58.00
0.77737	58.00
0.79403	58.00
0.81070	58.00
0.82737	58.00
0.84403	58.00
0.86070	58.00
0.87737	58.00
0.89403	58.00
0.91070	58.00
0.92737	58.00
0.94403	58.00
0.96070	58.00
0.97737	58.00
0.99403	58.00
1.01070	58.00
1.02737	58.00
1.04403	58.00
1.06070	58.00
1.07737	58.00
1.09403	58.00
1.11070	58.00
1.12737	58.00
1.14403	58.00
1.16070	58.00
1.17737	58.00
1.19403	58.00
1.21070	58.00
1.22737	58.00
1.24403	58.00
1.26070	58.00
1.27737	58.00
1.29403	58.00
1.31070	58.00
1.32737	58.00
1.34403	58.00
1.36070	58.00
1.37737	58.00
1.39403	58.00
1.41070	58.00
1.42737	58.00
1.44403	58.00
1.46070	58.00
1.47737	58.00
1.49403	58.00
1.51070	58.00
1.52737	58.00
1.54403	58.00
1.56070	58.00
1.57737	58.00
1.59403	58.00
1.61070	58.00
1.62737	58.00
1.64403	58.00
1.66070	58.00
1.67737	58.01
1.69403	58.01
1.71070	58.00
1.72737	58.00
1.74403	58.00
1.76070	58.00
1.77737	58.00
1.79403	58.00
1.81070	58.00
1.82737	58.00
1.84403	58.00
1.86070	58.00
1.87737	58.00
1.89403	58.00
1.91070	58.00
1.92737	58.00
1.94403	58.00
1.96070	58.00
1.97737	58.00
1.99403	58.00
2.01070	58.00
2.02737	58.00
2.04403	58.00
2.06070	58.00
2.07737	58.00
2.09403	58.00
2.11070	58.00
2.12737	58.00
2.14403	58.00
2.16070	58.00
2.17737	58.00
2.19403	58.00
2.21070	58.00
2.22737	58.00
2.24403	58.00
2.26070	58.00
2.27737	58.00
2.29403	58.00
2.31070	58.00
2.32737	58.00
2.34403	58.00
2.36070	58.00
2.37737	58.00
2.39403	57.99
2.41070	57.99
2.42737	58.00
2.44403	58.00
2.46070	58.00
2.47737	58.00
2.49403	58.00
2.51070	57.99
2.52737	57.99
2.54403	58.00
2.56070	58.00
2.57737	58.00
2.59403	58.00
2.61070	58.00
2.62737	58.00
2.64403	58.00
2.66070	58.00
2.67737	58.00
2.69403	58.00
2.71070	58.00
2.72737	58.00
2.74403	58.00
2.76070	58.00
2.77737	58.00
2.79403	58.00
2.81070	58.00
2.82737	58.00
2.84403	58.00
2.86070	58.00
2.87737	58.00
2.89403	58.00
2.91070	58.00
2.92737	58.00
2.94403	58.00
2.96070	58.00
2.97737	58.00
2.99403	58.00
3.01070	58.00
3.02737	58.00
3.04403	58.00
3.06070	58.00
3.07737	58.00
3.09403	58.00
3.11070	58.00
3.12737	58.00
3.14403	58.00
3.16070	58.00
3.17737	58.00
3.19403	58.00
3.21070	58.00
3.22737	58.00
3.24403	58.00
3.26070	58.00
3.27737	58.00
3.29403	58.00
3.31070	58.00
3.32737	58.00
3.34403	58.00
3.36070	58.00
3.37737	58.00
3.39403	58.00
3.41070	58.00
3.42737	58.00
3.44403	58.00
3.46070	58.00
3.47737	58.00
3.49403	58.00
3.51070	58.00
3.52737	58.00
3.54403	58.00
3.56070	58.00
3.57737	58.00
3.59403	58.00
3.61070	58.00
3.62737	58.00
3.64403	58.00
3.66070	58.00
3.67737	58.00
3.69403	58.00
3.71070	58.00
3.72737	58.00
3.74403	58.00
3.76070	58.00
3.77737	58.00
3.79403	58.00
3.81070	58.00
3.82737	58.00
3.84403	58.00
3.86070	58.00
3.87737	58.00
3.89403	58.00
3.91070	58.00
3.92737	58.00
3.94403	58.00
3.96070	58.00
3.97737	58.00
3.99403	58.00

[Status Trace (Carrier Gas Flow)]
Interval(msec)	1000
# of Points	240
Start Time(min)	0.011
End Time(min)	3.994
Intensity Units	
Intensity Multiplier	1
R.Time (min)	Intensity
0.01070	34.52
0.02737	34.54
0.04403	34.54
0.06070	34.53
0.07737	34.51
0.09403	34.52
0.11070	34.52
0.12737	34.52
0.14403	34.52
0.16070	34.51
0.17737	34.52
0.19403	34.52
0.21070	34.52
0.22737	34.52
0.24403	34.52
0.26070	34.53
0.27737	34.52
0.29403	34.51
0.31070	34.52
0.32737	34.51
0.34403	34.52
0.36070	34.52
0.37737	34.51
0.39403	34.52
0.41070	34.52
0.42737	34.52
0.44403	34.52
0.46070	34.52
0.47737	34.52
0.49403	34.52
0.51070	34.52
0.52737	34.51
0.54403	34.52
0.56070	34.52
0.57737	34.52
0.59403	34.51
0.61070	34.52
0.62737	34.52
0.64403	34.51
0.66070	34.51
0.67737	34.52
0.69403	34.52
0.71070	34.52
0.72737	34.52
0.74403	34.52
0.76070	34.52
0.77737	34.52
0.79403	34.52
0.81070	34.52
0.82737	34.52
0.84403	34.52
0.86070	34.52
0.87737	34.52
0.89403	34.51
0.91070	34.52
0.92737	34.52
0.94403	34.52
0.96070	34.52
0.97737	34.52
0.99403	34.52
1.01070	34.52
1.02737	34.52
1.04403	34.52
1.06070	34.52
1.07737	34.52
1.09403	34.52
1.11070	34.52
1.12737	34.52
1.14403	34.52
1.16070	34.52
1.17737	34.52
1.19403	34.52
1.21070	34.52
1.22737	34.52
1.24403	34.52
1.26070	34.52
1.27737	34.52
1.29403	34.52
1.31070	34.52
1.32737	34.52
1.34403	34.52
1.36070	34.52
1.37737	34.52
1.39403	34.52
1.41070	34.52
1.42737	34.52
1.44403	34.52
1.46070	34.52
1.47737	34.52
1.49403	34.52
1.51070	34.52
1.52737	34.52
1.54403	34.52
1.56070	34.52
1.57737	34.52
1.59403	34.52
1.61070	34.51
1.62737	34.52
1.64403	34.52
1.66070	34.52
1.67737	34.52
1.69403	34.52
1.71070	34.52
1.72737	34.52
1.74403	34.52
1.76070	34.52
1.77737	34.52
1.79403	34.51
1.81070	34.52
1.82737	34.52
1.84403	34.52
1.86070	34.52
1.87737	34.52
1.89403	34.52
1.91070	34.52
1.92737	34.52
1.94403	34.52
1.96070	34.52
1.97737	34.52
1.99403	34.52
2.01070	34.52
2.02737	34.52
2.04403	34.52
2.06070	34.51
2.07737	34.52
2.09403	34.52
2.11070	34.52
2.12737	34.52
2.14403	34.52
2.16070	34.51
2.17737	34.52
2.19403	34.51
2.21070	34.52
2.22737	34.51
2.24403	34.52
2.26070	34.53
2.27737	34.52
2.29403	34.52
2.31070	34.52
2.32737	34.52
2.34403	34.52
2.36070	34.52
2.37737	34.52
2.39403	34.51
2.41070	34.52
2.42737	34.52
2.44403	34.52
2.46070	34.52
2.47737	34.52
2.49403	34.52
2.51070	34.52
2.52737	34.52
2.54403	34.52
2.56070	34.52
2.57737	34.52
2.59403	34.52
2.61070	34.52
2.62737	34.52
2.64403	34.51
2.66070	34.52
2.67737	34.52
2.69403	34.52
2.71070	34.52
2.72737	34.52
2.74403	34.52
2.76070	34.52
2.77737	34.52
2.79403	34.52
2.81070	34.52
2.82737	34.52
2.84403	34.52
2.86070	34.52
2.87737	34.51
2.89403	34.52
2.91070	34.52
2.92737	34.52
2.94403	34.52
2.96070	34.52
2.97737	34.52
2.99403	34.52
3.01070	34.52
3.02737	34.52
3.04403	34.52
3.06070	34.51
3.07737	34.52
3.09403	34.52
3.11070	34.52
3.12737	34.52
3.14403	34.52
3.16070	34.52
3.17737	34.52
3.19403	34.52
3.21070	34.52
3.22737	34.52
3.24403	34.51
3.26070	34.52
3.27737	34.52
3.29403	34.52
3.31070	34.52
3.32737	34.52
3.34403	34.52
3.36070	34.52
3.37737	34.52
3.39403	34.52
3.41070	34.52
3.42737	34.52
3.44403	34.52
3.46070	34.52
3.47737	34.52
3.49403	34.52
3.51070	34.52
3.52737	34.52
3.54403	34.52
3.56070	34.52
3.57737	34.52
3.59403	34.52
3.61070	34.52
3.62737	34.52
3.64403	34.52
3.66070	34.52
3.67737	34.52
3.69403	34.52
3.71070	34.52
3.72737	34.52
3.74403	34.52
3.76070	34.52
3.77737	34.52
3.79403	34.52
3.81070	34.52
3.82737	34.52
3.84403	34.51
3.86070	34.52
3.87737	34.52
3.89403	34.52
3.91070	34.52
3.92737	34.52
3.94403	34.52
3.96070	34.52
3.97737	34.52
3.99403	34.52

[Status Trace (Column Flow)]
Interval(msec)	1000
# of Points	240
Start Time(min)	0.011
End Time(min)	3.994
Intensity Units	
Intensity Multiplier	1
R.Time (min)	Intensity
0.01070	5.52
0.02737	5.18
0.04403	5.47
0.06070	5.72
0.07737	5.63
0.09403	5.52
0.11070	5.52
0.12737	5.52
0.14403	5.52
0.16070	5.52
0.17737	5.52
0.19403	5.52
0.21070	5.52
0.22737	5.52
0.24403	5.52
0.26070	5.52
0.27737	5.52
0.29403	5.52
0.31070	5.52
0.32737	5.52
0.34403	5.52
0.36070	5.52
0.37737	5.52
0.39403	5.52
0.41070	5.52
0.42737	5.52
0.44403	5.52
0.46070	5.52
0.47737	5.52
0.49403	5.52
0.51070	5.52
0.52737	5.52
0.54403	5.52
0.56070	5.52
0.57737	5.52
0.59403	5.52
0.61070	5.52
0.62737	5.52
0.64403	5.52
0.66070	5.52
0.67737	5.52
0.69403	5.52
0.71070	5.52
0.72737	5.52
0.74403	5.52
0.76070	5.52
0.77737	5.52
0.79403	5.52
0.81070	5.52
0.82737	5.52
0.84403	5.52
0.86070	5.52
0.87737	5.52
0.89403	5.52
0.91070	5.52
0.92737	5.52
0.94403	5.52
0.96070	5.52
0.97737	5.52
0.99403	5.52
1.01070	5.52
1.02737	5.52
1.04403	5.52
1.06070	5.52
1.07737	5.52
1.09403	5.52
1.11070	5.52
1.12737	5.52
1.14403	5.52
1.16070	5.52
1.17737	5.52
1.19403	5.52
1.21070	5.52
1.22737	5.52
1.24403	5.52
1.26070	5.52
1.27737	5.52
1.29403	5.52
1.31070	5.52
1.32737	5.52
1.34403	5.52
1.36070	5.52
1.37737	5.52
1.39403	5.52
1.41070	5.52
1.42737	5.52
1.44403	5.52
1.46070	5.52
1.47737	5.52
1.49403	5.52
1.51070	5.52
1.52737	5.52
1.54403	5.52
1.56070	5.52
1.57737	5.52
1.59403	5.52
1.61070	5.52
1.62737	5.51
1.64403	5.51
1.66070	5.50
1.67737	5.49
1.69403	5.48
1.71070	5.47
1.72737	5.46
1.74403	5.45
1.76070	5.44
1.77737	5.43
1.79403	5.42
1.81070	5.40
1.82737	5.39
1.84403	5.38
1.86070	5.38
1.87737	5.37
1.89403	5.36
1.91070	5.35
1.92737	5.34
1.94403	5.33
1.96070	5.32
1.97737	5.31
1.99403	5.30
2.01070	5.29
2.02737	5.28
2.04403	5.27
2.06070	5.26
2.07737	5.25
2.09403	5.24
2.11070	5.23
2.12737	5.22
2.14403	5.21
2.16070	5.20
2.17737	5.19
2.19403	5.18
2.21070	5.17
2.22737	5.16
2.24403	5.16
2.26070	5.15
2.27737	5.14
2.29403	5.13
2.31070	5.12
2.32737	5.11
2.34403	5.10
2.36070	5.09
2.37737	5.09
2.39403	5.08
2.41070	5.08
2.42737	5.08
2.44403	5.08
2.46070	5.08
2.47737	5.08
2.49403	5.08
2.51070	5.08
2.52737	5.08
2.54403	5.08
2.56070	5.08
2.57737	5.08
2.59403	5.08
2.61070	5.08
2.62737	5.08
2.64403	5.08
2.66070	5.08
2.67737	5.08
2.69403	5.08
2.71070	5.08
2.72737	5.08
2.74403	5.08
2.76070	5.08
2.77737	5.08
2.79403	5.08
2.81070	5.08
2.82737	5.08
2.84403	5.08
2.86070	5.08
2.87737	5.08
2.89403	5.08
2.91070	5.08
2.92737	5.08
2.94403	5.08
2.96070	5.08
2.97737	5.08
2.99403	5.08
3.01070	5.08
3.02737	5.08
3.04403	5.08
3.06070	5.08
3.07737	5.08
3.09403	5.08
3.11070	5.08
3.12737	5.08
3.14403	5.08
3.16070	5.08
3.17737	5.08
3.19403	5.08
3.21070	5.08
3.22737	5.08
3.24403	5.08
3.26070	5.08
3.27737	5.08
3.29403	5.08
3.31070	5.08
3.32737	5.07
3.34403	5.07
3.36070	5.07
3.37737	5.07
3.39403	5.07
3.41070	5.08
3.42737	5.08
3.44403	5.08
3.46070	5.08
3.47737	5.08
3.49403	5.08
3.51070	5.08
3.52737	5.08
3.54403	5.08
3.56070	5.08
3.57737	5.08
3.59403	5.08
3.61070	5.08
3.62737	5.08
3.64403	5.08
3.66070	5.08
3.67737	5.07
3.69403	5.07
3.71070	5.07
3.72737	5.07
3.74403	5.08
3.76070	5.08
3.77737	5.08
3.79403	5.08
3.81070	5.08
3.82737	5.08
3.84403	5.08
3.86070	5.08
3.87737	5.08
3.89403	5.08
3.91070	5.08
3.92737	5.08
3.94403	5.08
3.96070	5.08
3.97737	5.08
3.99403	5.08

[Status Trace (Linear Velocity)]
Interval(msec)	1000
# of Points	240
Start Time(min)	0.011
End Time(min)	3.994
Intensity Units	
Intensity Multiplier	1
R.Time (min)	Intensity
0.01070	39.01
0.02737	37.10
0.04403	38.72
0.06070	40.11
0.07737	39.66
0.09403	39.01
0.11070	39.01
0.12737	39.02
0.14403	39.02
0.16070	39.02
0.17737	39.02
0.19403	39.02
0.21070	39.02
0.22737	39.02
0.24403	39.02
0.26070	39.01
0.27737	39.01
0.29403	39.01
0.31070	39.02
0.32737	39.02
0.34403	39.01
0.36070	39.01
0.37737	39.02
0.39403	39.01
0.41070	39.02
0.42737	39.02
0.44403	39.01
0.46070	39.02
0.47737	39.02
0.49403	39.02
0.51070	39.02
0.52737	39.02
0.54403	39.02
0.56070	39.02
0.57737	39.01
0.59403	39.01
0.61070	39.01
0.62737	39.01
0.64403	39.01
0.66070	39.02
0.67737	39.02
0.69403	39.02
0.71070	39.02
0.72737	39.02
0.74403	39.02
0.76070	39.02
0.77737	39.02
0.79403	39.02
0.81070	39.02
0.82737	39.02
0.84403	39.02
0.86070	39.02
0.87737	39.02
0.89403	39.02
0.91070	39.02
0.92737	39.02
0.94403	39.02
0.96070	39.02
0.97737	39.02
0.99403	39.02
1.01070	39.02
1.02737	39.02
1.04403	39.02
1.06070	39.02
1.07737	39.02
1.09403	39.02
1.11070	39.02
1.12737	39.02
1.14403	39.02
1.16070	39.02
1.17737	39.02
1.19403	39.02
1.21070	39.02
1.22737	39.02
1.24403	39.02
1.26070	39.02
1.27737	39.02
1.29403	39.02
1.31070	39.02
1.32737	39.02
1.34403	39.02
1.36070	39.02
1.37737	39.02
1.39403	39.02
1.41070	39.02
1.42737	39.02
1.44403	39.02
1.46070	39.02
1.47737	39.02
1.49403	39.02
1.51070	39.02
1.52737	39.02
1.54403	39.02
1.56070	39.01
1.57737	39.01
1.59403	39.01
1.61070	39.00
1.62737	38.99
1.64403	38.98
1.66070	38.95
1.67737	38.92
1.69403	38.89
1.71070	38.85
1.72737	38.82
1.74403	38.79
1.76070	38.76
1.77737	38.73
1.79403	38.69
1.81070	38.66
1.82737	38.63
1.84403	38.60
1.86070	38.57
1.87737	38.54
1.89403	38.51
1.91070	38.48
1.92737	38.45
1.94403	38.42
1.96070	38.39
1.97737	38.36
1.99403	38.33
2.01070	38.30
2.02737	38.27
2.04403	38.24
2.06070	38.21
2.07737	38.17
2.09403	38.15
2.11070	38.11
2.12737	38.09
2.14403	38.06
2.16070	38.03
2.17737	38.00
2.19403	37.97
2.21070	37.94
2.22737	37.91
2.24403	37.88
2.26070	37.85
2.27737	37.82
2.29403	37.79
2.31070	37.76
2.32737	37.73
2.34403	37.70
2.36070	37.68
2.37737	37.66
2.39403	37.65
2.41070	37.65
2.42737	37.65
2.44403	37.65
2.46070	37.65
2.47737	37.65
2.49403	37.65
2.51070	37.65
2.52737	37.64
2.54403	37.65
2.56070	37.65
2.57737	37.65
2.59403	37.65
2.61070	37.64
2.62737	37.65
2.64403	37.65
2.66070	37.64
2.67737	37.64
2.69403	37.65
2.71070	37.65
2.72737	37.65
2.74403	37.64
2.76070	37.64
2.77737	37.65
2.79403	37.65
2.81070	37.64
2.82737	37.64
2.84403	37.65
2.86070	37.64
2.87737	37.64
2.89403	37.64
2.91070	37.64
2.92737	37.64
2.94403	37.64
2.96070	37.64
2.97737	37.63
2.99403	37.63
3.01070	37.63
3.02737	37.63
3.04403	37.63
3.06070	37.63
3.07737	37.63
3.09403	37.63
3.11070	37.63
3.12737	37.63
3.14403	37.63
3.16070	37.63
3.17737	37.63
3.19403	37.63
3.21070	37.63
3.22737	37.63
3.24403	37.63
3.26070	37.63
3.27737	37.63
3.29403	37.62
3.31070	37.62
3.32737	37.62
3.34403	37.62
3.36070	37.62
3.37737	37.62
3.39403	37.62
3.41070	37.62
3.42737	37.62
3.44403	37.63
3.46070	37.63
3.47737	37.63
3.49403	37.63
3.51070	37.63
3.52737	37.63
3.54403	37.63
3.56070	37.63
3.57737	37.63
3.59403	37.63
3.61070	37.63
3.62737	37.63
3.64403	37.63
3.66070	37.63
3.67737	37.62
3.69403	37.62
3.71070	37.62
3.72737	37.62
3.74403	37.63
3.76070	37.63
3.77737	37.63
3.79403	37.63
3.81070	37.63
3.82737	37.63
3.84403	37.63
3.86070	37.63
3.87737	37.63
3.89403	37.63
3.91070	37.63
3.92737	37.63
3.94403	37.63
3.96070	37.63
3.97737	37.63
3.99403	37.63

