[Header]
Application Name	LabSolutions
Version	5.110
Data File Name	C:\Users\User\Desktop\Junior\UIC Prairie Sampling\3.23.23\032323_070.gcd
Output Date	5/24/2023
Output Time	10:27:40 AM

[File Information]
Type	Data File
Generated	5/23/2023 11:24:07 PM
Generated by	System Administrator
Modified	5/23/2023 11:31:01 PM
Modified by	System Administrator

[Sample Information]
Operator Name	System Administrator
Acquired	5/23/2023 11:27:01 PM
Sample Type	0:Unknown
Level	0
Sample Name	070
Sample ID	070
ISTD Amount1	1
ISTD Amount2	1
ISTD Amount3	1
ISTD Amount4	1
ISTD Amount5	1
ISTD Amount6	1
ISTD Amount7	1
ISTD Amount8	1
ISTD Amount9	1
ISTD Amount10	1
ISTD Amount11	1
ISTD Amount12	1
ISTD Amount13	1
ISTD Amount14	1
ISTD Amount15	1
ISTD Amount16	1
ISTD Amount17	1
ISTD Amount18	1
ISTD Amount19	1
ISTD Amount20	1
ISTD Amount21	1
ISTD Amount22	1
ISTD Amount23	1
ISTD Amount24	1
ISTD Amount25	1
ISTD Amount26	1
ISTD Amount27	1
ISTD Amount28	1
ISTD Amount29	1
ISTD Amount30	1
ISTD Amount31	1
ISTD Amount32	1
Sample Amount	1
Dilution Factor	1
Vial#	69
Injection Volume	1
Injection Count	1
Bar Code	

[Original Files]
Data File	C:\Users\User\Desktop\GC Analyses\Jack\Nachusa Grasslands Sampling\20220924\t2\032323_070.gcd
Method File	C:\LabSolutions\Data\GHG_4min_2022\ghg3_togas_w_acet_4 min_new_int.gcm
Batch File	C:\LabSolutions\Data\AutoSamplerTesting\032323.gcb
Report Format File	c:\LabSolutions\System\DEFAULT.lsr

[File Description]


[Configuration]
Instrument Name	C0B7VH3-Instrument1
Instrument #	1
Line #	1
# of Detectors	3
Detector ID	DET#1	DET#2	DET#3
Detector Name	FID	PTCD	ECD
# of Channels	1	1	1

[Peak Table(Ch1)]
# of Peaks	3
Peak#	R.Time	I.Time	F.Time	Area	Height	A/H	Conc.	Mark	ID#	Name	k'	Plate #	Plate Ht.	Tailing	Resolution	Sep.Factor	Area Ratio	Height Ratio	Conc. %	Norm Conc.
1	1.479	1.457	1.509	496	315	1.574	0.000	   	1	CO	0.000	15563	9.638	1.170	0.000	0.000	0	0	0.000	0.000
2	1.564	1.527	1.641	19747	9993	1.976	96.269	   	2	CH4	0.057	11347	13.219	1.259	1.589	0.000	0	0	19.752	19.752
3	1.993	1.945	2.502	2029456	971808	2.088	391.114	   	3	CO2	0.347	17083	8.781	1.250	7.168	6.087	0	0	80.248	80.248

[Peak Table(Ch2)]
# of Peaks	0

[Peak Table(Ch3)]
# of Peaks	5
Peak#	R.Time	I.Time	F.Time	Area	Height	A/H	Conc.	Mark	ID#	Name	k'	Plate #	Plate Ht.	Tailing	Resolution	Sep.Factor	Area Ratio	Height Ratio	Conc. %	Norm Conc.
1	2.458	2.425	2.510	736	275	2.675	0.000	   			0.000	14952	10.032	0.000	0.000	0.000	0	0	0.000	0.000
2	2.521	2.510	2.568	284	119	2.377	0.000	 V 			0.025	5953	25.199	0.000	0.591	0.000	0	0	0.000	0.000
3	2.616	2.568	2.675	344	98	3.502	0.000	 V 			0.064	9693	15.475	0.000	0.805	2.529	0	0	0.000	0.000
4	2.891	2.796	3.034	52944	14054	3.767	0.783	   	1	N2O	0.176	13100	11.450	1.547	2.653	2.744	0	0	100.000	100.000
5	3.250	3.034	3.877	10444	378	27.656	0.000	 V 			0.322	309	485.586	1.914	0.855	1.831	0	0	0.000	0.000

[Compound Results(Ch1)]
# of IDs	6
ID#	Name	R.Time	Area	Height	Conc.	Curve	3rd	2nd	1st	Constant	Area Ratio	Height Ratio	Conc. %	Norm Conc.
1	CO	1.479	496	315	0.000	Linear	0.000000e+00	0.000000e+00	0.000000e+00	0.000000e+00	0	0	0.000	0.000
2	CH4	1.564	19747	9993	96.269	Linear	0.000000e+00	0.000000e+00	2.051179e+002	0.000000e+00	0	0	19.752	19.752
3	CO2	1.993	2029456	971808	391.114	Linear	0.000000e+00	0.000000e+00	5.188919e+003	0.000000e+00	0	0	80.248	80.248
4	Ethylene	0.000	0	0	0.000	Linear	0.000000e+00	0.000000e+00	0.000000e+00	0.000000e+00	0	0	0.000	0.000
5	Acetylene	0.000	0	0	0.000	Linear	0.000000e+00	0.000000e+00	0.000000e+00	0.000000e+00	0	0	0.000	0.000
6	Ethane	0.000	0	0	0.000	Linear	0.000000e+00	0.000000e+00	0.000000e+00	0.000000e+00	0	0	0.000	0.000

[Compound Results(Ch2)]
# of IDs	5
ID#	Name	R.Time	Area	Height	Conc.	Curve	3rd	2nd	1st	Constant	Area Ratio	Height Ratio	Conc. %	Norm Conc.
1	Hydrogen	0.000	0	0	0.000	Linear	0.000000e+00	0.000000e+00	0.000000e+00	0.000000e+00	0	0	0.000	0.000
2	Oxygen	0.000	0	0	0.000	Linear	0.000000e+00	0.000000e+00	0.000000e+00	0.000000e+00	0	0	0.000	0.000
3	Nitrogen	0.000	0	0	0.000	Linear	0.000000e+00	0.000000e+00	0.000000e+00	0.000000e+00	0	0	0.000	0.000
4	Methane	0.000	0	0	0.000	Linear	0.000000e+00	0.000000e+00	0.000000e+00	0.000000e+00	0	0	0.000	0.000
5	Carbon Monoxide	0.000	0	0	0.000	Linear	0.000000e+00	0.000000e+00	0.000000e+00	0.000000e+00	0	0	0.000	0.000

[Compound Results(Ch3)]
# of IDs	2
ID#	Name	R.Time	Area	Height	Conc.	Curve	3rd	2nd	1st	Constant	Area Ratio	Height Ratio	Conc. %	Norm Conc.
1	N2O	2.891	52944	14054	0.783	Linear	0.000000e+00	0.000000e+00	6.759880e+004	0.000000e+00	0	0	100.000	100.000
2	SF6	0.000	0	0	0.000	Linear	0.000000e+00	0.000000e+00	0.000000e+00	0.000000e+00	0	0	0.000	0.000

[Group Results(Ch1)]
# of Groups	0

[Group Results(Ch2)]
# of Groups	0

[Group Results(Ch3)]
# of Groups	0

[Chromatogram (Ch1)]
Interval(msec)	220
# of Points	1091
Start Time(min)	0.002
End Time(min)	3.998
R.Time (min)	Intensity
0.00167	-10
0.00533	-8
0.00900	-9
0.01267	-11
0.01633	-13
0.02000	-15
0.02367	-16
0.02733	-17
0.03100	-13
0.03467	-8
0.03833	-4
0.04200	-4
0.04567	-7
0.04933	-9
0.05300	-5
0.05667	-3
0.06033	-7
0.06400	-10
0.06767	-7
0.07133	2
0.07500	9
0.07867	12
0.08233	10
0.08600	8
0.08967	8
0.09333	10
0.09700	12
0.10067	15
0.10433	14
0.10800	12
0.11167	10
0.11533	7
0.11900	2
0.12267	-2
0.12633	-7
0.13000	-11
0.13367	-12
0.13733	-9
0.14100	-7
0.14467	-8
0.14833	-13
0.15200	-20
0.15567	-29
0.15933	-33
0.16300	-32
0.16667	-26
0.17033	-18
0.17400	-12
0.17767	-12
0.18133	-13
0.18500	-15
0.18867	-18
0.19233	-21
0.19600	-20
0.19967	-16
0.20333	-12
0.20700	-10
0.21067	-10
0.21433	-11
0.21800	-13
0.22167	-16
0.22533	-20
0.22900	-21
0.23267	-16
0.23633	-12
0.24000	-15
0.24367	-23
0.24733	-33
0.25100	-34
0.25467	-30
0.25833	-28
0.26200	-32
0.26567	-36
0.26933	-41
0.27300	-45
0.27667	-46
0.28033	-44
0.28400	-39
0.28767	-36
0.29133	-32
0.29500	-29
0.29867	-26
0.30233	-23
0.30600	-21
0.30967	-18
0.31333	-14
0.31700	-12
0.32067	-15
0.32433	-21
0.32800	-28
0.33167	-30
0.33533	-31
0.33900	-31
0.34267	-31
0.34633	-31
0.35000	-31
0.35367	-28
0.35733	-24
0.36100	-20
0.36467	-18
0.36833	-17
0.37200	-18
0.37567	-22
0.37933	-26
0.38300	-25
0.38667	-24
0.39033	-24
0.39400	-25
0.39767	-26
0.40133	-23
0.40500	-17
0.40867	-9
0.41233	-3
0.41600	2
0.41967	6
0.42333	7
0.42700	8
0.43067	10
0.43433	7
0.43800	5
0.44167	3
0.44533	-1
0.44900	-7
0.45267	-14
0.45633	-20
0.46000	-21
0.46367	-21
0.46733	-22
0.47100	-25
0.47467	-30
0.47833	-32
0.48200	-27
0.48567	-21
0.48933	-16
0.49300	-11
0.49667	-7
0.50033	-5
0.50400	-5
0.50767	-6
0.51133	-7
0.51500	-7
0.51867	-10
0.52233	-14
0.52600	-23
0.52967	-32
0.53333	-37
0.53700	-40
0.54067	-43
0.54433	-41
0.54800	-39
0.55167	-38
0.55533	-37
0.55900	-36
0.56267	-33
0.56633	-32
0.57000	-30
0.57367	-27
0.57733	-22
0.58100	-19
0.58467	-18
0.58833	-16
0.59200	-15
0.59567	-14
0.59933	-13
0.60300	-14
0.60667	-20
0.61033	-26
0.61400	-31
0.61767	-35
0.62133	-37
0.62500	-38
0.62867	-36
0.63233	-29
0.63600	-23
0.63967	-18
0.64333	-16
0.64700	-16
0.65067	-11
0.65433	-7
0.65800	-12
0.66167	-26
0.66533	-41
0.66900	-52
0.67267	-56
0.67633	-53
0.68000	-46
0.68367	-41
0.68733	-37
0.69100	-33
0.69467	-29
0.69833	-26
0.70200	-27
0.70567	-30
0.70933	-32
0.71300	-35
0.71667	-38
0.72033	-40
0.72400	-42
0.72767	-42
0.73133	-39
0.73500	-33
0.73867	-24
0.74233	-18
0.74600	-18
0.74967	-25
0.75333	-34
0.75700	-42
0.76067	-48
0.76433	-51
0.76800	-47
0.77167	-39
0.77533	-33
0.77900	-34
0.78267	-40
0.78633	-43
0.79000	-40
0.79367	-42
0.79733	-45
0.80100	-48
0.80467	-48
0.80833	-48
0.81200	-46
0.81567	-42
0.81933	-38
0.82300	-35
0.82667	-33
0.83033	-32
0.83400	-30
0.83767	-27
0.84133	-25
0.84500	-26
0.84867	-31
0.85233	-37
0.85600	-39
0.85967	-33
0.86333	-25
0.86700	-21
0.87067	-23
0.87433	-27
0.87800	-33
0.88167	-39
0.88533	-42
0.88900	-44
0.89267	-48
0.89633	-48
0.90000	-47
0.90367	-47
0.90733	-46
0.91100	-44
0.91467	-42
0.91833	-39
0.92200	-35
0.92567	-31
0.92933	-29
0.93300	-28
0.93667	-30
0.94033	-32
0.94400	-35
0.94767	-38
0.95133	-39
0.95500	-41
0.95867	-42
0.96233	-42
0.96600	-44
0.96967	-45
0.97333	-41
0.97700	-32
0.98067	-25
0.98433	-27
0.98800	-34
0.99167	-44
0.99533	-50
0.99900	-51
1.00267	-51
1.00633	-47
1.01000	-45
1.01367	-44
1.01733	-41
1.02100	-38
1.02467	-38
1.02833	-39
1.03200	-40
1.03567	-40
1.03933	-38
1.04300	-38
1.04667	-41
1.05033	-41
1.05400	-39
1.05767	-39
1.06133	-36
1.06500	-33
1.06867	-32
1.07233	-31
1.07600	-30
1.07967	-30
1.08333	-27
1.08700	-24
1.09067	-26
1.09433	-34
1.09800	-41
1.10167	-46
1.10533	-45
1.10900	-38
1.11267	-32
1.11633	-28
1.12000	-27
1.12367	-29
1.12733	-35
1.13100	-41
1.13467	-43
1.13833	-48
1.14200	-54
1.14567	-58
1.14933	-61
1.15300	-60
1.15667	-56
1.16033	-49
1.16400	-43
1.16767	-43
1.17133	-46
1.17500	-48
1.17867	-46
1.18233	-45
1.18600	-45
1.18967	-46
1.19333	-47
1.19700	-48
1.20067	-52
1.20433	-60
1.20800	-68
1.21167	-67
1.21533	-62
1.21900	-54
1.22267	-47
1.22633	-48
1.23000	-52
1.23367	-56
1.23733	-56
1.24100	-52
1.24467	-50
1.24833	-49
1.25200	-48
1.25567	-48
1.25933	-47
1.26300	-47
1.26667	-48
1.27033	-48
1.27400	-48
1.27767	-50
1.28133	-51
1.28500	-50
1.28867	-55
1.29233	-61
1.29600	-65
1.29967	-64
1.30333	-60
1.30700	-53
1.31067	-50
1.31433	-51
1.31800	-54
1.32167	-55
1.32533	-53
1.32900	-52
1.33267	-51
1.33633	-50
1.34000	-49
1.34367	-43
1.34733	-39
1.35100	-41
1.35467	-47
1.35833	-52
1.36200	-56
1.36567	-61
1.36933	-63
1.37300	-63
1.37667	-64
1.38033	-69
1.38400	-73
1.38767	-78
1.39133	-80
1.39500	-77
1.39867	-74
1.40233	-70
1.40600	-65
1.40967	-62
1.41333	-59
1.41700	-58
1.42067	-58
1.42433	-59
1.42800	-63
1.43167	-66
1.43533	-59
1.43900	-38
1.44267	-8
1.44633	-8
1.45000	-30
1.45367	-35
1.45733	-15
1.46100	18
1.46467	61
1.46833	118
1.47200	187
1.47567	248
1.47933	283
1.48300	279
1.48667	240
1.49033	182
1.49400	121
1.49767	66
1.50133	18
1.50500	-23
1.50867	-55
1.51233	-75
1.51600	-88
1.51967	-91
1.52333	-86
1.52700	-79
1.53067	-67
1.53433	13
1.53800	353
1.54167	1240
1.54533	2779
1.54900	4711
1.55267	6620
1.55633	8212
1.56000	9345
1.56367	9909
1.56733	9770
1.57100	8887
1.57467	7448
1.57833	5795
1.58200	4243
1.58567	2971
1.58933	2014
1.59300	1328
1.59667	850
1.60033	523
1.60400	304
1.60767	162
1.61133	73
1.61500	20
1.61867	-10
1.62233	-30
1.62600	-50
1.62967	-67
1.63333	-81
1.63700	-90
1.64067	-93
1.64433	-91
1.64800	-89
1.65167	-87
1.65533	-88
1.65900	-91
1.66267	-91
1.66633	-86
1.67000	-81
1.67367	-77
1.67733	-72
1.68100	-66
1.68467	-61
1.68833	-61
1.69200	-63
1.69567	-69
1.69933	-79
1.70300	-90
1.70667	-103
1.71033	-110
1.71400	-111
1.71767	-109
1.72133	-105
1.72500	-100
1.72867	-94
1.73233	-87
1.73600	-85
1.73967	-83
1.74333	-84
1.74700	-85
1.75067	-86
1.75433	-89
1.75800	-93
1.76167	-98
1.76533	-104
1.76900	-108
1.77267	-108
1.77633	-104
1.78000	-101
1.78367	-100
1.78733	-101
1.79100	-103
1.79467	-106
1.79833	-107
1.80200	-109
1.80567	-107
1.80933	-100
1.81300	-93
1.81667	-89
1.82033	-84
1.82400	-79
1.82767	-75
1.83133	-75
1.83500	-77
1.83867	-77
1.84233	-77
1.84600	-81
1.84967	-89
1.85333	-96
1.85700	-100
1.86067	-101
1.86433	-102
1.86800	-100
1.87167	-97
1.87533	-95
1.87900	-94
1.88267	-90
1.88633	-87
1.89000	-87
1.89367	-89
1.89733	-89
1.90100	-85
1.90467	-80
1.90833	-75
1.91200	-74
1.91567	-73
1.91933	-69
1.92300	-65
1.92667	-63
1.93033	-68
1.93400	-77
1.93767	-82
1.94133	-82
1.94500	-76
1.94867	-41
1.95233	192
1.95600	1532
1.95967	7420
1.96333	26826
1.96700	75836
1.97067	171557
1.97433	318199
1.97800	498757
1.98167	681681
1.98533	835489
1.98900	936768
1.99267	971759
1.99633	937940
2.00000	845176
2.00367	713837
2.00733	568807
2.01100	431492
2.01467	315024
2.01833	223903
2.02200	156638
2.02567	108951
2.02933	76039
2.03300	53686
2.03667	38615
2.04033	28448
2.04400	21542
2.04767	16790
2.05133	13462
2.05500	11082
2.05867	9340
2.06233	8036
2.06600	7033
2.06967	6243
2.07333	5609
2.07700	5087
2.08067	4643
2.08433	4264
2.08800	3935
2.09167	3650
2.09533	3400
2.09900	3176
2.10267	2976
2.10633	2801
2.11000	2645
2.11367	2502
2.11733	2371
2.12100	2254
2.12467	2149
2.12833	2049
2.13200	1952
2.13567	1862
2.13933	1779
2.14300	1705
2.14667	1635
2.15033	1567
2.15400	1506
2.15767	1454
2.16133	1403
2.16500	1350
2.16867	1302
2.17233	1263
2.17600	1226
2.17967	1187
2.18333	1147
2.18700	1111
2.19067	1078
2.19433	1050
2.19800	1024
2.20167	997
2.20533	970
2.20900	941
2.21267	912
2.21633	883
2.22000	855
2.22367	828
2.22733	802
2.23100	781
2.23467	762
2.23833	744
2.24200	727
2.24567	711
2.24933	697
2.25300	683
2.25667	671
2.26033	659
2.26400	646
2.26767	636
2.27133	629
2.27500	622
2.27867	613
2.28233	602
2.28600	587
2.28967	572
2.29333	556
2.29700	540
2.30067	525
2.30433	513
2.30800	501
2.31167	493
2.31533	489
2.31900	485
2.32267	478
2.32633	472
2.33000	465
2.33367	454
2.33733	443
2.34100	435
2.34467	435
2.34833	437
2.35200	436
2.35567	431
2.35933	421
2.36300	412
2.36667	406
2.37033	397
2.37400	384
2.37767	370
2.38133	357
2.38500	346
2.38867	341
2.39233	344
2.39600	352
2.39967	357
2.40333	357
2.40700	353
2.41067	343
2.41433	331
2.41800	321
2.42167	314
2.42533	310
2.42900	307
2.43267	306
2.43633	308
2.44000	314
2.44367	319
2.44733	319
2.45100	318
2.45467	314
2.45833	308
2.46200	302
2.46567	294
2.46933	282
2.47300	271
2.47667	268
2.48033	272
2.48400	277
2.48767	274
2.49133	266
2.49500	258
2.49867	253
2.50233	250
2.50600	251
2.50967	253
2.51333	252
2.51700	249
2.52067	247
2.52433	247
2.52800	247
2.53167	247
2.53533	248
2.53900	252
2.54267	258
2.54633	260
2.55000	256
2.55367	246
2.55733	239
2.56100	235
2.56467	234
2.56833	233
2.57200	232
2.57567	231
2.57933	228
2.58300	222
2.58667	218
2.59033	216
2.59400	216
2.59767	216
2.60133	214
2.60500	211
2.60867	210
2.61233	210
2.61600	212
2.61967	213
2.62333	208
2.62700	203
2.63067	203
2.63433	203
2.63800	207
2.64167	213
2.64533	215
2.64900	213
2.65267	211
2.65633	209
2.66000	206
2.66367	201
2.66733	200
2.67100	201
2.67467	201
2.67833	197
2.68200	193
2.68567	191
2.68933	189
2.69300	185
2.69667	179
2.70033	172
2.70400	169
2.70767	171
2.71133	179
2.71500	184
2.71867	186
2.72233	187
2.72600	187
2.72967	187
2.73333	188
2.73700	188
2.74067	189
2.74433	193
2.74800	198
2.75167	201
2.75533	198
2.75900	190
2.76267	182
2.76633	175
2.77000	171
2.77367	172
2.77733	177
2.78100	185
2.78467	191
2.78833	194
2.79200	191
2.79567	187
2.79933	187
2.80300	187
2.80667	178
2.81033	166
2.81400	155
2.81767	148
2.82133	143
2.82500	139
2.82867	141
2.83233	147
2.83600	156
2.83967	165
2.84333	173
2.84700	181
2.85067	188
2.85433	191
2.85800	190
2.86167	189
2.86533	187
2.86900	185
2.87267	181
2.87633	172
2.88000	166
2.88367	163
2.88733	167
2.89100	176
2.89467	183
2.89833	186
2.90200	187
2.90567	188
2.90933	191
2.91300	191
2.91667	186
2.92033	181
2.92400	174
2.92767	167
2.93133	166
2.93500	169
2.93867	172
2.94233	171
2.94600	167
2.94967	164
2.95333	163
2.95700	166
2.96067	170
2.96433	170
2.96800	167
2.97167	161
2.97533	156
2.97900	153
2.98267	152
2.98633	153
2.99000	153
2.99367	155
2.99733	158
3.00100	162
3.00467	165
3.00833	171
3.01200	181
3.01567	185
3.01933	182
3.02300	173
3.02667	163
3.03033	156
3.03400	156
3.03767	158
3.04133	159
3.04500	157
3.04867	153
3.05233	151
3.05600	150
3.05967	151
3.06333	150
3.06700	146
3.07067	145
3.07433	144
3.07800	144
3.08167	143
3.08533	142
3.08900	141
3.09267	141
3.09633	141
3.10000	142
3.10367	145
3.10733	145
3.11100	146
3.11467	149
3.11833	151
3.12200	151
3.12567	148
3.12933	149
3.13300	152
3.13667	158
3.14033	163
3.14400	168
3.14767	170
3.15133	168
3.15500	163
3.15867	151
3.16233	137
3.16600	126
3.16967	122
3.17333	122
3.17700	124
3.18067	128
3.18433	139
3.18800	155
3.19167	168
3.19533	170
3.19900	162
3.20267	150
3.20633	141
3.21000	138
3.21367	137
3.21733	139
3.22100	141
3.22467	139
3.22833	139
3.23200	139
3.23567	137
3.23933	133
3.24300	133
3.24667	135
3.25033	139
3.25400	142
3.25767	144
3.26133	143
3.26500	137
3.26867	129
3.27233	125
3.27600	128
3.27967	136
3.28333	142
3.28700	149
3.29067	154
3.29433	158
3.29800	157
3.30167	152
3.30533	147
3.30900	145
3.31267	142
3.31633	137
3.32000	131
3.32367	125
3.32733	119
3.33100	113
3.33467	107
3.33833	100
3.34200	95
3.34567	94
3.34933	96
3.35300	106
3.35667	118
3.36033	120
3.36400	114
3.36767	104
3.37133	97
3.37500	94
3.37867	97
3.38233	106
3.38600	119
3.38967	127
3.39333	128
3.39700	125
3.40067	122
3.40433	120
3.40800	119
3.41167	117
3.41533	112
3.41900	111
3.42267	113
3.42633	113
3.43000	110
3.43367	107
3.43733	104
3.44100	102
3.44467	105
3.44833	108
3.45200	110
3.45567	114
3.45933	117
3.46300	120
3.46667	122
3.47033	125
3.47400	125
3.47767	122
3.48133	119
3.48500	118
3.48867	116
3.49233	109
3.49600	104
3.49967	102
3.50333	101
3.50700	106
3.51067	114
3.51433	122
3.51800	125
3.52167	124
3.52533	118
3.52900	112
3.53267	110
3.53633	107
3.54000	106
3.54367	104
3.54733	100
3.55100	99
3.55467	97
3.55833	95
3.56200	92
3.56567	90
3.56933	88
3.57300	88
3.57667	90
3.58033	95
3.58400	101
3.58767	104
3.59133	104
3.59500	104
3.59867	106
3.60233	108
3.60600	108
3.60967	104
3.61333	99
3.61700	94
3.62067	90
3.62433	85
3.62800	83
3.63167	82
3.63533	81
3.63900	84
3.64267	85
3.64633	83
3.65000	84
3.65367	85
3.65733	86
3.66100	87
3.66467	87
3.66833	88
3.67200	93
3.67567	96
3.67933	97
3.68300	95
3.68667	91
3.69033	88
3.69400	87
3.69767	86
3.70133	85
3.70500	86
3.70867	89
3.71233	93
3.71600	99
3.71967	102
3.72333	102
3.72700	97
3.73067	89
3.73433	81
3.73800	74
3.74167	71
3.74533	72
3.74900	77
3.75267	82
3.75633	84
3.76000	86
3.76367	89
3.76733	91
3.77100	88
3.77467	83
3.77833	81
3.78200	82
3.78567	84
3.78933	82
3.79300	81
3.79667	78
3.80033	73
3.80400	69
3.80767	67
3.81133	69
3.81500	68
3.81867	69
3.82233	74
3.82600	78
3.82967	81
3.83333	83
3.83700	84
3.84067	84
3.84433	84
3.84800	83
3.85167	79
3.85533	74
3.85900	68
3.86267	69
3.86633	74
3.87000	82
3.87367	93
3.87733	101
3.88100	102
3.88467	100
3.88833	92
3.89200	83
3.89567	74
3.89933	65
3.90300	60
3.90667	59
3.91033	61
3.91400	64
3.91767	68
3.92133	73
3.92500	76
3.92867	74
3.93233	71
3.93600	64
3.93967	58
3.94333	56
3.94700	55
3.95067	58
3.95433	63
3.95800	69
3.96167	77
3.96533	82
3.96900	82
3.97267	77
3.97633	69
3.98000	62
3.98367	59
3.98733	60
3.99100	64
3.99467	68
3.99833	73

[Chromatogram (Ch2)]
Interval(msec)	220
# of Points	1091
Start Time(min)	0.002
End Time(min)	3.998
R.Time (min)	Intensity
0.00167	0
0.00533	1
0.00900	1
0.01267	1
0.01633	1
0.02000	1
0.02367	2
0.02733	2
0.03100	2
0.03467	2
0.03833	2
0.04200	2
0.04567	2
0.04933	3
0.05300	3
0.05667	3
0.06033	3
0.06400	3
0.06767	3
0.07133	3
0.07500	3
0.07867	3
0.08233	3
0.08600	3
0.08967	3
0.09333	3
0.09700	3
0.10067	3
0.10433	3
0.10800	3
0.11167	3
0.11533	3
0.11900	3
0.12267	3
0.12633	3
0.13000	3
0.13367	3
0.13733	2
0.14100	2
0.14467	2
0.14833	2
0.15200	2
0.15567	2
0.15933	2
0.16300	2
0.16667	2
0.17033	2
0.17400	2
0.17767	2
0.18133	2
0.18500	1
0.18867	1
0.19233	2
0.19600	2
0.19967	2
0.20333	2
0.20700	2
0.21067	2
0.21433	1
0.21800	1
0.22167	1
0.22533	1
0.22900	1
0.23267	1
0.23633	1
0.24000	1
0.24367	1
0.24733	2
0.25100	2
0.25467	2
0.25833	2
0.26200	2
0.26567	2
0.26933	2
0.27300	2
0.27667	3
0.28033	3
0.28400	3
0.28767	4
0.29133	4
0.29500	4
0.29867	4
0.30233	4
0.30600	3
0.30967	3
0.31333	3
0.31700	3
0.32067	3
0.32433	3
0.32800	3
0.33167	3
0.33533	3
0.33900	3
0.34267	3
0.34633	2
0.35000	2
0.35367	2
0.35733	1
0.36100	1
0.36467	1
0.36833	1
0.37200	1
0.37567	0
0.37933	0
0.38300	-0
0.38667	-0
0.39033	-0
0.39400	-0
0.39767	-0
0.40133	-0
0.40500	-0
0.40867	-0
0.41233	-0
0.41600	-0
0.41967	-0
0.42333	-0
0.42700	-0
0.43067	-0
0.43433	0
0.43800	0
0.44167	0
0.44533	0
0.44900	0
0.45267	1
0.45633	1
0.46000	1
0.46367	2
0.46733	2
0.47100	2
0.47467	3
0.47833	3
0.48200	3
0.48567	3
0.48933	3
0.49300	2
0.49667	2
0.50033	2
0.50400	2
0.50767	2
0.51133	2
0.51500	2
0.51867	2
0.52233	2
0.52600	2
0.52967	2
0.53333	2
0.53700	2
0.54067	2
0.54433	2
0.54800	2
0.55167	2
0.55533	2
0.55900	1
0.56267	1
0.56633	1
0.57000	1
0.57367	2
0.57733	2
0.58100	2
0.58467	2
0.58833	2
0.59200	2
0.59567	2
0.59933	3
0.60300	3
0.60667	3
0.61033	3
0.61400	3
0.61767	3
0.62133	3
0.62500	3
0.62867	2
0.63233	2
0.63600	2
0.63967	2
0.64333	2
0.64700	2
0.65067	2
0.65433	2
0.65800	2
0.66167	2
0.66533	2
0.66900	2
0.67267	1
0.67633	1
0.68000	1
0.68367	1
0.68733	1
0.69100	1
0.69467	1
0.69833	1
0.70200	1
0.70567	0
0.70933	0
0.71300	0
0.71667	0
0.72033	0
0.72400	0
0.72767	0
0.73133	0
0.73500	1
0.73867	1
0.74233	1
0.74600	1
0.74967	1
0.75333	1
0.75700	0
0.76067	-0
0.76433	-0
0.76800	-1
0.77167	-1
0.77533	-1
0.77900	-1
0.78267	-1
0.78633	-1
0.79000	-1
0.79367	-1
0.79733	-1
0.80100	-1
0.80467	-1
0.80833	-1
0.81200	-1
0.81567	-1
0.81933	-1
0.82300	-1
0.82667	-1
0.83033	-1
0.83400	-1
0.83767	-1
0.84133	-1
0.84500	-1
0.84867	-1
0.85233	-0
0.85600	-0
0.85967	-0
0.86333	0
0.86700	0
0.87067	0
0.87433	0
0.87800	0
0.88167	0
0.88533	0
0.88900	0
0.89267	1
0.89633	1
0.90000	1
0.90367	2
0.90733	2
0.91100	2
0.91467	3
0.91833	3
0.92200	3
0.92567	3
0.92933	3
0.93300	3
0.93667	4
0.94033	4
0.94400	4
0.94767	4
0.95133	4
0.95500	4
0.95867	4
0.96233	4
0.96600	4
0.96967	4
0.97333	3
0.97700	3
0.98067	3
0.98433	3
0.98800	3
0.99167	3
0.99533	3
0.99900	3
1.00267	3
1.00633	2
1.01000	2
1.01367	2
1.01733	1
1.02100	1
1.02467	1
1.02833	1
1.03200	1
1.03567	2
1.03933	2
1.04300	2
1.04667	2
1.05033	2
1.05400	2
1.05767	2
1.06133	1
1.06500	1
1.06867	1
1.07233	1
1.07600	1
1.07967	1
1.08333	1
1.08700	1
1.09067	1
1.09433	1
1.09800	1
1.10167	0
1.10533	0
1.10900	0
1.11267	-0
1.11633	-0
1.12000	-1
1.12367	-1
1.12733	-2
1.13100	-2
1.13467	-2
1.13833	-2
1.14200	-2
1.14567	-2
1.14933	-1
1.15300	-1
1.15667	-1
1.16033	-0
1.16400	0
1.16767	0
1.17133	1
1.17500	1
1.17867	1
1.18233	2
1.18600	2
1.18967	2
1.19333	2
1.19700	3
1.20067	3
1.20433	3
1.20800	3
1.21167	4
1.21533	4
1.21900	4
1.22267	4
1.22633	4
1.23000	4
1.23367	4
1.23733	3
1.24100	3
1.24467	3
1.24833	3
1.25200	2
1.25567	2
1.25933	1
1.26300	1
1.26667	0
1.27033	0
1.27400	-0
1.27767	-0
1.28133	-0
1.28500	-0
1.28867	-1
1.29233	-1
1.29600	-1
1.29967	-1
1.30333	-1
1.30700	-1
1.31067	-1
1.31433	-1
1.31800	-1
1.32167	-1
1.32533	-1
1.32900	-0
1.33267	0
1.33633	0
1.34000	0
1.34367	0
1.34733	0
1.35100	1
1.35467	1
1.35833	1
1.36200	1
1.36567	1
1.36933	1
1.37300	1
1.37667	1
1.38033	1
1.38400	1
1.38767	1
1.39133	1
1.39500	1
1.39867	1
1.40233	1
1.40600	1
1.40967	1
1.41333	1
1.41700	0
1.42067	0
1.42433	0
1.42800	0
1.43167	0
1.43533	0
1.43900	0
1.44267	0
1.44633	-0
1.45000	-0
1.45367	-0
1.45733	-0
1.46100	-0
1.46467	-0
1.46833	-0
1.47200	-0
1.47567	-1
1.47933	-1
1.48300	-1
1.48667	-1
1.49033	-1
1.49400	-2
1.49767	-2
1.50133	-2
1.50500	-2
1.50867	-2
1.51233	-2
1.51600	-2
1.51967	-2
1.52333	-2
1.52700	-3
1.53067	-3
1.53433	-3
1.53800	-4
1.54167	-4
1.54533	-4
1.54900	-4
1.55267	-4
1.55633	-4
1.56000	-3
1.56367	-3
1.56733	-2
1.57100	-2
1.57467	-2
1.57833	-2
1.58200	-1
1.58567	-1
1.58933	-1
1.59300	-1
1.59667	-1
1.60033	-2
1.60400	-2
1.60767	-3
1.61133	-5
1.61500	-7
1.61867	-9
1.62233	-11
1.62600	-13
1.62967	-16
1.63333	-19
1.63700	-22
1.64067	-26
1.64433	-29
1.64800	-33
1.65167	-36
1.65533	-40
1.65900	-43
1.66267	-47
1.66633	-51
1.67000	-55
1.67367	-60
1.67733	-65
1.68100	-69
1.68467	-74
1.68833	-78
1.69200	-82
1.69567	-85
1.69933	-88
1.70300	-90
1.70667	-92
1.71033	-93
1.71400	-94
1.71767	-96
1.72133	-97
1.72500	-98
1.72867	-98
1.73233	-99
1.73600	-99
1.73967	-99
1.74333	-99
1.74700	-99
1.75067	-99
1.75433	-99
1.75800	-98
1.76167	-98
1.76533	-97
1.76900	-97
1.77267	-96
1.77633	-97
1.78000	-98
1.78367	-99
1.78733	-100
1.79100	-101
1.79467	-103
1.79833	-103
1.80200	-104
1.80567	-104
1.80933	-105
1.81300	-105
1.81667	-105
1.82033	-105
1.82400	-104
1.82767	-104
1.83133	-104
1.83500	-104
1.83867	-104
1.84233	-104
1.84600	-105
1.84967	-104
1.85333	-104
1.85700	-103
1.86067	-102
1.86433	-101
1.86800	-100
1.87167	-100
1.87533	-100
1.87900	-100
1.88267	-100
1.88633	-100
1.89000	-100
1.89367	-100
1.89733	-100
1.90100	-100
1.90467	-100
1.90833	-100
1.91200	-100
1.91567	-100
1.91933	-100
1.92300	-100
1.92667	-100
1.93033	-100
1.93400	-100
1.93767	-100
1.94133	-100
1.94500	-99
1.94867	-98
1.95233	-98
1.95600	-97
1.95967	-96
1.96333	-96
1.96700	-96
1.97067	-97
1.97433	-97
1.97800	-97
1.98167	-96
1.98533	-96
1.98900	-96
1.99267	-95
1.99633	-95
2.00000	-94
2.00367	-94
2.00733	-94
2.01100	-94
2.01467	-94
2.01833	-94
2.02200	-94
2.02567	-94
2.02933	-93
2.03300	-93
2.03667	-92
2.04033	-92
2.04400	-92
2.04767	-92
2.05133	-92
2.05500	-92
2.05867	-93
2.06233	-93
2.06600	-92
2.06967	-92
2.07333	-91
2.07700	-91
2.08067	-90
2.08433	-89
2.08800	-88
2.09167	-87
2.09533	-88
2.09900	-88
2.10267	-88
2.10633	-88
2.11000	-88
2.11367	-87
2.11733	-87
2.12100	-87
2.12467	-86
2.12833	-86
2.13200	-86
2.13567	-86
2.13933	-86
2.14300	-86
2.14667	-86
2.15033	-86
2.15400	-86
2.15767	-85
2.16133	-85
2.16500	-85
2.16867	-84
2.17233	-84
2.17600	-84
2.17967	-84
2.18333	-83
2.18700	-82
2.19067	-82
2.19433	-81
2.19800	-80
2.20167	-80
2.20533	-80
2.20900	-80
2.21267	-79
2.21633	-79
2.22000	-79
2.22367	-79
2.22733	-79
2.23100	-78
2.23467	-78
2.23833	-77
2.24200	-76
2.24567	-75
2.24933	-74
2.25300	-74
2.25667	-73
2.26033	-73
2.26400	-73
2.26767	-73
2.27133	-72
2.27500	-72
2.27867	-72
2.28233	-72
2.28600	-72
2.28967	-73
2.29333	-73
2.29700	-73
2.30067	-73
2.30433	-72
2.30800	-72
2.31167	-72
2.31533	-71
2.31900	-71
2.32267	-71
2.32633	-70
2.33000	-70
2.33367	-70
2.33733	-69
2.34100	-69
2.34467	-68
2.34833	-68
2.35200	-68
2.35567	-68
2.35933	-68
2.36300	-67
2.36667	-65
2.37033	-62
2.37400	-59
2.37767	-56
2.38133	-52
2.38500	-48
2.38867	-44
2.39233	-40
2.39600	-36
2.39967	-31
2.40333	-27
2.40700	-22
2.41067	-18
2.41433	-14
2.41800	-11
2.42167	-8
2.42533	-6
2.42900	-3
2.43267	-1
2.43633	0
2.44000	2
2.44367	4
2.44733	5
2.45100	7
2.45467	8
2.45833	9
2.46200	10
2.46567	10
2.46933	11
2.47300	12
2.47667	13
2.48033	14
2.48400	14
2.48767	15
2.49133	16
2.49500	16
2.49867	17
2.50233	17
2.50600	16
2.50967	16
2.51333	15
2.51700	14
2.52067	13
2.52433	13
2.52800	12
2.53167	12
2.53533	12
2.53900	12
2.54267	12
2.54633	12
2.55000	13
2.55367	13
2.55733	13
2.56100	14
2.56467	15
2.56833	16
2.57200	16
2.57567	17
2.57933	18
2.58300	18
2.58667	18
2.59033	19
2.59400	19
2.59767	19
2.60133	20
2.60500	20
2.60867	21
2.61233	21
2.61600	22
2.61967	23
2.62333	23
2.62700	23
2.63067	23
2.63433	24
2.63800	24
2.64167	24
2.64533	24
2.64900	24
2.65267	24
2.65633	24
2.66000	24
2.66367	24
2.66733	24
2.67100	24
2.67467	24
2.67833	25
2.68200	25
2.68567	25
2.68933	25
2.69300	24
2.69667	24
2.70033	24
2.70400	24
2.70767	24
2.71133	24
2.71500	24
2.71867	24
2.72233	25
2.72600	25
2.72967	26
2.73333	27
2.73700	28
2.74067	28
2.74433	29
2.74800	29
2.75167	29
2.75533	29
2.75900	29
2.76267	29
2.76633	29
2.77000	28
2.77367	28
2.77733	27
2.78100	27
2.78467	27
2.78833	27
2.79200	27
2.79567	28
2.79933	28
2.80300	28
2.80667	29
2.81033	29
2.81400	29
2.81767	30
2.82133	30
2.82500	30
2.82867	30
2.83233	30
2.83600	30
2.83967	30
2.84333	30
2.84700	30
2.85067	30
2.85433	30
2.85800	29
2.86167	28
2.86533	25
2.86900	19
2.87267	11
2.87633	-2
2.88000	-19
2.88367	-41
2.88733	-70
2.89100	-104
2.89467	-146
2.89833	-193
2.90200	-247
2.90567	-307
2.90933	-372
2.91300	-443
2.91667	-518
2.92033	-598
2.92400	-681
2.92767	-768
2.93133	-858
2.93500	-951
2.93867	-1047
2.94233	-1145
2.94600	-1245
2.94967	-1347
2.95333	-1443
2.95700	-1522
2.96067	-1569
2.96433	-1579
2.96800	-1550
2.97167	-1490
2.97533	-1404
2.97900	-1301
2.98267	-1190
2.98633	-1075
2.99000	-962
2.99367	-854
2.99733	-752
3.00100	-659
3.00467	-574
3.00833	-498
3.01200	-430
3.01567	-371
3.01933	-318
3.02300	-272
3.02667	-232
3.03033	-198
3.03400	-168
3.03767	-142
3.04133	-120
3.04500	-101
3.04867	-85
3.05233	-71
3.05600	-59
3.05967	-49
3.06333	-40
3.06700	-32
3.07067	-26
3.07433	-20
3.07800	-15
3.08167	-11
3.08533	-8
3.08900	-6
3.09267	-3
3.09633	-1
3.10000	1
3.10367	2
3.10733	4
3.11100	5
3.11467	6
3.11833	7
3.12200	8
3.12567	9
3.12933	10
3.13300	11
3.13667	11
3.14033	12
3.14400	12
3.14767	13
3.15133	14
3.15500	14
3.15867	15
3.16233	15
3.16600	16
3.16967	17
3.17333	17
3.17700	18
3.18067	19
3.18433	19
3.18800	19
3.19167	20
3.19533	20
3.19900	20
3.20267	20
3.20633	21
3.21000	21
3.21367	21
3.21733	21
3.22100	22
3.22467	22
3.22833	22
3.23200	22
3.23567	22
3.23933	22
3.24300	23
3.24667	23
3.25033	23
3.25400	23
3.25767	23
3.26133	23
3.26500	24
3.26867	24
3.27233	24
3.27600	24
3.27967	25
3.28333	25
3.28700	26
3.29067	26
3.29433	26
3.29800	26
3.30167	26
3.30533	27
3.30900	27
3.31267	27
3.31633	27
3.32000	27
3.32367	27
3.32733	27
3.33100	27
3.33467	27
3.33833	27
3.34200	27
3.34567	27
3.34933	27
3.35300	27
3.35667	27
3.36033	27
3.36400	27
3.36767	28
3.37133	28
3.37500	28
3.37867	28
3.38233	28
3.38600	28
3.38967	28
3.39333	28
3.39700	29
3.40067	29
3.40433	29
3.40800	29
3.41167	29
3.41533	29
3.41900	29
3.42267	29
3.42633	29
3.43000	29
3.43367	29
3.43733	29
3.44100	29
3.44467	29
3.44833	29
3.45200	29
3.45567	29
3.45933	29
3.46300	29
3.46667	29
3.47033	29
3.47400	29
3.47767	29
3.48133	29
3.48500	29
3.48867	29
3.49233	29
3.49600	29
3.49967	29
3.50333	29
3.50700	29
3.51067	29
3.51433	29
3.51800	29
3.52167	29
3.52533	29
3.52900	29
3.53267	29
3.53633	29
3.54000	29
3.54367	29
3.54733	29
3.55100	29
3.55467	29
3.55833	29
3.56200	29
3.56567	30
3.56933	30
3.57300	30
3.57667	30
3.58033	30
3.58400	30
3.58767	30
3.59133	30
3.59500	30
3.59867	30
3.60233	30
3.60600	30
3.60967	30
3.61333	29
3.61700	29
3.62067	29
3.62433	29
3.62800	29
3.63167	29
3.63533	29
3.63900	29
3.64267	29
3.64633	29
3.65000	30
3.65367	30
3.65733	30
3.66100	30
3.66467	30
3.66833	30
3.67200	30
3.67567	30
3.67933	30
3.68300	30
3.68667	30
3.69033	30
3.69400	30
3.69767	30
3.70133	30
3.70500	30
3.70867	30
3.71233	30
3.71600	30
3.71967	30
3.72333	30
3.72700	30
3.73067	30
3.73433	30
3.73800	29
3.74167	29
3.74533	29
3.74900	29
3.75267	29
3.75633	29
3.76000	28
3.76367	28
3.76733	29
3.77100	29
3.77467	28
3.77833	28
3.78200	28
3.78567	28
3.78933	28
3.79300	28
3.79667	28
3.80033	28
3.80400	28
3.80767	28
3.81133	28
3.81500	28
3.81867	28
3.82233	28
3.82600	28
3.82967	28
3.83333	28
3.83700	28
3.84067	28
3.84433	28
3.84800	28
3.85167	28
3.85533	28
3.85900	28
3.86267	28
3.86633	28
3.87000	28
3.87367	28
3.87733	28
3.88100	29
3.88467	29
3.88833	29
3.89200	29
3.89567	29
3.89933	29
3.90300	30
3.90667	30
3.91033	30
3.91400	30
3.91767	31
3.92133	31
3.92500	31
3.92867	31
3.93233	31
3.93600	31
3.93967	31
3.94333	31
3.94700	31
3.95067	31
3.95433	31
3.95800	31
3.96167	31
3.96533	31
3.96900	31
3.97267	31
3.97633	31
3.98000	30
3.98367	30
3.98733	30
3.99100	30
3.99467	30
3.99833	30

[Chromatogram (Ch3)]
Interval(msec)	220
# of Points	1091
Start Time(min)	0.002
End Time(min)	3.998
R.Time (min)	Intensity
0.00167	1
0.00533	0
0.00900	0
0.01267	1
0.01633	1
0.02000	-1
0.02367	-3
0.02733	-5
0.03100	-6
0.03467	-7
0.03833	-7
0.04200	-5
0.04567	-3
0.04933	0
0.05300	2
0.05667	3
0.06033	3
0.06400	2
0.06767	-0
0.07133	-4
0.07500	-6
0.07867	-7
0.08233	-8
0.08600	-5
0.08967	-2
0.09333	-1
0.09700	-1
0.10067	1
0.10433	3
0.10800	5
0.11167	4
0.11533	4
0.11900	3
0.12267	1
0.12633	-1
0.13000	-1
0.13367	0
0.13733	0
0.14100	0
0.14467	-2
0.14833	-3
0.15200	-3
0.15567	-2
0.15933	-2
0.16300	-3
0.16667	-2
0.17033	-1
0.17400	-1
0.17767	-1
0.18133	0
0.18500	2
0.18867	2
0.19233	1
0.19600	-0
0.19967	-1
0.20333	-2
0.20700	-5
0.21067	-6
0.21433	-6
0.21800	-5
0.22167	-4
0.22533	-1
0.22900	-0
0.23267	1
0.23633	1
0.24000	1
0.24367	0
0.24733	-0
0.25100	1
0.25467	2
0.25833	5
0.26200	7
0.26567	9
0.26933	10
0.27300	8
0.27667	6
0.28033	4
0.28400	3
0.28767	4
0.29133	3
0.29500	2
0.29867	3
0.30233	3
0.30600	4
0.30967	8
0.31333	10
0.31700	12
0.32067	12
0.32433	9
0.32800	6
0.33167	6
0.33533	7
0.33900	8
0.34267	8
0.34633	5
0.35000	5
0.35367	4
0.35733	4
0.36100	4
0.36467	4
0.36833	6
0.37200	4
0.37567	3
0.37933	4
0.38300	4
0.38667	6
0.39033	8
0.39400	7
0.39767	3
0.40133	4
0.40500	7
0.40867	6
0.41233	5
0.41600	4
0.41967	5
0.42333	7
0.42700	9
0.43067	9
0.43433	9
0.43800	8
0.44167	7
0.44533	7
0.44900	7
0.45267	7
0.45633	7
0.46000	7
0.46367	6
0.46733	5
0.47100	4
0.47467	3
0.47833	4
0.48200	6
0.48567	7
0.48933	8
0.49300	8
0.49667	7
0.50033	4
0.50400	4
0.50767	4
0.51133	6
0.51500	7
0.51867	6
0.52233	6
0.52600	8
0.52967	10
0.53333	11
0.53700	11
0.54067	9
0.54433	8
0.54800	7
0.55167	7
0.55533	8
0.55900	10
0.56267	11
0.56633	12
0.57000	14
0.57367	15
0.57733	14
0.58100	12
0.58467	12
0.58833	10
0.59200	9
0.59567	8
0.59933	10
0.60300	12
0.60667	12
0.61033	11
0.61400	11
0.61767	12
0.62133	12
0.62500	10
0.62867	9
0.63233	9
0.63600	11
0.63967	15
0.64333	17
0.64700	17
0.65067	17
0.65433	16
0.65800	15
0.66167	14
0.66533	12
0.66900	11
0.67267	11
0.67633	13
0.68000	13
0.68367	13
0.68733	12
0.69100	12
0.69467	12
0.69833	11
0.70200	10
0.70567	8
0.70933	7
0.71300	5
0.71667	7
0.72033	10
0.72400	12
0.72767	11
0.73133	12
0.73500	14
0.73867	16
0.74233	16
0.74600	17
0.74967	18
0.75333	16
0.75700	16
0.76067	14
0.76433	13
0.76800	13
0.77167	13
0.77533	14
0.77900	15
0.78267	15
0.78633	15
0.79000	15
0.79367	16
0.79733	16
0.80100	15
0.80467	14
0.80833	12
0.81200	15
0.81567	17
0.81933	20
0.82300	20
0.82667	22
0.83033	22
0.83400	20
0.83767	19
0.84133	18
0.84500	19
0.84867	22
0.85233	22
0.85600	21
0.85967	21
0.86333	20
0.86700	18
0.87067	17
0.87433	16
0.87800	17
0.88167	21
0.88533	22
0.88900	22
0.89267	22
0.89633	21
0.90000	18
0.90367	16
0.90733	15
0.91100	16
0.91467	17
0.91833	18
0.92200	19
0.92567	18
0.92933	18
0.93300	17
0.93667	17
0.94033	17
0.94400	17
0.94767	18
0.95133	20
0.95500	22
0.95867	23
0.96233	25
0.96600	22
0.96967	20
0.97333	18
0.97700	17
0.98067	17
0.98433	18
0.98800	20
0.99167	21
0.99533	22
0.99900	21
1.00267	22
1.00633	20
1.01000	19
1.01367	17
1.01733	17
1.02100	18
1.02467	19
1.02833	19
1.03200	21
1.03567	22
1.03933	23
1.04300	23
1.04667	21
1.05033	18
1.05400	16
1.05767	17
1.06133	16
1.06500	15
1.06867	17
1.07233	19
1.07600	21
1.07967	21
1.08333	19
1.08700	18
1.09067	19
1.09433	19
1.09800	19
1.10167	19
1.10533	17
1.10900	17
1.11267	21
1.11633	26
1.12000	30
1.12367	31
1.12733	32
1.13100	31
1.13467	28
1.13833	26
1.14200	26
1.14567	26
1.14933	25
1.15300	25
1.15667	22
1.16033	20
1.16400	17
1.16767	18
1.17133	17
1.17500	18
1.17867	19
1.18233	20
1.18600	21
1.18967	21
1.19333	20
1.19700	20
1.20067	20
1.20433	21
1.20800	22
1.21167	23
1.21533	22
1.21900	21
1.22267	21
1.22633	21
1.23000	21
1.23367	22
1.23733	22
1.24100	22
1.24467	21
1.24833	21
1.25200	21
1.25567	21
1.25933	23
1.26300	24
1.26667	26
1.27033	27
1.27400	27
1.27767	28
1.28133	29
1.28500	26
1.28867	25
1.29233	23
1.29600	21
1.29967	19
1.30333	20
1.30700	23
1.31067	24
1.31433	25
1.31800	26
1.32167	24
1.32533	22
1.32900	22
1.33267	22
1.33633	21
1.34000	20
1.34367	19
1.34733	20
1.35100	22
1.35467	21
1.35833	19
1.36200	18
1.36567	20
1.36933	23
1.37300	23
1.37667	26
1.38033	26
1.38400	27
1.38767	26
1.39133	25
1.39500	23
1.39867	21
1.40233	21
1.40600	19
1.40967	19
1.41333	20
1.41700	20
1.42067	18
1.42433	19
1.42800	19
1.43167	20
1.43533	21
1.43900	23
1.44267	24
1.44633	23
1.45000	21
1.45367	19
1.45733	18
1.46100	18
1.46467	19
1.46833	21
1.47200	22
1.47567	22
1.47933	23
1.48300	24
1.48667	26
1.49033	28
1.49400	30
1.49767	29
1.50133	27
1.50500	25
1.50867	24
1.51233	25
1.51600	26
1.51967	26
1.52333	27
1.52700	27
1.53067	26
1.53433	25
1.53800	23
1.54167	22
1.54533	22
1.54900	23
1.55267	23
1.55633	21
1.56000	21
1.56367	21
1.56733	20
1.57100	21
1.57467	22
1.57833	23
1.58200	24
1.58567	22
1.58933	20
1.59300	18
1.59667	19
1.60033	20
1.60400	20
1.60767	19
1.61133	19
1.61500	19
1.61867	21
1.62233	22
1.62600	22
1.62967	21
1.63333	22
1.63700	22
1.64067	22
1.64433	24
1.64800	26
1.65167	28
1.65533	27
1.65900	27
1.66267	29
1.66633	30
1.67000	29
1.67367	28
1.67733	26
1.68100	27
1.68467	28
1.68833	29
1.69200	27
1.69567	27
1.69933	30
1.70300	33
1.70667	34
1.71033	34
1.71400	36
1.71767	38
1.72133	39
1.72500	37
1.72867	34
1.73233	34
1.73600	34
1.73967	35
1.74333	35
1.74700	34
1.75067	34
1.75433	34
1.75800	35
1.76167	35
1.76533	34
1.76900	35
1.77267	34
1.77633	34
1.78000	34
1.78367	35
1.78733	36
1.79100	37
1.79467	40
1.79833	42
1.80200	43
1.80567	44
1.80933	45
1.81300	45
1.81667	46
1.82033	48
1.82400	50
1.82767	50
1.83133	50
1.83500	49
1.83867	46
1.84233	43
1.84600	43
1.84967	44
1.85333	46
1.85700	48
1.86067	50
1.86433	50
1.86800	50
1.87167	51
1.87533	51
1.87900	51
1.88267	50
1.88633	53
1.89000	55
1.89367	53
1.89733	53
1.90100	52
1.90467	52
1.90833	53
1.91200	55
1.91567	54
1.91933	55
1.92300	57
1.92667	57
1.93033	58
1.93400	57
1.93767	56
1.94133	55
1.94500	57
1.94867	59
1.95233	61
1.95600	63
1.95967	63
1.96333	62
1.96700	63
1.97067	63
1.97433	65
1.97800	65
1.98167	67
1.98533	68
1.98900	66
1.99267	66
1.99633	66
2.00000	68
2.00367	71
2.00733	73
2.01100	76
2.01467	78
2.01833	81
2.02200	82
2.02567	84
2.02933	85
2.03300	84
2.03667	84
2.04033	85
2.04400	85
2.04767	85
2.05133	87
2.05500	89
2.05867	90
2.06233	90
2.06600	92
2.06967	94
2.07333	95
2.07700	93
2.08067	93
2.08433	95
2.08800	95
2.09167	96
2.09533	97
2.09900	97
2.10267	96
2.10633	96
2.11000	96
2.11367	98
2.11733	100
2.12100	103
2.12467	103
2.12833	102
2.13200	101
2.13567	101
2.13933	101
2.14300	103
2.14667	105
2.15033	108
2.15400	109
2.15767	110
2.16133	110
2.16500	111
2.16867	111
2.17233	112
2.17600	114
2.17967	113
2.18333	112
2.18700	111
2.19067	111
2.19433	111
2.19800	115
2.20167	116
2.20533	118
2.20900	118
2.21267	119
2.21633	118
2.22000	118
2.22367	120
2.22733	123
2.23100	126
2.23467	128
2.23833	127
2.24200	125
2.24567	126
2.24933	127
2.25300	129
2.25667	130
2.26033	130
2.26400	129
2.26767	127
2.27133	128
2.27500	129
2.27867	129
2.28233	130
2.28600	133
2.28967	135
2.29333	136
2.29700	139
2.30067	140
2.30433	139
2.30800	140
2.31167	140
2.31533	138
2.31900	136
2.32267	137
2.32633	138
2.33000	137
2.33367	136
2.33733	135
2.34100	134
2.34467	135
2.34833	135
2.35200	134
2.35567	135
2.35933	139
2.36300	141
2.36667	140
2.37033	139
2.37400	139
2.37767	139
2.38133	139
2.38500	138
2.38867	138
2.39233	137
2.39600	140
2.39967	142
2.40333	144
2.40700	144
2.41067	143
2.41433	141
2.41800	140
2.42167	140
2.42533	140
2.42900	142
2.43267	142
2.43633	141
2.44000	147
2.44367	186
2.44733	262
2.45100	335
2.45467	389
2.45833	408
2.46200	400
2.46567	386
2.46933	377
2.47300	370
2.47667	356
2.48033	333
2.48400	305
2.48767	280
2.49133	261
2.49500	246
2.49867	236
2.50233	230
2.50600	228
2.50967	229
2.51333	234
2.51700	237
2.52067	237
2.52433	234
2.52800	228
2.53167	220
2.53533	207
2.53900	194
2.54267	182
2.54633	172
2.55000	164
2.55367	158
2.55733	153
2.56100	151
2.56467	150
2.56833	148
2.57200	150
2.57567	150
2.57933	150
2.58300	153
2.58667	156
2.59033	161
2.59400	164
2.59767	168
2.60133	175
2.60500	183
2.60867	188
2.61233	192
2.61600	194
2.61967	193
2.62333	189
2.62700	182
2.63067	173
2.63433	163
2.63800	154
2.64167	143
2.64533	130
2.64900	118
2.65267	108
2.65633	99
2.66000	93
2.66367	91
2.66733	89
2.67100	87
2.67467	82
2.67833	78
2.68200	76
2.68567	77
2.68933	78
2.69300	80
2.69667	80
2.70033	80
2.70400	82
2.70767	84
2.71133	86
2.71500	85
2.71867	86
2.72233	85
2.72600	86
2.72967	87
2.73333	88
2.73700	92
2.74067	95
2.74433	97
2.74800	98
2.75167	100
2.75533	102
2.75900	103
2.76267	104
2.76633	106
2.77000	109
2.77367	112
2.77733	116
2.78100	120
2.78467	121
2.78833	121
2.79200	121
2.79567	121
2.79933	122
2.80300	125
2.80667	128
2.81033	132
2.81400	134
2.81767	137
2.82133	140
2.82500	146
2.82867	153
2.83233	166
2.83600	202
2.83967	288
2.84333	468
2.84700	801
2.85067	1349
2.85433	2169
2.85800	3284
2.86167	4681
2.86533	6296
2.86900	8030
2.87267	9752
2.87633	11324
2.88000	12626
2.88367	13562
2.88733	14086
2.89100	14198
2.89467	13943
2.89833	13392
2.90200	12628
2.90567	11728
2.90933	10754
2.91300	9759
2.91667	8785
2.92033	7855
2.92400	6990
2.92767	6195
2.93133	5470
2.93500	4817
2.93867	4233
2.94233	3713
2.94600	3252
2.94967	2846
2.95333	2488
2.95700	2175
2.96067	1903
2.96433	1666
2.96800	1459
2.97167	1279
2.97533	1124
2.97900	987
2.98267	869
2.98633	768
2.99000	680
2.99367	603
2.99733	536
3.00100	479
3.00467	431
3.00833	389
3.01200	352
3.01567	316
3.01933	275
3.02300	234
3.02667	203
3.03033	186
3.03400	183
3.03767	186
3.04133	191
3.04500	200
3.04867	216
3.05233	237
3.05600	264
3.05967	296
3.06333	328
3.06700	356
3.07067	382
3.07433	406
3.07800	430
3.08167	452
3.08533	467
3.08900	480
3.09267	491
3.09633	498
3.10000	505
3.10367	512
3.10733	518
3.11100	522
3.11467	524
3.11833	526
3.12200	531
3.12567	537
3.12933	541
3.13300	545
3.13667	550
3.14033	553
3.14400	553
3.14767	555
3.15133	560
3.15500	563
3.15867	564
3.16233	567
3.16600	568
3.16967	570
3.17333	572
3.17700	573
3.18067	575
3.18433	576
3.18800	577
3.19167	580
3.19533	584
3.19900	587
3.20267	590
3.20633	594
3.21000	595
3.21367	596
3.21733	597
3.22100	599
3.22467	599
3.22833	601
3.23200	603
3.23567	601
3.23933	601
3.24300	604
3.24667	608
3.25033	610
3.25400	610
3.25767	610
3.26133	609
3.26500	606
3.26867	604
3.27233	604
3.27600	605
3.27967	605
3.28333	606
3.28700	604
3.29067	601
3.29433	595
3.29800	594
3.30167	593
3.30533	591
3.30900	588
3.31267	588
3.31633	587
3.32000	585
3.32367	580
3.32733	576
3.33100	574
3.33467	571
3.33833	569
3.34200	569
3.34567	567
3.34933	564
3.35300	561
3.35667	559
3.36033	559
3.36400	557
3.36767	553
3.37133	548
3.37500	545
3.37867	547
3.38233	549
3.38600	549
3.38967	547
3.39333	545
3.39700	546
3.40067	547
3.40433	547
3.40800	546
3.41167	542
3.41533	539
3.41900	539
3.42267	540
3.42633	538
3.43000	534
3.43367	532
3.43733	532
3.44100	532
3.44467	530
3.44833	528
3.45200	525
3.45567	524
3.45933	524
3.46300	524
3.46667	524
3.47033	522
3.47400	520
3.47767	518
3.48133	516
3.48500	514
3.48867	512
3.49233	510
3.49600	509
3.49967	508
3.50333	505
3.50700	501
3.51067	498
3.51433	495
3.51800	492
3.52167	490
3.52533	489
3.52900	489
3.53267	489
3.53633	489
3.54000	488
3.54367	487
3.54733	485
3.55100	482
3.55467	480
3.55833	477
3.56200	474
3.56567	472
3.56933	470
3.57300	469
3.57667	469
3.58033	468
3.58400	466
3.58767	464
3.59133	462
3.59500	462
3.59867	462
3.60233	461
3.60600	458
3.60967	455
3.61333	454
3.61700	454
3.62067	455
3.62433	455
3.62800	455
3.63167	453
3.63533	452
3.63900	450
3.64267	448
3.64633	446
3.65000	446
3.65367	446
3.65733	445
3.66100	443
3.66467	439
3.66833	436
3.67200	434
3.67567	432
3.67933	433
3.68300	432
3.68667	431
3.69033	430
3.69400	429
3.69767	427
3.70133	428
3.70500	430
3.70867	431
3.71233	431
3.71600	428
3.71967	424
3.72333	422
3.72700	420
3.73067	417
3.73433	415
3.73800	413
3.74167	414
3.74533	413
3.74900	411
3.75267	409
3.75633	408
3.76000	408
3.76367	408
3.76733	407
3.77100	407
3.77467	408
3.77833	410
3.78200	412
3.78567	409
3.78933	405
3.79300	404
3.79667	403
3.80033	400
3.80400	400
3.80767	400
3.81133	400
3.81500	400
3.81867	398
3.82233	397
3.82600	395
3.82967	393
3.83333	390
3.83700	389
3.84067	388
3.84433	391
3.84800	392
3.85167	391
3.85533	390
3.85900	388
3.86267	386
3.86633	386
3.87000	385
3.87367	385
3.87733	385
3.88100	385
3.88467	383
3.88833	381
3.89200	382
3.89567	381
3.89933	380
3.90300	379
3.90667	379
3.91033	379
3.91400	377
3.91767	375
3.92133	374
3.92500	373
3.92867	372
3.93233	370
3.93600	369
3.93967	370
3.94333	372
3.94700	374
3.95067	375
3.95433	375
3.95800	376
3.96167	375
3.96533	374
3.96900	373
3.97267	371
3.97633	369
3.98000	366
3.98367	365
3.98733	365
3.99100	366
3.99467	364
3.99833	361

[Status Trace (Column Oven Temperature)]
Interval(msec)	1000
# of Points	240
Start Time(min)	0.004
End Time(min)	3.987
Intensity Units	
Intensity Multiplier	1
R.Time (min)	Intensity
0.00415	35.07
0.02082	35.06
0.03748	35.05
0.05415	35.05
0.07082	35.04
0.08748	35.04
0.10415	35.03
0.12082	35.03
0.13748	35.03
0.15415	35.04
0.17082	35.04
0.18748	35.03
0.20415	35.03
0.22082	35.03
0.23748	35.02
0.25415	35.02
0.27082	35.01
0.28748	35.01
0.30415	35.00
0.32082	35.00
0.33748	35.00
0.35415	34.99
0.37082	35.01
0.38748	35.02
0.40415	35.02
0.42082	35.03
0.43748	35.03
0.45415	35.02
0.47082	35.01
0.48748	35.00
0.50415	35.01
0.52082	35.01
0.53748	35.00
0.55415	35.01
0.57082	35.00
0.58748	34.99
0.60415	34.99
0.62082	34.99
0.63748	34.99
0.65415	34.99
0.67082	34.99
0.68748	35.00
0.70415	35.00
0.72082	35.01
0.73748	35.00
0.75415	35.01
0.77082	35.02
0.78748	35.02
0.80415	35.02
0.82082	35.04
0.83748	35.04
0.85415	35.04
0.87082	35.05
0.88748	35.04
0.90415	35.04
0.92082	35.02
0.93748	35.00
0.95415	34.99
0.97082	34.98
0.98748	34.98
1.00415	34.98
1.02082	34.97
1.03748	34.97
1.05415	34.98
1.07082	34.97
1.08748	34.98
1.10415	34.99
1.12082	35.00
1.13748	35.01
1.15415	35.02
1.17082	35.01
1.18748	35.01
1.20415	35.00
1.22082	34.99
1.23748	34.98
1.25415	34.98
1.27082	34.99
1.28748	34.99
1.30415	35.00
1.32082	34.99
1.33748	34.99
1.35415	34.98
1.37082	34.97
1.38748	34.97
1.40415	34.98
1.42082	34.98
1.43748	34.98
1.45415	34.98
1.47082	34.99
1.48748	35.00
1.50415	35.01
1.52082	35.02
1.53748	35.04
1.55415	35.04
1.57082	35.03
1.58748	35.03
1.60415	35.06
1.62082	35.16
1.63748	35.34
1.65415	35.55
1.67082	35.86
1.68748	36.23
1.70415	36.58
1.72082	36.93
1.73748	37.27
1.75415	37.59
1.77082	37.90
1.78748	38.25
1.80415	38.59
1.82082	38.92
1.83748	39.26
1.85415	39.58
1.87082	39.89
1.88748	40.22
1.90415	40.54
1.92082	40.87
1.93748	41.21
1.95415	41.51
1.97082	41.85
1.98748	42.17
2.00415	42.50
2.02082	42.84
2.03748	43.15
2.05415	43.50
2.07082	43.83
2.08748	44.13
2.10415	44.47
2.12082	44.79
2.13748	45.13
2.15415	45.46
2.17082	45.79
2.18748	46.11
2.20415	46.43
2.22082	46.76
2.23748	47.09
2.25415	47.43
2.27082	47.73
2.28748	48.07
2.30415	48.41
2.32082	48.73
2.33748	49.05
2.35415	49.38
2.37082	49.59
2.38748	49.67
2.40415	49.67
2.42082	49.67
2.43748	49.67
2.45415	49.68
2.47082	49.70
2.48748	49.71
2.50415	49.72
2.52082	49.74
2.53748	49.75
2.55415	49.78
2.57082	49.78
2.58748	49.81
2.60415	49.82
2.62082	49.82
2.63748	49.83
2.65415	49.84
2.67082	49.85
2.68748	49.84
2.70415	49.87
2.72082	49.87
2.73748	49.85
2.75415	49.85
2.77082	49.87
2.78748	49.89
2.80415	49.89
2.82082	49.89
2.83748	49.88
2.85415	49.89
2.87082	49.89
2.88748	49.89
2.90415	49.90
2.92082	49.91
2.93748	49.92
2.95415	49.93
2.97082	49.94
2.98748	49.95
3.00415	49.97
3.02082	49.97
3.03748	49.98
3.05415	49.98
3.07082	49.98
3.08748	50.00
3.10415	50.02
3.12082	50.04
3.13748	50.06
3.15415	50.06
3.17082	50.06
3.18748	50.06
3.20415	50.06
3.22082	50.07
3.23748	50.08
3.25415	50.09
3.27082	50.09
3.28748	50.08
3.30415	50.08
3.32082	50.08
3.33748	50.08
3.35415	50.09
3.37082	50.10
3.38748	50.10
3.40415	50.10
3.42082	50.09
3.43748	50.09
3.45415	50.10
3.47082	50.10
3.48748	50.09
3.50415	50.09
3.52082	50.08
3.53748	50.07
3.55415	50.06
3.57082	50.06
3.58748	50.05
3.60415	50.06
3.62082	50.06
3.63748	50.06
3.65415	50.05
3.67082	50.04
3.68748	50.04
3.70415	50.05
3.72082	50.06
3.73748	50.06
3.75415	50.07
3.77082	50.08
3.78748	50.08
3.80415	50.08
3.82082	50.08
3.83748	50.08
3.85415	50.08
3.87082	50.08
3.88748	50.08
3.90415	50.08
3.92082	50.08
3.93748	50.08
3.95415	50.08
3.97082	50.08
3.98748	50.08

[Status Trace (Injection Unit Temperature)]
Interval(msec)	1000
# of Points	240
Start Time(min)	0.004
End Time(min)	3.987
Intensity Units	
Intensity Multiplier	1
R.Time (min)	Intensity
0.00415	99.98
0.02082	99.98
0.03748	99.98
0.05415	99.98
0.07082	99.98
0.08748	99.98
0.10415	99.98
0.12082	99.98
0.13748	99.98
0.15415	99.98
0.17082	99.99
0.18748	99.98
0.20415	99.98
0.22082	99.98
0.23748	99.98
0.25415	99.98
0.27082	99.99
0.28748	99.99
0.30415	99.99
0.32082	99.99
0.33748	99.98
0.35415	99.99
0.37082	99.99
0.38748	99.98
0.40415	99.99
0.42082	99.99
0.43748	99.99
0.45415	99.98
0.47082	99.99
0.48748	99.99
0.50415	99.99
0.52082	99.98
0.53748	99.99
0.55415	99.99
0.57082	99.99
0.58748	99.99
0.60415	99.99
0.62082	99.99
0.63748	99.99
0.65415	99.99
0.67082	99.99
0.68748	99.98
0.70415	99.99
0.72082	99.99
0.73748	99.98
0.75415	99.99
0.77082	99.99
0.78748	99.99
0.80415	99.99
0.82082	99.99
0.83748	99.99
0.85415	99.99
0.87082	99.98
0.88748	99.99
0.90415	99.99
0.92082	99.99
0.93748	99.99
0.95415	99.99
0.97082	99.99
0.98748	99.99
1.00415	99.99
1.02082	99.99
1.03748	99.98
1.05415	99.99
1.07082	99.99
1.08748	99.98
1.10415	99.99
1.12082	99.99
1.13748	99.99
1.15415	99.99
1.17082	99.99
1.18748	99.99
1.20415	99.99
1.22082	99.99
1.23748	99.99
1.25415	99.99
1.27082	99.99
1.28748	99.99
1.30415	99.99
1.32082	99.99
1.33748	99.99
1.35415	99.99
1.37082	99.99
1.38748	99.99
1.40415	99.99
1.42082	99.99
1.43748	99.98
1.45415	99.99
1.47082	100.00
1.48748	99.99
1.50415	99.99
1.52082	99.99
1.53748	99.99
1.55415	99.99
1.57082	99.99
1.58748	99.99
1.60415	99.99
1.62082	99.99
1.63748	99.99
1.65415	99.99
1.67082	99.99
1.68748	99.99
1.70415	99.99
1.72082	99.99
1.73748	99.99
1.75415	99.99
1.77082	99.99
1.78748	99.99
1.80415	99.98
1.82082	99.99
1.83748	99.98
1.85415	99.98
1.87082	99.98
1.88748	99.98
1.90415	99.98
1.92082	99.98
1.93748	99.98
1.95415	99.98
1.97082	99.98
1.98748	99.97
2.00415	99.98
2.02082	99.98
2.03748	99.97
2.05415	99.98
2.07082	99.97
2.08748	99.97
2.10415	99.98
2.12082	99.97
2.13748	99.97
2.15415	99.97
2.17082	99.97
2.18748	99.97
2.20415	99.97
2.22082	99.97
2.23748	99.97
2.25415	99.97
2.27082	99.97
2.28748	99.97
2.30415	99.97
2.32082	99.97
2.33748	99.97
2.35415	99.97
2.37082	99.97
2.38748	99.97
2.40415	99.97
2.42082	99.97
2.43748	99.97
2.45415	99.97
2.47082	99.97
2.48748	99.97
2.50415	99.97
2.52082	99.97
2.53748	99.97
2.55415	99.97
2.57082	99.98
2.58748	99.98
2.60415	99.98
2.62082	99.98
2.63748	99.98
2.65415	99.98
2.67082	99.98
2.68748	99.99
2.70415	99.99
2.72082	99.99
2.73748	99.99
2.75415	99.99
2.77082	99.99
2.78748	99.99
2.80415	99.99
2.82082	100.00
2.83748	100.00
2.85415	100.00
2.87082	100.00
2.88748	100.00
2.90415	100.00
2.92082	100.00
2.93748	100.00
2.95415	100.01
2.97082	100.01
2.98748	100.01
3.00415	100.01
3.02082	100.01
3.03748	100.01
3.05415	100.02
3.07082	100.02
3.08748	100.02
3.10415	100.02
3.12082	100.02
3.13748	100.02
3.15415	100.02
3.17082	100.02
3.18748	100.02
3.20415	100.02
3.22082	100.03
3.23748	100.03
3.25415	100.03
3.27082	100.03
3.28748	100.03
3.30415	100.03
3.32082	100.03
3.33748	100.03
3.35415	100.03
3.37082	100.03
3.38748	100.03
3.40415	100.03
3.42082	100.03
3.43748	100.03
3.45415	100.03
3.47082	100.03
3.48748	100.03
3.50415	100.03
3.52082	100.04
3.53748	100.03
3.55415	100.03
3.57082	100.04
3.58748	100.03
3.60415	100.03
3.62082	100.03
3.63748	100.03
3.65415	100.04
3.67082	100.03
3.68748	100.03
3.70415	100.04
3.72082	100.04
3.73748	100.04
3.75415	100.04
3.77082	100.04
3.78748	100.04
3.80415	100.04
3.82082	100.04
3.83748	100.03
3.85415	100.04
3.87082	100.04
3.88748	100.04
3.90415	100.04
3.92082	100.04
3.93748	100.04
3.95415	100.04
3.97082	100.04
3.98748	100.05

[Status Trace (Carrier Gas Pressure)]
Interval(msec)	1000
# of Points	240
Start Time(min)	0.004
End Time(min)	3.987
Intensity Units	
Intensity Multiplier	1
R.Time (min)	Intensity
0.00415	58.00
0.02082	55.89
0.03748	56.58
0.05415	58.89
0.07082	59.64
0.08748	58.16
0.10415	57.98
0.12082	58.01
0.13748	58.01
0.15415	58.00
0.17082	58.00
0.18748	58.00
0.20415	58.00
0.22082	58.00
0.23748	58.00
0.25415	58.00
0.27082	58.00
0.28748	58.00
0.30415	58.00
0.32082	58.00
0.33748	58.00
0.35415	58.00
0.37082	58.00
0.38748	58.00
0.40415	58.00
0.42082	58.00
0.43748	58.00
0.45415	58.00
0.47082	58.00
0.48748	58.00
0.50415	58.00
0.52082	58.00
0.53748	58.00
0.55415	58.00
0.57082	58.00
0.58748	58.00
0.60415	58.00
0.62082	58.00
0.63748	58.00
0.65415	58.00
0.67082	58.00
0.68748	58.00
0.70415	58.00
0.72082	58.00
0.73748	58.00
0.75415	58.00
0.77082	58.00
0.78748	58.00
0.80415	58.00
0.82082	58.00
0.83748	58.00
0.85415	58.00
0.87082	58.00
0.88748	58.00
0.90415	58.00
0.92082	58.00
0.93748	58.00
0.95415	58.00
0.97082	58.00
0.98748	58.00
1.00415	58.00
1.02082	58.00
1.03748	58.00
1.05415	58.00
1.07082	58.00
1.08748	58.00
1.10415	58.00
1.12082	58.00
1.13748	58.00
1.15415	58.00
1.17082	58.00
1.18748	58.00
1.20415	58.00
1.22082	58.00
1.23748	58.00
1.25415	58.00
1.27082	58.00
1.28748	58.00
1.30415	58.00
1.32082	58.00
1.33748	58.00
1.35415	58.00
1.37082	58.00
1.38748	58.00
1.40415	58.00
1.42082	58.00
1.43748	58.00
1.45415	58.00
1.47082	58.00
1.48748	58.00
1.50415	58.00
1.52082	58.00
1.53748	58.00
1.55415	58.00
1.57082	58.00
1.58748	58.00
1.60415	58.00
1.62082	58.00
1.63748	58.00
1.65415	58.00
1.67082	58.01
1.68748	58.01
1.70415	58.00
1.72082	58.00
1.73748	58.00
1.75415	58.00
1.77082	58.00
1.78748	58.00
1.80415	58.00
1.82082	58.00
1.83748	58.00
1.85415	58.00
1.87082	58.00
1.88748	58.00
1.90415	58.00
1.92082	58.00
1.93748	58.00
1.95415	58.00
1.97082	58.00
1.98748	58.00
2.00415	58.00
2.02082	58.00
2.03748	58.00
2.05415	58.00
2.07082	58.00
2.08748	58.00
2.10415	58.00
2.12082	58.00
2.13748	58.00
2.15415	58.00
2.17082	58.00
2.18748	58.00
2.20415	58.00
2.22082	58.00
2.23748	58.00
2.25415	58.00
2.27082	58.00
2.28748	58.00
2.30415	58.00
2.32082	58.00
2.33748	58.00
2.35415	58.00
2.37082	58.00
2.38748	57.99
2.40415	57.99
2.42082	58.00
2.43748	58.00
2.45415	58.00
2.47082	58.00
2.48748	58.00
2.50415	57.98
2.52082	57.99
2.53748	57.99
2.55415	58.00
2.57082	58.00
2.58748	58.00
2.60415	58.00
2.62082	58.00
2.63748	58.00
2.65415	58.00
2.67082	58.00
2.68748	58.00
2.70415	58.00
2.72082	58.00
2.73748	58.00
2.75415	58.00
2.77082	58.00
2.78748	58.00
2.80415	58.00
2.82082	58.00
2.83748	58.00
2.85415	58.00
2.87082	58.00
2.88748	58.00
2.90415	58.00
2.92082	58.00
2.93748	58.00
2.95415	58.00
2.97082	58.00
2.98748	58.00
3.00415	58.00
3.02082	58.00
3.03748	58.00
3.05415	58.00
3.07082	58.00
3.08748	58.00
3.10415	58.00
3.12082	58.00
3.13748	58.00
3.15415	58.00
3.17082	58.00
3.18748	58.00
3.20415	58.00
3.22082	58.00
3.23748	58.00
3.25415	58.00
3.27082	58.00
3.28748	58.00
3.30415	58.00
3.32082	58.00
3.33748	58.00
3.35415	58.00
3.37082	58.00
3.38748	58.00
3.40415	58.00
3.42082	58.00
3.43748	58.00
3.45415	58.00
3.47082	58.00
3.48748	58.00
3.50415	58.00
3.52082	58.00
3.53748	58.00
3.55415	58.00
3.57082	58.00
3.58748	58.00
3.60415	58.00
3.62082	58.00
3.63748	58.00
3.65415	58.00
3.67082	58.00
3.68748	58.00
3.70415	58.00
3.72082	58.00
3.73748	58.00
3.75415	58.00
3.77082	58.00
3.78748	58.00
3.80415	58.00
3.82082	58.00
3.83748	58.00
3.85415	58.00
3.87082	58.00
3.88748	58.00
3.90415	58.00
3.92082	58.00
3.93748	58.00
3.95415	58.00
3.97082	58.00
3.98748	58.00

[Status Trace (Carrier Gas Flow)]
Interval(msec)	1000
# of Points	240
Start Time(min)	0.004
End Time(min)	3.987
Intensity Units	
Intensity Multiplier	1
R.Time (min)	Intensity
0.00415	34.52
0.02082	34.56
0.03748	34.54
0.05415	34.56
0.07082	34.49
0.08748	34.52
0.10415	34.53
0.12082	34.53
0.13748	34.52
0.15415	34.52
0.17082	34.52
0.18748	34.51
0.20415	34.52
0.22082	34.52
0.23748	34.52
0.25415	34.52
0.27082	34.52
0.28748	34.52
0.30415	34.52
0.32082	34.52
0.33748	34.52
0.35415	34.52
0.37082	34.52
0.38748	34.52
0.40415	34.52
0.42082	34.52
0.43748	34.52
0.45415	34.52
0.47082	34.52
0.48748	34.52
0.50415	34.52
0.52082	34.52
0.53748	34.52
0.55415	34.51
0.57082	34.52
0.58748	34.52
0.60415	34.52
0.62082	34.52
0.63748	34.52
0.65415	34.52
0.67082	34.52
0.68748	34.52
0.70415	34.52
0.72082	34.52
0.73748	34.52
0.75415	34.52
0.77082	34.52
0.78748	34.52
0.80415	34.52
0.82082	34.52
0.83748	34.52
0.85415	34.52
0.87082	34.52
0.88748	34.52
0.90415	34.52
0.92082	34.52
0.93748	34.52
0.95415	34.52
0.97082	34.51
0.98748	34.52
1.00415	34.52
1.02082	34.52
1.03748	34.52
1.05415	34.52
1.07082	34.51
1.08748	34.52
1.10415	34.52
1.12082	34.52
1.13748	34.51
1.15415	34.51
1.17082	34.52
1.18748	34.52
1.20415	34.52
1.22082	34.51
1.23748	34.52
1.25415	34.52
1.27082	34.51
1.28748	34.51
1.30415	34.51
1.32082	34.52
1.33748	34.53
1.35415	34.52
1.37082	34.52
1.38748	34.52
1.40415	34.52
1.42082	34.52
1.43748	34.51
1.45415	34.52
1.47082	34.52
1.48748	34.52
1.50415	34.52
1.52082	34.52
1.53748	34.52
1.55415	34.52
1.57082	34.53
1.58748	34.51
1.60415	34.52
1.62082	34.52
1.63748	34.52
1.65415	34.51
1.67082	34.51
1.68748	34.52
1.70415	34.52
1.72082	34.51
1.73748	34.53
1.75415	34.52
1.77082	34.52
1.78748	34.52
1.80415	34.51
1.82082	34.52
1.83748	34.52
1.85415	34.52
1.87082	34.52
1.88748	34.52
1.90415	34.52
1.92082	34.52
1.93748	34.52
1.95415	34.52
1.97082	34.52
1.98748	34.52
2.00415	34.52
2.02082	34.52
2.03748	34.52
2.05415	34.52
2.07082	34.52
2.08748	34.52
2.10415	34.53
2.12082	34.52
2.13748	34.51
2.15415	34.52
2.17082	34.52
2.18748	34.52
2.20415	34.52
2.22082	34.51
2.23748	34.52
2.25415	34.52
2.27082	34.52
2.28748	34.52
2.30415	34.52
2.32082	34.52
2.33748	34.52
2.35415	34.52
2.37082	34.52
2.38748	34.52
2.40415	34.51
2.42082	34.52
2.43748	34.51
2.45415	34.52
2.47082	34.52
2.48748	34.52
2.50415	34.60
2.52082	34.52
2.53748	34.53
2.55415	34.51
2.57082	34.51
2.58748	34.52
2.60415	34.51
2.62082	34.52
2.63748	34.52
2.65415	34.52
2.67082	34.52
2.68748	34.52
2.70415	34.51
2.72082	34.52
2.73748	34.52
2.75415	34.52
2.77082	34.52
2.78748	34.52
2.80415	34.51
2.82082	34.52
2.83748	34.52
2.85415	34.52
2.87082	34.51
2.88748	34.52
2.90415	34.52
2.92082	34.51
2.93748	34.52
2.95415	34.53
2.97082	34.51
2.98748	34.52
3.00415	34.52
3.02082	34.51
3.03748	34.51
3.05415	34.51
3.07082	34.52
3.08748	34.52
3.10415	34.52
3.12082	34.52
3.13748	34.52
3.15415	34.51
3.17082	34.51
3.18748	34.52
3.20415	34.52
3.22082	34.52
3.23748	34.51
3.25415	34.51
3.27082	34.52
3.28748	34.52
3.30415	34.52
3.32082	34.52
3.33748	34.52
3.35415	34.52
3.37082	34.52
3.38748	34.52
3.40415	34.52
3.42082	34.52
3.43748	34.53
3.45415	34.51
3.47082	34.51
3.48748	34.52
3.50415	34.52
3.52082	34.51
3.53748	34.51
3.55415	34.52
3.57082	34.51
3.58748	34.51
3.60415	34.52
3.62082	34.53
3.63748	34.52
3.65415	34.52
3.67082	34.52
3.68748	34.51
3.70415	34.52
3.72082	34.52
3.73748	34.51
3.75415	34.51
3.77082	34.52
3.78748	34.52
3.80415	34.52
3.82082	34.52
3.83748	34.52
3.85415	34.52
3.87082	34.51
3.88748	34.52
3.90415	34.52
3.92082	34.51
3.93748	34.52
3.95415	34.53
3.97082	34.52
3.98748	34.52

[Status Trace (Column Flow)]
Interval(msec)	1000
# of Points	240
Start Time(min)	0.004
End Time(min)	3.987
Intensity Units	
Intensity Multiplier	1
R.Time (min)	Intensity
0.00415	5.52
0.02082	5.27
0.03748	5.35
0.05415	5.62
0.07082	5.71
0.08748	5.54
0.10415	5.52
0.12082	5.52
0.13748	5.52
0.15415	5.52
0.17082	5.52
0.18748	5.52
0.20415	5.52
0.22082	5.52
0.23748	5.52
0.25415	5.52
0.27082	5.52
0.28748	5.52
0.30415	5.52
0.32082	5.52
0.33748	5.52
0.35415	5.52
0.37082	5.52
0.38748	5.52
0.40415	5.52
0.42082	5.52
0.43748	5.52
0.45415	5.52
0.47082	5.52
0.48748	5.52
0.50415	5.52
0.52082	5.52
0.53748	5.52
0.55415	5.52
0.57082	5.52
0.58748	5.52
0.60415	5.52
0.62082	5.52
0.63748	5.52
0.65415	5.52
0.67082	5.52
0.68748	5.52
0.70415	5.52
0.72082	5.52
0.73748	5.52
0.75415	5.52
0.77082	5.52
0.78748	5.52
0.80415	5.52
0.82082	5.52
0.83748	5.52
0.85415	5.52
0.87082	5.52
0.88748	5.52
0.90415	5.52
0.92082	5.52
0.93748	5.52
0.95415	5.52
0.97082	5.52
0.98748	5.52
1.00415	5.52
1.02082	5.52
1.03748	5.52
1.05415	5.52
1.07082	5.52
1.08748	5.52
1.10415	5.52
1.12082	5.52
1.13748	5.52
1.15415	5.52
1.17082	5.52
1.18748	5.52
1.20415	5.52
1.22082	5.52
1.23748	5.52
1.25415	5.52
1.27082	5.52
1.28748	5.52
1.30415	5.52
1.32082	5.52
1.33748	5.52
1.35415	5.52
1.37082	5.52
1.38748	5.52
1.40415	5.52
1.42082	5.52
1.43748	5.52
1.45415	5.52
1.47082	5.52
1.48748	5.52
1.50415	5.52
1.52082	5.52
1.53748	5.52
1.55415	5.52
1.57082	5.52
1.58748	5.52
1.60415	5.52
1.62082	5.52
1.63748	5.51
1.65415	5.50
1.67082	5.49
1.68748	5.48
1.70415	5.47
1.72082	5.46
1.73748	5.45
1.75415	5.44
1.77082	5.43
1.78748	5.42
1.80415	5.41
1.82082	5.40
1.83748	5.39
1.85415	5.38
1.87082	5.37
1.88748	5.36
1.90415	5.35
1.92082	5.34
1.93748	5.33
1.95415	5.32
1.97082	5.31
1.98748	5.30
2.00415	5.29
2.02082	5.28
2.03748	5.27
2.05415	5.26
2.07082	5.25
2.08748	5.24
2.10415	5.23
2.12082	5.22
2.13748	5.21
2.15415	5.20
2.17082	5.20
2.18748	5.19
2.20415	5.18
2.22082	5.17
2.23748	5.16
2.25415	5.15
2.27082	5.14
2.28748	5.13
2.30415	5.12
2.32082	5.11
2.33748	5.10
2.35415	5.09
2.37082	5.09
2.38748	5.09
2.40415	5.09
2.42082	5.09
2.43748	5.09
2.45415	5.09
2.47082	5.09
2.48748	5.08
2.50415	5.08
2.52082	5.08
2.53748	5.08
2.55415	5.08
2.57082	5.08
2.58748	5.08
2.60415	5.08
2.62082	5.08
2.63748	5.08
2.65415	5.08
2.67082	5.08
2.68748	5.08
2.70415	5.08
2.72082	5.08
2.73748	5.08
2.75415	5.08
2.77082	5.08
2.78748	5.08
2.80415	5.08
2.82082	5.08
2.83748	5.08
2.85415	5.08
2.87082	5.08
2.88748	5.08
2.90415	5.08
2.92082	5.08
2.93748	5.08
2.95415	5.08
2.97082	5.08
2.98748	5.08
3.00415	5.08
3.02082	5.08
3.03748	5.08
3.05415	5.08
3.07082	5.08
3.08748	5.08
3.10415	5.08
3.12082	5.08
3.13748	5.08
3.15415	5.08
3.17082	5.08
3.18748	5.08
3.20415	5.08
3.22082	5.08
3.23748	5.07
3.25415	5.07
3.27082	5.07
3.28748	5.07
3.30415	5.07
3.32082	5.07
3.33748	5.07
3.35415	5.07
3.37082	5.07
3.38748	5.07
3.40415	5.07
3.42082	5.07
3.43748	5.07
3.45415	5.07
3.47082	5.07
3.48748	5.07
3.50415	5.07
3.52082	5.07
3.53748	5.07
3.55415	5.08
3.57082	5.08
3.58748	5.08
3.60415	5.08
3.62082	5.08
3.63748	5.08
3.65415	5.08
3.67082	5.08
3.68748	5.08
3.70415	5.08
3.72082	5.08
3.73748	5.08
3.75415	5.08
3.77082	5.07
3.78748	5.07
3.80415	5.07
3.82082	5.07
3.83748	5.07
3.85415	5.07
3.87082	5.07
3.88748	5.07
3.90415	5.07
3.92082	5.07
3.93748	5.07
3.95415	5.07
3.97082	5.07
3.98748	5.07

[Status Trace (Linear Velocity)]
Interval(msec)	1000
# of Points	240
Start Time(min)	0.004
End Time(min)	3.987
Intensity Units	
Intensity Multiplier	1
R.Time (min)	Intensity
0.00415	39.01
0.02082	37.62
0.03748	38.08
0.05415	39.60
0.07082	40.09
0.08748	39.12
0.10415	39.00
0.12082	39.02
0.13748	39.02
0.15415	39.02
0.17082	39.02
0.18748	39.02
0.20415	39.02
0.22082	39.01
0.23748	39.02
0.25415	39.01
0.27082	39.02
0.28748	39.02
0.30415	39.02
0.32082	39.02
0.33748	39.02
0.35415	39.02
0.37082	39.02
0.38748	39.02
0.40415	39.01
0.42082	39.01
0.43748	39.01
0.45415	39.01
0.47082	39.02
0.48748	39.02
0.50415	39.02
0.52082	39.02
0.53748	39.02
0.55415	39.02
0.57082	39.02
0.58748	39.02
0.60415	39.02
0.62082	39.02
0.63748	39.02
0.65415	39.02
0.67082	39.02
0.68748	39.02
0.70415	39.02
0.72082	39.02
0.73748	39.02
0.75415	39.02
0.77082	39.01
0.78748	39.01
0.80415	39.01
0.82082	39.01
0.83748	39.01
0.85415	39.01
0.87082	39.01
0.88748	39.01
0.90415	39.01
0.92082	39.01
0.93748	39.02
0.95415	39.02
0.97082	39.02
0.98748	39.02
1.00415	39.02
1.02082	39.02
1.03748	39.02
1.05415	39.02
1.07082	39.02
1.08748	39.02
1.10415	39.02
1.12082	39.02
1.13748	39.01
1.15415	39.01
1.17082	39.01
1.18748	39.01
1.20415	39.02
1.22082	39.02
1.23748	39.02
1.25415	39.02
1.27082	39.02
1.28748	39.02
1.30415	39.02
1.32082	39.02
1.33748	39.02
1.35415	39.02
1.37082	39.02
1.38748	39.02
1.40415	39.02
1.42082	39.02
1.43748	39.02
1.45415	39.02
1.47082	39.02
1.48748	39.02
1.50415	39.02
1.52082	39.01
1.53748	39.01
1.55415	39.01
1.57082	39.01
1.58748	39.01
1.60415	39.01
1.62082	39.00
1.63748	38.99
1.65415	38.97
1.67082	38.94
1.68748	38.90
1.70415	38.87
1.72082	38.83
1.73748	38.80
1.75415	38.77
1.77082	38.74
1.78748	38.71
1.80415	38.67
1.82082	38.64
1.83748	38.61
1.85415	38.58
1.87082	38.55
1.88748	38.52
1.90415	38.49
1.92082	38.46
1.93748	38.43
1.95415	38.40
1.97082	38.37
1.98748	38.34
2.00415	38.31
2.02082	38.28
2.03748	38.25
2.05415	38.22
2.07082	38.19
2.08748	38.16
2.10415	38.13
2.12082	38.10
2.13748	38.07
2.15415	38.04
2.17082	38.01
2.18748	37.98
2.20415	37.95
2.22082	37.92
2.23748	37.89
2.25415	37.86
2.27082	37.83
2.28748	37.80
2.30415	37.77
2.32082	37.74
2.33748	37.72
2.35415	37.69
2.37082	37.67
2.38748	37.66
2.40415	37.66
2.42082	37.66
2.43748	37.66
2.45415	37.66
2.47082	37.66
2.48748	37.66
2.50415	37.65
2.52082	37.65
2.53748	37.65
2.55415	37.65
2.57082	37.65
2.58748	37.65
2.60415	37.65
2.62082	37.65
2.63748	37.65
2.65415	37.65
2.67082	37.65
2.68748	37.65
2.70415	37.64
2.72082	37.64
2.73748	37.64
2.75415	37.65
2.77082	37.64
2.78748	37.64
2.80415	37.64
2.82082	37.64
2.83748	37.64
2.85415	37.64
2.87082	37.64
2.88748	37.64
2.90415	37.64
2.92082	37.64
2.93748	37.64
2.95415	37.64
2.97082	37.64
2.98748	37.64
3.00415	37.64
3.02082	37.63
3.03748	37.63
3.05415	37.63
3.07082	37.63
3.08748	37.63
3.10415	37.63
3.12082	37.63
3.13748	37.63
3.15415	37.63
3.17082	37.63
3.18748	37.63
3.20415	37.63
3.22082	37.63
3.23748	37.62
3.25415	37.62
3.27082	37.62
3.28748	37.62
3.30415	37.63
3.32082	37.62
3.33748	37.62
3.35415	37.62
3.37082	37.62
3.38748	37.62
3.40415	37.62
3.42082	37.62
3.43748	37.62
3.45415	37.62
3.47082	37.62
3.48748	37.62
3.50415	37.62
3.52082	37.63
3.53748	37.63
3.55415	37.63
3.57082	37.63
3.58748	37.63
3.60415	37.63
3.62082	37.63
3.63748	37.63
3.65415	37.63
3.67082	37.63
3.68748	37.63
3.70415	37.63
3.72082	37.63
3.73748	37.63
3.75415	37.63
3.77082	37.63
3.78748	37.63
3.80415	37.63
3.82082	37.63
3.83748	37.63
3.85415	37.62
3.87082	37.62
3.88748	37.62
3.90415	37.62
3.92082	37.63
3.93748	37.63
3.95415	37.63
3.97082	37.63
3.98748	37.63

