[Header]
Application Name	LabSolutions
Version	5.110
Data File Name	C:\Users\User\Desktop\Junior\UIC Prairie Sampling\3.23.23\032323_066.gcd
Output Date	5/24/2023
Output Time	10:27:39 AM

[File Information]
Type	Data File
Generated	5/23/2023 10:56:06 PM
Generated by	System Administrator
Modified	5/23/2023 11:03:02 PM
Modified by	System Administrator

[Sample Information]
Operator Name	System Administrator
Acquired	5/23/2023 10:58:59 PM
Sample Type	0:Unknown
Level	0
Sample Name	066
Sample ID	066
ISTD Amount1	1
ISTD Amount2	1
ISTD Amount3	1
ISTD Amount4	1
ISTD Amount5	1
ISTD Amount6	1
ISTD Amount7	1
ISTD Amount8	1
ISTD Amount9	1
ISTD Amount10	1
ISTD Amount11	1
ISTD Amount12	1
ISTD Amount13	1
ISTD Amount14	1
ISTD Amount15	1
ISTD Amount16	1
ISTD Amount17	1
ISTD Amount18	1
ISTD Amount19	1
ISTD Amount20	1
ISTD Amount21	1
ISTD Amount22	1
ISTD Amount23	1
ISTD Amount24	1
ISTD Amount25	1
ISTD Amount26	1
ISTD Amount27	1
ISTD Amount28	1
ISTD Amount29	1
ISTD Amount30	1
ISTD Amount31	1
ISTD Amount32	1
Sample Amount	1
Dilution Factor	1
Vial#	65
Injection Volume	1
Injection Count	1
Bar Code	

[Original Files]
Data File	C:\Users\User\Desktop\GC Analyses\Jack\Nachusa Grasslands Sampling\20220924\t2\032323_066.gcd
Method File	C:\LabSolutions\Data\GHG_4min_2022\ghg3_togas_w_acet_4 min_new_int.gcm
Batch File	C:\LabSolutions\Data\AutoSamplerTesting\032323.gcb
Report Format File	c:\LabSolutions\System\DEFAULT.lsr

[File Description]


[Configuration]
Instrument Name	C0B7VH3-Instrument1
Instrument #	1
Line #	1
# of Detectors	3
Detector ID	DET#1	DET#2	DET#3
Detector Name	FID	PTCD	ECD
# of Channels	1	1	1

[Peak Table(Ch1)]
# of Peaks	3
Peak#	R.Time	I.Time	F.Time	Area	Height	A/H	Conc.	Mark	ID#	Name	k'	Plate #	Plate Ht.	Tailing	Resolution	Sep.Factor	Area Ratio	Height Ratio	Conc. %	Norm Conc.
1	1.476	1.435	1.531	5718	2786	2.053	0.000	   	1	CO	0.000	9550	15.706	1.140	0.000	0.000	0	0	0.000	0.000
2	1.564	1.531	1.619	4256	2198	1.937	20.750	 V 	2	CH4	0.060	11623	12.906	1.234	1.486	0.000	0	0	8.299	8.299
3	1.993	1.938	2.422	1189757	570603	2.085	229.288	   	3	CO2	0.350	17290	8.675	1.265	7.232	5.875	0	0	91.701	91.701

[Peak Table(Ch2)]
# of Peaks	0

[Peak Table(Ch3)]
# of Peaks	5
Peak#	R.Time	I.Time	F.Time	Area	Height	A/H	Conc.	Mark	ID#	Name	k'	Plate #	Plate Ht.	Tailing	Resolution	Sep.Factor	Area Ratio	Height Ratio	Conc. %	Norm Conc.
1	2.458	2.359	2.506	688	263	2.622	0.000	   			0.000	17046	8.800	0.000	0.000	0.000	0	0	0.000	0.000
2	2.521	2.506	2.568	210	94	2.250	0.000	 V 			0.025	10105	14.844	0.000	0.710	0.000	0	0	0.000	0.000
3	2.620	2.568	2.667	239	74	3.211	0.000	 V 			0.066	14468	10.368	0.000	1.056	2.588	0	0	0.000	0.000
4	2.891	2.766	3.093	20466	4531	4.517	0.303	   	1	N2O	0.176	13690	10.957	0.000	2.918	2.682	0	0	100.000	100.000
5	3.214	3.093	3.877	11255	457	24.603	0.000	 V 	2	SF6	0.307	44	3374.008	0.000	0.318	1.746	0	0	0.000	0.000

[Compound Results(Ch1)]
# of IDs	6
ID#	Name	R.Time	Area	Height	Conc.	Curve	3rd	2nd	1st	Constant	Area Ratio	Height Ratio	Conc. %	Norm Conc.
1	CO	1.476	5718	2786	0.000	Linear	0.000000e+00	0.000000e+00	0.000000e+00	0.000000e+00	0	0	0.000	0.000
2	CH4	1.564	4256	2198	20.750	Linear	0.000000e+00	0.000000e+00	2.051179e+002	0.000000e+00	0	0	8.299	8.299
3	CO2	1.993	1189757	570603	229.288	Linear	0.000000e+00	0.000000e+00	5.188919e+003	0.000000e+00	0	0	91.701	91.701
4	Ethylene	0.000	0	0	0.000	Linear	0.000000e+00	0.000000e+00	0.000000e+00	0.000000e+00	0	0	0.000	0.000
5	Acetylene	0.000	0	0	0.000	Linear	0.000000e+00	0.000000e+00	0.000000e+00	0.000000e+00	0	0	0.000	0.000
6	Ethane	0.000	0	0	0.000	Linear	0.000000e+00	0.000000e+00	0.000000e+00	0.000000e+00	0	0	0.000	0.000

[Compound Results(Ch2)]
# of IDs	5
ID#	Name	R.Time	Area	Height	Conc.	Curve	3rd	2nd	1st	Constant	Area Ratio	Height Ratio	Conc. %	Norm Conc.
1	Hydrogen	0.000	0	0	0.000	Linear	0.000000e+00	0.000000e+00	0.000000e+00	0.000000e+00	0	0	0.000	0.000
2	Oxygen	0.000	0	0	0.000	Linear	0.000000e+00	0.000000e+00	0.000000e+00	0.000000e+00	0	0	0.000	0.000
3	Nitrogen	0.000	0	0	0.000	Linear	0.000000e+00	0.000000e+00	0.000000e+00	0.000000e+00	0	0	0.000	0.000
4	Methane	0.000	0	0	0.000	Linear	0.000000e+00	0.000000e+00	0.000000e+00	0.000000e+00	0	0	0.000	0.000
5	Carbon Monoxide	0.000	0	0	0.000	Linear	0.000000e+00	0.000000e+00	0.000000e+00	0.000000e+00	0	0	0.000	0.000

[Compound Results(Ch3)]
# of IDs	2
ID#	Name	R.Time	Area	Height	Conc.	Curve	3rd	2nd	1st	Constant	Area Ratio	Height Ratio	Conc. %	Norm Conc.
1	N2O	2.891	20466	4531	0.303	Linear	0.000000e+00	0.000000e+00	6.759880e+004	0.000000e+00	0	0	100.000	100.000
2	SF6	3.214	11255	457	0.000	Linear	0.000000e+00	0.000000e+00	0.000000e+00	0.000000e+00	0	0	0.000	0.000

[Group Results(Ch1)]
# of Groups	0

[Group Results(Ch2)]
# of Groups	0

[Group Results(Ch3)]
# of Groups	0

[Chromatogram (Ch1)]
Interval(msec)	220
# of Points	1091
Start Time(min)	0.002
End Time(min)	3.998
R.Time (min)	Intensity
0.00167	-25
0.00533	-30
0.00900	-27
0.01267	-22
0.01633	-18
0.02000	-13
0.02367	-6
0.02733	1
0.03100	4
0.03467	1
0.03833	-6
0.04200	-11
0.04567	-12
0.04933	-11
0.05300	-8
0.05667	-8
0.06033	-13
0.06400	-20
0.06767	-27
0.07133	-30
0.07500	-30
0.07867	-28
0.08233	-24
0.08600	-18
0.08967	-11
0.09333	-9
0.09700	-11
0.10067	-15
0.10433	-21
0.10800	-27
0.11167	-32
0.11533	-33
0.11900	-30
0.12267	-29
0.12633	-31
0.13000	-32
0.13367	-33
0.13733	-34
0.14100	-31
0.14467	-31
0.14833	-31
0.15200	-29
0.15567	-28
0.15933	-30
0.16300	-35
0.16667	-40
0.17033	-42
0.17400	-43
0.17767	-42
0.18133	-42
0.18500	-40
0.18867	-37
0.19233	-32
0.19600	-30
0.19967	-27
0.20333	-25
0.20700	-22
0.21067	-22
0.21433	-22
0.21800	-20
0.22167	-18
0.22533	-15
0.22900	-14
0.23267	-16
0.23633	-21
0.24000	-26
0.24367	-32
0.24733	-37
0.25100	-41
0.25467	-44
0.25833	-46
0.26200	-44
0.26567	-41
0.26933	-38
0.27300	-35
0.27667	-34
0.28033	-33
0.28400	-30
0.28767	-25
0.29133	-20
0.29500	-17
0.29867	-15
0.30233	-15
0.30600	-16
0.30967	-19
0.31333	-25
0.31700	-31
0.32067	-29
0.32433	-21
0.32800	-14
0.33167	-12
0.33533	-17
0.33900	-27
0.34267	-35
0.34633	-42
0.35000	-44
0.35367	-41
0.35733	-37
0.36100	-33
0.36467	-26
0.36833	-21
0.37200	-22
0.37567	-25
0.37933	-29
0.38300	-32
0.38667	-36
0.39033	-40
0.39400	-45
0.39767	-48
0.40133	-47
0.40500	-41
0.40867	-33
0.41233	-24
0.41600	-21
0.41967	-23
0.42333	-30
0.42700	-36
0.43067	-38
0.43433	-34
0.43800	-31
0.44167	-34
0.44533	-42
0.44900	-49
0.45267	-56
0.45633	-61
0.46000	-60
0.46367	-53
0.46733	-44
0.47100	-39
0.47467	-41
0.47833	-46
0.48200	-52
0.48567	-59
0.48933	-64
0.49300	-63
0.49667	-60
0.50033	-54
0.50400	-43
0.50767	-29
0.51133	-19
0.51500	-16
0.51867	-21
0.52233	-30
0.52600	-39
0.52967	-46
0.53333	-51
0.53700	-52
0.54067	-52
0.54433	-54
0.54800	-56
0.55167	-56
0.55533	-55
0.55900	-52
0.56267	-48
0.56633	-47
0.57000	-47
0.57367	-46
0.57733	-46
0.58100	-44
0.58467	-41
0.58833	-37
0.59200	-36
0.59567	-36
0.59933	-37
0.60300	-36
0.60667	-37
0.61033	-38
0.61400	-36
0.61767	-31
0.62133	-23
0.62500	-21
0.62867	-23
0.63233	-25
0.63600	-27
0.63967	-27
0.64333	-28
0.64700	-30
0.65067	-30
0.65433	-31
0.65800	-35
0.66167	-40
0.66533	-44
0.66900	-47
0.67267	-46
0.67633	-41
0.68000	-36
0.68367	-33
0.68733	-33
0.69100	-35
0.69467	-35
0.69833	-36
0.70200	-37
0.70567	-36
0.70933	-34
0.71300	-33
0.71667	-34
0.72033	-39
0.72400	-45
0.72767	-50
0.73133	-50
0.73500	-46
0.73867	-45
0.74233	-46
0.74600	-48
0.74967	-49
0.75333	-48
0.75700	-41
0.76067	-34
0.76433	-31
0.76800	-32
0.77167	-33
0.77533	-37
0.77900	-40
0.78267	-43
0.78633	-47
0.79000	-50
0.79367	-51
0.79733	-53
0.80100	-53
0.80467	-51
0.80833	-48
0.81200	-49
0.81567	-52
0.81933	-54
0.82300	-53
0.82667	-49
0.83033	-41
0.83400	-34
0.83767	-27
0.84133	-19
0.84500	-14
0.84867	-12
0.85233	-15
0.85600	-19
0.85967	-25
0.86333	-30
0.86700	-35
0.87067	-36
0.87433	-37
0.87800	-39
0.88167	-40
0.88533	-42
0.88900	-43
0.89267	-43
0.89633	-42
0.90000	-42
0.90367	-41
0.90733	-41
0.91100	-43
0.91467	-44
0.91833	-43
0.92200	-41
0.92567	-38
0.92933	-34
0.93300	-32
0.93667	-30
0.94033	-30
0.94400	-31
0.94767	-39
0.95133	-54
0.95500	-66
0.95867	-72
0.96233	-70
0.96600	-63
0.96967	-57
0.97333	-53
0.97700	-50
0.98067	-47
0.98433	-46
0.98800	-47
0.99167	-48
0.99533	-48
0.99900	-46
1.00267	-46
1.00633	-47
1.01000	-46
1.01367	-41
1.01733	-33
1.02100	-30
1.02467	-32
1.02833	-36
1.03200	-35
1.03567	-27
1.03933	-25
1.04300	-32
1.04667	-41
1.05033	-51
1.05400	-60
1.05767	-63
1.06133	-62
1.06500	-64
1.06867	-65
1.07233	-66
1.07600	-62
1.07967	-55
1.08333	-49
1.08700	-46
1.09067	-46
1.09433	-49
1.09800	-54
1.10167	-56
1.10533	-53
1.10900	-45
1.11267	-38
1.11633	-38
1.12000	-42
1.12367	-50
1.12733	-58
1.13100	-65
1.13467	-65
1.13833	-60
1.14200	-55
1.14567	-51
1.14933	-49
1.15300	-50
1.15667	-49
1.16033	-48
1.16400	-46
1.16767	-47
1.17133	-48
1.17500	-51
1.17867	-54
1.18233	-55
1.18600	-53
1.18967	-48
1.19333	-45
1.19700	-45
1.20067	-46
1.20433	-50
1.20800	-57
1.21167	-66
1.21533	-72
1.21900	-72
1.22267	-68
1.22633	-63
1.23000	-59
1.23367	-57
1.23733	-61
1.24100	-67
1.24467	-71
1.24833	-73
1.25200	-72
1.25567	-68
1.25933	-63
1.26300	-57
1.26667	-55
1.27033	-57
1.27400	-57
1.27767	-56
1.28133	-54
1.28500	-50
1.28867	-46
1.29233	-43
1.29600	-41
1.29967	-41
1.30333	-40
1.30700	-40
1.31067	-45
1.31433	-48
1.31800	-51
1.32167	-56
1.32533	-64
1.32900	-70
1.33267	-73
1.33633	-75
1.34000	-79
1.34367	-83
1.34733	-84
1.35100	-82
1.35467	-76
1.35833	-66
1.36200	-59
1.36567	-56
1.36933	-55
1.37300	-58
1.37667	-64
1.38033	-71
1.38400	-75
1.38767	-77
1.39133	-75
1.39500	-72
1.39867	-69
1.40233	-66
1.40600	-61
1.40967	-56
1.41333	-55
1.41700	-56
1.42067	-59
1.42433	-60
1.42800	-61
1.43167	-59
1.43533	-50
1.43900	-24
1.44267	20
1.44633	94
1.45000	293
1.45367	693
1.45733	1223
1.46100	1754
1.46467	2205
1.46833	2541
1.47200	2731
1.47567	2737
1.47933	2544
1.48300	2193
1.48667	1764
1.49033	1336
1.49400	962
1.49767	664
1.50133	443
1.50500	288
1.50867	181
1.51233	106
1.51600	53
1.51967	11
1.52333	-18
1.52700	-37
1.53067	-49
1.53433	-43
1.53800	22
1.54167	210
1.54533	548
1.54900	979
1.55267	1410
1.55633	1769
1.56000	2023
1.56367	2149
1.56733	2123
1.57100	1934
1.57467	1618
1.57833	1248
1.58200	900
1.58567	612
1.58933	395
1.59300	241
1.59667	134
1.60033	59
1.60400	6
1.60767	-27
1.61133	-43
1.61500	-48
1.61867	-49
1.62233	-50
1.62600	-54
1.62967	-63
1.63333	-73
1.63700	-82
1.64067	-89
1.64433	-99
1.64800	-109
1.65167	-117
1.65533	-124
1.65900	-128
1.66267	-128
1.66633	-125
1.67000	-119
1.67367	-113
1.67733	-109
1.68100	-107
1.68467	-107
1.68833	-105
1.69200	-99
1.69567	-95
1.69933	-93
1.70300	-97
1.70667	-106
1.71033	-118
1.71400	-126
1.71767	-127
1.72133	-125
1.72500	-120
1.72867	-115
1.73233	-106
1.73600	-100
1.73967	-99
1.74333	-98
1.74700	-95
1.75067	-94
1.75433	-94
1.75800	-93
1.76167	-92
1.76533	-94
1.76900	-99
1.77267	-103
1.77633	-105
1.78000	-106
1.78367	-105
1.78733	-102
1.79100	-100
1.79467	-103
1.79833	-111
1.80200	-114
1.80567	-112
1.80933	-108
1.81300	-102
1.81667	-96
1.82033	-91
1.82400	-81
1.82767	-67
1.83133	-63
1.83500	-67
1.83867	-78
1.84233	-91
1.84600	-103
1.84967	-111
1.85333	-117
1.85700	-119
1.86067	-121
1.86433	-121
1.86800	-117
1.87167	-115
1.87533	-113
1.87900	-111
1.88267	-106
1.88633	-99
1.89000	-93
1.89367	-87
1.89733	-79
1.90100	-76
1.90467	-80
1.90833	-86
1.91200	-95
1.91567	-102
1.91933	-107
1.92300	-109
1.92667	-109
1.93033	-106
1.93400	-102
1.93767	-99
1.94133	-92
1.94500	-83
1.94867	-60
1.95233	72
1.95600	810
1.95967	4035
1.96333	14689
1.96700	41581
1.97067	94402
1.97433	176476
1.97800	279613
1.98167	386873
1.98533	479884
1.98900	544183
1.99267	570536
1.99633	555790
2.00000	504318
2.00367	427926
2.00733	341928
2.01100	259818
2.01467	189912
2.01833	135120
2.02200	94631
2.02567	65904
2.02933	46062
2.03300	32571
2.03667	23467
2.04033	17325
2.04400	13151
2.04767	10278
2.05133	8264
2.05500	6821
2.05867	5761
2.06233	4960
2.06600	4340
2.06967	3854
2.07333	3460
2.07700	3133
2.08067	2853
2.08433	2612
2.08800	2410
2.09167	2238
2.09533	2088
2.09900	1951
2.10267	1824
2.10633	1709
2.11000	1609
2.11367	1521
2.11733	1441
2.12100	1371
2.12467	1307
2.12833	1249
2.13200	1196
2.13567	1145
2.13933	1091
2.14300	1036
2.14667	985
2.15033	940
2.15400	900
2.15767	865
2.16133	833
2.16500	806
2.16867	780
2.17233	754
2.17600	728
2.17967	704
2.18333	685
2.18700	668
2.19067	649
2.19433	629
2.19800	607
2.20167	588
2.20533	573
2.20900	556
2.21267	537
2.21633	520
2.22000	507
2.22367	497
2.22733	490
2.23100	483
2.23467	476
2.23833	471
2.24200	466
2.24567	460
2.24933	446
2.25300	422
2.25667	396
2.26033	373
2.26400	354
2.26767	343
2.27133	336
2.27500	328
2.27867	325
2.28233	321
2.28600	313
2.28967	309
2.29333	309
2.29700	308
2.30067	305
2.30433	301
2.30800	294
2.31167	287
2.31533	280
2.31900	277
2.32267	276
2.32633	271
2.33000	263
2.33367	260
2.33733	260
2.34100	260
2.34467	263
2.34833	266
2.35200	265
2.35567	257
2.35933	245
2.36300	234
2.36667	224
2.37033	218
2.37400	218
2.37767	220
2.38133	222
2.38500	221
2.38867	218
2.39233	214
2.39600	210
2.39967	210
2.40333	212
2.40700	214
2.41067	211
2.41433	201
2.41800	191
2.42167	183
2.42533	177
2.42900	173
2.43267	171
2.43633	172
2.44000	174
2.44367	176
2.44733	180
2.45100	183
2.45467	186
2.45833	191
2.46200	193
2.46567	192
2.46933	192
2.47300	188
2.47667	180
2.48033	170
2.48400	162
2.48767	157
2.49133	151
2.49500	145
2.49867	141
2.50233	138
2.50600	135
2.50967	134
2.51333	139
2.51700	147
2.52067	155
2.52433	160
2.52800	164
2.53167	168
2.53533	170
2.53900	169
2.54267	170
2.54633	169
2.55000	169
2.55367	169
2.55733	170
2.56100	172
2.56467	174
2.56833	170
2.57200	159
2.57567	145
2.57933	135
2.58300	131
2.58667	135
2.59033	142
2.59400	148
2.59767	148
2.60133	145
2.60500	138
2.60867	133
2.61233	131
2.61600	133
2.61967	130
2.62333	124
2.62700	120
2.63067	120
2.63433	122
2.63800	125
2.64167	129
2.64533	132
2.64900	134
2.65267	135
2.65633	138
2.66000	141
2.66367	142
2.66733	142
2.67100	139
2.67467	134
2.67833	128
2.68200	124
2.68567	124
2.68933	127
2.69300	131
2.69667	136
2.70033	137
2.70400	134
2.70767	130
2.71133	129
2.71500	129
2.71867	130
2.72233	134
2.72600	139
2.72967	143
2.73333	146
2.73700	148
2.74067	149
2.74433	148
2.74800	145
2.75167	141
2.75533	138
2.75900	139
2.76267	142
2.76633	144
2.77000	145
2.77367	145
2.77733	145
2.78100	146
2.78467	147
2.78833	149
2.79200	149
2.79567	148
2.79933	146
2.80300	143
2.80667	141
2.81033	142
2.81400	139
2.81767	136
2.82133	136
2.82500	136
2.82867	137
2.83233	140
2.83600	145
2.83967	149
2.84333	154
2.84700	154
2.85067	149
2.85433	145
2.85800	142
2.86167	139
2.86533	135
2.86900	134
2.87267	134
2.87633	133
2.88000	132
2.88367	129
2.88733	124
2.89100	121
2.89467	120
2.89833	121
2.90200	125
2.90567	129
2.90933	134
2.91300	138
2.91667	141
2.92033	144
2.92400	146
2.92767	147
2.93133	145
2.93500	144
2.93867	145
2.94233	144
2.94600	142
2.94967	139
2.95333	138
2.95700	135
2.96067	132
2.96433	133
2.96800	140
2.97167	149
2.97533	156
2.97900	161
2.98267	162
2.98633	163
2.99000	165
2.99367	166
2.99733	165
3.00100	162
3.00467	159
3.00833	151
3.01200	144
3.01567	138
3.01933	136
3.02300	135
3.02667	134
3.03033	133
3.03400	131
3.03767	128
3.04133	127
3.04500	129
3.04867	136
3.05233	142
3.05600	144
3.05967	145
3.06333	146
3.06700	146
3.07067	145
3.07433	143
3.07800	139
3.08167	135
3.08533	134
3.08900	132
3.09267	133
3.09633	136
3.10000	142
3.10367	148
3.10733	149
3.11100	149
3.11467	151
3.11833	153
3.12200	150
3.12567	145
3.12933	141
3.13300	135
3.13667	129
3.14033	124
3.14400	121
3.14767	123
3.15133	129
3.15500	135
3.15867	138
3.16233	142
3.16600	143
3.16967	144
3.17333	143
3.17700	137
3.18067	131
3.18433	125
3.18800	119
3.19167	113
3.19533	111
3.19900	112
3.20267	115
3.20633	121
3.21000	129
3.21367	134
3.21733	136
3.22100	134
3.22467	130
3.22833	128
3.23200	128
3.23567	131
3.23933	136
3.24300	139
3.24667	138
3.25033	136
3.25400	134
3.25767	133
3.26133	136
3.26500	137
3.26867	137
3.27233	140
3.27600	146
3.27967	150
3.28333	151
3.28700	149
3.29067	145
3.29433	141
3.29800	136
3.30167	129
3.30533	120
3.30900	112
3.31267	104
3.31633	96
3.32000	89
3.32367	89
3.32733	94
3.33100	102
3.33467	106
3.33833	109
3.34200	115
3.34567	122
3.34933	124
3.35300	120
3.35667	115
3.36033	112
3.36400	115
3.36767	121
3.37133	131
3.37500	139
3.37867	145
3.38233	148
3.38600	140
3.38967	126
3.39333	117
3.39700	117
3.40067	124
3.40433	131
3.40800	137
3.41167	139
3.41533	136
3.41900	132
3.42267	126
3.42633	119
3.43000	113
3.43367	108
3.43733	104
3.44100	107
3.44467	112
3.44833	116
3.45200	121
3.45567	122
3.45933	122
3.46300	119
3.46667	114
3.47033	111
3.47400	110
3.47767	112
3.48133	116
3.48500	120
3.48867	120
3.49233	119
3.49600	123
3.49967	126
3.50333	128
3.50700	129
3.51067	127
3.51433	119
3.51800	107
3.52167	96
3.52533	90
3.52900	89
3.53267	94
3.53633	103
3.54000	115
3.54367	126
3.54733	129
3.55100	125
3.55467	119
3.55833	114
3.56200	108
3.56567	104
3.56933	102
3.57300	98
3.57667	94
3.58033	94
3.58400	96
3.58767	99
3.59133	105
3.59500	113
3.59867	117
3.60233	112
3.60600	104
3.60967	101
3.61333	104
3.61700	110
3.62067	111
3.62433	112
3.62800	116
3.63167	123
3.63533	131
3.63900	134
3.64267	136
3.64633	133
3.65000	129
3.65367	128
3.65733	125
3.66100	115
3.66467	106
3.66833	101
3.67200	95
3.67567	91
3.67933	87
3.68300	84
3.68667	81
3.69033	80
3.69400	84
3.69767	92
3.70133	100
3.70500	108
3.70867	114
3.71233	117
3.71600	116
3.71967	114
3.72333	112
3.72700	107
3.73067	102
3.73433	104
3.73800	112
3.74167	120
3.74533	127
3.74900	131
3.75267	134
3.75633	131
3.76000	124
3.76367	118
3.76733	114
3.77100	109
3.77467	102
3.77833	96
3.78200	91
3.78567	89
3.78933	91
3.79300	94
3.79667	99
3.80033	106
3.80400	113
3.80767	119
3.81133	124
3.81500	127
3.81867	125
3.82233	120
3.82600	115
3.82967	113
3.83333	117
3.83700	122
3.84067	128
3.84433	130
3.84800	123
3.85167	115
3.85533	110
3.85900	109
3.86267	112
3.86633	118
3.87000	123
3.87367	129
3.87733	131
3.88100	132
3.88467	129
3.88833	123
3.89200	119
3.89567	117
3.89933	118
3.90300	122
3.90667	128
3.91033	134
3.91400	138
3.91767	139
3.92133	135
3.92500	129
3.92867	126
3.93233	126
3.93600	125
3.93967	122
3.94333	121
3.94700	124
3.95067	130
3.95433	138
3.95800	144
3.96167	146
3.96533	142
3.96900	134
3.97267	131
3.97633	135
3.98000	141
3.98367	146
3.98733	146
3.99100	141
3.99467	137
3.99833	137

[Chromatogram (Ch2)]
Interval(msec)	220
# of Points	1091
Start Time(min)	0.002
End Time(min)	3.998
R.Time (min)	Intensity
0.00167	1
0.00533	1
0.00900	1
0.01267	1
0.01633	1
0.02000	1
0.02367	1
0.02733	1
0.03100	2
0.03467	2
0.03833	3
0.04200	3
0.04567	4
0.04933	4
0.05300	4
0.05667	4
0.06033	5
0.06400	5
0.06767	5
0.07133	5
0.07500	5
0.07867	4
0.08233	4
0.08600	4
0.08967	4
0.09333	4
0.09700	4
0.10067	4
0.10433	4
0.10800	4
0.11167	4
0.11533	4
0.11900	5
0.12267	5
0.12633	5
0.13000	5
0.13367	5
0.13733	5
0.14100	4
0.14467	4
0.14833	3
0.15200	3
0.15567	3
0.15933	3
0.16300	3
0.16667	3
0.17033	3
0.17400	3
0.17767	3
0.18133	3
0.18500	3
0.18867	2
0.19233	2
0.19600	2
0.19967	2
0.20333	2
0.20700	1
0.21067	1
0.21433	2
0.21800	2
0.22167	2
0.22533	2
0.22900	3
0.23267	3
0.23633	3
0.24000	3
0.24367	3
0.24733	3
0.25100	2
0.25467	2
0.25833	2
0.26200	3
0.26567	3
0.26933	3
0.27300	3
0.27667	3
0.28033	2
0.28400	2
0.28767	2
0.29133	2
0.29500	2
0.29867	2
0.30233	2
0.30600	2
0.30967	2
0.31333	1
0.31700	1
0.32067	1
0.32433	0
0.32800	0
0.33167	-0
0.33533	-0
0.33900	-1
0.34267	-1
0.34633	-1
0.35000	-1
0.35367	-2
0.35733	-2
0.36100	-2
0.36467	-2
0.36833	-3
0.37200	-3
0.37567	-3
0.37933	-2
0.38300	-2
0.38667	-2
0.39033	-1
0.39400	-1
0.39767	-1
0.40133	-1
0.40500	-1
0.40867	-0
0.41233	0
0.41600	0
0.41967	1
0.42333	1
0.42700	1
0.43067	1
0.43433	2
0.43800	2
0.44167	2
0.44533	1
0.44900	2
0.45267	2
0.45633	2
0.46000	2
0.46367	2
0.46733	3
0.47100	3
0.47467	3
0.47833	3
0.48200	3
0.48567	3
0.48933	3
0.49300	3
0.49667	3
0.50033	3
0.50400	4
0.50767	4
0.51133	4
0.51500	4
0.51867	4
0.52233	5
0.52600	5
0.52967	5
0.53333	5
0.53700	4
0.54067	4
0.54433	4
0.54800	4
0.55167	4
0.55533	4
0.55900	4
0.56267	4
0.56633	4
0.57000	3
0.57367	3
0.57733	3
0.58100	3
0.58467	2
0.58833	2
0.59200	2
0.59567	2
0.59933	1
0.60300	1
0.60667	1
0.61033	1
0.61400	1
0.61767	1
0.62133	1
0.62500	1
0.62867	1
0.63233	2
0.63600	2
0.63967	2
0.64333	2
0.64700	2
0.65067	2
0.65433	2
0.65800	2
0.66167	2
0.66533	2
0.66900	2
0.67267	2
0.67633	1
0.68000	1
0.68367	1
0.68733	1
0.69100	1
0.69467	0
0.69833	-0
0.70200	-1
0.70567	-1
0.70933	-1
0.71300	-1
0.71667	-1
0.72033	-1
0.72400	-1
0.72767	-1
0.73133	-1
0.73500	-1
0.73867	-1
0.74233	-1
0.74600	-1
0.74967	-2
0.75333	-2
0.75700	-2
0.76067	-2
0.76433	-3
0.76800	-3
0.77167	-3
0.77533	-3
0.77900	-3
0.78267	-3
0.78633	-3
0.79000	-3
0.79367	-2
0.79733	-2
0.80100	-2
0.80467	-1
0.80833	-1
0.81200	-1
0.81567	-1
0.81933	-1
0.82300	-1
0.82667	-1
0.83033	-1
0.83400	-1
0.83767	-0
0.84133	-0
0.84500	0
0.84867	1
0.85233	1
0.85600	2
0.85967	2
0.86333	2
0.86700	2
0.87067	2
0.87433	3
0.87800	3
0.88167	3
0.88533	3
0.88900	3
0.89267	3
0.89633	3
0.90000	3
0.90367	3
0.90733	3
0.91100	2
0.91467	2
0.91833	3
0.92200	3
0.92567	3
0.92933	3
0.93300	3
0.93667	3
0.94033	3
0.94400	2
0.94767	2
0.95133	2
0.95500	2
0.95867	2
0.96233	2
0.96600	2
0.96967	2
0.97333	2
0.97700	2
0.98067	2
0.98433	2
0.98800	2
0.99167	2
0.99533	2
0.99900	1
1.00267	1
1.00633	1
1.01000	1
1.01367	1
1.01733	1
1.02100	1
1.02467	0
1.02833	0
1.03200	0
1.03567	-0
1.03933	-0
1.04300	-0
1.04667	-0
1.05033	-0
1.05400	-0
1.05767	-0
1.06133	-0
1.06500	0
1.06867	0
1.07233	1
1.07600	1
1.07967	1
1.08333	1
1.08700	1
1.09067	1
1.09433	1
1.09800	1
1.10167	1
1.10533	1
1.10900	1
1.11267	1
1.11633	1
1.12000	1
1.12367	1
1.12733	1
1.13100	1
1.13467	1
1.13833	1
1.14200	1
1.14567	1
1.14933	1
1.15300	1
1.15667	1
1.16033	0
1.16400	0
1.16767	-0
1.17133	-0
1.17500	-0
1.17867	-0
1.18233	-0
1.18600	-0
1.18967	-0
1.19333	-0
1.19700	-0
1.20067	-0
1.20433	-0
1.20800	-0
1.21167	0
1.21533	0
1.21900	0
1.22267	0
1.22633	0
1.23000	-0
1.23367	-0
1.23733	-0
1.24100	-0
1.24467	-0
1.24833	-1
1.25200	-1
1.25567	-1
1.25933	-1
1.26300	-0
1.26667	-0
1.27033	-0
1.27400	-0
1.27767	-0
1.28133	-0
1.28500	-0
1.28867	-0
1.29233	-1
1.29600	-1
1.29967	-1
1.30333	-1
1.30700	-0
1.31067	-0
1.31433	0
1.31800	1
1.32167	1
1.32533	1
1.32900	1
1.33267	1
1.33633	0
1.34000	0
1.34367	0
1.34733	0
1.35100	0
1.35467	0
1.35833	0
1.36200	0
1.36567	-0
1.36933	-0
1.37300	-0
1.37667	-1
1.38033	-1
1.38400	-1
1.38767	-1
1.39133	-1
1.39500	-1
1.39867	-1
1.40233	-1
1.40600	-0
1.40967	-0
1.41333	0
1.41700	1
1.42067	1
1.42433	1
1.42800	1
1.43167	1
1.43533	1
1.43900	1
1.44267	1
1.44633	2
1.45000	2
1.45367	2
1.45733	2
1.46100	2
1.46467	2
1.46833	2
1.47200	1
1.47567	1
1.47933	1
1.48300	0
1.48667	0
1.49033	-0
1.49400	-0
1.49767	-1
1.50133	-1
1.50500	-1
1.50867	-0
1.51233	-0
1.51600	-0
1.51967	-0
1.52333	-0
1.52700	0
1.53067	0
1.53433	0
1.53800	0
1.54167	-0
1.54533	-0
1.54900	-1
1.55267	-1
1.55633	-1
1.56000	-1
1.56367	-1
1.56733	-1
1.57100	-1
1.57467	-1
1.57833	-1
1.58200	-1
1.58567	-1
1.58933	-2
1.59300	-2
1.59667	-2
1.60033	-3
1.60400	-4
1.60767	-5
1.61133	-7
1.61500	-9
1.61867	-12
1.62233	-14
1.62600	-17
1.62967	-20
1.63333	-24
1.63700	-27
1.64067	-30
1.64433	-34
1.64800	-37
1.65167	-41
1.65533	-44
1.65900	-47
1.66267	-51
1.66633	-54
1.67000	-58
1.67367	-62
1.67733	-67
1.68100	-71
1.68467	-76
1.68833	-81
1.69200	-85
1.69567	-88
1.69933	-91
1.70300	-94
1.70667	-95
1.71033	-97
1.71400	-98
1.71767	-98
1.72133	-99
1.72500	-99
1.72867	-99
1.73233	-98
1.73600	-98
1.73967	-97
1.74333	-96
1.74700	-96
1.75067	-95
1.75433	-95
1.75800	-94
1.76167	-94
1.76533	-95
1.76900	-95
1.77267	-96
1.77633	-97
1.78000	-98
1.78367	-99
1.78733	-100
1.79100	-101
1.79467	-102
1.79833	-102
1.80200	-102
1.80567	-102
1.80933	-103
1.81300	-103
1.81667	-104
1.82033	-104
1.82400	-104
1.82767	-104
1.83133	-104
1.83500	-103
1.83867	-103
1.84233	-104
1.84600	-104
1.84967	-104
1.85333	-104
1.85700	-104
1.86067	-103
1.86433	-103
1.86800	-103
1.87167	-103
1.87533	-103
1.87900	-103
1.88267	-103
1.88633	-102
1.89000	-102
1.89367	-102
1.89733	-101
1.90100	-101
1.90467	-100
1.90833	-100
1.91200	-100
1.91567	-100
1.91933	-100
1.92300	-100
1.92667	-100
1.93033	-99
1.93400	-99
1.93767	-99
1.94133	-99
1.94500	-98
1.94867	-97
1.95233	-97
1.95600	-97
1.95967	-97
1.96333	-97
1.96700	-97
1.97067	-97
1.97433	-97
1.97800	-97
1.98167	-98
1.98533	-98
1.98900	-97
1.99267	-97
1.99633	-96
2.00000	-96
2.00367	-96
2.00733	-96
2.01100	-96
2.01467	-96
2.01833	-96
2.02200	-96
2.02567	-96
2.02933	-96
2.03300	-95
2.03667	-94
2.04033	-94
2.04400	-93
2.04767	-93
2.05133	-92
2.05500	-92
2.05867	-92
2.06233	-92
2.06600	-92
2.06967	-91
2.07333	-91
2.07700	-91
2.08067	-91
2.08433	-90
2.08800	-89
2.09167	-89
2.09533	-88
2.09900	-88
2.10267	-88
2.10633	-88
2.11000	-88
2.11367	-87
2.11733	-87
2.12100	-86
2.12467	-86
2.12833	-85
2.13200	-84
2.13567	-84
2.13933	-84
2.14300	-84
2.14667	-84
2.15033	-84
2.15400	-85
2.15767	-85
2.16133	-84
2.16500	-84
2.16867	-83
2.17233	-83
2.17600	-82
2.17967	-82
2.18333	-82
2.18700	-83
2.19067	-83
2.19433	-83
2.19800	-83
2.20167	-83
2.20533	-83
2.20900	-82
2.21267	-81
2.21633	-80
2.22000	-80
2.22367	-79
2.22733	-77
2.23100	-76
2.23467	-76
2.23833	-76
2.24200	-76
2.24567	-76
2.24933	-76
2.25300	-76
2.25667	-76
2.26033	-75
2.26400	-74
2.26767	-74
2.27133	-73
2.27500	-73
2.27867	-73
2.28233	-74
2.28600	-74
2.28967	-75
2.29333	-75
2.29700	-75
2.30067	-75
2.30433	-75
2.30800	-74
2.31167	-74
2.31533	-73
2.31900	-72
2.32267	-71
2.32633	-71
2.33000	-70
2.33367	-69
2.33733	-68
2.34100	-68
2.34467	-67
2.34833	-66
2.35200	-65
2.35567	-64
2.35933	-63
2.36300	-62
2.36667	-61
2.37033	-60
2.37400	-58
2.37767	-56
2.38133	-53
2.38500	-49
2.38867	-45
2.39233	-41
2.39600	-36
2.39967	-32
2.40333	-27
2.40700	-23
2.41067	-19
2.41433	-16
2.41800	-13
2.42167	-11
2.42533	-9
2.42900	-7
2.43267	-4
2.43633	-2
2.44000	1
2.44367	3
2.44733	5
2.45100	6
2.45467	7
2.45833	8
2.46200	9
2.46567	10
2.46933	11
2.47300	11
2.47667	12
2.48033	13
2.48400	13
2.48767	13
2.49133	13
2.49500	14
2.49867	14
2.50233	15
2.50600	15
2.50967	15
2.51333	15
2.51700	14
2.52067	14
2.52433	13
2.52800	13
2.53167	12
2.53533	12
2.53900	13
2.54267	13
2.54633	14
2.55000	15
2.55367	15
2.55733	15
2.56100	16
2.56467	16
2.56833	16
2.57200	17
2.57567	17
2.57933	18
2.58300	18
2.58667	19
2.59033	19
2.59400	18
2.59767	18
2.60133	18
2.60500	18
2.60867	18
2.61233	18
2.61600	19
2.61967	19
2.62333	20
2.62700	20
2.63067	21
2.63433	21
2.63800	21
2.64167	22
2.64533	22
2.64900	23
2.65267	23
2.65633	24
2.66000	24
2.66367	25
2.66733	25
2.67100	25
2.67467	24
2.67833	24
2.68200	24
2.68567	24
2.68933	24
2.69300	24
2.69667	24
2.70033	24
2.70400	24
2.70767	24
2.71133	24
2.71500	25
2.71867	25
2.72233	26
2.72600	26
2.72967	27
2.73333	27
2.73700	28
2.74067	29
2.74433	29
2.74800	30
2.75167	29
2.75533	29
2.75900	28
2.76267	28
2.76633	27
2.77000	26
2.77367	26
2.77733	25
2.78100	25
2.78467	26
2.78833	26
2.79200	26
2.79567	27
2.79933	27
2.80300	27
2.80667	27
2.81033	28
2.81400	28
2.81767	28
2.82133	28
2.82500	29
2.82867	29
2.83233	29
2.83600	30
2.83967	30
2.84333	30
2.84700	30
2.85067	30
2.85433	29
2.85800	29
2.86167	27
2.86533	24
2.86900	19
2.87267	11
2.87633	-1
2.88000	-17
2.88367	-38
2.88733	-64
2.89100	-96
2.89467	-133
2.89833	-174
2.90200	-220
2.90567	-270
2.90933	-324
2.91300	-381
2.91667	-440
2.92033	-500
2.92400	-562
2.92767	-624
2.93133	-684
2.93500	-744
2.93867	-800
2.94233	-854
2.94600	-906
2.94967	-959
2.95333	-1015
2.95700	-1066
2.96067	-1101
2.96433	-1114
2.96800	-1100
2.97167	-1063
2.97533	-1007
2.97900	-938
2.98267	-860
2.98633	-779
2.99000	-699
2.99367	-621
2.99733	-547
3.00100	-479
3.00467	-417
3.00833	-361
3.01200	-311
3.01567	-267
3.01933	-228
3.02300	-194
3.02667	-164
3.03033	-139
3.03400	-117
3.03767	-98
3.04133	-81
3.04500	-67
3.04867	-55
3.05233	-45
3.05600	-36
3.05967	-28
3.06333	-22
3.06700	-17
3.07067	-12
3.07433	-8
3.07800	-4
3.08167	-1
3.08533	2
3.08900	4
3.09267	6
3.09633	8
3.10000	10
3.10367	11
3.10733	12
3.11100	13
3.11467	14
3.11833	14
3.12200	15
3.12567	16
3.12933	16
3.13300	17
3.13667	17
3.14033	18
3.14400	18
3.14767	18
3.15133	19
3.15500	19
3.15867	19
3.16233	19
3.16600	19
3.16967	19
3.17333	20
3.17700	20
3.18067	20
3.18433	20
3.18800	21
3.19167	21
3.19533	21
3.19900	22
3.20267	23
3.20633	23
3.21000	23
3.21367	23
3.21733	24
3.22100	24
3.22467	24
3.22833	24
3.23200	24
3.23567	24
3.23933	24
3.24300	25
3.24667	25
3.25033	25
3.25400	25
3.25767	25
3.26133	26
3.26500	26
3.26867	26
3.27233	26
3.27600	26
3.27967	26
3.28333	25
3.28700	25
3.29067	25
3.29433	25
3.29800	25
3.30167	26
3.30533	26
3.30900	26
3.31267	26
3.31633	26
3.32000	26
3.32367	26
3.32733	27
3.33100	27
3.33467	27
3.33833	27
3.34200	28
3.34567	28
3.34933	28
3.35300	28
3.35667	28
3.36033	29
3.36400	29
3.36767	30
3.37133	30
3.37500	30
3.37867	31
3.38233	31
3.38600	31
3.38967	31
3.39333	32
3.39700	32
3.40067	32
3.40433	32
3.40800	32
3.41167	32
3.41533	32
3.41900	32
3.42267	32
3.42633	32
3.43000	31
3.43367	31
3.43733	31
3.44100	31
3.44467	32
3.44833	32
3.45200	32
3.45567	32
3.45933	32
3.46300	32
3.46667	31
3.47033	31
3.47400	31
3.47767	30
3.48133	30
3.48500	30
3.48867	30
3.49233	30
3.49600	30
3.49967	29
3.50333	29
3.50700	29
3.51067	29
3.51433	29
3.51800	29
3.52167	29
3.52533	29
3.52900	29
3.53267	29
3.53633	29
3.54000	29
3.54367	29
3.54733	29
3.55100	29
3.55467	29
3.55833	29
3.56200	29
3.56567	29
3.56933	29
3.57300	29
3.57667	29
3.58033	30
3.58400	30
3.58767	29
3.59133	29
3.59500	29
3.59867	29
3.60233	29
3.60600	29
3.60967	29
3.61333	29
3.61700	29
3.62067	29
3.62433	30
3.62800	29
3.63167	29
3.63533	29
3.63900	29
3.64267	29
3.64633	29
3.65000	29
3.65367	29
3.65733	29
3.66100	29
3.66467	29
3.66833	29
3.67200	29
3.67567	29
3.67933	29
3.68300	29
3.68667	29
3.69033	28
3.69400	28
3.69767	28
3.70133	27
3.70500	27
3.70867	27
3.71233	27
3.71600	27
3.71967	28
3.72333	28
3.72700	28
3.73067	28
3.73433	28
3.73800	28
3.74167	28
3.74533	28
3.74900	28
3.75267	28
3.75633	28
3.76000	29
3.76367	29
3.76733	29
3.77100	29
3.77467	29
3.77833	29
3.78200	28
3.78567	28
3.78933	28
3.79300	28
3.79667	28
3.80033	28
3.80400	28
3.80767	28
3.81133	28
3.81500	28
3.81867	28
3.82233	28
3.82600	28
3.82967	28
3.83333	28
3.83700	28
3.84067	28
3.84433	28
3.84800	28
3.85167	28
3.85533	28
3.85900	28
3.86267	28
3.86633	27
3.87000	27
3.87367	27
3.87733	27
3.88100	27
3.88467	27
3.88833	27
3.89200	27
3.89567	27
3.89933	27
3.90300	27
3.90667	27
3.91033	27
3.91400	27
3.91767	27
3.92133	28
3.92500	28
3.92867	28
3.93233	27
3.93600	27
3.93967	27
3.94333	27
3.94700	27
3.95067	27
3.95433	27
3.95800	27
3.96167	28
3.96533	28
3.96900	28
3.97267	29
3.97633	29
3.98000	29
3.98367	28
3.98733	28
3.99100	28
3.99467	28
3.99833	28

[Chromatogram (Ch3)]
Interval(msec)	220
# of Points	1091
Start Time(min)	0.002
End Time(min)	3.998
R.Time (min)	Intensity
0.00167	0
0.00533	-1
0.00900	-0
0.01267	2
0.01633	3
0.02000	3
0.02367	3
0.02733	3
0.03100	1
0.03467	-1
0.03833	-1
0.04200	1
0.04567	3
0.04933	3
0.05300	3
0.05667	4
0.06033	5
0.06400	2
0.06767	-1
0.07133	-5
0.07500	-7
0.07867	-5
0.08233	-2
0.08600	2
0.08967	3
0.09333	2
0.09700	-1
0.10067	-3
0.10433	-5
0.10800	-5
0.11167	-3
0.11533	-5
0.11900	-5
0.12267	-6
0.12633	-4
0.13000	-2
0.13367	-1
0.13733	0
0.14100	1
0.14467	2
0.14833	3
0.15200	2
0.15567	1
0.15933	0
0.16300	-0
0.16667	-1
0.17033	-1
0.17400	-2
0.17767	-1
0.18133	0
0.18500	0
0.18867	0
0.19233	2
0.19600	3
0.19967	2
0.20333	3
0.20700	5
0.21067	6
0.21433	7
0.21800	6
0.22167	4
0.22533	4
0.22900	3
0.23267	1
0.23633	-0
0.24000	1
0.24367	1
0.24733	2
0.25100	2
0.25467	2
0.25833	3
0.26200	3
0.26567	3
0.26933	2
0.27300	1
0.27667	1
0.28033	4
0.28400	6
0.28767	7
0.29133	6
0.29500	6
0.29867	6
0.30233	6
0.30600	5
0.30967	4
0.31333	5
0.31700	4
0.32067	2
0.32433	1
0.32800	1
0.33167	1
0.33533	2
0.33900	5
0.34267	6
0.34633	7
0.35000	8
0.35367	5
0.35733	4
0.36100	5
0.36467	6
0.36833	8
0.37200	8
0.37567	8
0.37933	7
0.38300	7
0.38667	7
0.39033	5
0.39400	7
0.39767	8
0.40133	10
0.40500	10
0.40867	9
0.41233	7
0.41600	5
0.41967	4
0.42333	6
0.42700	8
0.43067	10
0.43433	11
0.43800	11
0.44167	11
0.44533	9
0.44900	6
0.45267	7
0.45633	8
0.46000	9
0.46367	8
0.46733	6
0.47100	7
0.47467	9
0.47833	12
0.48200	13
0.48567	13
0.48933	14
0.49300	14
0.49667	14
0.50033	12
0.50400	12
0.50767	13
0.51133	15
0.51500	15
0.51867	15
0.52233	13
0.52600	12
0.52967	12
0.53333	12
0.53700	13
0.54067	12
0.54433	11
0.54800	9
0.55167	8
0.55533	9
0.55900	9
0.56267	11
0.56633	12
0.57000	12
0.57367	13
0.57733	12
0.58100	12
0.58467	12
0.58833	12
0.59200	13
0.59567	13
0.59933	11
0.60300	9
0.60667	9
0.61033	10
0.61400	12
0.61767	13
0.62133	14
0.62500	17
0.62867	17
0.63233	17
0.63600	17
0.63967	20
0.64333	21
0.64700	18
0.65067	17
0.65433	17
0.65800	17
0.66167	17
0.66533	18
0.66900	18
0.67267	17
0.67633	17
0.68000	16
0.68367	16
0.68733	16
0.69100	16
0.69467	17
0.69833	16
0.70200	16
0.70567	17
0.70933	16
0.71300	16
0.71667	19
0.72033	20
0.72400	21
0.72767	21
0.73133	20
0.73500	18
0.73867	17
0.74233	17
0.74600	17
0.74967	18
0.75333	20
0.75700	21
0.76067	20
0.76433	19
0.76800	17
0.77167	16
0.77533	16
0.77900	16
0.78267	17
0.78633	20
0.79000	21
0.79367	19
0.79733	19
0.80100	18
0.80467	19
0.80833	20
0.81200	22
0.81567	24
0.81933	25
0.82300	23
0.82667	21
0.83033	19
0.83400	20
0.83767	20
0.84133	20
0.84500	21
0.84867	21
0.85233	19
0.85600	20
0.85967	21
0.86333	23
0.86700	22
0.87067	20
0.87433	21
0.87800	21
0.88167	20
0.88533	22
0.88900	24
0.89267	23
0.89633	22
0.90000	23
0.90367	23
0.90733	23
0.91100	22
0.91467	21
0.91833	22
0.92200	23
0.92567	22
0.92933	20
0.93300	20
0.93667	22
0.94033	22
0.94400	20
0.94767	18
0.95133	21
0.95500	23
0.95867	23
0.96233	22
0.96600	23
0.96967	24
0.97333	22
0.97700	19
0.98067	18
0.98433	18
0.98800	19
0.99167	20
0.99533	21
0.99900	22
1.00267	23
1.00633	24
1.01000	25
1.01367	25
1.01733	23
1.02100	21
1.02467	21
1.02833	23
1.03200	23
1.03567	24
1.03933	24
1.04300	23
1.04667	23
1.05033	23
1.05400	21
1.05767	20
1.06133	21
1.06500	23
1.06867	23
1.07233	23
1.07600	24
1.07967	25
1.08333	26
1.08700	27
1.09067	27
1.09433	28
1.09800	29
1.10167	31
1.10533	31
1.10900	29
1.11267	27
1.11633	25
1.12000	25
1.12367	25
1.12733	23
1.13100	22
1.13467	24
1.13833	26
1.14200	28
1.14567	27
1.14933	27
1.15300	27
1.15667	28
1.16033	30
1.16400	31
1.16767	30
1.17133	29
1.17500	32
1.17867	34
1.18233	33
1.18600	33
1.18967	33
1.19333	33
1.19700	31
1.20067	29
1.20433	29
1.20800	28
1.21167	26
1.21533	25
1.21900	24
1.22267	22
1.22633	22
1.23000	24
1.23367	25
1.23733	27
1.24100	27
1.24467	26
1.24833	26
1.25200	27
1.25567	26
1.25933	25
1.26300	26
1.26667	28
1.27033	27
1.27400	26
1.27767	25
1.28133	24
1.28500	24
1.28867	26
1.29233	27
1.29600	29
1.29967	29
1.30333	29
1.30700	28
1.31067	25
1.31433	23
1.31800	19
1.32167	16
1.32533	17
1.32900	20
1.33267	23
1.33633	24
1.34000	24
1.34367	21
1.34733	22
1.35100	24
1.35467	23
1.35833	21
1.36200	20
1.36567	21
1.36933	20
1.37300	21
1.37667	23
1.38033	24
1.38400	25
1.38767	27
1.39133	27
1.39500	29
1.39867	28
1.40233	28
1.40600	29
1.40967	30
1.41333	31
1.41700	32
1.42067	34
1.42433	33
1.42800	31
1.43167	32
1.43533	31
1.43900	32
1.44267	33
1.44633	31
1.45000	29
1.45367	27
1.45733	26
1.46100	24
1.46467	24
1.46833	24
1.47200	26
1.47567	28
1.47933	29
1.48300	30
1.48667	31
1.49033	31
1.49400	30
1.49767	29
1.50133	29
1.50500	30
1.50867	30
1.51233	30
1.51600	31
1.51967	31
1.52333	29
1.52700	27
1.53067	25
1.53433	25
1.53800	26
1.54167	26
1.54533	25
1.54900	28
1.55267	30
1.55633	31
1.56000	31
1.56367	30
1.56733	29
1.57100	26
1.57467	25
1.57833	25
1.58200	25
1.58567	23
1.58933	22
1.59300	24
1.59667	24
1.60033	23
1.60400	24
1.60767	25
1.61133	25
1.61500	26
1.61867	26
1.62233	25
1.62600	25
1.62967	26
1.63333	27
1.63700	30
1.64067	31
1.64433	32
1.64800	33
1.65167	33
1.65533	31
1.65900	30
1.66267	31
1.66633	33
1.67000	36
1.67367	38
1.67733	39
1.68100	41
1.68467	38
1.68833	36
1.69200	36
1.69567	36
1.69933	38
1.70300	39
1.70667	39
1.71033	39
1.71400	43
1.71767	45
1.72133	45
1.72500	43
1.72867	40
1.73233	37
1.73600	38
1.73967	41
1.74333	43
1.74700	42
1.75067	41
1.75433	40
1.75800	40
1.76167	42
1.76533	43
1.76900	42
1.77267	43
1.77633	45
1.78000	44
1.78367	43
1.78733	43
1.79100	45
1.79467	45
1.79833	46
1.80200	46
1.80567	46
1.80933	48
1.81300	49
1.81667	50
1.82033	52
1.82400	54
1.82767	52
1.83133	51
1.83500	52
1.83867	53
1.84233	54
1.84600	55
1.84967	56
1.85333	59
1.85700	61
1.86067	60
1.86433	58
1.86800	58
1.87167	58
1.87533	58
1.87900	59
1.88267	57
1.88633	57
1.89000	56
1.89367	55
1.89733	55
1.90100	55
1.90467	57
1.90833	59
1.91200	60
1.91567	61
1.91933	62
1.92300	63
1.92667	65
1.93033	66
1.93400	67
1.93767	70
1.94133	69
1.94500	67
1.94867	68
1.95233	69
1.95600	70
1.95967	70
1.96333	68
1.96700	69
1.97067	71
1.97433	74
1.97800	79
1.98167	79
1.98533	78
1.98900	77
1.99267	80
1.99633	83
2.00000	83
2.00367	84
2.00733	85
2.01100	86
2.01467	88
2.01833	89
2.02200	91
2.02567	93
2.02933	94
2.03300	93
2.03667	90
2.04033	89
2.04400	91
2.04767	93
2.05133	97
2.05500	101
2.05867	101
2.06233	101
2.06600	102
2.06967	101
2.07333	99
2.07700	99
2.08067	100
2.08433	101
2.08800	101
2.09167	103
2.09533	104
2.09900	105
2.10267	105
2.10633	104
2.11000	105
2.11367	107
2.11733	107
2.12100	109
2.12467	112
2.12833	113
2.13200	113
2.13567	115
2.13933	113
2.14300	110
2.14667	111
2.15033	112
2.15400	112
2.15767	114
2.16133	117
2.16500	119
2.16867	117
2.17233	114
2.17600	115
2.17967	119
2.18333	122
2.18700	123
2.19067	124
2.19433	124
2.19800	126
2.20167	129
2.20533	129
2.20900	128
2.21267	126
2.21633	127
2.22000	126
2.22367	126
2.22733	125
2.23100	126
2.23467	127
2.23833	128
2.24200	130
2.24567	132
2.24933	135
2.25300	137
2.25667	138
2.26033	138
2.26400	140
2.26767	141
2.27133	140
2.27500	138
2.27867	138
2.28233	138
2.28600	138
2.28967	139
2.29333	139
2.29700	138
2.30067	138
2.30433	139
2.30800	143
2.31167	144
2.31533	144
2.31900	144
2.32267	146
2.32633	148
2.33000	150
2.33367	149
2.33733	148
2.34100	149
2.34467	150
2.34833	149
2.35200	150
2.35567	151
2.35933	153
2.36300	156
2.36667	156
2.37033	156
2.37400	156
2.37767	156
2.38133	156
2.38500	156
2.38867	156
2.39233	156
2.39600	155
2.39967	155
2.40333	156
2.40700	155
2.41067	154
2.41433	156
2.41800	157
2.42167	158
2.42533	157
2.42900	154
2.43267	153
2.43633	153
2.44000	157
2.44367	195
2.44733	266
2.45100	332
2.45467	378
2.45833	392
2.46200	382
2.46567	363
2.46933	347
2.47300	335
2.47667	319
2.48033	297
2.48400	272
2.48767	247
2.49133	226
2.49500	210
2.49867	198
2.50233	191
2.50600	192
2.50967	197
2.51333	204
2.51700	207
2.52067	208
2.52433	204
2.52800	195
2.53167	186
2.53533	177
2.53900	164
2.54267	152
2.54633	142
2.55000	136
2.55367	133
2.55733	127
2.56100	123
2.56467	121
2.56833	116
2.57200	116
2.57567	118
2.57933	121
2.58300	123
2.58667	126
2.59033	129
2.59400	136
2.59767	141
2.60133	149
2.60500	157
2.60867	162
2.61233	165
2.61600	165
2.61967	165
2.62333	163
2.62700	161
2.63067	156
2.63433	147
2.63800	136
2.64167	126
2.64533	116
2.64900	107
2.65267	97
2.65633	89
2.66000	84
2.66367	81
2.66733	79
2.67100	78
2.67467	76
2.67833	76
2.68200	76
2.68567	75
2.68933	73
2.69300	71
2.69667	69
2.70033	73
2.70400	76
2.70767	77
2.71133	77
2.71500	77
2.71867	77
2.72233	77
2.72600	78
2.72967	80
2.73333	82
2.73700	83
2.74067	84
2.74433	85
2.74800	88
2.75167	89
2.75533	90
2.75900	89
2.76267	89
2.76633	91
2.77000	94
2.77367	99
2.77733	102
2.78100	105
2.78467	109
2.78833	112
2.79200	114
2.79567	114
2.79933	115
2.80300	118
2.80667	120
2.81033	123
2.81400	126
2.81767	130
2.82133	133
2.82500	135
2.82867	137
2.83233	141
2.83600	152
2.83967	181
2.84333	238
2.84700	343
2.85067	517
2.85433	780
2.85800	1143
2.86167	1605
2.86533	2141
2.86900	2718
2.87267	3287
2.87633	3798
2.88000	4210
2.88367	4495
2.88733	4645
2.89100	4657
2.89467	4546
2.89833	4332
2.90200	4042
2.90567	3712
2.90933	3377
2.91300	3056
2.91667	2759
2.92033	2487
2.92400	2240
2.92767	2018
2.93133	1824
2.93500	1657
2.93867	1514
2.94233	1392
2.94600	1286
2.94967	1193
2.95333	1112
2.95700	1042
2.96067	983
2.96433	930
2.96800	883
2.97167	842
2.97533	805
2.97900	773
2.98267	748
2.98633	728
2.99000	712
2.99367	697
2.99733	683
3.00100	671
3.00467	661
3.00833	654
3.01200	649
3.01567	644
3.01933	638
3.02300	633
3.02667	629
3.03033	627
3.03400	624
3.03767	619
3.04133	616
3.04500	612
3.04867	607
3.05233	604
3.05600	600
3.05967	597
3.06333	596
3.06700	597
3.07067	598
3.07433	599
3.07800	601
3.08167	600
3.08533	600
3.08900	600
3.09267	601
3.09633	602
3.10000	604
3.10367	608
3.10733	609
3.11100	609
3.11467	609
3.11833	608
3.12200	610
3.12567	614
3.12933	620
3.13300	624
3.13667	627
3.14033	628
3.14400	629
3.14767	632
3.15133	636
3.15500	637
3.15867	639
3.16233	640
3.16600	643
3.16967	647
3.17333	651
3.17700	654
3.18067	658
3.18433	661
3.18800	663
3.19167	664
3.19533	665
3.19900	666
3.20267	667
3.20633	669
3.21000	673
3.21367	675
3.21733	674
3.22100	673
3.22467	671
3.22833	672
3.23200	672
3.23567	670
3.23933	667
3.24300	664
3.24667	662
3.25033	660
3.25400	659
3.25767	656
3.26133	654
3.26500	653
3.26867	651
3.27233	649
3.27600	646
3.27967	644
3.28333	641
3.28700	639
3.29067	638
3.29433	638
3.29800	636
3.30167	632
3.30533	630
3.30900	629
3.31267	627
3.31633	622
3.32000	618
3.32367	614
3.32733	610
3.33100	607
3.33467	604
3.33833	601
3.34200	598
3.34567	595
3.34933	593
3.35300	593
3.35667	593
3.36033	591
3.36400	589
3.36767	588
3.37133	586
3.37500	586
3.37867	586
3.38233	585
3.38600	579
3.38967	575
3.39333	573
3.39700	570
3.40067	565
3.40433	562
3.40800	560
3.41167	560
3.41533	559
3.41900	556
3.42267	552
3.42633	549
3.43000	549
3.43367	551
3.43733	552
3.44100	551
3.44467	551
3.44833	551
3.45200	550
3.45567	546
3.45933	542
3.46300	541
3.46667	540
3.47033	540
3.47400	541
3.47767	539
3.48133	535
3.48500	531
3.48867	526
3.49233	523
3.49600	523
3.49967	523
3.50333	522
3.50700	519
3.51067	517
3.51433	514
3.51800	509
3.52167	506
3.52533	503
3.52900	501
3.53267	500
3.53633	499
3.54000	498
3.54367	497
3.54733	496
3.55100	494
3.55467	491
3.55833	489
3.56200	488
3.56567	488
3.56933	484
3.57300	481
3.57667	477
3.58033	474
3.58400	474
3.58767	475
3.59133	477
3.59500	478
3.59867	478
3.60233	477
3.60600	476
3.60967	476
3.61333	472
3.61700	468
3.62067	468
3.62433	467
3.62800	467
3.63167	467
3.63533	468
3.63900	467
3.64267	466
3.64633	464
3.65000	463
3.65367	464
3.65733	463
3.66100	462
3.66467	462
3.66833	462
3.67200	460
3.67567	458
3.67933	456
3.68300	453
3.68667	449
3.69033	447
3.69400	447
3.69767	445
3.70133	442
3.70500	440
3.70867	439
3.71233	439
3.71600	439
3.71967	440
3.72333	441
3.72700	443
3.73067	441
3.73433	437
3.73800	434
3.74167	435
3.74533	437
3.74900	436
3.75267	435
3.75633	432
3.76000	430
3.76367	428
3.76733	426
3.77100	425
3.77467	426
3.77833	427
3.78200	425
3.78567	423
3.78933	423
3.79300	423
3.79667	422
3.80033	420
3.80400	418
3.80767	417
3.81133	417
3.81500	417
3.81867	418
3.82233	417
3.82600	416
3.82967	416
3.83333	417
3.83700	415
3.84067	413
3.84433	412
3.84800	410
3.85167	409
3.85533	408
3.85900	408
3.86267	408
3.86633	408
3.87000	407
3.87367	407
3.87733	406
3.88100	407
3.88467	406
3.88833	406
3.89200	408
3.89567	405
3.89933	400
3.90300	398
3.90667	399
3.91033	398
3.91400	397
3.91767	397
3.92133	398
3.92500	399
3.92867	398
3.93233	396
3.93600	392
3.93967	389
3.94333	390
3.94700	392
3.95067	392
3.95433	390
3.95800	389
3.96167	386
3.96533	386
3.96900	386
3.97267	386
3.97633	386
3.98000	385
3.98367	386
3.98733	386
3.99100	387
3.99467	386
3.99833	383

[Status Trace (Column Oven Temperature)]
Interval(msec)	1000
# of Points	240
Start Time(min)	0.005
End Time(min)	3.989
Intensity Units	
Intensity Multiplier	1
R.Time (min)	Intensity
0.00548	35.09
0.02215	35.08
0.03882	35.06
0.05548	35.05
0.07215	35.03
0.08882	35.03
0.10548	35.02
0.12215	35.02
0.13882	35.01
0.15548	35.02
0.17215	35.02
0.18882	35.02
0.20548	35.01
0.22215	35.00
0.23882	34.99
0.25548	34.99
0.27215	35.00
0.28882	35.00
0.30548	35.01
0.32215	35.01
0.33882	35.02
0.35548	35.04
0.37215	35.05
0.38882	35.05
0.40548	35.05
0.42215	35.04
0.43882	35.04
0.45548	35.04
0.47215	35.02
0.48882	35.02
0.50548	35.02
0.52215	35.00
0.53882	34.99
0.55548	34.99
0.57215	34.98
0.58882	34.99
0.60548	34.98
0.62215	34.98
0.63882	34.98
0.65548	34.97
0.67215	34.96
0.68882	34.97
0.70548	34.99
0.72215	35.00
0.73882	35.01
0.75548	35.02
0.77215	35.03
0.78882	35.04
0.80548	35.05
0.82215	35.06
0.83882	35.04
0.85548	35.03
0.87215	35.02
0.88882	35.01
0.90548	35.01
0.92215	35.00
0.93882	35.00
0.95548	35.00
0.97215	34.99
0.98882	34.99
1.00548	34.98
1.02215	34.98
1.03882	34.99
1.05548	34.99
1.07215	34.98
1.08882	34.97
1.10548	34.97
1.12215	34.97
1.13882	34.98
1.15548	34.98
1.17215	34.97
1.18882	34.97
1.20548	34.98
1.22215	34.98
1.23882	34.98
1.25548	34.99
1.27215	34.98
1.28882	34.99
1.30548	34.99
1.32215	34.99
1.33882	34.99
1.35548	35.00
1.37215	35.00
1.38882	35.01
1.40548	35.00
1.42215	34.99
1.43882	34.99
1.45548	34.98
1.47215	34.98
1.48882	34.98
1.50548	34.99
1.52215	34.98
1.53882	34.99
1.55548	34.99
1.57215	34.98
1.58882	34.99
1.60548	35.04
1.62215	35.16
1.63882	35.34
1.65548	35.58
1.67215	35.90
1.68882	36.27
1.70548	36.64
1.72215	36.98
1.73882	37.29
1.75548	37.58
1.77215	37.93
1.78882	38.28
1.80548	38.61
1.82215	38.94
1.83882	39.27
1.85548	39.61
1.87215	39.95
1.88882	40.27
1.90548	40.59
1.92215	40.93
1.93882	41.25
1.95548	41.58
1.97215	41.91
1.98882	42.24
2.00548	42.56
2.02215	42.88
2.03882	43.20
2.05548	43.52
2.07215	43.86
2.08882	44.17
2.10548	44.52
2.12215	44.84
2.13882	45.17
2.15548	45.50
2.17215	45.81
2.18882	46.15
2.20548	46.49
2.22215	46.79
2.23882	47.12
2.25548	47.45
2.27215	47.74
2.28882	48.11
2.30548	48.43
2.32215	48.76
2.33882	49.09
2.35548	49.39
2.37215	49.61
2.38882	49.71
2.40548	49.70
2.42215	49.73
2.43882	49.70
2.45548	49.73
2.47215	49.73
2.48882	49.75
2.50548	49.74
2.52215	49.77
2.53882	49.76
2.55548	49.77
2.57215	49.78
2.58882	49.81
2.60548	49.82
2.62215	49.83
2.63882	49.84
2.65548	49.83
2.67215	49.85
2.68882	49.85
2.70548	49.87
2.72215	49.86
2.73882	49.83
2.75548	49.86
2.77215	49.88
2.78882	49.90
2.80548	49.90
2.82215	49.89
2.83882	49.89
2.85548	49.89
2.87215	49.89
2.88882	49.89
2.90548	49.90
2.92215	49.90
2.93882	49.91
2.95548	49.92
2.97215	49.94
2.98882	49.96
3.00548	49.97
3.02215	49.99
3.03882	50.01
3.05548	50.02
3.07215	50.02
3.08882	50.03
3.10548	50.04
3.12215	50.04
3.13882	50.06
3.15548	50.06
3.17215	50.07
3.18882	50.08
3.20548	50.08
3.22215	50.08
3.23882	50.09
3.25548	50.09
3.27215	50.10
3.28882	50.11
3.30548	50.11
3.32215	50.11
3.33882	50.11
3.35548	50.10
3.37215	50.08
3.38882	50.06
3.40548	50.04
3.42215	50.03
3.43882	50.02
3.45548	50.00
3.47215	49.99
3.48882	49.99
3.50548	49.99
3.52215	49.98
3.53882	49.99
3.55548	49.98
3.57215	49.98
3.58882	49.98
3.60548	49.97
3.62215	49.97
3.63882	49.98
3.65548	49.99
3.67215	49.98
3.68882	50.00
3.70548	50.01
3.72215	50.02
3.73882	50.02
3.75548	50.01
3.77215	50.01
3.78882	50.02
3.80548	50.01
3.82215	50.02
3.83882	50.03
3.85548	50.03
3.87215	50.04
3.88882	50.04
3.90548	50.05
3.92215	50.05
3.93882	50.05
3.95548	50.05
3.97215	50.04
3.98882	50.05

[Status Trace (Injection Unit Temperature)]
Interval(msec)	1000
# of Points	240
Start Time(min)	0.005
End Time(min)	3.989
Intensity Units	
Intensity Multiplier	1
R.Time (min)	Intensity
0.00548	99.98
0.02215	99.98
0.03882	99.98
0.05548	99.98
0.07215	99.98
0.08882	99.98
0.10548	99.98
0.12215	99.98
0.13882	99.98
0.15548	99.98
0.17215	99.98
0.18882	99.98
0.20548	99.98
0.22215	99.98
0.23882	99.98
0.25548	99.98
0.27215	99.98
0.28882	99.98
0.30548	99.98
0.32215	99.98
0.33882	99.98
0.35548	99.98
0.37215	99.98
0.38882	99.98
0.40548	99.98
0.42215	99.98
0.43882	99.98
0.45548	99.98
0.47215	99.98
0.48882	99.98
0.50548	99.98
0.52215	99.98
0.53882	99.98
0.55548	99.98
0.57215	99.98
0.58882	99.98
0.60548	99.98
0.62215	99.98
0.63882	99.98
0.65548	99.98
0.67215	99.98
0.68882	99.98
0.70548	99.98
0.72215	99.98
0.73882	99.98
0.75548	99.98
0.77215	99.98
0.78882	99.98
0.80548	99.98
0.82215	99.98
0.83882	99.98
0.85548	99.98
0.87215	99.98
0.88882	99.98
0.90548	99.98
0.92215	99.98
0.93882	99.98
0.95548	99.98
0.97215	99.98
0.98882	99.98
1.00548	99.98
1.02215	99.98
1.03882	99.98
1.05548	99.98
1.07215	99.98
1.08882	99.98
1.10548	99.98
1.12215	99.98
1.13882	99.98
1.15548	99.98
1.17215	99.98
1.18882	99.98
1.20548	99.98
1.22215	99.98
1.23882	99.97
1.25548	99.98
1.27215	99.98
1.28882	99.98
1.30548	99.98
1.32215	99.98
1.33882	99.99
1.35548	99.98
1.37215	99.98
1.38882	99.98
1.40548	99.98
1.42215	99.98
1.43882	99.98
1.45548	99.98
1.47215	99.98
1.48882	99.98
1.50548	99.98
1.52215	99.98
1.53882	99.99
1.55548	99.98
1.57215	99.98
1.58882	99.99
1.60548	99.98
1.62215	99.99
1.63882	99.99
1.65548	99.98
1.67215	99.99
1.68882	99.99
1.70548	99.98
1.72215	99.98
1.73882	99.99
1.75548	99.99
1.77215	99.98
1.78882	99.99
1.80548	99.98
1.82215	99.98
1.83882	99.98
1.85548	99.98
1.87215	99.98
1.88882	99.98
1.90548	99.98
1.92215	99.98
1.93882	99.98
1.95548	99.98
1.97215	99.98
1.98882	99.98
2.00548	99.98
2.02215	99.97
2.03882	99.98
2.05548	99.98
2.07215	99.97
2.08882	99.97
2.10548	99.97
2.12215	99.97
2.13882	99.97
2.15548	99.97
2.17215	99.97
2.18882	99.97
2.20548	99.97
2.22215	99.96
2.23882	99.96
2.25548	99.97
2.27215	99.97
2.28882	99.97
2.30548	99.97
2.32215	99.96
2.33882	99.96
2.35548	99.96
2.37215	99.97
2.38882	99.96
2.40548	99.97
2.42215	99.97
2.43882	99.97
2.45548	99.97
2.47215	99.97
2.48882	99.97
2.50548	99.97
2.52215	99.97
2.53882	99.97
2.55548	99.97
2.57215	99.98
2.58882	99.98
2.60548	99.98
2.62215	99.98
2.63882	99.98
2.65548	99.98
2.67215	99.98
2.68882	99.98
2.70548	99.99
2.72215	99.99
2.73882	100.00
2.75548	99.99
2.77215	99.99
2.78882	100.00
2.80548	100.00
2.82215	100.00
2.83882	100.00
2.85548	100.00
2.87215	100.00
2.88882	100.01
2.90548	100.01
2.92215	100.01
2.93882	100.01
2.95548	100.01
2.97215	100.01
2.98882	100.01
3.00548	100.01
3.02215	100.02
3.03882	100.02
3.05548	100.02
3.07215	100.02
3.08882	100.02
3.10548	100.02
3.12215	100.02
3.13882	100.02
3.15548	100.02
3.17215	100.03
3.18882	100.02
3.20548	100.03
3.22215	100.03
3.23882	100.02
3.25548	100.03
3.27215	100.03
3.28882	100.03
3.30548	100.03
3.32215	100.04
3.33882	100.04
3.35548	100.04
3.37215	100.04
3.38882	100.04
3.40548	100.04
3.42215	100.04
3.43882	100.04
3.45548	100.04
3.47215	100.04
3.48882	100.04
3.50548	100.04
3.52215	100.04
3.53882	100.05
3.55548	100.04
3.57215	100.04
3.58882	100.05
3.60548	100.05
3.62215	100.05
3.63882	100.05
3.65548	100.05
3.67215	100.05
3.68882	100.05
3.70548	100.05
3.72215	100.05
3.73882	100.05
3.75548	100.05
3.77215	100.05
3.78882	100.05
3.80548	100.04
3.82215	100.05
3.83882	100.05
3.85548	100.05
3.87215	100.05
3.88882	100.05
3.90548	100.05
3.92215	100.05
3.93882	100.05
3.95548	100.05
3.97215	100.05
3.98882	100.05

[Status Trace (Carrier Gas Pressure)]
Interval(msec)	1000
# of Points	240
Start Time(min)	0.005
End Time(min)	3.989
Intensity Units	
Intensity Multiplier	1
R.Time (min)	Intensity
0.00548	58.00
0.02215	55.73
0.03882	56.87
0.05548	59.02
0.07215	59.55
0.08882	58.09
0.10548	57.98
0.12215	58.01
0.13882	58.01
0.15548	58.01
0.17215	58.00
0.18882	58.00
0.20548	58.00
0.22215	58.00
0.23882	58.00
0.25548	58.00
0.27215	58.00
0.28882	58.00
0.30548	58.00
0.32215	58.00
0.33882	58.00
0.35548	58.00
0.37215	58.00
0.38882	58.00
0.40548	58.00
0.42215	58.00
0.43882	58.00
0.45548	58.00
0.47215	58.00
0.48882	58.00
0.50548	58.00
0.52215	58.00
0.53882	58.00
0.55548	58.00
0.57215	58.00
0.58882	58.00
0.60548	58.00
0.62215	58.00
0.63882	58.00
0.65548	58.00
0.67215	58.00
0.68882	58.00
0.70548	58.00
0.72215	58.00
0.73882	58.00
0.75548	58.00
0.77215	58.00
0.78882	58.00
0.80548	58.00
0.82215	58.00
0.83882	58.00
0.85548	58.00
0.87215	58.00
0.88882	58.00
0.90548	58.00
0.92215	58.00
0.93882	58.00
0.95548	58.00
0.97215	58.00
0.98882	58.00
1.00548	58.00
1.02215	58.00
1.03882	58.00
1.05548	58.00
1.07215	58.00
1.08882	58.00
1.10548	58.00
1.12215	58.00
1.13882	58.00
1.15548	58.00
1.17215	58.00
1.18882	58.00
1.20548	58.00
1.22215	58.00
1.23882	58.00
1.25548	58.00
1.27215	58.00
1.28882	58.00
1.30548	58.00
1.32215	58.00
1.33882	58.00
1.35548	58.00
1.37215	58.00
1.38882	58.00
1.40548	58.00
1.42215	58.00
1.43882	58.00
1.45548	58.00
1.47215	58.00
1.48882	58.00
1.50548	58.00
1.52215	58.00
1.53882	58.00
1.55548	58.00
1.57215	58.00
1.58882	58.00
1.60548	58.00
1.62215	58.00
1.63882	58.00
1.65548	58.00
1.67215	58.01
1.68882	58.01
1.70548	58.00
1.72215	58.00
1.73882	58.00
1.75548	58.00
1.77215	58.00
1.78882	58.00
1.80548	58.00
1.82215	58.00
1.83882	58.00
1.85548	58.00
1.87215	58.00
1.88882	58.00
1.90548	58.00
1.92215	58.00
1.93882	58.00
1.95548	58.00
1.97215	58.00
1.98882	58.00
2.00548	58.00
2.02215	58.00
2.03882	58.00
2.05548	58.00
2.07215	58.00
2.08882	58.00
2.10548	58.00
2.12215	58.00
2.13882	58.00
2.15548	58.00
2.17215	58.00
2.18882	58.00
2.20548	58.00
2.22215	58.00
2.23882	58.00
2.25548	58.00
2.27215	58.00
2.28882	58.00
2.30548	58.00
2.32215	58.00
2.33882	58.00
2.35548	58.00
2.37215	58.00
2.38882	57.99
2.40548	57.99
2.42215	58.00
2.43882	58.00
2.45548	58.00
2.47215	58.00
2.48882	58.00
2.50548	57.99
2.52215	57.99
2.53882	57.99
2.55548	58.00
2.57215	58.00
2.58882	58.00
2.60548	58.00
2.62215	58.00
2.63882	58.00
2.65548	58.00
2.67215	58.00
2.68882	58.00
2.70548	58.00
2.72215	58.00
2.73882	58.00
2.75548	58.00
2.77215	58.00
2.78882	58.00
2.80548	58.00
2.82215	58.00
2.83882	58.00
2.85548	58.00
2.87215	58.00
2.88882	58.00
2.90548	58.00
2.92215	58.00
2.93882	58.00
2.95548	58.00
2.97215	58.00
2.98882	58.00
3.00548	58.00
3.02215	58.00
3.03882	58.00
3.05548	58.00
3.07215	58.00
3.08882	58.00
3.10548	58.00
3.12215	58.00
3.13882	58.00
3.15548	58.00
3.17215	58.00
3.18882	58.00
3.20548	58.00
3.22215	58.00
3.23882	58.00
3.25548	58.00
3.27215	58.00
3.28882	58.00
3.30548	58.00
3.32215	58.00
3.33882	58.00
3.35548	58.00
3.37215	58.00
3.38882	58.00
3.40548	58.00
3.42215	58.00
3.43882	58.00
3.45548	58.00
3.47215	58.00
3.48882	58.00
3.50548	58.00
3.52215	58.00
3.53882	58.00
3.55548	58.00
3.57215	58.00
3.58882	58.00
3.60548	58.00
3.62215	58.00
3.63882	58.00
3.65548	58.00
3.67215	58.00
3.68882	58.00
3.70548	58.00
3.72215	58.00
3.73882	58.00
3.75548	58.00
3.77215	58.00
3.78882	58.00
3.80548	58.00
3.82215	58.00
3.83882	58.00
3.85548	58.00
3.87215	58.00
3.88882	58.00
3.90548	58.00
3.92215	58.00
3.93882	58.00
3.95548	58.00
3.97215	58.00
3.98882	58.00

[Status Trace (Carrier Gas Flow)]
Interval(msec)	1000
# of Points	240
Start Time(min)	0.005
End Time(min)	3.989
Intensity Units	
Intensity Multiplier	1
R.Time (min)	Intensity
0.00548	34.52
0.02215	34.54
0.03882	34.55
0.05548	34.55
0.07215	34.49
0.08882	34.51
0.10548	34.52
0.12215	34.52
0.13882	34.52
0.15548	34.52
0.17215	34.52
0.18882	34.52
0.20548	34.52
0.22215	34.52
0.23882	34.52
0.25548	34.52
0.27215	34.52
0.28882	34.52
0.30548	34.51
0.32215	34.51
0.33882	34.52
0.35548	34.52
0.37215	34.52
0.38882	34.53
0.40548	34.52
0.42215	34.52
0.43882	34.52
0.45548	34.53
0.47215	34.53
0.48882	34.51
0.50548	34.51
0.52215	34.52
0.53882	34.52
0.55548	34.51
0.57215	34.52
0.58882	34.51
0.60548	34.52
0.62215	34.52
0.63882	34.52
0.65548	34.52
0.67215	34.51
0.68882	34.52
0.70548	34.52
0.72215	34.52
0.73882	34.52
0.75548	34.53
0.77215	34.52
0.78882	34.52
0.80548	34.52
0.82215	34.52
0.83882	34.52
0.85548	34.52
0.87215	34.53
0.88882	34.53
0.90548	34.52
0.92215	34.52
0.93882	34.52
0.95548	34.52
0.97215	34.52
0.98882	34.52
1.00548	34.52
1.02215	34.52
1.03882	34.52
1.05548	34.52
1.07215	34.52
1.08882	34.52
1.10548	34.51
1.12215	34.52
1.13882	34.52
1.15548	34.52
1.17215	34.52
1.18882	34.52
1.20548	34.52
1.22215	34.52
1.23882	34.52
1.25548	34.52
1.27215	34.52
1.28882	34.52
1.30548	34.52
1.32215	34.52
1.33882	34.52
1.35548	34.52
1.37215	34.52
1.38882	34.52
1.40548	34.52
1.42215	34.52
1.43882	34.52
1.45548	34.51
1.47215	34.52
1.48882	34.52
1.50548	34.53
1.52215	34.52
1.53882	34.52
1.55548	34.52
1.57215	34.52
1.58882	34.52
1.60548	34.52
1.62215	34.52
1.63882	34.52
1.65548	34.51
1.67215	34.52
1.68882	34.52
1.70548	34.52
1.72215	34.51
1.73882	34.51
1.75548	34.52
1.77215	34.51
1.78882	34.52
1.80548	34.52
1.82215	34.53
1.83882	34.52
1.85548	34.52
1.87215	34.51
1.88882	34.51
1.90548	34.51
1.92215	34.52
1.93882	34.52
1.95548	34.52
1.97215	34.52
1.98882	34.52
2.00548	34.52
2.02215	34.52
2.03882	34.51
2.05548	34.53
2.07215	34.52
2.08882	34.52
2.10548	34.52
2.12215	34.52
2.13882	34.52
2.15548	34.52
2.17215	34.52
2.18882	34.51
2.20548	34.52
2.22215	34.52
2.23882	34.52
2.25548	34.51
2.27215	34.51
2.28882	34.52
2.30548	34.53
2.32215	34.51
2.33882	34.51
2.35548	34.52
2.37215	34.51
2.38882	34.51
2.40548	34.51
2.42215	34.52
2.43882	34.52
2.45548	34.51
2.47215	34.52
2.48882	34.53
2.50548	34.52
2.52215	34.52
2.53882	34.52
2.55548	34.52
2.57215	34.52
2.58882	34.51
2.60548	34.52
2.62215	34.52
2.63882	34.52
2.65548	34.52
2.67215	34.52
2.68882	34.52
2.70548	34.52
2.72215	34.52
2.73882	34.52
2.75548	34.52
2.77215	34.52
2.78882	34.52
2.80548	34.51
2.82215	34.52
2.83882	34.52
2.85548	34.52
2.87215	34.51
2.88882	34.52
2.90548	34.52
2.92215	34.52
2.93882	34.52
2.95548	34.52
2.97215	34.52
2.98882	34.52
3.00548	34.52
3.02215	34.52
3.03882	34.52
3.05548	34.52
3.07215	34.52
3.08882	34.53
3.10548	34.51
3.12215	34.52
3.13882	34.52
3.15548	34.52
3.17215	34.52
3.18882	34.52
3.20548	34.52
3.22215	34.52
3.23882	34.52
3.25548	34.52
3.27215	34.52
3.28882	34.52
3.30548	34.52
3.32215	34.52
3.33882	34.52
3.35548	34.51
3.37215	34.52
3.38882	34.52
3.40548	34.52
3.42215	34.51
3.43882	34.52
3.45548	34.52
3.47215	34.52
3.48882	34.52
3.50548	34.52
3.52215	34.52
3.53882	34.52
3.55548	34.52
3.57215	34.52
3.58882	34.52
3.60548	34.52
3.62215	34.52
3.63882	34.53
3.65548	34.51
3.67215	34.51
3.68882	34.52
3.70548	34.52
3.72215	34.52
3.73882	34.51
3.75548	34.52
3.77215	34.52
3.78882	34.52
3.80548	34.52
3.82215	34.52
3.83882	34.52
3.85548	34.52
3.87215	34.52
3.88882	34.52
3.90548	34.51
3.92215	34.52
3.93882	34.52
3.95548	34.52
3.97215	34.52
3.98882	34.52

[Status Trace (Column Flow)]
Interval(msec)	1000
# of Points	240
Start Time(min)	0.005
End Time(min)	3.989
Intensity Units	
Intensity Multiplier	1
R.Time (min)	Intensity
0.00548	5.52
0.02215	5.25
0.03882	5.39
0.05548	5.64
0.07215	5.70
0.08882	5.53
0.10548	5.52
0.12215	5.52
0.13882	5.52
0.15548	5.52
0.17215	5.52
0.18882	5.52
0.20548	5.52
0.22215	5.52
0.23882	5.52
0.25548	5.52
0.27215	5.52
0.28882	5.52
0.30548	5.52
0.32215	5.52
0.33882	5.52
0.35548	5.52
0.37215	5.52
0.38882	5.52
0.40548	5.52
0.42215	5.52
0.43882	5.52
0.45548	5.52
0.47215	5.52
0.48882	5.52
0.50548	5.52
0.52215	5.52
0.53882	5.52
0.55548	5.52
0.57215	5.52
0.58882	5.52
0.60548	5.52
0.62215	5.52
0.63882	5.52
0.65548	5.52
0.67215	5.52
0.68882	5.52
0.70548	5.52
0.72215	5.52
0.73882	5.52
0.75548	5.52
0.77215	5.52
0.78882	5.52
0.80548	5.52
0.82215	5.52
0.83882	5.52
0.85548	5.52
0.87215	5.52
0.88882	5.52
0.90548	5.52
0.92215	5.52
0.93882	5.52
0.95548	5.52
0.97215	5.52
0.98882	5.52
1.00548	5.52
1.02215	5.52
1.03882	5.52
1.05548	5.52
1.07215	5.52
1.08882	5.52
1.10548	5.52
1.12215	5.52
1.13882	5.52
1.15548	5.52
1.17215	5.52
1.18882	5.52
1.20548	5.52
1.22215	5.52
1.23882	5.52
1.25548	5.52
1.27215	5.52
1.28882	5.52
1.30548	5.52
1.32215	5.52
1.33882	5.52
1.35548	5.52
1.37215	5.52
1.38882	5.52
1.40548	5.52
1.42215	5.52
1.43882	5.52
1.45548	5.52
1.47215	5.52
1.48882	5.52
1.50548	5.52
1.52215	5.52
1.53882	5.52
1.55548	5.52
1.57215	5.52
1.58882	5.52
1.60548	5.52
1.62215	5.52
1.63882	5.51
1.65548	5.50
1.67215	5.49
1.68882	5.48
1.70548	5.47
1.72215	5.46
1.73882	5.45
1.75548	5.44
1.77215	5.43
1.78882	5.42
1.80548	5.41
1.82215	5.40
1.83882	5.39
1.85548	5.38
1.87215	5.37
1.88882	5.36
1.90548	5.35
1.92215	5.34
1.93882	5.33
1.95548	5.32
1.97215	5.31
1.98882	5.30
2.00548	5.29
2.02215	5.28
2.03882	5.27
2.05548	5.26
2.07215	5.25
2.08882	5.24
2.10548	5.23
2.12215	5.22
2.13882	5.21
2.15548	5.20
2.17215	5.19
2.18882	5.19
2.20548	5.18
2.22215	5.17
2.23882	5.16
2.25548	5.15
2.27215	5.14
2.28882	5.13
2.30548	5.12
2.32215	5.11
2.33882	5.10
2.35548	5.09
2.37215	5.09
2.38882	5.08
2.40548	5.08
2.42215	5.08
2.43882	5.08
2.45548	5.08
2.47215	5.08
2.48882	5.08
2.50548	5.08
2.52215	5.08
2.53882	5.08
2.55548	5.08
2.57215	5.08
2.58882	5.08
2.60548	5.08
2.62215	5.08
2.63882	5.08
2.65548	5.08
2.67215	5.08
2.68882	5.08
2.70548	5.08
2.72215	5.08
2.73882	5.08
2.75548	5.08
2.77215	5.08
2.78882	5.08
2.80548	5.08
2.82215	5.08
2.83882	5.08
2.85548	5.08
2.87215	5.08
2.88882	5.08
2.90548	5.08
2.92215	5.08
2.93882	5.08
2.95548	5.08
2.97215	5.08
2.98882	5.08
3.00548	5.08
3.02215	5.08
3.03882	5.08
3.05548	5.08
3.07215	5.08
3.08882	5.08
3.10548	5.08
3.12215	5.08
3.13882	5.08
3.15548	5.08
3.17215	5.08
3.18882	5.07
3.20548	5.07
3.22215	5.07
3.23882	5.07
3.25548	5.07
3.27215	5.07
3.28882	5.07
3.30548	5.07
3.32215	5.07
3.33882	5.07
3.35548	5.07
3.37215	5.07
3.38882	5.08
3.40548	5.08
3.42215	5.08
3.43882	5.08
3.45548	5.08
3.47215	5.08
3.48882	5.08
3.50548	5.08
3.52215	5.08
3.53882	5.08
3.55548	5.08
3.57215	5.08
3.58882	5.08
3.60548	5.08
3.62215	5.08
3.63882	5.08
3.65548	5.08
3.67215	5.08
3.68882	5.08
3.70548	5.08
3.72215	5.08
3.73882	5.08
3.75548	5.08
3.77215	5.08
3.78882	5.08
3.80548	5.08
3.82215	5.08
3.83882	5.08
3.85548	5.08
3.87215	5.08
3.88882	5.08
3.90548	5.08
3.92215	5.08
3.93882	5.08
3.95548	5.08
3.97215	5.08
3.98882	5.08

[Status Trace (Linear Velocity)]
Interval(msec)	1000
# of Points	240
Start Time(min)	0.005
End Time(min)	3.989
Intensity Units	
Intensity Multiplier	1
R.Time (min)	Intensity
0.00548	39.01
0.02215	37.52
0.03882	38.27
0.05548	39.68
0.07215	40.03
0.08882	39.07
0.10548	39.00
0.12215	39.02
0.13882	39.02
0.15548	39.02
0.17215	39.02
0.18882	39.02
0.20548	39.02
0.22215	39.02
0.23882	39.02
0.25548	39.02
0.27215	39.02
0.28882	39.02
0.30548	39.02
0.32215	39.02
0.33882	39.01
0.35548	39.01
0.37215	39.01
0.38882	39.01
0.40548	39.01
0.42215	39.01
0.43882	39.01
0.45548	39.01
0.47215	39.01
0.48882	39.02
0.50548	39.01
0.52215	39.02
0.53882	39.02
0.55548	39.02
0.57215	39.02
0.58882	39.02
0.60548	39.02
0.62215	39.02
0.63882	39.02
0.65548	39.02
0.67215	39.02
0.68882	39.02
0.70548	39.02
0.72215	39.02
0.73882	39.02
0.75548	39.01
0.77215	39.01
0.78882	39.01
0.80548	39.01
0.82215	39.01
0.83882	39.01
0.85548	39.01
0.87215	39.01
0.88882	39.02
0.90548	39.02
0.92215	39.02
0.93882	39.02
0.95548	39.02
0.97215	39.02
0.98882	39.02
1.00548	39.02
1.02215	39.02
1.03882	39.02
1.05548	39.02
1.07215	39.02
1.08882	39.02
1.10548	39.02
1.12215	39.02
1.13882	39.02
1.15548	39.02
1.17215	39.02
1.18882	39.02
1.20548	39.02
1.22215	39.02
1.23882	39.02
1.25548	39.02
1.27215	39.02
1.28882	39.02
1.30548	39.02
1.32215	39.02
1.33882	39.02
1.35548	39.02
1.37215	39.02
1.38882	39.02
1.40548	39.02
1.42215	39.02
1.43882	39.02
1.45548	39.02
1.47215	39.02
1.48882	39.02
1.50548	39.02
1.52215	39.02
1.53882	39.02
1.55548	39.02
1.57215	39.02
1.58882	39.02
1.60548	39.01
1.62215	39.00
1.63882	38.99
1.65548	38.96
1.67215	38.93
1.68882	38.90
1.70548	38.86
1.72215	38.83
1.73882	38.80
1.75548	38.77
1.77215	38.74
1.78882	38.70
1.80548	38.67
1.82215	38.64
1.83882	38.61
1.85548	38.58
1.87215	38.55
1.88882	38.52
1.90548	38.49
1.92215	38.46
1.93882	38.42
1.95548	38.39
1.97215	38.36
1.98882	38.33
2.00548	38.30
2.02215	38.27
2.03882	38.24
2.05548	38.21
2.07215	38.18
2.08882	38.16
2.10548	38.12
2.12215	38.09
2.13882	38.06
2.15548	38.04
2.17215	38.01
2.18882	37.98
2.20548	37.95
2.22215	37.92
2.23882	37.89
2.25548	37.86
2.27215	37.83
2.28882	37.80
2.30548	37.77
2.32215	37.74
2.33882	37.71
2.35548	37.69
2.37215	37.67
2.38882	37.65
2.40548	37.65
2.42215	37.66
2.43882	37.66
2.45548	37.66
2.47215	37.66
2.48882	37.65
2.50548	37.65
2.52215	37.65
2.53882	37.65
2.55548	37.65
2.57215	37.65
2.58882	37.65
2.60548	37.65
2.62215	37.65
2.63882	37.65
2.65548	37.65
2.67215	37.65
2.68882	37.65
2.70548	37.64
2.72215	37.64
2.73882	37.65
2.75548	37.65
2.77215	37.64
2.78882	37.64
2.80548	37.64
2.82215	37.64
2.83882	37.64
2.85548	37.64
2.87215	37.64
2.88882	37.64
2.90548	37.64
2.92215	37.64
2.93882	37.64
2.95548	37.64
2.97215	37.64
2.98882	37.64
3.00548	37.63
3.02215	37.63
3.03882	37.63
3.05548	37.63
3.07215	37.63
3.08882	37.63
3.10548	37.63
3.12215	37.63
3.13882	37.63
3.15548	37.63
3.17215	37.63
3.18882	37.63
3.20548	37.63
3.22215	37.63
3.23882	37.62
3.25548	37.62
3.27215	37.62
3.28882	37.62
3.30548	37.62
3.32215	37.62
3.33882	37.62
3.35548	37.62
3.37215	37.62
3.38882	37.63
3.40548	37.63
3.42215	37.63
3.43882	37.63
3.45548	37.63
3.47215	37.63
3.48882	37.63
3.50548	37.63
3.52215	37.63
3.53882	37.63
3.55548	37.63
3.57215	37.63
3.58882	37.63
3.60548	37.64
3.62215	37.63
3.63882	37.63
3.65548	37.63
3.67215	37.63
3.68882	37.63
3.70548	37.63
3.72215	37.63
3.73882	37.63
3.75548	37.63
3.77215	37.63
3.78882	37.63
3.80548	37.63
3.82215	37.63
3.83882	37.63
3.85548	37.63
3.87215	37.63
3.88882	37.63
3.90548	37.63
3.92215	37.63
3.93882	37.63
3.95548	37.63
3.97215	37.63
3.98882	37.63

