[Header]
Application Name	LabSolutions
Version	5.110
Data File Name	C:\Users\User\Desktop\Junior\UIC Prairie Sampling\3.23.23\032323_078.gcd
Output Date	5/24/2023
Output Time	10:27:40 AM

[File Information]
Type	Data File
Generated	5/24/2023 12:20:09 AM
Generated by	System Administrator
Modified	5/24/2023 12:27:03 AM
Modified by	System Administrator

[Sample Information]
Operator Name	System Administrator
Acquired	5/24/2023 12:23:03 AM
Sample Type	0:Unknown
Level	0
Sample Name	078
Sample ID	078
ISTD Amount1	1
ISTD Amount2	1
ISTD Amount3	1
ISTD Amount4	1
ISTD Amount5	1
ISTD Amount6	1
ISTD Amount7	1
ISTD Amount8	1
ISTD Amount9	1
ISTD Amount10	1
ISTD Amount11	1
ISTD Amount12	1
ISTD Amount13	1
ISTD Amount14	1
ISTD Amount15	1
ISTD Amount16	1
ISTD Amount17	1
ISTD Amount18	1
ISTD Amount19	1
ISTD Amount20	1
ISTD Amount21	1
ISTD Amount22	1
ISTD Amount23	1
ISTD Amount24	1
ISTD Amount25	1
ISTD Amount26	1
ISTD Amount27	1
ISTD Amount28	1
ISTD Amount29	1
ISTD Amount30	1
ISTD Amount31	1
ISTD Amount32	1
Sample Amount	1
Dilution Factor	1
Vial#	77
Injection Volume	1
Injection Count	1
Bar Code	

[Original Files]
Data File	C:\Users\User\Desktop\GC Analyses\Jack\Nachusa Grasslands Sampling\20220924\t2\032323_078.gcd
Method File	C:\LabSolutions\Data\GHG_4min_2022\ghg3_togas_w_acet_4 min_new_int.gcm
Batch File	C:\LabSolutions\Data\AutoSamplerTesting\032323.gcb
Report Format File	c:\LabSolutions\System\DEFAULT.lsr

[File Description]


[Configuration]
Instrument Name	C0B7VH3-Instrument1
Instrument #	1
Line #	1
# of Detectors	3
Detector ID	DET#1	DET#2	DET#3
Detector Name	FID	PTCD	ECD
# of Channels	1	1	1

[Peak Table(Ch1)]
# of Peaks	3
Peak#	R.Time	I.Time	F.Time	Area	Height	A/H	Conc.	Mark	ID#	Name	k'	Plate #	Plate Ht.	Tailing	Resolution	Sep.Factor	Area Ratio	Height Ratio	Conc. %	Norm Conc.
1	1.479	1.457	1.509	504	325	1.553	0.000	   	1	CO	0.000	14989	10.008	1.145	0.000	0.000	0	0	0.000	0.000
2	1.564	1.531	1.637	19509	9881	1.974	95.113	   	2	CH4	0.057	11321	13.249	1.256	1.575	0.000	0	0	19.741	19.741
3	1.993	1.941	2.524	2006462	961566	2.087	386.682	   	3	CO2	0.347	17139	8.752	1.252	7.170	6.087	0	0	80.259	80.259

[Peak Table(Ch2)]
# of Peaks	0

[Peak Table(Ch3)]
# of Peaks	5
Peak#	R.Time	I.Time	F.Time	Area	Height	A/H	Conc.	Mark	ID#	Name	k'	Plate #	Plate Ht.	Tailing	Resolution	Sep.Factor	Area Ratio	Height Ratio	Conc. %	Norm Conc.
1	2.458	2.345	2.506	853	303	2.821	0.000	   			0.000	15886	9.442	0.000	0.000	0.000	0	0	0.000	0.000
2	2.521	2.506	2.561	250	110	2.276	0.000	 V 			0.025	5284	28.385	0.000	0.575	0.000	0	0	0.000	0.000
3	2.623	2.561	2.667	315	89	3.539	0.000	 V 			0.067	11816	12.695	0.000	0.873	2.647	0	0	0.000	0.000
4	2.891	2.730	3.019	52290	13837	3.779	0.774	   	1	N2O	0.176	13057	11.488	1.554	2.707	2.622	0	0	100.000	100.000
5	3.236	3.019	3.995	12757	410	31.108	0.000	 V 			0.316	316	474.664	0.000	0.831	1.797	0	0	0.000	0.000

[Compound Results(Ch1)]
# of IDs	6
ID#	Name	R.Time	Area	Height	Conc.	Curve	3rd	2nd	1st	Constant	Area Ratio	Height Ratio	Conc. %	Norm Conc.
1	CO	1.479	504	325	0.000	Linear	0.000000e+00	0.000000e+00	0.000000e+00	0.000000e+00	0	0	0.000	0.000
2	CH4	1.564	19509	9881	95.113	Linear	0.000000e+00	0.000000e+00	2.051179e+002	0.000000e+00	0	0	19.741	19.741
3	CO2	1.993	2006462	961566	386.682	Linear	0.000000e+00	0.000000e+00	5.188919e+003	0.000000e+00	0	0	80.259	80.259
4	Ethylene	0.000	0	0	0.000	Linear	0.000000e+00	0.000000e+00	0.000000e+00	0.000000e+00	0	0	0.000	0.000
5	Acetylene	0.000	0	0	0.000	Linear	0.000000e+00	0.000000e+00	0.000000e+00	0.000000e+00	0	0	0.000	0.000
6	Ethane	0.000	0	0	0.000	Linear	0.000000e+00	0.000000e+00	0.000000e+00	0.000000e+00	0	0	0.000	0.000

[Compound Results(Ch2)]
# of IDs	5
ID#	Name	R.Time	Area	Height	Conc.	Curve	3rd	2nd	1st	Constant	Area Ratio	Height Ratio	Conc. %	Norm Conc.
1	Hydrogen	0.000	0	0	0.000	Linear	0.000000e+00	0.000000e+00	0.000000e+00	0.000000e+00	0	0	0.000	0.000
2	Oxygen	0.000	0	0	0.000	Linear	0.000000e+00	0.000000e+00	0.000000e+00	0.000000e+00	0	0	0.000	0.000
3	Nitrogen	0.000	0	0	0.000	Linear	0.000000e+00	0.000000e+00	0.000000e+00	0.000000e+00	0	0	0.000	0.000
4	Methane	0.000	0	0	0.000	Linear	0.000000e+00	0.000000e+00	0.000000e+00	0.000000e+00	0	0	0.000	0.000
5	Carbon Monoxide	0.000	0	0	0.000	Linear	0.000000e+00	0.000000e+00	0.000000e+00	0.000000e+00	0	0	0.000	0.000

[Compound Results(Ch3)]
# of IDs	2
ID#	Name	R.Time	Area	Height	Conc.	Curve	3rd	2nd	1st	Constant	Area Ratio	Height Ratio	Conc. %	Norm Conc.
1	N2O	2.891	52290	13837	0.774	Linear	0.000000e+00	0.000000e+00	6.759880e+004	0.000000e+00	0	0	100.000	100.000
2	SF6	0.000	0	0	0.000	Linear	0.000000e+00	0.000000e+00	0.000000e+00	0.000000e+00	0	0	0.000	0.000

[Group Results(Ch1)]
# of Groups	0

[Group Results(Ch2)]
# of Groups	0

[Group Results(Ch3)]
# of Groups	0

[Chromatogram (Ch1)]
Interval(msec)	220
# of Points	1091
Start Time(min)	0.002
End Time(min)	3.998
R.Time (min)	Intensity
0.00167	5
0.00533	11
0.00900	16
0.01267	19
0.01633	18
0.02000	16
0.02367	18
0.02733	21
0.03100	22
0.03467	23
0.03833	28
0.04200	33
0.04567	34
0.04933	32
0.05300	24
0.05667	15
0.06033	6
0.06400	-1
0.06767	-5
0.07133	-9
0.07500	-12
0.07867	-10
0.08233	-3
0.08600	8
0.08967	16
0.09333	21
0.09700	20
0.10067	17
0.10433	13
0.10800	11
0.11167	14
0.11533	18
0.11900	23
0.12267	27
0.12633	27
0.13000	19
0.13367	6
0.13733	-2
0.14100	-5
0.14467	-4
0.14833	-3
0.15200	1
0.15567	5
0.15933	7
0.16300	5
0.16667	2
0.17033	-1
0.17400	-3
0.17767	-5
0.18133	-4
0.18500	-3
0.18867	-3
0.19233	-4
0.19600	-4
0.19967	-8
0.20333	-13
0.20700	-20
0.21067	-26
0.21433	-26
0.21800	-20
0.22167	-13
0.22533	-9
0.22900	-6
0.23267	-4
0.23633	-5
0.24000	-6
0.24367	-4
0.24733	-0
0.25100	5
0.25467	8
0.25833	6
0.26200	2
0.26567	-1
0.26933	-3
0.27300	-5
0.27667	-4
0.28033	0
0.28400	4
0.28767	6
0.29133	4
0.29500	1
0.29867	-2
0.30233	-5
0.30600	-6
0.30967	-4
0.31333	0
0.31700	4
0.32067	5
0.32433	5
0.32800	3
0.33167	1
0.33533	-1
0.33900	-2
0.34267	-3
0.34633	-3
0.35000	-2
0.35367	-1
0.35733	-3
0.36100	-8
0.36467	-10
0.36833	-11
0.37200	-11
0.37567	-9
0.37933	-9
0.38300	-8
0.38667	-6
0.39033	-6
0.39400	-9
0.39767	-12
0.40133	-14
0.40500	-11
0.40867	-8
0.41233	-9
0.41600	-10
0.41967	-8
0.42333	-5
0.42700	1
0.43067	6
0.43433	6
0.43800	2
0.44167	-3
0.44533	-8
0.44900	-12
0.45267	-13
0.45633	-10
0.46000	-4
0.46367	-5
0.46733	-8
0.47100	-10
0.47467	-12
0.47833	-15
0.48200	-18
0.48567	-22
0.48933	-20
0.49300	-18
0.49667	-14
0.50033	-9
0.50400	-3
0.50767	0
0.51133	-0
0.51500	-3
0.51867	-3
0.52233	2
0.52600	7
0.52967	12
0.53333	15
0.53700	13
0.54067	9
0.54433	4
0.54800	-2
0.55167	-11
0.55533	-24
0.55900	-36
0.56267	-43
0.56633	-43
0.57000	-39
0.57367	-37
0.57733	-40
0.58100	-41
0.58467	-42
0.58833	-44
0.59200	-43
0.59567	-37
0.59933	-30
0.60300	-26
0.60667	-23
0.61033	-22
0.61400	-20
0.61767	-14
0.62133	-12
0.62500	-13
0.62867	-13
0.63233	-13
0.63600	-14
0.63967	-16
0.64333	-16
0.64700	-14
0.65067	-15
0.65433	-18
0.65800	-19
0.66167	-14
0.66533	-8
0.66900	-6
0.67267	-5
0.67633	-6
0.68000	-10
0.68367	-12
0.68733	-12
0.69100	-13
0.69467	-11
0.69833	-9
0.70200	-6
0.70567	-4
0.70933	-2
0.71300	1
0.71667	0
0.72033	-4
0.72400	-5
0.72767	-7
0.73133	-8
0.73500	-7
0.73867	-6
0.74233	-7
0.74600	-8
0.74967	-8
0.75333	-9
0.75700	-13
0.76067	-15
0.76433	-14
0.76800	-12
0.77167	-15
0.77533	-19
0.77900	-22
0.78267	-22
0.78633	-19
0.79000	-16
0.79367	-13
0.79733	-12
0.80100	-11
0.80467	-7
0.80833	-2
0.81200	-2
0.81567	-5
0.81933	-12
0.82300	-22
0.82667	-31
0.83033	-36
0.83400	-32
0.83767	-26
0.84133	-22
0.84500	-23
0.84867	-26
0.85233	-25
0.85600	-19
0.85967	-15
0.86333	-14
0.86700	-16
0.87067	-16
0.87433	-12
0.87800	-12
0.88167	-16
0.88533	-24
0.88900	-30
0.89267	-33
0.89633	-33
0.90000	-34
0.90367	-34
0.90733	-29
0.91100	-22
0.91467	-18
0.91833	-20
0.92200	-21
0.92567	-21
0.92933	-21
0.93300	-23
0.93667	-26
0.94033	-28
0.94400	-30
0.94767	-29
0.95133	-25
0.95500	-21
0.95867	-19
0.96233	-18
0.96600	-16
0.96967	-14
0.97333	-9
0.97700	-5
0.98067	-2
0.98433	-3
0.98800	-5
0.99167	-7
0.99533	-10
0.99900	-15
1.00267	-21
1.00633	-25
1.01000	-21
1.01367	-16
1.01733	-21
1.02100	-30
1.02467	-39
1.02833	-44
1.03200	-42
1.03567	-36
1.03933	-29
1.04300	-22
1.04667	-17
1.05033	-11
1.05400	-12
1.05767	-17
1.06133	-22
1.06500	-22
1.06867	-20
1.07233	-16
1.07600	-13
1.07967	-14
1.08333	-21
1.08700	-26
1.09067	-29
1.09433	-30
1.09800	-30
1.10167	-30
1.10533	-31
1.10900	-29
1.11267	-27
1.11633	-25
1.12000	-25
1.12367	-24
1.12733	-23
1.13100	-23
1.13467	-23
1.13833	-23
1.14200	-22
1.14567	-23
1.14933	-22
1.15300	-19
1.15667	-16
1.16033	-14
1.16400	-14
1.16767	-13
1.17133	-11
1.17500	-12
1.17867	-16
1.18233	-19
1.18600	-17
1.18967	-14
1.19333	-13
1.19700	-16
1.20067	-24
1.20433	-33
1.20800	-42
1.21167	-46
1.21533	-44
1.21900	-42
1.22267	-41
1.22633	-40
1.23000	-38
1.23367	-35
1.23733	-34
1.24100	-34
1.24467	-33
1.24833	-32
1.25200	-29
1.25567	-29
1.25933	-33
1.26300	-36
1.26667	-37
1.27033	-36
1.27400	-33
1.27767	-27
1.28133	-24
1.28500	-25
1.28867	-29
1.29233	-35
1.29600	-42
1.29967	-47
1.30333	-48
1.30700	-48
1.31067	-49
1.31433	-49
1.31800	-48
1.32167	-48
1.32533	-47
1.32900	-41
1.33267	-31
1.33633	-22
1.34000	-20
1.34367	-25
1.34733	-33
1.35100	-38
1.35467	-39
1.35833	-35
1.36200	-33
1.36567	-34
1.36933	-38
1.37300	-41
1.37667	-43
1.38033	-41
1.38400	-35
1.38767	-26
1.39133	-21
1.39500	-21
1.39867	-22
1.40233	-20
1.40600	-21
1.40967	-29
1.41333	-39
1.41700	-46
1.42067	-51
1.42433	-55
1.42800	-57
1.43167	-53
1.43533	-37
1.43900	-6
1.44267	25
1.44633	20
1.45000	-5
1.45367	-7
1.45733	23
1.46100	66
1.46467	114
1.46833	172
1.47200	240
1.47567	300
1.47933	328
1.48300	315
1.48667	271
1.49033	208
1.49400	144
1.49767	89
1.50133	41
1.50500	4
1.50867	-23
1.51233	-38
1.51600	-47
1.51967	-55
1.52333	-61
1.52700	-60
1.53067	-45
1.53433	42
1.53800	394
1.54167	1291
1.54533	2826
1.54900	4740
1.55267	6622
1.55633	8185
1.56000	9291
1.56367	9835
1.56733	9682
1.57100	8797
1.57467	7370
1.57833	5740
1.58200	4214
1.58567	2956
1.58933	2006
1.59300	1327
1.59667	859
1.60033	546
1.60400	339
1.60767	203
1.61133	112
1.61500	55
1.61867	21
1.62233	-0
1.62600	-19
1.62967	-34
1.63333	-45
1.63700	-50
1.64067	-52
1.64433	-54
1.64800	-57
1.65167	-60
1.65533	-64
1.65900	-71
1.66267	-77
1.66633	-79
1.67000	-79
1.67367	-79
1.67733	-79
1.68100	-79
1.68467	-79
1.68833	-79
1.69200	-78
1.69567	-73
1.69933	-69
1.70300	-68
1.70667	-65
1.71033	-61
1.71400	-60
1.71767	-61
1.72133	-64
1.72500	-67
1.72867	-68
1.73233	-69
1.73600	-66
1.73967	-64
1.74333	-65
1.74700	-65
1.75067	-67
1.75433	-70
1.75800	-74
1.76167	-76
1.76533	-77
1.76900	-78
1.77267	-75
1.77633	-73
1.78000	-69
1.78367	-68
1.78733	-65
1.79100	-63
1.79467	-62
1.79833	-63
1.80200	-64
1.80567	-63
1.80933	-63
1.81300	-61
1.81667	-58
1.82033	-56
1.82400	-57
1.82767	-58
1.83133	-60
1.83500	-65
1.83867	-68
1.84233	-68
1.84600	-63
1.84967	-54
1.85333	-50
1.85700	-55
1.86067	-66
1.86433	-80
1.86800	-89
1.87167	-90
1.87533	-84
1.87900	-76
1.88267	-71
1.88633	-70
1.89000	-70
1.89367	-67
1.89733	-63
1.90100	-64
1.90467	-69
1.90833	-72
1.91200	-74
1.91567	-74
1.91933	-75
1.92300	-76
1.92667	-77
1.93033	-77
1.93400	-77
1.93767	-77
1.94133	-73
1.94500	-60
1.94867	-14
1.95233	223
1.95600	1522
1.95967	7215
1.96333	26094
1.96700	73990
1.97067	167803
1.97433	311892
1.97800	489844
1.98167	671015
1.98533	824200
1.98900	925738
1.99267	961522
1.99633	928854
2.00000	837342
2.00367	707419
2.00733	563779
2.01100	427727
2.01467	312321
2.01833	222024
2.02200	155349
2.02567	108066
2.02933	75420
2.03300	53242
2.03667	38291
2.04033	28207
2.04400	21364
2.04767	16665
2.05133	13381
2.05500	11032
2.05867	9310
2.06233	8015
2.06600	7019
2.06967	6229
2.07333	5586
2.07700	5053
2.08067	4608
2.08433	4233
2.08800	3916
2.09167	3642
2.09533	3403
2.09900	3189
2.10267	2994
2.10633	2811
2.11000	2648
2.11367	2504
2.11733	2376
2.12100	2258
2.12467	2147
2.12833	2045
2.13200	1953
2.13567	1865
2.13933	1782
2.14300	1709
2.14667	1648
2.15033	1593
2.15400	1539
2.15767	1480
2.16133	1424
2.16500	1373
2.16867	1327
2.17233	1284
2.17600	1243
2.17967	1203
2.18333	1163
2.18700	1125
2.19067	1090
2.19433	1055
2.19800	1023
2.20167	997
2.20533	972
2.20900	947
2.21267	925
2.21633	903
2.22000	882
2.22367	863
2.22733	841
2.23100	816
2.23467	794
2.23833	774
2.24200	756
2.24567	739
2.24933	722
2.25300	706
2.25667	687
2.26033	664
2.26400	644
2.26767	627
2.27133	614
2.27500	603
2.27867	596
2.28233	590
2.28600	582
2.28967	571
2.29333	561
2.29700	555
2.30067	546
2.30433	533
2.30800	516
2.31167	500
2.31533	487
2.31900	478
2.32267	471
2.32633	467
2.33000	463
2.33367	459
2.33733	454
2.34100	453
2.34467	455
2.34833	456
2.35200	454
2.35567	449
2.35933	442
2.36300	434
2.36667	423
2.37033	410
2.37400	395
2.37767	383
2.38133	378
2.38500	375
2.38867	373
2.39233	377
2.39600	384
2.39967	387
2.40333	380
2.40700	371
2.41067	365
2.41433	358
2.41800	350
2.42167	343
2.42533	340
2.42900	340
2.43267	341
2.43633	340
2.44000	335
2.44367	324
2.44733	313
2.45100	307
2.45467	304
2.45833	304
2.46200	307
2.46567	312
2.46933	315
2.47300	314
2.47667	310
2.48033	304
2.48400	298
2.48767	291
2.49133	286
2.49500	282
2.49867	285
2.50233	294
2.50600	301
2.50967	300
2.51333	293
2.51700	285
2.52067	274
2.52433	261
2.52800	252
2.53167	249
2.53533	249
2.53900	251
2.54267	255
2.54633	260
2.55000	262
2.55367	259
2.55733	252
2.56100	246
2.56467	245
2.56833	250
2.57200	256
2.57567	264
2.57933	270
2.58300	272
2.58667	273
2.59033	271
2.59400	265
2.59767	254
2.60133	240
2.60500	228
2.60867	217
2.61233	210
2.61600	205
2.61967	206
2.62333	210
2.62700	216
2.63067	220
2.63433	222
2.63800	222
2.64167	218
2.64533	216
2.64900	217
2.65267	220
2.65633	219
2.66000	214
2.66367	210
2.66733	207
2.67100	205
2.67467	204
2.67833	207
2.68200	212
2.68567	215
2.68933	216
2.69300	215
2.69667	213
2.70033	212
2.70400	213
2.70767	214
2.71133	213
2.71500	212
2.71867	210
2.72233	210
2.72600	210
2.72967	214
2.73333	218
2.73700	222
2.74067	221
2.74433	219
2.74800	218
2.75167	217
2.75533	214
2.75900	210
2.76267	205
2.76633	200
2.77000	195
2.77367	189
2.77733	187
2.78100	189
2.78467	192
2.78833	194
2.79200	199
2.79567	203
2.79933	203
2.80300	205
2.80667	209
2.81033	211
2.81400	211
2.81767	209
2.82133	210
2.82500	215
2.82867	222
2.83233	228
2.83600	232
2.83967	230
2.84333	222
2.84700	211
2.85067	199
2.85433	190
2.85800	182
2.86167	175
2.86533	169
2.86900	168
2.87267	170
2.87633	175
2.88000	182
2.88367	191
2.88733	198
2.89100	204
2.89467	207
2.89833	203
2.90200	198
2.90567	192
2.90933	185
2.91300	180
2.91667	174
2.92033	170
2.92400	169
2.92767	172
2.93133	176
2.93500	180
2.93867	187
2.94233	190
2.94600	185
2.94967	180
2.95333	179
2.95700	183
2.96067	188
2.96433	191
2.96800	190
2.97167	189
2.97533	190
2.97900	189
2.98267	184
2.98633	178
2.99000	173
2.99367	174
2.99733	179
3.00100	188
3.00467	196
3.00833	198
3.01200	193
3.01567	188
3.01933	188
3.02300	190
3.02667	187
3.03033	182
3.03400	178
3.03767	174
3.04133	170
3.04500	169
3.04867	172
3.05233	178
3.05600	180
3.05967	180
3.06333	181
3.06700	182
3.07067	184
3.07433	185
3.07800	185
3.08167	184
3.08533	181
3.08900	180
3.09267	180
3.09633	185
3.10000	191
3.10367	193
3.10733	193
3.11100	190
3.11467	182
3.11833	171
3.12200	159
3.12567	148
3.12933	142
3.13300	143
3.13667	148
3.14033	153
3.14400	161
3.14767	170
3.15133	176
3.15500	175
3.15867	171
3.16233	169
3.16600	171
3.16967	170
3.17333	169
3.17700	167
3.18067	163
3.18433	160
3.18800	158
3.19167	156
3.19533	155
3.19900	154
3.20267	154
3.20633	156
3.21000	160
3.21367	164
3.21733	164
3.22100	157
3.22467	149
3.22833	142
3.23200	139
3.23567	139
3.23933	142
3.24300	143
3.24667	144
3.25033	147
3.25400	146
3.25767	144
3.26133	142
3.26500	142
3.26867	145
3.27233	150
3.27600	159
3.27967	166
3.28333	171
3.28700	175
3.29067	172
3.29433	166
3.29800	158
3.30167	151
3.30533	146
3.30900	144
3.31267	145
3.31633	146
3.32000	149
3.32367	152
3.32733	155
3.33100	157
3.33467	160
3.33833	160
3.34200	153
3.34567	146
3.34933	141
3.35300	140
3.35667	141
3.36033	144
3.36400	147
3.36767	152
3.37133	156
3.37500	160
3.37867	164
3.38233	168
3.38600	171
3.38967	172
3.39333	170
3.39700	165
3.40067	155
3.40433	144
3.40800	138
3.41167	140
3.41533	150
3.41900	160
3.42267	161
3.42633	155
3.43000	151
3.43367	145
3.43733	136
3.44100	126
3.44467	119
3.44833	117
3.45200	123
3.45567	129
3.45933	137
3.46300	142
3.46667	142
3.47033	137
3.47400	131
3.47767	126
3.48133	123
3.48500	124
3.48867	124
3.49233	126
3.49600	125
3.49967	122
3.50333	119
3.50700	118
3.51067	122
3.51433	126
3.51800	130
3.52167	130
3.52533	131
3.52900	134
3.53267	134
3.53633	129
3.54000	125
3.54367	128
3.54733	135
3.55100	141
3.55467	144
3.55833	144
3.56200	141
3.56567	140
3.56933	139
3.57300	138
3.57667	136
3.58033	136
3.58400	139
3.58767	142
3.59133	138
3.59500	128
3.59867	117
3.60233	105
3.60600	92
3.60967	85
3.61333	87
3.61700	95
3.62067	105
3.62433	115
3.62800	122
3.63167	124
3.63533	120
3.63900	117
3.64267	116
3.64633	115
3.65000	112
3.65367	109
3.65733	105
3.66100	101
3.66467	98
3.66833	97
3.67200	94
3.67567	92
3.67933	94
3.68300	102
3.68667	115
3.69033	126
3.69400	134
3.69767	137
3.70133	136
3.70500	128
3.70867	115
3.71233	102
3.71600	92
3.71967	84
3.72333	80
3.72700	80
3.73067	82
3.73433	85
3.73800	86
3.74167	85
3.74533	83
3.74900	83
3.75267	86
3.75633	92
3.76000	98
3.76367	102
3.76733	102
3.77100	99
3.77467	98
3.77833	96
3.78200	93
3.78567	92
3.78933	92
3.79300	91
3.79667	91
3.80033	91
3.80400	94
3.80767	96
3.81133	96
3.81500	95
3.81867	92
3.82233	89
3.82600	84
3.82967	77
3.83333	73
3.83700	75
3.84067	77
3.84433	80
3.84800	83
3.85167	87
3.85533	92
3.85900	97
3.86267	96
3.86633	94
3.87000	94
3.87367	100
3.87733	109
3.88100	118
3.88467	126
3.88833	126
3.89200	119
3.89567	108
3.89933	98
3.90300	90
3.90667	83
3.91033	78
3.91400	78
3.91767	83
3.92133	91
3.92500	99
3.92867	102
3.93233	102
3.93600	99
3.93967	95
3.94333	90
3.94700	87
3.95067	85
3.95433	82
3.95800	80
3.96167	79
3.96533	80
3.96900	82
3.97267	89
3.97633	99
3.98000	105
3.98367	103
3.98733	98
3.99100	91
3.99467	84
3.99833	80

[Chromatogram (Ch2)]
Interval(msec)	220
# of Points	1091
Start Time(min)	0.002
End Time(min)	3.998
R.Time (min)	Intensity
0.00167	0
0.00533	0
0.00900	0
0.01267	-0
0.01633	-0
0.02000	-0
0.02367	-0
0.02733	-0
0.03100	-0
0.03467	-1
0.03833	-1
0.04200	-1
0.04567	-1
0.04933	-1
0.05300	-1
0.05667	-1
0.06033	-2
0.06400	-2
0.06767	-2
0.07133	-2
0.07500	-2
0.07867	-2
0.08233	-2
0.08600	-1
0.08967	-1
0.09333	-1
0.09700	-1
0.10067	-1
0.10433	-1
0.10800	-1
0.11167	-1
0.11533	-0
0.11900	-0
0.12267	0
0.12633	0
0.13000	0
0.13367	0
0.13733	1
0.14100	1
0.14467	0
0.14833	0
0.15200	0
0.15567	-0
0.15933	-0
0.16300	-1
0.16667	-1
0.17033	-1
0.17400	-2
0.17767	-2
0.18133	-3
0.18500	-3
0.18867	-3
0.19233	-4
0.19600	-4
0.19967	-4
0.20333	-4
0.20700	-4
0.21067	-4
0.21433	-4
0.21800	-3
0.22167	-3
0.22533	-3
0.22900	-3
0.23267	-3
0.23633	-2
0.24000	-2
0.24367	-2
0.24733	-2
0.25100	-2
0.25467	-2
0.25833	-2
0.26200	-2
0.26567	-2
0.26933	-2
0.27300	-1
0.27667	-1
0.28033	-1
0.28400	-0
0.28767	-0
0.29133	0
0.29500	0
0.29867	0
0.30233	0
0.30600	0
0.30967	-0
0.31333	-0
0.31700	-0
0.32067	-0
0.32433	-0
0.32800	-0
0.33167	-0
0.33533	-0
0.33900	0
0.34267	0
0.34633	0
0.35000	0
0.35367	0
0.35733	0
0.36100	0
0.36467	-0
0.36833	-0
0.37200	-1
0.37567	-1
0.37933	-1
0.38300	-1
0.38667	-2
0.39033	-2
0.39400	-2
0.39767	-2
0.40133	-2
0.40500	-2
0.40867	-2
0.41233	-1
0.41600	-1
0.41967	-1
0.42333	-1
0.42700	-2
0.43067	-2
0.43433	-2
0.43800	-2
0.44167	-2
0.44533	-1
0.44900	-1
0.45267	-1
0.45633	-1
0.46000	-1
0.46367	-1
0.46733	-1
0.47100	-2
0.47467	-2
0.47833	-2
0.48200	-2
0.48567	-2
0.48933	-2
0.49300	-2
0.49667	-3
0.50033	-3
0.50400	-3
0.50767	-2
0.51133	-2
0.51500	-2
0.51867	-3
0.52233	-3
0.52600	-3
0.52967	-3
0.53333	-4
0.53700	-4
0.54067	-4
0.54433	-4
0.54800	-4
0.55167	-4
0.55533	-4
0.55900	-4
0.56267	-4
0.56633	-4
0.57000	-3
0.57367	-3
0.57733	-3
0.58100	-3
0.58467	-3
0.58833	-3
0.59200	-3
0.59567	-3
0.59933	-3
0.60300	-3
0.60667	-3
0.61033	-3
0.61400	-2
0.61767	-2
0.62133	-2
0.62500	-2
0.62867	-2
0.63233	-2
0.63600	-2
0.63967	-1
0.64333	-1
0.64700	-1
0.65067	-1
0.65433	-1
0.65800	-1
0.66167	-1
0.66533	-1
0.66900	-1
0.67267	-0
0.67633	-0
0.68000	-0
0.68367	-0
0.68733	-0
0.69100	-0
0.69467	-1
0.69833	-1
0.70200	-1
0.70567	-1
0.70933	-1
0.71300	-1
0.71667	-2
0.72033	-2
0.72400	-2
0.72767	-2
0.73133	-3
0.73500	-3
0.73867	-3
0.74233	-3
0.74600	-3
0.74967	-4
0.75333	-4
0.75700	-4
0.76067	-4
0.76433	-4
0.76800	-4
0.77167	-4
0.77533	-4
0.77900	-4
0.78267	-4
0.78633	-4
0.79000	-4
0.79367	-4
0.79733	-4
0.80100	-4
0.80467	-4
0.80833	-4
0.81200	-4
0.81567	-4
0.81933	-3
0.82300	-3
0.82667	-3
0.83033	-3
0.83400	-3
0.83767	-3
0.84133	-3
0.84500	-3
0.84867	-3
0.85233	-3
0.85600	-3
0.85967	-3
0.86333	-4
0.86700	-4
0.87067	-4
0.87433	-4
0.87800	-4
0.88167	-4
0.88533	-4
0.88900	-4
0.89267	-4
0.89633	-4
0.90000	-4
0.90367	-4
0.90733	-4
0.91100	-4
0.91467	-4
0.91833	-4
0.92200	-4
0.92567	-4
0.92933	-4
0.93300	-4
0.93667	-4
0.94033	-4
0.94400	-4
0.94767	-4
0.95133	-4
0.95500	-4
0.95867	-4
0.96233	-4
0.96600	-4
0.96967	-4
0.97333	-4
0.97700	-4
0.98067	-3
0.98433	-3
0.98800	-3
0.99167	-3
0.99533	-3
0.99900	-2
1.00267	-3
1.00633	-3
1.01000	-3
1.01367	-3
1.01733	-3
1.02100	-3
1.02467	-3
1.02833	-4
1.03200	-4
1.03567	-4
1.03933	-4
1.04300	-4
1.04667	-4
1.05033	-4
1.05400	-4
1.05767	-4
1.06133	-4
1.06500	-4
1.06867	-4
1.07233	-4
1.07600	-4
1.07967	-4
1.08333	-4
1.08700	-3
1.09067	-3
1.09433	-3
1.09800	-3
1.10167	-3
1.10533	-3
1.10900	-3
1.11267	-3
1.11633	-3
1.12000	-3
1.12367	-4
1.12733	-4
1.13100	-4
1.13467	-4
1.13833	-4
1.14200	-5
1.14567	-5
1.14933	-5
1.15300	-5
1.15667	-5
1.16033	-5
1.16400	-5
1.16767	-4
1.17133	-4
1.17500	-4
1.17867	-3
1.18233	-3
1.18600	-3
1.18967	-4
1.19333	-4
1.19700	-4
1.20067	-4
1.20433	-4
1.20800	-4
1.21167	-4
1.21533	-3
1.21900	-3
1.22267	-3
1.22633	-3
1.23000	-2
1.23367	-2
1.23733	-2
1.24100	-2
1.24467	-2
1.24833	-2
1.25200	-2
1.25567	-2
1.25933	-2
1.26300	-2
1.26667	-2
1.27033	-2
1.27400	-2
1.27767	-3
1.28133	-3
1.28500	-3
1.28867	-3
1.29233	-4
1.29600	-4
1.29967	-3
1.30333	-3
1.30700	-3
1.31067	-3
1.31433	-3
1.31800	-3
1.32167	-4
1.32533	-4
1.32900	-3
1.33267	-3
1.33633	-3
1.34000	-3
1.34367	-3
1.34733	-3
1.35100	-3
1.35467	-4
1.35833	-4
1.36200	-4
1.36567	-5
1.36933	-5
1.37300	-5
1.37667	-5
1.38033	-5
1.38400	-5
1.38767	-5
1.39133	-5
1.39500	-5
1.39867	-5
1.40233	-5
1.40600	-5
1.40967	-5
1.41333	-5
1.41700	-6
1.42067	-6
1.42433	-6
1.42800	-6
1.43167	-6
1.43533	-6
1.43900	-6
1.44267	-5
1.44633	-5
1.45000	-5
1.45367	-5
1.45733	-5
1.46100	-4
1.46467	-4
1.46833	-4
1.47200	-4
1.47567	-4
1.47933	-4
1.48300	-3
1.48667	-3
1.49033	-3
1.49400	-3
1.49767	-4
1.50133	-4
1.50500	-4
1.50867	-4
1.51233	-4
1.51600	-4
1.51967	-4
1.52333	-4
1.52700	-4
1.53067	-4
1.53433	-4
1.53800	-4
1.54167	-4
1.54533	-4
1.54900	-4
1.55267	-4
1.55633	-4
1.56000	-4
1.56367	-4
1.56733	-4
1.57100	-4
1.57467	-4
1.57833	-4
1.58200	-4
1.58567	-4
1.58933	-5
1.59300	-5
1.59667	-5
1.60033	-6
1.60400	-7
1.60767	-8
1.61133	-10
1.61500	-12
1.61867	-14
1.62233	-17
1.62600	-19
1.62967	-22
1.63333	-25
1.63700	-29
1.64067	-32
1.64433	-36
1.64800	-39
1.65167	-42
1.65533	-46
1.65900	-49
1.66267	-53
1.66633	-57
1.67000	-62
1.67367	-66
1.67733	-71
1.68100	-76
1.68467	-80
1.68833	-84
1.69200	-87
1.69567	-90
1.69933	-93
1.70300	-95
1.70667	-96
1.71033	-98
1.71400	-99
1.71767	-100
1.72133	-101
1.72500	-101
1.72867	-101
1.73233	-101
1.73600	-101
1.73967	-101
1.74333	-101
1.74700	-101
1.75067	-101
1.75433	-101
1.75800	-102
1.76167	-102
1.76533	-103
1.76900	-105
1.77267	-106
1.77633	-107
1.78000	-108
1.78367	-108
1.78733	-109
1.79100	-109
1.79467	-110
1.79833	-111
1.80200	-111
1.80567	-111
1.80933	-110
1.81300	-109
1.81667	-108
1.82033	-107
1.82400	-106
1.82767	-105
1.83133	-105
1.83500	-105
1.83867	-105
1.84233	-106
1.84600	-106
1.84967	-106
1.85333	-106
1.85700	-106
1.86067	-106
1.86433	-106
1.86800	-106
1.87167	-106
1.87533	-106
1.87900	-105
1.88267	-105
1.88633	-104
1.89000	-104
1.89367	-104
1.89733	-103
1.90100	-103
1.90467	-103
1.90833	-104
1.91200	-105
1.91567	-105
1.91933	-105
1.92300	-104
1.92667	-104
1.93033	-104
1.93400	-104
1.93767	-104
1.94133	-104
1.94500	-104
1.94867	-104
1.95233	-104
1.95600	-104
1.95967	-104
1.96333	-103
1.96700	-103
1.97067	-102
1.97433	-102
1.97800	-102
1.98167	-102
1.98533	-102
1.98900	-102
1.99267	-102
1.99633	-102
2.00000	-102
2.00367	-102
2.00733	-101
2.01100	-101
2.01467	-101
2.01833	-100
2.02200	-100
2.02567	-100
2.02933	-100
2.03300	-100
2.03667	-99
2.04033	-99
2.04400	-99
2.04767	-98
2.05133	-97
2.05500	-97
2.05867	-97
2.06233	-97
2.06600	-96
2.06967	-96
2.07333	-96
2.07700	-96
2.08067	-95
2.08433	-95
2.08800	-95
2.09167	-95
2.09533	-94
2.09900	-94
2.10267	-93
2.10633	-93
2.11000	-92
2.11367	-92
2.11733	-92
2.12100	-92
2.12467	-92
2.12833	-92
2.13200	-92
2.13567	-92
2.13933	-92
2.14300	-92
2.14667	-93
2.15033	-93
2.15400	-92
2.15767	-91
2.16133	-91
2.16500	-90
2.16867	-89
2.17233	-88
2.17600	-87
2.17967	-86
2.18333	-85
2.18700	-85
2.19067	-85
2.19433	-85
2.19800	-85
2.20167	-85
2.20533	-85
2.20900	-84
2.21267	-84
2.21633	-82
2.22000	-82
2.22367	-81
2.22733	-80
2.23100	-80
2.23467	-80
2.23833	-80
2.24200	-80
2.24567	-79
2.24933	-80
2.25300	-80
2.25667	-80
2.26033	-80
2.26400	-80
2.26767	-80
2.27133	-80
2.27500	-79
2.27867	-78
2.28233	-77
2.28600	-77
2.28967	-76
2.29333	-76
2.29700	-76
2.30067	-77
2.30433	-77
2.30800	-78
2.31167	-79
2.31533	-79
2.31900	-79
2.32267	-78
2.32633	-78
2.33000	-77
2.33367	-77
2.33733	-76
2.34100	-75
2.34467	-74
2.34833	-72
2.35200	-71
2.35567	-69
2.35933	-68
2.36300	-66
2.36667	-64
2.37033	-62
2.37400	-60
2.37767	-56
2.38133	-53
2.38500	-49
2.38867	-45
2.39233	-41
2.39600	-37
2.39967	-33
2.40333	-30
2.40700	-26
2.41067	-23
2.41433	-19
2.41800	-17
2.42167	-14
2.42533	-12
2.42900	-9
2.43267	-7
2.43633	-5
2.44000	-3
2.44367	-2
2.44733	-0
2.45100	1
2.45467	2
2.45833	3
2.46200	4
2.46567	5
2.46933	6
2.47300	7
2.47667	8
2.48033	9
2.48400	9
2.48767	10
2.49133	11
2.49500	12
2.49867	12
2.50233	12
2.50600	12
2.50967	12
2.51333	12
2.51700	11
2.52067	11
2.52433	10
2.52800	9
2.53167	8
2.53533	8
2.53900	8
2.54267	9
2.54633	9
2.55000	10
2.55367	11
2.55733	11
2.56100	11
2.56467	12
2.56833	12
2.57200	13
2.57567	13
2.57933	13
2.58300	14
2.58667	14
2.59033	14
2.59400	15
2.59767	15
2.60133	16
2.60500	16
2.60867	17
2.61233	17
2.61600	17
2.61967	17
2.62333	17
2.62700	17
2.63067	16
2.63433	16
2.63800	16
2.64167	17
2.64533	17
2.64900	18
2.65267	18
2.65633	19
2.66000	19
2.66367	19
2.66733	19
2.67100	19
2.67467	19
2.67833	19
2.68200	19
2.68567	19
2.68933	19
2.69300	19
2.69667	19
2.70033	19
2.70400	20
2.70767	20
2.71133	21
2.71500	22
2.71867	22
2.72233	22
2.72600	22
2.72967	22
2.73333	22
2.73700	22
2.74067	22
2.74433	22
2.74800	22
2.75167	22
2.75533	23
2.75900	23
2.76267	24
2.76633	24
2.77000	24
2.77367	25
2.77733	25
2.78100	25
2.78467	25
2.78833	25
2.79200	26
2.79567	26
2.79933	26
2.80300	26
2.80667	26
2.81033	26
2.81400	26
2.81767	26
2.82133	26
2.82500	26
2.82867	26
2.83233	26
2.83600	26
2.83967	25
2.84333	25
2.84700	25
2.85067	25
2.85433	25
2.85800	24
2.86167	23
2.86533	19
2.86900	14
2.87267	5
2.87633	-7
2.88000	-25
2.88367	-47
2.88733	-76
2.89100	-112
2.89467	-153
2.89833	-201
2.90200	-255
2.90567	-315
2.90933	-380
2.91300	-451
2.91667	-526
2.92033	-606
2.92400	-689
2.92767	-775
2.93133	-865
2.93500	-957
2.93867	-1051
2.94233	-1147
2.94600	-1245
2.94967	-1345
2.95333	-1439
2.95700	-1515
2.96067	-1561
2.96433	-1569
2.96800	-1540
2.97167	-1479
2.97533	-1394
2.97900	-1292
2.98267	-1181
2.98633	-1068
2.99000	-956
2.99367	-848
2.99733	-748
3.00100	-655
3.00467	-571
3.00833	-496
3.01200	-429
3.01567	-370
3.01933	-318
3.02300	-272
3.02667	-233
3.03033	-199
3.03400	-170
3.03767	-144
3.04133	-123
3.04500	-104
3.04867	-88
3.05233	-74
3.05600	-62
3.05967	-51
3.06333	-43
3.06700	-35
3.07067	-29
3.07433	-23
3.07800	-19
3.08167	-15
3.08533	-11
3.08900	-8
3.09267	-6
3.09633	-4
3.10000	-2
3.10367	-1
3.10733	1
3.11100	2
3.11467	3
3.11833	4
3.12200	5
3.12567	6
3.12933	7
3.13300	8
3.13667	8
3.14033	9
3.14400	9
3.14767	10
3.15133	11
3.15500	11
3.15867	12
3.16233	13
3.16600	13
3.16967	14
3.17333	14
3.17700	14
3.18067	15
3.18433	15
3.18800	15
3.19167	15
3.19533	16
3.19900	16
3.20267	16
3.20633	17
3.21000	17
3.21367	17
3.21733	17
3.22100	17
3.22467	18
3.22833	18
3.23200	19
3.23567	19
3.23933	19
3.24300	19
3.24667	20
3.25033	20
3.25400	20
3.25767	20
3.26133	20
3.26500	20
3.26867	20
3.27233	20
3.27600	20
3.27967	21
3.28333	21
3.28700	21
3.29067	21
3.29433	21
3.29800	21
3.30167	21
3.30533	21
3.30900	21
3.31267	22
3.31633	22
3.32000	22
3.32367	22
3.32733	22
3.33100	22
3.33467	22
3.33833	22
3.34200	23
3.34567	23
3.34933	23
3.35300	23
3.35667	23
3.36033	23
3.36400	23
3.36767	23
3.37133	23
3.37500	24
3.37867	24
3.38233	24
3.38600	25
3.38967	25
3.39333	26
3.39700	26
3.40067	26
3.40433	26
3.40800	26
3.41167	27
3.41533	27
3.41900	27
3.42267	27
3.42633	27
3.43000	27
3.43367	27
3.43733	26
3.44100	26
3.44467	26
3.44833	26
3.45200	27
3.45567	27
3.45933	27
3.46300	27
3.46667	27
3.47033	27
3.47400	27
3.47767	27
3.48133	27
3.48500	27
3.48867	27
3.49233	27
3.49600	27
3.49967	27
3.50333	26
3.50700	26
3.51067	26
3.51433	26
3.51800	26
3.52167	26
3.52533	26
3.52900	26
3.53267	26
3.53633	26
3.54000	26
3.54367	26
3.54733	26
3.55100	26
3.55467	25
3.55833	25
3.56200	25
3.56567	25
3.56933	25
3.57300	25
3.57667	24
3.58033	24
3.58400	24
3.58767	25
3.59133	25
3.59500	25
3.59867	25
3.60233	25
3.60600	25
3.60967	25
3.61333	26
3.61700	26
3.62067	26
3.62433	26
3.62800	26
3.63167	26
3.63533	27
3.63900	27
3.64267	27
3.64633	27
3.65000	27
3.65367	27
3.65733	27
3.66100	26
3.66467	26
3.66833	26
3.67200	26
3.67567	26
3.67933	25
3.68300	25
3.68667	25
3.69033	25
3.69400	25
3.69767	25
3.70133	25
3.70500	25
3.70867	24
3.71233	24
3.71600	24
3.71967	24
3.72333	24
3.72700	23
3.73067	23
3.73433	23
3.73800	23
3.74167	23
3.74533	23
3.74900	23
3.75267	23
3.75633	23
3.76000	23
3.76367	23
3.76733	23
3.77100	23
3.77467	23
3.77833	23
3.78200	23
3.78567	23
3.78933	23
3.79300	23
3.79667	24
3.80033	24
3.80400	25
3.80767	25
3.81133	25
3.81500	26
3.81867	26
3.82233	26
3.82600	26
3.82967	26
3.83333	27
3.83700	27
3.84067	27
3.84433	27
3.84800	27
3.85167	27
3.85533	27
3.85900	27
3.86267	27
3.86633	27
3.87000	27
3.87367	27
3.87733	27
3.88100	27
3.88467	27
3.88833	26
3.89200	26
3.89567	26
3.89933	26
3.90300	26
3.90667	26
3.91033	26
3.91400	26
3.91767	26
3.92133	26
3.92500	26
3.92867	26
3.93233	26
3.93600	26
3.93967	26
3.94333	26
3.94700	26
3.95067	26
3.95433	26
3.95800	26
3.96167	26
3.96533	26
3.96900	26
3.97267	26
3.97633	26
3.98000	26
3.98367	26
3.98733	26
3.99100	26
3.99467	26
3.99833	26

[Chromatogram (Ch3)]
Interval(msec)	220
# of Points	1091
Start Time(min)	0.002
End Time(min)	3.998
R.Time (min)	Intensity
0.00167	-1
0.00533	-1
0.00900	-3
0.01267	-3
0.01633	-1
0.02000	-0
0.02367	0
0.02733	1
0.03100	2
0.03467	2
0.03833	1
0.04200	1
0.04567	0
0.04933	1
0.05300	3
0.05667	3
0.06033	4
0.06400	4
0.06767	5
0.07133	6
0.07500	7
0.07867	9
0.08233	7
0.08600	3
0.08967	2
0.09333	2
0.09700	1
0.10067	1
0.10433	-1
0.10800	-4
0.11167	-4
0.11533	-4
0.11900	-3
0.12267	-2
0.12633	-0
0.13000	0
0.13367	2
0.13733	5
0.14100	5
0.14467	4
0.14833	3
0.15200	4
0.15567	5
0.15933	6
0.16300	5
0.16667	2
0.17033	-0
0.17400	1
0.17767	2
0.18133	3
0.18500	3
0.18867	4
0.19233	3
0.19600	2
0.19967	3
0.20333	5
0.20700	6
0.21067	5
0.21433	5
0.21800	7
0.22167	6
0.22533	6
0.22900	8
0.23267	8
0.23633	9
0.24000	10
0.24367	9
0.24733	8
0.25100	8
0.25467	8
0.25833	8
0.26200	6
0.26567	6
0.26933	6
0.27300	9
0.27667	7
0.28033	6
0.28400	8
0.28767	9
0.29133	9
0.29500	8
0.29867	9
0.30233	12
0.30600	12
0.30967	10
0.31333	9
0.31700	10
0.32067	11
0.32433	10
0.32800	9
0.33167	9
0.33533	9
0.33900	9
0.34267	10
0.34633	9
0.35000	8
0.35367	9
0.35733	9
0.36100	8
0.36467	9
0.36833	9
0.37200	9
0.37567	7
0.37933	6
0.38300	2
0.38667	1
0.39033	1
0.39400	3
0.39767	4
0.40133	5
0.40500	5
0.40867	5
0.41233	6
0.41600	7
0.41967	5
0.42333	5
0.42700	3
0.43067	3
0.43433	5
0.43800	8
0.44167	9
0.44533	9
0.44900	8
0.45267	7
0.45633	6
0.46000	5
0.46367	3
0.46733	2
0.47100	2
0.47467	2
0.47833	2
0.48200	3
0.48567	6
0.48933	6
0.49300	6
0.49667	7
0.50033	8
0.50400	10
0.50767	10
0.51133	10
0.51500	9
0.51867	8
0.52233	6
0.52600	5
0.52967	5
0.53333	6
0.53700	6
0.54067	5
0.54433	6
0.54800	7
0.55167	9
0.55533	12
0.55900	13
0.56267	13
0.56633	13
0.57000	15
0.57367	15
0.57733	13
0.58100	11
0.58467	11
0.58833	9
0.59200	7
0.59567	8
0.59933	10
0.60300	11
0.60667	11
0.61033	11
0.61400	12
0.61767	15
0.62133	16
0.62500	18
0.62867	19
0.63233	21
0.63600	22
0.63967	21
0.64333	19
0.64700	18
0.65067	17
0.65433	16
0.65800	14
0.66167	10
0.66533	8
0.66900	8
0.67267	8
0.67633	11
0.68000	13
0.68367	16
0.68733	16
0.69100	14
0.69467	13
0.69833	12
0.70200	12
0.70567	11
0.70933	10
0.71300	11
0.71667	12
0.72033	12
0.72400	12
0.72767	12
0.73133	14
0.73500	16
0.73867	18
0.74233	19
0.74600	21
0.74967	23
0.75333	22
0.75700	21
0.76067	20
0.76433	19
0.76800	19
0.77167	20
0.77533	21
0.77900	21
0.78267	20
0.78633	18
0.79000	15
0.79367	14
0.79733	15
0.80100	16
0.80467	19
0.80833	20
0.81200	20
0.81567	20
0.81933	20
0.82300	18
0.82667	17
0.83033	16
0.83400	16
0.83767	17
0.84133	17
0.84500	16
0.84867	16
0.85233	14
0.85600	14
0.85967	14
0.86333	17
0.86700	20
0.87067	21
0.87433	22
0.87800	22
0.88167	22
0.88533	20
0.88900	18
0.89267	18
0.89633	19
0.90000	19
0.90367	19
0.90733	19
0.91100	20
0.91467	20
0.91833	18
0.92200	19
0.92567	20
0.92933	20
0.93300	21
0.93667	22
0.94033	23
0.94400	26
0.94767	27
0.95133	28
0.95500	27
0.95867	24
0.96233	21
0.96600	19
0.96967	18
0.97333	18
0.97700	19
0.98067	19
0.98433	22
0.98800	24
0.99167	25
0.99533	25
0.99900	28
1.00267	30
1.00633	31
1.01000	32
1.01367	30
1.01733	29
1.02100	28
1.02467	28
1.02833	27
1.03200	28
1.03567	28
1.03933	27
1.04300	24
1.04667	24
1.05033	25
1.05400	28
1.05767	29
1.06133	28
1.06500	25
1.06867	24
1.07233	25
1.07600	27
1.07967	29
1.08333	32
1.08700	32
1.09067	31
1.09433	30
1.09800	28
1.10167	28
1.10533	30
1.10900	28
1.11267	27
1.11633	26
1.12000	25
1.12367	24
1.12733	23
1.13100	23
1.13467	24
1.13833	25
1.14200	24
1.14567	24
1.14933	25
1.15300	25
1.15667	25
1.16033	28
1.16400	28
1.16767	28
1.17133	29
1.17500	30
1.17867	31
1.18233	31
1.18600	30
1.18967	27
1.19333	24
1.19700	22
1.20067	23
1.20433	23
1.20800	26
1.21167	27
1.21533	26
1.21900	24
1.22267	25
1.22633	25
1.23000	24
1.23367	24
1.23733	25
1.24100	25
1.24467	25
1.24833	24
1.25200	23
1.25567	25
1.25933	25
1.26300	26
1.26667	28
1.27033	29
1.27400	30
1.27767	30
1.28133	32
1.28500	31
1.28867	30
1.29233	28
1.29600	26
1.29967	25
1.30333	23
1.30700	23
1.31067	25
1.31433	25
1.31800	24
1.32167	25
1.32533	25
1.32900	26
1.33267	27
1.33633	25
1.34000	23
1.34367	22
1.34733	25
1.35100	26
1.35467	27
1.35833	27
1.36200	27
1.36567	26
1.36933	27
1.37300	27
1.37667	26
1.38033	27
1.38400	29
1.38767	29
1.39133	27
1.39500	28
1.39867	27
1.40233	25
1.40600	24
1.40967	24
1.41333	24
1.41700	26
1.42067	26
1.42433	25
1.42800	25
1.43167	26
1.43533	28
1.43900	29
1.44267	27
1.44633	23
1.45000	24
1.45367	24
1.45733	25
1.46100	24
1.46467	23
1.46833	23
1.47200	25
1.47567	27
1.47933	28
1.48300	29
1.48667	31
1.49033	30
1.49400	27
1.49767	24
1.50133	24
1.50500	24
1.50867	23
1.51233	23
1.51600	23
1.51967	25
1.52333	26
1.52700	29
1.53067	30
1.53433	28
1.53800	28
1.54167	28
1.54533	31
1.54900	32
1.55267	31
1.55633	29
1.56000	29
1.56367	28
1.56733	27
1.57100	27
1.57467	27
1.57833	27
1.58200	27
1.58567	27
1.58933	27
1.59300	28
1.59667	29
1.60033	29
1.60400	27
1.60767	26
1.61133	25
1.61500	23
1.61867	24
1.62233	23
1.62600	25
1.62967	27
1.63333	29
1.63700	29
1.64067	29
1.64433	31
1.64800	34
1.65167	36
1.65533	36
1.65900	36
1.66267	38
1.66633	35
1.67000	34
1.67367	34
1.67733	35
1.68100	36
1.68467	36
1.68833	36
1.69200	36
1.69567	38
1.69933	39
1.70300	38
1.70667	37
1.71033	37
1.71400	38
1.71767	40
1.72133	43
1.72500	42
1.72867	40
1.73233	40
1.73600	39
1.73967	38
1.74333	38
1.74700	40
1.75067	40
1.75433	40
1.75800	41
1.76167	40
1.76533	40
1.76900	40
1.77267	38
1.77633	39
1.78000	40
1.78367	41
1.78733	43
1.79100	44
1.79467	43
1.79833	43
1.80200	44
1.80567	45
1.80933	45
1.81300	45
1.81667	45
1.82033	44
1.82400	43
1.82767	44
1.83133	45
1.83500	48
1.83867	50
1.84233	53
1.84600	56
1.84967	58
1.85333	58
1.85700	57
1.86067	57
1.86433	56
1.86800	53
1.87167	50
1.87533	49
1.87900	55
1.88267	59
1.88633	60
1.89000	60
1.89367	60
1.89733	61
1.90100	61
1.90467	61
1.90833	61
1.91200	62
1.91567	63
1.91933	66
1.92300	68
1.92667	69
1.93033	71
1.93400	72
1.93767	74
1.94133	75
1.94500	75
1.94867	74
1.95233	73
1.95600	73
1.95967	72
1.96333	72
1.96700	71
1.97067	71
1.97433	72
1.97800	73
1.98167	75
1.98533	77
1.98900	80
1.99267	83
1.99633	85
2.00000	84
2.00367	84
2.00733	82
2.01100	82
2.01467	83
2.01833	84
2.02200	84
2.02567	83
2.02933	85
2.03300	90
2.03667	95
2.04033	97
2.04400	97
2.04767	97
2.05133	97
2.05500	96
2.05867	94
2.06233	93
2.06600	93
2.06967	95
2.07333	97
2.07700	98
2.08067	98
2.08433	99
2.08800	102
2.09167	104
2.09533	107
2.09900	107
2.10267	106
2.10633	105
2.11000	107
2.11367	106
2.11733	104
2.12100	103
2.12467	104
2.12833	106
2.13200	108
2.13567	111
2.13933	113
2.14300	115
2.14667	116
2.15033	116
2.15400	116
2.15767	117
2.16133	116
2.16500	116
2.16867	116
2.17233	116
2.17600	117
2.17967	118
2.18333	121
2.18700	121
2.19067	122
2.19433	124
2.19800	125
2.20167	125
2.20533	127
2.20900	128
2.21267	128
2.21633	128
2.22000	129
2.22367	130
2.22733	129
2.23100	128
2.23467	127
2.23833	127
2.24200	129
2.24567	129
2.24933	132
2.25300	134
2.25667	135
2.26033	136
2.26400	137
2.26767	136
2.27133	136
2.27500	137
2.27867	137
2.28233	136
2.28600	137
2.28967	137
2.29333	137
2.29700	136
2.30067	137
2.30433	139
2.30800	141
2.31167	143
2.31533	146
2.31900	147
2.32267	148
2.32633	149
2.33000	146
2.33367	141
2.33733	140
2.34100	143
2.34467	145
2.34833	145
2.35200	145
2.35567	144
2.35933	145
2.36300	148
2.36667	150
2.37033	151
2.37400	150
2.37767	147
2.38133	146
2.38500	143
2.38867	140
2.39233	140
2.39600	142
2.39967	145
2.40333	148
2.40700	147
2.41067	147
2.41433	148
2.41800	149
2.42167	151
2.42533	152
2.42900	153
2.43267	153
2.43633	154
2.44000	156
2.44367	193
2.44733	267
2.45100	339
2.45467	391
2.45833	408
2.46200	396
2.46567	375
2.46933	358
2.47300	345
2.47667	328
2.48033	303
2.48400	272
2.48767	244
2.49133	220
2.49500	203
2.49867	191
2.50233	185
2.50600	182
2.50967	184
2.51333	188
2.51700	191
2.52067	194
2.52433	190
2.52800	184
2.53167	174
2.53533	160
2.53900	148
2.54267	137
2.54633	126
2.55000	114
2.55367	104
2.55733	97
2.56100	93
2.56467	94
2.56833	94
2.57200	95
2.57567	95
2.57933	95
2.58300	97
2.58667	101
2.59033	104
2.59400	110
2.59767	117
2.60133	124
2.60500	130
2.60867	134
2.61233	137
2.61600	138
2.61967	138
2.62333	138
2.62700	134
2.63067	126
2.63433	117
2.63800	107
2.64167	95
2.64533	83
2.64900	69
2.65267	58
2.65633	52
2.66000	46
2.66367	38
2.66733	33
2.67100	31
2.67467	30
2.67833	29
2.68200	29
2.68567	29
2.68933	28
2.69300	27
2.69667	29
2.70033	32
2.70400	34
2.70767	37
2.71133	39
2.71500	37
2.71867	37
2.72233	37
2.72600	38
2.72967	40
2.73333	44
2.73700	49
2.74067	51
2.74433	52
2.74800	53
2.75167	54
2.75533	56
2.75900	58
2.76267	61
2.76633	64
2.77000	67
2.77367	68
2.77733	69
2.78100	70
2.78467	73
2.78833	77
2.79200	79
2.79567	82
2.79933	85
2.80300	87
2.80667	89
2.81033	91
2.81400	91
2.81767	94
2.82133	97
2.82500	98
2.82867	103
2.83233	117
2.83600	153
2.83967	235
2.84333	408
2.84700	731
2.85067	1265
2.85433	2063
2.85800	3153
2.86167	4518
2.86533	6099
2.86900	7799
2.87267	9490
2.87633	11039
2.88000	12324
2.88367	13254
2.88733	13785
2.89100	13913
2.89467	13680
2.89833	13151
2.90200	12407
2.90567	11523
2.90933	10566
2.91300	9588
2.91667	8627
2.92033	7711
2.92400	6853
2.92767	6067
2.93133	5353
2.93500	4709
2.93867	4133
2.94233	3619
2.94600	3166
2.94967	2766
2.95333	2413
2.95700	2103
2.96067	1834
2.96433	1598
2.96800	1392
2.97167	1213
2.97533	1059
2.97900	925
2.98267	808
2.98633	705
2.99000	616
2.99367	540
2.99733	476
3.00100	408
3.00467	326
3.00833	250
3.01200	198
3.01567	177
3.01933	177
3.02300	187
3.02667	203
3.03033	223
3.03400	245
3.03767	269
3.04133	293
3.04500	318
3.04867	344
3.05233	370
3.05600	393
3.05967	410
3.06333	426
3.06700	438
3.07067	447
3.07433	453
3.07800	461
3.08167	467
3.08533	473
3.08900	478
3.09267	482
3.09633	489
3.10000	495
3.10367	498
3.10733	499
3.11100	502
3.11467	504
3.11833	503
3.12200	504
3.12567	507
3.12933	510
3.13300	512
3.13667	513
3.14033	515
3.14400	516
3.14767	516
3.15133	517
3.15500	519
3.15867	521
3.16233	525
3.16600	530
3.16967	535
3.17333	537
3.17700	537
3.18067	540
3.18433	543
3.18800	545
3.19167	545
3.19533	547
3.19900	550
3.20267	553
3.20633	556
3.21000	556
3.21367	556
3.21733	555
3.22100	554
3.22467	557
3.22833	560
3.23200	561
3.23567	563
3.23933	563
3.24300	563
3.24667	564
3.25033	566
3.25400	566
3.25767	566
3.26133	567
3.26500	567
3.26867	565
3.27233	562
3.27600	559
3.27967	555
3.28333	551
3.28700	550
3.29067	550
3.29433	549
3.29800	543
3.30167	538
3.30533	535
3.30900	533
3.31267	534
3.31633	534
3.32000	531
3.32367	527
3.32733	524
3.33100	521
3.33467	519
3.33833	518
3.34200	516
3.34567	516
3.34933	515
3.35300	512
3.35667	508
3.36033	504
3.36400	502
3.36767	503
3.37133	503
3.37500	503
3.37867	503
3.38233	502
3.38600	500
3.38967	496
3.39333	494
3.39700	492
3.40067	491
3.40433	488
3.40800	486
3.41167	484
3.41533	480
3.41900	477
3.42267	478
3.42633	478
3.43000	477
3.43367	475
3.43733	472
3.44100	470
3.44467	469
3.44833	469
3.45200	471
3.45567	470
3.45933	468
3.46300	466
3.46667	464
3.47033	462
3.47400	460
3.47767	460
3.48133	458
3.48500	455
3.48867	452
3.49233	448
3.49600	446
3.49967	444
3.50333	441
3.50700	438
3.51067	436
3.51433	437
3.51800	438
3.52167	437
3.52533	436
3.52900	434
3.53267	432
3.53633	431
3.54000	428
3.54367	425
3.54733	425
3.55100	426
3.55467	427
3.55833	424
3.56200	420
3.56567	417
3.56933	416
3.57300	416
3.57667	417
3.58033	414
3.58400	412
3.58767	411
3.59133	410
3.59500	408
3.59867	406
3.60233	404
3.60600	403
3.60967	402
3.61333	403
3.61700	403
3.62067	402
3.62433	401
3.62800	399
3.63167	397
3.63533	394
3.63900	393
3.64267	392
3.64633	390
3.65000	388
3.65367	385
3.65733	385
3.66100	384
3.66467	383
3.66833	383
3.67200	380
3.67567	379
3.67933	380
3.68300	381
3.68667	380
3.69033	380
3.69400	380
3.69767	378
3.70133	376
3.70500	376
3.70867	375
3.71233	373
3.71600	372
3.71967	373
3.72333	372
3.72700	370
3.73067	369
3.73433	368
3.73800	367
3.74167	365
3.74533	364
3.74900	362
3.75267	360
3.75633	359
3.76000	360
3.76367	361
3.76733	361
3.77100	362
3.77467	362
3.77833	362
3.78200	362
3.78567	364
3.78933	363
3.79300	361
3.79667	359
3.80033	357
3.80400	357
3.80767	357
3.81133	356
3.81500	356
3.81867	354
3.82233	352
3.82600	350
3.82967	348
3.83333	347
3.83700	346
3.84067	345
3.84433	343
3.84800	344
3.85167	345
3.85533	344
3.85900	345
3.86267	345
3.86633	345
3.87000	344
3.87367	342
3.87733	341
3.88100	341
3.88467	340
3.88833	340
3.89200	339
3.89567	339
3.89933	340
3.90300	341
3.90667	341
3.91033	340
3.91400	336
3.91767	334
3.92133	334
3.92500	333
3.92867	331
3.93233	329
3.93600	328
3.93967	327
3.94333	327
3.94700	328
3.95067	328
3.95433	329
3.95800	331
3.96167	327
3.96533	324
3.96900	324
3.97267	325
3.97633	326
3.98000	326
3.98367	327
3.98733	325
3.99100	324
3.99467	321
3.99833	319

[Status Trace (Column Oven Temperature)]
Interval(msec)	1000
# of Points	240
Start Time(min)	0.009
End Time(min)	3.992
Intensity Units	
Intensity Multiplier	1
R.Time (min)	Intensity
0.00915	35.04
0.02582	35.03
0.04248	35.04
0.05915	35.04
0.07582	35.04
0.09248	35.04
0.10915	35.04
0.12582	35.03
0.14248	35.03
0.15915	35.03
0.17582	35.03
0.19248	35.05
0.20915	35.06
0.22582	35.06
0.24248	35.06
0.25915	35.05
0.27582	35.04
0.29248	35.03
0.30915	35.02
0.32582	35.01
0.34248	35.00
0.35915	35.00
0.37582	34.99
0.39248	34.99
0.40915	34.99
0.42582	35.00
0.44248	35.00
0.45915	34.99
0.47582	34.99
0.49248	34.99
0.50915	35.00
0.52582	35.00
0.54248	35.00
0.55915	35.00
0.57582	35.01
0.59248	35.01
0.60915	35.01
0.62582	35.01
0.64248	35.00
0.65915	34.99
0.67582	34.98
0.69248	34.98
0.70915	34.98
0.72582	34.98
0.74248	34.98
0.75915	34.98
0.77582	34.99
0.79248	34.99
0.80915	34.99
0.82582	34.98
0.84248	34.98
0.85915	34.99
0.87582	35.00
0.89248	35.00
0.90915	34.99
0.92582	34.99
0.94248	34.99
0.95915	34.99
0.97582	34.99
0.99248	34.99
1.00915	34.99
1.02582	35.00
1.04248	34.99
1.05915	34.99
1.07582	34.99
1.09248	34.99
1.10915	34.99
1.12582	34.99
1.14248	35.00
1.15915	35.00
1.17582	34.99
1.19248	34.99
1.20915	34.99
1.22582	34.98
1.24248	34.99
1.25915	34.98
1.27582	34.98
1.29248	34.98
1.30915	34.97
1.32582	34.98
1.34248	34.99
1.35915	34.98
1.37582	34.99
1.39248	35.00
1.40915	35.00
1.42582	35.01
1.44248	35.00
1.45915	35.01
1.47582	35.00
1.49248	34.99
1.50915	34.99
1.52582	34.99
1.54248	34.99
1.55915	34.99
1.57582	34.99
1.59248	35.01
1.60915	35.06
1.62582	35.19
1.64248	35.38
1.65915	35.64
1.67582	35.99
1.69248	36.35
1.70915	36.70
1.72582	37.04
1.74248	37.34
1.75915	37.67
1.77582	38.02
1.79248	38.38
1.80915	38.68
1.82582	39.00
1.84248	39.34
1.85915	39.67
1.87582	39.99
1.89248	40.31
1.90915	40.66
1.92582	40.98
1.94248	41.31
1.95915	41.65
1.97582	41.97
1.99248	42.29
2.00915	42.62
2.02582	42.95
2.04248	43.27
2.05915	43.59
2.07582	43.91
2.09248	44.24
2.10915	44.56
2.12582	44.89
2.14248	45.24
2.15915	45.57
2.17582	45.87
2.19248	46.21
2.20915	46.54
2.22582	46.85
2.24248	47.17
2.25915	47.51
2.27582	47.84
2.29248	48.16
2.30915	48.52
2.32582	48.86
2.34248	49.17
2.35915	49.44
2.37582	49.60
2.39248	49.65
2.40915	49.65
2.42582	49.65
2.44248	49.66
2.45915	49.66
2.47582	49.68
2.49248	49.68
2.50915	49.69
2.52582	49.70
2.54248	49.70
2.55915	49.72
2.57582	49.74
2.59248	49.76
2.60915	49.77
2.62582	49.80
2.64248	49.80
2.65915	49.82
2.67582	49.83
2.69248	49.85
2.70915	49.84
2.72582	49.85
2.74248	49.87
2.75915	49.87
2.77582	49.86
2.79248	49.86
2.80915	49.86
2.82582	49.87
2.84248	49.88
2.85915	49.88
2.87582	49.89
2.89248	49.90
2.90915	49.92
2.92582	49.91
2.94248	49.91
2.95915	49.93
2.97582	49.96
2.99248	49.98
3.00915	49.98
3.02582	49.99
3.04248	49.99
3.05915	50.00
3.07582	50.01
3.09248	50.02
3.10915	50.02
3.12582	50.04
3.14248	50.04
3.15915	50.04
3.17582	50.05
3.19248	50.06
3.20915	50.06
3.22582	50.06
3.24248	50.07
3.25915	50.08
3.27582	50.08
3.29248	50.09
3.30915	50.10
3.32582	50.10
3.34248	50.11
3.35915	50.11
3.37582	50.10
3.39248	50.09
3.40915	50.08
3.42582	50.07
3.44248	50.06
3.45915	50.05
3.47582	50.03
3.49248	50.02
3.50915	50.03
3.52582	50.03
3.54248	50.03
3.55915	50.04
3.57582	50.04
3.59248	50.04
3.60915	50.03
3.62582	50.02
3.64248	50.02
3.65915	50.02
3.67582	50.02
3.69248	50.03
3.70915	50.04
3.72582	50.06
3.74248	50.07
3.75915	50.09
3.77582	50.10
3.79248	50.09
3.80915	50.08
3.82582	50.07
3.84248	50.05
3.85915	50.05
3.87582	50.04
3.89248	50.04
3.90915	50.04
3.92582	50.04
3.94248	50.04
3.95915	50.03
3.97582	50.03
3.99248	50.02

[Status Trace (Injection Unit Temperature)]
Interval(msec)	1000
# of Points	240
Start Time(min)	0.009
End Time(min)	3.992
Intensity Units	
Intensity Multiplier	1
R.Time (min)	Intensity
0.00915	99.98
0.02582	99.98
0.04248	99.98
0.05915	99.98
0.07582	99.99
0.09248	99.98
0.10915	99.98
0.12582	99.98
0.14248	99.99
0.15915	99.98
0.17582	99.98
0.19248	99.98
0.20915	99.98
0.22582	99.98
0.24248	99.98
0.25915	99.98
0.27582	99.98
0.29248	99.98
0.30915	99.98
0.32582	99.98
0.34248	99.98
0.35915	99.98
0.37582	99.98
0.39248	99.98
0.40915	99.98
0.42582	99.98
0.44248	99.98
0.45915	99.98
0.47582	99.98
0.49248	99.98
0.50915	99.98
0.52582	99.98
0.54248	99.98
0.55915	99.98
0.57582	99.98
0.59248	99.98
0.60915	99.98
0.62582	99.97
0.64248	99.98
0.65915	99.98
0.67582	99.98
0.69248	99.98
0.70915	99.98
0.72582	99.98
0.74248	99.98
0.75915	99.98
0.77582	99.98
0.79248	99.98
0.80915	99.98
0.82582	99.98
0.84248	99.98
0.85915	99.99
0.87582	99.98
0.89248	99.98
0.90915	99.98
0.92582	99.98
0.94248	99.98
0.95915	99.98
0.97582	99.98
0.99248	99.99
1.00915	99.98
1.02582	99.98
1.04248	99.98
1.05915	99.98
1.07582	99.98
1.09248	99.99
1.10915	99.98
1.12582	99.98
1.14248	99.98
1.15915	99.99
1.17582	99.98
1.19248	99.99
1.20915	99.98
1.22582	99.99
1.24248	99.99
1.25915	99.99
1.27582	99.99
1.29248	99.98
1.30915	99.98
1.32582	99.99
1.34248	99.99
1.35915	99.99
1.37582	99.99
1.39248	99.98
1.40915	99.98
1.42582	99.98
1.44248	99.98
1.45915	99.99
1.47582	99.98
1.49248	99.98
1.50915	99.98
1.52582	99.98
1.54248	99.98
1.55915	99.98
1.57582	99.98
1.59248	99.98
1.60915	99.98
1.62582	99.98
1.64248	99.98
1.65915	99.99
1.67582	99.98
1.69248	99.99
1.70915	99.99
1.72582	99.99
1.74248	99.98
1.75915	99.98
1.77582	99.99
1.79248	99.98
1.80915	99.98
1.82582	99.98
1.84248	99.98
1.85915	99.98
1.87582	99.98
1.89248	99.98
1.90915	99.98
1.92582	99.98
1.94248	99.98
1.95915	99.98
1.97582	99.98
1.99248	99.97
2.00915	99.98
2.02582	99.98
2.04248	99.98
2.05915	99.97
2.07582	99.97
2.09248	99.97
2.10915	99.97
2.12582	99.97
2.14248	99.97
2.15915	99.97
2.17582	99.97
2.19248	99.97
2.20915	99.97
2.22582	99.97
2.24248	99.97
2.25915	99.96
2.27582	99.97
2.29248	99.97
2.30915	99.96
2.32582	99.96
2.34248	99.97
2.35915	99.96
2.37582	99.96
2.39248	99.96
2.40915	99.96
2.42582	99.96
2.44248	99.97
2.45915	99.96
2.47582	99.97
2.49248	99.96
2.50915	99.97
2.52582	99.97
2.54248	99.97
2.55915	99.97
2.57582	99.97
2.59248	99.97
2.60915	99.97
2.62582	99.98
2.64248	99.98
2.65915	99.98
2.67582	99.98
2.69248	99.98
2.70915	99.98
2.72582	99.99
2.74248	99.98
2.75915	99.99
2.77582	99.99
2.79248	99.99
2.80915	99.99
2.82582	99.99
2.84248	99.99
2.85915	99.99
2.87582	99.99
2.89248	100.00
2.90915	100.00
2.92582	100.00
2.94248	100.00
2.95915	100.00
2.97582	100.01
2.99248	100.01
3.00915	100.01
3.02582	100.01
3.04248	100.01
3.05915	100.02
3.07582	100.02
3.09248	100.02
3.10915	100.02
3.12582	100.02
3.14248	100.02
3.15915	100.02
3.17582	100.02
3.19248	100.03
3.20915	100.03
3.22582	100.03
3.24248	100.03
3.25915	100.03
3.27582	100.03
3.29248	100.03
3.30915	100.03
3.32582	100.03
3.34248	100.03
3.35915	100.03
3.37582	100.03
3.39248	100.04
3.40915	100.04
3.42582	100.03
3.44248	100.03
3.45915	100.04
3.47582	100.04
3.49248	100.04
3.50915	100.04
3.52582	100.04
3.54248	100.03
3.55915	100.04
3.57582	100.04
3.59248	100.04
3.60915	100.04
3.62582	100.04
3.64248	100.04
3.65915	100.04
3.67582	100.05
3.69248	100.05
3.70915	100.05
3.72582	100.04
3.74248	100.05
3.75915	100.05
3.77582	100.04
3.79248	100.05
3.80915	100.05
3.82582	100.05
3.84248	100.05
3.85915	100.05
3.87582	100.04
3.89248	100.04
3.90915	100.05
3.92582	100.04
3.94248	100.05
3.95915	100.05
3.97582	100.05
3.99248	100.05

[Status Trace (Carrier Gas Pressure)]
Interval(msec)	1000
# of Points	240
Start Time(min)	0.009
End Time(min)	3.992
Intensity Units	
Intensity Multiplier	1
R.Time (min)	Intensity
0.00915	58.00
0.02582	55.23
0.04248	57.40
0.05915	59.47
0.07582	59.12
0.09248	58.02
0.10915	57.99
0.12582	58.01
0.14248	58.01
0.15915	58.00
0.17582	58.00
0.19248	58.00
0.20915	58.00
0.22582	58.00
0.24248	58.00
0.25915	58.00
0.27582	58.00
0.29248	58.00
0.30915	58.00
0.32582	58.00
0.34248	58.00
0.35915	58.00
0.37582	58.00
0.39248	58.00
0.40915	58.00
0.42582	58.00
0.44248	58.00
0.45915	58.00
0.47582	58.00
0.49248	58.00
0.50915	58.00
0.52582	58.00
0.54248	58.00
0.55915	58.00
0.57582	58.00
0.59248	58.00
0.60915	58.00
0.62582	58.00
0.64248	58.00
0.65915	58.00
0.67582	58.00
0.69248	58.00
0.70915	58.00
0.72582	58.00
0.74248	58.00
0.75915	58.00
0.77582	58.00
0.79248	58.00
0.80915	58.00
0.82582	58.00
0.84248	58.00
0.85915	58.00
0.87582	58.00
0.89248	58.00
0.90915	58.00
0.92582	58.00
0.94248	58.00
0.95915	58.00
0.97582	58.00
0.99248	58.00
1.00915	58.00
1.02582	58.00
1.04248	58.00
1.05915	58.00
1.07582	58.00
1.09248	58.00
1.10915	58.00
1.12582	58.00
1.14248	58.00
1.15915	58.00
1.17582	58.00
1.19248	58.00
1.20915	58.00
1.22582	58.00
1.24248	58.00
1.25915	58.00
1.27582	58.00
1.29248	58.00
1.30915	58.00
1.32582	58.00
1.34248	58.00
1.35915	58.00
1.37582	58.00
1.39248	58.00
1.40915	58.00
1.42582	58.00
1.44248	58.00
1.45915	58.00
1.47582	58.00
1.49248	58.00
1.50915	58.00
1.52582	58.00
1.54248	58.00
1.55915	58.00
1.57582	58.00
1.59248	58.00
1.60915	58.00
1.62582	58.00
1.64248	58.01
1.65915	58.00
1.67582	58.01
1.69248	58.00
1.70915	58.00
1.72582	58.00
1.74248	58.00
1.75915	58.00
1.77582	58.00
1.79248	58.00
1.80915	58.00
1.82582	58.00
1.84248	58.00
1.85915	58.00
1.87582	58.00
1.89248	58.00
1.90915	58.00
1.92582	58.00
1.94248	58.00
1.95915	58.00
1.97582	58.00
1.99248	58.00
2.00915	58.00
2.02582	58.00
2.04248	58.00
2.05915	58.00
2.07582	58.00
2.09248	58.00
2.10915	58.00
2.12582	58.00
2.14248	58.00
2.15915	58.00
2.17582	58.00
2.19248	58.00
2.20915	58.00
2.22582	58.00
2.24248	58.00
2.25915	58.00
2.27582	58.00
2.29248	58.00
2.30915	58.00
2.32582	58.00
2.34248	58.00
2.35915	58.00
2.37582	58.00
2.39248	57.99
2.40915	58.00
2.42582	58.00
2.44248	58.00
2.45915	58.00
2.47582	58.00
2.49248	58.00
2.50915	58.00
2.52582	57.99
2.54248	58.00
2.55915	58.00
2.57582	58.00
2.59248	58.00
2.60915	58.00
2.62582	58.00
2.64248	58.00
2.65915	58.00
2.67582	58.00
2.69248	58.00
2.70915	58.00
2.72582	58.00
2.74248	58.00
2.75915	58.00
2.77582	58.00
2.79248	58.00
2.80915	58.00
2.82582	58.00
2.84248	58.00
2.85915	58.00
2.87582	58.00
2.89248	58.00
2.90915	58.00
2.92582	58.00
2.94248	58.00
2.95915	58.00
2.97582	58.00
2.99248	58.00
3.00915	58.00
3.02582	58.00
3.04248	58.00
3.05915	58.00
3.07582	58.00
3.09248	58.00
3.10915	58.00
3.12582	58.00
3.14248	58.00
3.15915	58.00
3.17582	58.00
3.19248	58.00
3.20915	58.00
3.22582	58.00
3.24248	58.00
3.25915	58.00
3.27582	58.00
3.29248	58.00
3.30915	58.00
3.32582	58.00
3.34248	58.00
3.35915	58.00
3.37582	58.00
3.39248	58.00
3.40915	58.00
3.42582	58.00
3.44248	58.00
3.45915	58.00
3.47582	58.00
3.49248	58.00
3.50915	58.00
3.52582	58.00
3.54248	58.00
3.55915	58.00
3.57582	58.00
3.59248	58.00
3.60915	58.00
3.62582	58.00
3.64248	58.00
3.65915	58.00
3.67582	58.00
3.69248	58.00
3.70915	58.00
3.72582	58.00
3.74248	58.00
3.75915	58.00
3.77582	58.00
3.79248	58.00
3.80915	58.00
3.82582	58.00
3.84248	58.00
3.85915	58.00
3.87582	58.00
3.89248	58.00
3.90915	58.00
3.92582	58.00
3.94248	58.00
3.95915	58.00
3.97582	58.00
3.99248	58.00

[Status Trace (Carrier Gas Flow)]
Interval(msec)	1000
# of Points	240
Start Time(min)	0.009
End Time(min)	3.992
Intensity Units	
Intensity Multiplier	1
R.Time (min)	Intensity
0.00915	34.52
0.02582	34.54
0.04248	34.55
0.05915	34.55
0.07582	34.51
0.09248	34.51
0.10915	34.52
0.12582	34.52
0.14248	34.52
0.15915	34.52
0.17582	34.52
0.19248	34.52
0.20915	34.52
0.22582	34.52
0.24248	34.52
0.25915	34.52
0.27582	34.52
0.29248	34.52
0.30915	34.52
0.32582	34.52
0.34248	34.52
0.35915	34.52
0.37582	34.52
0.39248	34.52
0.40915	34.52
0.42582	34.52
0.44248	34.52
0.45915	34.52
0.47582	34.51
0.49248	34.52
0.50915	34.52
0.52582	34.51
0.54248	34.52
0.55915	34.52
0.57582	34.52
0.59248	34.52
0.60915	34.51
0.62582	34.52
0.64248	34.53
0.65915	34.52
0.67582	34.51
0.69248	34.51
0.70915	34.51
0.72582	34.52
0.74248	34.52
0.75915	34.52
0.77582	34.52
0.79248	34.52
0.80915	34.52
0.82582	34.52
0.84248	34.52
0.85915	34.51
0.87582	34.52
0.89248	34.53
0.90915	34.51
0.92582	34.52
0.94248	34.51
0.95915	34.52
0.97582	34.51
0.99248	34.51
1.00915	34.53
1.02582	34.52
1.04248	34.52
1.05915	34.52
1.07582	34.52
1.09248	34.52
1.10915	34.52
1.12582	34.52
1.14248	34.52
1.15915	34.52
1.17582	34.52
1.19248	34.52
1.20915	34.52
1.22582	34.52
1.24248	34.52
1.25915	34.53
1.27582	34.52
1.29248	34.52
1.30915	34.52
1.32582	34.52
1.34248	34.52
1.35915	34.51
1.37582	34.52
1.39248	34.52
1.40915	34.52
1.42582	34.52
1.44248	34.52
1.45915	34.52
1.47582	34.52
1.49248	34.52
1.50915	34.52
1.52582	34.52
1.54248	34.51
1.55915	34.52
1.57582	34.52
1.59248	34.52
1.60915	34.52
1.62582	34.52
1.64248	34.52
1.65915	34.51
1.67582	34.52
1.69248	34.52
1.70915	34.52
1.72582	34.52
1.74248	34.52
1.75915	34.52
1.77582	34.51
1.79248	34.51
1.80915	34.52
1.82582	34.52
1.84248	34.52
1.85915	34.52
1.87582	34.52
1.89248	34.52
1.90915	34.52
1.92582	34.52
1.94248	34.52
1.95915	34.51
1.97582	34.52
1.99248	34.52
2.00915	34.52
2.02582	34.51
2.04248	34.52
2.05915	34.52
2.07582	34.52
2.09248	34.51
2.10915	34.52
2.12582	34.52
2.14248	34.52
2.15915	34.52
2.17582	34.52
2.19248	34.52
2.20915	34.52
2.22582	34.52
2.24248	34.52
2.25915	34.52
2.27582	34.51
2.29248	34.52
2.30915	34.52
2.32582	34.52
2.34248	34.52
2.35915	34.52
2.37582	34.52
2.39248	34.51
2.40915	34.52
2.42582	34.52
2.44248	34.52
2.45915	34.52
2.47582	34.52
2.49248	34.53
2.50915	34.49
2.52582	34.52
2.54248	34.52
2.55915	34.52
2.57582	34.52
2.59248	34.52
2.60915	34.52
2.62582	34.52
2.64248	34.51
2.65915	34.52
2.67582	34.52
2.69248	34.52
2.70915	34.53
2.72582	34.52
2.74248	34.52
2.75915	34.52
2.77582	34.52
2.79248	34.52
2.80915	34.52
2.82582	34.52
2.84248	34.52
2.85915	34.52
2.87582	34.52
2.89248	34.52
2.90915	34.52
2.92582	34.52
2.94248	34.51
2.95915	34.52
2.97582	34.52
2.99248	34.52
3.00915	34.52
3.02582	34.53
3.04248	34.52
3.05915	34.52
3.07582	34.52
3.09248	34.52
3.10915	34.51
3.12582	34.51
3.14248	34.52
3.15915	34.52
3.17582	34.52
3.19248	34.52
3.20915	34.52
3.22582	34.52
3.24248	34.51
3.25915	34.52
3.27582	34.52
3.29248	34.52
3.30915	34.52
3.32582	34.52
3.34248	34.52
3.35915	34.52
3.37582	34.52
3.39248	34.52
3.40915	34.52
3.42582	34.52
3.44248	34.51
3.45915	34.52
3.47582	34.52
3.49248	34.52
3.50915	34.52
3.52582	34.52
3.54248	34.53
3.55915	34.52
3.57582	34.52
3.59248	34.52
3.60915	34.52
3.62582	34.52
3.64248	34.51
3.65915	34.51
3.67582	34.52
3.69248	34.52
3.70915	34.51
3.72582	34.52
3.74248	34.52
3.75915	34.51
3.77582	34.51
3.79248	34.52
3.80915	34.51
3.82582	34.52
3.84248	34.52
3.85915	34.52
3.87582	34.52
3.89248	34.52
3.90915	34.52
3.92582	34.52
3.94248	34.51
3.95915	34.52
3.97582	34.52
3.99248	34.52

[Status Trace (Column Flow)]
Interval(msec)	1000
# of Points	240
Start Time(min)	0.009
End Time(min)	3.992
Intensity Units	
Intensity Multiplier	1
R.Time (min)	Intensity
0.00915	5.52
0.02582	5.20
0.04248	5.45
0.05915	5.69
0.07582	5.65
0.09248	5.52
0.10915	5.52
0.12582	5.52
0.14248	5.52
0.15915	5.52
0.17582	5.52
0.19248	5.52
0.20915	5.52
0.22582	5.52
0.24248	5.52
0.25915	5.52
0.27582	5.52
0.29248	5.52
0.30915	5.52
0.32582	5.52
0.34248	5.52
0.35915	5.52
0.37582	5.52
0.39248	5.52
0.40915	5.52
0.42582	5.52
0.44248	5.52
0.45915	5.52
0.47582	5.52
0.49248	5.52
0.50915	5.52
0.52582	5.52
0.54248	5.52
0.55915	5.52
0.57582	5.52
0.59248	5.52
0.60915	5.52
0.62582	5.52
0.64248	5.52
0.65915	5.52
0.67582	5.52
0.69248	5.52
0.70915	5.52
0.72582	5.52
0.74248	5.52
0.75915	5.52
0.77582	5.52
0.79248	5.52
0.80915	5.52
0.82582	5.52
0.84248	5.52
0.85915	5.52
0.87582	5.52
0.89248	5.52
0.90915	5.52
0.92582	5.52
0.94248	5.52
0.95915	5.52
0.97582	5.52
0.99248	5.52
1.00915	5.52
1.02582	5.52
1.04248	5.52
1.05915	5.52
1.07582	5.52
1.09248	5.52
1.10915	5.52
1.12582	5.52
1.14248	5.52
1.15915	5.52
1.17582	5.52
1.19248	5.52
1.20915	5.52
1.22582	5.52
1.24248	5.52
1.25915	5.52
1.27582	5.52
1.29248	5.52
1.30915	5.52
1.32582	5.52
1.34248	5.52
1.35915	5.52
1.37582	5.52
1.39248	5.52
1.40915	5.52
1.42582	5.52
1.44248	5.52
1.45915	5.52
1.47582	5.52
1.49248	5.52
1.50915	5.52
1.52582	5.52
1.54248	5.52
1.55915	5.52
1.57582	5.52
1.59248	5.52
1.60915	5.52
1.62582	5.52
1.64248	5.51
1.65915	5.50
1.67582	5.49
1.69248	5.48
1.70915	5.47
1.72582	5.46
1.74248	5.45
1.75915	5.44
1.77582	5.43
1.79248	5.42
1.80915	5.41
1.82582	5.40
1.84248	5.39
1.85915	5.38
1.87582	5.37
1.89248	5.36
1.90915	5.35
1.92582	5.34
1.94248	5.33
1.95915	5.32
1.97582	5.31
1.99248	5.30
2.00915	5.29
2.02582	5.28
2.04248	5.27
2.05915	5.26
2.07582	5.25
2.09248	5.24
2.10915	5.23
2.12582	5.22
2.14248	5.21
2.15915	5.20
2.17582	5.19
2.19248	5.18
2.20915	5.18
2.22582	5.17
2.24248	5.16
2.25915	5.15
2.27582	5.14
2.29248	5.13
2.30915	5.12
2.32582	5.11
2.34248	5.10
2.35915	5.09
2.37582	5.09
2.39248	5.09
2.40915	5.09
2.42582	5.09
2.44248	5.09
2.45915	5.09
2.47582	5.09
2.49248	5.09
2.50915	5.09
2.52582	5.08
2.54248	5.09
2.55915	5.09
2.57582	5.09
2.59248	5.08
2.60915	5.08
2.62582	5.08
2.64248	5.08
2.65915	5.08
2.67582	5.08
2.69248	5.08
2.70915	5.08
2.72582	5.08
2.74248	5.08
2.75915	5.08
2.77582	5.08
2.79248	5.08
2.80915	5.08
2.82582	5.08
2.84248	5.08
2.85915	5.08
2.87582	5.08
2.89248	5.08
2.90915	5.08
2.92582	5.08
2.94248	5.08
2.95915	5.08
2.97582	5.08
2.99248	5.08
3.00915	5.08
3.02582	5.08
3.04248	5.08
3.05915	5.08
3.07582	5.08
3.09248	5.08
3.10915	5.08
3.12582	5.08
3.14248	5.08
3.15915	5.08
3.17582	5.08
3.19248	5.08
3.20915	5.08
3.22582	5.08
3.24248	5.08
3.25915	5.08
3.27582	5.08
3.29248	5.08
3.30915	5.08
3.32582	5.08
3.34248	5.08
3.35915	5.07
3.37582	5.08
3.39248	5.08
3.40915	5.08
3.42582	5.08
3.44248	5.08
3.45915	5.08
3.47582	5.08
3.49248	5.08
3.50915	5.08
3.52582	5.08
3.54248	5.08
3.55915	5.08
3.57582	5.08
3.59248	5.08
3.60915	5.08
3.62582	5.08
3.64248	5.08
3.65915	5.08
3.67582	5.08
3.69248	5.08
3.70915	5.08
3.72582	5.08
3.74248	5.08
3.75915	5.08
3.77582	5.08
3.79248	5.08
3.80915	5.08
3.82582	5.08
3.84248	5.08
3.85915	5.08
3.87582	5.08
3.89248	5.08
3.90915	5.08
3.92582	5.08
3.94248	5.08
3.95915	5.08
3.97582	5.08
3.99248	5.08

[Status Trace (Linear Velocity)]
Interval(msec)	1000
# of Points	240
Start Time(min)	0.009
End Time(min)	3.992
Intensity Units	
Intensity Multiplier	1
R.Time (min)	Intensity
0.00915	39.01
0.02582	37.20
0.04248	38.62
0.05915	39.98
0.07582	39.75
0.09248	39.02
0.10915	39.00
0.12582	39.02
0.14248	39.02
0.15915	39.02
0.17582	39.02
0.19248	39.01
0.20915	39.01
0.22582	39.01
0.24248	39.01
0.25915	39.01
0.27582	39.01
0.29248	39.01
0.30915	39.02
0.32582	39.02
0.34248	39.02
0.35915	39.02
0.37582	39.02
0.39248	39.02
0.40915	39.02
0.42582	39.02
0.44248	39.02
0.45915	39.02
0.47582	39.02
0.49248	39.02
0.50915	39.02
0.52582	39.02
0.54248	39.02
0.55915	39.02
0.57582	39.02
0.59248	39.02
0.60915	39.02
0.62582	39.02
0.64248	39.02
0.65915	39.02
0.67582	39.02
0.69248	39.02
0.70915	39.02
0.72582	39.02
0.74248	39.02
0.75915	39.02
0.77582	39.02
0.79248	39.02
0.80915	39.02
0.82582	39.02
0.84248	39.02
0.85915	39.02
0.87582	39.02
0.89248	39.02
0.90915	39.02
0.92582	39.02
0.94248	39.02
0.95915	39.02
0.97582	39.02
0.99248	39.02
1.00915	39.02
1.02582	39.02
1.04248	39.02
1.05915	39.02
1.07582	39.02
1.09248	39.02
1.10915	39.02
1.12582	39.02
1.14248	39.02
1.15915	39.02
1.17582	39.02
1.19248	39.02
1.20915	39.02
1.22582	39.02
1.24248	39.02
1.25915	39.02
1.27582	39.02
1.29248	39.02
1.30915	39.02
1.32582	39.02
1.34248	39.02
1.35915	39.02
1.37582	39.02
1.39248	39.02
1.40915	39.02
1.42582	39.02
1.44248	39.02
1.45915	39.02
1.47582	39.02
1.49248	39.02
1.50915	39.02
1.52582	39.02
1.54248	39.02
1.55915	39.02
1.57582	39.02
1.59248	39.02
1.60915	39.01
1.62582	39.00
1.64248	38.98
1.65915	38.96
1.67582	38.93
1.69248	38.89
1.70915	38.85
1.72582	38.82
1.74248	38.79
1.75915	38.76
1.77582	38.73
1.79248	38.69
1.80915	38.67
1.82582	38.64
1.84248	38.60
1.85915	38.58
1.87582	38.54
1.89248	38.51
1.90915	38.48
1.92582	38.45
1.94248	38.42
1.95915	38.39
1.97582	38.36
1.99248	38.33
2.00915	38.30
2.02582	38.27
2.04248	38.24
2.05915	38.21
2.07582	38.18
2.09248	38.15
2.10915	38.12
2.12582	38.09
2.14248	38.06
2.15915	38.03
2.17582	38.00
2.19248	37.97
2.20915	37.94
2.22582	37.91
2.24248	37.88
2.25915	37.85
2.27582	37.82
2.29248	37.80
2.30915	37.76
2.32582	37.73
2.34248	37.71
2.35915	37.68
2.37582	37.66
2.39248	37.66
2.40915	37.66
2.42582	37.66
2.44248	37.66
2.45915	37.66
2.47582	37.66
2.49248	37.66
2.50915	37.66
2.52582	37.65
2.54248	37.66
2.55915	37.66
2.57582	37.66
2.59248	37.65
2.60915	37.65
2.62582	37.65
2.64248	37.65
2.65915	37.65
2.67582	37.65
2.69248	37.65
2.70915	37.65
2.72582	37.65
2.74248	37.64
2.75915	37.64
2.77582	37.65
2.79248	37.64
2.80915	37.65
2.82582	37.64
2.84248	37.64
2.85915	37.64
2.87582	37.64
2.89248	37.64
2.90915	37.64
2.92582	37.64
2.94248	37.64
2.95915	37.64
2.97582	37.64
2.99248	37.63
3.00915	37.63
3.02582	37.63
3.04248	37.63
3.05915	37.63
3.07582	37.63
3.09248	37.63
3.10915	37.63
3.12582	37.63
3.14248	37.63
3.15915	37.63
3.17582	37.63
3.19248	37.63
3.20915	37.63
3.22582	37.63
3.24248	37.63
3.25915	37.63
3.27582	37.63
3.29248	37.62
3.30915	37.62
3.32582	37.62
3.34248	37.62
3.35915	37.62
3.37582	37.62
3.39248	37.62
3.40915	37.63
3.42582	37.63
3.44248	37.63
3.45915	37.63
3.47582	37.63
3.49248	37.63
3.50915	37.63
3.52582	37.63
3.54248	37.63
3.55915	37.63
3.57582	37.63
3.59248	37.63
3.60915	37.63
3.62582	37.63
3.64248	37.63
3.65915	37.63
3.67582	37.63
3.69248	37.63
3.70915	37.63
3.72582	37.63
3.74248	37.63
3.75915	37.62
3.77582	37.62
3.79248	37.62
3.80915	37.63
3.82582	37.63
3.84248	37.63
3.85915	37.63
3.87582	37.63
3.89248	37.63
3.90915	37.63
3.92582	37.63
3.94248	37.63
3.95915	37.63
3.97582	37.63
3.99248	37.63

