[Header]
Application Name	LabSolutions
Version	5.110
Data File Name	C:\Users\User\Desktop\Junior\UIC Prairie Sampling\3.23.23\032323_031.gcd
Output Date	5/24/2023
Output Time	10:27:37 AM

[File Information]
Type	Data File
Generated	5/23/2023 6:51:29 PM
Generated by	System Administrator
Modified	5/23/2023 6:58:24 PM
Modified by	System Administrator

[Sample Information]
Operator Name	System Administrator
Acquired	5/23/2023 6:54:23 PM
Sample Type	0:Unknown
Level	0
Sample Name	031
Sample ID	031
ISTD Amount1	1
ISTD Amount2	1
ISTD Amount3	1
ISTD Amount4	1
ISTD Amount5	1
ISTD Amount6	1
ISTD Amount7	1
ISTD Amount8	1
ISTD Amount9	1
ISTD Amount10	1
ISTD Amount11	1
ISTD Amount12	1
ISTD Amount13	1
ISTD Amount14	1
ISTD Amount15	1
ISTD Amount16	1
ISTD Amount17	1
ISTD Amount18	1
ISTD Amount19	1
ISTD Amount20	1
ISTD Amount21	1
ISTD Amount22	1
ISTD Amount23	1
ISTD Amount24	1
ISTD Amount25	1
ISTD Amount26	1
ISTD Amount27	1
ISTD Amount28	1
ISTD Amount29	1
ISTD Amount30	1
ISTD Amount31	1
ISTD Amount32	1
Sample Amount	1
Dilution Factor	1
Vial#	30
Injection Volume	1
Injection Count	1
Bar Code	

[Original Files]
Data File	C:\Users\User\Desktop\GC Analyses\Jack\Nachusa Grasslands Sampling\20220924\t2\032323_031.gcd
Method File	C:\LabSolutions\Data\GHG_4min_2022\ghg3_togas_w_acet_4 min_new_int.gcm
Batch File	C:\LabSolutions\Data\AutoSamplerTesting\032323.gcb
Report Format File	c:\LabSolutions\System\DEFAULT.lsr

[File Description]


[Configuration]
Instrument Name	C0B7VH3-Instrument1
Instrument #	1
Line #	1
# of Detectors	3
Detector ID	DET#1	DET#2	DET#3
Detector Name	FID	PTCD	ECD
# of Channels	1	1	1

[Peak Table(Ch1)]
# of Peaks	4
Peak#	R.Time	I.Time	F.Time	Area	Height	A/H	Conc.	Mark	ID#	Name	k'	Plate #	Plate Ht.	Tailing	Resolution	Sep.Factor	Area Ratio	Height Ratio	Conc. %	Norm Conc.
1	1.476	1.435	1.531	7244	3528	2.053	0.000	   	1	CO	0.000	9577	15.663	1.168	0.000	0.000	0	0	0.000	0.000
2	1.567	1.531	1.626	4493	2284	1.967	21.902	 V 	2	CH4	0.062	11664	12.860	1.118	1.549	0.000	0	0	9.870	9.870
3	1.993	1.934	2.323	1037824	495743	2.093	200.008	   	3	CO2	0.350	17482	8.580	1.323	7.189	5.640	0	0	90.130	90.130
4	3.287	3.247	3.309	41	26	1.562	0.000	   	6	Ethane	1.227	99892	1.502	0.750	25.408	3.504	0	0	0.000	0.000

[Peak Table(Ch2)]
# of Peaks	0

[Peak Table(Ch3)]
# of Peaks	5
Peak#	R.Time	I.Time	F.Time	Area	Height	A/H	Conc.	Mark	ID#	Name	k'	Plate #	Plate Ht.	Tailing	Resolution	Sep.Factor	Area Ratio	Height Ratio	Conc. %	Norm Conc.
1	2.458	2.400	2.502	665	261	2.544	0.000	   			0.000	16444	9.122	0.000	0.000	0.000	0	0	0.000	0.000
2	2.513	2.502	2.561	263	116	2.258	0.000	 V 			0.022	7413	20.235	0.000	0.569	0.000	0	0	0.000	0.000
3	2.605	2.561	2.667	301	87	3.449	0.000	 V 			0.060	11045	13.581	0.000	0.849	2.667	0	0	0.000	0.000
4	2.887	2.726	3.063	16482	4457	3.698	0.244	   	1	N2O	0.175	13827	10.848	1.542	2.861	2.925	0	0	100.000	100.000
5	3.375	3.269	3.969	6105	289	21.129	0.000	   			0.373	626	239.615	3.390	1.529	2.137	0	0	0.000	0.000

[Compound Results(Ch1)]
# of IDs	6
ID#	Name	R.Time	Area	Height	Conc.	Curve	3rd	2nd	1st	Constant	Area Ratio	Height Ratio	Conc. %	Norm Conc.
1	CO	1.476	7244	3528	0.000	Linear	0.000000e+00	0.000000e+00	0.000000e+00	0.000000e+00	0	0	0.000	0.000
2	CH4	1.567	4493	2284	21.902	Linear	0.000000e+00	0.000000e+00	2.051179e+002	0.000000e+00	0	0	9.870	9.870
3	CO2	1.993	1037824	495743	200.008	Linear	0.000000e+00	0.000000e+00	5.188919e+003	0.000000e+00	0	0	90.130	90.130
4	Ethylene	0.000	0	0	0.000	Linear	0.000000e+00	0.000000e+00	0.000000e+00	0.000000e+00	0	0	0.000	0.000
5	Acetylene	0.000	0	0	0.000	Linear	0.000000e+00	0.000000e+00	0.000000e+00	0.000000e+00	0	0	0.000	0.000
6	Ethane	3.287	41	26	0.000	Linear	0.000000e+00	0.000000e+00	0.000000e+00	0.000000e+00	0	0	0.000	0.000

[Compound Results(Ch2)]
# of IDs	5
ID#	Name	R.Time	Area	Height	Conc.	Curve	3rd	2nd	1st	Constant	Area Ratio	Height Ratio	Conc. %	Norm Conc.
1	Hydrogen	0.000	0	0	0.000	Linear	0.000000e+00	0.000000e+00	0.000000e+00	0.000000e+00	0	0	0.000	0.000
2	Oxygen	0.000	0	0	0.000	Linear	0.000000e+00	0.000000e+00	0.000000e+00	0.000000e+00	0	0	0.000	0.000
3	Nitrogen	0.000	0	0	0.000	Linear	0.000000e+00	0.000000e+00	0.000000e+00	0.000000e+00	0	0	0.000	0.000
4	Methane	0.000	0	0	0.000	Linear	0.000000e+00	0.000000e+00	0.000000e+00	0.000000e+00	0	0	0.000	0.000
5	Carbon Monoxide	0.000	0	0	0.000	Linear	0.000000e+00	0.000000e+00	0.000000e+00	0.000000e+00	0	0	0.000	0.000

[Compound Results(Ch3)]
# of IDs	2
ID#	Name	R.Time	Area	Height	Conc.	Curve	3rd	2nd	1st	Constant	Area Ratio	Height Ratio	Conc. %	Norm Conc.
1	N2O	2.887	16482	4457	0.244	Linear	0.000000e+00	0.000000e+00	6.759880e+004	0.000000e+00	0	0	100.000	100.000
2	SF6	0.000	0	0	0.000	Linear	0.000000e+00	0.000000e+00	0.000000e+00	0.000000e+00	0	0	0.000	0.000

[Group Results(Ch1)]
# of Groups	0

[Group Results(Ch2)]
# of Groups	0

[Group Results(Ch3)]
# of Groups	0

[Chromatogram (Ch1)]
Interval(msec)	220
# of Points	1091
Start Time(min)	0.002
End Time(min)	3.998
R.Time (min)	Intensity
0.00167	18
0.00533	16
0.00900	14
0.01267	14
0.01633	12
0.02000	7
0.02367	2
0.02733	-1
0.03100	-1
0.03467	1
0.03833	3
0.04200	4
0.04567	4
0.04933	8
0.05300	13
0.05667	14
0.06033	11
0.06400	7
0.06767	2
0.07133	1
0.07500	3
0.07867	7
0.08233	9
0.08600	9
0.08967	10
0.09333	11
0.09700	9
0.10067	8
0.10433	8
0.10800	9
0.11167	8
0.11533	5
0.11900	2
0.12267	-0
0.12633	-0
0.13000	1
0.13367	6
0.13733	12
0.14100	15
0.14467	14
0.14833	10
0.15200	5
0.15567	1
0.15933	3
0.16300	4
0.16667	4
0.17033	3
0.17400	1
0.17767	-1
0.18133	-3
0.18500	-1
0.18867	2
0.19233	6
0.19600	6
0.19967	3
0.20333	2
0.20700	2
0.21067	2
0.21433	3
0.21800	4
0.22167	3
0.22533	1
0.22900	-1
0.23267	-3
0.23633	-2
0.24000	-2
0.24367	2
0.24733	7
0.25100	10
0.25467	12
0.25833	13
0.26200	14
0.26567	14
0.26933	12
0.27300	12
0.27667	10
0.28033	6
0.28400	2
0.28767	-0
0.29133	3
0.29500	12
0.29867	22
0.30233	28
0.30600	30
0.30967	28
0.31333	25
0.31700	25
0.32067	27
0.32433	26
0.32800	22
0.33167	17
0.33533	13
0.33900	8
0.34267	5
0.34633	4
0.35000	5
0.35367	5
0.35733	3
0.36100	2
0.36467	-0
0.36833	-1
0.37200	3
0.37567	8
0.37933	13
0.38300	16
0.38667	16
0.39033	13
0.39400	13
0.39767	13
0.40133	10
0.40500	7
0.40867	5
0.41233	4
0.41600	2
0.41967	-1
0.42333	-3
0.42700	-1
0.43067	2
0.43433	3
0.43800	4
0.44167	8
0.44533	11
0.44900	15
0.45267	17
0.45633	16
0.46000	14
0.46367	15
0.46733	17
0.47100	14
0.47467	4
0.47833	-5
0.48200	-9
0.48567	-8
0.48933	-8
0.49300	-6
0.49667	-3
0.50033	2
0.50400	10
0.50767	18
0.51133	19
0.51500	18
0.51867	12
0.52233	1
0.52600	-5
0.52967	-4
0.53333	-3
0.53700	-5
0.54067	-10
0.54433	-16
0.54800	-19
0.55167	-24
0.55533	-30
0.55900	-35
0.56267	-35
0.56633	-31
0.57000	-24
0.57367	-14
0.57733	-6
0.58100	1
0.58467	9
0.58833	18
0.59200	27
0.59567	31
0.59933	33
0.60300	32
0.60667	30
0.61033	29
0.61400	28
0.61767	29
0.62133	27
0.62500	23
0.62867	16
0.63233	10
0.63600	4
0.63967	1
0.64333	-1
0.64700	-4
0.65067	-3
0.65433	-0
0.65800	5
0.66167	7
0.66533	5
0.66900	3
0.67267	2
0.67633	-0
0.68000	-5
0.68367	-5
0.68733	-3
0.69100	-2
0.69467	-3
0.69833	-4
0.70200	-6
0.70567	-8
0.70933	-9
0.71300	-10
0.71667	-6
0.72033	2
0.72400	11
0.72767	17
0.73133	19
0.73500	18
0.73867	17
0.74233	16
0.74600	14
0.74967	14
0.75333	12
0.75700	5
0.76067	-4
0.76433	-13
0.76800	-17
0.77167	-17
0.77533	-14
0.77900	-8
0.78267	-3
0.78633	1
0.79000	6
0.79367	6
0.79733	2
0.80100	-1
0.80467	1
0.80833	4
0.81200	6
0.81567	9
0.81933	9
0.82300	6
0.82667	4
0.83033	6
0.83400	7
0.83767	8
0.84133	9
0.84500	10
0.84867	11
0.85233	12
0.85600	11
0.85967	10
0.86333	11
0.86700	12
0.87067	13
0.87433	15
0.87800	14
0.88167	13
0.88533	14
0.88900	17
0.89267	22
0.89633	29
0.90000	33
0.90367	32
0.90733	23
0.91100	10
0.91467	-1
0.91833	-8
0.92200	-14
0.92567	-20
0.92933	-23
0.93300	-23
0.93667	-23
0.94033	-21
0.94400	-18
0.94767	-19
0.95133	-23
0.95500	-24
0.95867	-22
0.96233	-20
0.96600	-16
0.96967	-11
0.97333	-5
0.97700	1
0.98067	5
0.98433	5
0.98800	6
0.99167	7
0.99533	6
0.99900	2
1.00267	-2
1.00633	-5
1.01000	-7
1.01367	-8
1.01733	-8
1.02100	-8
1.02467	-5
1.02833	-0
1.03200	4
1.03567	7
1.03933	12
1.04300	19
1.04667	26
1.05033	32
1.05400	35
1.05767	32
1.06133	24
1.06500	14
1.06867	2
1.07233	-4
1.07600	-7
1.07967	-10
1.08333	-13
1.08700	-14
1.09067	-12
1.09433	-8
1.09800	-6
1.10167	-7
1.10533	-8
1.10900	-6
1.11267	-4
1.11633	-3
1.12000	1
1.12367	3
1.12733	4
1.13100	7
1.13467	11
1.13833	13
1.14200	10
1.14567	4
1.14933	-2
1.15300	-7
1.15667	-12
1.16033	-14
1.16400	-14
1.16767	-13
1.17133	-10
1.17500	-3
1.17867	4
1.18233	2
1.18600	-4
1.18967	-6
1.19333	-1
1.19700	5
1.20067	4
1.20433	-3
1.20800	-8
1.21167	-10
1.21533	-9
1.21900	-9
1.22267	-12
1.22633	-17
1.23000	-24
1.23367	-27
1.23733	-27
1.24100	-24
1.24467	-23
1.24833	-23
1.25200	-22
1.25567	-20
1.25933	-17
1.26300	-14
1.26667	-11
1.27033	-9
1.27400	-9
1.27767	-11
1.28133	-14
1.28500	-16
1.28867	-16
1.29233	-15
1.29600	-15
1.29967	-10
1.30333	-4
1.30700	-4
1.31067	-6
1.31433	-12
1.31800	-21
1.32167	-32
1.32533	-43
1.32900	-51
1.33267	-50
1.33633	-45
1.34000	-40
1.34367	-38
1.34733	-35
1.35100	-30
1.35467	-25
1.35833	-22
1.36200	-23
1.36567	-22
1.36933	-16
1.37300	-8
1.37667	-1
1.38033	1
1.38400	-2
1.38767	-9
1.39133	-16
1.39500	-20
1.39867	-19
1.40233	-19
1.40600	-20
1.40967	-21
1.41333	-20
1.41700	-16
1.42067	-11
1.42433	-7
1.42800	-7
1.43167	-8
1.43533	-1
1.43900	19
1.44267	66
1.44633	156
1.45000	393
1.45367	882
1.45733	1549
1.46100	2229
1.46467	2810
1.46833	3244
1.47200	3493
1.47567	3518
1.47933	3295
1.48300	2861
1.48667	2316
1.49033	1771
1.49400	1296
1.49767	915
1.50133	634
1.50500	438
1.50867	302
1.51233	202
1.51600	128
1.51967	72
1.52333	33
1.52700	6
1.53067	-9
1.53433	-3
1.53800	52
1.54167	216
1.54533	533
1.54900	964
1.55267	1414
1.55633	1803
1.56000	2087
1.56367	2245
1.56733	2253
1.57100	2092
1.57467	1783
1.57833	1399
1.58200	1019
1.58567	704
1.58933	468
1.59300	302
1.59667	190
1.60033	111
1.60400	53
1.60767	11
1.61133	-14
1.61500	-23
1.61867	-26
1.62233	-33
1.62600	-43
1.62967	-50
1.63333	-55
1.63700	-58
1.64067	-58
1.64433	-55
1.64800	-56
1.65167	-60
1.65533	-65
1.65900	-67
1.66267	-67
1.66633	-66
1.67000	-66
1.67367	-65
1.67733	-64
1.68100	-65
1.68467	-67
1.68833	-63
1.69200	-53
1.69567	-39
1.69933	-29
1.70300	-33
1.70667	-41
1.71033	-46
1.71400	-51
1.71767	-57
1.72133	-63
1.72500	-68
1.72867	-75
1.73233	-81
1.73600	-83
1.73967	-81
1.74333	-75
1.74700	-65
1.75067	-55
1.75433	-45
1.75800	-35
1.76167	-29
1.76533	-24
1.76900	-24
1.77267	-30
1.77633	-39
1.78000	-48
1.78367	-56
1.78733	-58
1.79100	-55
1.79467	-50
1.79833	-47
1.80200	-45
1.80567	-45
1.80933	-46
1.81300	-48
1.81667	-54
1.82033	-61
1.82400	-67
1.82767	-66
1.83133	-59
1.83500	-55
1.83867	-53
1.84233	-50
1.84600	-46
1.84967	-39
1.85333	-31
1.85700	-27
1.86067	-31
1.86433	-37
1.86800	-40
1.87167	-39
1.87533	-39
1.87900	-39
1.88267	-39
1.88633	-39
1.89000	-37
1.89367	-37
1.89733	-41
1.90100	-46
1.90467	-50
1.90833	-54
1.91200	-54
1.91567	-53
1.91933	-53
1.92300	-59
1.92667	-67
1.93033	-68
1.93400	-64
1.93767	-55
1.94133	-44
1.94500	-35
1.94867	-20
1.95233	47
1.95600	441
1.95967	2315
1.96333	9023
1.96700	27296
1.97067	65938
1.97433	130309
1.97800	216304
1.98167	310818
1.98533	397527
1.98900	462361
1.99267	495735
1.99633	493227
2.00000	456856
2.00367	395274
2.00733	321279
2.01100	247552
2.01467	182858
2.01833	131038
2.02200	92148
2.02567	64261
2.02933	44863
2.03300	31620
2.03667	22663
2.04033	16615
2.04400	12512
2.04767	9698
2.05133	7735
2.05500	6335
2.05867	5315
2.06233	4551
2.06600	3962
2.06967	3499
2.07333	3128
2.07700	2828
2.08067	2579
2.08433	2368
2.08800	2186
2.09167	2028
2.09533	1889
2.09900	1762
2.10267	1652
2.10633	1559
2.11000	1475
2.11367	1397
2.11733	1327
2.12100	1264
2.12467	1204
2.12833	1147
2.13200	1097
2.13567	1048
2.13933	1004
2.14300	965
2.14667	929
2.15033	894
2.15400	855
2.15767	819
2.16133	788
2.16500	759
2.16867	733
2.17233	713
2.17600	694
2.17967	676
2.18333	658
2.18700	641
2.19067	624
2.19433	609
2.19800	595
2.20167	580
2.20533	565
2.20900	552
2.21267	541
2.21633	529
2.22000	514
2.22367	497
2.22733	483
2.23100	475
2.23467	467
2.23833	456
2.24200	445
2.24567	435
2.24933	425
2.25300	414
2.25667	403
2.26033	391
2.26400	380
2.26767	373
2.27133	369
2.27500	365
2.27867	364
2.28233	362
2.28600	355
2.28967	343
2.29333	330
2.29700	321
2.30067	318
2.30433	316
2.30800	316
2.31167	316
2.31533	312
2.31900	310
2.32267	310
2.32633	310
2.33000	311
2.33367	310
2.33733	308
2.34100	306
2.34467	305
2.34833	302
2.35200	298
2.35567	296
2.35933	295
2.36300	291
2.36667	282
2.37033	274
2.37400	273
2.37767	269
2.38133	260
2.38500	248
2.38867	238
2.39233	234
2.39600	239
2.39967	248
2.40333	257
2.40700	263
2.41067	263
2.41433	259
2.41800	254
2.42167	249
2.42533	245
2.42900	245
2.43267	250
2.43633	257
2.44000	263
2.44367	268
2.44733	270
2.45100	268
2.45467	265
2.45833	262
2.46200	258
2.46567	253
2.46933	250
2.47300	246
2.47667	244
2.48033	245
2.48400	244
2.48767	243
2.49133	243
2.49500	247
2.49867	250
2.50233	253
2.50600	257
2.50967	261
2.51333	262
2.51700	260
2.52067	258
2.52433	261
2.52800	263
2.53167	262
2.53533	260
2.53900	257
2.54267	255
2.54633	254
2.55000	257
2.55367	254
2.55733	249
2.56100	243
2.56467	240
2.56833	238
2.57200	241
2.57567	243
2.57933	242
2.58300	241
2.58667	242
2.59033	243
2.59400	248
2.59767	256
2.60133	263
2.60500	266
2.60867	267
2.61233	270
2.61600	273
2.61967	275
2.62333	275
2.62700	273
2.63067	270
2.63433	266
2.63800	261
2.64167	260
2.64533	258
2.64900	261
2.65267	268
2.65633	274
2.66000	278
2.66367	278
2.66733	277
2.67100	280
2.67467	284
2.67833	285
2.68200	284
2.68567	281
2.68933	278
2.69300	274
2.69667	274
2.70033	277
2.70400	281
2.70767	285
2.71133	289
2.71500	292
2.71867	294
2.72233	294
2.72600	292
2.72967	290
2.73333	290
2.73700	294
2.74067	301
2.74433	307
2.74800	312
2.75167	313
2.75533	310
2.75900	302
2.76267	294
2.76633	289
2.77000	293
2.77367	301
2.77733	308
2.78100	312
2.78467	316
2.78833	316
2.79200	311
2.79567	303
2.79933	299
2.80300	299
2.80667	302
2.81033	308
2.81400	315
2.81767	325
2.82133	335
2.82500	338
2.82867	333
2.83233	328
2.83600	323
2.83967	317
2.84333	313
2.84700	311
2.85067	310
2.85433	312
2.85800	315
2.86167	322
2.86533	331
2.86900	338
2.87267	340
2.87633	337
2.88000	330
2.88367	327
2.88733	328
2.89100	337
2.89467	348
2.89833	357
2.90200	359
2.90567	351
2.90933	340
2.91300	331
2.91667	327
2.92033	328
2.92400	337
2.92767	345
2.93133	348
2.93500	347
2.93867	345
2.94233	343
2.94600	340
2.94967	337
2.95333	336
2.95700	337
2.96067	337
2.96433	336
2.96800	337
2.97167	340
2.97533	344
2.97900	347
2.98267	345
2.98633	343
2.99000	344
2.99367	349
2.99733	354
3.00100	359
3.00467	363
3.00833	366
3.01200	367
3.01567	364
3.01933	360
3.02300	354
3.02667	349
3.03033	347
3.03400	347
3.03767	349
3.04133	360
3.04500	372
3.04867	380
3.05233	380
3.05600	372
3.05967	361
3.06333	352
3.06700	350
3.07067	352
3.07433	355
3.07800	356
3.08167	358
3.08533	361
3.08900	362
3.09267	360
3.09633	360
3.10000	357
3.10367	354
3.10733	351
3.11100	349
3.11467	349
3.11833	352
3.12200	355
3.12567	356
3.12933	359
3.13300	361
3.13667	361
3.14033	363
3.14400	364
3.14767	360
3.15133	352
3.15500	343
3.15867	338
3.16233	336
3.16600	336
3.16967	337
3.17333	339
3.17700	344
3.18067	349
3.18433	356
3.18800	362
3.19167	367
3.19533	367
3.19900	366
3.20267	363
3.20633	361
3.21000	360
3.21367	358
3.21733	359
3.22100	360
3.22467	360
3.22833	356
3.23200	350
3.23567	346
3.23933	341
3.24300	339
3.24667	338
3.25033	341
3.25400	346
3.25767	349
3.26133	345
3.26500	339
3.26867	338
3.27233	342
3.27600	349
3.27967	354
3.28333	358
3.28700	360
3.29067	356
3.29433	350
3.29800	342
3.30167	336
3.30533	333
3.30900	330
3.31267	329
3.31633	328
3.32000	329
3.32367	332
3.32733	335
3.33100	334
3.33467	330
3.33833	328
3.34200	324
3.34567	321
3.34933	321
3.35300	327
3.35667	331
3.36033	329
3.36400	324
3.36767	320
3.37133	315
3.37500	316
3.37867	318
3.38233	322
3.38600	328
3.38967	337
3.39333	343
3.39700	342
3.40067	339
3.40433	334
3.40800	329
3.41167	327
3.41533	327
3.41900	325
3.42267	326
3.42633	328
3.43000	329
3.43367	331
3.43733	334
3.44100	335
3.44467	336
3.44833	338
3.45200	340
3.45567	343
3.45933	345
3.46300	344
3.46667	341
3.47033	338
3.47400	336
3.47767	331
3.48133	324
3.48500	319
3.48867	318
3.49233	318
3.49600	316
3.49967	313
3.50333	310
3.50700	311
3.51067	314
3.51433	319
3.51800	322
3.52167	322
3.52533	321
3.52900	318
3.53267	313
3.53633	311
3.54000	312
3.54367	311
3.54733	308
3.55100	299
3.55467	290
3.55833	285
3.56200	288
3.56567	297
3.56933	310
3.57300	321
3.57667	327
3.58033	328
3.58400	327
3.58767	327
3.59133	325
3.59500	322
3.59867	315
3.60233	309
3.60600	304
3.60967	300
3.61333	296
3.61700	291
3.62067	287
3.62433	288
3.62800	296
3.63167	303
3.63533	307
3.63900	308
3.64267	306
3.64633	303
3.65000	298
3.65367	293
3.65733	290
3.66100	287
3.66467	287
3.66833	290
3.67200	296
3.67567	297
3.67933	296
3.68300	299
3.68667	303
3.69033	309
3.69400	314
3.69767	315
3.70133	313
3.70500	310
3.70867	307
3.71233	301
3.71600	297
3.71967	297
3.72333	299
3.72700	301
3.73067	300
3.73433	298
3.73800	298
3.74167	301
3.74533	301
3.74900	300
3.75267	297
3.75633	291
3.76000	285
3.76367	281
3.76733	280
3.77100	281
3.77467	285
3.77833	286
3.78200	286
3.78567	287
3.78933	288
3.79300	289
3.79667	290
3.80033	291
3.80400	290
3.80767	283
3.81133	275
3.81500	268
3.81867	267
3.82233	269
3.82600	273
3.82967	277
3.83333	282
3.83700	282
3.84067	280
3.84433	278
3.84800	275
3.85167	270
3.85533	267
3.85900	267
3.86267	265
3.86633	260
3.87000	256
3.87367	256
3.87733	256
3.88100	256
3.88467	255
3.88833	257
3.89200	260
3.89567	263
3.89933	265
3.90300	269
3.90667	272
3.91033	273
3.91400	272
3.91767	272
3.92133	269
3.92500	264
3.92867	260
3.93233	257
3.93600	254
3.93967	251
3.94333	248
3.94700	250
3.95067	257
3.95433	263
3.95800	265
3.96167	266
3.96533	266
3.96900	264
3.97267	262
3.97633	265
3.98000	271
3.98367	276
3.98733	276
3.99100	274
3.99467	270
3.99833	267

[Chromatogram (Ch2)]
Interval(msec)	220
# of Points	1091
Start Time(min)	0.002
End Time(min)	3.998
R.Time (min)	Intensity
0.00167	0
0.00533	0
0.00900	0
0.01267	0
0.01633	0
0.02000	0
0.02367	0
0.02733	0
0.03100	-0
0.03467	-0
0.03833	-0
0.04200	-0
0.04567	0
0.04933	0
0.05300	-0
0.05667	-0
0.06033	-0
0.06400	-1
0.06767	-1
0.07133	-1
0.07500	-1
0.07867	-1
0.08233	-1
0.08600	-0
0.08967	-0
0.09333	-0
0.09700	-0
0.10067	-0
0.10433	-0
0.10800	-1
0.11167	-1
0.11533	-0
0.11900	-0
0.12267	0
0.12633	0
0.13000	0
0.13367	1
0.13733	1
0.14100	1
0.14467	1
0.14833	1
0.15200	1
0.15567	1
0.15933	1
0.16300	1
0.16667	1
0.17033	1
0.17400	1
0.17767	0
0.18133	0
0.18500	1
0.18867	1
0.19233	1
0.19600	1
0.19967	0
0.20333	0
0.20700	-0
0.21067	-0
0.21433	-1
0.21800	-1
0.22167	-1
0.22533	-1
0.22900	-1
0.23267	-1
0.23633	-1
0.24000	-1
0.24367	-1
0.24733	-1
0.25100	-1
0.25467	-1
0.25833	-1
0.26200	-1
0.26567	-1
0.26933	-1
0.27300	-1
0.27667	-1
0.28033	-1
0.28400	-2
0.28767	-2
0.29133	-2
0.29500	-2
0.29867	-2
0.30233	-2
0.30600	-2
0.30967	-2
0.31333	-2
0.31700	-2
0.32067	-2
0.32433	-2
0.32800	-2
0.33167	-2
0.33533	-1
0.33900	-1
0.34267	-1
0.34633	-1
0.35000	-0
0.35367	-0
0.35733	-0
0.36100	-0
0.36467	-0
0.36833	-0
0.37200	0
0.37567	0
0.37933	0
0.38300	0
0.38667	0
0.39033	-0
0.39400	-0
0.39767	-1
0.40133	-1
0.40500	-1
0.40867	-2
0.41233	-2
0.41600	-2
0.41967	-2
0.42333	-2
0.42700	-2
0.43067	-3
0.43433	-3
0.43800	-3
0.44167	-3
0.44533	-4
0.44900	-4
0.45267	-4
0.45633	-4
0.46000	-4
0.46367	-4
0.46733	-3
0.47100	-3
0.47467	-3
0.47833	-3
0.48200	-3
0.48567	-3
0.48933	-3
0.49300	-3
0.49667	-3
0.50033	-2
0.50400	-2
0.50767	-2
0.51133	-2
0.51500	-2
0.51867	-2
0.52233	-1
0.52600	-1
0.52967	-1
0.53333	-1
0.53700	-1
0.54067	-0
0.54433	-0
0.54800	-0
0.55167	0
0.55533	0
0.55900	0
0.56267	-0
0.56633	0
0.57000	0
0.57367	0
0.57733	0
0.58100	1
0.58467	1
0.58833	1
0.59200	1
0.59567	2
0.59933	2
0.60300	2
0.60667	2
0.61033	1
0.61400	1
0.61767	1
0.62133	1
0.62500	0
0.62867	0
0.63233	0
0.63600	0
0.63967	1
0.64333	1
0.64700	1
0.65067	1
0.65433	1
0.65800	1
0.66167	1
0.66533	1
0.66900	1
0.67267	1
0.67633	1
0.68000	1
0.68367	0
0.68733	0
0.69100	-0
0.69467	-1
0.69833	-1
0.70200	-1
0.70567	-1
0.70933	-1
0.71300	-1
0.71667	-1
0.72033	-0
0.72400	-0
0.72767	0
0.73133	0
0.73500	0
0.73867	0
0.74233	0
0.74600	0
0.74967	0
0.75333	0
0.75700	0
0.76067	0
0.76433	0
0.76800	-0
0.77167	-0
0.77533	-1
0.77900	-1
0.78267	-1
0.78633	-1
0.79000	-1
0.79367	-1
0.79733	-1
0.80100	-2
0.80467	-2
0.80833	-1
0.81200	-1
0.81567	-1
0.81933	-1
0.82300	-1
0.82667	-1
0.83033	-1
0.83400	-1
0.83767	-1
0.84133	-1
0.84500	-1
0.84867	-1
0.85233	-1
0.85600	-0
0.85967	-1
0.86333	-1
0.86700	-1
0.87067	-1
0.87433	-1
0.87800	-1
0.88167	-1
0.88533	-1
0.88900	-2
0.89267	-2
0.89633	-2
0.90000	-2
0.90367	-3
0.90733	-3
0.91100	-3
0.91467	-4
0.91833	-4
0.92200	-4
0.92567	-4
0.92933	-4
0.93300	-4
0.93667	-4
0.94033	-4
0.94400	-4
0.94767	-4
0.95133	-4
0.95500	-4
0.95867	-4
0.96233	-4
0.96600	-4
0.96967	-4
0.97333	-4
0.97700	-4
0.98067	-4
0.98433	-4
0.98800	-4
0.99167	-4
0.99533	-4
0.99900	-4
1.00267	-4
1.00633	-4
1.01000	-4
1.01367	-4
1.01733	-4
1.02100	-4
1.02467	-4
1.02833	-4
1.03200	-4
1.03567	-4
1.03933	-4
1.04300	-3
1.04667	-3
1.05033	-3
1.05400	-2
1.05767	-2
1.06133	-2
1.06500	-1
1.06867	-1
1.07233	-1
1.07600	-1
1.07967	-1
1.08333	-1
1.08700	-1
1.09067	-1
1.09433	-1
1.09800	-1
1.10167	-1
1.10533	-0
1.10900	-0
1.11267	0
1.11633	0
1.12000	0
1.12367	-0
1.12733	-0
1.13100	-0
1.13467	-1
1.13833	-1
1.14200	-1
1.14567	-1
1.14933	-1
1.15300	-2
1.15667	-2
1.16033	-2
1.16400	-2
1.16767	-3
1.17133	-3
1.17500	-4
1.17867	-4
1.18233	-4
1.18600	-5
1.18967	-5
1.19333	-5
1.19700	-5
1.20067	-4
1.20433	-4
1.20800	-4
1.21167	-4
1.21533	-4
1.21900	-4
1.22267	-3
1.22633	-3
1.23000	-3
1.23367	-2
1.23733	-2
1.24100	-1
1.24467	-1
1.24833	-1
1.25200	-1
1.25567	-0
1.25933	-0
1.26300	-1
1.26667	-1
1.27033	-0
1.27400	-1
1.27767	-1
1.28133	-1
1.28500	-1
1.28867	-1
1.29233	-0
1.29600	-0
1.29967	-1
1.30333	-1
1.30700	-1
1.31067	-1
1.31433	-1
1.31800	-1
1.32167	-2
1.32533	-2
1.32900	-2
1.33267	-2
1.33633	-2
1.34000	-2
1.34367	-2
1.34733	-2
1.35100	-2
1.35467	-2
1.35833	-2
1.36200	-1
1.36567	-1
1.36933	-2
1.37300	-2
1.37667	-2
1.38033	-2
1.38400	-2
1.38767	-2
1.39133	-2
1.39500	-2
1.39867	-2
1.40233	-2
1.40600	-2
1.40967	-1
1.41333	-1
1.41700	-1
1.42067	-1
1.42433	-1
1.42800	-1
1.43167	-1
1.43533	-1
1.43900	-1
1.44267	-1
1.44633	-1
1.45000	-1
1.45367	-1
1.45733	-1
1.46100	-1
1.46467	-1
1.46833	-1
1.47200	-1
1.47567	-1
1.47933	-2
1.48300	-2
1.48667	-2
1.49033	-2
1.49400	-2
1.49767	-2
1.50133	-2
1.50500	-2
1.50867	-2
1.51233	-2
1.51600	-2
1.51967	-2
1.52333	-2
1.52700	-2
1.53067	-2
1.53433	-2
1.53800	-2
1.54167	-2
1.54533	-2
1.54900	-2
1.55267	-2
1.55633	-2
1.56000	-2
1.56367	-2
1.56733	-2
1.57100	-3
1.57467	-3
1.57833	-3
1.58200	-3
1.58567	-3
1.58933	-3
1.59300	-4
1.59667	-4
1.60033	-5
1.60400	-6
1.60767	-8
1.61133	-9
1.61500	-11
1.61867	-13
1.62233	-15
1.62600	-18
1.62967	-20
1.63333	-23
1.63700	-26
1.64067	-29
1.64433	-32
1.64800	-35
1.65167	-39
1.65533	-42
1.65900	-45
1.66267	-49
1.66633	-53
1.67000	-57
1.67367	-61
1.67733	-66
1.68100	-71
1.68467	-75
1.68833	-79
1.69200	-83
1.69567	-86
1.69933	-89
1.70300	-91
1.70667	-93
1.71033	-95
1.71400	-96
1.71767	-98
1.72133	-99
1.72500	-100
1.72867	-102
1.73233	-103
1.73600	-103
1.73967	-104
1.74333	-105
1.74700	-105
1.75067	-105
1.75433	-106
1.75800	-106
1.76167	-107
1.76533	-107
1.76900	-107
1.77267	-107
1.77633	-108
1.78000	-108
1.78367	-108
1.78733	-108
1.79100	-108
1.79467	-108
1.79833	-107
1.80200	-106
1.80567	-106
1.80933	-105
1.81300	-105
1.81667	-105
1.82033	-106
1.82400	-106
1.82767	-106
1.83133	-107
1.83500	-107
1.83867	-106
1.84233	-106
1.84600	-106
1.84967	-106
1.85333	-106
1.85700	-106
1.86067	-107
1.86433	-107
1.86800	-107
1.87167	-107
1.87533	-107
1.87900	-107
1.88267	-106
1.88633	-106
1.89000	-106
1.89367	-105
1.89733	-105
1.90100	-105
1.90467	-105
1.90833	-105
1.91200	-105
1.91567	-104
1.91933	-103
1.92300	-103
1.92667	-102
1.93033	-102
1.93400	-101
1.93767	-102
1.94133	-102
1.94500	-102
1.94867	-103
1.95233	-103
1.95600	-103
1.95967	-102
1.96333	-102
1.96700	-101
1.97067	-101
1.97433	-101
1.97800	-101
1.98167	-101
1.98533	-101
1.98900	-101
1.99267	-101
1.99633	-101
2.00000	-101
2.00367	-100
2.00733	-99
2.01100	-98
2.01467	-97
2.01833	-96
2.02200	-96
2.02567	-95
2.02933	-95
2.03300	-94
2.03667	-94
2.04033	-94
2.04400	-94
2.04767	-94
2.05133	-93
2.05500	-93
2.05867	-93
2.06233	-93
2.06600	-92
2.06967	-92
2.07333	-92
2.07700	-91
2.08067	-91
2.08433	-91
2.08800	-91
2.09167	-91
2.09533	-91
2.09900	-92
2.10267	-91
2.10633	-91
2.11000	-91
2.11367	-91
2.11733	-91
2.12100	-91
2.12467	-90
2.12833	-89
2.13200	-88
2.13567	-87
2.13933	-86
2.14300	-86
2.14667	-86
2.15033	-86
2.15400	-85
2.15767	-85
2.16133	-84
2.16500	-84
2.16867	-84
2.17233	-84
2.17600	-84
2.17967	-84
2.18333	-85
2.18700	-85
2.19067	-85
2.19433	-85
2.19800	-85
2.20167	-84
2.20533	-84
2.20900	-83
2.21267	-82
2.21633	-81
2.22000	-80
2.22367	-80
2.22733	-79
2.23100	-79
2.23467	-79
2.23833	-80
2.24200	-80
2.24567	-81
2.24933	-81
2.25300	-81
2.25667	-80
2.26033	-79
2.26400	-78
2.26767	-77
2.27133	-77
2.27500	-76
2.27867	-76
2.28233	-76
2.28600	-77
2.28967	-77
2.29333	-78
2.29700	-78
2.30067	-78
2.30433	-78
2.30800	-78
2.31167	-77
2.31533	-76
2.31900	-75
2.32267	-75
2.32633	-74
2.33000	-73
2.33367	-72
2.33733	-71
2.34100	-71
2.34467	-71
2.34833	-70
2.35200	-70
2.35567	-69
2.35933	-69
2.36300	-68
2.36667	-66
2.37033	-64
2.37400	-62
2.37767	-59
2.38133	-56
2.38500	-53
2.38867	-49
2.39233	-45
2.39600	-41
2.39967	-36
2.40333	-32
2.40700	-28
2.41067	-23
2.41433	-19
2.41800	-16
2.42167	-13
2.42533	-10
2.42900	-8
2.43267	-6
2.43633	-4
2.44000	-3
2.44367	-1
2.44733	0
2.45100	2
2.45467	4
2.45833	5
2.46200	7
2.46567	8
2.46933	9
2.47300	10
2.47667	10
2.48033	10
2.48400	10
2.48767	10
2.49133	10
2.49500	10
2.49867	11
2.50233	11
2.50600	11
2.50967	11
2.51333	10
2.51700	10
2.52067	9
2.52433	9
2.52800	8
2.53167	8
2.53533	8
2.53900	9
2.54267	9
2.54633	9
2.55000	10
2.55367	10
2.55733	11
2.56100	11
2.56467	12
2.56833	12
2.57200	13
2.57567	14
2.57933	15
2.58300	16
2.58667	16
2.59033	17
2.59400	17
2.59767	17
2.60133	17
2.60500	17
2.60867	17
2.61233	17
2.61600	17
2.61967	17
2.62333	18
2.62700	18
2.63067	19
2.63433	20
2.63800	20
2.64167	20
2.64533	20
2.64900	20
2.65267	20
2.65633	20
2.66000	20
2.66367	20
2.66733	20
2.67100	20
2.67467	20
2.67833	21
2.68200	21
2.68567	21
2.68933	21
2.69300	21
2.69667	21
2.70033	21
2.70400	21
2.70767	21
2.71133	22
2.71500	22
2.71867	22
2.72233	23
2.72600	23
2.72967	24
2.73333	24
2.73700	25
2.74067	26
2.74433	26
2.74800	26
2.75167	26
2.75533	26
2.75900	26
2.76267	25
2.76633	25
2.77000	25
2.77367	26
2.77733	26
2.78100	26
2.78467	26
2.78833	27
2.79200	27
2.79567	27
2.79933	27
2.80300	28
2.80667	28
2.81033	28
2.81400	28
2.81767	28
2.82133	27
2.82500	27
2.82867	26
2.83233	26
2.83600	25
2.83967	25
2.84333	25
2.84700	25
2.85067	24
2.85433	24
2.85800	22
2.86167	19
2.86533	13
2.86900	4
2.87267	-8
2.87633	-26
2.88000	-48
2.88367	-75
2.88733	-107
2.89100	-145
2.89467	-188
2.89833	-235
2.90200	-286
2.90567	-341
2.90933	-398
2.91300	-458
2.91667	-519
2.92033	-581
2.92400	-642
2.92767	-703
2.93133	-763
2.93500	-819
2.93867	-871
2.94233	-923
2.94600	-978
2.94967	-1034
2.95333	-1081
2.95700	-1111
2.96067	-1117
2.96433	-1097
2.96800	-1055
2.97167	-994
2.97533	-922
2.97900	-843
2.98267	-762
2.98633	-681
2.99000	-604
2.99367	-531
2.99733	-464
3.00100	-403
3.00467	-349
3.00833	-300
3.01200	-257
3.01567	-220
3.01933	-187
3.02300	-159
3.02667	-134
3.03033	-113
3.03400	-95
3.03767	-79
3.04133	-65
3.04500	-54
3.04867	-44
3.05233	-36
3.05600	-29
3.05967	-23
3.06333	-17
3.06700	-13
3.07067	-9
3.07433	-6
3.07800	-4
3.08167	-1
3.08533	1
3.08900	2
3.09267	4
3.09633	5
3.10000	6
3.10367	7
3.10733	8
3.11100	9
3.11467	10
3.11833	11
3.12200	11
3.12567	12
3.12933	12
3.13300	13
3.13667	13
3.14033	14
3.14400	14
3.14767	15
3.15133	15
3.15500	16
3.15867	16
3.16233	16
3.16600	17
3.16967	17
3.17333	17
3.17700	18
3.18067	18
3.18433	18
3.18800	18
3.19167	19
3.19533	19
3.19900	19
3.20267	19
3.20633	20
3.21000	20
3.21367	20
3.21733	20
3.22100	20
3.22467	20
3.22833	21
3.23200	21
3.23567	21
3.23933	21
3.24300	21
3.24667	21
3.25033	21
3.25400	21
3.25767	21
3.26133	21
3.26500	21
3.26867	21
3.27233	22
3.27600	22
3.27967	22
3.28333	22
3.28700	22
3.29067	22
3.29433	22
3.29800	22
3.30167	21
3.30533	21
3.30900	21
3.31267	21
3.31633	21
3.32000	22
3.32367	22
3.32733	22
3.33100	22
3.33467	22
3.33833	22
3.34200	22
3.34567	22
3.34933	22
3.35300	23
3.35667	23
3.36033	23
3.36400	24
3.36767	24
3.37133	24
3.37500	25
3.37867	25
3.38233	25
3.38600	25
3.38967	25
3.39333	25
3.39700	25
3.40067	25
3.40433	26
3.40800	26
3.41167	26
3.41533	26
3.41900	26
3.42267	27
3.42633	27
3.43000	27
3.43367	27
3.43733	27
3.44100	27
3.44467	27
3.44833	27
3.45200	26
3.45567	26
3.45933	26
3.46300	26
3.46667	26
3.47033	26
3.47400	26
3.47767	25
3.48133	25
3.48500	26
3.48867	26
3.49233	26
3.49600	26
3.49967	26
3.50333	26
3.50700	26
3.51067	26
3.51433	27
3.51800	27
3.52167	27
3.52533	27
3.52900	27
3.53267	27
3.53633	27
3.54000	27
3.54367	27
3.54733	27
3.55100	27
3.55467	27
3.55833	27
3.56200	27
3.56567	27
3.56933	27
3.57300	27
3.57667	27
3.58033	27
3.58400	27
3.58767	27
3.59133	27
3.59500	27
3.59867	27
3.60233	27
3.60600	27
3.60967	27
3.61333	27
3.61700	27
3.62067	27
3.62433	27
3.62800	28
3.63167	27
3.63533	27
3.63900	27
3.64267	27
3.64633	27
3.65000	27
3.65367	27
3.65733	27
3.66100	26
3.66467	26
3.66833	26
3.67200	26
3.67567	26
3.67933	26
3.68300	26
3.68667	26
3.69033	26
3.69400	26
3.69767	26
3.70133	26
3.70500	26
3.70867	26
3.71233	26
3.71600	26
3.71967	26
3.72333	26
3.72700	26
3.73067	26
3.73433	26
3.73800	26
3.74167	26
3.74533	26
3.74900	25
3.75267	25
3.75633	25
3.76000	25
3.76367	25
3.76733	25
3.77100	25
3.77467	25
3.77833	25
3.78200	26
3.78567	25
3.78933	25
3.79300	25
3.79667	25
3.80033	25
3.80400	25
3.80767	25
3.81133	25
3.81500	25
3.81867	25
3.82233	25
3.82600	25
3.82967	25
3.83333	26
3.83700	26
3.84067	26
3.84433	27
3.84800	27
3.85167	27
3.85533	27
3.85900	27
3.86267	27
3.86633	27
3.87000	27
3.87367	27
3.87733	27
3.88100	27
3.88467	27
3.88833	27
3.89200	27
3.89567	27
3.89933	27
3.90300	27
3.90667	27
3.91033	27
3.91400	28
3.91767	28
3.92133	28
3.92500	28
3.92867	28
3.93233	28
3.93600	28
3.93967	27
3.94333	27
3.94700	27
3.95067	27
3.95433	27
3.95800	27
3.96167	27
3.96533	26
3.96900	26
3.97267	26
3.97633	26
3.98000	26
3.98367	26
3.98733	25
3.99100	25
3.99467	25
3.99833	25

[Chromatogram (Ch3)]
Interval(msec)	220
# of Points	1091
Start Time(min)	0.002
End Time(min)	3.998
R.Time (min)	Intensity
0.00167	0
0.00533	1
0.00900	2
0.01267	2
0.01633	2
0.02000	2
0.02367	0
0.02733	-3
0.03100	-5
0.03467	-5
0.03833	-5
0.04200	-5
0.04567	-3
0.04933	-1
0.05300	-2
0.05667	-3
0.06033	-2
0.06400	-1
0.06767	0
0.07133	1
0.07500	-1
0.07867	0
0.08233	1
0.08600	2
0.08967	2
0.09333	1
0.09700	0
0.10067	-0
0.10433	-2
0.10800	-4
0.11167	-4
0.11533	-1
0.11900	1
0.12267	2
0.12633	3
0.13000	4
0.13367	6
0.13733	7
0.14100	7
0.14467	6
0.14833	4
0.15200	2
0.15567	0
0.15933	0
0.16300	1
0.16667	1
0.17033	1
0.17400	3
0.17767	5
0.18133	6
0.18500	5
0.18867	4
0.19233	3
0.19600	3
0.19967	4
0.20333	3
0.20700	1
0.21067	0
0.21433	1
0.21800	4
0.22167	6
0.22533	6
0.22900	4
0.23267	1
0.23633	-1
0.24000	-2
0.24367	-1
0.24733	1
0.25100	3
0.25467	2
0.25833	-1
0.26200	-1
0.26567	0
0.26933	2
0.27300	4
0.27667	3
0.28033	1
0.28400	3
0.28767	5
0.29133	6
0.29500	7
0.29867	8
0.30233	7
0.30600	8
0.30967	8
0.31333	7
0.31700	7
0.32067	7
0.32433	9
0.32800	8
0.33167	8
0.33533	9
0.33900	10
0.34267	9
0.34633	10
0.35000	9
0.35367	7
0.35733	8
0.36100	9
0.36467	9
0.36833	7
0.37200	7
0.37567	7
0.37933	8
0.38300	8
0.38667	9
0.39033	9
0.39400	8
0.39767	8
0.40133	7
0.40500	7
0.40867	7
0.41233	6
0.41600	5
0.41967	5
0.42333	5
0.42700	6
0.43067	7
0.43433	10
0.43800	12
0.44167	13
0.44533	13
0.44900	13
0.45267	11
0.45633	8
0.46000	6
0.46367	5
0.46733	5
0.47100	4
0.47467	4
0.47833	4
0.48200	4
0.48567	5
0.48933	6
0.49300	9
0.49667	9
0.50033	7
0.50400	7
0.50767	7
0.51133	7
0.51500	6
0.51867	7
0.52233	9
0.52600	11
0.52967	10
0.53333	9
0.53700	7
0.54067	7
0.54433	8
0.54800	8
0.55167	6
0.55533	4
0.55900	5
0.56267	7
0.56633	8
0.57000	8
0.57367	7
0.57733	7
0.58100	7
0.58467	6
0.58833	5
0.59200	6
0.59567	8
0.59933	10
0.60300	10
0.60667	8
0.61033	6
0.61400	6
0.61767	7
0.62133	6
0.62500	5
0.62867	5
0.63233	6
0.63600	9
0.63967	9
0.64333	7
0.64700	4
0.65067	5
0.65433	4
0.65800	6
0.66167	8
0.66533	10
0.66900	12
0.67267	11
0.67633	12
0.68000	12
0.68367	12
0.68733	14
0.69100	15
0.69467	17
0.69833	17
0.70200	17
0.70567	16
0.70933	16
0.71300	14
0.71667	12
0.72033	13
0.72400	15
0.72767	17
0.73133	17
0.73500	16
0.73867	15
0.74233	13
0.74600	13
0.74967	12
0.75333	11
0.75700	10
0.76067	11
0.76433	14
0.76800	15
0.77167	14
0.77533	14
0.77900	13
0.78267	14
0.78633	13
0.79000	14
0.79367	15
0.79733	17
0.80100	17
0.80467	17
0.80833	17
0.81200	16
0.81567	17
0.81933	17
0.82300	15
0.82667	15
0.83033	14
0.83400	11
0.83767	11
0.84133	11
0.84500	11
0.84867	14
0.85233	15
0.85600	16
0.85967	18
0.86333	18
0.86700	18
0.87067	17
0.87433	16
0.87800	15
0.88167	15
0.88533	14
0.88900	13
0.89267	13
0.89633	13
0.90000	15
0.90367	15
0.90733	15
0.91100	14
0.91467	16
0.91833	18
0.92200	20
0.92567	19
0.92933	18
0.93300	18
0.93667	17
0.94033	18
0.94400	20
0.94767	22
0.95133	24
0.95500	23
0.95867	19
0.96233	16
0.96600	15
0.96967	15
0.97333	16
0.97700	17
0.98067	16
0.98433	17
0.98800	19
0.99167	21
0.99533	20
0.99900	20
1.00267	18
1.00633	17
1.01000	16
1.01367	15
1.01733	14
1.02100	15
1.02467	16
1.02833	16
1.03200	16
1.03567	13
1.03933	11
1.04300	12
1.04667	13
1.05033	15
1.05400	16
1.05767	19
1.06133	21
1.06500	22
1.06867	21
1.07233	21
1.07600	20
1.07967	20
1.08333	20
1.08700	19
1.09067	17
1.09433	19
1.09800	20
1.10167	21
1.10533	21
1.10900	21
1.11267	20
1.11633	19
1.12000	19
1.12367	20
1.12733	21
1.13100	21
1.13467	20
1.13833	20
1.14200	20
1.14567	19
1.14933	18
1.15300	19
1.15667	19
1.16033	18
1.16400	18
1.16767	19
1.17133	19
1.17500	17
1.17867	15
1.18233	12
1.18600	13
1.18967	15
1.19333	17
1.19700	17
1.20067	17
1.20433	17
1.20800	19
1.21167	18
1.21533	18
1.21900	18
1.22267	19
1.22633	18
1.23000	16
1.23367	16
1.23733	18
1.24100	21
1.24467	21
1.24833	20
1.25200	18
1.25567	18
1.25933	17
1.26300	16
1.26667	15
1.27033	14
1.27400	14
1.27767	14
1.28133	15
1.28500	15
1.28867	16
1.29233	15
1.29600	15
1.29967	17
1.30333	16
1.30700	15
1.31067	14
1.31433	12
1.31800	11
1.32167	14
1.32533	18
1.32900	19
1.33267	21
1.33633	21
1.34000	19
1.34367	18
1.34733	18
1.35100	17
1.35467	16
1.35833	17
1.36200	18
1.36567	16
1.36933	12
1.37300	10
1.37667	7
1.38033	8
1.38400	10
1.38767	10
1.39133	12
1.39500	13
1.39867	14
1.40233	15
1.40600	17
1.40967	18
1.41333	18
1.41700	19
1.42067	20
1.42433	20
1.42800	21
1.43167	22
1.43533	21
1.43900	21
1.44267	22
1.44633	20
1.45000	19
1.45367	19
1.45733	19
1.46100	17
1.46467	15
1.46833	14
1.47200	13
1.47567	13
1.47933	14
1.48300	17
1.48667	18
1.49033	19
1.49400	19
1.49767	19
1.50133	20
1.50500	20
1.50867	18
1.51233	17
1.51600	16
1.51967	15
1.52333	14
1.52700	14
1.53067	15
1.53433	17
1.53800	15
1.54167	14
1.54533	12
1.54900	11
1.55267	9
1.55633	9
1.56000	10
1.56367	11
1.56733	12
1.57100	12
1.57467	14
1.57833	17
1.58200	17
1.58567	19
1.58933	18
1.59300	15
1.59667	12
1.60033	10
1.60400	9
1.60767	10
1.61133	12
1.61500	15
1.61867	17
1.62233	19
1.62600	21
1.62967	20
1.63333	20
1.63700	19
1.64067	18
1.64433	19
1.64800	20
1.65167	18
1.65533	19
1.65900	21
1.66267	21
1.66633	21
1.67000	22
1.67367	23
1.67733	24
1.68100	24
1.68467	23
1.68833	24
1.69200	23
1.69567	23
1.69933	24
1.70300	26
1.70667	28
1.71033	30
1.71400	31
1.71767	32
1.72133	34
1.72500	34
1.72867	34
1.73233	34
1.73600	34
1.73967	35
1.74333	33
1.74700	30
1.75067	29
1.75433	30
1.75800	32
1.76167	34
1.76533	35
1.76900	37
1.77267	34
1.77633	33
1.78000	33
1.78367	35
1.78733	36
1.79100	36
1.79467	37
1.79833	36
1.80200	36
1.80567	34
1.80933	33
1.81300	34
1.81667	35
1.82033	37
1.82400	37
1.82767	39
1.83133	40
1.83500	44
1.83867	47
1.84233	50
1.84600	50
1.84967	49
1.85333	48
1.85700	48
1.86067	47
1.86433	47
1.86800	48
1.87167	49
1.87533	50
1.87900	49
1.88267	48
1.88633	50
1.89000	51
1.89367	50
1.89733	50
1.90100	52
1.90467	53
1.90833	52
1.91200	50
1.91567	51
1.91933	55
1.92300	59
1.92667	59
1.93033	59
1.93400	60
1.93767	61
1.94133	62
1.94500	63
1.94867	61
1.95233	60
1.95600	62
1.95967	64
1.96333	64
1.96700	66
1.97067	69
1.97433	71
1.97800	71
1.98167	72
1.98533	73
1.98900	73
1.99267	73
1.99633	71
2.00000	73
2.00367	74
2.00733	76
2.01100	78
2.01467	79
2.01833	82
2.02200	83
2.02567	84
2.02933	85
2.03300	88
2.03667	88
2.04033	87
2.04400	87
2.04767	88
2.05133	89
2.05500	92
2.05867	96
2.06233	96
2.06600	95
2.06967	95
2.07333	97
2.07700	99
2.08067	101
2.08433	102
2.08800	102
2.09167	100
2.09533	101
2.09900	102
2.10267	103
2.10633	104
2.11000	105
2.11367	106
2.11733	107
2.12100	107
2.12467	106
2.12833	106
2.13200	105
2.13567	108
2.13933	112
2.14300	115
2.14667	116
2.15033	115
2.15400	115
2.15767	116
2.16133	117
2.16500	117
2.16867	119
2.17233	118
2.17600	115
2.17967	116
2.18333	118
2.18700	122
2.19067	123
2.19433	124
2.19800	124
2.20167	128
2.20533	132
2.20900	132
2.21267	133
2.21633	135
2.22000	137
2.22367	138
2.22733	139
2.23100	140
2.23467	141
2.23833	141
2.24200	140
2.24567	138
2.24933	137
2.25300	135
2.25667	134
2.26033	135
2.26400	136
2.26767	140
2.27133	143
2.27500	146
2.27867	146
2.28233	145
2.28600	146
2.28967	147
2.29333	149
2.29700	149
2.30067	149
2.30433	148
2.30800	147
2.31167	147
2.31533	149
2.31900	152
2.32267	154
2.32633	157
2.33000	159
2.33367	160
2.33733	159
2.34100	158
2.34467	158
2.34833	159
2.35200	161
2.35567	160
2.35933	160
2.36300	161
2.36667	163
2.37033	165
2.37400	164
2.37767	162
2.38133	160
2.38500	157
2.38867	152
2.39233	150
2.39600	149
2.39967	151
2.40333	152
2.40700	153
2.41067	153
2.41433	154
2.41800	156
2.42167	157
2.42533	157
2.42900	158
2.43267	159
2.43633	163
2.44000	168
2.44367	205
2.44733	276
2.45100	345
2.45467	391
2.45833	404
2.46200	398
2.46567	387
2.46933	379
2.47300	367
2.47667	348
2.48033	322
2.48400	296
2.48767	272
2.49133	253
2.49500	242
2.49867	236
2.50233	235
2.50600	241
2.50967	248
2.51333	252
2.51700	251
2.52067	244
2.52433	234
2.52800	224
2.53167	213
2.53533	201
2.53900	189
2.54267	179
2.54633	170
2.55000	163
2.55367	159
2.55733	156
2.56100	156
2.56467	158
2.56833	160
2.57200	162
2.57567	166
2.57933	169
2.58300	173
2.58667	179
2.59033	185
2.59400	193
2.59767	201
2.60133	207
2.60500	210
2.60867	209
2.61233	208
2.61600	205
2.61967	199
2.62333	192
2.62700	184
2.63067	175
2.63433	165
2.63800	156
2.64167	146
2.64533	140
2.64900	134
2.65267	127
2.65633	121
2.66000	118
2.66367	116
2.66733	114
2.67100	111
2.67467	109
2.67833	109
2.68200	108
2.68567	110
2.68933	112
2.69300	112
2.69667	113
2.70033	112
2.70400	115
2.70767	120
2.71133	123
2.71500	124
2.71867	122
2.72233	122
2.72600	124
2.72967	126
2.73333	126
2.73700	126
2.74067	129
2.74433	132
2.74800	135
2.75167	137
2.75533	138
2.75900	141
2.76267	144
2.76633	147
2.77000	150
2.77367	153
2.77733	155
2.78100	157
2.78467	161
2.78833	163
2.79200	165
2.79567	168
2.79933	168
2.80300	168
2.80667	169
2.81033	171
2.81400	172
2.81767	175
2.82133	177
2.82500	179
2.82867	181
2.83233	190
2.83600	209
2.83967	250
2.84333	331
2.84700	473
2.85067	695
2.85433	1016
2.85800	1431
2.86167	1932
2.86533	2484
2.86900	3047
2.87267	3574
2.87633	4020
2.88000	4351
2.88367	4547
2.88733	4604
2.89100	4537
2.89467	4365
2.89833	4119
2.90200	3827
2.90567	3507
2.90933	3177
2.91300	2853
2.91667	2546
2.92033	2263
2.92400	2006
2.92767	1772
2.93133	1563
2.93500	1379
2.93867	1218
2.94233	1075
2.94600	947
2.94967	837
2.95333	744
2.95700	662
2.96067	592
2.96433	532
2.96800	482
2.97167	440
2.97533	402
2.97900	368
2.98267	337
2.98633	311
2.99000	290
2.99367	271
2.99733	254
3.00100	239
3.00467	230
3.00833	224
3.01200	217
3.01567	208
3.01933	201
3.02300	195
3.02667	192
3.03033	189
3.03400	186
3.03767	184
3.04133	183
3.04500	180
3.04867	178
3.05233	178
3.05600	177
3.05967	176
3.06333	174
3.06700	175
3.07067	177
3.07433	177
3.07800	176
3.08167	176
3.08533	175
3.08900	175
3.09267	175
3.09633	174
3.10000	174
3.10367	174
3.10733	177
3.11100	179
3.11467	178
3.11833	178
3.12200	180
3.12567	181
3.12933	182
3.13300	184
3.13667	185
3.14033	184
3.14400	183
3.14767	185
3.15133	188
3.15500	192
3.15867	194
3.16233	194
3.16600	194
3.16967	193
3.17333	192
3.17700	192
3.18067	195
3.18433	198
3.18800	203
3.19167	206
3.19533	208
3.19900	210
3.20267	210
3.20633	211
3.21000	211
3.21367	210
3.21733	212
3.22100	214
3.22467	216
3.22833	219
3.23200	222
3.23567	225
3.23933	228
3.24300	232
3.24667	232
3.25033	228
3.25400	224
3.25767	221
3.26133	220
3.26500	222
3.26867	227
3.27233	234
3.27600	241
3.27967	251
3.28333	264
3.28700	278
3.29067	294
3.29433	311
3.29800	330
3.30167	353
3.30533	378
3.30900	402
3.31267	424
3.31633	443
3.32000	460
3.32367	473
3.32733	486
3.33100	499
3.33467	510
3.33833	517
3.34200	523
3.34567	528
3.34933	531
3.35300	533
3.35667	535
3.36033	537
3.36400	539
3.36767	541
3.37133	541
3.37500	543
3.37867	544
3.38233	542
3.38600	538
3.38967	538
3.39333	539
3.39700	538
3.40067	536
3.40433	536
3.40800	534
3.41167	533
3.41533	530
3.41900	528
3.42267	525
3.42633	522
3.43000	522
3.43367	524
3.43733	525
3.44100	524
3.44467	524
3.44833	524
3.45200	522
3.45567	520
3.45933	517
3.46300	516
3.46667	517
3.47033	517
3.47400	515
3.47767	516
3.48133	516
3.48500	515
3.48867	515
3.49233	514
3.49600	514
3.49967	514
3.50333	513
3.50700	513
3.51067	511
3.51433	510
3.51800	510
3.52167	508
3.52533	506
3.52900	504
3.53267	501
3.53633	500
3.54000	500
3.54367	500
3.54733	502
3.55100	503
3.55467	501
3.55833	498
3.56200	493
3.56567	490
3.56933	489
3.57300	489
3.57667	491
3.58033	493
3.58400	490
3.58767	486
3.59133	483
3.59500	482
3.59867	481
3.60233	480
3.60600	478
3.60967	478
3.61333	477
3.61700	476
3.62067	476
3.62433	477
3.62800	479
3.63167	482
3.63533	483
3.63900	480
3.64267	476
3.64633	472
3.65000	470
3.65367	468
3.65733	467
3.66100	465
3.66467	463
3.66833	463
3.67200	463
3.67567	463
3.67933	464
3.68300	464
3.68667	463
3.69033	462
3.69400	462
3.69767	459
3.70133	455
3.70500	454
3.70867	453
3.71233	450
3.71600	447
3.71967	444
3.72333	443
3.72700	443
3.73067	443
3.73433	442
3.73800	440
3.74167	440
3.74533	440
3.74900	440
3.75267	441
3.75633	441
3.76000	439
3.76367	436
3.76733	436
3.77100	437
3.77467	438
3.77833	437
3.78200	437
3.78567	435
3.78933	434
3.79300	432
3.79667	430
3.80033	429
3.80400	431
3.80767	432
3.81133	432
3.81500	432
3.81867	432
3.82233	432
3.82600	430
3.82967	429
3.83333	428
3.83700	425
3.84067	424
3.84433	424
3.84800	425
3.85167	425
3.85533	425
3.85900	425
3.86267	424
3.86633	422
3.87000	421
3.87367	421
3.87733	419
3.88100	418
3.88467	417
3.88833	415
3.89200	413
3.89567	412
3.89933	414
3.90300	416
3.90667	414
3.91033	410
3.91400	406
3.91767	406
3.92133	408
3.92500	410
3.92867	411
3.93233	411
3.93600	411
3.93967	412
3.94333	411
3.94700	408
3.95067	407
3.95433	406
3.95800	405
3.96167	404
3.96533	405
3.96900	404
3.97267	405
3.97633	406
3.98000	407
3.98367	408
3.98733	408
3.99100	408
3.99467	406
3.99833	400

[Status Trace (Column Oven Temperature)]
Interval(msec)	1000
# of Points	240
Start Time(min)	0.011
End Time(min)	3.994
Intensity Units	
Intensity Multiplier	1
R.Time (min)	Intensity
0.01070	34.98
0.02737	34.99
0.04403	34.99
0.06070	35.00
0.07737	35.00
0.09403	35.00
0.11070	35.00
0.12737	35.00
0.14403	35.00
0.16070	35.00
0.17737	35.00
0.19403	35.00
0.21070	34.99
0.22737	35.00
0.24403	35.00
0.26070	35.00
0.27737	35.00
0.29403	35.00
0.31070	35.01
0.32737	35.02
0.34403	35.01
0.36070	35.00
0.37737	35.00
0.39403	35.01
0.41070	35.02
0.42737	35.04
0.44403	35.04
0.46070	35.04
0.47737	35.06
0.49403	35.07
0.51070	35.07
0.52737	35.06
0.54403	35.06
0.56070	35.05
0.57737	35.03
0.59403	35.02
0.61070	35.01
0.62737	35.00
0.64403	35.00
0.66070	34.99
0.67737	34.99
0.69403	35.00
0.71070	34.99
0.72737	34.99
0.74403	34.98
0.76070	34.98
0.77737	34.98
0.79403	34.98
0.81070	34.97
0.82737	34.98
0.84403	34.97
0.86070	34.97
0.87737	34.97
0.89403	34.96
0.91070	34.98
0.92737	34.98
0.94403	34.99
0.96070	34.99
0.97737	34.99
0.99403	35.00
1.01070	35.02
1.02737	35.02
1.04403	35.02
1.06070	35.01
1.07737	35.00
1.09403	34.99
1.11070	34.98
1.12737	34.98
1.14403	34.99
1.16070	34.99
1.17737	35.00
1.19403	35.01
1.21070	35.02
1.22737	35.00
1.24403	34.98
1.26070	34.98
1.27737	34.98
1.29403	34.99
1.31070	35.00
1.32737	35.00
1.34403	35.00
1.36070	35.00
1.37737	35.00
1.39403	35.00
1.41070	34.99
1.42737	34.98
1.44403	34.98
1.46070	34.98
1.47737	34.99
1.49403	34.98
1.51070	34.98
1.52737	34.98
1.54403	34.99
1.56070	34.98
1.57737	34.99
1.59403	35.01
1.61070	35.08
1.62737	35.20
1.64403	35.39
1.66070	35.64
1.67737	35.97
1.69403	36.34
1.71070	36.68
1.72737	37.04
1.74403	37.37
1.76070	37.72
1.77737	38.07
1.79403	38.39
1.81070	38.70
1.82737	39.05
1.84403	39.37
1.86070	39.71
1.87737	40.04
1.89403	40.37
1.91070	40.68
1.92737	40.99
1.94403	41.33
1.96070	41.65
1.97737	41.99
1.99403	42.33
2.01070	42.64
2.02737	42.96
2.04403	43.28
2.06070	43.61
2.07737	43.92
2.09403	44.26
2.11070	44.60
2.12737	44.92
2.14403	45.23
2.16070	45.56
2.17737	45.88
2.19403	46.22
2.21070	46.53
2.22737	46.85
2.24403	47.22
2.26070	47.54
2.27737	47.85
2.29403	48.22
2.31070	48.55
2.32737	48.86
2.34403	49.19
2.36070	49.50
2.37737	49.67
2.39403	49.71
2.41070	49.70
2.42737	49.71
2.44403	49.73
2.46070	49.72
2.47737	49.74
2.49403	49.75
2.51070	49.76
2.52737	49.77
2.54403	49.78
2.56070	49.79
2.57737	49.79
2.59403	49.80
2.61070	49.82
2.62737	49.80
2.64403	49.80
2.66070	49.82
2.67737	49.82
2.69403	49.84
2.71070	49.86
2.72737	49.85
2.74403	49.85
2.76070	49.86
2.77737	49.87
2.79403	49.86
2.81070	49.84
2.82737	49.87
2.84403	49.89
2.86070	49.89
2.87737	49.89
2.89403	49.90
2.91070	49.90
2.92737	49.91
2.94403	49.91
2.96070	49.92
2.97737	49.93
2.99403	49.94
3.01070	49.94
3.02737	49.94
3.04403	49.95
3.06070	49.96
3.07737	49.97
3.09403	49.99
3.11070	50.00
3.12737	50.02
3.14403	50.03
3.16070	50.04
3.17737	50.04
3.19403	50.03
3.21070	50.04
3.22737	50.04
3.24403	50.05
3.26070	50.06
3.27737	50.07
3.29403	50.09
3.31070	50.10
3.32737	50.11
3.34403	50.11
3.36070	50.09
3.37737	50.09
3.39403	50.09
3.41070	50.09
3.42737	50.07
3.44403	50.07
3.46070	50.07
3.47737	50.07
3.49403	50.06
3.51070	50.06
3.52737	50.05
3.54403	50.05
3.56070	50.05
3.57737	50.05
3.59403	50.05
3.61070	50.05
3.62737	50.05
3.64403	50.05
3.66070	50.05
3.67737	50.05
3.69403	50.06
3.71070	50.05
3.72737	50.06
3.74403	50.06
3.76070	50.06
3.77737	50.07
3.79403	50.08
3.81070	50.08
3.82737	50.07
3.84403	50.07
3.86070	50.07
3.87737	50.06
3.89403	50.06
3.91070	50.05
3.92737	50.05
3.94403	50.04
3.96070	50.04
3.97737	50.05
3.99403	50.06

[Status Trace (Injection Unit Temperature)]
Interval(msec)	1000
# of Points	240
Start Time(min)	0.011
End Time(min)	3.994
Intensity Units	
Intensity Multiplier	1
R.Time (min)	Intensity
0.01070	99.98
0.02737	99.98
0.04403	99.98
0.06070	99.98
0.07737	99.98
0.09403	99.98
0.11070	99.98
0.12737	99.98
0.14403	99.99
0.16070	99.98
0.17737	99.98
0.19403	99.99
0.21070	99.98
0.22737	99.98
0.24403	99.98
0.26070	99.99
0.27737	99.99
0.29403	99.98
0.31070	99.99
0.32737	99.98
0.34403	99.99
0.36070	99.98
0.37737	99.99
0.39403	99.98
0.41070	99.98
0.42737	99.98
0.44403	99.99
0.46070	99.98
0.47737	99.98
0.49403	99.98
0.51070	99.98
0.52737	99.98
0.54403	99.98
0.56070	99.98
0.57737	99.98
0.59403	99.98
0.61070	99.98
0.62737	99.98
0.64403	99.98
0.66070	99.98
0.67737	99.98
0.69403	99.98
0.71070	99.98
0.72737	99.99
0.74403	99.98
0.76070	99.98
0.77737	99.98
0.79403	99.98
0.81070	99.98
0.82737	99.98
0.84403	99.98
0.86070	99.98
0.87737	99.98
0.89403	99.98
0.91070	99.98
0.92737	99.98
0.94403	99.98
0.96070	99.98
0.97737	99.98
0.99403	99.98
1.01070	99.98
1.02737	99.98
1.04403	99.98
1.06070	99.98
1.07737	99.98
1.09403	99.98
1.11070	99.98
1.12737	99.98
1.14403	99.98
1.16070	99.98
1.17737	99.98
1.19403	99.98
1.21070	99.98
1.22737	99.98
1.24403	99.98
1.26070	99.99
1.27737	99.98
1.29403	99.98
1.31070	99.98
1.32737	99.98
1.34403	99.99
1.36070	99.98
1.37737	99.98
1.39403	99.98
1.41070	99.98
1.42737	99.98
1.44403	99.98
1.46070	99.98
1.47737	99.98
1.49403	99.99
1.51070	99.98
1.52737	99.98
1.54403	99.98
1.56070	99.99
1.57737	99.99
1.59403	99.99
1.61070	99.99
1.62737	99.99
1.64403	99.98
1.66070	99.99
1.67737	99.99
1.69403	99.98
1.71070	99.99
1.72737	99.99
1.74403	99.98
1.76070	99.99
1.77737	99.98
1.79403	99.98
1.81070	99.98
1.82737	99.99
1.84403	99.98
1.86070	99.98
1.87737	99.98
1.89403	99.98
1.91070	99.98
1.92737	99.98
1.94403	99.98
1.96070	99.98
1.97737	99.98
1.99403	99.98
2.01070	99.98
2.02737	99.98
2.04403	99.97
2.06070	99.97
2.07737	99.97
2.09403	99.97
2.11070	99.97
2.12737	99.97
2.14403	99.97
2.16070	99.96
2.17737	99.97
2.19403	99.97
2.21070	99.97
2.22737	99.96
2.24403	99.96
2.26070	99.96
2.27737	99.96
2.29403	99.96
2.31070	99.96
2.32737	99.96
2.34403	99.96
2.36070	99.96
2.37737	99.96
2.39403	99.96
2.41070	99.96
2.42737	99.96
2.44403	99.96
2.46070	99.96
2.47737	99.96
2.49403	99.96
2.51070	99.96
2.52737	99.96
2.54403	99.97
2.56070	99.97
2.57737	99.97
2.59403	99.97
2.61070	99.97
2.62737	99.97
2.64403	99.98
2.66070	99.98
2.67737	99.97
2.69403	99.98
2.71070	99.98
2.72737	99.98
2.74403	99.98
2.76070	99.98
2.77737	99.99
2.79403	99.99
2.81070	99.99
2.82737	100.00
2.84403	100.00
2.86070	100.00
2.87737	100.00
2.89403	100.00
2.91070	100.01
2.92737	100.01
2.94403	100.01
2.96070	100.01
2.97737	100.01
2.99403	100.01
3.01070	100.02
3.02737	100.02
3.04403	100.02
3.06070	100.02
3.07737	100.02
3.09403	100.02
3.11070	100.02
3.12737	100.02
3.14403	100.02
3.16070	100.02
3.17737	100.03
3.19403	100.03
3.21070	100.03
3.22737	100.03
3.24403	100.03
3.26070	100.03
3.27737	100.03
3.29403	100.03
3.31070	100.03
3.32737	100.03
3.34403	100.03
3.36070	100.03
3.37737	100.04
3.39403	100.04
3.41070	100.04
3.42737	100.04
3.44403	100.04
3.46070	100.04
3.47737	100.04
3.49403	100.04
3.51070	100.04
3.52737	100.04
3.54403	100.04
3.56070	100.04
3.57737	100.04
3.59403	100.04
3.61070	100.04
3.62737	100.04
3.64403	100.04
3.66070	100.04
3.67737	100.04
3.69403	100.05
3.71070	100.05
3.72737	100.05
3.74403	100.05
3.76070	100.05
3.77737	100.05
3.79403	100.05
3.81070	100.05
3.82737	100.05
3.84403	100.05
3.86070	100.05
3.87737	100.05
3.89403	100.05
3.91070	100.05
3.92737	100.05
3.94403	100.05
3.96070	100.05
3.97737	100.05
3.99403	100.05

[Status Trace (Carrier Gas Pressure)]
Interval(msec)	1000
# of Points	240
Start Time(min)	0.011
End Time(min)	3.994
Intensity Units	
Intensity Multiplier	1
R.Time (min)	Intensity
0.01070	58.00
0.02737	55.10
0.04403	57.56
0.06070	59.69
0.07737	58.98
0.09403	58.00
0.11070	57.99
0.12737	58.01
0.14403	58.01
0.16070	58.00
0.17737	58.00
0.19403	58.00
0.21070	58.00
0.22737	58.00
0.24403	58.00
0.26070	58.00
0.27737	58.00
0.29403	58.00
0.31070	58.00
0.32737	58.00
0.34403	58.00
0.36070	58.00
0.37737	58.00
0.39403	58.00
0.41070	58.00
0.42737	58.00
0.44403	58.00
0.46070	58.00
0.47737	58.00
0.49403	58.00
0.51070	58.00
0.52737	58.00
0.54403	58.00
0.56070	58.00
0.57737	58.00
0.59403	58.00
0.61070	58.00
0.62737	58.00
0.64403	58.00
0.66070	58.00
0.67737	58.00
0.69403	58.00
0.71070	58.00
0.72737	58.00
0.74403	58.00
0.76070	58.00
0.77737	58.00
0.79403	58.00
0.81070	58.00
0.82737	58.00
0.84403	58.00
0.86070	58.00
0.87737	58.00
0.89403	58.00
0.91070	58.00
0.92737	58.00
0.94403	58.00
0.96070	58.00
0.97737	58.00
0.99403	58.00
1.01070	58.00
1.02737	58.00
1.04403	58.00
1.06070	58.00
1.07737	58.00
1.09403	58.00
1.11070	58.00
1.12737	58.00
1.14403	58.00
1.16070	58.00
1.17737	58.00
1.19403	58.00
1.21070	58.00
1.22737	58.00
1.24403	58.00
1.26070	58.00
1.27737	58.00
1.29403	58.00
1.31070	58.00
1.32737	58.00
1.34403	58.00
1.36070	58.00
1.37737	58.00
1.39403	58.00
1.41070	58.00
1.42737	58.00
1.44403	58.00
1.46070	58.00
1.47737	58.00
1.49403	58.00
1.51070	58.00
1.52737	58.00
1.54403	58.00
1.56070	58.00
1.57737	58.00
1.59403	58.00
1.61070	58.00
1.62737	58.00
1.64403	58.00
1.66070	58.00
1.67737	58.01
1.69403	58.00
1.71070	58.00
1.72737	58.00
1.74403	58.00
1.76070	58.00
1.77737	58.00
1.79403	58.00
1.81070	58.00
1.82737	58.00
1.84403	58.00
1.86070	58.00
1.87737	58.00
1.89403	58.00
1.91070	58.00
1.92737	58.00
1.94403	58.00
1.96070	58.00
1.97737	58.00
1.99403	58.00
2.01070	58.00
2.02737	58.00
2.04403	58.00
2.06070	58.00
2.07737	58.00
2.09403	58.00
2.11070	58.00
2.12737	58.00
2.14403	58.00
2.16070	58.00
2.17737	58.00
2.19403	58.00
2.21070	58.00
2.22737	58.00
2.24403	58.00
2.26070	58.00
2.27737	58.00
2.29403	58.00
2.31070	58.00
2.32737	58.00
2.34403	58.00
2.36070	58.00
2.37737	57.99
2.39403	57.99
2.41070	57.99
2.42737	58.00
2.44403	58.00
2.46070	58.00
2.47737	58.00
2.49403	58.00
2.51070	57.99
2.52737	57.99
2.54403	58.00
2.56070	58.00
2.57737	58.00
2.59403	58.00
2.61070	58.00
2.62737	58.00
2.64403	58.00
2.66070	58.00
2.67737	58.00
2.69403	58.00
2.71070	58.00
2.72737	58.00
2.74403	58.00
2.76070	58.00
2.77737	58.00
2.79403	58.00
2.81070	58.00
2.82737	58.00
2.84403	58.00
2.86070	58.00
2.87737	58.00
2.89403	58.00
2.91070	58.00
2.92737	58.00
2.94403	58.00
2.96070	58.00
2.97737	58.00
2.99403	58.00
3.01070	58.00
3.02737	58.00
3.04403	58.00
3.06070	58.00
3.07737	58.00
3.09403	58.00
3.11070	58.00
3.12737	58.00
3.14403	58.00
3.16070	58.00
3.17737	58.00
3.19403	58.00
3.21070	58.00
3.22737	58.00
3.24403	58.00
3.26070	58.00
3.27737	58.00
3.29403	58.00
3.31070	58.00
3.32737	58.00
3.34403	58.00
3.36070	58.00
3.37737	58.00
3.39403	58.00
3.41070	58.00
3.42737	58.00
3.44403	58.00
3.46070	58.00
3.47737	58.00
3.49403	58.00
3.51070	58.00
3.52737	58.00
3.54403	58.00
3.56070	58.00
3.57737	58.00
3.59403	58.00
3.61070	58.00
3.62737	58.00
3.64403	58.00
3.66070	58.00
3.67737	58.00
3.69403	58.00
3.71070	58.00
3.72737	58.00
3.74403	58.00
3.76070	58.00
3.77737	58.00
3.79403	58.00
3.81070	58.00
3.82737	58.00
3.84403	58.00
3.86070	58.00
3.87737	58.00
3.89403	58.00
3.91070	58.00
3.92737	58.00
3.94403	58.00
3.96070	58.00
3.97737	58.00
3.99403	58.00

[Status Trace (Carrier Gas Flow)]
Interval(msec)	1000
# of Points	240
Start Time(min)	0.011
End Time(min)	3.994
Intensity Units	
Intensity Multiplier	1
R.Time (min)	Intensity
0.01070	34.53
0.02737	34.54
0.04403	34.54
0.06070	34.52
0.07737	34.51
0.09403	34.52
0.11070	34.52
0.12737	34.52
0.14403	34.51
0.16070	34.52
0.17737	34.51
0.19403	34.52
0.21070	34.52
0.22737	34.51
0.24403	34.52
0.26070	34.53
0.27737	34.52
0.29403	34.51
0.31070	34.51
0.32737	34.51
0.34403	34.52
0.36070	34.51
0.37737	34.52
0.39403	34.52
0.41070	34.52
0.42737	34.52
0.44403	34.52
0.46070	34.52
0.47737	34.52
0.49403	34.51
0.51070	34.53
0.52737	34.52
0.54403	34.51
0.56070	34.52
0.57737	34.52
0.59403	34.52
0.61070	34.51
0.62737	34.52
0.64403	34.52
0.66070	34.51
0.67737	34.52
0.69403	34.52
0.71070	34.51
0.72737	34.51
0.74403	34.51
0.76070	34.52
0.77737	34.52
0.79403	34.52
0.81070	34.51
0.82737	34.52
0.84403	34.51
0.86070	34.52
0.87737	34.52
0.89403	34.53
0.91070	34.52
0.92737	34.52
0.94403	34.52
0.96070	34.52
0.97737	34.51
0.99403	34.52
1.01070	34.52
1.02737	34.52
1.04403	34.52
1.06070	34.51
1.07737	34.52
1.09403	34.52
1.11070	34.51
1.12737	34.52
1.14403	34.52
1.16070	34.52
1.17737	34.52
1.19403	34.52
1.21070	34.52
1.22737	34.52
1.24403	34.52
1.26070	34.52
1.27737	34.52
1.29403	34.52
1.31070	34.52
1.32737	34.52
1.34403	34.52
1.36070	34.51
1.37737	34.52
1.39403	34.52
1.41070	34.52
1.42737	34.52
1.44403	34.52
1.46070	34.52
1.47737	34.51
1.49403	34.52
1.51070	34.52
1.52737	34.52
1.54403	34.52
1.56070	34.52
1.57737	34.52
1.59403	34.52
1.61070	34.52
1.62737	34.52
1.64403	34.52
1.66070	34.52
1.67737	34.51
1.69403	34.52
1.71070	34.52
1.72737	34.52
1.74403	34.51
1.76070	34.52
1.77737	34.52
1.79403	34.52
1.81070	34.52
1.82737	34.52
1.84403	34.52
1.86070	34.52
1.87737	34.52
1.89403	34.52
1.91070	34.52
1.92737	34.52
1.94403	34.52
1.96070	34.52
1.97737	34.52
1.99403	34.51
2.01070	34.52
2.02737	34.52
2.04403	34.52
2.06070	34.52
2.07737	34.52
2.09403	34.52
2.11070	34.52
2.12737	34.51
2.14403	34.52
2.16070	34.52
2.17737	34.51
2.19403	34.51
2.21070	34.52
2.22737	34.52
2.24403	34.52
2.26070	34.52
2.27737	34.52
2.29403	34.52
2.31070	34.52
2.32737	34.52
2.34403	34.52
2.36070	34.52
2.37737	34.52
2.39403	34.52
2.41070	34.52
2.42737	34.52
2.44403	34.52
2.46070	34.52
2.47737	34.51
2.49403	34.51
2.51070	34.52
2.52737	34.52
2.54403	34.52
2.56070	34.51
2.57737	34.52
2.59403	34.52
2.61070	34.52
2.62737	34.52
2.64403	34.52
2.66070	34.52
2.67737	34.52
2.69403	34.51
2.71070	34.52
2.72737	34.52
2.74403	34.52
2.76070	34.51
2.77737	34.52
2.79403	34.52
2.81070	34.51
2.82737	34.52
2.84403	34.52
2.86070	34.52
2.87737	34.52
2.89403	34.52
2.91070	34.51
2.92737	34.52
2.94403	34.52
2.96070	34.52
2.97737	34.52
2.99403	34.52
3.01070	34.52
3.02737	34.52
3.04403	34.52
3.06070	34.52
3.07737	34.52
3.09403	34.52
3.11070	34.52
3.12737	34.52
3.14403	34.52
3.16070	34.52
3.17737	34.52
3.19403	34.52
3.21070	34.52
3.22737	34.52
3.24403	34.52
3.26070	34.52
3.27737	34.52
3.29403	34.52
3.31070	34.52
3.32737	34.52
3.34403	34.52
3.36070	34.52
3.37737	34.52
3.39403	34.52
3.41070	34.52
3.42737	34.52
3.44403	34.52
3.46070	34.52
3.47737	34.52
3.49403	34.52
3.51070	34.52
3.52737	34.52
3.54403	34.52
3.56070	34.52
3.57737	34.52
3.59403	34.52
3.61070	34.52
3.62737	34.52
3.64403	34.52
3.66070	34.52
3.67737	34.52
3.69403	34.52
3.71070	34.52
3.72737	34.52
3.74403	34.52
3.76070	34.52
3.77737	34.52
3.79403	34.52
3.81070	34.52
3.82737	34.51
3.84403	34.52
3.86070	34.52
3.87737	34.52
3.89403	34.51
3.91070	34.52
3.92737	34.52
3.94403	34.52
3.96070	34.51
3.97737	34.52
3.99403	34.52

[Status Trace (Column Flow)]
Interval(msec)	1000
# of Points	240
Start Time(min)	0.011
End Time(min)	3.994
Intensity Units	
Intensity Multiplier	1
R.Time (min)	Intensity
0.01070	5.52
0.02737	5.18
0.04403	5.46
0.06070	5.71
0.07737	5.63
0.09403	5.52
0.11070	5.51
0.12737	5.52
0.14403	5.52
0.16070	5.52
0.17737	5.52
0.19403	5.52
0.21070	5.52
0.22737	5.52
0.24403	5.52
0.26070	5.52
0.27737	5.52
0.29403	5.52
0.31070	5.52
0.32737	5.52
0.34403	5.52
0.36070	5.52
0.37737	5.52
0.39403	5.52
0.41070	5.52
0.42737	5.51
0.44403	5.51
0.46070	5.51
0.47737	5.51
0.49403	5.51
0.51070	5.51
0.52737	5.51
0.54403	5.51
0.56070	5.51
0.57737	5.51
0.59403	5.52
0.61070	5.52
0.62737	5.52
0.64403	5.52
0.66070	5.52
0.67737	5.52
0.69403	5.52
0.71070	5.52
0.72737	5.52
0.74403	5.52
0.76070	5.52
0.77737	5.52
0.79403	5.52
0.81070	5.52
0.82737	5.52
0.84403	5.52
0.86070	5.52
0.87737	5.52
0.89403	5.52
0.91070	5.52
0.92737	5.52
0.94403	5.52
0.96070	5.52
0.97737	5.52
0.99403	5.52
1.01070	5.52
1.02737	5.52
1.04403	5.52
1.06070	5.52
1.07737	5.52
1.09403	5.52
1.11070	5.52
1.12737	5.52
1.14403	5.52
1.16070	5.52
1.17737	5.52
1.19403	5.52
1.21070	5.52
1.22737	5.52
1.24403	5.52
1.26070	5.52
1.27737	5.52
1.29403	5.52
1.31070	5.52
1.32737	5.52
1.34403	5.52
1.36070	5.52
1.37737	5.52
1.39403	5.52
1.41070	5.52
1.42737	5.52
1.44403	5.52
1.46070	5.52
1.47737	5.52
1.49403	5.52
1.51070	5.52
1.52737	5.52
1.54403	5.52
1.56070	5.52
1.57737	5.52
1.59403	5.52
1.61070	5.51
1.62737	5.51
1.64403	5.50
1.66070	5.50
1.67737	5.49
1.69403	5.47
1.71070	5.46
1.72737	5.45
1.74403	5.44
1.76070	5.43
1.77737	5.42
1.79403	5.41
1.81070	5.40
1.82737	5.39
1.84403	5.38
1.86070	5.37
1.87737	5.36
1.89403	5.35
1.91070	5.34
1.92737	5.33
1.94403	5.32
1.96070	5.31
1.97737	5.30
1.99403	5.29
2.01070	5.28
2.02737	5.27
2.04403	5.26
2.06070	5.25
2.07737	5.25
2.09403	5.24
2.11070	5.23
2.12737	5.22
2.14403	5.21
2.16070	5.20
2.17737	5.19
2.19403	5.18
2.21070	5.17
2.22737	5.16
2.24403	5.15
2.26070	5.14
2.27737	5.13
2.29403	5.12
2.31070	5.11
2.32737	5.10
2.34403	5.10
2.36070	5.09
2.37737	5.08
2.39403	5.08
2.41070	5.08
2.42737	5.08
2.44403	5.08
2.46070	5.08
2.47737	5.08
2.49403	5.08
2.51070	5.08
2.52737	5.08
2.54403	5.08
2.56070	5.08
2.57737	5.08
2.59403	5.08
2.61070	5.08
2.62737	5.08
2.64403	5.08
2.66070	5.08
2.67737	5.08
2.69403	5.08
2.71070	5.08
2.72737	5.08
2.74403	5.08
2.76070	5.08
2.77737	5.08
2.79403	5.08
2.81070	5.08
2.82737	5.08
2.84403	5.08
2.86070	5.08
2.87737	5.08
2.89403	5.08
2.91070	5.08
2.92737	5.08
2.94403	5.08
2.96070	5.08
2.97737	5.08
2.99403	5.07
3.01070	5.07
3.02737	5.07
3.04403	5.07
3.06070	5.07
3.07737	5.07
3.09403	5.07
3.11070	5.07
3.12737	5.07
3.14403	5.07
3.16070	5.07
3.17737	5.07
3.19403	5.07
3.21070	5.07
3.22737	5.07
3.24403	5.07
3.26070	5.07
3.27737	5.07
3.29403	5.07
3.31070	5.07
3.32737	5.07
3.34403	5.07
3.36070	5.07
3.37737	5.07
3.39403	5.07
3.41070	5.07
3.42737	5.07
3.44403	5.07
3.46070	5.07
3.47737	5.07
3.49403	5.07
3.51070	5.07
3.52737	5.07
3.54403	5.07
3.56070	5.07
3.57737	5.07
3.59403	5.07
3.61070	5.07
3.62737	5.07
3.64403	5.07
3.66070	5.07
3.67737	5.07
3.69403	5.07
3.71070	5.07
3.72737	5.07
3.74403	5.07
3.76070	5.07
3.77737	5.07
3.79403	5.07
3.81070	5.07
3.82737	5.07
3.84403	5.07
3.86070	5.07
3.87737	5.07
3.89403	5.07
3.91070	5.07
3.92737	5.07
3.94403	5.07
3.96070	5.07
3.97737	5.07
3.99403	5.07

[Status Trace (Linear Velocity)]
Interval(msec)	1000
# of Points	240
Start Time(min)	0.011
End Time(min)	3.994
Intensity Units	
Intensity Multiplier	1
R.Time (min)	Intensity
0.01070	39.02
0.02737	37.11
0.04403	38.73
0.06070	40.12
0.07737	39.65
0.09403	39.02
0.11070	39.01
0.12737	39.02
0.14403	39.02
0.16070	39.02
0.17737	39.02
0.19403	39.02
0.21070	39.02
0.22737	39.02
0.24403	39.02
0.26070	39.02
0.27737	39.02
0.29403	39.02
0.31070	39.02
0.32737	39.01
0.34403	39.01
0.36070	39.01
0.37737	39.02
0.39403	39.01
0.41070	39.01
0.42737	39.01
0.44403	39.01
0.46070	39.01
0.47737	39.01
0.49403	39.01
0.51070	39.01
0.52737	39.01
0.54403	39.01
0.56070	39.01
0.57737	39.01
0.59403	39.01
0.61070	39.01
0.62737	39.02
0.64403	39.02
0.66070	39.02
0.67737	39.02
0.69403	39.02
0.71070	39.02
0.72737	39.02
0.74403	39.02
0.76070	39.02
0.77737	39.02
0.79403	39.02
0.81070	39.02
0.82737	39.02
0.84403	39.02
0.86070	39.02
0.87737	39.02
0.89403	39.02
0.91070	39.02
0.92737	39.02
0.94403	39.02
0.96070	39.02
0.97737	39.02
0.99403	39.01
1.01070	39.01
1.02737	39.01
1.04403	39.01
1.06070	39.01
1.07737	39.02
1.09403	39.02
1.11070	39.02
1.12737	39.02
1.14403	39.02
1.16070	39.02
1.17737	39.02
1.19403	39.01
1.21070	39.01
1.22737	39.01
1.24403	39.02
1.26070	39.02
1.27737	39.02
1.29403	39.02
1.31070	39.02
1.32737	39.02
1.34403	39.02
1.36070	39.01
1.37737	39.02
1.39403	39.02
1.41070	39.02
1.42737	39.02
1.44403	39.02
1.46070	39.02
1.47737	39.02
1.49403	39.02
1.51070	39.02
1.52737	39.02
1.54403	39.02
1.56070	39.02
1.57737	39.02
1.59403	39.02
1.61070	39.01
1.62737	39.00
1.64403	38.98
1.66070	38.96
1.67737	38.93
1.69403	38.89
1.71070	38.85
1.72737	38.82
1.74403	38.79
1.76070	38.76
1.77737	38.72
1.79403	38.69
1.81070	38.66
1.82737	38.63
1.84403	38.60
1.86070	38.57
1.87737	38.54
1.89403	38.51
1.91070	38.48
1.92737	38.45
1.94403	38.42
1.96070	38.39
1.97737	38.36
1.99403	38.32
2.01070	38.29
2.02737	38.27
2.04403	38.24
2.06070	38.21
2.07737	38.18
2.09403	38.15
2.11070	38.12
2.12737	38.09
2.14403	38.06
2.16070	38.03
2.17737	38.00
2.19403	37.97
2.21070	37.94
2.22737	37.91
2.24403	37.88
2.26070	37.85
2.27737	37.82
2.29403	37.79
2.31070	37.76
2.32737	37.73
2.34403	37.70
2.36070	37.68
2.37737	37.66
2.39403	37.65
2.41070	37.65
2.42737	37.66
2.44403	37.65
2.46070	37.65
2.47737	37.65
2.49403	37.65
2.51070	37.65
2.52737	37.64
2.54403	37.65
2.56070	37.65
2.57737	37.65
2.59403	37.65
2.61070	37.65
2.62737	37.65
2.64403	37.65
2.66070	37.65
2.67737	37.65
2.69403	37.65
2.71070	37.64
2.72737	37.64
2.74403	37.65
2.76070	37.64
2.77737	37.64
2.79403	37.64
2.81070	37.65
2.82737	37.64
2.84403	37.64
2.86070	37.64
2.87737	37.64
2.89403	37.64
2.91070	37.64
2.92737	37.64
2.94403	37.64
2.96070	37.64
2.97737	37.64
2.99403	37.64
3.01070	37.64
3.02737	37.64
3.04403	37.64
3.06070	37.63
3.07737	37.63
3.09403	37.63
3.11070	37.63
3.12737	37.63
3.14403	37.63
3.16070	37.63
3.17737	37.63
3.19403	37.63
3.21070	37.63
3.22737	37.63
3.24403	37.63
3.26070	37.63
3.27737	37.62
3.29403	37.62
3.31070	37.62
3.32737	37.62
3.34403	37.62
3.36070	37.62
3.37737	37.62
3.39403	37.62
3.41070	37.62
3.42737	37.62
3.44403	37.63
3.46070	37.63
3.47737	37.63
3.49403	37.63
3.51070	37.63
3.52737	37.63
3.54403	37.63
3.56070	37.63
3.57737	37.63
3.59403	37.63
3.61070	37.63
3.62737	37.63
3.64403	37.63
3.66070	37.63
3.67737	37.63
3.69403	37.63
3.71070	37.63
3.72737	37.63
3.74403	37.63
3.76070	37.63
3.77737	37.63
3.79403	37.62
3.81070	37.62
3.82737	37.62
3.84403	37.62
3.86070	37.63
3.87737	37.63
3.89403	37.63
3.91070	37.63
3.92737	37.63
3.94403	37.63
3.96070	37.63
3.97737	37.63
3.99403	37.63

