[Header]
Application Name	LabSolutions
Version	5.110
Data File Name	C:\Users\User\Desktop\Junior\UIC Prairie Sampling\3.23.23\032323_062.gcd
Output Date	5/24/2023
Output Time	10:27:39 AM

[File Information]
Type	Data File
Generated	5/23/2023 10:27:58 PM
Generated by	System Administrator
Modified	5/23/2023 10:34:50 PM
Modified by	System Administrator

[Sample Information]
Operator Name	System Administrator
Acquired	5/23/2023 10:30:50 PM
Sample Type	0:Unknown
Level	0
Sample Name	062
Sample ID	062
ISTD Amount1	1
ISTD Amount2	1
ISTD Amount3	1
ISTD Amount4	1
ISTD Amount5	1
ISTD Amount6	1
ISTD Amount7	1
ISTD Amount8	1
ISTD Amount9	1
ISTD Amount10	1
ISTD Amount11	1
ISTD Amount12	1
ISTD Amount13	1
ISTD Amount14	1
ISTD Amount15	1
ISTD Amount16	1
ISTD Amount17	1
ISTD Amount18	1
ISTD Amount19	1
ISTD Amount20	1
ISTD Amount21	1
ISTD Amount22	1
ISTD Amount23	1
ISTD Amount24	1
ISTD Amount25	1
ISTD Amount26	1
ISTD Amount27	1
ISTD Amount28	1
ISTD Amount29	1
ISTD Amount30	1
ISTD Amount31	1
ISTD Amount32	1
Sample Amount	1
Dilution Factor	1
Vial#	61
Injection Volume	1
Injection Count	1
Bar Code	

[Original Files]
Data File	C:\Users\User\Desktop\GC Analyses\Jack\Nachusa Grasslands Sampling\20220924\t2\032323_062.gcd
Method File	C:\LabSolutions\Data\GHG_4min_2022\ghg3_togas_w_acet_4 min_new_int.gcm
Batch File	C:\LabSolutions\Data\AutoSamplerTesting\032323.gcb
Report Format File	c:\LabSolutions\System\DEFAULT.lsr

[File Description]


[Configuration]
Instrument Name	C0B7VH3-Instrument1
Instrument #	1
Line #	1
# of Detectors	3
Detector ID	DET#1	DET#2	DET#3
Detector Name	FID	PTCD	ECD
# of Channels	1	1	1

[Peak Table(Ch1)]
# of Peaks	3
Peak#	R.Time	I.Time	F.Time	Area	Height	A/H	Conc.	Mark	ID#	Name	k'	Plate #	Plate Ht.	Tailing	Resolution	Sep.Factor	Area Ratio	Height Ratio	Conc. %	Norm Conc.
1	1.479	1.435	1.527	641	322	1.994	0.000	   	1	CO	0.000	11053	13.571	0.997	0.000	0.000	0	0	0.000	0.000
2	1.564	1.527	1.641	19537	9874	1.979	95.248	   	2	CH4	0.057	11354	13.212	1.259	1.467	0.000	0	0	19.768	19.768
3	1.993	1.945	2.469	2005898	960533	2.088	386.573	   	3	CO2	0.347	17092	8.776	1.253	7.170	6.087	0	0	80.232	80.232

[Peak Table(Ch2)]
# of Peaks	0

[Peak Table(Ch3)]
# of Peaks	5
Peak#	R.Time	I.Time	F.Time	Area	Height	A/H	Conc.	Mark	ID#	Name	k'	Plate #	Plate Ht.	Tailing	Resolution	Sep.Factor	Area Ratio	Height Ratio	Conc. %	Norm Conc.
1	2.458	2.337	2.506	867	298	2.913	0.000	   			0.000	14115	10.627	0.000	0.000	0.000	0	0	0.000	0.000
2	2.521	2.506	2.568	360	142	2.536	0.000	 V 			0.025	4739	31.653	0.000	0.544	0.000	0	0	0.000	0.000
3	2.616	2.568	2.671	375	103	3.637	0.000	 V 			0.064	9060	16.556	0.000	0.744	2.529	0	0	0.000	0.000
4	2.891	2.704	3.012	52163	13808	3.778	0.772	   	1	N2O	0.176	13100	11.450	1.531	2.607	2.744	0	0	100.000	100.000
5	3.232	3.012	3.995	14373	451	31.845	0.000	 V 	2	SF6	0.315	281	534.080	0.000	0.782	1.788	0	0	0.000	0.000

[Compound Results(Ch1)]
# of IDs	6
ID#	Name	R.Time	Area	Height	Conc.	Curve	3rd	2nd	1st	Constant	Area Ratio	Height Ratio	Conc. %	Norm Conc.
1	CO	1.479	641	322	0.000	Linear	0.000000e+00	0.000000e+00	0.000000e+00	0.000000e+00	0	0	0.000	0.000
2	CH4	1.564	19537	9874	95.248	Linear	0.000000e+00	0.000000e+00	2.051179e+002	0.000000e+00	0	0	19.768	19.768
3	CO2	1.993	2005898	960533	386.573	Linear	0.000000e+00	0.000000e+00	5.188919e+003	0.000000e+00	0	0	80.232	80.232
4	Ethylene	0.000	0	0	0.000	Linear	0.000000e+00	0.000000e+00	0.000000e+00	0.000000e+00	0	0	0.000	0.000
5	Acetylene	0.000	0	0	0.000	Linear	0.000000e+00	0.000000e+00	0.000000e+00	0.000000e+00	0	0	0.000	0.000
6	Ethane	0.000	0	0	0.000	Linear	0.000000e+00	0.000000e+00	0.000000e+00	0.000000e+00	0	0	0.000	0.000

[Compound Results(Ch2)]
# of IDs	5
ID#	Name	R.Time	Area	Height	Conc.	Curve	3rd	2nd	1st	Constant	Area Ratio	Height Ratio	Conc. %	Norm Conc.
1	Hydrogen	0.000	0	0	0.000	Linear	0.000000e+00	0.000000e+00	0.000000e+00	0.000000e+00	0	0	0.000	0.000
2	Oxygen	0.000	0	0	0.000	Linear	0.000000e+00	0.000000e+00	0.000000e+00	0.000000e+00	0	0	0.000	0.000
3	Nitrogen	0.000	0	0	0.000	Linear	0.000000e+00	0.000000e+00	0.000000e+00	0.000000e+00	0	0	0.000	0.000
4	Methane	0.000	0	0	0.000	Linear	0.000000e+00	0.000000e+00	0.000000e+00	0.000000e+00	0	0	0.000	0.000
5	Carbon Monoxide	0.000	0	0	0.000	Linear	0.000000e+00	0.000000e+00	0.000000e+00	0.000000e+00	0	0	0.000	0.000

[Compound Results(Ch3)]
# of IDs	2
ID#	Name	R.Time	Area	Height	Conc.	Curve	3rd	2nd	1st	Constant	Area Ratio	Height Ratio	Conc. %	Norm Conc.
1	N2O	2.891	52163	13808	0.772	Linear	0.000000e+00	0.000000e+00	6.759880e+004	0.000000e+00	0	0	100.000	100.000
2	SF6	3.232	14373	451	0.000	Linear	0.000000e+00	0.000000e+00	0.000000e+00	0.000000e+00	0	0	0.000	0.000

[Group Results(Ch1)]
# of Groups	0

[Group Results(Ch2)]
# of Groups	0

[Group Results(Ch3)]
# of Groups	0

[Chromatogram (Ch1)]
Interval(msec)	220
# of Points	1091
Start Time(min)	0.002
End Time(min)	3.998
R.Time (min)	Intensity
0.00167	30
0.00533	33
0.00900	36
0.01267	43
0.01633	52
0.02000	56
0.02367	52
0.02733	43
0.03100	35
0.03467	33
0.03833	34
0.04200	37
0.04567	40
0.04933	43
0.05300	47
0.05667	46
0.06033	42
0.06400	38
0.06767	38
0.07133	40
0.07500	43
0.07867	49
0.08233	55
0.08600	58
0.08967	57
0.09333	53
0.09700	51
0.10067	50
0.10433	46
0.10800	44
0.11167	42
0.11533	40
0.11900	38
0.12267	35
0.12633	31
0.13000	27
0.13367	29
0.13733	32
0.14100	33
0.14467	35
0.14833	37
0.15200	39
0.15567	42
0.15933	45
0.16300	49
0.16667	53
0.17033	53
0.17400	51
0.17767	46
0.18133	38
0.18500	29
0.18867	25
0.19233	24
0.19600	28
0.19967	33
0.20333	39
0.20700	41
0.21067	38
0.21433	32
0.21800	24
0.22167	17
0.22533	12
0.22900	8
0.23267	4
0.23633	2
0.24000	2
0.24367	5
0.24733	10
0.25100	12
0.25467	11
0.25833	10
0.26200	7
0.26567	4
0.26933	6
0.27300	9
0.27667	14
0.28033	18
0.28400	22
0.28767	27
0.29133	30
0.29500	31
0.29867	27
0.30233	23
0.30600	20
0.30967	21
0.31333	25
0.31700	32
0.32067	36
0.32433	37
0.32800	36
0.33167	40
0.33533	45
0.33900	47
0.34267	46
0.34633	44
0.35000	41
0.35367	36
0.35733	26
0.36100	17
0.36467	11
0.36833	9
0.37200	10
0.37567	10
0.37933	11
0.38300	17
0.38667	25
0.39033	31
0.39400	38
0.39767	44
0.40133	44
0.40500	37
0.40867	31
0.41233	30
0.41600	32
0.41967	34
0.42333	36
0.42700	36
0.43067	37
0.43433	40
0.43800	44
0.44167	46
0.44533	47
0.44900	46
0.45267	43
0.45633	35
0.46000	25
0.46367	18
0.46733	12
0.47100	7
0.47467	4
0.47833	2
0.48200	2
0.48567	8
0.48933	15
0.49300	17
0.49667	14
0.50033	12
0.50400	16
0.50767	21
0.51133	26
0.51500	29
0.51867	33
0.52233	39
0.52600	43
0.52967	44
0.53333	39
0.53700	29
0.54067	15
0.54433	-1
0.54800	-12
0.55167	-20
0.55533	-24
0.55900	-17
0.56267	-8
0.56633	-1
0.57000	4
0.57367	10
0.57733	16
0.58100	22
0.58467	29
0.58833	35
0.59200	38
0.59567	35
0.59933	30
0.60300	26
0.60667	20
0.61033	16
0.61400	17
0.61767	20
0.62133	19
0.62500	14
0.62867	8
0.63233	3
0.63600	-1
0.63967	-4
0.64333	-2
0.64700	5
0.65067	12
0.65433	16
0.65800	19
0.66167	21
0.66533	23
0.66900	27
0.67267	31
0.67633	34
0.68000	28
0.68367	13
0.68733	-6
0.69100	-22
0.69467	-29
0.69833	-31
0.70200	-27
0.70567	-20
0.70933	-10
0.71300	-1
0.71667	2
0.72033	1
0.72400	-1
0.72767	1
0.73133	4
0.73500	8
0.73867	7
0.74233	6
0.74600	2
0.74967	-2
0.75333	2
0.75700	6
0.76067	6
0.76433	5
0.76800	4
0.77167	2
0.77533	-0
0.77900	0
0.78267	2
0.78633	2
0.79000	-0
0.79367	-3
0.79733	-4
0.80100	-2
0.80467	5
0.80833	12
0.81200	16
0.81567	14
0.81933	8
0.82300	-1
0.82667	-7
0.83033	-3
0.83400	4
0.83767	10
0.84133	12
0.84500	13
0.84867	16
0.85233	15
0.85600	11
0.85967	7
0.86333	2
0.86700	-3
0.87067	-6
0.87433	-10
0.87800	-11
0.88167	-5
0.88533	2
0.88900	4
0.89267	3
0.89633	3
0.90000	5
0.90367	6
0.90733	6
0.91100	3
0.91467	1
0.91833	0
0.92200	2
0.92567	3
0.92933	3
0.93300	1
0.93667	-2
0.94033	-7
0.94400	-12
0.94767	-14
0.95133	-12
0.95500	-11
0.95867	-8
0.96233	-1
0.96600	6
0.96967	13
0.97333	16
0.97700	18
0.98067	18
0.98433	15
0.98800	9
0.99167	4
0.99533	5
0.99900	8
1.00267	10
1.00633	10
1.01000	11
1.01367	14
1.01733	20
1.02100	24
1.02467	23
1.02833	18
1.03200	12
1.03567	6
1.03933	2
1.04300	-2
1.04667	-7
1.05033	-10
1.05400	-7
1.05767	-2
1.06133	0
1.06500	-2
1.06867	-7
1.07233	-12
1.07600	-17
1.07967	-17
1.08333	-14
1.08700	-11
1.09067	-12
1.09433	-12
1.09800	-9
1.10167	-4
1.10533	-2
1.10900	-3
1.11267	-3
1.11633	-1
1.12000	-2
1.12367	-4
1.12733	-4
1.13100	-4
1.13467	-6
1.13833	-9
1.14200	-11
1.14567	-15
1.14933	-17
1.15300	-19
1.15667	-18
1.16033	-15
1.16400	-11
1.16767	-5
1.17133	-1
1.17500	0
1.17867	-1
1.18233	-3
1.18600	-5
1.18967	-8
1.19333	-10
1.19700	-11
1.20067	-11
1.20433	-10
1.20800	-8
1.21167	-8
1.21533	-11
1.21900	-13
1.22267	-12
1.22633	-10
1.23000	-9
1.23367	-6
1.23733	-1
1.24100	3
1.24467	5
1.24833	4
1.25200	-1
1.25567	-4
1.25933	-8
1.26300	-9
1.26667	-8
1.27033	-4
1.27400	2
1.27767	6
1.28133	7
1.28500	8
1.28867	7
1.29233	7
1.29600	5
1.29967	2
1.30333	-2
1.30700	-6
1.31067	-10
1.31433	-15
1.31800	-21
1.32167	-26
1.32533	-28
1.32900	-26
1.33267	-22
1.33633	-18
1.34000	-14
1.34367	-11
1.34733	-10
1.35100	-10
1.35467	-9
1.35833	-3
1.36200	1
1.36567	-1
1.36933	-3
1.37300	-1
1.37667	4
1.38033	11
1.38400	16
1.38767	18
1.39133	14
1.39500	6
1.39867	-7
1.40233	-15
1.40600	-15
1.40967	-13
1.41333	-17
1.41700	-24
1.42067	-31
1.42433	-35
1.42800	-36
1.43167	-32
1.43533	-19
1.43900	5
1.44267	33
1.44633	33
1.45000	13
1.45367	8
1.45733	29
1.46100	65
1.46467	108
1.46833	162
1.47200	222
1.47567	275
1.47933	300
1.48300	288
1.48667	249
1.49033	197
1.49400	147
1.49767	106
1.50133	75
1.50500	48
1.50867	28
1.51233	15
1.51600	4
1.51967	-6
1.52333	-16
1.52700	-25
1.53067	-20
1.53433	57
1.53800	393
1.54167	1270
1.54533	2789
1.54900	4694
1.55267	6578
1.55633	8152
1.56000	9276
1.56367	9847
1.56733	9731
1.57100	8878
1.57467	7462
1.57833	5826
1.58200	4284
1.58567	3007
1.58933	2040
1.59300	1353
1.59667	880
1.60033	565
1.60400	359
1.60767	225
1.61133	136
1.61500	80
1.61867	46
1.62233	30
1.62600	20
1.62967	9
1.63333	-7
1.63700	-23
1.64067	-33
1.64433	-35
1.64800	-32
1.65167	-26
1.65533	-24
1.65900	-23
1.66267	-25
1.66633	-27
1.67000	-28
1.67367	-33
1.67733	-41
1.68100	-45
1.68467	-43
1.68833	-38
1.69200	-32
1.69567	-24
1.69933	-19
1.70300	-16
1.70667	-16
1.71033	-20
1.71400	-30
1.71767	-41
1.72133	-48
1.72500	-48
1.72867	-40
1.73233	-29
1.73600	-19
1.73967	-16
1.74333	-21
1.74700	-31
1.75067	-38
1.75433	-40
1.75800	-42
1.76167	-47
1.76533	-51
1.76900	-56
1.77267	-60
1.77633	-60
1.78000	-58
1.78367	-54
1.78733	-50
1.79100	-44
1.79467	-41
1.79833	-43
1.80200	-47
1.80567	-47
1.80933	-43
1.81300	-38
1.81667	-35
1.82033	-33
1.82400	-32
1.82767	-34
1.83133	-34
1.83500	-34
1.83867	-35
1.84233	-37
1.84600	-41
1.84967	-45
1.85333	-48
1.85700	-48
1.86067	-46
1.86433	-42
1.86800	-39
1.87167	-39
1.87533	-41
1.87900	-41
1.88267	-40
1.88633	-39
1.89000	-35
1.89367	-33
1.89733	-34
1.90100	-36
1.90467	-40
1.90833	-40
1.91200	-38
1.91567	-36
1.91933	-36
1.92300	-35
1.92667	-36
1.93033	-35
1.93400	-30
1.93767	-25
1.94133	-21
1.94500	-15
1.94867	16
1.95233	236
1.95600	1530
1.95967	7245
1.96333	26178
1.96700	74154
1.97067	168089
1.97433	312064
1.97800	489177
1.98167	669272
1.98533	822040
1.98900	923909
1.99267	960551
1.99633	929060
2.00000	838904
2.00367	709909
2.00733	566476
2.01100	430103
2.01467	314170
2.01833	223339
2.02200	156230
2.02567	108632
2.02933	75775
2.03300	53461
2.03667	38422
2.04033	28288
2.04400	21415
2.04767	16693
2.05133	13393
2.05500	11037
2.05867	9310
2.06233	8013
2.06600	7015
2.06967	6224
2.07333	5585
2.07700	5056
2.08067	4613
2.08433	4237
2.08800	3915
2.09167	3636
2.09533	3394
2.09900	3178
2.10267	2987
2.10633	2817
2.11000	2661
2.11367	2517
2.11733	2385
2.12100	2265
2.12467	2155
2.12833	2054
2.13200	1962
2.13567	1878
2.13933	1803
2.14300	1732
2.14667	1663
2.15033	1599
2.15400	1538
2.15767	1480
2.16133	1429
2.16500	1379
2.16867	1328
2.17233	1280
2.17600	1240
2.17967	1205
2.18333	1167
2.18700	1130
2.19067	1099
2.19433	1071
2.19800	1045
2.20167	1020
2.20533	993
2.20900	969
2.21267	947
2.21633	929
2.22000	913
2.22367	891
2.22733	865
2.23100	833
2.23467	801
2.23833	774
2.24200	754
2.24567	740
2.24933	729
2.25300	713
2.25667	693
2.26033	672
2.26400	657
2.26767	644
2.27133	633
2.27500	623
2.27867	616
2.28233	610
2.28600	602
2.28967	595
2.29333	587
2.29700	580
2.30067	571
2.30433	562
2.30800	551
2.31167	540
2.31533	529
2.31900	517
2.32267	506
2.32633	498
2.33000	492
2.33367	488
2.33733	484
2.34100	480
2.34467	475
2.34833	471
2.35200	469
2.35567	463
2.35933	454
2.36300	443
2.36667	432
2.37033	424
2.37400	420
2.37767	421
2.38133	423
2.38500	419
2.38867	411
2.39233	402
2.39600	397
2.39967	396
2.40333	394
2.40700	394
2.41067	394
2.41433	393
2.41800	388
2.42167	380
2.42533	370
2.42900	361
2.43267	357
2.43633	355
2.44000	352
2.44367	350
2.44733	349
2.45100	349
2.45467	352
2.45833	354
2.46200	352
2.46567	346
2.46933	342
2.47300	338
2.47667	337
2.48033	341
2.48400	345
2.48767	344
2.49133	340
2.49500	334
2.49867	327
2.50233	321
2.50600	313
2.50967	305
2.51333	300
2.51700	298
2.52067	296
2.52433	294
2.52800	293
2.53167	291
2.53533	289
2.53900	286
2.54267	282
2.54633	280
2.55000	279
2.55367	278
2.55733	279
2.56100	277
2.56467	278
2.56833	282
2.57200	292
2.57567	302
2.57933	305
2.58300	298
2.58667	285
2.59033	276
2.59400	271
2.59767	265
2.60133	259
2.60500	256
2.60867	258
2.61233	264
2.61600	265
2.61967	260
2.62333	254
2.62700	253
2.63067	255
2.63433	254
2.63800	253
2.64167	255
2.64533	258
2.64900	264
2.65267	269
2.65633	268
2.66000	263
2.66367	259
2.66733	264
2.67100	275
2.67467	282
2.67833	279
2.68200	273
2.68567	269
2.68933	264
2.69300	256
2.69667	251
2.70033	246
2.70400	242
2.70767	237
2.71133	235
2.71500	236
2.71867	238
2.72233	233
2.72600	225
2.72967	218
2.73333	217
2.73700	226
2.74067	238
2.74433	247
2.74800	251
2.75167	253
2.75533	255
2.75900	251
2.76267	247
2.76633	243
2.77000	239
2.77367	242
2.77733	249
2.78100	249
2.78467	248
2.78833	245
2.79200	243
2.79567	240
2.79933	237
2.80300	237
2.80667	242
2.81033	248
2.81400	252
2.81767	253
2.82133	247
2.82500	240
2.82867	235
2.83233	234
2.83600	235
2.83967	237
2.84333	240
2.84700	244
2.85067	247
2.85433	250
2.85800	249
2.86167	246
2.86533	242
2.86900	238
2.87267	235
2.87633	233
2.88000	234
2.88367	236
2.88733	238
2.89100	238
2.89467	237
2.89833	237
2.90200	235
2.90567	233
2.90933	231
2.91300	229
2.91667	229
2.92033	231
2.92400	232
2.92767	232
2.93133	231
2.93500	228
2.93867	226
2.94233	226
2.94600	226
2.94967	229
2.95333	233
2.95700	236
2.96067	236
2.96433	234
2.96800	230
2.97167	228
2.97533	230
2.97900	234
2.98267	241
2.98633	249
2.99000	258
2.99367	265
2.99733	268
3.00100	265
3.00467	259
3.00833	253
3.01200	250
3.01567	248
3.01933	245
3.02300	243
3.02667	242
3.03033	243
3.03400	243
3.03767	240
3.04133	237
3.04500	229
3.04867	221
3.05233	215
3.05600	215
3.05967	220
3.06333	228
3.06700	236
3.07067	241
3.07433	238
3.07800	232
3.08167	228
3.08533	230
3.08900	236
3.09267	244
3.09633	247
3.10000	243
3.10367	238
3.10733	233
3.11100	230
3.11467	228
3.11833	224
3.12200	221
3.12567	222
3.12933	224
3.13300	229
3.13667	234
3.14033	233
3.14400	226
3.14767	216
3.15133	208
3.15500	203
3.15867	202
3.16233	206
3.16600	216
3.16967	222
3.17333	224
3.17700	224
3.18067	221
3.18433	219
3.18800	219
3.19167	219
3.19533	218
3.19900	217
3.20267	217
3.20633	218
3.21000	221
3.21367	228
3.21733	238
3.22100	246
3.22467	247
3.22833	243
3.23200	235
3.23567	226
3.23933	217
3.24300	207
3.24667	200
3.25033	196
3.25400	192
3.25767	190
3.26133	190
3.26500	194
3.26867	202
3.27233	211
3.27600	218
3.27967	224
3.28333	227
3.28700	223
3.29067	219
3.29433	218
3.29800	220
3.30167	219
3.30533	214
3.30900	209
3.31267	206
3.31633	202
3.32000	199
3.32367	197
3.32733	196
3.33100	197
3.33467	198
3.33833	201
3.34200	205
3.34567	206
3.34933	205
3.35300	201
3.35667	196
3.36033	196
3.36400	202
3.36767	209
3.37133	215
3.37500	217
3.37867	215
3.38233	210
3.38600	201
3.38967	193
3.39333	191
3.39700	190
3.40067	190
3.40433	191
3.40800	193
3.41167	198
3.41533	200
3.41900	195
3.42267	190
3.42633	187
3.43000	185
3.43367	184
3.43733	182
3.44100	182
3.44467	185
3.44833	187
3.45200	188
3.45567	189
3.45933	194
3.46300	202
3.46667	208
3.47033	212
3.47400	215
3.47767	211
3.48133	202
3.48500	194
3.48867	191
3.49233	192
3.49600	197
3.49967	200
3.50333	202
3.50700	202
3.51067	200
3.51433	193
3.51800	181
3.52167	173
3.52533	168
3.52900	169
3.53267	172
3.53633	174
3.54000	177
3.54367	181
3.54733	185
3.55100	191
3.55467	198
3.55833	201
3.56200	195
3.56567	184
3.56933	176
3.57300	172
3.57667	170
3.58033	164
3.58400	159
3.58767	157
3.59133	160
3.59500	164
3.59867	166
3.60233	168
3.60600	169
3.60967	170
3.61333	172
3.61700	175
3.62067	180
3.62433	184
3.62800	187
3.63167	187
3.63533	186
3.63900	186
3.64267	186
3.64633	184
3.65000	179
3.65367	172
3.65733	163
3.66100	157
3.66467	154
3.66833	153
3.67200	153
3.67567	153
3.67933	154
3.68300	150
3.68667	147
3.69033	147
3.69400	152
3.69767	157
3.70133	160
3.70500	161
3.70867	157
3.71233	153
3.71600	154
3.71967	160
3.72333	169
3.72700	175
3.73067	179
3.73433	182
3.73800	180
3.74167	171
3.74533	161
3.74900	157
3.75267	156
3.75633	155
3.76000	156
3.76367	155
3.76733	152
3.77100	151
3.77467	149
3.77833	150
3.78200	153
3.78567	154
3.78933	155
3.79300	157
3.79667	158
3.80033	156
3.80400	151
3.80767	146
3.81133	146
3.81500	156
3.81867	166
3.82233	167
3.82600	163
3.82967	157
3.83333	154
3.83700	153
3.84067	152
3.84433	153
3.84800	154
3.85167	154
3.85533	154
3.85900	152
3.86267	148
3.86633	143
3.87000	137
3.87367	131
3.87733	130
3.88100	134
3.88467	140
3.88833	145
3.89200	148
3.89567	152
3.89933	154
3.90300	150
3.90667	146
3.91033	144
3.91400	144
3.91767	145
3.92133	144
3.92500	141
3.92867	139
3.93233	139
3.93600	140
3.93967	143
3.94333	149
3.94700	153
3.95067	154
3.95433	155
3.95800	155
3.96167	149
3.96533	143
3.96900	143
3.97267	147
3.97633	151
3.98000	150
3.98367	146
3.98733	142
3.99100	137
3.99467	129
3.99833	123

[Chromatogram (Ch2)]
Interval(msec)	220
# of Points	1091
Start Time(min)	0.002
End Time(min)	3.998
R.Time (min)	Intensity
0.00167	-1
0.00533	-1
0.00900	-2
0.01267	-2
0.01633	-3
0.02000	-3
0.02367	-4
0.02733	-4
0.03100	-4
0.03467	-5
0.03833	-5
0.04200	-5
0.04567	-5
0.04933	-5
0.05300	-5
0.05667	-5
0.06033	-5
0.06400	-4
0.06767	-4
0.07133	-3
0.07500	-2
0.07867	-1
0.08233	-0
0.08600	0
0.08967	1
0.09333	2
0.09700	3
0.10067	3
0.10433	4
0.10800	4
0.11167	5
0.11533	5
0.11900	5
0.12267	5
0.12633	5
0.13000	5
0.13367	4
0.13733	4
0.14100	4
0.14467	3
0.14833	3
0.15200	3
0.15567	3
0.15933	3
0.16300	3
0.16667	3
0.17033	3
0.17400	3
0.17767	2
0.18133	2
0.18500	2
0.18867	2
0.19233	1
0.19600	1
0.19967	0
0.20333	-0
0.20700	-1
0.21067	-1
0.21433	-1
0.21800	-2
0.22167	-2
0.22533	-2
0.22900	-2
0.23267	-2
0.23633	-2
0.24000	-2
0.24367	-2
0.24733	-2
0.25100	-2
0.25467	-2
0.25833	-2
0.26200	-2
0.26567	-2
0.26933	-2
0.27300	-2
0.27667	-2
0.28033	-1
0.28400	-1
0.28767	-1
0.29133	-1
0.29500	-1
0.29867	-1
0.30233	-0
0.30600	-0
0.30967	-0
0.31333	-0
0.31700	0
0.32067	0
0.32433	1
0.32800	1
0.33167	1
0.33533	1
0.33900	1
0.34267	1
0.34633	1
0.35000	1
0.35367	1
0.35733	1
0.36100	1
0.36467	1
0.36833	1
0.37200	1
0.37567	1
0.37933	1
0.38300	0
0.38667	0
0.39033	0
0.39400	0
0.39767	0
0.40133	1
0.40500	1
0.40867	1
0.41233	1
0.41600	1
0.41967	1
0.42333	1
0.42700	1
0.43067	0
0.43433	0
0.43800	-0
0.44167	-0
0.44533	-0
0.44900	-1
0.45267	-1
0.45633	-1
0.46000	-1
0.46367	-1
0.46733	-1
0.47100	-1
0.47467	-1
0.47833	-1
0.48200	-1
0.48567	-1
0.48933	-1
0.49300	-1
0.49667	-0
0.50033	0
0.50400	1
0.50767	1
0.51133	1
0.51500	1
0.51867	1
0.52233	1
0.52600	1
0.52967	1
0.53333	1
0.53700	1
0.54067	1
0.54433	1
0.54800	0
0.55167	-0
0.55533	-0
0.55900	-0
0.56267	-0
0.56633	-0
0.57000	-0
0.57367	-0
0.57733	-0
0.58100	-0
0.58467	-0
0.58833	-1
0.59200	-1
0.59567	-1
0.59933	-1
0.60300	-1
0.60667	-1
0.61033	-1
0.61400	-1
0.61767	-1
0.62133	-1
0.62500	-1
0.62867	-1
0.63233	-1
0.63600	-1
0.63967	-2
0.64333	-2
0.64700	-2
0.65067	-2
0.65433	-2
0.65800	-2
0.66167	-2
0.66533	-2
0.66900	-2
0.67267	-2
0.67633	-2
0.68000	-2
0.68367	-2
0.68733	-3
0.69100	-3
0.69467	-3
0.69833	-3
0.70200	-3
0.70567	-2
0.70933	-2
0.71300	-2
0.71667	-1
0.72033	-1
0.72400	-0
0.72767	0
0.73133	1
0.73500	1
0.73867	1
0.74233	1
0.74600	1
0.74967	1
0.75333	2
0.75700	2
0.76067	1
0.76433	1
0.76800	1
0.77167	1
0.77533	1
0.77900	1
0.78267	0
0.78633	0
0.79000	0
0.79367	0
0.79733	0
0.80100	0
0.80467	0
0.80833	-0
0.81200	-0
0.81567	-1
0.81933	-1
0.82300	-1
0.82667	-1
0.83033	-1
0.83400	-1
0.83767	-1
0.84133	-1
0.84500	-2
0.84867	-2
0.85233	-2
0.85600	-2
0.85967	-2
0.86333	-2
0.86700	-2
0.87067	-2
0.87433	-2
0.87800	-2
0.88167	-2
0.88533	-2
0.88900	-2
0.89267	-2
0.89633	-2
0.90000	-2
0.90367	-2
0.90733	-2
0.91100	-2
0.91467	-2
0.91833	-2
0.92200	-2
0.92567	-2
0.92933	-2
0.93300	-2
0.93667	-2
0.94033	-2
0.94400	-2
0.94767	-2
0.95133	-2
0.95500	-2
0.95867	-2
0.96233	-2
0.96600	-1
0.96967	-1
0.97333	-1
0.97700	-1
0.98067	-1
0.98433	-1
0.98800	-1
0.99167	-1
0.99533	-1
0.99900	-1
1.00267	-1
1.00633	-2
1.01000	-2
1.01367	-2
1.01733	-2
1.02100	-2
1.02467	-2
1.02833	-1
1.03200	-1
1.03567	-1
1.03933	-1
1.04300	-1
1.04667	-1
1.05033	-1
1.05400	-1
1.05767	-1
1.06133	-1
1.06500	-1
1.06867	-1
1.07233	-1
1.07600	-1
1.07967	-1
1.08333	-1
1.08700	-1
1.09067	-1
1.09433	-0
1.09800	-0
1.10167	-0
1.10533	-1
1.10900	-1
1.11267	-1
1.11633	-1
1.12000	-1
1.12367	-1
1.12733	-1
1.13100	-2
1.13467	-2
1.13833	-2
1.14200	-2
1.14567	-2
1.14933	-2
1.15300	-2
1.15667	-2
1.16033	-3
1.16400	-3
1.16767	-3
1.17133	-3
1.17500	-3
1.17867	-3
1.18233	-3
1.18600	-3
1.18967	-3
1.19333	-3
1.19700	-3
1.20067	-3
1.20433	-3
1.20800	-3
1.21167	-3
1.21533	-3
1.21900	-3
1.22267	-3
1.22633	-4
1.23000	-4
1.23367	-3
1.23733	-3
1.24100	-3
1.24467	-3
1.24833	-3
1.25200	-3
1.25567	-3
1.25933	-3
1.26300	-3
1.26667	-4
1.27033	-4
1.27400	-4
1.27767	-4
1.28133	-4
1.28500	-4
1.28867	-4
1.29233	-4
1.29600	-4
1.29967	-4
1.30333	-4
1.30700	-3
1.31067	-3
1.31433	-2
1.31800	-2
1.32167	-1
1.32533	-1
1.32900	-1
1.33267	-1
1.33633	-1
1.34000	-1
1.34367	-0
1.34733	-0
1.35100	0
1.35467	0
1.35833	1
1.36200	1
1.36567	1
1.36933	1
1.37300	1
1.37667	1
1.38033	0
1.38400	0
1.38767	0
1.39133	0
1.39500	0
1.39867	0
1.40233	0
1.40600	0
1.40967	-0
1.41333	-0
1.41700	-1
1.42067	-1
1.42433	-1
1.42800	-1
1.43167	-2
1.43533	-2
1.43900	-2
1.44267	-3
1.44633	-3
1.45000	-3
1.45367	-3
1.45733	-3
1.46100	-3
1.46467	-3
1.46833	-3
1.47200	-3
1.47567	-3
1.47933	-3
1.48300	-3
1.48667	-3
1.49033	-3
1.49400	-3
1.49767	-2
1.50133	-2
1.50500	-2
1.50867	-2
1.51233	-2
1.51600	-2
1.51967	-2
1.52333	-2
1.52700	-2
1.53067	-2
1.53433	-2
1.53800	-2
1.54167	-1
1.54533	-1
1.54900	-2
1.55267	-2
1.55633	-2
1.56000	-2
1.56367	-3
1.56733	-3
1.57100	-3
1.57467	-3
1.57833	-3
1.58200	-3
1.58567	-3
1.58933	-4
1.59300	-4
1.59667	-5
1.60033	-6
1.60400	-7
1.60767	-8
1.61133	-10
1.61500	-12
1.61867	-14
1.62233	-17
1.62600	-20
1.62967	-23
1.63333	-26
1.63700	-29
1.64067	-33
1.64433	-36
1.64800	-40
1.65167	-43
1.65533	-46
1.65900	-50
1.66267	-54
1.66633	-58
1.67000	-62
1.67367	-66
1.67733	-71
1.68100	-75
1.68467	-79
1.68833	-83
1.69200	-86
1.69567	-89
1.69933	-91
1.70300	-93
1.70667	-95
1.71033	-96
1.71400	-97
1.71767	-98
1.72133	-98
1.72500	-98
1.72867	-98
1.73233	-98
1.73600	-98
1.73967	-98
1.74333	-97
1.74700	-97
1.75067	-97
1.75433	-98
1.75800	-98
1.76167	-99
1.76533	-100
1.76900	-100
1.77267	-101
1.77633	-101
1.78000	-102
1.78367	-102
1.78733	-103
1.79100	-104
1.79467	-105
1.79833	-105
1.80200	-106
1.80567	-106
1.80933	-105
1.81300	-105
1.81667	-105
1.82033	-105
1.82400	-105
1.82767	-105
1.83133	-105
1.83500	-105
1.83867	-105
1.84233	-105
1.84600	-105
1.84967	-105
1.85333	-106
1.85700	-106
1.86067	-106
1.86433	-106
1.86800	-106
1.87167	-106
1.87533	-106
1.87900	-105
1.88267	-105
1.88633	-105
1.89000	-105
1.89367	-106
1.89733	-106
1.90100	-106
1.90467	-106
1.90833	-105
1.91200	-105
1.91567	-105
1.91933	-105
1.92300	-105
1.92667	-104
1.93033	-104
1.93400	-104
1.93767	-104
1.94133	-104
1.94500	-104
1.94867	-104
1.95233	-103
1.95600	-103
1.95967	-102
1.96333	-102
1.96700	-101
1.97067	-101
1.97433	-101
1.97800	-100
1.98167	-100
1.98533	-100
1.98900	-100
1.99267	-100
1.99633	-100
2.00000	-100
2.00367	-100
2.00733	-100
2.01100	-99
2.01467	-98
2.01833	-97
2.02200	-97
2.02567	-96
2.02933	-96
2.03300	-96
2.03667	-95
2.04033	-95
2.04400	-94
2.04767	-93
2.05133	-92
2.05500	-91
2.05867	-90
2.06233	-90
2.06600	-89
2.06967	-89
2.07333	-89
2.07700	-90
2.08067	-90
2.08433	-90
2.08800	-91
2.09167	-91
2.09533	-91
2.09900	-91
2.10267	-91
2.10633	-92
2.11000	-92
2.11367	-91
2.11733	-91
2.12100	-90
2.12467	-90
2.12833	-89
2.13200	-88
2.13567	-87
2.13933	-87
2.14300	-87
2.14667	-86
2.15033	-86
2.15400	-86
2.15767	-86
2.16133	-86
2.16500	-86
2.16867	-86
2.17233	-86
2.17600	-85
2.17967	-85
2.18333	-84
2.18700	-83
2.19067	-83
2.19433	-83
2.19800	-83
2.20167	-83
2.20533	-82
2.20900	-82
2.21267	-82
2.21633	-81
2.22000	-81
2.22367	-80
2.22733	-80
2.23100	-79
2.23467	-79
2.23833	-78
2.24200	-78
2.24567	-78
2.24933	-78
2.25300	-78
2.25667	-78
2.26033	-78
2.26400	-78
2.26767	-77
2.27133	-77
2.27500	-76
2.27867	-76
2.28233	-76
2.28600	-77
2.28967	-78
2.29333	-79
2.29700	-79
2.30067	-79
2.30433	-79
2.30800	-79
2.31167	-79
2.31533	-78
2.31900	-77
2.32267	-76
2.32633	-75
2.33000	-74
2.33367	-73
2.33733	-71
2.34100	-70
2.34467	-69
2.34833	-68
2.35200	-67
2.35567	-66
2.35933	-65
2.36300	-64
2.36667	-63
2.37033	-61
2.37400	-58
2.37767	-55
2.38133	-52
2.38500	-48
2.38867	-44
2.39233	-41
2.39600	-37
2.39967	-33
2.40333	-29
2.40700	-25
2.41067	-21
2.41433	-17
2.41800	-14
2.42167	-12
2.42533	-9
2.42900	-7
2.43267	-5
2.43633	-3
2.44000	-1
2.44367	0
2.44733	2
2.45100	3
2.45467	4
2.45833	4
2.46200	5
2.46567	6
2.46933	7
2.47300	9
2.47667	9
2.48033	10
2.48400	11
2.48767	11
2.49133	12
2.49500	12
2.49867	12
2.50233	12
2.50600	12
2.50967	12
2.51333	12
2.51700	12
2.52067	11
2.52433	10
2.52800	9
2.53167	9
2.53533	8
2.53900	8
2.54267	9
2.54633	9
2.55000	10
2.55367	10
2.55733	10
2.56100	11
2.56467	11
2.56833	11
2.57200	11
2.57567	12
2.57933	13
2.58300	14
2.58667	15
2.59033	16
2.59400	16
2.59767	16
2.60133	16
2.60500	17
2.60867	17
2.61233	18
2.61600	18
2.61967	18
2.62333	18
2.62700	18
2.63067	18
2.63433	18
2.63800	19
2.64167	19
2.64533	19
2.64900	19
2.65267	20
2.65633	20
2.66000	20
2.66367	20
2.66733	20
2.67100	20
2.67467	20
2.67833	21
2.68200	21
2.68567	21
2.68933	21
2.69300	21
2.69667	21
2.70033	20
2.70400	20
2.70767	21
2.71133	21
2.71500	22
2.71867	23
2.72233	23
2.72600	24
2.72967	25
2.73333	26
2.73700	27
2.74067	27
2.74433	27
2.74800	27
2.75167	27
2.75533	26
2.75900	26
2.76267	25
2.76633	24
2.77000	24
2.77367	24
2.77733	24
2.78100	24
2.78467	24
2.78833	24
2.79200	24
2.79567	24
2.79933	24
2.80300	24
2.80667	25
2.81033	25
2.81400	25
2.81767	26
2.82133	26
2.82500	26
2.82867	26
2.83233	27
2.83600	27
2.83967	27
2.84333	28
2.84700	28
2.85067	28
2.85433	28
2.85800	27
2.86167	25
2.86533	21
2.86900	15
2.87267	6
2.87633	-8
2.88000	-27
2.88367	-51
2.88733	-81
2.89100	-117
2.89467	-160
2.89833	-209
2.90200	-265
2.90567	-326
2.90933	-392
2.91300	-464
2.91667	-541
2.92033	-621
2.92400	-705
2.92767	-792
2.93133	-883
2.93500	-976
2.93867	-1071
2.94233	-1169
2.94600	-1269
2.94967	-1369
2.95333	-1461
2.95700	-1532
2.96067	-1570
2.96433	-1570
2.96800	-1533
2.97167	-1465
2.97533	-1374
2.97900	-1269
2.98267	-1156
2.98633	-1042
2.99000	-930
2.99367	-824
2.99733	-725
3.00100	-634
3.00467	-552
3.00833	-478
3.01200	-413
3.01567	-355
3.01933	-305
3.02300	-261
3.02667	-223
3.03033	-190
3.03400	-161
3.03767	-137
3.04133	-116
3.04500	-98
3.04867	-83
3.05233	-70
3.05600	-58
3.05967	-48
3.06333	-40
3.06700	-33
3.07067	-27
3.07433	-22
3.07800	-17
3.08167	-14
3.08533	-11
3.08900	-8
3.09267	-6
3.09633	-4
3.10000	-2
3.10367	-0
3.10733	1
3.11100	3
3.11467	4
3.11833	5
3.12200	6
3.12567	7
3.12933	8
3.13300	9
3.13667	10
3.14033	11
3.14400	12
3.14767	12
3.15133	13
3.15500	13
3.15867	14
3.16233	14
3.16600	15
3.16967	15
3.17333	16
3.17700	16
3.18067	16
3.18433	17
3.18800	17
3.19167	18
3.19533	18
3.19900	18
3.20267	19
3.20633	19
3.21000	19
3.21367	20
3.21733	20
3.22100	20
3.22467	20
3.22833	20
3.23200	20
3.23567	21
3.23933	21
3.24300	21
3.24667	22
3.25033	22
3.25400	22
3.25767	22
3.26133	22
3.26500	22
3.26867	22
3.27233	22
3.27600	22
3.27967	22
3.28333	22
3.28700	22
3.29067	22
3.29433	22
3.29800	22
3.30167	22
3.30533	22
3.30900	22
3.31267	22
3.31633	22
3.32000	23
3.32367	23
3.32733	23
3.33100	23
3.33467	23
3.33833	23
3.34200	23
3.34567	23
3.34933	24
3.35300	24
3.35667	24
3.36033	25
3.36400	25
3.36767	25
3.37133	25
3.37500	26
3.37867	26
3.38233	27
3.38600	27
3.38967	27
3.39333	28
3.39700	28
3.40067	28
3.40433	28
3.40800	28
3.41167	28
3.41533	28
3.41900	28
3.42267	29
3.42633	29
3.43000	29
3.43367	29
3.43733	29
3.44100	29
3.44467	29
3.44833	29
3.45200	29
3.45567	29
3.45933	29
3.46300	28
3.46667	28
3.47033	28
3.47400	28
3.47767	28
3.48133	27
3.48500	27
3.48867	27
3.49233	27
3.49600	26
3.49967	26
3.50333	26
3.50700	26
3.51067	26
3.51433	26
3.51800	26
3.52167	26
3.52533	26
3.52900	26
3.53267	26
3.53633	26
3.54000	25
3.54367	25
3.54733	25
3.55100	25
3.55467	25
3.55833	25
3.56200	25
3.56567	25
3.56933	25
3.57300	25
3.57667	25
3.58033	25
3.58400	24
3.58767	24
3.59133	24
3.59500	24
3.59867	24
3.60233	24
3.60600	25
3.60967	25
3.61333	25
3.61700	25
3.62067	25
3.62433	25
3.62800	25
3.63167	25
3.63533	25
3.63900	24
3.64267	24
3.64633	24
3.65000	24
3.65367	24
3.65733	25
3.66100	25
3.66467	25
3.66833	26
3.67200	26
3.67567	26
3.67933	26
3.68300	27
3.68667	27
3.69033	27
3.69400	28
3.69767	28
3.70133	28
3.70500	28
3.70867	27
3.71233	27
3.71600	27
3.71967	27
3.72333	27
3.72700	27
3.73067	27
3.73433	27
3.73800	27
3.74167	27
3.74533	27
3.74900	27
3.75267	27
3.75633	27
3.76000	27
3.76367	27
3.76733	27
3.77100	27
3.77467	27
3.77833	27
3.78200	27
3.78567	27
3.78933	27
3.79300	27
3.79667	27
3.80033	27
3.80400	27
3.80767	27
3.81133	27
3.81500	27
3.81867	26
3.82233	26
3.82600	26
3.82967	26
3.83333	25
3.83700	25
3.84067	25
3.84433	25
3.84800	25
3.85167	25
3.85533	25
3.85900	25
3.86267	25
3.86633	25
3.87000	25
3.87367	25
3.87733	25
3.88100	25
3.88467	25
3.88833	25
3.89200	25
3.89567	25
3.89933	25
3.90300	25
3.90667	25
3.91033	25
3.91400	26
3.91767	26
3.92133	26
3.92500	27
3.92867	27
3.93233	27
3.93600	28
3.93967	28
3.94333	27
3.94700	27
3.95067	27
3.95433	27
3.95800	27
3.96167	27
3.96533	27
3.96900	26
3.97267	26
3.97633	26
3.98000	26
3.98367	26
3.98733	26
3.99100	26
3.99467	26
3.99833	26

[Chromatogram (Ch3)]
Interval(msec)	220
# of Points	1091
Start Time(min)	0.002
End Time(min)	3.998
R.Time (min)	Intensity
0.00167	-0
0.00533	-1
0.00900	-2
0.01267	-4
0.01633	-4
0.02000	-4
0.02367	-4
0.02733	-2
0.03100	1
0.03467	1
0.03833	-0
0.04200	0
0.04567	1
0.04933	1
0.05300	0
0.05667	-1
0.06033	-1
0.06400	-0
0.06767	1
0.07133	2
0.07500	3
0.07867	3
0.08233	5
0.08600	7
0.08967	7
0.09333	5
0.09700	4
0.10067	2
0.10433	-1
0.10800	-3
0.11167	-4
0.11533	-3
0.11900	-2
0.12267	-2
0.12633	-1
0.13000	-0
0.13367	-2
0.13733	-3
0.14100	-3
0.14467	-1
0.14833	1
0.15200	4
0.15567	5
0.15933	3
0.16300	1
0.16667	-0
0.17033	-1
0.17400	-2
0.17767	-1
0.18133	1
0.18500	2
0.18867	2
0.19233	1
0.19600	1
0.19967	-0
0.20333	-4
0.20700	-6
0.21067	-6
0.21433	-5
0.21800	-4
0.22167	1
0.22533	3
0.22900	5
0.23267	7
0.23633	7
0.24000	6
0.24367	4
0.24733	2
0.25100	1
0.25467	0
0.25833	-1
0.26200	-3
0.26567	-2
0.26933	-1
0.27300	-1
0.27667	-1
0.28033	-1
0.28400	-0
0.28767	0
0.29133	1
0.29500	3
0.29867	4
0.30233	5
0.30600	6
0.30967	7
0.31333	6
0.31700	6
0.32067	5
0.32433	4
0.32800	5
0.33167	4
0.33533	2
0.33900	2
0.34267	4
0.34633	6
0.35000	9
0.35367	9
0.35733	10
0.36100	10
0.36467	9
0.36833	9
0.37200	8
0.37567	8
0.37933	9
0.38300	9
0.38667	8
0.39033	7
0.39400	6
0.39767	9
0.40133	10
0.40500	10
0.40867	8
0.41233	6
0.41600	5
0.41967	6
0.42333	8
0.42700	9
0.43067	9
0.43433	9
0.43800	9
0.44167	8
0.44533	6
0.44900	7
0.45267	9
0.45633	10
0.46000	11
0.46367	11
0.46733	11
0.47100	10
0.47467	10
0.47833	11
0.48200	11
0.48567	11
0.48933	12
0.49300	10
0.49667	8
0.50033	7
0.50400	8
0.50767	10
0.51133	12
0.51500	12
0.51867	11
0.52233	13
0.52600	15
0.52967	16
0.53333	16
0.53700	16
0.54067	14
0.54433	11
0.54800	7
0.55167	3
0.55533	3
0.55900	5
0.56267	8
0.56633	11
0.57000	12
0.57367	13
0.57733	14
0.58100	15
0.58467	14
0.58833	14
0.59200	12
0.59567	12
0.59933	12
0.60300	12
0.60667	10
0.61033	10
0.61400	11
0.61767	12
0.62133	10
0.62500	8
0.62867	6
0.63233	7
0.63600	10
0.63967	11
0.64333	10
0.64700	8
0.65067	6
0.65433	6
0.65800	6
0.66167	7
0.66533	8
0.66900	9
0.67267	11
0.67633	10
0.68000	10
0.68367	10
0.68733	8
0.69100	7
0.69467	8
0.69833	9
0.70200	12
0.70567	13
0.70933	13
0.71300	12
0.71667	10
0.72033	11
0.72400	13
0.72767	15
0.73133	15
0.73500	16
0.73867	16
0.74233	14
0.74600	14
0.74967	13
0.75333	13
0.75700	15
0.76067	16
0.76433	15
0.76800	13
0.77167	13
0.77533	14
0.77900	15
0.78267	16
0.78633	16
0.79000	15
0.79367	13
0.79733	13
0.80100	13
0.80467	13
0.80833	14
0.81200	14
0.81567	15
0.81933	15
0.82300	13
0.82667	13
0.83033	14
0.83400	11
0.83767	11
0.84133	14
0.84500	16
0.84867	18
0.85233	18
0.85600	17
0.85967	16
0.86333	15
0.86700	15
0.87067	16
0.87433	17
0.87800	18
0.88167	18
0.88533	18
0.88900	17
0.89267	14
0.89633	14
0.90000	13
0.90367	13
0.90733	15
0.91100	18
0.91467	19
0.91833	20
0.92200	21
0.92567	20
0.92933	19
0.93300	17
0.93667	16
0.94033	15
0.94400	15
0.94767	15
0.95133	15
0.95500	17
0.95867	17
0.96233	17
0.96600	16
0.96967	15
0.97333	15
0.97700	17
0.98067	19
0.98433	21
0.98800	22
0.99167	23
0.99533	23
0.99900	22
1.00267	20
1.00633	18
1.01000	17
1.01367	17
1.01733	21
1.02100	23
1.02467	25
1.02833	26
1.03200	25
1.03567	24
1.03933	23
1.04300	22
1.04667	20
1.05033	19
1.05400	17
1.05767	16
1.06133	16
1.06500	16
1.06867	19
1.07233	20
1.07600	21
1.07967	22
1.08333	24
1.08700	26
1.09067	27
1.09433	26
1.09800	22
1.10167	20
1.10533	18
1.10900	19
1.11267	19
1.11633	20
1.12000	20
1.12367	20
1.12733	22
1.13100	23
1.13467	26
1.13833	26
1.14200	23
1.14567	20
1.14933	17
1.15300	15
1.15667	14
1.16033	15
1.16400	15
1.16767	15
1.17133	16
1.17500	17
1.17867	18
1.18233	17
1.18600	18
1.18967	17
1.19333	18
1.19700	20
1.20067	22
1.20433	21
1.20800	20
1.21167	21
1.21533	22
1.21900	24
1.22267	24
1.22633	24
1.23000	23
1.23367	23
1.23733	23
1.24100	23
1.24467	21
1.24833	20
1.25200	21
1.25567	23
1.25933	25
1.26300	26
1.26667	25
1.27033	24
1.27400	24
1.27767	23
1.28133	22
1.28500	22
1.28867	22
1.29233	22
1.29600	22
1.29967	23
1.30333	23
1.30700	22
1.31067	24
1.31433	27
1.31800	29
1.32167	28
1.32533	27
1.32900	25
1.33267	24
1.33633	23
1.34000	25
1.34367	25
1.34733	25
1.35100	24
1.35467	23
1.35833	22
1.36200	20
1.36567	20
1.36933	21
1.37300	21
1.37667	21
1.38033	21
1.38400	19
1.38767	19
1.39133	20
1.39500	23
1.39867	23
1.40233	22
1.40600	20
1.40967	21
1.41333	22
1.41700	24
1.42067	24
1.42433	24
1.42800	22
1.43167	23
1.43533	24
1.43900	24
1.44267	24
1.44633	24
1.45000	24
1.45367	24
1.45733	23
1.46100	20
1.46467	21
1.46833	22
1.47200	23
1.47567	25
1.47933	25
1.48300	25
1.48667	25
1.49033	23
1.49400	22
1.49767	21
1.50133	17
1.50500	18
1.50867	20
1.51233	22
1.51600	22
1.51967	22
1.52333	22
1.52700	22
1.53067	23
1.53433	25
1.53800	26
1.54167	25
1.54533	24
1.54900	23
1.55267	22
1.55633	22
1.56000	23
1.56367	24
1.56733	24
1.57100	26
1.57467	26
1.57833	24
1.58200	22
1.58567	21
1.58933	20
1.59300	21
1.59667	22
1.60033	22
1.60400	21
1.60767	20
1.61133	18
1.61500	20
1.61867	23
1.62233	25
1.62600	25
1.62967	24
1.63333	25
1.63700	25
1.64067	25
1.64433	27
1.64800	29
1.65167	29
1.65533	28
1.65900	28
1.66267	27
1.66633	28
1.67000	28
1.67367	29
1.67733	30
1.68100	32
1.68467	32
1.68833	32
1.69200	33
1.69567	34
1.69933	34
1.70300	34
1.70667	35
1.71033	36
1.71400	35
1.71767	34
1.72133	33
1.72500	32
1.72867	34
1.73233	34
1.73600	34
1.73967	34
1.74333	35
1.74700	35
1.75067	34
1.75433	33
1.75800	32
1.76167	30
1.76533	30
1.76900	32
1.77267	35
1.77633	35
1.78000	33
1.78367	34
1.78733	35
1.79100	36
1.79467	36
1.79833	39
1.80200	43
1.80567	45
1.80933	45
1.81300	46
1.81667	44
1.82033	42
1.82400	42
1.82767	42
1.83133	44
1.83500	45
1.83867	44
1.84233	42
1.84600	40
1.84967	41
1.85333	43
1.85700	46
1.86067	50
1.86433	53
1.86800	53
1.87167	51
1.87533	50
1.87900	50
1.88267	50
1.88633	52
1.89000	55
1.89367	58
1.89733	61
1.90100	62
1.90467	62
1.90833	60
1.91200	59
1.91567	59
1.91933	58
1.92300	57
1.92667	58
1.93033	60
1.93400	62
1.93767	63
1.94133	64
1.94500	63
1.94867	61
1.95233	59
1.95600	58
1.95967	60
1.96333	62
1.96700	64
1.97067	65
1.97433	66
1.97800	66
1.98167	67
1.98533	68
1.98900	69
1.99267	71
1.99633	71
2.00000	68
2.00367	67
2.00733	68
2.01100	70
2.01467	71
2.01833	72
2.02200	73
2.02567	74
2.02933	76
2.03300	78
2.03667	80
2.04033	80
2.04400	81
2.04767	81
2.05133	82
2.05500	85
2.05867	86
2.06233	86
2.06600	87
2.06967	87
2.07333	89
2.07700	89
2.08067	89
2.08433	92
2.08800	95
2.09167	96
2.09533	97
2.09900	98
2.10267	99
2.10633	101
2.11000	102
2.11367	102
2.11733	101
2.12100	101
2.12467	101
2.12833	103
2.13200	104
2.13567	106
2.13933	105
2.14300	104
2.14667	104
2.15033	103
2.15400	106
2.15767	110
2.16133	112
2.16500	113
2.16867	115
2.17233	114
2.17600	112
2.17967	111
2.18333	112
2.18700	111
2.19067	111
2.19433	114
2.19800	116
2.20167	116
2.20533	115
2.20900	115
2.21267	117
2.21633	119
2.22000	120
2.22367	121
2.22733	121
2.23100	123
2.23467	124
2.23833	125
2.24200	126
2.24567	126
2.24933	127
2.25300	127
2.25667	127
2.26033	128
2.26400	129
2.26767	131
2.27133	134
2.27500	136
2.27867	138
2.28233	137
2.28600	135
2.28967	139
2.29333	142
2.29700	144
2.30067	144
2.30433	142
2.30800	139
2.31167	138
2.31533	140
2.31900	143
2.32267	143
2.32633	143
2.33000	142
2.33367	140
2.33733	141
2.34100	142
2.34467	144
2.34833	145
2.35200	144
2.35567	143
2.35933	145
2.36300	145
2.36667	145
2.37033	146
2.37400	147
2.37767	148
2.38133	148
2.38500	147
2.38867	148
2.39233	149
2.39600	151
2.39967	152
2.40333	151
2.40700	149
2.41067	148
2.41433	147
2.41800	148
2.42167	148
2.42533	149
2.42900	150
2.43267	151
2.43633	151
2.44000	154
2.44367	192
2.44733	270
2.45100	345
2.45467	400
2.45833	423
2.46200	420
2.46567	408
2.46933	395
2.47300	384
2.47667	368
2.48033	345
2.48400	319
2.48767	294
2.49133	272
2.49500	255
2.49867	245
2.50233	240
2.50600	239
2.50967	243
2.51333	249
2.51700	255
2.52067	259
2.52433	257
2.52800	248
2.53167	235
2.53533	220
2.53900	207
2.54267	194
2.54633	183
2.55000	175
2.55367	170
2.55733	165
2.56100	162
2.56467	160
2.56833	159
2.57200	160
2.57567	161
2.57933	163
2.58300	166
2.58667	168
2.59033	172
2.59400	179
2.59767	186
2.60133	193
2.60500	199
2.60867	204
2.61233	207
2.61600	207
2.61967	206
2.62333	204
2.62700	198
2.63067	187
2.63433	177
2.63800	165
2.64167	154
2.64533	141
2.64900	130
2.65267	121
2.65633	114
2.66000	109
2.66367	104
2.66733	101
2.67100	97
2.67467	94
2.67833	94
2.68200	94
2.68567	93
2.68933	93
2.69300	92
2.69667	93
2.70033	93
2.70400	94
2.70767	98
2.71133	103
2.71500	104
2.71867	105
2.72233	107
2.72600	108
2.72967	110
2.73333	111
2.73700	110
2.74067	110
2.74433	110
2.74800	112
2.75167	115
2.75533	117
2.75900	117
2.76267	118
2.76633	119
2.77000	120
2.77367	123
2.77733	126
2.78100	127
2.78467	130
2.78833	135
2.79200	140
2.79567	143
2.79933	148
2.80300	151
2.80667	153
2.81033	155
2.81400	157
2.81767	159
2.82133	161
2.82500	164
2.82867	169
2.83233	186
2.83600	227
2.83967	318
2.84333	510
2.84700	861
2.85067	1430
2.85433	2271
2.85800	3407
2.86167	4812
2.86533	6421
2.86900	8129
2.87267	9807
2.87633	11322
2.88000	12555
2.88367	13422
2.88733	13884
2.89100	13946
2.89467	13656
2.89833	13084
2.90200	12311
2.90567	11411
2.90933	10449
2.91300	9472
2.91667	8520
2.92033	7612
2.92400	6767
2.92767	5993
2.93133	5291
2.93500	4660
2.93867	4096
2.94233	3594
2.94600	3148
2.94967	2755
2.95333	2411
2.95700	2111
2.96067	1847
2.96433	1618
2.96800	1418
2.97167	1244
2.97533	1093
2.97900	963
2.98267	850
2.98633	753
2.99000	659
2.99367	562
2.99733	475
3.00100	416
3.00467	384
3.00833	368
3.01200	362
3.01567	365
3.01933	376
3.02300	391
3.02667	409
3.03033	428
3.03400	447
3.03767	467
3.04133	487
3.04500	505
3.04867	522
3.05233	536
3.05600	548
3.05967	558
3.06333	564
3.06700	568
3.07067	573
3.07433	575
3.07800	578
3.08167	581
3.08533	583
3.08900	587
3.09267	591
3.09633	593
3.10000	593
3.10367	592
3.10733	594
3.11100	598
3.11467	601
3.11833	602
3.12200	604
3.12567	607
3.12933	608
3.13300	610
3.13667	611
3.14033	612
3.14400	614
3.14767	617
3.15133	621
3.15500	625
3.15867	627
3.16233	627
3.16600	627
3.16967	628
3.17333	628
3.17700	630
3.18067	632
3.18433	634
3.18800	635
3.19167	635
3.19533	637
3.19900	641
3.20267	646
3.20633	649
3.21000	653
3.21367	657
3.21733	659
3.22100	661
3.22467	664
3.22833	668
3.23200	670
3.23567	669
3.23933	670
3.24300	671
3.24667	670
3.25033	668
3.25400	667
3.25767	668
3.26133	668
3.26500	669
3.26867	668
3.27233	668
3.27600	668
3.27967	667
3.28333	667
3.28700	665
3.29067	664
3.29433	662
3.29800	658
3.30167	656
3.30533	652
3.30900	645
3.31267	640
3.31633	636
3.32000	631
3.32367	629
3.32733	627
3.33100	625
3.33467	624
3.33833	623
3.34200	619
3.34567	615
3.34933	612
3.35300	611
3.35667	606
3.36033	603
3.36400	602
3.36767	603
3.37133	604
3.37500	603
3.37867	599
3.38233	596
3.38600	595
3.38967	594
3.39333	593
3.39700	593
3.40067	595
3.40433	595
3.40800	591
3.41167	585
3.41533	582
3.41900	581
3.42267	579
3.42633	579
3.43000	579
3.43367	578
3.43733	577
3.44100	576
3.44467	574
3.44833	571
3.45200	569
3.45567	568
3.45933	565
3.46300	561
3.46667	560
3.47033	560
3.47400	560
3.47767	559
3.48133	558
3.48500	555
3.48867	550
3.49233	546
3.49600	543
3.49967	540
3.50333	539
3.50700	538
3.51067	535
3.51433	534
3.51800	533
3.52167	532
3.52533	531
3.52900	530
3.53267	527
3.53633	524
3.54000	522
3.54367	522
3.54733	522
3.55100	521
3.55467	520
3.55833	517
3.56200	515
3.56567	510
3.56933	505
3.57300	503
3.57667	503
3.58033	503
3.58400	502
3.58767	500
3.59133	497
3.59500	496
3.59867	495
3.60233	496
3.60600	496
3.60967	495
3.61333	493
3.61700	491
3.62067	489
3.62433	490
3.62800	490
3.63167	486
3.63533	486
3.63900	488
3.64267	487
3.64633	487
3.65000	486
3.65367	484
3.65733	482
3.66100	480
3.66467	476
3.66833	472
3.67200	470
3.67567	471
3.67933	472
3.68300	470
3.68667	469
3.69033	465
3.69400	461
3.69767	458
3.70133	458
3.70500	459
3.70867	458
3.71233	457
3.71600	457
3.71967	458
3.72333	456
3.72700	453
3.73067	450
3.73433	450
3.73800	448
3.74167	447
3.74533	446
3.74900	445
3.75267	443
3.75633	440
3.76000	440
3.76367	438
3.76733	438
3.77100	440
3.77467	440
3.77833	442
3.78200	443
3.78567	441
3.78933	437
3.79300	434
3.79667	432
3.80033	433
3.80400	434
3.80767	433
3.81133	431
3.81500	429
3.81867	429
3.82233	429
3.82600	428
3.82967	428
3.83333	428
3.83700	430
3.84067	429
3.84433	426
3.84800	424
3.85167	424
3.85533	421
3.85900	419
3.86267	417
3.86633	417
3.87000	416
3.87367	415
3.87733	415
3.88100	414
3.88467	415
3.88833	415
3.89200	412
3.89567	408
3.89933	406
3.90300	405
3.90667	402
3.91033	404
3.91400	406
3.91767	406
3.92133	405
3.92500	406
3.92867	406
3.93233	405
3.93600	401
3.93967	401
3.94333	402
3.94700	402
3.95067	401
3.95433	400
3.95800	399
3.96167	401
3.96533	402
3.96900	400
3.97267	398
3.97633	399
3.98000	399
3.98367	399
3.98733	398
3.99100	398
3.99467	397
3.99833	392

[Status Trace (Column Oven Temperature)]
Interval(msec)	1000
# of Points	240
Start Time(min)	0.004
End Time(min)	3.987
Intensity Units	
Intensity Multiplier	1
R.Time (min)	Intensity
0.00387	35.04
0.02053	35.06
0.03720	35.08
0.05387	35.09
0.07053	35.09
0.08720	35.07
0.10387	35.05
0.12053	35.04
0.13720	35.03
0.15387	35.01
0.17053	35.00
0.18720	35.00
0.20387	35.01
0.22053	35.02
0.23720	35.03
0.25387	35.03
0.27053	35.04
0.28720	35.03
0.30387	35.02
0.32053	35.02
0.33720	35.01
0.35387	35.00
0.37053	35.00
0.38720	35.00
0.40387	34.99
0.42053	34.99
0.43720	34.99
0.45387	35.00
0.47053	35.01
0.48720	35.01
0.50387	35.00
0.52053	34.98
0.53720	34.99
0.55387	34.99
0.57053	34.99
0.58720	35.00
0.60387	35.00
0.62053	35.00
0.63720	35.00
0.65387	35.00
0.67053	35.01
0.68720	35.01
0.70387	35.01
0.72053	35.00
0.73720	35.00
0.75387	34.99
0.77053	34.99
0.78720	34.99
0.80387	34.99
0.82053	35.00
0.83720	35.01
0.85387	35.01
0.87053	35.00
0.88720	35.01
0.90387	35.01
0.92053	35.00
0.93720	35.00
0.95387	34.99
0.97053	34.99
0.98720	35.00
1.00387	34.99
1.02053	34.98
1.03720	34.98
1.05387	34.98
1.07053	34.98
1.08720	34.97
1.10387	34.97
1.12053	34.97
1.13720	34.97
1.15387	34.98
1.17053	34.98
1.18720	34.99
1.20387	35.00
1.22053	35.01
1.23720	35.01
1.25387	35.01
1.27053	35.02
1.28720	35.04
1.30387	35.04
1.32053	35.03
1.33720	35.01
1.35387	35.00
1.37053	34.99
1.38720	34.98
1.40387	34.98
1.42053	34.98
1.43720	34.98
1.45387	34.99
1.47053	34.99
1.48720	34.99
1.50387	34.99
1.52053	34.99
1.53720	34.99
1.55387	34.98
1.57053	34.98
1.58720	34.98
1.60387	35.02
1.62053	35.14
1.63720	35.32
1.65387	35.56
1.67053	35.88
1.68720	36.25
1.70387	36.60
1.72053	36.93
1.73720	37.24
1.75387	37.57
1.77053	37.90
1.78720	38.24
1.80387	38.58
1.82053	38.91
1.83720	39.23
1.85387	39.57
1.87053	39.90
1.88720	40.23
1.90387	40.57
1.92053	40.89
1.93720	41.23
1.95387	41.55
1.97053	41.88
1.98720	42.22
2.00387	42.55
2.02053	42.87
2.03720	43.20
2.05387	43.49
2.07053	43.81
2.08720	44.14
2.10387	44.47
2.12053	44.80
2.13720	45.12
2.15387	45.46
2.17053	45.78
2.18720	46.10
2.20387	46.43
2.22053	46.76
2.23720	47.06
2.25387	47.41
2.27053	47.71
2.28720	48.08
2.30387	48.43
2.32053	48.77
2.33720	49.07
2.35387	49.35
2.37053	49.55
2.38720	49.66
2.40387	49.67
2.42053	49.67
2.43720	49.67
2.45387	49.68
2.47053	49.68
2.48720	49.69
2.50387	49.69
2.52053	49.71
2.53720	49.73
2.55387	49.75
2.57053	49.76
2.58720	49.77
2.60387	49.79
2.62053	49.80
2.63720	49.81
2.65387	49.81
2.67053	49.83
2.68720	49.84
2.70387	49.86
2.72053	49.85
2.73720	49.84
2.75387	49.87
2.77053	49.90
2.78720	49.91
2.80387	49.91
2.82053	49.91
2.83720	49.90
2.85387	49.90
2.87053	49.89
2.88720	49.90
2.90387	49.90
2.92053	49.89
2.93720	49.90
2.95387	49.92
2.97053	49.95
2.98720	49.95
3.00387	49.96
3.02053	49.96
3.03720	49.97
3.05387	49.98
3.07053	50.00
3.08720	50.01
3.10387	50.03
3.12053	50.03
3.13720	50.04
3.15387	50.04
3.17053	50.05
3.18720	50.05
3.20387	50.05
3.22053	50.05
3.23720	50.06
3.25387	50.07
3.27053	50.08
3.28720	50.09
3.30387	50.10
3.32053	50.10
3.33720	50.11
3.35387	50.11
3.37053	50.09
3.38720	50.07
3.40387	50.06
3.42053	50.05
3.43720	50.03
3.45387	50.03
3.47053	50.03
3.48720	50.03
3.50387	50.04
3.52053	50.04
3.53720	50.05
3.55387	50.05
3.57053	50.05
3.58720	50.06
3.60387	50.07
3.62053	50.08
3.63720	50.09
3.65387	50.10
3.67053	50.09
3.68720	50.08
3.70387	50.07
3.72053	50.06
3.73720	50.06
3.75387	50.05
3.77053	50.04
3.78720	50.05
3.80387	50.05
3.82053	50.06
3.83720	50.06
3.85387	50.07
3.87053	50.08
3.88720	50.08
3.90387	50.08
3.92053	50.08
3.93720	50.07
3.95387	50.07
3.97053	50.08
3.98720	50.07

[Status Trace (Injection Unit Temperature)]
Interval(msec)	1000
# of Points	240
Start Time(min)	0.004
End Time(min)	3.987
Intensity Units	
Intensity Multiplier	1
R.Time (min)	Intensity
0.00387	99.98
0.02053	99.98
0.03720	99.98
0.05387	99.97
0.07053	99.98
0.08720	99.98
0.10387	99.98
0.12053	99.98
0.13720	99.98
0.15387	99.98
0.17053	99.98
0.18720	99.98
0.20387	99.98
0.22053	99.98
0.23720	99.98
0.25387	99.98
0.27053	99.98
0.28720	99.98
0.30387	99.98
0.32053	99.98
0.33720	99.98
0.35387	99.98
0.37053	99.98
0.38720	99.97
0.40387	99.98
0.42053	99.98
0.43720	99.98
0.45387	99.98
0.47053	99.98
0.48720	99.98
0.50387	99.98
0.52053	99.98
0.53720	99.98
0.55387	99.98
0.57053	99.98
0.58720	99.98
0.60387	99.98
0.62053	99.98
0.63720	99.98
0.65387	99.98
0.67053	99.98
0.68720	99.98
0.70387	99.98
0.72053	99.98
0.73720	99.98
0.75387	99.98
0.77053	99.98
0.78720	99.98
0.80387	99.98
0.82053	99.98
0.83720	99.97
0.85387	99.98
0.87053	99.98
0.88720	99.98
0.90387	99.98
0.92053	99.98
0.93720	99.98
0.95387	99.98
0.97053	99.98
0.98720	99.98
1.00387	99.98
1.02053	99.98
1.03720	99.98
1.05387	99.98
1.07053	99.98
1.08720	99.98
1.10387	99.98
1.12053	99.98
1.13720	99.98
1.15387	99.98
1.17053	99.98
1.18720	99.98
1.20387	99.98
1.22053	99.98
1.23720	99.98
1.25387	99.98
1.27053	99.98
1.28720	99.98
1.30387	99.98
1.32053	99.98
1.33720	99.98
1.35387	99.98
1.37053	99.99
1.38720	99.98
1.40387	99.99
1.42053	99.99
1.43720	99.98
1.45387	99.98
1.47053	99.98
1.48720	99.98
1.50387	99.98
1.52053	99.98
1.53720	99.99
1.55387	99.98
1.57053	99.99
1.58720	99.98
1.60387	99.98
1.62053	99.99
1.63720	99.98
1.65387	99.99
1.67053	99.99
1.68720	99.98
1.70387	99.98
1.72053	99.98
1.73720	99.98
1.75387	99.99
1.77053	99.99
1.78720	99.98
1.80387	99.99
1.82053	99.99
1.83720	99.98
1.85387	99.99
1.87053	99.99
1.88720	99.98
1.90387	99.98
1.92053	99.98
1.93720	99.98
1.95387	99.98
1.97053	99.98
1.98720	99.98
2.00387	99.98
2.02053	99.98
2.03720	99.98
2.05387	99.98
2.07053	99.98
2.08720	99.98
2.10387	99.97
2.12053	99.98
2.13720	99.97
2.15387	99.98
2.17053	99.97
2.18720	99.97
2.20387	99.97
2.22053	99.97
2.23720	99.97
2.25387	99.97
2.27053	99.97
2.28720	99.97
2.30387	99.97
2.32053	99.97
2.33720	99.97
2.35387	99.97
2.37053	99.96
2.38720	99.97
2.40387	99.96
2.42053	99.97
2.43720	99.96
2.45387	99.96
2.47053	99.96
2.48720	99.96
2.50387	99.96
2.52053	99.96
2.53720	99.96
2.55387	99.97
2.57053	99.97
2.58720	99.97
2.60387	99.97
2.62053	99.97
2.63720	99.96
2.65387	99.97
2.67053	99.97
2.68720	99.97
2.70387	99.98
2.72053	99.97
2.73720	99.98
2.75387	99.98
2.77053	99.98
2.78720	99.98
2.80387	99.98
2.82053	99.99
2.83720	99.99
2.85387	99.99
2.87053	99.99
2.88720	100.00
2.90387	100.00
2.92053	99.99
2.93720	100.00
2.95387	100.00
2.97053	100.00
2.98720	100.00
3.00387	100.00
3.02053	100.01
3.03720	100.01
3.05387	100.01
3.07053	100.01
3.08720	100.01
3.10387	100.02
3.12053	100.02
3.13720	100.02
3.15387	100.02
3.17053	100.02
3.18720	100.02
3.20387	100.03
3.22053	100.02
3.23720	100.03
3.25387	100.03
3.27053	100.03
3.28720	100.03
3.30387	100.03
3.32053	100.03
3.33720	100.03
3.35387	100.04
3.37053	100.03
3.38720	100.04
3.40387	100.04
3.42053	100.04
3.43720	100.04
3.45387	100.04
3.47053	100.04
3.48720	100.04
3.50387	100.03
3.52053	100.05
3.53720	100.04
3.55387	100.04
3.57053	100.04
3.58720	100.03
3.60387	100.04
3.62053	100.04
3.63720	100.05
3.65387	100.04
3.67053	100.04
3.68720	100.05
3.70387	100.05
3.72053	100.05
3.73720	100.05
3.75387	100.05
3.77053	100.05
3.78720	100.05
3.80387	100.04
3.82053	100.05
3.83720	100.05
3.85387	100.05
3.87053	100.05
3.88720	100.05
3.90387	100.05
3.92053	100.05
3.93720	100.05
3.95387	100.05
3.97053	100.05
3.98720	100.05

[Status Trace (Carrier Gas Pressure)]
Interval(msec)	1000
# of Points	240
Start Time(min)	0.004
End Time(min)	3.987
Intensity Units	
Intensity Multiplier	1
R.Time (min)	Intensity
0.00387	58.00
0.02053	56.07
0.03720	56.58
0.05387	58.90
0.07053	59.71
0.08720	58.16
0.10387	57.98
0.12053	58.01
0.13720	58.01
0.15387	58.01
0.17053	58.00
0.18720	58.00
0.20387	58.00
0.22053	58.00
0.23720	58.00
0.25387	58.00
0.27053	58.00
0.28720	58.00
0.30387	58.00
0.32053	58.00
0.33720	58.00
0.35387	58.00
0.37053	58.00
0.38720	58.00
0.40387	58.00
0.42053	58.00
0.43720	58.00
0.45387	58.00
0.47053	58.00
0.48720	58.00
0.50387	58.00
0.52053	58.00
0.53720	58.00
0.55387	58.00
0.57053	58.00
0.58720	58.00
0.60387	58.00
0.62053	58.00
0.63720	58.00
0.65387	58.00
0.67053	58.00
0.68720	58.00
0.70387	58.00
0.72053	58.00
0.73720	58.00
0.75387	58.00
0.77053	58.00
0.78720	58.00
0.80387	58.00
0.82053	58.00
0.83720	58.00
0.85387	58.00
0.87053	58.00
0.88720	58.00
0.90387	58.00
0.92053	58.00
0.93720	58.00
0.95387	58.00
0.97053	58.00
0.98720	58.00
1.00387	58.00
1.02053	58.00
1.03720	58.00
1.05387	58.00
1.07053	58.00
1.08720	58.00
1.10387	58.00
1.12053	58.00
1.13720	58.00
1.15387	58.00
1.17053	58.00
1.18720	58.00
1.20387	58.00
1.22053	58.00
1.23720	58.00
1.25387	58.00
1.27053	58.00
1.28720	58.00
1.30387	58.00
1.32053	58.00
1.33720	58.00
1.35387	58.00
1.37053	58.00
1.38720	58.00
1.40387	58.00
1.42053	58.00
1.43720	58.00
1.45387	58.00
1.47053	58.00
1.48720	58.00
1.50387	58.00
1.52053	58.00
1.53720	58.00
1.55387	58.00
1.57053	58.00
1.58720	58.00
1.60387	58.00
1.62053	58.00
1.63720	58.00
1.65387	58.00
1.67053	58.01
1.68720	58.01
1.70387	58.00
1.72053	58.00
1.73720	58.00
1.75387	58.00
1.77053	58.00
1.78720	58.00
1.80387	58.00
1.82053	58.00
1.83720	58.00
1.85387	58.00
1.87053	58.00
1.88720	58.00
1.90387	58.00
1.92053	58.00
1.93720	58.00
1.95387	58.00
1.97053	58.00
1.98720	58.00
2.00387	58.00
2.02053	58.00
2.03720	58.00
2.05387	58.00
2.07053	58.00
2.08720	58.00
2.10387	58.00
2.12053	58.00
2.13720	58.00
2.15387	58.00
2.17053	58.00
2.18720	58.00
2.20387	58.00
2.22053	58.00
2.23720	58.00
2.25387	58.00
2.27053	58.00
2.28720	58.00
2.30387	58.00
2.32053	58.00
2.33720	58.00
2.35387	58.00
2.37053	58.00
2.38720	57.99
2.40387	57.99
2.42053	58.00
2.43720	58.00
2.45387	58.00
2.47053	58.00
2.48720	58.00
2.50387	57.98
2.52053	58.01
2.53720	57.99
2.55387	58.00
2.57053	58.00
2.58720	58.00
2.60387	58.00
2.62053	58.00
2.63720	58.00
2.65387	58.00
2.67053	58.00
2.68720	58.00
2.70387	58.00
2.72053	58.00
2.73720	58.00
2.75387	58.00
2.77053	58.00
2.78720	58.00
2.80387	58.00
2.82053	58.00
2.83720	58.00
2.85387	58.00
2.87053	58.00
2.88720	58.00
2.90387	58.00
2.92053	58.00
2.93720	58.00
2.95387	58.00
2.97053	58.00
2.98720	58.00
3.00387	58.00
3.02053	58.00
3.03720	58.00
3.05387	58.00
3.07053	58.00
3.08720	58.00
3.10387	58.00
3.12053	58.00
3.13720	58.00
3.15387	58.00
3.17053	58.00
3.18720	58.00
3.20387	58.00
3.22053	58.00
3.23720	58.00
3.25387	58.00
3.27053	58.00
3.28720	58.00
3.30387	58.00
3.32053	58.00
3.33720	58.00
3.35387	58.00
3.37053	58.00
3.38720	58.00
3.40387	58.00
3.42053	58.00
3.43720	58.00
3.45387	58.00
3.47053	58.00
3.48720	58.00
3.50387	58.00
3.52053	58.00
3.53720	58.00
3.55387	58.00
3.57053	58.00
3.58720	58.00
3.60387	58.00
3.62053	58.00
3.63720	58.00
3.65387	58.00
3.67053	58.00
3.68720	58.00
3.70387	58.00
3.72053	58.00
3.73720	58.00
3.75387	58.00
3.77053	58.00
3.78720	58.00
3.80387	58.00
3.82053	58.00
3.83720	58.00
3.85387	58.00
3.87053	58.00
3.88720	58.00
3.90387	58.00
3.92053	58.00
3.93720	58.00
3.95387	58.00
3.97053	58.00
3.98720	58.00

[Status Trace (Carrier Gas Flow)]
Interval(msec)	1000
# of Points	240
Start Time(min)	0.004
End Time(min)	3.987
Intensity Units	
Intensity Multiplier	1
R.Time (min)	Intensity
0.00387	34.52
0.02053	34.58
0.03720	34.55
0.05387	34.55
0.07053	34.49
0.08720	34.52
0.10387	34.52
0.12053	34.52
0.13720	34.52
0.15387	34.52
0.17053	34.52
0.18720	34.52
0.20387	34.51
0.22053	34.53
0.23720	34.52
0.25387	34.52
0.27053	34.52
0.28720	34.52
0.30387	34.52
0.32053	34.51
0.33720	34.52
0.35387	34.52
0.37053	34.52
0.38720	34.52
0.40387	34.52
0.42053	34.52
0.43720	34.52
0.45387	34.52
0.47053	34.52
0.48720	34.52
0.50387	34.52
0.52053	34.52
0.53720	34.52
0.55387	34.52
0.57053	34.52
0.58720	34.52
0.60387	34.52
0.62053	34.52
0.63720	34.52
0.65387	34.51
0.67053	34.52
0.68720	34.52
0.70387	34.52
0.72053	34.52
0.73720	34.52
0.75387	34.52
0.77053	34.52
0.78720	34.52
0.80387	34.52
0.82053	34.52
0.83720	34.51
0.85387	34.51
0.87053	34.52
0.88720	34.51
0.90387	34.52
0.92053	34.52
0.93720	34.52
0.95387	34.52
0.97053	34.51
0.98720	34.52
1.00387	34.52
1.02053	34.51
1.03720	34.52
1.05387	34.51
1.07053	34.52
1.08720	34.52
1.10387	34.51
1.12053	34.51
1.13720	34.52
1.15387	34.52
1.17053	34.52
1.18720	34.52
1.20387	34.52
1.22053	34.52
1.23720	34.51
1.25387	34.52
1.27053	34.51
1.28720	34.52
1.30387	34.52
1.32053	34.52
1.33720	34.52
1.35387	34.51
1.37053	34.52
1.38720	34.52
1.40387	34.52
1.42053	34.51
1.43720	34.52
1.45387	34.52
1.47053	34.52
1.48720	34.51
1.50387	34.53
1.52053	34.51
1.53720	34.52
1.55387	34.52
1.57053	34.52
1.58720	34.53
1.60387	34.52
1.62053	34.52
1.63720	34.52
1.65387	34.52
1.67053	34.52
1.68720	34.51
1.70387	34.53
1.72053	34.52
1.73720	34.51
1.75387	34.52
1.77053	34.51
1.78720	34.52
1.80387	34.52
1.82053	34.52
1.83720	34.52
1.85387	34.52
1.87053	34.52
1.88720	34.52
1.90387	34.52
1.92053	34.52
1.93720	34.52
1.95387	34.52
1.97053	34.52
1.98720	34.52
2.00387	34.52
2.02053	34.52
2.03720	34.52
2.05387	34.52
2.07053	34.52
2.08720	34.52
2.10387	34.52
2.12053	34.52
2.13720	34.52
2.15387	34.52
2.17053	34.51
2.18720	34.52
2.20387	34.52
2.22053	34.52
2.23720	34.51
2.25387	34.51
2.27053	34.52
2.28720	34.52
2.30387	34.52
2.32053	34.52
2.33720	34.52
2.35387	34.52
2.37053	34.52
2.38720	34.52
2.40387	34.52
2.42053	34.52
2.43720	34.52
2.45387	34.52
2.47053	34.52
2.48720	34.52
2.50387	34.61
2.52053	34.52
2.53720	34.51
2.55387	34.52
2.57053	34.52
2.58720	34.52
2.60387	34.51
2.62053	34.52
2.63720	34.52
2.65387	34.53
2.67053	34.52
2.68720	34.52
2.70387	34.52
2.72053	34.52
2.73720	34.51
2.75387	34.52
2.77053	34.52
2.78720	34.52
2.80387	34.51
2.82053	34.53
2.83720	34.52
2.85387	34.51
2.87053	34.53
2.88720	34.52
2.90387	34.53
2.92053	34.51
2.93720	34.52
2.95387	34.52
2.97053	34.52
2.98720	34.51
3.00387	34.52
3.02053	34.53
3.03720	34.52
3.05387	34.52
3.07053	34.52
3.08720	34.52
3.10387	34.52
3.12053	34.52
3.13720	34.52
3.15387	34.52
3.17053	34.51
3.18720	34.51
3.20387	34.51
3.22053	34.51
3.23720	34.52
3.25387	34.52
3.27053	34.52
3.28720	34.51
3.30387	34.51
3.32053	34.52
3.33720	34.52
3.35387	34.52
3.37053	34.51
3.38720	34.52
3.40387	34.53
3.42053	34.53
3.43720	34.53
3.45387	34.52
3.47053	34.52
3.48720	34.52
3.50387	34.53
3.52053	34.51
3.53720	34.52
3.55387	34.51
3.57053	34.53
3.58720	34.51
3.60387	34.51
3.62053	34.52
3.63720	34.51
3.65387	34.52
3.67053	34.52
3.68720	34.52
3.70387	34.52
3.72053	34.52
3.73720	34.52
3.75387	34.52
3.77053	34.52
3.78720	34.52
3.80387	34.52
3.82053	34.51
3.83720	34.51
3.85387	34.52
3.87053	34.52
3.88720	34.52
3.90387	34.52
3.92053	34.52
3.93720	34.52
3.95387	34.52
3.97053	34.52
3.98720	34.52

[Status Trace (Column Flow)]
Interval(msec)	1000
# of Points	240
Start Time(min)	0.004
End Time(min)	3.987
Intensity Units	
Intensity Multiplier	1
R.Time (min)	Intensity
0.00387	5.52
0.02053	5.30
0.03720	5.35
0.05387	5.62
0.07053	5.72
0.08720	5.54
0.10387	5.52
0.12053	5.52
0.13720	5.52
0.15387	5.52
0.17053	5.52
0.18720	5.52
0.20387	5.52
0.22053	5.52
0.23720	5.52
0.25387	5.52
0.27053	5.52
0.28720	5.52
0.30387	5.52
0.32053	5.52
0.33720	5.52
0.35387	5.52
0.37053	5.52
0.38720	5.52
0.40387	5.52
0.42053	5.52
0.43720	5.52
0.45387	5.52
0.47053	5.52
0.48720	5.52
0.50387	5.52
0.52053	5.52
0.53720	5.52
0.55387	5.52
0.57053	5.52
0.58720	5.52
0.60387	5.52
0.62053	5.52
0.63720	5.52
0.65387	5.52
0.67053	5.52
0.68720	5.52
0.70387	5.52
0.72053	5.52
0.73720	5.52
0.75387	5.52
0.77053	5.52
0.78720	5.52
0.80387	5.52
0.82053	5.52
0.83720	5.52
0.85387	5.52
0.87053	5.52
0.88720	5.52
0.90387	5.52
0.92053	5.52
0.93720	5.52
0.95387	5.52
0.97053	5.52
0.98720	5.52
1.00387	5.52
1.02053	5.52
1.03720	5.52
1.05387	5.52
1.07053	5.52
1.08720	5.52
1.10387	5.52
1.12053	5.52
1.13720	5.52
1.15387	5.52
1.17053	5.52
1.18720	5.52
1.20387	5.52
1.22053	5.52
1.23720	5.52
1.25387	5.52
1.27053	5.52
1.28720	5.52
1.30387	5.52
1.32053	5.52
1.33720	5.52
1.35387	5.52
1.37053	5.52
1.38720	5.52
1.40387	5.52
1.42053	5.52
1.43720	5.52
1.45387	5.52
1.47053	5.52
1.48720	5.52
1.50387	5.52
1.52053	5.52
1.53720	5.52
1.55387	5.52
1.57053	5.52
1.58720	5.52
1.60387	5.52
1.62053	5.52
1.63720	5.51
1.65387	5.50
1.67053	5.49
1.68720	5.48
1.70387	5.47
1.72053	5.46
1.73720	5.45
1.75387	5.44
1.77053	5.43
1.78720	5.42
1.80387	5.41
1.82053	5.40
1.83720	5.39
1.85387	5.38
1.87053	5.37
1.88720	5.36
1.90387	5.35
1.92053	5.34
1.93720	5.33
1.95387	5.32
1.97053	5.31
1.98720	5.30
2.00387	5.29
2.02053	5.28
2.03720	5.27
2.05387	5.26
2.07053	5.25
2.08720	5.24
2.10387	5.23
2.12053	5.22
2.13720	5.21
2.15387	5.21
2.17053	5.20
2.18720	5.19
2.20387	5.18
2.22053	5.17
2.23720	5.16
2.25387	5.15
2.27053	5.14
2.28720	5.13
2.30387	5.12
2.32053	5.11
2.33720	5.10
2.35387	5.10
2.37053	5.09
2.38720	5.09
2.40387	5.09
2.42053	5.09
2.43720	5.09
2.45387	5.09
2.47053	5.09
2.48720	5.09
2.50387	5.08
2.52053	5.09
2.53720	5.08
2.55387	5.08
2.57053	5.08
2.58720	5.08
2.60387	5.08
2.62053	5.08
2.63720	5.08
2.65387	5.08
2.67053	5.08
2.68720	5.08
2.70387	5.08
2.72053	5.08
2.73720	5.08
2.75387	5.08
2.77053	5.08
2.78720	5.08
2.80387	5.08
2.82053	5.08
2.83720	5.08
2.85387	5.08
2.87053	5.08
2.88720	5.08
2.90387	5.08
2.92053	5.08
2.93720	5.08
2.95387	5.08
2.97053	5.08
2.98720	5.08
3.00387	5.08
3.02053	5.08
3.03720	5.08
3.05387	5.08
3.07053	5.08
3.08720	5.08
3.10387	5.08
3.12053	5.08
3.13720	5.08
3.15387	5.08
3.17053	5.08
3.18720	5.08
3.20387	5.08
3.22053	5.08
3.23720	5.08
3.25387	5.08
3.27053	5.08
3.28720	5.07
3.30387	5.07
3.32053	5.07
3.33720	5.07
3.35387	5.07
3.37053	5.07
3.38720	5.08
3.40387	5.08
3.42053	5.08
3.43720	5.08
3.45387	5.08
3.47053	5.08
3.48720	5.08
3.50387	5.08
3.52053	5.08
3.53720	5.08
3.55387	5.08
3.57053	5.08
3.58720	5.08
3.60387	5.08
3.62053	5.08
3.63720	5.07
3.65387	5.07
3.67053	5.07
3.68720	5.08
3.70387	5.08
3.72053	5.08
3.73720	5.08
3.75387	5.08
3.77053	5.08
3.78720	5.08
3.80387	5.08
3.82053	5.08
3.83720	5.08
3.85387	5.08
3.87053	5.08
3.88720	5.08
3.90387	5.07
3.92053	5.07
3.93720	5.08
3.95387	5.08
3.97053	5.08
3.98720	5.08

[Status Trace (Linear Velocity)]
Interval(msec)	1000
# of Points	240
Start Time(min)	0.004
End Time(min)	3.987
Intensity Units	
Intensity Multiplier	1
R.Time (min)	Intensity
0.00387	39.01
0.02053	37.75
0.03720	38.08
0.05387	39.60
0.07053	40.13
0.08720	39.11
0.10387	39.00
0.12053	39.02
0.13720	39.02
0.15387	39.02
0.17053	39.02
0.18720	39.02
0.20387	39.02
0.22053	39.02
0.23720	39.01
0.25387	39.01
0.27053	39.01
0.28720	39.01
0.30387	39.01
0.32053	39.02
0.33720	39.02
0.35387	39.02
0.37053	39.02
0.38720	39.02
0.40387	39.02
0.42053	39.02
0.43720	39.02
0.45387	39.02
0.47053	39.02
0.48720	39.02
0.50387	39.02
0.52053	39.02
0.53720	39.02
0.55387	39.02
0.57053	39.02
0.58720	39.02
0.60387	39.02
0.62053	39.02
0.63720	39.02
0.65387	39.02
0.67053	39.02
0.68720	39.02
0.70387	39.02
0.72053	39.02
0.73720	39.02
0.75387	39.02
0.77053	39.02
0.78720	39.02
0.80387	39.02
0.82053	39.02
0.83720	39.02
0.85387	39.02
0.87053	39.02
0.88720	39.02
0.90387	39.02
0.92053	39.02
0.93720	39.02
0.95387	39.02
0.97053	39.02
0.98720	39.02
1.00387	39.02
1.02053	39.02
1.03720	39.02
1.05387	39.02
1.07053	39.02
1.08720	39.02
1.10387	39.02
1.12053	39.02
1.13720	39.02
1.15387	39.02
1.17053	39.02
1.18720	39.02
1.20387	39.02
1.22053	39.02
1.23720	39.01
1.25387	39.02
1.27053	39.01
1.28720	39.01
1.30387	39.01
1.32053	39.01
1.33720	39.01
1.35387	39.02
1.37053	39.02
1.38720	39.02
1.40387	39.02
1.42053	39.02
1.43720	39.02
1.45387	39.02
1.47053	39.02
1.48720	39.02
1.50387	39.02
1.52053	39.02
1.53720	39.02
1.55387	39.02
1.57053	39.02
1.58720	39.02
1.60387	39.02
1.62053	39.01
1.63720	38.99
1.65387	38.97
1.67053	38.94
1.68720	38.90
1.70387	38.86
1.72053	38.83
1.73720	38.80
1.75387	38.77
1.77053	38.74
1.78720	38.71
1.80387	38.68
1.82053	38.64
1.83720	38.61
1.85387	38.58
1.87053	38.55
1.88720	38.52
1.90387	38.49
1.92053	38.46
1.93720	38.43
1.95387	38.40
1.97053	38.37
1.98720	38.34
2.00387	38.30
2.02053	38.27
2.03720	38.25
2.05387	38.22
2.07053	38.19
2.08720	38.16
2.10387	38.13
2.12053	38.10
2.13720	38.07
2.15387	38.04
2.17053	38.01
2.18720	37.98
2.20387	37.95
2.22053	37.92
2.23720	37.89
2.25387	37.86
2.27053	37.84
2.28720	37.80
2.30387	37.77
2.32053	37.74
2.33720	37.71
2.35387	37.69
2.37053	37.67
2.38720	37.66
2.40387	37.66
2.42053	37.66
2.43720	37.66
2.45387	37.66
2.47053	37.66
2.48720	37.66
2.50387	37.65
2.52053	37.66
2.53720	37.65
2.55387	37.66
2.57053	37.65
2.58720	37.65
2.60387	37.65
2.62053	37.65
2.63720	37.65
2.65387	37.65
2.67053	37.65
2.68720	37.65
2.70387	37.65
2.72053	37.64
2.73720	37.65
2.75387	37.64
2.77053	37.64
2.78720	37.64
2.80387	37.64
2.82053	37.64
2.83720	37.64
2.85387	37.64
2.87053	37.64
2.88720	37.64
2.90387	37.64
2.92053	37.64
2.93720	37.64
2.95387	37.64
2.97053	37.64
2.98720	37.64
3.00387	37.64
3.02053	37.64
3.03720	37.64
3.05387	37.63
3.07053	37.63
3.08720	37.63
3.10387	37.63
3.12053	37.63
3.13720	37.63
3.15387	37.63
3.17053	37.63
3.18720	37.63
3.20387	37.63
3.22053	37.63
3.23720	37.63
3.25387	37.63
3.27053	37.63
3.28720	37.62
3.30387	37.62
3.32053	37.62
3.33720	37.62
3.35387	37.62
3.37053	37.62
3.38720	37.63
3.40387	37.63
3.42053	37.63
3.43720	37.63
3.45387	37.63
3.47053	37.63
3.48720	37.63
3.50387	37.63
3.52053	37.63
3.53720	37.63
3.55387	37.63
3.57053	37.63
3.58720	37.63
3.60387	37.63
3.62053	37.63
3.63720	37.62
3.65387	37.62
3.67053	37.62
3.68720	37.63
3.70387	37.63
3.72053	37.63
3.73720	37.63
3.75387	37.63
3.77053	37.63
3.78720	37.63
3.80387	37.63
3.82053	37.63
3.83720	37.63
3.85387	37.63
3.87053	37.63
3.88720	37.63
3.90387	37.62
3.92053	37.63
3.93720	37.63
3.95387	37.63
3.97053	37.63
3.98720	37.63

