[Header]
Application Name	LabSolutions
Version	5.110
Data File Name	C:\Users\User\Desktop\GC Analyses\Jack\UIC Prairie Sampling\10.19.22\221019_013.gcd
Output Date	1/4/2023
Output Time	2:27:28 PM

[File Information]
Type	Data File
Generated	12/5/2022 2:07:20 PM
Generated by	System Administrator
Modified	12/5/2022 2:12:28 PM
Modified by	System Administrator

[Sample Information]
Operator Name	System Administrator
Acquired	12/5/2022 2:08:28 PM
Sample Type	1:Standard
Level	1
Sample Name	221019_UICPrairie
Sample ID	221019_UICPrairie
ISTD Amount1	1
ISTD Amount2	1
ISTD Amount3	1
ISTD Amount4	1
ISTD Amount5	1
ISTD Amount6	1
ISTD Amount7	1
ISTD Amount8	1
ISTD Amount9	1
ISTD Amount10	1
ISTD Amount11	1
ISTD Amount12	1
ISTD Amount13	1
ISTD Amount14	1
ISTD Amount15	1
ISTD Amount16	1
ISTD Amount17	1
ISTD Amount18	1
ISTD Amount19	1
ISTD Amount20	1
ISTD Amount21	1
ISTD Amount22	1
ISTD Amount23	1
ISTD Amount24	1
ISTD Amount25	1
ISTD Amount26	1
ISTD Amount27	1
ISTD Amount28	1
ISTD Amount29	1
ISTD Amount30	1
ISTD Amount31	1
ISTD Amount32	1
Sample Amount	1
Dilution Factor	1
Vial#	1
Injection Volume	1
Injection Count	1
Bar Code	

[Original Files]
Data File	C:\Users\User\Desktop\GC Analyses\Jack\UIC Prairie Sampling\10.19.22\221019_013.gcd
Method File	C:\LabSolutions\Data\GHG_4min_2022\ghg3_togas_w_acet_4 min_new_int.gcm
Batch File	
Report Format File	c:\LabSolutions\System\DEFAULT.lsr

[File Description]


[Configuration]
Instrument Name	C0B7VH3-Instrument1
Instrument #	1
Line #	1
# of Detectors	3
Detector ID	DET#1	DET#2	DET#3
Detector Name	FID	PTCD	ECD
# of Channels	1	1	1

[Peak Table(Ch1)]
# of Peaks	3
Peak#	R.Time	I.Time	F.Time	Area	Height	A/H	Conc.	Mark	ID#	Name	k'	Plate #	Plate Ht.	Tailing	Resolution	Sep.Factor	Area Ratio	Height Ratio	Conc. %	Norm Conc.
1	1.479	1.432	1.542	9326	4196	2.222	100.000	   	1	CO	0.000	8465	17.721	1.275	0.000	0.000	0	0	16.667	16.667
2	1.571	1.542	1.619	4341	2307	1.882	100.000	 V 	2	CH4	0.062	12254	12.241	1.181	1.514	0.000	0	0	16.667	16.667
3	2.004	1.956	2.499	995258	481614	2.067	400.000	   	3	CO2	0.354	18463	8.124	1.198	7.476	5.720	0	0	66.667	66.667

[Peak Table(Ch2)]
# of Peaks	0

[Peak Table(Ch3)]
# of Peaks	4
Peak#	R.Time	I.Time	F.Time	Area	Height	A/H	Conc.	Mark	ID#	Name	k'	Plate #	Plate Ht.	Tailing	Resolution	Sep.Factor	Area Ratio	Height Ratio	Conc. %	Norm Conc.
1	2.506	2.396	2.521	1325	369	3.589	0.000	   			0.000	1356	110.648	0.000	0.000	0.000	0	0	0.000	0.000
2	2.572	2.521	2.667	2742	434	6.324	0.000	 V 			0.026	1186	126.515	0.000	0.231	0.000	0	0	0.000	0.000
3	2.737	2.667	2.825	1545	206	7.514	0.073	 V 	1	N2O	0.092	603	248.957	0.000	0.443	3.500	0	0	7.287	7.287
4	2.891	2.825	3.232	19659	4779	4.114	0.927	 V 	1	N2O	0.154	13449	11.153	1.795	0.564	1.667	0	0	92.713	92.713

[Compound Results(Ch1)]
# of IDs	6
ID#	Name	R.Time	Area	Height	Conc.	Curve	3rd	2nd	1st	Constant	Area Ratio	Height Ratio	Conc. %	Norm Conc.
1	CO	1.479	9326	4196	100.000	Linear	0.000000e+00	0.000000e+00	9.325668e+001	0.000000e+00	0	0	16.667	16.667
2	CH4	1.571	4341	2307	100.000	Linear	0.000000e+00	0.000000e+00	4.340812e+001	0.000000e+00	0	0	16.667	16.667
3	CO2	2.004	995258	481614	400.000	Linear	0.000000e+00	0.000000e+00	2.488145e+003	0.000000e+00	0	0	66.667	66.667
4	Ethylene	0.000	0	0	0.000	Linear	0.000000e+00	0.000000e+00	0.000000e+00	0.000000e+00	0	0	0.000	0.000
5	Acetylene	0.000	0	0	0.000	Linear	0.000000e+00	0.000000e+00	0.000000e+00	0.000000e+00	0	0	0.000	0.000
6	Ethane	0.000	0	0	0.000	Linear	0.000000e+00	0.000000e+00	0.000000e+00	0.000000e+00	0	0	0.000	0.000

[Compound Results(Ch2)]
# of IDs	5
ID#	Name	R.Time	Area	Height	Conc.	Curve	3rd	2nd	1st	Constant	Area Ratio	Height Ratio	Conc. %	Norm Conc.
1	Hydrogen	0.000	0	0	0.000	Linear	0.000000e+00	0.000000e+00	0.000000e+00	0.000000e+00	0	0	0.000	0.000
2	Oxygen	0.000	0	0	0.000	Linear	0.000000e+00	0.000000e+00	0.000000e+00	0.000000e+00	0	0	0.000	0.000
3	Nitrogen	0.000	0	0	0.000	Linear	0.000000e+00	0.000000e+00	0.000000e+00	0.000000e+00	0	0	0.000	0.000
4	Methane	0.000	0	0	0.000	Linear	0.000000e+00	0.000000e+00	0.000000e+00	0.000000e+00	0	0	0.000	0.000
5	Carbon Monoxide	0.000	0	0	0.000	Linear	0.000000e+00	0.000000e+00	0.000000e+00	0.000000e+00	0	0	0.000	0.000

[Compound Results(Ch3)]
# of IDs	2
ID#	Name	R.Time	Area	Height	Conc.	Curve	3rd	2nd	1st	Constant	Area Ratio	Height Ratio	Conc. %	Norm Conc.
1	N2O	2.891	21205	4985	1.000	Linear	0.000000e+00	0.000000e+00	2.120459e+004	0.000000e+00	0	0	100.000	100.000
2	SF6	0.000	0	0	0.000	Linear	0.000000e+00	0.000000e+00	0.000000e+00	0.000000e+00	0	0	0.000	0.000

[Group Results(Ch1)]
# of Groups	0

[Group Results(Ch2)]
# of Groups	0

[Group Results(Ch3)]
# of Groups	0

[Chromatogram (Ch1)]
Interval(msec)	220
# of Points	1091
Start Time(min)	0.002
End Time(min)	3.998
R.Time (min)	Intensity
0.00167	2
0.00533	5
0.00900	3
0.01267	-4
0.01633	-10
0.02000	-16
0.02367	-21
0.02733	-23
0.03100	-24
0.03467	-26
0.03833	-29
0.04200	-30
0.04567	-29
0.04933	-28
0.05300	-28
0.05667	-27
0.06033	-25
0.06400	-21
0.06767	-16
0.07133	-15
0.07500	-18
0.07867	-22
0.08233	-25
0.08600	-24
0.08967	-22
0.09333	-22
0.09700	-24
0.10067	-30
0.10433	-38
0.10800	-44
0.11167	-48
0.11533	-53
0.11900	-51
0.12267	-42
0.12633	-31
0.13000	-25
0.13367	-26
0.13733	-29
0.14100	-29
0.14467	-30
0.14833	-31
0.15200	-34
0.15567	-37
0.15933	-36
0.16300	-32
0.16667	-30
0.17033	-31
0.17400	-36
0.17767	-41
0.18133	-47
0.18500	-53
0.18867	-57
0.19233	-57
0.19600	-57
0.19967	-55
0.20333	-54
0.20700	-54
0.21067	-54
0.21433	-54
0.21800	-52
0.22167	-50
0.22533	-49
0.22900	-49
0.23267	-47
0.23633	-42
0.24000	-35
0.24367	-29
0.24733	-25
0.25100	-25
0.25467	-26
0.25833	-28
0.26200	-33
0.26567	-39
0.26933	-45
0.27300	-49
0.27667	-51
0.28033	-55
0.28400	-59
0.28767	-62
0.29133	-63
0.29500	-60
0.29867	-53
0.30233	-43
0.30600	-33
0.30967	-30
0.31333	-31
0.31700	-36
0.32067	-39
0.32433	-41
0.32800	-43
0.33167	-45
0.33533	-49
0.33900	-53
0.34267	-55
0.34633	-54
0.35000	-53
0.35367	-55
0.35733	-58
0.36100	-63
0.36467	-65
0.36833	-66
0.37200	-66
0.37567	-65
0.37933	-65
0.38300	-66
0.38667	-65
0.39033	-63
0.39400	-57
0.39767	-51
0.40133	-48
0.40500	-47
0.40867	-43
0.41233	-39
0.41600	-39
0.41967	-44
0.42333	-50
0.42700	-54
0.43067	-58
0.43433	-63
0.43800	-67
0.44167	-69
0.44533	-70
0.44900	-69
0.45267	-68
0.45633	-68
0.46000	-66
0.46367	-66
0.46733	-66
0.47100	-66
0.47467	-65
0.47833	-68
0.48200	-72
0.48567	-72
0.48933	-71
0.49300	-68
0.49667	-65
0.50033	-62
0.50400	-60
0.50767	-60
0.51133	-65
0.51500	-70
0.51867	-75
0.52233	-79
0.52600	-83
0.52967	-86
0.53333	-83
0.53700	-78
0.54067	-75
0.54433	-76
0.54800	-77
0.55167	-78
0.55533	-78
0.55900	-75
0.56267	-71
0.56633	-69
0.57000	-69
0.57367	-68
0.57733	-70
0.58100	-73
0.58467	-74
0.58833	-72
0.59200	-66
0.59567	-59
0.59933	-55
0.60300	-57
0.60667	-59
0.61033	-60
0.61400	-60
0.61767	-62
0.62133	-69
0.62500	-78
0.62867	-87
0.63233	-97
0.63600	-102
0.63967	-100
0.64333	-93
0.64700	-84
0.65067	-80
0.65433	-78
0.65800	-79
0.66167	-81
0.66533	-84
0.66900	-88
0.67267	-87
0.67633	-83
0.68000	-86
0.68367	-90
0.68733	-93
0.69100	-93
0.69467	-90
0.69833	-87
0.70200	-86
0.70567	-86
0.70933	-87
0.71300	-85
0.71667	-80
0.72033	-73
0.72400	-68
0.72767	-69
0.73133	-75
0.73500	-83
0.73867	-89
0.74233	-92
0.74600	-94
0.74967	-95
0.75333	-99
0.75700	-104
0.76067	-107
0.76433	-104
0.76800	-99
0.77167	-94
0.77533	-92
0.77900	-93
0.78267	-98
0.78633	-100
0.79000	-99
0.79367	-92
0.79733	-82
0.80100	-76
0.80467	-73
0.80833	-74
0.81200	-79
0.81567	-87
0.81933	-94
0.82300	-98
0.82667	-103
0.83033	-107
0.83400	-111
0.83767	-113
0.84133	-114
0.84500	-114
0.84867	-113
0.85233	-110
0.85600	-106
0.85967	-104
0.86333	-102
0.86700	-101
0.87067	-101
0.87433	-100
0.87800	-99
0.88167	-101
0.88533	-104
0.88900	-107
0.89267	-106
0.89633	-104
0.90000	-104
0.90367	-104
0.90733	-105
0.91100	-105
0.91467	-107
0.91833	-110
0.92200	-110
0.92567	-106
0.92933	-101
0.93300	-100
0.93667	-101
0.94033	-100
0.94400	-100
0.94767	-101
0.95133	-103
0.95500	-103
0.95867	-103
0.96233	-108
0.96600	-114
0.96967	-118
0.97333	-122
0.97700	-125
0.98067	-126
0.98433	-123
0.98800	-118
0.99167	-115
0.99533	-116
0.99900	-118
1.00267	-116
1.00633	-111
1.01000	-105
1.01367	-100
1.01733	-95
1.02100	-93
1.02467	-96
1.02833	-103
1.03200	-115
1.03567	-125
1.03933	-131
1.04300	-131
1.04667	-122
1.05033	-111
1.05400	-100
1.05767	-95
1.06133	-96
1.06500	-104
1.06867	-117
1.07233	-127
1.07600	-132
1.07967	-134
1.08333	-132
1.08700	-130
1.09067	-130
1.09433	-132
1.09800	-131
1.10167	-129
1.10533	-130
1.10900	-132
1.11267	-131
1.11633	-127
1.12000	-122
1.12367	-121
1.12733	-124
1.13100	-127
1.13467	-131
1.13833	-134
1.14200	-136
1.14567	-138
1.14933	-139
1.15300	-136
1.15667	-131
1.16033	-125
1.16400	-123
1.16767	-125
1.17133	-129
1.17500	-132
1.17867	-134
1.18233	-134
1.18600	-131
1.18967	-125
1.19333	-118
1.19700	-116
1.20067	-120
1.20433	-126
1.20800	-131
1.21167	-133
1.21533	-138
1.21900	-144
1.22267	-148
1.22633	-147
1.23000	-144
1.23367	-142
1.23733	-140
1.24100	-137
1.24467	-134
1.24833	-132
1.25200	-133
1.25567	-132
1.25933	-128
1.26300	-126
1.26667	-130
1.27033	-139
1.27400	-144
1.27767	-147
1.28133	-146
1.28500	-142
1.28867	-141
1.29233	-144
1.29600	-146
1.29967	-146
1.30333	-142
1.30700	-141
1.31067	-141
1.31433	-139
1.31800	-136
1.32167	-136
1.32533	-142
1.32900	-149
1.33267	-152
1.33633	-148
1.34000	-139
1.34367	-129
1.34733	-124
1.35100	-125
1.35467	-129
1.35833	-134
1.36200	-142
1.36567	-151
1.36933	-159
1.37300	-163
1.37667	-164
1.38033	-166
1.38400	-166
1.38767	-165
1.39133	-161
1.39500	-156
1.39867	-152
1.40233	-154
1.40600	-160
1.40967	-167
1.41333	-173
1.41700	-175
1.42067	-176
1.42433	-174
1.42800	-170
1.43167	-163
1.43533	-155
1.43900	-144
1.44267	-122
1.44633	-44
1.45000	143
1.45367	422
1.45733	806
1.46100	1354
1.46467	2037
1.46833	2744
1.47200	3366
1.47567	3824
1.47933	4049
1.48300	3997
1.48667	3671
1.49033	3149
1.49400	2545
1.49767	1957
1.50133	1446
1.50500	1039
1.50867	734
1.51233	512
1.51600	351
1.51967	234
1.52333	150
1.52700	87
1.53067	38
1.53433	0
1.53800	-29
1.54167	-41
1.54533	-6
1.54900	134
1.55267	432
1.55633	859
1.56000	1321
1.56367	1731
1.56733	2035
1.57100	2191
1.57467	2164
1.57833	1949
1.58200	1603
1.58567	1214
1.58933	854
1.59300	558
1.59667	332
1.60033	170
1.60400	60
1.60767	-14
1.61133	-62
1.61500	-89
1.61867	-100
1.62233	-101
1.62600	-102
1.62967	-103
1.63333	-106
1.63700	-107
1.64067	-107
1.64433	-112
1.64800	-123
1.65167	-142
1.65533	-164
1.65900	-182
1.66267	-194
1.66633	-200
1.67000	-202
1.67367	-201
1.67733	-198
1.68100	-191
1.68467	-183
1.68833	-174
1.69200	-168
1.69567	-166
1.69933	-168
1.70300	-172
1.70667	-180
1.71033	-189
1.71400	-199
1.71767	-202
1.72133	-201
1.72500	-196
1.72867	-192
1.73233	-190
1.73600	-188
1.73967	-186
1.74333	-185
1.74700	-186
1.75067	-190
1.75433	-191
1.75800	-188
1.76167	-182
1.76533	-177
1.76900	-175
1.77267	-175
1.77633	-174
1.78000	-172
1.78367	-168
1.78733	-168
1.79100	-170
1.79467	-173
1.79833	-179
1.80200	-182
1.80567	-182
1.80933	-179
1.81300	-174
1.81667	-172
1.82033	-173
1.82400	-173
1.82767	-169
1.83133	-165
1.83500	-160
1.83867	-155
1.84233	-152
1.84600	-155
1.84967	-162
1.85333	-169
1.85700	-173
1.86067	-174
1.86433	-171
1.86800	-167
1.87167	-164
1.87533	-162
1.87900	-162
1.88267	-164
1.88633	-169
1.89000	-174
1.89367	-178
1.89733	-177
1.90100	-174
1.90467	-172
1.90833	-167
1.91200	-162
1.91567	-159
1.91933	-160
1.92300	-160
1.92667	-159
1.93033	-160
1.93400	-166
1.93767	-175
1.94133	-182
1.94500	-185
1.94867	-183
1.95233	-181
1.95600	-175
1.95967	-137
1.96333	91
1.96700	1224
1.97067	5620
1.97433	18702
1.97800	48799
1.98167	103227
1.98533	182153
1.98900	275427
1.99267	366441
1.99633	438466
2.00000	478807
2.00367	481466
2.00733	448379
2.01100	388862
2.01467	316462
2.01833	244162
2.02200	180734
2.02567	129937
2.02933	91800
2.03300	64414
2.03667	45319
2.04033	32239
2.04400	23351
2.04767	17317
2.05133	13198
2.05500	10355
2.05867	8362
2.06233	6934
2.06600	5886
2.06967	5097
2.07333	4489
2.07700	4011
2.08067	3619
2.08433	3291
2.08800	3016
2.09167	2781
2.09533	2581
2.09900	2408
2.10267	2254
2.10633	2115
2.11000	1989
2.11367	1874
2.11733	1772
2.12100	1683
2.12467	1604
2.12833	1534
2.13200	1470
2.13567	1410
2.13933	1351
2.14300	1290
2.14667	1230
2.15033	1173
2.15400	1120
2.15767	1069
2.16133	1023
2.16500	984
2.16867	953
2.17233	927
2.17600	903
2.17967	885
2.18333	866
2.18700	840
2.19067	807
2.19433	774
2.19800	746
2.20167	722
2.20533	701
2.20900	684
2.21267	668
2.21633	653
2.22000	635
2.22367	614
2.22733	591
2.23100	568
2.23467	547
2.23833	532
2.24200	521
2.24567	515
2.24933	507
2.25300	495
2.25667	484
2.26033	473
2.26400	463
2.26767	455
2.27133	444
2.27500	432
2.27867	420
2.28233	408
2.28600	395
2.28967	384
2.29333	377
2.29700	373
2.30067	370
2.30433	369
2.30800	366
2.31167	358
2.31533	345
2.31900	328
2.32267	312
2.32633	301
2.33000	296
2.33367	296
2.33733	296
2.34100	292
2.34467	285
2.34833	275
2.35200	267
2.35567	261
2.35933	254
2.36300	252
2.36667	252
2.37033	252
2.37400	252
2.37767	252
2.38133	252
2.38500	249
2.38867	241
2.39233	228
2.39600	217
2.39967	211
2.40333	209
2.40700	210
2.41067	212
2.41433	212
2.41800	209
2.42167	207
2.42533	200
2.42900	191
2.43267	184
2.43633	179
2.44000	175
2.44367	173
2.44733	173
2.45100	175
2.45467	176
2.45833	178
2.46200	179
2.46567	174
2.46933	167
2.47300	162
2.47667	161
2.48033	164
2.48400	166
2.48767	162
2.49133	153
2.49500	141
2.49867	130
2.50233	124
2.50600	122
2.50967	119
2.51333	118
2.51700	121
2.52067	125
2.52433	128
2.52800	133
2.53167	139
2.53533	143
2.53900	144
2.54267	140
2.54633	135
2.55000	133
2.55367	132
2.55733	130
2.56100	126
2.56467	122
2.56833	119
2.57200	115
2.57567	114
2.57933	111
2.58300	106
2.58667	105
2.59033	104
2.59400	102
2.59767	100
2.60133	101
2.60500	104
2.60867	105
2.61233	103
2.61600	102
2.61967	104
2.62333	103
2.62700	101
2.63067	99
2.63433	100
2.63800	103
2.64167	104
2.64533	103
2.64900	101
2.65267	99
2.65633	99
2.66000	98
2.66367	95
2.66733	90
2.67100	85
2.67467	80
2.67833	75
2.68200	69
2.68567	65
2.68933	65
2.69300	69
2.69667	75
2.70033	79
2.70400	79
2.70767	77
2.71133	71
2.71500	62
2.71867	56
2.72233	50
2.72600	47
2.72967	51
2.73333	61
2.73700	70
2.74067	76
2.74433	76
2.74800	74
2.75167	71
2.75533	67
2.75900	61
2.76267	55
2.76633	51
2.77000	50
2.77367	53
2.77733	59
2.78100	65
2.78467	69
2.78833	70
2.79200	69
2.79567	63
2.79933	54
2.80300	44
2.80667	36
2.81033	32
2.81400	33
2.81767	35
2.82133	39
2.82500	43
2.82867	45
2.83233	45
2.83600	45
2.83967	47
2.84333	49
2.84700	50
2.85067	49
2.85433	47
2.85800	46
2.86167	47
2.86533	50
2.86900	52
2.87267	50
2.87633	43
2.88000	39
2.88367	39
2.88733	41
2.89100	38
2.89467	31
2.89833	23
2.90200	18
2.90567	14
2.90933	14
2.91300	16
2.91667	19
2.92033	19
2.92400	20
2.92767	19
2.93133	19
2.93500	20
2.93867	20
2.94233	21
2.94600	24
2.94967	26
2.95333	24
2.95700	17
2.96067	9
2.96433	3
2.96800	1
2.97167	3
2.97533	8
2.97900	14
2.98267	18
2.98633	17
2.99000	16
2.99367	13
2.99733	9
3.00100	7
3.00467	6
3.00833	4
3.01200	4
3.01567	6
3.01933	9
3.02300	14
3.02667	21
3.03033	27
3.03400	28
3.03767	24
3.04133	16
3.04500	9
3.04867	0
3.05233	-11
3.05600	-21
3.05967	-27
3.06333	-30
3.06700	-28
3.07067	-24
3.07433	-18
3.07800	-14
3.08167	-10
3.08533	-5
3.08900	0
3.09267	5
3.09633	6
3.10000	5
3.10367	2
3.10733	-5
3.11100	-14
3.11467	-23
3.11833	-29
3.12200	-30
3.12567	-28
3.12933	-27
3.13300	-27
3.13667	-25
3.14033	-23
3.14400	-22
3.14767	-20
3.15133	-18
3.15500	-18
3.15867	-18
3.16233	-18
3.16600	-19
3.16967	-20
3.17333	-25
3.17700	-29
3.18067	-28
3.18433	-26
3.18800	-23
3.19167	-22
3.19533	-22
3.19900	-25
3.20267	-29
3.20633	-37
3.21000	-47
3.21367	-58
3.21733	-67
3.22100	-74
3.22467	-74
3.22833	-68
3.23200	-61
3.23567	-53
3.23933	-48
3.24300	-43
3.24667	-40
3.25033	-40
3.25400	-43
3.25767	-46
3.26133	-48
3.26500	-52
3.26867	-57
3.27233	-60
3.27600	-62
3.27967	-62
3.28333	-57
3.28700	-52
3.29067	-49
3.29433	-47
3.29800	-43
3.30167	-40
3.30533	-39
3.30900	-39
3.31267	-41
3.31633	-43
3.32000	-42
3.32367	-40
3.32733	-39
3.33100	-40
3.33467	-47
3.33833	-56
3.34200	-65
3.34567	-71
3.34933	-73
3.35300	-72
3.35667	-68
3.36033	-61
3.36400	-52
3.36767	-47
3.37133	-47
3.37500	-52
3.37867	-57
3.38233	-60
3.38600	-61
3.38967	-60
3.39333	-56
3.39700	-50
3.40067	-49
3.40433	-54
3.40800	-62
3.41167	-71
3.41533	-78
3.41900	-80
3.42267	-76
3.42633	-71
3.43000	-67
3.43367	-66
3.43733	-68
3.44100	-72
3.44467	-74
3.44833	-74
3.45200	-72
3.45567	-69
3.45933	-66
3.46300	-62
3.46667	-61
3.47033	-63
3.47400	-66
3.47767	-67
3.48133	-69
3.48500	-72
3.48867	-76
3.49233	-77
3.49600	-77
3.49967	-77
3.50333	-76
3.50700	-75
3.51067	-78
3.51433	-80
3.51800	-80
3.52167	-78
3.52533	-73
3.52900	-66
3.53267	-59
3.53633	-54
3.54000	-55
3.54367	-58
3.54733	-61
3.55100	-62
3.55467	-60
3.55833	-59
3.56200	-60
3.56567	-63
3.56933	-67
3.57300	-72
3.57667	-78
3.58033	-87
3.58400	-93
3.58767	-94
3.59133	-93
3.59500	-93
3.59867	-91
3.60233	-85
3.60600	-79
3.60967	-74
3.61333	-68
3.61700	-61
3.62067	-58
3.62433	-60
3.62800	-66
3.63167	-73
3.63533	-76
3.63900	-72
3.64267	-65
3.64633	-61
3.65000	-59
3.65367	-61
3.65733	-64
3.66100	-69
3.66467	-76
3.66833	-84
3.67200	-93
3.67567	-98
3.67933	-97
3.68300	-98
3.68667	-103
3.69033	-110
3.69400	-112
3.69767	-107
3.70133	-98
3.70500	-91
3.70867	-84
3.71233	-81
3.71600	-87
3.71967	-97
3.72333	-105
3.72700	-103
3.73067	-95
3.73433	-84
3.73800	-75
3.74167	-69
3.74533	-69
3.74900	-73
3.75267	-78
3.75633	-82
3.76000	-83
3.76367	-86
3.76733	-88
3.77100	-89
3.77467	-89
3.77833	-86
3.78200	-84
3.78567	-83
3.78933	-83
3.79300	-82
3.79667	-81
3.80033	-80
3.80400	-82
3.80767	-84
3.81133	-89
3.81500	-93
3.81867	-96
3.82233	-96
3.82600	-97
3.82967	-99
3.83333	-102
3.83700	-104
3.84067	-105
3.84433	-101
3.84800	-95
3.85167	-89
3.85533	-85
3.85900	-86
3.86267	-90
3.86633	-93
3.87000	-92
3.87367	-88
3.87733	-80
3.88100	-74
3.88467	-69
3.88833	-69
3.89200	-70
3.89567	-70
3.89933	-73
3.90300	-78
3.90667	-84
3.91033	-89
3.91400	-95
3.91767	-99
3.92133	-100
3.92500	-101
3.92867	-101
3.93233	-102
3.93600	-105
3.93967	-106
3.94333	-104
3.94700	-102
3.95067	-100
3.95433	-101
3.95800	-102
3.96167	-102
3.96533	-100
3.96900	-99
3.97267	-99
3.97633	-102
3.98000	-103
3.98367	-102
3.98733	-98
3.99100	-95
3.99467	-94
3.99833	-93

[Chromatogram (Ch2)]
Interval(msec)	220
# of Points	1091
Start Time(min)	0.002
End Time(min)	3.998
R.Time (min)	Intensity
0.00167	-0
0.00533	0
0.00900	0
0.01267	0
0.01633	1
0.02000	1
0.02367	1
0.02733	0
0.03100	0
0.03467	0
0.03833	1
0.04200	1
0.04567	1
0.04933	1
0.05300	1
0.05667	1
0.06033	1
0.06400	1
0.06767	1
0.07133	1
0.07500	1
0.07867	1
0.08233	1
0.08600	1
0.08967	1
0.09333	1
0.09700	1
0.10067	0
0.10433	0
0.10800	0
0.11167	-0
0.11533	-0
0.11900	-0
0.12267	-0
0.12633	-0
0.13000	-0
0.13367	-0
0.13733	-0
0.14100	-0
0.14467	-0
0.14833	-1
0.15200	-1
0.15567	-1
0.15933	-1
0.16300	-1
0.16667	-1
0.17033	-1
0.17400	-1
0.17767	-1
0.18133	-1
0.18500	-1
0.18867	-1
0.19233	-1
0.19600	-1
0.19967	-0
0.20333	-0
0.20700	-0
0.21067	-1
0.21433	-1
0.21800	-1
0.22167	-1
0.22533	-1
0.22900	-0
0.23267	-0
0.23633	-0
0.24000	-0
0.24367	-1
0.24733	-1
0.25100	-0
0.25467	-0
0.25833	-0
0.26200	-0
0.26567	-1
0.26933	-1
0.27300	-1
0.27667	-1
0.28033	-1
0.28400	-1
0.28767	-2
0.29133	-2
0.29500	-2
0.29867	-2
0.30233	-2
0.30600	-2
0.30967	-2
0.31333	-2
0.31700	-2
0.32067	-2
0.32433	-2
0.32800	-2
0.33167	-2
0.33533	-2
0.33900	-2
0.34267	-2
0.34633	-2
0.35000	-2
0.35367	-2
0.35733	-2
0.36100	-2
0.36467	-2
0.36833	-2
0.37200	-2
0.37567	-2
0.37933	-2
0.38300	-1
0.38667	-1
0.39033	-1
0.39400	-1
0.39767	-0
0.40133	-0
0.40500	-0
0.40867	-0
0.41233	-0
0.41600	-0
0.41967	-0
0.42333	-0
0.42700	-0
0.43067	-0
0.43433	-0
0.43800	-1
0.44167	-1
0.44533	-1
0.44900	-2
0.45267	-2
0.45633	-2
0.46000	-2
0.46367	-2
0.46733	-2
0.47100	-2
0.47467	-3
0.47833	-3
0.48200	-3
0.48567	-3
0.48933	-3
0.49300	-4
0.49667	-4
0.50033	-4
0.50400	-4
0.50767	-4
0.51133	-3
0.51500	-3
0.51867	-3
0.52233	-2
0.52600	-2
0.52967	-2
0.53333	-1
0.53700	-1
0.54067	-1
0.54433	-1
0.54800	-1
0.55167	-1
0.55533	-1
0.55900	-1
0.56267	-0
0.56633	-0
0.57000	-0
0.57367	-0
0.57733	-0
0.58100	-0
0.58467	-0
0.58833	-0
0.59200	-0
0.59567	-0
0.59933	0
0.60300	0
0.60667	0
0.61033	0
0.61400	0
0.61767	0
0.62133	0
0.62500	0
0.62867	0
0.63233	0
0.63600	0
0.63967	0
0.64333	0
0.64700	0
0.65067	0
0.65433	0
0.65800	-0
0.66167	0
0.66533	0
0.66900	0
0.67267	1
0.67633	1
0.68000	1
0.68367	1
0.68733	1
0.69100	1
0.69467	0
0.69833	1
0.70200	1
0.70567	1
0.70933	1
0.71300	0
0.71667	0
0.72033	1
0.72400	1
0.72767	1
0.73133	0
0.73500	-0
0.73867	-0
0.74233	-1
0.74600	-1
0.74967	-1
0.75333	-1
0.75700	-2
0.76067	-2
0.76433	-2
0.76800	-2
0.77167	-2
0.77533	-2
0.77900	-2
0.78267	-2
0.78633	-2
0.79000	-2
0.79367	-2
0.79733	-2
0.80100	-2
0.80467	-2
0.80833	-2
0.81200	-2
0.81567	-2
0.81933	-2
0.82300	-2
0.82667	-2
0.83033	-2
0.83400	-2
0.83767	-2
0.84133	-2
0.84500	-2
0.84867	-2
0.85233	-2
0.85600	-2
0.85967	-2
0.86333	-2
0.86700	-2
0.87067	-2
0.87433	-2
0.87800	-2
0.88167	-2
0.88533	-2
0.88900	-2
0.89267	-2
0.89633	-2
0.90000	-2
0.90367	-2
0.90733	-2
0.91100	-2
0.91467	-2
0.91833	-2
0.92200	-2
0.92567	-2
0.92933	-2
0.93300	-2
0.93667	-2
0.94033	-2
0.94400	-3
0.94767	-3
0.95133	-3
0.95500	-3
0.95867	-3
0.96233	-4
0.96600	-4
0.96967	-4
0.97333	-4
0.97700	-4
0.98067	-3
0.98433	-3
0.98800	-3
0.99167	-3
0.99533	-3
0.99900	-3
1.00267	-3
1.00633	-3
1.01000	-3
1.01367	-3
1.01733	-3
1.02100	-2
1.02467	-2
1.02833	-2
1.03200	-2
1.03567	-2
1.03933	-2
1.04300	-2
1.04667	-2
1.05033	-2
1.05400	-2
1.05767	-2
1.06133	-2
1.06500	-2
1.06867	-2
1.07233	-1
1.07600	-1
1.07967	-2
1.08333	-2
1.08700	-2
1.09067	-2
1.09433	-1
1.09800	-2
1.10167	-2
1.10533	-2
1.10900	-2
1.11267	-1
1.11633	-1
1.12000	-1
1.12367	-2
1.12733	-2
1.13100	-2
1.13467	-2
1.13833	-2
1.14200	-2
1.14567	-2
1.14933	-2
1.15300	-2
1.15667	-2
1.16033	-2
1.16400	-2
1.16767	-3
1.17133	-3
1.17500	-3
1.17867	-3
1.18233	-3
1.18600	-3
1.18967	-3
1.19333	-3
1.19700	-3
1.20067	-3
1.20433	-3
1.20800	-3
1.21167	-3
1.21533	-3
1.21900	-3
1.22267	-3
1.22633	-3
1.23000	-3
1.23367	-3
1.23733	-3
1.24100	-3
1.24467	-3
1.24833	-3
1.25200	-3
1.25567	-3
1.25933	-2
1.26300	-2
1.26667	-2
1.27033	-2
1.27400	-2
1.27767	-2
1.28133	-2
1.28500	-2
1.28867	-2
1.29233	-2
1.29600	-2
1.29967	-2
1.30333	-2
1.30700	-3
1.31067	-3
1.31433	-3
1.31800	-3
1.32167	-3
1.32533	-3
1.32900	-2
1.33267	-2
1.33633	-2
1.34000	-2
1.34367	-2
1.34733	-2
1.35100	-3
1.35467	-3
1.35833	-3
1.36200	-3
1.36567	-3
1.36933	-3
1.37300	-2
1.37667	-2
1.38033	-2
1.38400	-2
1.38767	-3
1.39133	-3
1.39500	-3
1.39867	-3
1.40233	-3
1.40600	-3
1.40967	-3
1.41333	-3
1.41700	-3
1.42067	-4
1.42433	-4
1.42800	-4
1.43167	-4
1.43533	-4
1.43900	-4
1.44267	-4
1.44633	-4
1.45000	-3
1.45367	-3
1.45733	-3
1.46100	-3
1.46467	-3
1.46833	-3
1.47200	-3
1.47567	-3
1.47933	-3
1.48300	-4
1.48667	-4
1.49033	-4
1.49400	-4
1.49767	-4
1.50133	-4
1.50500	-4
1.50867	-4
1.51233	-4
1.51600	-4
1.51967	-4
1.52333	-5
1.52700	-4
1.53067	-4
1.53433	-4
1.53800	-4
1.54167	-4
1.54533	-4
1.54900	-4
1.55267	-3
1.55633	-3
1.56000	-4
1.56367	-4
1.56733	-4
1.57100	-4
1.57467	-4
1.57833	-4
1.58200	-4
1.58567	-4
1.58933	-4
1.59300	-4
1.59667	-4
1.60033	-5
1.60400	-6
1.60767	-7
1.61133	-8
1.61500	-10
1.61867	-12
1.62233	-15
1.62600	-18
1.62967	-21
1.63333	-24
1.63700	-28
1.64067	-31
1.64433	-35
1.64800	-38
1.65167	-42
1.65533	-46
1.65900	-50
1.66267	-54
1.66633	-58
1.67000	-63
1.67367	-68
1.67733	-73
1.68100	-78
1.68467	-83
1.68833	-87
1.69200	-92
1.69567	-96
1.69933	-99
1.70300	-102
1.70667	-104
1.71033	-106
1.71400	-107
1.71767	-108
1.72133	-109
1.72500	-110
1.72867	-110
1.73233	-111
1.73600	-111
1.73967	-111
1.74333	-111
1.74700	-111
1.75067	-111
1.75433	-111
1.75800	-112
1.76167	-113
1.76533	-114
1.76900	-115
1.77267	-116
1.77633	-116
1.78000	-117
1.78367	-117
1.78733	-117
1.79100	-117
1.79467	-117
1.79833	-117
1.80200	-118
1.80567	-118
1.80933	-118
1.81300	-119
1.81667	-119
1.82033	-120
1.82400	-121
1.82767	-121
1.83133	-121
1.83500	-120
1.83867	-120
1.84233	-120
1.84600	-119
1.84967	-119
1.85333	-119
1.85700	-120
1.86067	-120
1.86433	-120
1.86800	-120
1.87167	-119
1.87533	-119
1.87900	-119
1.88267	-118
1.88633	-118
1.89000	-117
1.89367	-117
1.89733	-117
1.90100	-117
1.90467	-117
1.90833	-117
1.91200	-118
1.91567	-118
1.91933	-118
1.92300	-118
1.92667	-118
1.93033	-117
1.93400	-117
1.93767	-117
1.94133	-116
1.94500	-116
1.94867	-116
1.95233	-116
1.95600	-116
1.95967	-115
1.96333	-115
1.96700	-115
1.97067	-115
1.97433	-115
1.97800	-114
1.98167	-114
1.98533	-113
1.98900	-113
1.99267	-112
1.99633	-112
2.00000	-111
2.00367	-111
2.00733	-111
2.01100	-111
2.01467	-111
2.01833	-111
2.02200	-111
2.02567	-111
2.02933	-111
2.03300	-110
2.03667	-110
2.04033	-110
2.04400	-110
2.04767	-109
2.05133	-109
2.05500	-108
2.05867	-108
2.06233	-107
2.06600	-107
2.06967	-107
2.07333	-107
2.07700	-107
2.08067	-106
2.08433	-106
2.08800	-106
2.09167	-106
2.09533	-106
2.09900	-105
2.10267	-105
2.10633	-105
2.11000	-104
2.11367	-103
2.11733	-103
2.12100	-103
2.12467	-103
2.12833	-103
2.13200	-104
2.13567	-105
2.13933	-105
2.14300	-105
2.14667	-105
2.15033	-104
2.15400	-103
2.15767	-102
2.16133	-102
2.16500	-101
2.16867	-100
2.17233	-99
2.17600	-99
2.17967	-98
2.18333	-98
2.18700	-98
2.19067	-98
2.19433	-98
2.19800	-98
2.20167	-98
2.20533	-98
2.20900	-98
2.21267	-97
2.21633	-97
2.22000	-96
2.22367	-95
2.22733	-94
2.23100	-93
2.23467	-93
2.23833	-93
2.24200	-93
2.24567	-93
2.24933	-93
2.25300	-93
2.25667	-93
2.26033	-93
2.26400	-92
2.26767	-91
2.27133	-90
2.27500	-89
2.27867	-88
2.28233	-88
2.28600	-88
2.28967	-89
2.29333	-89
2.29700	-89
2.30067	-88
2.30433	-88
2.30800	-87
2.31167	-87
2.31533	-86
2.31900	-86
2.32267	-86
2.32633	-85
2.33000	-85
2.33367	-84
2.33733	-83
2.34100	-82
2.34467	-82
2.34833	-82
2.35200	-81
2.35567	-81
2.35933	-80
2.36300	-78
2.36667	-77
2.37033	-75
2.37400	-72
2.37767	-70
2.38133	-67
2.38500	-64
2.38867	-61
2.39233	-57
2.39600	-53
2.39967	-49
2.40333	-45
2.40700	-41
2.41067	-38
2.41433	-34
2.41800	-31
2.42167	-27
2.42533	-24
2.42900	-22
2.43267	-19
2.43633	-17
2.44000	-14
2.44367	-13
2.44733	-11
2.45100	-9
2.45467	-8
2.45833	-6
2.46200	-5
2.46567	-4
2.46933	-2
2.47300	-1
2.47667	1
2.48033	2
2.48400	3
2.48767	4
2.49133	5
2.49500	6
2.49867	6
2.50233	7
2.50600	8
2.50967	9
2.51333	10
2.51700	11
2.52067	11
2.52433	12
2.52800	12
2.53167	12
2.53533	12
2.53900	12
2.54267	12
2.54633	12
2.55000	12
2.55367	12
2.55733	13
2.56100	14
2.56467	14
2.56833	14
2.57200	14
2.57567	14
2.57933	14
2.58300	14
2.58667	14
2.59033	15
2.59400	15
2.59767	15
2.60133	16
2.60500	16
2.60867	16
2.61233	16
2.61600	16
2.61967	16
2.62333	16
2.62700	16
2.63067	16
2.63433	16
2.63800	16
2.64167	17
2.64533	17
2.64900	17
2.65267	17
2.65633	18
2.66000	18
2.66367	18
2.66733	18
2.67100	18
2.67467	19
2.67833	19
2.68200	20
2.68567	21
2.68933	21
2.69300	21
2.69667	22
2.70033	22
2.70400	22
2.70767	22
2.71133	22
2.71500	22
2.71867	22
2.72233	22
2.72600	22
2.72967	22
2.73333	21
2.73700	21
2.74067	21
2.74433	21
2.74800	22
2.75167	22
2.75533	22
2.75900	23
2.76267	23
2.76633	24
2.77000	25
2.77367	25
2.77733	26
2.78100	25
2.78467	25
2.78833	25
2.79200	24
2.79567	24
2.79933	23
2.80300	23
2.80667	22
2.81033	22
2.81400	22
2.81767	22
2.82133	22
2.82500	22
2.82867	22
2.83233	22
2.83600	23
2.83967	23
2.84333	24
2.84700	24
2.85067	25
2.85433	26
2.85800	26
2.86167	26
2.86533	25
2.86900	23
2.87267	19
2.87633	13
2.88000	4
2.88367	-8
2.88733	-24
2.89100	-43
2.89467	-67
2.89833	-94
2.90200	-125
2.90567	-160
2.90933	-198
2.91300	-239
2.91667	-283
2.92033	-329
2.92400	-376
2.92767	-425
2.93133	-474
2.93500	-524
2.93867	-574
2.94233	-624
2.94600	-673
2.94967	-722
2.95333	-773
2.95700	-828
2.96067	-888
2.96433	-946
2.96800	-992
2.97167	-1017
2.97533	-1017
2.97900	-993
2.98267	-949
2.98633	-889
2.99000	-820
2.99367	-747
2.99733	-672
3.00100	-599
3.00467	-529
3.00833	-464
3.01200	-404
3.01567	-350
3.01933	-302
3.02300	-259
3.02667	-222
3.03033	-189
3.03400	-160
3.03767	-135
3.04133	-114
3.04500	-95
3.04867	-80
3.05233	-66
3.05600	-54
3.05967	-45
3.06333	-36
3.06700	-29
3.07067	-23
3.07433	-18
3.07800	-13
3.08167	-9
3.08533	-6
3.08900	-3
3.09267	-0
3.09633	2
3.10000	4
3.10367	5
3.10733	6
3.11100	7
3.11467	8
3.11833	9
3.12200	10
3.12567	11
3.12933	11
3.13300	12
3.13667	13
3.14033	13
3.14400	13
3.14767	14
3.15133	14
3.15500	14
3.15867	14
3.16233	15
3.16600	15
3.16967	15
3.17333	16
3.17700	16
3.18067	17
3.18433	17
3.18800	18
3.19167	18
3.19533	18
3.19900	19
3.20267	19
3.20633	19
3.21000	19
3.21367	20
3.21733	20
3.22100	19
3.22467	19
3.22833	20
3.23200	20
3.23567	20
3.23933	20
3.24300	20
3.24667	20
3.25033	20
3.25400	20
3.25767	20
3.26133	20
3.26500	20
3.26867	20
3.27233	21
3.27600	20
3.27967	20
3.28333	21
3.28700	21
3.29067	21
3.29433	21
3.29800	21
3.30167	21
3.30533	22
3.30900	22
3.31267	22
3.31633	22
3.32000	22
3.32367	22
3.32733	22
3.33100	23
3.33467	23
3.33833	23
3.34200	23
3.34567	24
3.34933	24
3.35300	24
3.35667	25
3.36033	25
3.36400	25
3.36767	25
3.37133	25
3.37500	25
3.37867	25
3.38233	26
3.38600	26
3.38967	26
3.39333	26
3.39700	26
3.40067	26
3.40433	26
3.40800	27
3.41167	27
3.41533	27
3.41900	27
3.42267	27
3.42633	27
3.43000	26
3.43367	26
3.43733	26
3.44100	25
3.44467	25
3.44833	25
3.45200	25
3.45567	25
3.45933	25
3.46300	25
3.46667	25
3.47033	25
3.47400	25
3.47767	25
3.48133	25
3.48500	25
3.48867	25
3.49233	25
3.49600	25
3.49967	24
3.50333	25
3.50700	25
3.51067	25
3.51433	25
3.51800	25
3.52167	25
3.52533	25
3.52900	25
3.53267	25
3.53633	25
3.54000	25
3.54367	25
3.54733	25
3.55100	25
3.55467	25
3.55833	26
3.56200	26
3.56567	26
3.56933	26
3.57300	26
3.57667	26
3.58033	26
3.58400	26
3.58767	26
3.59133	26
3.59500	26
3.59867	26
3.60233	26
3.60600	26
3.60967	26
3.61333	26
3.61700	26
3.62067	26
3.62433	26
3.62800	27
3.63167	27
3.63533	26
3.63900	26
3.64267	26
3.64633	26
3.65000	26
3.65367	26
3.65733	26
3.66100	26
3.66467	26
3.66833	26
3.67200	26
3.67567	26
3.67933	26
3.68300	26
3.68667	26
3.69033	26
3.69400	26
3.69767	26
3.70133	26
3.70500	26
3.70867	26
3.71233	26
3.71600	25
3.71967	26
3.72333	25
3.72700	25
3.73067	25
3.73433	25
3.73800	25
3.74167	25
3.74533	25
3.74900	25
3.75267	25
3.75633	25
3.76000	25
3.76367	25
3.76733	26
3.77100	26
3.77467	25
3.77833	25
3.78200	26
3.78567	26
3.78933	26
3.79300	26
3.79667	26
3.80033	26
3.80400	26
3.80767	26
3.81133	26
3.81500	26
3.81867	26
3.82233	25
3.82600	25
3.82967	25
3.83333	26
3.83700	26
3.84067	26
3.84433	26
3.84800	26
3.85167	26
3.85533	26
3.85900	26
3.86267	26
3.86633	26
3.87000	26
3.87367	26
3.87733	25
3.88100	25
3.88467	25
3.88833	25
3.89200	25
3.89567	25
3.89933	26
3.90300	26
3.90667	26
3.91033	26
3.91400	26
3.91767	26
3.92133	26
3.92500	27
3.92867	27
3.93233	27
3.93600	27
3.93967	27
3.94333	26
3.94700	26
3.95067	26
3.95433	26
3.95800	26
3.96167	26
3.96533	26
3.96900	26
3.97267	26
3.97633	26
3.98000	26
3.98367	26
3.98733	25
3.99100	25
3.99467	25
3.99833	25

[Chromatogram (Ch3)]
Interval(msec)	220
# of Points	1091
Start Time(min)	0.002
End Time(min)	3.998
R.Time (min)	Intensity
0.00167	1
0.00533	0
0.00900	1
0.01267	4
0.01633	6
0.02000	6
0.02367	7
0.02733	6
0.03100	4
0.03467	5
0.03833	4
0.04200	3
0.04567	3
0.04933	3
0.05300	1
0.05667	0
0.06033	0
0.06400	-0
0.06767	0
0.07133	3
0.07500	5
0.07867	6
0.08233	7
0.08600	8
0.08967	8
0.09333	9
0.09700	7
0.10067	6
0.10433	7
0.10800	6
0.11167	5
0.11533	5
0.11900	4
0.12267	3
0.12633	3
0.13000	4
0.13367	3
0.13733	5
0.14100	6
0.14467	5
0.14833	4
0.15200	4
0.15567	4
0.15933	5
0.16300	7
0.16667	6
0.17033	4
0.17400	4
0.17767	2
0.18133	1
0.18500	1
0.18867	2
0.19233	4
0.19600	4
0.19967	4
0.20333	2
0.20700	1
0.21067	-0
0.21433	-1
0.21800	2
0.22167	3
0.22533	2
0.22900	-3
0.23267	-3
0.23633	-3
0.24000	-1
0.24367	0
0.24733	2
0.25100	4
0.25467	6
0.25833	5
0.26200	2
0.26567	-0
0.26933	-2
0.27300	-2
0.27667	-0
0.28033	3
0.28400	5
0.28767	2
0.29133	0
0.29500	1
0.29867	3
0.30233	4
0.30600	4
0.30967	3
0.31333	2
0.31700	1
0.32067	0
0.32433	1
0.32800	1
0.33167	1
0.33533	-0
0.33900	0
0.34267	3
0.34633	4
0.35000	2
0.35367	1
0.35733	3
0.36100	6
0.36467	7
0.36833	6
0.37200	6
0.37567	6
0.37933	7
0.38300	6
0.38667	4
0.39033	4
0.39400	1
0.39767	2
0.40133	2
0.40500	2
0.40867	1
0.41233	-1
0.41600	-1
0.41967	-2
0.42333	-1
0.42700	2
0.43067	4
0.43433	4
0.43800	4
0.44167	4
0.44533	4
0.44900	6
0.45267	8
0.45633	8
0.46000	6
0.46367	2
0.46733	2
0.47100	4
0.47467	3
0.47833	4
0.48200	3
0.48567	2
0.48933	2
0.49300	2
0.49667	2
0.50033	1
0.50400	1
0.50767	3
0.51133	5
0.51500	4
0.51867	3
0.52233	-0
0.52600	-4
0.52967	-4
0.53333	-4
0.53700	-5
0.54067	-3
0.54433	-1
0.54800	0
0.55167	2
0.55533	3
0.55900	1
0.56267	1
0.56633	2
0.57000	3
0.57367	2
0.57733	1
0.58100	-1
0.58467	-3
0.58833	-1
0.59200	-0
0.59567	1
0.59933	2
0.60300	1
0.60667	-1
0.61033	-2
0.61400	-2
0.61767	-5
0.62133	-7
0.62500	-6
0.62867	-3
0.63233	1
0.63600	0
0.63967	-1
0.64333	-2
0.64700	-0
0.65067	2
0.65433	4
0.65800	4
0.66167	4
0.66533	2
0.66900	1
0.67267	2
0.67633	2
0.68000	2
0.68367	0
0.68733	-0
0.69100	-1
0.69467	-2
0.69833	0
0.70200	3
0.70567	3
0.70933	3
0.71300	3
0.71667	3
0.72033	3
0.72400	2
0.72767	-2
0.73133	-5
0.73500	-6
0.73867	-5
0.74233	-2
0.74600	-1
0.74967	-1
0.75333	-1
0.75700	-1
0.76067	-2
0.76433	-2
0.76800	-2
0.77167	-2
0.77533	-3
0.77900	-2
0.78267	-1
0.78633	2
0.79000	2
0.79367	0
0.79733	-2
0.80100	0
0.80467	1
0.80833	2
0.81200	3
0.81567	4
0.81933	3
0.82300	2
0.82667	2
0.83033	1
0.83400	-0
0.83767	-1
0.84133	0
0.84500	-1
0.84867	-1
0.85233	-2
0.85600	-2
0.85967	-2
0.86333	-3
0.86700	-4
0.87067	-1
0.87433	0
0.87800	0
0.88167	1
0.88533	1
0.88900	0
0.89267	-1
0.89633	-4
0.90000	-4
0.90367	-5
0.90733	-7
0.91100	-8
0.91467	-8
0.91833	-10
0.92200	-11
0.92567	-11
0.92933	-11
0.93300	-9
0.93667	-4
0.94033	-1
0.94400	1
0.94767	1
0.95133	1
0.95500	1
0.95867	-0
0.96233	0
0.96600	-1
0.96967	-1
0.97333	1
0.97700	1
0.98067	-0
0.98433	-4
0.98800	-6
0.99167	-5
0.99533	-0
0.99900	2
1.00267	3
1.00633	1
1.01000	-1
1.01367	-3
1.01733	-3
1.02100	-4
1.02467	-4
1.02833	-6
1.03200	-6
1.03567	-6
1.03933	-6
1.04300	-5
1.04667	-4
1.05033	-1
1.05400	1
1.05767	3
1.06133	1
1.06500	0
1.06867	-1
1.07233	-2
1.07600	-4
1.07967	-3
1.08333	-1
1.08700	-2
1.09067	-4
1.09433	-5
1.09800	-4
1.10167	-2
1.10533	-2
1.10900	-3
1.11267	-5
1.11633	-5
1.12000	-3
1.12367	-2
1.12733	-3
1.13100	-2
1.13467	-2
1.13833	-3
1.14200	-3
1.14567	-4
1.14933	-5
1.15300	-6
1.15667	-6
1.16033	-5
1.16400	-5
1.16767	-5
1.17133	-4
1.17500	-1
1.17867	-2
1.18233	-3
1.18600	-2
1.18967	-2
1.19333	-3
1.19700	-3
1.20067	-4
1.20433	-3
1.20800	-1
1.21167	-0
1.21533	-3
1.21900	-5
1.22267	-5
1.22633	-3
1.23000	-2
1.23367	-3
1.23733	-5
1.24100	-6
1.24467	-5
1.24833	-5
1.25200	-4
1.25567	-4
1.25933	-4
1.26300	-4
1.26667	-3
1.27033	-2
1.27400	-1
1.27767	-0
1.28133	1
1.28500	0
1.28867	-1
1.29233	-2
1.29600	-3
1.29967	-4
1.30333	-1
1.30700	-1
1.31067	-0
1.31433	0
1.31800	2
1.32167	2
1.32533	4
1.32900	6
1.33267	5
1.33633	3
1.34000	2
1.34367	-2
1.34733	-5
1.35100	-6
1.35467	-5
1.35833	-4
1.36200	-5
1.36567	-4
1.36933	-4
1.37300	-4
1.37667	-3
1.38033	-3
1.38400	-1
1.38767	0
1.39133	-0
1.39500	-2
1.39867	-3
1.40233	-5
1.40600	-6
1.40967	-6
1.41333	-8
1.41700	-11
1.42067	-13
1.42433	-10
1.42800	-7
1.43167	-7
1.43533	-5
1.43900	-6
1.44267	-7
1.44633	-7
1.45000	-7
1.45367	-5
1.45733	-5
1.46100	-5
1.46467	-5
1.46833	-2
1.47200	-1
1.47567	-1
1.47933	-3
1.48300	-4
1.48667	-4
1.49033	-6
1.49400	-6
1.49767	-5
1.50133	-3
1.50500	-3
1.50867	-4
1.51233	-6
1.51600	-6
1.51967	-8
1.52333	-9
1.52700	-8
1.53067	-6
1.53433	-6
1.53800	-6
1.54167	-10
1.54533	-14
1.54900	-16
1.55267	-14
1.55633	-10
1.56000	-9
1.56367	-9
1.56733	-9
1.57100	-11
1.57467	-10
1.57833	-7
1.58200	-5
1.58567	-4
1.58933	-5
1.59300	-7
1.59667	-8
1.60033	-8
1.60400	-8
1.60767	-9
1.61133	-11
1.61500	-12
1.61867	-9
1.62233	-8
1.62600	-6
1.62967	-5
1.63333	-4
1.63700	-2
1.64067	0
1.64433	1
1.64800	0
1.65167	-1
1.65533	-2
1.65900	-1
1.66267	1
1.66633	2
1.67000	4
1.67367	4
1.67733	3
1.68100	2
1.68467	2
1.68833	2
1.69200	3
1.69567	4
1.69933	3
1.70300	2
1.70667	0
1.71033	1
1.71400	4
1.71767	7
1.72133	11
1.72500	12
1.72867	12
1.73233	11
1.73600	9
1.73967	7
1.74333	6
1.74700	6
1.75067	5
1.75433	5
1.75800	5
1.76167	6
1.76533	10
1.76900	11
1.77267	10
1.77633	10
1.78000	10
1.78367	10
1.78733	13
1.79100	15
1.79467	15
1.79833	16
1.80200	17
1.80567	16
1.80933	15
1.81300	13
1.81667	13
1.82033	14
1.82400	15
1.82767	18
1.83133	20
1.83500	21
1.83867	21
1.84233	22
1.84600	22
1.84967	23
1.85333	24
1.85700	24
1.86067	23
1.86433	23
1.86800	23
1.87167	23
1.87533	24
1.87900	23
1.88267	22
1.88633	23
1.89000	24
1.89367	25
1.89733	25
1.90100	26
1.90467	26
1.90833	27
1.91200	28
1.91567	29
1.91933	29
1.92300	28
1.92667	29
1.93033	30
1.93400	29
1.93767	29
1.94133	29
1.94500	32
1.94867	30
1.95233	27
1.95600	26
1.95967	25
1.96333	27
1.96700	29
1.97067	31
1.97433	33
1.97800	34
1.98167	35
1.98533	36
1.98900	39
1.99267	43
1.99633	44
2.00000	42
2.00367	40
2.00733	42
2.01100	45
2.01467	45
2.01833	43
2.02200	43
2.02567	43
2.02933	44
2.03300	46
2.03667	48
2.04033	51
2.04400	53
2.04767	55
2.05133	55
2.05500	55
2.05867	54
2.06233	53
2.06600	53
2.06967	52
2.07333	55
2.07700	58
2.08067	59
2.08433	60
2.08800	61
2.09167	62
2.09533	60
2.09900	58
2.10267	57
2.10633	58
2.11000	62
2.11367	64
2.11733	64
2.12100	67
2.12467	70
2.12833	69
2.13200	70
2.13567	72
2.13933	74
2.14300	76
2.14667	77
2.15033	75
2.15400	73
2.15767	74
2.16133	76
2.16500	79
2.16867	78
2.17233	78
2.17600	80
2.17967	82
2.18333	84
2.18700	88
2.19067	91
2.19433	91
2.19800	88
2.20167	88
2.20533	89
2.20900	89
2.21267	90
2.21633	92
2.22000	92
2.22367	90
2.22733	90
2.23100	90
2.23467	91
2.23833	92
2.24200	92
2.24567	93
2.24933	94
2.25300	96
2.25667	97
2.26033	98
2.26400	98
2.26767	99
2.27133	99
2.27500	100
2.27867	102
2.28233	103
2.28600	103
2.28967	105
2.29333	104
2.29700	104
2.30067	106
2.30433	108
2.30800	108
2.31167	108
2.31533	111
2.31900	113
2.32267	116
2.32633	118
2.33000	121
2.33367	122
2.33733	123
2.34100	124
2.34467	125
2.34833	127
2.35200	128
2.35567	131
2.35933	132
2.36300	131
2.36667	130
2.37033	129
2.37400	129
2.37767	129
2.38133	130
2.38500	129
2.38867	126
2.39233	129
2.39600	134
2.39967	139
2.40333	143
2.40700	145
2.41067	149
2.41433	151
2.41800	152
2.42167	151
2.42533	151
2.42900	153
2.43267	153
2.43633	154
2.44000	157
2.44367	183
2.44733	244
2.45100	310
2.45467	358
2.45833	385
2.46200	406
2.46567	423
2.46933	433
2.47300	433
2.47667	432
2.48033	435
2.48400	445
2.48767	461
2.49133	481
2.49500	502
2.49867	520
2.50233	534
2.50600	537
2.50967	533
2.51333	526
2.51700	522
2.52067	520
2.52433	522
2.52800	526
2.53167	531
2.53533	538
2.53900	542
2.54267	548
2.54633	557
2.55000	569
2.55367	582
2.55733	590
2.56100	598
2.56467	606
2.56833	615
2.57200	623
2.57567	623
2.57933	618
2.58300	608
2.58667	596
2.59033	584
2.59400	570
2.59767	560
2.60133	551
2.60500	542
2.60867	534
2.61233	524
2.61600	514
2.61967	501
2.62333	487
2.62700	469
2.63067	451
2.63433	430
2.63800	404
2.64167	379
2.64533	358
2.64900	340
2.65267	328
2.65633	322
2.66000	319
2.66367	318
2.66733	317
2.67100	319
2.67467	323
2.67833	331
2.68200	338
2.68567	347
2.68933	356
2.69300	367
2.69667	375
2.70033	382
2.70400	391
2.70767	400
2.71133	412
2.71500	421
2.71867	425
2.72233	430
2.72600	434
2.72967	438
2.73333	444
2.73700	446
2.74067	447
2.74433	445
2.74800	444
2.75167	444
2.75533	441
2.75900	437
2.76267	433
2.76633	430
2.77000	430
2.77367	427
2.77733	423
2.78100	418
2.78467	415
2.78833	413
2.79200	413
2.79567	412
2.79933	411
2.80300	413
2.80667	415
2.81033	414
2.81400	413
2.81767	412
2.82133	410
2.82500	411
2.82867	414
2.83233	414
2.83600	416
2.83967	425
2.84333	449
2.84700	502
2.85067	603
2.85433	776
2.85800	1043
2.86167	1416
2.86533	1894
2.86900	2456
2.87267	3062
2.87633	3662
2.88000	4200
2.88367	4630
2.88733	4923
2.89100	5068
2.89467	5067
2.89833	4941
2.90200	4722
2.90567	4436
2.90933	4110
2.91300	3770
2.91667	3431
2.92033	3104
2.92400	2798
2.92767	2517
2.93133	2263
2.93500	2031
2.93867	1823
2.94233	1639
2.94600	1477
2.94967	1337
2.95333	1217
2.95700	1114
2.96067	1024
2.96433	948
2.96800	879
2.97167	820
2.97533	769
2.97900	725
2.98267	686
2.98633	654
2.99000	627
2.99367	606
2.99733	589
3.00100	574
3.00467	561
3.00833	549
3.01200	540
3.01567	533
3.01933	527
3.02300	521
3.02667	517
3.03033	514
3.03400	508
3.03767	501
3.04133	495
3.04500	490
3.04867	488
3.05233	487
3.05600	486
3.05967	488
3.06333	487
3.06700	486
3.07067	482
3.07433	482
3.07800	483
3.08167	485
3.08533	486
3.08900	484
3.09267	481
3.09633	481
3.10000	480
3.10367	479
3.10733	477
3.11100	474
3.11467	471
3.11833	468
3.12200	465
3.12567	461
3.12933	456
3.13300	454
3.13667	451
3.14033	449
3.14400	447
3.14767	446
3.15133	445
3.15500	445
3.15867	444
3.16233	442
3.16600	440
3.16967	436
3.17333	433
3.17700	429
3.18067	426
3.18433	422
3.18800	421
3.19167	419
3.19533	416
3.19900	413
3.20267	413
3.20633	411
3.21000	411
3.21367	411
3.21733	408
3.22100	404
3.22467	400
3.22833	399
3.23200	396
3.23567	393
3.23933	390
3.24300	389
3.24667	387
3.25033	383
3.25400	383
3.25767	385
3.26133	386
3.26500	387
3.26867	384
3.27233	378
3.27600	372
3.27967	368
3.28333	365
3.28700	363
3.29067	361
3.29433	360
3.29800	359
3.30167	356
3.30533	356
3.30900	355
3.31267	352
3.31633	349
3.32000	347
3.32367	344
3.32733	342
3.33100	341
3.33467	339
3.33833	334
3.34200	328
3.34567	325
3.34933	321
3.35300	320
3.35667	318
3.36033	318
3.36400	318
3.36767	314
3.37133	310
3.37500	308
3.37867	305
3.38233	303
3.38600	300
3.38967	299
3.39333	299
3.39700	299
3.40067	296
3.40433	293
3.40800	289
3.41167	287
3.41533	286
3.41900	284
3.42267	283
3.42633	279
3.43000	273
3.43367	270
3.43733	271
3.44100	272
3.44467	272
3.44833	272
3.45200	271
3.45567	269
3.45933	267
3.46300	264
3.46667	264
3.47033	264
3.47400	263
3.47767	261
3.48133	257
3.48500	255
3.48867	253
3.49233	255
3.49600	255
3.49967	254
3.50333	253
3.50700	253
3.51067	250
3.51433	248
3.51800	245
3.52167	244
3.52533	240
3.52900	239
3.53267	240
3.53633	243
3.54000	244
3.54367	243
3.54733	240
3.55100	239
3.55467	236
3.55833	234
3.56200	232
3.56567	230
3.56933	227
3.57300	225
3.57667	224
3.58033	225
3.58400	226
3.58767	227
3.59133	227
3.59500	225
3.59867	222
3.60233	221
3.60600	222
3.60967	225
3.61333	224
3.61700	222
3.62067	221
3.62433	218
3.62800	214
3.63167	210
3.63533	209
3.63900	211
3.64267	212
3.64633	212
3.65000	213
3.65367	211
3.65733	211
3.66100	211
3.66467	209
3.66833	208
3.67200	207
3.67567	207
3.67933	205
3.68300	204
3.68667	202
3.69033	200
3.69400	199
3.69767	198
3.70133	197
3.70500	195
3.70867	192
3.71233	191
3.71600	192
3.71967	192
3.72333	191
3.72700	192
3.73067	193
3.73433	195
3.73800	197
3.74167	196
3.74533	196
3.74900	195
3.75267	192
3.75633	190
3.76000	188
3.76367	186
3.76733	183
3.77100	182
3.77467	184
3.77833	186
3.78200	187
3.78567	187
3.78933	188
3.79300	188
3.79667	187
3.80033	186
3.80400	186
3.80767	186
3.81133	188
3.81500	188
3.81867	187
3.82233	187
3.82600	186
3.82967	185
3.83333	183
3.83700	182
3.84067	183
3.84433	182
3.84800	181
3.85167	181
3.85533	181
3.85900	182
3.86267	182
3.86633	182
3.87000	182
3.87367	181
3.87733	180
3.88100	180
3.88467	181
3.88833	181
3.89200	181
3.89567	183
3.89933	183
3.90300	179
3.90667	176
3.91033	174
3.91400	173
3.91767	179
3.92133	180
3.92500	181
3.92867	180
3.93233	178
3.93600	176
3.93967	175
3.94333	174
3.94700	174
3.95067	175
3.95433	176
3.95800	174
3.96167	171
3.96533	168
3.96900	169
3.97267	171
3.97633	171
3.98000	169
3.98367	165
3.98733	164
3.99100	163
3.99467	160
3.99833	155

[Status Trace (Column Oven Temperature)]
Interval(msec)	1000
# of Points	240
Start Time(min)	0.007
End Time(min)	3.990
Intensity Units	
Intensity Multiplier	1
R.Time (min)	Intensity
0.00653	35.00
0.02320	34.99
0.03987	34.99
0.05653	34.99
0.07320	34.99
0.08987	34.99
0.10653	34.99
0.12320	34.99
0.13987	35.00
0.15653	35.01
0.17320	35.01
0.18987	35.01
0.20653	35.01
0.22320	35.01
0.23987	35.01
0.25653	35.01
0.27320	35.00
0.28987	35.00
0.30653	35.00
0.32320	35.00
0.33987	35.01
0.35653	35.01
0.37320	35.00
0.38987	35.00
0.40653	34.99
0.42320	34.99
0.43987	35.00
0.45653	35.00
0.47320	35.00
0.48987	35.02
0.50653	35.03
0.52320	35.03
0.53987	35.03
0.55653	35.03
0.57320	35.02
0.58987	35.00
0.60653	35.00
0.62320	35.00
0.63987	34.99
0.65653	34.99
0.67320	34.99
0.68987	34.98
0.70653	34.97
0.72320	34.97
0.73987	34.97
0.75653	34.99
0.77320	34.98
0.78987	34.99
0.80653	34.99
0.82320	34.99
0.83987	34.99
0.85653	34.99
0.87320	34.99
0.88987	34.99
0.90653	34.99
0.92320	35.00
0.93987	35.00
0.95653	35.00
0.97320	35.00
0.98987	35.00
1.00653	35.00
1.02320	35.00
1.03987	35.00
1.05653	35.00
1.07320	34.99
1.08987	34.99
1.10653	34.99
1.12320	34.99
1.13987	35.00
1.15653	35.00
1.17320	35.00
1.18987	35.00
1.20653	34.99
1.22320	35.00
1.23987	34.99
1.25653	34.99
1.27320	35.00
1.28987	35.00
1.30653	35.00
1.32320	35.00
1.33987	34.99
1.35653	34.99
1.37320	34.98
1.38987	34.99
1.40653	34.98
1.42320	34.99
1.43987	34.99
1.45653	34.99
1.47320	35.00
1.48987	35.00
1.50653	35.00
1.52320	35.00
1.53987	34.99
1.55653	34.99
1.57320	34.99
1.58987	34.99
1.60653	35.04
1.62320	35.17
1.63987	35.36
1.65653	35.61
1.67320	35.94
1.68987	36.31
1.70653	36.66
1.72320	37.00
1.73987	37.30
1.75653	37.63
1.77320	37.98
1.78987	38.31
1.80653	38.65
1.82320	38.98
1.83987	39.29
1.85653	39.64
1.87320	39.96
1.88987	40.28
1.90653	40.61
1.92320	40.95
1.93987	41.28
1.95653	41.61
1.97320	41.93
1.98987	42.26
2.00653	42.57
2.02320	42.90
2.03987	43.22
2.05653	43.54
2.07320	43.87
2.08987	44.21
2.10653	44.53
2.12320	44.85
2.13987	45.22
2.15653	45.52
2.17320	45.85
2.18987	46.18
2.20653	46.53
2.22320	46.84
2.23987	47.19
2.25653	47.50
2.27320	47.82
2.28987	48.16
2.30653	48.48
2.32320	48.80
2.33987	49.12
2.35653	49.42
2.37320	49.61
2.38987	49.66
2.40653	49.65
2.42320	49.64
2.43987	49.66
2.45653	49.67
2.47320	49.67
2.48987	49.69
2.50653	49.69
2.52320	49.70
2.53987	49.73
2.55653	49.73
2.57320	49.77
2.58987	49.77
2.60653	49.78
2.62320	49.80
2.63987	49.81
2.65653	49.83
2.67320	49.84
2.68987	49.84
2.70653	49.85
2.72320	49.85
2.73987	49.87
2.75653	49.85
2.77320	49.85
2.78987	49.87
2.80653	49.89
2.82320	49.89
2.83987	49.89
2.85653	49.89
2.87320	49.88
2.88987	49.87
2.90653	49.88
2.92320	49.90
2.93987	49.92
2.95653	49.94
2.97320	49.95
2.98987	49.96
3.00653	49.96
3.02320	49.97
3.03987	49.98
3.05653	49.98
3.07320	49.99
3.08987	50.00
3.10653	50.01
3.12320	50.02
3.13987	50.03
3.15653	50.04
3.17320	50.04
3.18987	50.05
3.20653	50.05
3.22320	50.06
3.23987	50.06
3.25653	50.08
3.27320	50.09
3.28987	50.10
3.30653	50.10
3.32320	50.10
3.33987	50.10
3.35653	50.09
3.37320	50.08
3.38987	50.07
3.40653	50.06
3.42320	50.06
3.43987	50.06
3.45653	50.06
3.47320	50.07
3.48987	50.08
3.50653	50.08
3.52320	50.07
3.53987	50.07
3.55653	50.07
3.57320	50.07
3.58987	50.06
3.60653	50.06
3.62320	50.06
3.63987	50.06
3.65653	50.06
3.67320	50.06
3.68987	50.06
3.70653	50.07
3.72320	50.06
3.73987	50.06
3.75653	50.07
3.77320	50.07
3.78987	50.07
3.80653	50.07
3.82320	50.08
3.83987	50.08
3.85653	50.07
3.87320	50.07
3.88987	50.07
3.90653	50.07
3.92320	50.07
3.93987	50.07
3.95653	50.07
3.97320	50.07
3.98987	50.08

[Status Trace (Injection Unit Temperature)]
Interval(msec)	1000
# of Points	240
Start Time(min)	0.007
End Time(min)	3.990
Intensity Units	
Intensity Multiplier	1
R.Time (min)	Intensity
0.00653	99.98
0.02320	99.98
0.03987	99.98
0.05653	99.98
0.07320	99.98
0.08987	99.98
0.10653	99.98
0.12320	99.98
0.13987	99.98
0.15653	99.98
0.17320	99.98
0.18987	99.98
0.20653	99.98
0.22320	99.98
0.23987	99.98
0.25653	99.98
0.27320	99.98
0.28987	99.99
0.30653	99.99
0.32320	99.98
0.33987	99.99
0.35653	99.98
0.37320	99.99
0.38987	99.99
0.40653	99.99
0.42320	99.98
0.43987	99.99
0.45653	99.99
0.47320	99.99
0.48987	99.99
0.50653	99.99
0.52320	99.99
0.53987	99.99
0.55653	99.99
0.57320	99.98
0.58987	99.99
0.60653	99.99
0.62320	99.99
0.63987	99.99
0.65653	99.99
0.67320	99.99
0.68987	99.99
0.70653	99.99
0.72320	99.99
0.73987	99.99
0.75653	99.99
0.77320	99.99
0.78987	99.99
0.80653	99.99
0.82320	99.99
0.83987	99.99
0.85653	99.98
0.87320	99.99
0.88987	99.99
0.90653	99.99
0.92320	99.99
0.93987	99.99
0.95653	99.99
0.97320	99.99
0.98987	99.99
1.00653	99.99
1.02320	99.99
1.03987	99.99
1.05653	99.99
1.07320	99.99
1.08987	99.99
1.10653	99.99
1.12320	99.99
1.13987	99.99
1.15653	99.99
1.17320	99.99
1.18987	99.99
1.20653	99.99
1.22320	99.99
1.23987	99.99
1.25653	99.99
1.27320	99.99
1.28987	99.99
1.30653	99.99
1.32320	99.99
1.33987	99.99
1.35653	99.99
1.37320	99.99
1.38987	99.99
1.40653	99.99
1.42320	99.99
1.43987	99.99
1.45653	99.99
1.47320	99.99
1.48987	99.99
1.50653	99.99
1.52320	99.99
1.53987	99.99
1.55653	99.99
1.57320	99.99
1.58987	99.98
1.60653	99.98
1.62320	99.99
1.63987	99.99
1.65653	99.99
1.67320	99.99
1.68987	99.98
1.70653	99.98
1.72320	99.99
1.73987	99.98
1.75653	99.98
1.77320	99.98
1.78987	99.98
1.80653	99.98
1.82320	99.98
1.83987	99.98
1.85653	99.98
1.87320	99.98
1.88987	99.98
1.90653	99.98
1.92320	99.98
1.93987	99.97
1.95653	99.97
1.97320	99.98
1.98987	99.97
2.00653	99.97
2.02320	99.97
2.03987	99.97
2.05653	99.97
2.07320	99.97
2.08987	99.97
2.10653	99.97
2.12320	99.97
2.13987	99.97
2.15653	99.97
2.17320	99.97
2.18987	99.97
2.20653	99.97
2.22320	99.98
2.23987	99.97
2.25653	99.97
2.27320	99.98
2.28987	99.98
2.30653	99.97
2.32320	99.97
2.33987	99.97
2.35653	99.97
2.37320	99.97
2.38987	99.98
2.40653	99.98
2.42320	99.97
2.43987	99.98
2.45653	99.98
2.47320	99.98
2.48987	99.97
2.50653	99.98
2.52320	99.98
2.53987	99.98
2.55653	99.98
2.57320	99.98
2.58987	99.98
2.60653	99.99
2.62320	99.98
2.63987	99.99
2.65653	99.99
2.67320	99.99
2.68987	99.99
2.70653	99.99
2.72320	99.99
2.73987	99.99
2.75653	100.00
2.77320	100.00
2.78987	100.00
2.80653	100.00
2.82320	100.00
2.83987	100.00
2.85653	100.00
2.87320	100.01
2.88987	100.00
2.90653	100.00
2.92320	100.00
2.93987	100.01
2.95653	100.01
2.97320	100.01
2.98987	100.01
3.00653	100.01
3.02320	100.01
3.03987	100.02
3.05653	100.02
3.07320	100.02
3.08987	100.01
3.10653	100.02
3.12320	100.02
3.13987	100.02
3.15653	100.02
3.17320	100.02
3.18987	100.02
3.20653	100.03
3.22320	100.03
3.23987	100.02
3.25653	100.03
3.27320	100.03
3.28987	100.03
3.30653	100.03
3.32320	100.03
3.33987	100.03
3.35653	100.03
3.37320	100.03
3.38987	100.03
3.40653	100.03
3.42320	100.04
3.43987	100.04
3.45653	100.04
3.47320	100.04
3.48987	100.04
3.50653	100.04
3.52320	100.04
3.53987	100.04
3.55653	100.04
3.57320	100.05
3.58987	100.04
3.60653	100.04
3.62320	100.05
3.63987	100.05
3.65653	100.05
3.67320	100.05
3.68987	100.05
3.70653	100.05
3.72320	100.05
3.73987	100.05
3.75653	100.05
3.77320	100.05
3.78987	100.05
3.80653	100.05
3.82320	100.05
3.83987	100.05
3.85653	100.05
3.87320	100.05
3.88987	100.05
3.90653	100.05
3.92320	100.05
3.93987	100.05
3.95653	100.05
3.97320	100.05
3.98987	100.05

[Status Trace (Carrier Gas Pressure)]
Interval(msec)	1000
# of Points	240
Start Time(min)	0.007
End Time(min)	3.990
Intensity Units	
Intensity Multiplier	1
R.Time (min)	Intensity
0.00653	58.00
0.02320	55.65
0.03987	56.87
0.05653	59.06
0.07320	59.68
0.08987	58.13
0.10653	57.98
0.12320	58.01
0.13987	58.01
0.15653	58.01
0.17320	58.00
0.18987	58.00
0.20653	58.00
0.22320	58.00
0.23987	58.00
0.25653	58.00
0.27320	58.00
0.28987	58.00
0.30653	58.00
0.32320	58.00
0.33987	58.00
0.35653	58.00
0.37320	58.00
0.38987	58.00
0.40653	58.00
0.42320	58.00
0.43987	58.00
0.45653	58.00
0.47320	58.00
0.48987	58.00
0.50653	58.00
0.52320	58.00
0.53987	58.00
0.55653	58.00
0.57320	58.00
0.58987	58.00
0.60653	58.00
0.62320	58.00
0.63987	58.00
0.65653	58.00
0.67320	58.00
0.68987	58.00
0.70653	58.00
0.72320	58.00
0.73987	58.00
0.75653	58.00
0.77320	58.00
0.78987	58.00
0.80653	58.00
0.82320	58.00
0.83987	58.00
0.85653	58.00
0.87320	58.00
0.88987	58.00
0.90653	58.00
0.92320	58.00
0.93987	58.00
0.95653	58.00
0.97320	58.00
0.98987	58.00
1.00653	58.00
1.02320	58.00
1.03987	58.00
1.05653	58.00
1.07320	58.00
1.08987	58.00
1.10653	58.00
1.12320	58.00
1.13987	58.00
1.15653	58.00
1.17320	58.00
1.18987	58.00
1.20653	58.00
1.22320	58.00
1.23987	58.00
1.25653	58.00
1.27320	58.00
1.28987	58.00
1.30653	58.00
1.32320	58.00
1.33987	58.00
1.35653	58.00
1.37320	58.00
1.38987	58.00
1.40653	58.00
1.42320	58.00
1.43987	58.00
1.45653	58.00
1.47320	58.00
1.48987	58.00
1.50653	58.00
1.52320	58.00
1.53987	58.00
1.55653	58.00
1.57320	58.00
1.58987	58.00
1.60653	58.00
1.62320	58.00
1.63987	58.00
1.65653	58.00
1.67320	58.01
1.68987	58.01
1.70653	58.00
1.72320	58.00
1.73987	58.00
1.75653	58.00
1.77320	58.00
1.78987	58.00
1.80653	58.00
1.82320	58.00
1.83987	58.00
1.85653	58.00
1.87320	58.00
1.88987	58.00
1.90653	58.00
1.92320	58.00
1.93987	58.00
1.95653	58.00
1.97320	58.00
1.98987	58.00
2.00653	58.00
2.02320	58.00
2.03987	58.00
2.05653	58.00
2.07320	58.00
2.08987	58.00
2.10653	58.00
2.12320	58.00
2.13987	58.00
2.15653	58.00
2.17320	58.00
2.18987	58.00
2.20653	58.00
2.22320	58.00
2.23987	58.00
2.25653	58.00
2.27320	58.00
2.28987	58.00
2.30653	58.00
2.32320	58.00
2.33987	58.00
2.35653	58.00
2.37320	58.00
2.38987	57.99
2.40653	57.99
2.42320	58.00
2.43987	58.00
2.45653	58.00
2.47320	58.00
2.48987	58.00
2.50653	57.99
2.52320	57.99
2.53987	58.00
2.55653	58.00
2.57320	58.00
2.58987	58.00
2.60653	58.00
2.62320	58.00
2.63987	58.00
2.65653	58.00
2.67320	58.00
2.68987	58.00
2.70653	58.00
2.72320	58.00
2.73987	58.00
2.75653	58.00
2.77320	58.00
2.78987	58.00
2.80653	58.00
2.82320	58.00
2.83987	58.00
2.85653	58.00
2.87320	58.00
2.88987	58.00
2.90653	58.00
2.92320	58.00
2.93987	58.00
2.95653	58.00
2.97320	58.00
2.98987	58.00
3.00653	58.00
3.02320	58.00
3.03987	58.00
3.05653	58.00
3.07320	58.00
3.08987	58.00
3.10653	58.00
3.12320	58.00
3.13987	58.00
3.15653	58.00
3.17320	58.00
3.18987	58.00
3.20653	58.00
3.22320	58.00
3.23987	58.00
3.25653	58.00
3.27320	58.00
3.28987	58.00
3.30653	58.00
3.32320	58.00
3.33987	58.00
3.35653	58.00
3.37320	58.00
3.38987	58.00
3.40653	58.00
3.42320	58.00
3.43987	58.00
3.45653	58.00
3.47320	58.00
3.48987	58.00
3.50653	58.00
3.52320	58.00
3.53987	58.00
3.55653	58.00
3.57320	58.00
3.58987	58.00
3.60653	58.00
3.62320	58.00
3.63987	58.00
3.65653	58.00
3.67320	58.00
3.68987	58.00
3.70653	58.00
3.72320	58.00
3.73987	58.00
3.75653	58.00
3.77320	58.00
3.78987	58.00
3.80653	58.00
3.82320	58.00
3.83987	58.00
3.85653	58.00
3.87320	58.00
3.88987	58.00
3.90653	58.00
3.92320	58.00
3.93987	58.00
3.95653	58.00
3.97320	58.00
3.98987	58.00

[Status Trace (Carrier Gas Flow)]
Interval(msec)	1000
# of Points	240
Start Time(min)	0.007
End Time(min)	3.990
Intensity Units	
Intensity Multiplier	1
R.Time (min)	Intensity
0.00653	34.52
0.02320	34.53
0.03987	34.55
0.05653	34.56
0.07320	34.49
0.08987	34.52
0.10653	34.52
0.12320	34.53
0.13987	34.52
0.15653	34.52
0.17320	34.52
0.18987	34.52
0.20653	34.53
0.22320	34.52
0.23987	34.54
0.25653	34.51
0.27320	34.52
0.28987	34.52
0.30653	34.52
0.32320	34.52
0.33987	34.52
0.35653	34.52
0.37320	34.52
0.38987	34.52
0.40653	34.52
0.42320	34.52
0.43987	34.52
0.45653	34.52
0.47320	34.52
0.48987	34.52
0.50653	34.52
0.52320	34.52
0.53987	34.52
0.55653	34.52
0.57320	34.52
0.58987	34.52
0.60653	34.52
0.62320	34.52
0.63987	34.52
0.65653	34.52
0.67320	34.52
0.68987	34.52
0.70653	34.52
0.72320	34.52
0.73987	34.52
0.75653	34.52
0.77320	34.52
0.78987	34.52
0.80653	34.52
0.82320	34.52
0.83987	34.52
0.85653	34.52
0.87320	34.52
0.88987	34.52
0.90653	34.52
0.92320	34.52
0.93987	34.52
0.95653	34.52
0.97320	34.52
0.98987	34.52
1.00653	34.52
1.02320	34.52
1.03987	34.51
1.05653	34.52
1.07320	34.52
1.08987	34.52
1.10653	34.52
1.12320	34.52
1.13987	34.52
1.15653	34.52
1.17320	34.52
1.18987	34.52
1.20653	34.52
1.22320	34.52
1.23987	34.52
1.25653	34.52
1.27320	34.52
1.28987	34.52
1.30653	34.52
1.32320	34.52
1.33987	34.52
1.35653	34.52
1.37320	34.52
1.38987	34.52
1.40653	34.52
1.42320	34.52
1.43987	34.52
1.45653	34.52
1.47320	34.52
1.48987	34.52
1.50653	34.52
1.52320	34.52
1.53987	34.52
1.55653	34.52
1.57320	34.52
1.58987	34.52
1.60653	34.52
1.62320	34.52
1.63987	34.52
1.65653	34.52
1.67320	34.52
1.68987	34.52
1.70653	34.52
1.72320	34.52
1.73987	34.52
1.75653	34.53
1.77320	34.52
1.78987	34.52
1.80653	34.52
1.82320	34.52
1.83987	34.52
1.85653	34.52
1.87320	34.52
1.88987	34.52
1.90653	34.52
1.92320	34.52
1.93987	34.52
1.95653	34.52
1.97320	34.52
1.98987	34.52
2.00653	34.52
2.02320	34.52
2.03987	34.52
2.05653	34.52
2.07320	34.52
2.08987	34.52
2.10653	34.52
2.12320	34.52
2.13987	34.52
2.15653	34.52
2.17320	34.52
2.18987	34.52
2.20653	34.52
2.22320	34.52
2.23987	34.52
2.25653	34.54
2.27320	34.51
2.28987	34.52
2.30653	34.52
2.32320	34.52
2.33987	34.52
2.35653	34.52
2.37320	34.52
2.38987	34.51
2.40653	34.52
2.42320	34.52
2.43987	34.52
2.45653	34.52
2.47320	34.52
2.48987	34.52
2.50653	34.39
2.52320	34.52
2.53987	34.52
2.55653	34.52
2.57320	34.52
2.58987	34.52
2.60653	34.52
2.62320	34.52
2.63987	34.52
2.65653	34.52
2.67320	34.52
2.68987	34.52
2.70653	34.52
2.72320	34.52
2.73987	34.52
2.75653	34.52
2.77320	34.52
2.78987	34.52
2.80653	34.52
2.82320	34.52
2.83987	34.52
2.85653	34.52
2.87320	34.52
2.88987	34.52
2.90653	34.52
2.92320	34.52
2.93987	34.52
2.95653	34.52
2.97320	34.52
2.98987	34.52
3.00653	34.52
3.02320	34.52
3.03987	34.52
3.05653	34.52
3.07320	34.52
3.08987	34.52
3.10653	34.52
3.12320	34.52
3.13987	34.52
3.15653	34.52
3.17320	34.52
3.18987	34.52
3.20653	34.52
3.22320	34.52
3.23987	34.52
3.25653	34.52
3.27320	34.52
3.28987	34.52
3.30653	34.52
3.32320	34.52
3.33987	34.52
3.35653	34.52
3.37320	34.52
3.38987	34.52
3.40653	34.52
3.42320	34.52
3.43987	34.52
3.45653	34.52
3.47320	34.52
3.48987	34.52
3.50653	34.52
3.52320	34.52
3.53987	34.52
3.55653	34.52
3.57320	34.52
3.58987	34.52
3.60653	34.52
3.62320	34.52
3.63987	34.52
3.65653	34.52
3.67320	34.52
3.68987	34.52
3.70653	34.52
3.72320	34.52
3.73987	34.52
3.75653	34.52
3.77320	34.52
3.78987	34.52
3.80653	34.52
3.82320	34.50
3.83987	34.52
3.85653	34.51
3.87320	34.52
3.88987	34.53
3.90653	34.52
3.92320	34.53
3.93987	34.52
3.95653	34.52
3.97320	34.52
3.98987	34.52

[Status Trace (Column Flow)]
Interval(msec)	1000
# of Points	240
Start Time(min)	0.007
End Time(min)	3.990
Intensity Units	
Intensity Multiplier	1
R.Time (min)	Intensity
0.00653	5.48
0.02320	5.21
0.03987	5.35
0.05653	5.61
0.07320	5.68
0.08987	5.50
0.10653	5.48
0.12320	5.48
0.13987	5.48
0.15653	5.48
0.17320	5.48
0.18987	5.48
0.20653	5.48
0.22320	5.48
0.23987	5.48
0.25653	5.48
0.27320	5.48
0.28987	5.48
0.30653	5.48
0.32320	5.48
0.33987	5.48
0.35653	5.48
0.37320	5.48
0.38987	5.48
0.40653	5.48
0.42320	5.48
0.43987	5.48
0.45653	5.48
0.47320	5.48
0.48987	5.48
0.50653	5.48
0.52320	5.48
0.53987	5.48
0.55653	5.48
0.57320	5.48
0.58987	5.48
0.60653	5.48
0.62320	5.48
0.63987	5.48
0.65653	5.48
0.67320	5.48
0.68987	5.48
0.70653	5.48
0.72320	5.48
0.73987	5.48
0.75653	5.48
0.77320	5.48
0.78987	5.48
0.80653	5.48
0.82320	5.48
0.83987	5.48
0.85653	5.48
0.87320	5.48
0.88987	5.48
0.90653	5.48
0.92320	5.48
0.93987	5.48
0.95653	5.48
0.97320	5.48
0.98987	5.48
1.00653	5.48
1.02320	5.48
1.03987	5.48
1.05653	5.48
1.07320	5.48
1.08987	5.48
1.10653	5.48
1.12320	5.48
1.13987	5.48
1.15653	5.48
1.17320	5.48
1.18987	5.48
1.20653	5.48
1.22320	5.48
1.23987	5.48
1.25653	5.48
1.27320	5.48
1.28987	5.48
1.30653	5.48
1.32320	5.48
1.33987	5.48
1.35653	5.48
1.37320	5.48
1.38987	5.48
1.40653	5.48
1.42320	5.48
1.43987	5.48
1.45653	5.48
1.47320	5.48
1.48987	5.48
1.50653	5.48
1.52320	5.48
1.53987	5.48
1.55653	5.48
1.57320	5.48
1.58987	5.48
1.60653	5.48
1.62320	5.48
1.63987	5.47
1.65653	5.46
1.67320	5.45
1.68987	5.44
1.70653	5.43
1.72320	5.42
1.73987	5.41
1.75653	5.40
1.77320	5.39
1.78987	5.38
1.80653	5.37
1.82320	5.36
1.83987	5.35
1.85653	5.34
1.87320	5.33
1.88987	5.32
1.90653	5.31
1.92320	5.30
1.93987	5.29
1.95653	5.28
1.97320	5.27
1.98987	5.26
2.00653	5.25
2.02320	5.24
2.03987	5.23
2.05653	5.22
2.07320	5.22
2.08987	5.20
2.10653	5.20
2.12320	5.19
2.13987	5.18
2.15653	5.17
2.17320	5.16
2.18987	5.15
2.20653	5.14
2.22320	5.13
2.23987	5.12
2.25653	5.11
2.27320	5.10
2.28987	5.09
2.30653	5.08
2.32320	5.08
2.33987	5.07
2.35653	5.06
2.37320	5.05
2.38987	5.05
2.40653	5.05
2.42320	5.05
2.43987	5.05
2.45653	5.05
2.47320	5.05
2.48987	5.05
2.50653	5.05
2.52320	5.05
2.53987	5.05
2.55653	5.05
2.57320	5.05
2.58987	5.05
2.60653	5.05
2.62320	5.05
2.63987	5.05
2.65653	5.05
2.67320	5.05
2.68987	5.05
2.70653	5.05
2.72320	5.05
2.73987	5.05
2.75653	5.05
2.77320	5.05
2.78987	5.05
2.80653	5.04
2.82320	5.04
2.83987	5.04
2.85653	5.04
2.87320	5.04
2.88987	5.05
2.90653	5.04
2.92320	5.04
2.93987	5.04
2.95653	5.04
2.97320	5.04
2.98987	5.04
3.00653	5.04
3.02320	5.04
3.03987	5.04
3.05653	5.04
3.07320	5.04
3.08987	5.04
3.10653	5.04
3.12320	5.04
3.13987	5.04
3.15653	5.04
3.17320	5.04
3.18987	5.04
3.20653	5.04
3.22320	5.04
3.23987	5.04
3.25653	5.04
3.27320	5.04
3.28987	5.04
3.30653	5.04
3.32320	5.04
3.33987	5.04
3.35653	5.04
3.37320	5.04
3.38987	5.04
3.40653	5.04
3.42320	5.04
3.43987	5.04
3.45653	5.04
3.47320	5.04
3.48987	5.04
3.50653	5.04
3.52320	5.04
3.53987	5.04
3.55653	5.04
3.57320	5.04
3.58987	5.04
3.60653	5.04
3.62320	5.04
3.63987	5.04
3.65653	5.04
3.67320	5.04
3.68987	5.04
3.70653	5.04
3.72320	5.04
3.73987	5.04
3.75653	5.04
3.77320	5.04
3.78987	5.04
3.80653	5.04
3.82320	5.04
3.83987	5.04
3.85653	5.04
3.87320	5.04
3.88987	5.04
3.90653	5.04
3.92320	5.04
3.93987	5.04
3.95653	5.04
3.97320	5.04
3.98987	5.04

[Status Trace (Linear Velocity)]
Interval(msec)	1000
# of Points	240
Start Time(min)	0.007
End Time(min)	3.990
Intensity Units	
Intensity Multiplier	1
R.Time (min)	Intensity
0.00653	39.01
0.02320	37.47
0.03987	38.27
0.05653	39.70
0.07320	40.11
0.08987	39.09
0.10653	38.99
0.12320	39.01
0.13987	39.01
0.15653	39.01
0.17320	39.01
0.18987	39.01
0.20653	39.01
0.22320	39.01
0.23987	39.01
0.25653	39.01
0.27320	39.01
0.28987	39.01
0.30653	39.01
0.32320	39.01
0.33987	39.01
0.35653	39.01
0.37320	39.01
0.38987	39.01
0.40653	39.01
0.42320	39.01
0.43987	39.01
0.45653	39.01
0.47320	39.01
0.48987	39.01
0.50653	39.00
0.52320	39.00
0.53987	39.00
0.55653	39.00
0.57320	39.01
0.58987	39.01
0.60653	39.01
0.62320	39.01
0.63987	39.01
0.65653	39.01
0.67320	39.01
0.68987	39.01
0.70653	39.01
0.72320	39.01
0.73987	39.01
0.75653	39.01
0.77320	39.01
0.78987	39.01
0.80653	39.01
0.82320	39.01
0.83987	39.01
0.85653	39.01
0.87320	39.01
0.88987	39.01
0.90653	39.01
0.92320	39.01
0.93987	39.01
0.95653	39.01
0.97320	39.01
0.98987	39.01
1.00653	39.01
1.02320	39.01
1.03987	39.01
1.05653	39.01
1.07320	39.01
1.08987	39.01
1.10653	39.01
1.12320	39.01
1.13987	39.01
1.15653	39.01
1.17320	39.01
1.18987	39.01
1.20653	39.01
1.22320	39.01
1.23987	39.01
1.25653	39.01
1.27320	39.01
1.28987	39.01
1.30653	39.01
1.32320	39.01
1.33987	39.01
1.35653	39.01
1.37320	39.01
1.38987	39.01
1.40653	39.01
1.42320	39.01
1.43987	39.01
1.45653	39.01
1.47320	39.01
1.48987	39.01
1.50653	39.01
1.52320	39.01
1.53987	39.01
1.55653	39.01
1.57320	39.01
1.58987	39.01
1.60653	39.00
1.62320	39.00
1.63987	38.98
1.65653	38.95
1.67320	38.92
1.68987	38.88
1.70653	38.85
1.72320	38.82
1.73987	38.79
1.75653	38.76
1.77320	38.73
1.78987	38.69
1.80653	38.66
1.82320	38.63
1.83987	38.60
1.85653	38.57
1.87320	38.54
1.88987	38.51
1.90653	38.48
1.92320	38.45
1.93987	38.41
1.95653	38.38
1.97320	38.36
1.98987	38.32
2.00653	38.29
2.02320	38.27
2.03987	38.23
2.05653	38.20
2.07320	38.18
2.08987	38.14
2.10653	38.11
2.12320	38.09
2.13987	38.05
2.15653	38.02
2.17320	38.00
2.18987	37.97
2.20653	37.93
2.22320	37.91
2.23987	37.88
2.25653	37.85
2.27320	37.82
2.28987	37.79
2.30653	37.76
2.32320	37.73
2.33987	37.70
2.35653	37.67
2.37320	37.66
2.38987	37.65
2.40653	37.65
2.42320	37.65
2.43987	37.65
2.45653	37.65
2.47320	37.65
2.48987	37.65
2.50653	37.65
2.52320	37.64
2.53987	37.65
2.55653	37.65
2.57320	37.64
2.58987	37.64
2.60653	37.64
2.62320	37.64
2.63987	37.64
2.65653	37.64
2.67320	37.64
2.68987	37.64
2.70653	37.64
2.72320	37.64
2.73987	37.64
2.75653	37.64
2.77320	37.64
2.78987	37.64
2.80653	37.63
2.82320	37.63
2.83987	37.63
2.85653	37.63
2.87320	37.63
2.88987	37.63
2.90653	37.63
2.92320	37.63
2.93987	37.63
2.95653	37.63
2.97320	37.63
2.98987	37.63
3.00653	37.63
3.02320	37.63
3.03987	37.63
3.05653	37.62
3.07320	37.62
3.08987	37.62
3.10653	37.62
3.12320	37.62
3.13987	37.62
3.15653	37.62
3.17320	37.62
3.18987	37.62
3.20653	37.62
3.22320	37.62
3.23987	37.62
3.25653	37.62
3.27320	37.61
3.28987	37.62
3.30653	37.61
3.32320	37.61
3.33987	37.61
3.35653	37.61
3.37320	37.62
3.38987	37.62
3.40653	37.62
3.42320	37.62
3.43987	37.62
3.45653	37.62
3.47320	37.62
3.48987	37.62
3.50653	37.62
3.52320	37.62
3.53987	37.62
3.55653	37.62
3.57320	37.62
3.58987	37.62
3.60653	37.62
3.62320	37.62
3.63987	37.62
3.65653	37.62
3.67320	37.62
3.68987	37.62
3.70653	37.62
3.72320	37.62
3.73987	37.62
3.75653	37.62
3.77320	37.62
3.78987	37.62
3.80653	37.62
3.82320	37.62
3.83987	37.62
3.85653	37.62
3.87320	37.62
3.88987	37.62
3.90653	37.62
3.92320	37.62
3.93987	37.62
3.95653	37.62
3.97320	37.62
3.98987	37.62

