[Header]
Application Name	LabSolutions
Version	5.110
Data File Name	C:\Users\User\Desktop\GC Analyses\Jack\UIC Prairie Sampling\10.19.22\221019_049.gcd
Output Date	1/4/2023
Output Time	2:27:25 PM

[File Information]
Type	Data File
Generated	12/6/2022 12:52:19 PM
Generated by	System Administrator
Modified	12/6/2022 12:56:38 PM
Modified by	System Administrator

[Sample Information]
Operator Name	System Administrator
Acquired	12/6/2022 12:52:37 PM
Sample Type	1:Standard
Level	1
Sample Name	221019_UICPrairie
Sample ID	221019_UICPrairie
ISTD Amount1	1
ISTD Amount2	1
ISTD Amount3	1
ISTD Amount4	1
ISTD Amount5	1
ISTD Amount6	1
ISTD Amount7	1
ISTD Amount8	1
ISTD Amount9	1
ISTD Amount10	1
ISTD Amount11	1
ISTD Amount12	1
ISTD Amount13	1
ISTD Amount14	1
ISTD Amount15	1
ISTD Amount16	1
ISTD Amount17	1
ISTD Amount18	1
ISTD Amount19	1
ISTD Amount20	1
ISTD Amount21	1
ISTD Amount22	1
ISTD Amount23	1
ISTD Amount24	1
ISTD Amount25	1
ISTD Amount26	1
ISTD Amount27	1
ISTD Amount28	1
ISTD Amount29	1
ISTD Amount30	1
ISTD Amount31	1
ISTD Amount32	1
Sample Amount	1
Dilution Factor	1
Vial#	1
Injection Volume	1
Injection Count	1
Bar Code	

[Original Files]
Data File	C:\Users\User\Desktop\GC Analyses\Jack\UIC Prairie Sampling\10.19.22\221019_049.gcd
Method File	C:\LabSolutions\Data\GHG_4min_2022\ghg3_togas_w_acet_4 min_new_int.gcm
Batch File	
Report Format File	c:\LabSolutions\System\DEFAULT.lsr

[File Description]


[Configuration]
Instrument Name	C0B7VH3-Instrument1
Instrument #	1
Line #	1
# of Detectors	3
Detector ID	DET#1	DET#2	DET#3
Detector Name	FID	PTCD	ECD
# of Channels	1	1	1

[Peak Table(Ch1)]
# of Peaks	3
Peak#	R.Time	I.Time	F.Time	Area	Height	A/H	Conc.	Mark	ID#	Name	k'	Plate #	Plate Ht.	Tailing	Resolution	Sep.Factor	Area Ratio	Height Ratio	Conc. %	Norm Conc.
1	1.483	1.454	1.553	3932	2168	1.814	100.000	   	1	CO	0.000	12480	12.019	1.412	0.000	0.000	0	0	16.667	16.667
2	1.575	1.553	1.615	1303	883	1.476	100.000	 V 	2	CH4	0.062	19234	7.799	1.381	1.861	0.000	0	0	16.667	16.667
3	2.007	1.949	2.345	450938	258082	1.747	400.000	   	3	CO2	0.354	25651	5.848	1.264	9.056	5.720	0	0	66.667	66.667

[Peak Table(Ch2)]
# of Peaks	0

[Peak Table(Ch3)]
# of Peaks	6
Peak#	R.Time	I.Time	F.Time	Area	Height	A/H	Conc.	Mark	ID#	Name	k'	Plate #	Plate Ht.	Tailing	Resolution	Sep.Factor	Area Ratio	Height Ratio	Conc. %	Norm Conc.
1	2.469	2.337	2.495	1126	381	2.953	0.000	   			0.000	10351	14.491	0.000	0.000	0.000	0	0	0.000	0.000
2	2.513	2.495	2.543	716	295	2.425	0.000	 V 			0.018	3722	40.299	0.000	0.336	0.000	0	0	0.000	0.000
3	2.605	2.543	2.664	1568	313	5.008	0.000	 V 			0.055	4077	36.788	0.000	0.559	3.083	0	0	0.000	0.000
4	2.807	2.664	2.840	2179	303	7.195	0.192	 V 	1	N2O	0.137	464	323.026	0.000	0.590	2.486	0	0	19.194	19.194
5	2.891	2.840	3.078	9175	1906	4.812	0.808	 V 	1	N2O	0.171	12699	11.812	0.000	0.270	1.250	0	0	80.806	80.806
6	3.159	3.078	3.874	6322	264	23.942	0.000	 V 			0.279	54	2776.344	0.000	0.294	1.635	0	0	0.000	0.000

[Compound Results(Ch1)]
# of IDs	6
ID#	Name	R.Time	Area	Height	Conc.	Curve	3rd	2nd	1st	Constant	Area Ratio	Height Ratio	Conc. %	Norm Conc.
1	CO	1.483	3932	2168	100.000	Linear	0.000000e+00	0.000000e+00	3.931885e+001	0.000000e+00	0	0	16.667	16.667
2	CH4	1.575	1303	883	100.000	Linear	0.000000e+00	0.000000e+00	1.303307e+001	0.000000e+00	0	0	16.667	16.667
3	CO2	2.007	450938	258082	400.000	Linear	0.000000e+00	0.000000e+00	1.127345e+003	0.000000e+00	0	0	66.667	66.667
4	Ethylene	0.000	0	0	0.000	Linear	0.000000e+00	0.000000e+00	0.000000e+00	0.000000e+00	0	0	0.000	0.000
5	Acetylene	0.000	0	0	0.000	Linear	0.000000e+00	0.000000e+00	0.000000e+00	0.000000e+00	0	0	0.000	0.000
6	Ethane	0.000	0	0	0.000	Linear	0.000000e+00	0.000000e+00	0.000000e+00	0.000000e+00	0	0	0.000	0.000

[Compound Results(Ch2)]
# of IDs	5
ID#	Name	R.Time	Area	Height	Conc.	Curve	3rd	2nd	1st	Constant	Area Ratio	Height Ratio	Conc. %	Norm Conc.
1	Hydrogen	0.000	0	0	0.000	Linear	0.000000e+00	0.000000e+00	0.000000e+00	0.000000e+00	0	0	0.000	0.000
2	Oxygen	0.000	0	0	0.000	Linear	0.000000e+00	0.000000e+00	0.000000e+00	0.000000e+00	0	0	0.000	0.000
3	Nitrogen	0.000	0	0	0.000	Linear	0.000000e+00	0.000000e+00	0.000000e+00	0.000000e+00	0	0	0.000	0.000
4	Methane	0.000	0	0	0.000	Linear	0.000000e+00	0.000000e+00	0.000000e+00	0.000000e+00	0	0	0.000	0.000
5	Carbon Monoxide	0.000	0	0	0.000	Linear	0.000000e+00	0.000000e+00	0.000000e+00	0.000000e+00	0	0	0.000	0.000

[Compound Results(Ch3)]
# of IDs	2
ID#	Name	R.Time	Area	Height	Conc.	Curve	3rd	2nd	1st	Constant	Area Ratio	Height Ratio	Conc. %	Norm Conc.
1	N2O	2.891	11354	2209	1.000	Linear	0.000000e+00	0.000000e+00	1.135373e+004	0.000000e+00	0	0	100.000	100.000
2	SF6	0.000	0	0	0.000	Linear	0.000000e+00	0.000000e+00	0.000000e+00	0.000000e+00	0	0	0.000	0.000

[Group Results(Ch1)]
# of Groups	0

[Group Results(Ch2)]
# of Groups	0

[Group Results(Ch3)]
# of Groups	0

[Chromatogram (Ch1)]
Interval(msec)	220
# of Points	1091
Start Time(min)	0.002
End Time(min)	3.998
R.Time (min)	Intensity
0.00167	4
0.00533	6
0.00900	7
0.01267	10
0.01633	16
0.02000	21
0.02367	21
0.02733	23
0.03100	25
0.03467	23
0.03833	17
0.04200	7
0.04567	0
0.04933	-1
0.05300	3
0.05667	8
0.06033	10
0.06400	10
0.06767	8
0.07133	6
0.07500	7
0.07867	9
0.08233	10
0.08600	9
0.08967	8
0.09333	9
0.09700	12
0.10067	13
0.10433	13
0.10800	12
0.11167	11
0.11533	10
0.11900	7
0.12267	7
0.12633	8
0.13000	10
0.13367	13
0.13733	12
0.14100	10
0.14467	9
0.14833	6
0.15200	-1
0.15567	-10
0.15933	-14
0.16300	-13
0.16667	-9
0.17033	-6
0.17400	-7
0.17767	-7
0.18133	-2
0.18500	4
0.18867	9
0.19233	9
0.19600	7
0.19967	-0
0.20333	-8
0.20700	-14
0.21067	-16
0.21433	-15
0.21800	-15
0.22167	-15
0.22533	-15
0.22900	-13
0.23267	-11
0.23633	-7
0.24000	-3
0.24367	-1
0.24733	-0
0.25100	-3
0.25467	-9
0.25833	-15
0.26200	-21
0.26567	-25
0.26933	-27
0.27300	-26
0.27667	-21
0.28033	-13
0.28400	-4
0.28767	4
0.29133	8
0.29500	6
0.29867	1
0.30233	-4
0.30600	-10
0.30967	-17
0.31333	-21
0.31700	-21
0.32067	-18
0.32433	-10
0.32800	-3
0.33167	0
0.33533	2
0.33900	2
0.34267	1
0.34633	0
0.35000	-2
0.35367	-4
0.35733	-6
0.36100	-8
0.36467	-9
0.36833	-11
0.37200	-12
0.37567	-12
0.37933	-12
0.38300	-10
0.38667	-8
0.39033	-9
0.39400	-15
0.39767	-23
0.40133	-29
0.40500	-30
0.40867	-26
0.41233	-22
0.41600	-18
0.41967	-16
0.42333	-15
0.42700	-11
0.43067	-8
0.43433	-4
0.43800	0
0.44167	3
0.44533	3
0.44900	-1
0.45267	-8
0.45633	-18
0.46000	-23
0.46367	-23
0.46733	-23
0.47100	-23
0.47467	-23
0.47833	-25
0.48200	-29
0.48567	-33
0.48933	-35
0.49300	-34
0.49667	-32
0.50033	-33
0.50400	-37
0.50767	-39
0.51133	-40
0.51500	-37
0.51867	-31
0.52233	-28
0.52600	-31
0.52967	-36
0.53333	-37
0.53700	-38
0.54067	-37
0.54433	-33
0.54800	-26
0.55167	-20
0.55533	-17
0.55900	-20
0.56267	-29
0.56633	-39
0.57000	-47
0.57367	-50
0.57733	-48
0.58100	-42
0.58467	-36
0.58833	-30
0.59200	-25
0.59567	-19
0.59933	-18
0.60300	-19
0.60667	-22
0.61033	-23
0.61400	-23
0.61767	-22
0.62133	-22
0.62500	-23
0.62867	-23
0.63233	-26
0.63600	-31
0.63967	-36
0.64333	-40
0.64700	-42
0.65067	-42
0.65433	-40
0.65800	-36
0.66167	-32
0.66533	-32
0.66900	-33
0.67267	-34
0.67633	-33
0.68000	-33
0.68367	-34
0.68733	-37
0.69100	-42
0.69467	-45
0.69833	-47
0.70200	-48
0.70567	-45
0.70933	-39
0.71300	-37
0.71667	-36
0.72033	-33
0.72400	-33
0.72767	-33
0.73133	-35
0.73500	-38
0.73867	-44
0.74233	-50
0.74600	-54
0.74967	-54
0.75333	-52
0.75700	-48
0.76067	-42
0.76433	-35
0.76800	-29
0.77167	-28
0.77533	-31
0.77900	-34
0.78267	-37
0.78633	-42
0.79000	-48
0.79367	-51
0.79733	-49
0.80100	-47
0.80467	-46
0.80833	-45
0.81200	-42
0.81567	-41
0.81933	-43
0.82300	-44
0.82667	-45
0.83033	-46
0.83400	-45
0.83767	-43
0.84133	-42
0.84500	-41
0.84867	-37
0.85233	-36
0.85600	-38
0.85967	-40
0.86333	-40
0.86700	-41
0.87067	-42
0.87433	-41
0.87800	-41
0.88167	-40
0.88533	-37
0.88900	-37
0.89267	-40
0.89633	-43
0.90000	-45
0.90367	-50
0.90733	-58
0.91100	-62
0.91467	-60
0.91833	-57
0.92200	-53
0.92567	-48
0.92933	-42
0.93300	-37
0.93667	-35
0.94033	-36
0.94400	-36
0.94767	-36
0.95133	-39
0.95500	-42
0.95867	-46
0.96233	-52
0.96600	-58
0.96967	-62
0.97333	-66
0.97700	-70
0.98067	-73
0.98433	-70
0.98800	-64
0.99167	-57
0.99533	-52
0.99900	-48
1.00267	-47
1.00633	-48
1.01000	-50
1.01367	-50
1.01733	-51
1.02100	-52
1.02467	-53
1.02833	-52
1.03200	-49
1.03567	-48
1.03933	-51
1.04300	-53
1.04667	-53
1.05033	-52
1.05400	-52
1.05767	-53
1.06133	-55
1.06500	-58
1.06867	-63
1.07233	-67
1.07600	-68
1.07967	-65
1.08333	-61
1.08700	-60
1.09067	-64
1.09433	-69
1.09800	-74
1.10167	-78
1.10533	-80
1.10900	-82
1.11267	-82
1.11633	-80
1.12000	-74
1.12367	-70
1.12733	-71
1.13100	-73
1.13467	-73
1.13833	-65
1.14200	-55
1.14567	-43
1.14933	-34
1.15300	-31
1.15667	-35
1.16033	-43
1.16400	-54
1.16767	-65
1.17133	-75
1.17500	-81
1.17867	-84
1.18233	-86
1.18600	-88
1.18967	-88
1.19333	-89
1.19700	-91
1.20067	-92
1.20433	-90
1.20800	-86
1.21167	-82
1.21533	-77
1.21900	-68
1.22267	-61
1.22633	-57
1.23000	-61
1.23367	-67
1.23733	-69
1.24100	-66
1.24467	-61
1.24833	-61
1.25200	-61
1.25567	-64
1.25933	-71
1.26300	-76
1.26667	-78
1.27033	-79
1.27400	-79
1.27767	-80
1.28133	-81
1.28500	-81
1.28867	-81
1.29233	-79
1.29600	-78
1.29967	-77
1.30333	-75
1.30700	-75
1.31067	-77
1.31433	-80
1.31800	-82
1.32167	-82
1.32533	-80
1.32900	-77
1.33267	-74
1.33633	-72
1.34000	-72
1.34367	-76
1.34733	-81
1.35100	-86
1.35467	-90
1.35833	-87
1.36200	-82
1.36567	-78
1.36933	-77
1.37300	-76
1.37667	-78
1.38033	-82
1.38400	-83
1.38767	-81
1.39133	-77
1.39500	-73
1.39867	-70
1.40233	-65
1.40600	-61
1.40967	-62
1.41333	-63
1.41700	-62
1.42067	-59
1.42433	-55
1.42800	-54
1.43167	-56
1.43533	-62
1.43900	-72
1.44267	-81
1.44633	-88
1.45000	-92
1.45367	-87
1.45733	-52
1.46100	68
1.46467	289
1.46833	581
1.47200	966
1.47567	1439
1.47933	1867
1.48300	2086
1.48667	2036
1.49033	1780
1.49400	1433
1.49767	1089
1.50133	792
1.50500	559
1.50867	387
1.51233	261
1.51600	168
1.51967	102
1.52333	55
1.52700	23
1.53067	3
1.53433	-7
1.53800	-12
1.54167	-16
1.54533	-23
1.54900	-31
1.55267	-37
1.55633	-21
1.56000	49
1.56367	213
1.56733	457
1.57100	694
1.57467	819
1.57833	798
1.58200	670
1.58567	504
1.58933	348
1.59300	223
1.59667	133
1.60033	68
1.60400	21
1.60767	-13
1.61133	-38
1.61500	-56
1.61867	-64
1.62233	-65
1.62600	-65
1.62967	-64
1.63333	-63
1.63700	-64
1.64067	-64
1.64433	-66
1.64800	-72
1.65167	-75
1.65533	-78
1.65900	-80
1.66267	-83
1.66633	-82
1.67000	-80
1.67367	-77
1.67733	-72
1.68100	-67
1.68467	-66
1.68833	-69
1.69200	-73
1.69567	-73
1.69933	-69
1.70300	-65
1.70667	-64
1.71033	-68
1.71400	-75
1.71767	-82
1.72133	-88
1.72500	-89
1.72867	-89
1.73233	-86
1.73600	-78
1.73967	-70
1.74333	-64
1.74700	-61
1.75067	-65
1.75433	-74
1.75800	-84
1.76167	-92
1.76533	-97
1.76900	-98
1.77267	-96
1.77633	-92
1.78000	-88
1.78367	-83
1.78733	-80
1.79100	-76
1.79467	-70
1.79833	-64
1.80200	-65
1.80567	-68
1.80933	-72
1.81300	-72
1.81667	-71
1.82033	-72
1.82400	-73
1.82767	-73
1.83133	-71
1.83500	-65
1.83867	-60
1.84233	-58
1.84600	-57
1.84967	-61
1.85333	-69
1.85700	-77
1.86067	-83
1.86433	-84
1.86800	-86
1.87167	-92
1.87533	-100
1.87900	-106
1.88267	-107
1.88633	-103
1.89000	-97
1.89367	-90
1.89733	-82
1.90100	-82
1.90467	-86
1.90833	-76
1.91200	-62
1.91567	-60
1.91933	-62
1.92300	-66
1.92667	-70
1.93033	-74
1.93400	-78
1.93767	-83
1.94133	-86
1.94500	-87
1.94867	-84
1.95233	-76
1.95600	-66
1.95967	-52
1.96333	-32
1.96700	-5
1.97067	71
1.97433	376
1.97800	1659
1.98167	6330
1.98533	19767
1.98900	49506
1.99267	99617
1.99633	163053
2.00000	221620
2.00367	256141
2.00733	258034
2.01100	232178
2.01467	190980
2.01833	146730
2.02200	107331
2.02567	75982
2.02933	52784
2.03300	36408
2.03667	25191
2.04033	17649
2.04400	12619
2.04767	9271
2.05133	7027
2.05500	5501
2.05867	4448
2.06233	3706
2.06600	3164
2.06967	2753
2.07333	2434
2.07700	2176
2.08067	1967
2.08433	1793
2.08800	1647
2.09167	1522
2.09533	1414
2.09900	1322
2.10267	1240
2.10633	1160
2.11000	1087
2.11367	1020
2.11733	963
2.12100	916
2.12467	887
2.12833	854
2.13200	815
2.13567	777
2.13933	742
2.14300	713
2.14667	689
2.15033	664
2.15400	642
2.15767	623
2.16133	602
2.16500	579
2.16867	558
2.17233	540
2.17600	526
2.17967	511
2.18333	491
2.18700	470
2.19067	449
2.19433	432
2.19800	418
2.20167	406
2.20533	394
2.20900	378
2.21267	365
2.21633	355
2.22000	350
2.22367	349
2.22733	347
2.23100	342
2.23467	335
2.23833	328
2.24200	324
2.24567	317
2.24933	305
2.25300	292
2.25667	281
2.26033	270
2.26400	261
2.26767	255
2.27133	252
2.27500	250
2.27867	251
2.28233	254
2.28600	255
2.28967	249
2.29333	237
2.29700	225
2.30067	216
2.30433	210
2.30800	207
2.31167	209
2.31533	214
2.31900	216
2.32267	214
2.32633	207
2.33000	196
2.33367	182
2.33733	171
2.34100	165
2.34467	163
2.34833	162
2.35200	163
2.35567	163
2.35933	164
2.36300	165
2.36667	167
2.37033	167
2.37400	166
2.37767	162
2.38133	156
2.38500	148
2.38867	143
2.39233	142
2.39600	143
2.39967	144
2.40333	145
2.40700	147
2.41067	149
2.41433	149
2.41800	151
2.42167	153
2.42533	153
2.42900	153
2.43267	152
2.43633	146
2.44000	138
2.44367	131
2.44733	126
2.45100	128
2.45467	134
2.45833	137
2.46200	134
2.46567	128
2.46933	122
2.47300	116
2.47667	108
2.48033	100
2.48400	97
2.48767	98
2.49133	99
2.49500	96
2.49867	87
2.50233	80
2.50600	79
2.50967	80
2.51333	84
2.51700	90
2.52067	96
2.52433	101
2.52800	103
2.53167	101
2.53533	100
2.53900	97
2.54267	90
2.54633	83
2.55000	83
2.55367	87
2.55733	88
2.56100	86
2.56467	84
2.56833	83
2.57200	81
2.57567	73
2.57933	62
2.58300	52
2.58667	42
2.59033	37
2.59400	36
2.59767	39
2.60133	40
2.60500	39
2.60867	41
2.61233	45
2.61600	50
2.61967	55
2.62333	60
2.62700	64
2.63067	67
2.63433	64
2.63800	57
2.64167	51
2.64533	48
2.64900	48
2.65267	48
2.65633	49
2.66000	49
2.66367	48
2.66733	52
2.67100	61
2.67467	67
2.67833	64
2.68200	57
2.68567	47
2.68933	39
2.69300	37
2.69667	41
2.70033	48
2.70400	50
2.70767	49
2.71133	46
2.71500	45
2.71867	44
2.72233	40
2.72600	34
2.72967	30
2.73333	27
2.73700	26
2.74067	27
2.74433	31
2.74800	35
2.75167	35
2.75533	34
2.75900	34
2.76267	34
2.76633	35
2.77000	38
2.77367	39
2.77733	37
2.78100	35
2.78467	31
2.78833	25
2.79200	21
2.79567	16
2.79933	17
2.80300	21
2.80667	26
2.81033	30
2.81400	35
2.81767	39
2.82133	39
2.82500	34
2.82867	27
2.83233	24
2.83600	23
2.83967	24
2.84333	28
2.84700	31
2.85067	31
2.85433	29
2.85800	27
2.86167	26
2.86533	27
2.86900	29
2.87267	29
2.87633	25
2.88000	18
2.88367	11
2.88733	9
2.89100	11
2.89467	12
2.89833	14
2.90200	18
2.90567	26
2.90933	34
2.91300	35
2.91667	26
2.92033	11
2.92400	-0
2.92767	-5
2.93133	-7
2.93500	-8
2.93867	-9
2.94233	-10
2.94600	-12
2.94967	-9
2.95333	-3
2.95700	7
2.96067	15
2.96433	14
2.96800	9
2.97167	3
2.97533	-0
2.97900	-0
2.98267	1
2.98633	3
2.99000	4
2.99367	2
2.99733	-1
3.00100	-3
3.00467	-3
3.00833	-1
3.01200	2
3.01567	5
3.01933	9
3.02300	13
3.02667	16
3.03033	20
3.03400	26
3.03767	30
3.04133	31
3.04500	28
3.04867	19
3.05233	8
3.05600	-4
3.05967	-12
3.06333	-19
3.06700	-19
3.07067	-15
3.07433	-10
3.07800	-7
3.08167	-4
3.08533	0
3.08900	3
3.09267	3
3.09633	5
3.10000	10
3.10367	17
3.10733	21
3.11100	20
3.11467	15
3.11833	7
3.12200	-2
3.12567	-11
3.12933	-15
3.13300	-13
3.13667	-9
3.14033	-3
3.14400	6
3.14767	14
3.15133	17
3.15500	16
3.15867	15
3.16233	13
3.16600	10
3.16967	5
3.17333	3
3.17700	3
3.18067	2
3.18433	0
3.18800	-2
3.19167	-5
3.19533	-9
3.19900	-10
3.20267	-4
3.20633	6
3.21000	14
3.21367	18
3.21733	14
3.22100	6
3.22467	-0
3.22833	-2
3.23200	-4
3.23567	-6
3.23933	-8
3.24300	-10
3.24667	-11
3.25033	-11
3.25400	-8
3.25767	-6
3.26133	-9
3.26500	-14
3.26867	-23
3.27233	-33
3.27600	-39
3.27967	-40
3.28333	-37
3.28700	-31
3.29067	-26
3.29433	-21
3.29800	-17
3.30167	-14
3.30533	-11
3.30900	-5
3.31267	2
3.31633	6
3.32000	4
3.32367	-2
3.32733	-7
3.33100	-10
3.33467	-14
3.33833	-19
3.34200	-27
3.34567	-33
3.34933	-33
3.35300	-29
3.35667	-25
3.36033	-25
3.36400	-29
3.36767	-32
3.37133	-33
3.37500	-29
3.37867	-27
3.38233	-26
3.38600	-25
3.38967	-27
3.39333	-29
3.39700	-31
3.40067	-32
3.40433	-32
3.40800	-31
3.41167	-28
3.41533	-23
3.41900	-17
3.42267	-14
3.42633	-12
3.43000	-14
3.43367	-18
3.43733	-20
3.44100	-23
3.44467	-23
3.44833	-24
3.45200	-22
3.45567	-19
3.45933	-16
3.46300	-13
3.46667	-11
3.47033	-11
3.47400	-13
3.47767	-19
3.48133	-28
3.48500	-33
3.48867	-35
3.49233	-31
3.49600	-26
3.49967	-22
3.50333	-21
3.50700	-20
3.51067	-20
3.51433	-21
3.51800	-21
3.52167	-18
3.52533	-13
3.52900	-6
3.53267	-0
3.53633	2
3.54000	0
3.54367	-4
3.54733	-10
3.55100	-16
3.55467	-21
3.55833	-21
3.56200	-20
3.56567	-17
3.56933	-13
3.57300	-12
3.57667	-12
3.58033	-14
3.58400	-17
3.58767	-16
3.59133	-12
3.59500	-8
3.59867	-9
3.60233	-16
3.60600	-21
3.60967	-23
3.61333	-22
3.61700	-25
3.62067	-33
3.62433	-40
3.62800	-42
3.63167	-43
3.63533	-43
3.63900	-39
3.64267	-34
3.64633	-29
3.65000	-21
3.65367	-11
3.65733	-4
3.66100	-0
3.66467	-1
3.66833	-5
3.67200	-8
3.67567	-10
3.67933	-11
3.68300	-14
3.68667	-21
3.69033	-27
3.69400	-30
3.69767	-27
3.70133	-22
3.70500	-17
3.70867	-17
3.71233	-20
3.71600	-22
3.71967	-19
3.72333	-14
3.72700	-8
3.73067	-3
3.73433	-1
3.73800	2
3.74167	1
3.74533	-9
3.74900	-22
3.75267	-31
3.75633	-35
3.76000	-34
3.76367	-30
3.76733	-26
3.77100	-23
3.77467	-23
3.77833	-25
3.78200	-4
3.78567	31
3.78933	58
3.79300	73
3.79667	79
3.80033	83
3.80400	90
3.80767	99
3.81133	107
3.81500	116
3.81867	124
3.82233	128
3.82600	131
3.82967	138
3.83333	145
3.83700	148
3.84067	147
3.84433	146
3.84800	149
3.85167	152
3.85533	154
3.85900	160
3.86267	166
3.86633	169
3.87000	167
3.87367	165
3.87733	164
3.88100	166
3.88467	168
3.88833	167
3.89200	164
3.89567	164
3.89933	167
3.90300	170
3.90667	170
3.91033	167
3.91400	159
3.91767	148
3.92133	142
3.92500	140
3.92867	140
3.93233	138
3.93600	138
3.93967	140
3.94333	141
3.94700	138
3.95067	130
3.95433	122
3.95800	117
3.96167	119
3.96533	125
3.96900	127
3.97267	125
3.97633	123
3.98000	122
3.98367	120
3.98733	118
3.99100	114
3.99467	109
3.99833	103

[Chromatogram (Ch2)]
Interval(msec)	220
# of Points	1091
Start Time(min)	0.002
End Time(min)	3.998
R.Time (min)	Intensity
0.00167	-0
0.00533	-0
0.00900	-0
0.01267	-0
0.01633	-1
0.02000	-1
0.02367	-1
0.02733	-1
0.03100	-1
0.03467	-1
0.03833	-1
0.04200	-1
0.04567	-1
0.04933	-1
0.05300	-1
0.05667	-1
0.06033	-1
0.06400	-1
0.06767	-1
0.07133	-1
0.07500	-0
0.07867	-0
0.08233	-0
0.08600	0
0.08967	1
0.09333	1
0.09700	1
0.10067	2
0.10433	2
0.10800	2
0.11167	3
0.11533	3
0.11900	4
0.12267	3
0.12633	3
0.13000	3
0.13367	3
0.13733	2
0.14100	2
0.14467	2
0.14833	2
0.15200	2
0.15567	2
0.15933	2
0.16300	2
0.16667	2
0.17033	2
0.17400	2
0.17767	2
0.18133	2
0.18500	2
0.18867	2
0.19233	2
0.19600	2
0.19967	2
0.20333	2
0.20700	2
0.21067	2
0.21433	2
0.21800	2
0.22167	2
0.22533	1
0.22900	1
0.23267	1
0.23633	1
0.24000	1
0.24367	1
0.24733	1
0.25100	1
0.25467	1
0.25833	1
0.26200	1
0.26567	1
0.26933	1
0.27300	1
0.27667	1
0.28033	1
0.28400	1
0.28767	2
0.29133	2
0.29500	2
0.29867	2
0.30233	2
0.30600	2
0.30967	1
0.31333	1
0.31700	1
0.32067	1
0.32433	0
0.32800	0
0.33167	0
0.33533	-0
0.33900	-0
0.34267	-0
0.34633	-0
0.35000	-0
0.35367	-0
0.35733	-0
0.36100	0
0.36467	0
0.36833	0
0.37200	0
0.37567	0
0.37933	0
0.38300	0
0.38667	0
0.39033	1
0.39400	1
0.39767	1
0.40133	1
0.40500	1
0.40867	1
0.41233	1
0.41600	1
0.41967	1
0.42333	1
0.42700	1
0.43067	0
0.43433	0
0.43800	0
0.44167	0
0.44533	0
0.44900	0
0.45267	0
0.45633	-0
0.46000	-0
0.46367	-0
0.46733	-0
0.47100	-0
0.47467	-0
0.47833	-0
0.48200	-0
0.48567	-0
0.48933	-0
0.49300	-0
0.49667	-0
0.50033	-0
0.50400	-0
0.50767	0
0.51133	0
0.51500	0
0.51867	0
0.52233	1
0.52600	1
0.52967	0
0.53333	0
0.53700	0
0.54067	1
0.54433	1
0.54800	1
0.55167	1
0.55533	1
0.55900	1
0.56267	1
0.56633	2
0.57000	2
0.57367	2
0.57733	2
0.58100	2
0.58467	2
0.58833	2
0.59200	2
0.59567	2
0.59933	2
0.60300	2
0.60667	2
0.61033	2
0.61400	2
0.61767	2
0.62133	1
0.62500	1
0.62867	1
0.63233	1
0.63600	0
0.63967	0
0.64333	-0
0.64700	-1
0.65067	-1
0.65433	-1
0.65800	-1
0.66167	-1
0.66533	-1
0.66900	-2
0.67267	-2
0.67633	-1
0.68000	-1
0.68367	-1
0.68733	-1
0.69100	-1
0.69467	-1
0.69833	-1
0.70200	-1
0.70567	-1
0.70933	-1
0.71300	-1
0.71667	-1
0.72033	-1
0.72400	-1
0.72767	-1
0.73133	-1
0.73500	-1
0.73867	-1
0.74233	-1
0.74600	-1
0.74967	-1
0.75333	-1
0.75700	-1
0.76067	-1
0.76433	-1
0.76800	-1
0.77167	-1
0.77533	-0
0.77900	-0
0.78267	-0
0.78633	-0
0.79000	-0
0.79367	-1
0.79733	-1
0.80100	-1
0.80467	-1
0.80833	-1
0.81200	-0
0.81567	-0
0.81933	-0
0.82300	-0
0.82667	-0
0.83033	0
0.83400	0
0.83767	0
0.84133	1
0.84500	1
0.84867	1
0.85233	1
0.85600	1
0.85967	1
0.86333	1
0.86700	1
0.87067	1
0.87433	1
0.87800	1
0.88167	0
0.88533	0
0.88900	0
0.89267	0
0.89633	-0
0.90000	-0
0.90367	-1
0.90733	-1
0.91100	-1
0.91467	-1
0.91833	-1
0.92200	-1
0.92567	-2
0.92933	-2
0.93300	-2
0.93667	-2
0.94033	-2
0.94400	-2
0.94767	-2
0.95133	-2
0.95500	-2
0.95867	-1
0.96233	-1
0.96600	-1
0.96967	-1
0.97333	-0
0.97700	-0
0.98067	-0
0.98433	-0
0.98800	0
0.99167	0
0.99533	0
0.99900	0
1.00267	0
1.00633	-0
1.01000	-0
1.01367	-0
1.01733	-1
1.02100	-0
1.02467	-0
1.02833	-0
1.03200	0
1.03567	0
1.03933	1
1.04300	1
1.04667	1
1.05033	1
1.05400	1
1.05767	1
1.06133	1
1.06500	1
1.06867	1
1.07233	1
1.07600	1
1.07967	1
1.08333	1
1.08700	1
1.09067	1
1.09433	1
1.09800	1
1.10167	1
1.10533	1
1.10900	1
1.11267	1
1.11633	1
1.12000	1
1.12367	1
1.12733	1
1.13100	1
1.13467	0
1.13833	0
1.14200	-0
1.14567	-1
1.14933	-1
1.15300	-1
1.15667	-1
1.16033	-2
1.16400	-2
1.16767	-2
1.17133	-2
1.17500	-2
1.17867	-2
1.18233	-2
1.18600	-2
1.18967	-2
1.19333	-2
1.19700	-2
1.20067	-2
1.20433	-2
1.20800	-2
1.21167	-1
1.21533	-1
1.21900	-1
1.22267	-1
1.22633	-1
1.23000	-1
1.23367	-0
1.23733	-0
1.24100	0
1.24467	0
1.24833	0
1.25200	0
1.25567	0
1.25933	0
1.26300	0
1.26667	0
1.27033	0
1.27400	0
1.27767	0
1.28133	0
1.28500	0
1.28867	0
1.29233	-0
1.29600	-0
1.29967	-0
1.30333	-0
1.30700	-0
1.31067	-0
1.31433	-0
1.31800	-0
1.32167	-1
1.32533	-1
1.32900	-2
1.33267	-2
1.33633	-3
1.34000	-3
1.34367	-3
1.34733	-3
1.35100	-4
1.35467	-4
1.35833	-3
1.36200	-3
1.36567	-3
1.36933	-2
1.37300	-2
1.37667	-2
1.38033	-1
1.38400	-1
1.38767	-1
1.39133	-1
1.39500	-0
1.39867	-0
1.40233	-0
1.40600	-0
1.40967	0
1.41333	0
1.41700	0
1.42067	0
1.42433	0
1.42800	0
1.43167	0
1.43533	0
1.43900	1
1.44267	1
1.44633	1
1.45000	1
1.45367	1
1.45733	1
1.46100	1
1.46467	1
1.46833	1
1.47200	1
1.47567	1
1.47933	1
1.48300	1
1.48667	1
1.49033	1
1.49400	1
1.49767	1
1.50133	1
1.50500	1
1.50867	1
1.51233	1
1.51600	1
1.51967	1
1.52333	2
1.52700	2
1.53067	2
1.53433	2
1.53800	2
1.54167	2
1.54533	2
1.54900	2
1.55267	2
1.55633	2
1.56000	2
1.56367	2
1.56733	2
1.57100	2
1.57467	1
1.57833	1
1.58200	1
1.58567	1
1.58933	1
1.59300	0
1.59667	-0
1.60033	-1
1.60400	-3
1.60767	-4
1.61133	-6
1.61500	-8
1.61867	-10
1.62233	-13
1.62600	-15
1.62967	-18
1.63333	-21
1.63700	-24
1.64067	-28
1.64433	-31
1.64800	-35
1.65167	-39
1.65533	-42
1.65900	-46
1.66267	-50
1.66633	-55
1.67000	-59
1.67367	-64
1.67733	-69
1.68100	-74
1.68467	-79
1.68833	-83
1.69200	-87
1.69567	-90
1.69933	-93
1.70300	-96
1.70667	-98
1.71033	-100
1.71400	-101
1.71767	-103
1.72133	-104
1.72500	-105
1.72867	-106
1.73233	-108
1.73600	-109
1.73967	-110
1.74333	-111
1.74700	-112
1.75067	-112
1.75433	-112
1.75800	-112
1.76167	-112
1.76533	-112
1.76900	-113
1.77267	-113
1.77633	-114
1.78000	-115
1.78367	-115
1.78733	-115
1.79100	-116
1.79467	-115
1.79833	-115
1.80200	-114
1.80567	-114
1.80933	-114
1.81300	-114
1.81667	-114
1.82033	-114
1.82400	-115
1.82767	-115
1.83133	-115
1.83500	-115
1.83867	-116
1.84233	-116
1.84600	-117
1.84967	-117
1.85333	-117
1.85700	-117
1.86067	-117
1.86433	-117
1.86800	-117
1.87167	-117
1.87533	-117
1.87900	-116
1.88267	-116
1.88633	-115
1.89000	-114
1.89367	-114
1.89733	-113
1.90100	-113
1.90467	-113
1.90833	-113
1.91200	-113
1.91567	-113
1.91933	-113
1.92300	-113
1.92667	-113
1.93033	-113
1.93400	-113
1.93767	-113
1.94133	-112
1.94500	-112
1.94867	-112
1.95233	-112
1.95600	-112
1.95967	-112
1.96333	-112
1.96700	-112
1.97067	-113
1.97433	-113
1.97800	-114
1.98167	-114
1.98533	-114
1.98900	-113
1.99267	-113
1.99633	-113
2.00000	-112
2.00367	-111
2.00733	-111
2.01100	-110
2.01467	-109
2.01833	-109
2.02200	-108
2.02567	-108
2.02933	-107
2.03300	-107
2.03667	-107
2.04033	-106
2.04400	-105
2.04767	-105
2.05133	-104
2.05500	-104
2.05867	-104
2.06233	-103
2.06600	-103
2.06967	-103
2.07333	-103
2.07700	-103
2.08067	-103
2.08433	-103
2.08800	-103
2.09167	-103
2.09533	-102
2.09900	-102
2.10267	-102
2.10633	-102
2.11000	-101
2.11367	-101
2.11733	-101
2.12100	-101
2.12467	-100
2.12833	-100
2.13200	-100
2.13567	-99
2.13933	-98
2.14300	-97
2.14667	-96
2.15033	-95
2.15400	-94
2.15767	-94
2.16133	-93
2.16500	-93
2.16867	-93
2.17233	-92
2.17600	-92
2.17967	-91
2.18333	-91
2.18700	-91
2.19067	-91
2.19433	-91
2.19800	-90
2.20167	-90
2.20533	-90
2.20900	-90
2.21267	-90
2.21633	-89
2.22000	-89
2.22367	-90
2.22733	-90
2.23100	-90
2.23467	-90
2.23833	-90
2.24200	-90
2.24567	-90
2.24933	-90
2.25300	-90
2.25667	-90
2.26033	-89
2.26400	-89
2.26767	-89
2.27133	-89
2.27500	-89
2.27867	-89
2.28233	-88
2.28600	-88
2.28967	-87
2.29333	-86
2.29700	-86
2.30067	-85
2.30433	-85
2.30800	-85
2.31167	-85
2.31533	-85
2.31900	-84
2.32267	-84
2.32633	-83
2.33000	-83
2.33367	-83
2.33733	-82
2.34100	-81
2.34467	-80
2.34833	-79
2.35200	-78
2.35567	-77
2.35933	-75
2.36300	-74
2.36667	-72
2.37033	-70
2.37400	-68
2.37767	-66
2.38133	-62
2.38500	-59
2.38867	-56
2.39233	-52
2.39600	-48
2.39967	-43
2.40333	-39
2.40700	-35
2.41067	-30
2.41433	-27
2.41800	-23
2.42167	-20
2.42533	-17
2.42900	-14
2.43267	-12
2.43633	-10
2.44000	-8
2.44367	-6
2.44733	-4
2.45100	-2
2.45467	-1
2.45833	1
2.46200	3
2.46567	4
2.46933	5
2.47300	6
2.47667	7
2.48033	7
2.48400	8
2.48767	9
2.49133	10
2.49500	11
2.49867	12
2.50233	12
2.50600	13
2.50967	13
2.51333	14
2.51700	15
2.52067	15
2.52433	16
2.52800	17
2.53167	17
2.53533	18
2.53900	18
2.54267	18
2.54633	19
2.55000	19
2.55367	19
2.55733	20
2.56100	21
2.56467	21
2.56833	21
2.57200	21
2.57567	21
2.57933	21
2.58300	21
2.58667	21
2.59033	21
2.59400	21
2.59767	21
2.60133	21
2.60500	22
2.60867	22
2.61233	22
2.61600	22
2.61967	23
2.62333	23
2.62700	24
2.63067	24
2.63433	24
2.63800	23
2.64167	23
2.64533	23
2.64900	23
2.65267	23
2.65633	23
2.66000	24
2.66367	24
2.66733	24
2.67100	25
2.67467	25
2.67833	25
2.68200	26
2.68567	26
2.68933	26
2.69300	26
2.69667	26
2.70033	26
2.70400	26
2.70767	26
2.71133	26
2.71500	26
2.71867	26
2.72233	26
2.72600	26
2.72967	26
2.73333	27
2.73700	27
2.74067	28
2.74433	28
2.74800	29
2.75167	30
2.75533	30
2.75900	31
2.76267	31
2.76633	32
2.77000	32
2.77367	32
2.77733	33
2.78100	33
2.78467	33
2.78833	32
2.79200	32
2.79567	32
2.79933	31
2.80300	31
2.80667	31
2.81033	30
2.81400	30
2.81767	30
2.82133	30
2.82500	30
2.82867	30
2.83233	31
2.83600	31
2.83967	31
2.84333	31
2.84700	31
2.85067	31
2.85433	31
2.85800	31
2.86167	31
2.86533	31
2.86900	31
2.87267	31
2.87633	31
2.88000	30
2.88367	28
2.88733	24
2.89100	18
2.89467	10
2.89833	-2
2.90200	-16
2.90567	-34
2.90933	-54
2.91300	-78
2.91667	-105
2.92033	-134
2.92400	-166
2.92767	-200
2.93133	-234
2.93500	-267
2.93867	-295
2.94233	-314
2.94600	-324
2.94967	-325
2.95333	-317
2.95700	-301
2.96067	-282
2.96433	-259
2.96800	-234
2.97167	-210
2.97533	-185
2.97900	-162
2.98267	-140
2.98633	-120
2.99000	-102
2.99367	-85
2.99733	-71
3.00100	-58
3.00467	-46
3.00833	-36
3.01200	-27
3.01567	-20
3.01933	-13
3.02300	-8
3.02667	-3
3.03033	1
3.03400	5
3.03767	8
3.04133	10
3.04500	13
3.04867	15
3.05233	16
3.05600	18
3.05967	20
3.06333	21
3.06700	22
3.07067	23
3.07433	24
3.07800	25
3.08167	25
3.08533	25
3.08900	26
3.09267	26
3.09633	27
3.10000	27
3.10367	28
3.10733	28
3.11100	28
3.11467	28
3.11833	29
3.12200	29
3.12567	29
3.12933	29
3.13300	29
3.13667	29
3.14033	29
3.14400	29
3.14767	29
3.15133	29
3.15500	29
3.15867	29
3.16233	29
3.16600	29
3.16967	29
3.17333	29
3.17700	29
3.18067	29
3.18433	29
3.18800	29
3.19167	29
3.19533	29
3.19900	28
3.20267	28
3.20633	28
3.21000	28
3.21367	28
3.21733	28
3.22100	28
3.22467	28
3.22833	28
3.23200	28
3.23567	28
3.23933	27
3.24300	27
3.24667	27
3.25033	27
3.25400	27
3.25767	27
3.26133	28
3.26500	28
3.26867	28
3.27233	28
3.27600	28
3.27967	28
3.28333	28
3.28700	28
3.29067	28
3.29433	28
3.29800	28
3.30167	29
3.30533	29
3.30900	29
3.31267	30
3.31633	30
3.32000	31
3.32367	31
3.32733	32
3.33100	32
3.33467	32
3.33833	33
3.34200	33
3.34567	33
3.34933	34
3.35300	34
3.35667	34
3.36033	34
3.36400	34
3.36767	34
3.37133	34
3.37500	33
3.37867	33
3.38233	33
3.38600	32
3.38967	32
3.39333	32
3.39700	32
3.40067	32
3.40433	32
3.40800	32
3.41167	32
3.41533	32
3.41900	32
3.42267	32
3.42633	32
3.43000	32
3.43367	33
3.43733	33
3.44100	33
3.44467	33
3.44833	33
3.45200	33
3.45567	33
3.45933	33
3.46300	33
3.46667	33
3.47033	33
3.47400	33
3.47767	34
3.48133	34
3.48500	34
3.48867	34
3.49233	34
3.49600	34
3.49967	34
3.50333	33
3.50700	33
3.51067	33
3.51433	33
3.51800	33
3.52167	33
3.52533	33
3.52900	33
3.53267	33
3.53633	33
3.54000	33
3.54367	32
3.54733	32
3.55100	32
3.55467	32
3.55833	31
3.56200	31
3.56567	31
3.56933	30
3.57300	30
3.57667	30
3.58033	30
3.58400	30
3.58767	30
3.59133	30
3.59500	30
3.59867	30
3.60233	30
3.60600	30
3.60967	30
3.61333	31
3.61700	31
3.62067	31
3.62433	31
3.62800	31
3.63167	32
3.63533	32
3.63900	32
3.64267	32
3.64633	32
3.65000	31
3.65367	31
3.65733	31
3.66100	31
3.66467	31
3.66833	31
3.67200	31
3.67567	31
3.67933	31
3.68300	31
3.68667	31
3.69033	31
3.69400	31
3.69767	31
3.70133	31
3.70500	31
3.70867	31
3.71233	31
3.71600	31
3.71967	31
3.72333	31
3.72700	31
3.73067	32
3.73433	32
3.73800	32
3.74167	32
3.74533	32
3.74900	32
3.75267	31
3.75633	31
3.76000	31
3.76367	31
3.76733	31
3.77100	31
3.77467	31
3.77833	31
3.78200	31
3.78567	31
3.78933	31
3.79300	31
3.79667	31
3.80033	31
3.80400	31
3.80767	31
3.81133	30
3.81500	30
3.81867	30
3.82233	30
3.82600	30
3.82967	30
3.83333	31
3.83700	31
3.84067	32
3.84433	32
3.84800	32
3.85167	32
3.85533	32
3.85900	32
3.86267	32
3.86633	32
3.87000	32
3.87367	32
3.87733	32
3.88100	32
3.88467	31
3.88833	31
3.89200	31
3.89567	31
3.89933	31
3.90300	31
3.90667	31
3.91033	31
3.91400	31
3.91767	31
3.92133	30
3.92500	31
3.92867	31
3.93233	31
3.93600	31
3.93967	31
3.94333	31
3.94700	31
3.95067	31
3.95433	31
3.95800	30
3.96167	30
3.96533	30
3.96900	30
3.97267	30
3.97633	30
3.98000	31
3.98367	31
3.98733	31
3.99100	31
3.99467	31
3.99833	31

[Chromatogram (Ch3)]
Interval(msec)	220
# of Points	1091
Start Time(min)	0.002
End Time(min)	3.998
R.Time (min)	Intensity
0.00167	-1
0.00533	-2
0.00900	-5
0.01267	-7
0.01633	-8
0.02000	-8
0.02367	-9
0.02733	-7
0.03100	-5
0.03467	-5
0.03833	-8
0.04200	-7
0.04567	-5
0.04933	-4
0.05300	-4
0.05667	-3
0.06033	-4
0.06400	-4
0.06767	-4
0.07133	-3
0.07500	-3
0.07867	-4
0.08233	-5
0.08600	-4
0.08967	-5
0.09333	-9
0.09700	-10
0.10067	-9
0.10433	-8
0.10800	-8
0.11167	-8
0.11533	-7
0.11900	-6
0.12267	-5
0.12633	-5
0.13000	-3
0.13367	-2
0.13733	-4
0.14100	-5
0.14467	-6
0.14833	-7
0.15200	-8
0.15567	-9
0.15933	-7
0.16300	-6
0.16667	-5
0.17033	-4
0.17400	-4
0.17767	-4
0.18133	-3
0.18500	-2
0.18867	-2
0.19233	-4
0.19600	-5
0.19967	-5
0.20333	-5
0.20700	-9
0.21067	-12
0.21433	-13
0.21800	-12
0.22167	-10
0.22533	-11
0.22900	-10
0.23267	-9
0.23633	-8
0.24000	-7
0.24367	-8
0.24733	-9
0.25100	-9
0.25467	-10
0.25833	-12
0.26200	-11
0.26567	-10
0.26933	-10
0.27300	-10
0.27667	-8
0.28033	-6
0.28400	-5
0.28767	-6
0.29133	-5
0.29500	-4
0.29867	-3
0.30233	-3
0.30600	-0
0.30967	1
0.31333	1
0.31700	0
0.32067	0
0.32433	-1
0.32800	-3
0.33167	-4
0.33533	-6
0.33900	-7
0.34267	-6
0.34633	-8
0.35000	-9
0.35367	-9
0.35733	-8
0.36100	-7
0.36467	-6
0.36833	-5
0.37200	-4
0.37567	-3
0.37933	-3
0.38300	-5
0.38667	-6
0.39033	-7
0.39400	-8
0.39767	-9
0.40133	-9
0.40500	-8
0.40867	-9
0.41233	-10
0.41600	-8
0.41967	-8
0.42333	-9
0.42700	-8
0.43067	-7
0.43433	-5
0.43800	-5
0.44167	-5
0.44533	-4
0.44900	-3
0.45267	-3
0.45633	-5
0.46000	-6
0.46367	-9
0.46733	-8
0.47100	-7
0.47467	-7
0.47833	-7
0.48200	-7
0.48567	-7
0.48933	-5
0.49300	-5
0.49667	-7
0.50033	-10
0.50400	-11
0.50767	-11
0.51133	-11
0.51500	-12
0.51867	-12
0.52233	-11
0.52600	-12
0.52967	-13
0.53333	-13
0.53700	-12
0.54067	-10
0.54433	-6
0.54800	-5
0.55167	-7
0.55533	-6
0.55900	-4
0.56267	-7
0.56633	-7
0.57000	-7
0.57367	-8
0.57733	-10
0.58100	-11
0.58467	-11
0.58833	-10
0.59200	-8
0.59567	-7
0.59933	-7
0.60300	-5
0.60667	-5
0.61033	-4
0.61400	-2
0.61767	-3
0.62133	-4
0.62500	-5
0.62867	-6
0.63233	-9
0.63600	-11
0.63967	-8
0.64333	-7
0.64700	-4
0.65067	-2
0.65433	-4
0.65800	-5
0.66167	-4
0.66533	-4
0.66900	-4
0.67267	-5
0.67633	-5
0.68000	-5
0.68367	-7
0.68733	-7
0.69100	-7
0.69467	-6
0.69833	-6
0.70200	-4
0.70567	-3
0.70933	-1
0.71300	-1
0.71667	0
0.72033	2
0.72400	1
0.72767	-1
0.73133	-0
0.73500	0
0.73867	-0
0.74233	-3
0.74600	-4
0.74967	-6
0.75333	-5
0.75700	-2
0.76067	-1
0.76433	0
0.76800	1
0.77167	0
0.77533	-1
0.77900	-1
0.78267	1
0.78633	3
0.79000	3
0.79367	2
0.79733	1
0.80100	-1
0.80467	-3
0.80833	-4
0.81200	-3
0.81567	-3
0.81933	-5
0.82300	-5
0.82667	-5
0.83033	-6
0.83400	-5
0.83767	-4
0.84133	-3
0.84500	-5
0.84867	-7
0.85233	-7
0.85600	-5
0.85967	-4
0.86333	-4
0.86700	-5
0.87067	-7
0.87433	-10
0.87800	-13
0.88167	-13
0.88533	-10
0.88900	-6
0.89267	-6
0.89633	-8
0.90000	-8
0.90367	-11
0.90733	-12
0.91100	-12
0.91467	-13
0.91833	-13
0.92200	-12
0.92567	-9
0.92933	-7
0.93300	-7
0.93667	-7
0.94033	-7
0.94400	-7
0.94767	-7
0.95133	-6
0.95500	-7
0.95867	-9
0.96233	-10
0.96600	-10
0.96967	-11
0.97333	-11
0.97700	-10
0.98067	-11
0.98433	-11
0.98800	-11
0.99167	-11
0.99533	-12
0.99900	-12
1.00267	-11
1.00633	-9
1.01000	-8
1.01367	-8
1.01733	-9
1.02100	-8
1.02467	-8
1.02833	-11
1.03200	-13
1.03567	-14
1.03933	-15
1.04300	-14
1.04667	-14
1.05033	-13
1.05400	-11
1.05767	-11
1.06133	-12
1.06500	-10
1.06867	-9
1.07233	-10
1.07600	-9
1.07967	-9
1.08333	-11
1.08700	-10
1.09067	-7
1.09433	-7
1.09800	-8
1.10167	-10
1.10533	-11
1.10900	-11
1.11267	-11
1.11633	-10
1.12000	-8
1.12367	-7
1.12733	-6
1.13100	-6
1.13467	-8
1.13833	-9
1.14200	-9
1.14567	-11
1.14933	-12
1.15300	-10
1.15667	-9
1.16033	-7
1.16400	-6
1.16767	-6
1.17133	-6
1.17500	-7
1.17867	-8
1.18233	-8
1.18600	-8
1.18967	-7
1.19333	-7
1.19700	-6
1.20067	-4
1.20433	-3
1.20800	-5
1.21167	-9
1.21533	-12
1.21900	-11
1.22267	-9
1.22633	-8
1.23000	-7
1.23367	-6
1.23733	-4
1.24100	-3
1.24467	-3
1.24833	-5
1.25200	-9
1.25567	-10
1.25933	-10
1.26300	-9
1.26667	-8
1.27033	-6
1.27400	-5
1.27767	-7
1.28133	-9
1.28500	-11
1.28867	-13
1.29233	-12
1.29600	-10
1.29967	-9
1.30333	-8
1.30700	-8
1.31067	-8
1.31433	-8
1.31800	-9
1.32167	-9
1.32533	-9
1.32900	-9
1.33267	-9
1.33633	-7
1.34000	-5
1.34367	-4
1.34733	-5
1.35100	-7
1.35467	-7
1.35833	-9
1.36200	-10
1.36567	-9
1.36933	-9
1.37300	-7
1.37667	-5
1.38033	-4
1.38400	-1
1.38767	-0
1.39133	-2
1.39500	-4
1.39867	-4
1.40233	-5
1.40600	-4
1.40967	-3
1.41333	-3
1.41700	-5
1.42067	-6
1.42433	-4
1.42800	-5
1.43167	-5
1.43533	-5
1.43900	-4
1.44267	-4
1.44633	-4
1.45000	-3
1.45367	-4
1.45733	-4
1.46100	-4
1.46467	-5
1.46833	-5
1.47200	-5
1.47567	-6
1.47933	-7
1.48300	-6
1.48667	-5
1.49033	-4
1.49400	-5
1.49767	-7
1.50133	-9
1.50500	-9
1.50867	-6
1.51233	-4
1.51600	-4
1.51967	-4
1.52333	-2
1.52700	-2
1.53067	-3
1.53433	-4
1.53800	-6
1.54167	-6
1.54533	-6
1.54900	-5
1.55267	-5
1.55633	-6
1.56000	-6
1.56367	-7
1.56733	-7
1.57100	-7
1.57467	-9
1.57833	-9
1.58200	-7
1.58567	-5
1.58933	-4
1.59300	-4
1.59667	-5
1.60033	-6
1.60400	-7
1.60767	-7
1.61133	-8
1.61500	-8
1.61867	-6
1.62233	-5
1.62600	-7
1.62967	-7
1.63333	-6
1.63700	-4
1.64067	-3
1.64433	-2
1.64800	-1
1.65167	0
1.65533	1
1.65900	-0
1.66267	0
1.66633	0
1.67000	1
1.67367	3
1.67733	5
1.68100	5
1.68467	7
1.68833	8
1.69200	8
1.69567	5
1.69933	4
1.70300	4
1.70667	3
1.71033	3
1.71400	5
1.71767	7
1.72133	8
1.72500	8
1.72867	9
1.73233	9
1.73600	7
1.73967	5
1.74333	6
1.74700	8
1.75067	10
1.75433	12
1.75800	15
1.76167	18
1.76533	21
1.76900	21
1.77267	19
1.77633	18
1.78000	16
1.78367	15
1.78733	14
1.79100	13
1.79467	14
1.79833	15
1.80200	16
1.80567	15
1.80933	15
1.81300	14
1.81667	14
1.82033	14
1.82400	15
1.82767	15
1.83133	18
1.83500	19
1.83867	20
1.84233	24
1.84600	25
1.84967	22
1.85333	22
1.85700	23
1.86067	23
1.86433	24
1.86800	23
1.87167	22
1.87533	22
1.87900	21
1.88267	19
1.88633	18
1.89000	18
1.89367	20
1.89733	22
1.90100	24
1.90467	24
1.90833	26
1.91200	28
1.91567	27
1.91933	27
1.92300	26
1.92667	27
1.93033	29
1.93400	30
1.93767	32
1.94133	33
1.94500	32
1.94867	32
1.95233	32
1.95600	32
1.95967	34
1.96333	35
1.96700	36
1.97067	33
1.97433	30
1.97800	29
1.98167	30
1.98533	35
1.98900	41
1.99267	43
1.99633	46
2.00000	46
2.00367	45
2.00733	44
2.01100	43
2.01467	44
2.01833	43
2.02200	44
2.02567	46
2.02933	47
2.03300	47
2.03667	48
2.04033	50
2.04400	51
2.04767	50
2.05133	48
2.05500	49
2.05867	49
2.06233	48
2.06600	48
2.06967	49
2.07333	51
2.07700	54
2.08067	57
2.08433	61
2.08800	63
2.09167	65
2.09533	67
2.09900	67
2.10267	66
2.10633	66
2.11000	67
2.11367	67
2.11733	69
2.12100	69
2.12467	70
2.12833	70
2.13200	68
2.13567	70
2.13933	72
2.14300	73
2.14667	74
2.15033	75
2.15400	78
2.15767	81
2.16133	84
2.16500	86
2.16867	89
2.17233	91
2.17600	89
2.17967	88
2.18333	85
2.18700	85
2.19067	89
2.19433	92
2.19800	93
2.20167	91
2.20533	93
2.20900	95
2.21267	96
2.21633	94
2.22000	92
2.22367	94
2.22733	98
2.23100	100
2.23467	102
2.23833	103
2.24200	106
2.24567	107
2.24933	105
2.25300	106
2.25667	106
2.26033	105
2.26400	106
2.26767	106
2.27133	108
2.27500	112
2.27867	116
2.28233	117
2.28600	118
2.28967	118
2.29333	117
2.29700	117
2.30067	119
2.30433	124
2.30800	127
2.31167	129
2.31533	129
2.31900	128
2.32267	129
2.32633	131
2.33000	134
2.33367	135
2.33733	136
2.34100	136
2.34467	139
2.34833	141
2.35200	141
2.35567	141
2.35933	143
2.36300	145
2.36667	148
2.37033	149
2.37400	151
2.37767	152
2.38133	151
2.38500	151
2.38867	148
2.39233	148
2.39600	150
2.39967	155
2.40333	162
2.40700	168
2.41067	172
2.41433	174
2.41800	175
2.42167	178
2.42533	182
2.42900	184
2.43267	183
2.43633	184
2.44000	189
2.44367	222
2.44733	304
2.45100	400
2.45467	475
2.45833	506
2.46200	509
2.46567	509
2.46933	510
2.47300	501
2.47667	481
2.48033	451
2.48400	419
2.48767	395
2.49133	380
2.49500	376
2.49867	383
2.50233	396
2.50600	410
2.50967	419
2.51333	421
2.51700	412
2.52067	397
2.52433	379
2.52800	358
2.53167	337
2.53533	321
2.53900	309
2.54267	304
2.54633	305
2.55000	307
2.55367	310
2.55733	315
2.56100	323
2.56467	333
2.56833	342
2.57200	352
2.57567	364
2.57933	376
2.58300	388
2.58667	400
2.59033	413
2.59400	422
2.59767	429
2.60133	432
2.60500	434
2.60867	431
2.61233	424
2.61600	416
2.61967	403
2.62333	388
2.62700	367
2.63067	342
2.63433	315
2.63800	288
2.64167	259
2.64533	231
2.64900	211
2.65267	196
2.65633	184
2.66000	177
2.66367	174
2.66733	176
2.67100	180
2.67467	184
2.67833	190
2.68200	198
2.68567	205
2.68933	209
2.69300	213
2.69667	220
2.70033	228
2.70400	236
2.70767	245
2.71133	251
2.71500	259
2.71867	267
2.72233	274
2.72600	280
2.72967	286
2.73333	295
2.73700	303
2.74067	310
2.74433	319
2.74800	331
2.75167	343
2.75533	354
2.75900	361
2.76267	368
2.76633	376
2.77000	382
2.77367	386
2.77733	391
2.78100	396
2.78467	401
2.78833	403
2.79200	407
2.79567	408
2.79933	409
2.80300	412
2.80667	412
2.81033	408
2.81400	403
2.81767	400
2.82133	396
2.82500	393
2.82867	391
2.83233	387
2.83600	383
2.83967	381
2.84333	383
2.84700	390
2.85067	406
2.85433	442
2.85800	509
2.86167	624
2.86533	790
2.86900	1003
2.87267	1245
2.87633	1491
2.88000	1709
2.88367	1875
2.88733	1976
2.89100	2011
2.89467	1988
2.89833	1918
2.90200	1816
2.90567	1695
2.90933	1567
2.91300	1438
2.91667	1314
2.92033	1200
2.92400	1094
2.92767	999
2.93133	912
2.93500	836
2.93867	769
2.94233	710
2.94600	660
2.94967	615
2.95333	578
2.95700	547
2.96067	522
2.96433	500
2.96800	480
2.97167	462
2.97533	448
2.97900	437
2.98267	424
2.98633	409
2.99000	400
2.99367	393
2.99733	390
3.00100	388
3.00467	382
3.00833	375
3.01200	370
3.01567	367
3.01933	364
3.02300	361
3.02667	359
3.03033	357
3.03400	355
3.03767	353
3.04133	353
3.04500	353
3.04867	353
3.05233	352
3.05600	351
3.05967	350
3.06333	348
3.06700	346
3.07067	346
3.07433	346
3.07800	346
3.08167	345
3.08533	346
3.08900	347
3.09267	348
3.09633	347
3.10000	348
3.10367	349
3.10733	345
3.11100	342
3.11467	343
3.11833	346
3.12200	346
3.12567	347
3.12933	347
3.13300	349
3.13667	351
3.14033	351
3.14400	349
3.14767	348
3.15133	351
3.15500	354
3.15867	354
3.16233	353
3.16600	351
3.16967	351
3.17333	350
3.17700	349
3.18067	348
3.18433	348
3.18800	347
3.19167	347
3.19533	347
3.19900	345
3.20267	344
3.20633	345
3.21000	346
3.21367	346
3.21733	345
3.22100	343
3.22467	343
3.22833	343
3.23200	342
3.23567	340
3.23933	340
3.24300	340
3.24667	339
3.25033	338
3.25400	339
3.25767	339
3.26133	338
3.26500	334
3.26867	331
3.27233	327
3.27600	321
3.27967	318
3.28333	314
3.28700	309
3.29067	306
3.29433	303
3.29800	302
3.30167	301
3.30533	299
3.30900	297
3.31267	292
3.31633	286
3.32000	280
3.32367	276
3.32733	274
3.33100	272
3.33467	267
3.33833	264
3.34200	263
3.34567	262
3.34933	260
3.35300	258
3.35667	255
3.36033	252
3.36400	248
3.36767	246
3.37133	244
3.37500	241
3.37867	238
3.38233	235
3.38600	233
3.38967	231
3.39333	228
3.39700	225
3.40067	223
3.40433	217
3.40800	211
3.41167	209
3.41533	207
3.41900	205
3.42267	205
3.42633	204
3.43000	203
3.43367	200
3.43733	197
3.44100	195
3.44467	192
3.44833	191
3.45200	191
3.45567	192
3.45933	191
3.46300	189
3.46667	187
3.47033	184
3.47400	182
3.47767	181
3.48133	177
3.48500	175
3.48867	173
3.49233	171
3.49600	168
3.49967	167
3.50333	168
3.50700	167
3.51067	163
3.51433	160
3.51800	158
3.52167	156
3.52533	156
3.52900	156
3.53267	154
3.53633	153
3.54000	154
3.54367	156
3.54733	157
3.55100	157
3.55467	157
3.55833	158
3.56200	159
3.56567	154
3.56933	149
3.57300	146
3.57667	145
3.58033	145
3.58400	144
3.58767	142
3.59133	142
3.59500	141
3.59867	140
3.60233	142
3.60600	142
3.60967	140
3.61333	136
3.61700	134
3.62067	134
3.62433	132
3.62800	129
3.63167	127
3.63533	125
3.63900	124
3.64267	123
3.64633	123
3.65000	124
3.65367	123
3.65733	120
3.66100	118
3.66467	119
3.66833	120
3.67200	118
3.67567	116
3.67933	115
3.68300	113
3.68667	111
3.69033	109
3.69400	106
3.69767	106
3.70133	108
3.70500	109
3.70867	109
3.71233	107
3.71600	105
3.71967	104
3.72333	104
3.72700	104
3.73067	102
3.73433	98
3.73800	96
3.74167	95
3.74533	95
3.74900	97
3.75267	98
3.75633	97
3.76000	96
3.76367	96
3.76733	93
3.77100	91
3.77467	89
3.77833	87
3.78200	84
3.78567	81
3.78933	81
3.79300	80
3.79667	79
3.80033	75
3.80400	74
3.80767	74
3.81133	73
3.81500	73
3.81867	71
3.82233	70
3.82600	70
3.82967	67
3.83333	64
3.83700	61
3.84067	60
3.84433	58
3.84800	57
3.85167	56
3.85533	56
3.85900	57
3.86267	57
3.86633	57
3.87000	54
3.87367	50
3.87733	49
3.88100	50
3.88467	49
3.88833	46
3.89200	44
3.89567	44
3.89933	44
3.90300	45
3.90667	46
3.91033	43
3.91400	42
3.91767	40
3.92133	38
3.92500	36
3.92867	36
3.93233	36
3.93600	37
3.93967	39
3.94333	41
3.94700	42
3.95067	40
3.95433	37
3.95800	34
3.96167	31
3.96533	31
3.96900	30
3.97267	30
3.97633	29
3.98000	28
3.98367	27
3.98733	26
3.99100	26
3.99467	27
3.99833	25

[Status Trace (Column Oven Temperature)]
Interval(msec)	1000
# of Points	240
Start Time(min)	0.011
End Time(min)	3.994
Intensity Units	
Intensity Multiplier	1
R.Time (min)	Intensity
0.01078	35.01
0.02745	35.01
0.04412	35.02
0.06078	35.02
0.07745	35.02
0.09412	35.01
0.11078	35.01
0.12745	35.00
0.14412	34.99
0.16078	34.99
0.17745	34.99
0.19412	34.98
0.21078	34.99
0.22745	34.99
0.24412	34.99
0.26078	34.99
0.27745	34.99
0.29412	34.98
0.31078	34.99
0.32745	34.99
0.34412	34.99
0.36078	35.00
0.37745	34.98
0.39412	34.98
0.41078	34.98
0.42745	34.98
0.44412	34.98
0.46078	34.98
0.47745	34.99
0.49412	34.98
0.51078	34.99
0.52745	34.99
0.54412	34.99
0.56078	34.98
0.57745	34.98
0.59412	34.98
0.61078	34.98
0.62745	34.98
0.64412	34.99
0.66078	34.99
0.67745	34.99
0.69412	35.00
0.71078	35.00
0.72745	35.00
0.74412	35.00
0.76078	34.99
0.77745	34.99
0.79412	34.99
0.81078	34.99
0.82745	34.99
0.84412	34.99
0.86078	34.99
0.87745	35.00
0.89412	35.00
0.91078	35.00
0.92745	35.01
0.94412	35.01
0.96078	35.00
0.97745	35.00
0.99412	35.00
1.01078	35.00
1.02745	35.00
1.04412	34.99
1.06078	34.99
1.07745	34.98
1.09412	34.98
1.11078	34.98
1.12745	34.99
1.14412	34.99
1.16078	35.00
1.17745	35.01
1.19412	35.02
1.21078	35.02
1.22745	35.01
1.24412	35.01
1.26078	35.00
1.27745	35.00
1.29412	35.00
1.31078	35.00
1.32745	35.02
1.34412	35.03
1.36078	35.04
1.37745	35.03
1.39412	35.03
1.41078	35.03
1.42745	35.02
1.44412	35.01
1.46078	35.00
1.47745	35.00
1.49412	35.00
1.51078	35.00
1.52745	35.00
1.54412	34.98
1.56078	34.98
1.57745	34.98
1.59412	35.00
1.61078	35.07
1.62745	35.20
1.64412	35.40
1.66078	35.66
1.67745	36.02
1.69412	36.37
1.71078	36.72
1.72745	37.07
1.74412	37.41
1.76078	37.73
1.77745	38.08
1.79412	38.39
1.81078	38.73
1.82745	39.05
1.84412	39.39
1.86078	39.72
1.87745	40.05
1.89412	40.37
1.91078	40.70
1.92745	41.03
1.94412	41.34
1.96078	41.66
1.97745	42.01
1.99412	42.33
2.01078	42.66
2.02745	42.98
2.04412	43.31
2.06078	43.62
2.07745	43.95
2.09412	44.27
2.11078	44.61
2.12745	44.93
2.14412	45.26
2.16078	45.57
2.17745	45.89
2.19412	46.23
2.21078	46.54
2.22745	46.89
2.24412	47.23
2.26078	47.55
2.27745	47.90
2.29412	48.21
2.31078	48.55
2.32745	48.90
2.34412	49.19
2.36078	49.45
2.37745	49.62
2.39412	49.66
2.41078	49.65
2.42745	49.66
2.44412	49.67
2.46078	49.67
2.47745	49.70
2.49412	49.71
2.51078	49.72
2.52745	49.72
2.54412	49.74
2.56078	49.76
2.57745	49.78
2.59412	49.80
2.61078	49.80
2.62745	49.81
2.64412	49.83
2.66078	49.84
2.67745	49.85
2.69412	49.85
2.71078	49.88
2.72745	49.88
2.74412	49.87
2.76078	49.85
2.77745	49.84
2.79412	49.85
2.81078	49.87
2.82745	49.87
2.84412	49.87
2.86078	49.87
2.87745	49.88
2.89412	49.88
2.91078	49.89
2.92745	49.90
2.94412	49.92
2.96078	49.93
2.97745	49.96
2.99412	49.98
3.01078	50.00
3.02745	50.01
3.04412	50.01
3.06078	50.00
3.07745	50.00
3.09412	50.00
3.11078	50.00
3.12745	50.01
3.14412	50.01
3.16078	50.02
3.17745	50.03
3.19412	50.04
3.21078	50.05
3.22745	50.07
3.24412	50.08
3.26078	50.10
3.27745	50.11
3.29412	50.12
3.31078	50.10
3.32745	50.09
3.34412	50.07
3.36078	50.07
3.37745	50.06
3.39412	50.06
3.41078	50.06
3.42745	50.06
3.44412	50.05
3.46078	50.03
3.47745	50.02
3.49412	50.02
3.51078	50.01
3.52745	50.01
3.54412	50.03
3.56078	50.04
3.57745	50.05
3.59412	50.05
3.61078	50.05
3.62745	50.04
3.64412	50.05
3.66078	50.05
3.67745	50.05
3.69412	50.05
3.71078	50.05
3.72745	50.04
3.74412	50.04
3.76078	50.05
3.77745	50.05
3.79412	50.04
3.81078	50.04
3.82745	50.05
3.84412	50.05
3.86078	50.05
3.87745	50.05
3.89412	50.06
3.91078	50.07
3.92745	50.08
3.94412	50.08
3.96078	50.09
3.97745	50.08
3.99412	50.09

[Status Trace (Injection Unit Temperature)]
Interval(msec)	1000
# of Points	240
Start Time(min)	0.011
End Time(min)	3.994
Intensity Units	
Intensity Multiplier	1
R.Time (min)	Intensity
0.01078	99.99
0.02745	100.00
0.04412	99.99
0.06078	100.00
0.07745	100.00
0.09412	100.00
0.11078	100.00
0.12745	99.99
0.14412	100.00
0.16078	100.00
0.17745	100.00
0.19412	100.00
0.21078	100.00
0.22745	100.00
0.24412	100.00
0.26078	100.00
0.27745	100.00
0.29412	99.99
0.31078	100.00
0.32745	100.00
0.34412	100.00
0.36078	100.00
0.37745	100.00
0.39412	100.00
0.41078	99.99
0.42745	100.00
0.44412	100.00
0.46078	100.00
0.47745	99.99
0.49412	100.00
0.51078	100.00
0.52745	100.00
0.54412	100.00
0.56078	100.00
0.57745	100.00
0.59412	100.00
0.61078	100.00
0.62745	100.00
0.64412	100.00
0.66078	100.00
0.67745	99.99
0.69412	99.99
0.71078	99.99
0.72745	100.00
0.74412	99.99
0.76078	99.99
0.77745	99.99
0.79412	99.99
0.81078	99.99
0.82745	99.99
0.84412	99.99
0.86078	99.99
0.87745	99.99
0.89412	99.99
0.91078	99.99
0.92745	99.99
0.94412	99.99
0.96078	99.99
0.97745	99.98
0.99412	99.99
1.01078	99.99
1.02745	99.99
1.04412	99.98
1.06078	99.98
1.07745	99.98
1.09412	99.99
1.11078	99.98
1.12745	99.99
1.14412	99.99
1.16078	99.99
1.17745	99.99
1.19412	99.99
1.21078	99.99
1.22745	99.99
1.24412	99.99
1.26078	99.99
1.27745	99.99
1.29412	99.99
1.31078	99.99
1.32745	99.99
1.34412	99.99
1.36078	99.99
1.37745	99.99
1.39412	100.00
1.41078	99.99
1.42745	99.99
1.44412	100.00
1.46078	99.99
1.47745	99.99
1.49412	99.99
1.51078	99.99
1.52745	100.00
1.54412	100.00
1.56078	100.00
1.57745	100.00
1.59412	100.00
1.61078	99.99
1.62745	100.00
1.64412	100.00
1.66078	100.00
1.67745	100.00
1.69412	100.00
1.71078	100.00
1.72745	100.00
1.74412	100.00
1.76078	99.99
1.77745	99.99
1.79412	100.00
1.81078	99.99
1.82745	99.99
1.84412	99.99
1.86078	99.99
1.87745	99.99
1.89412	99.99
1.91078	99.99
1.92745	99.99
1.94412	99.99
1.96078	99.99
1.97745	99.98
1.99412	99.99
2.01078	99.98
2.02745	99.99
2.04412	99.99
2.06078	99.99
2.07745	99.98
2.09412	99.98
2.11078	99.98
2.12745	99.98
2.14412	99.98
2.16078	99.98
2.17745	99.98
2.19412	99.98
2.21078	99.98
2.22745	99.98
2.24412	99.98
2.26078	99.98
2.27745	99.98
2.29412	99.98
2.31078	99.98
2.32745	99.98
2.34412	99.98
2.36078	99.98
2.37745	99.98
2.39412	99.98
2.41078	99.98
2.42745	99.98
2.44412	99.98
2.46078	99.98
2.47745	99.98
2.49412	99.98
2.51078	99.98
2.52745	99.98
2.54412	99.98
2.56078	99.98
2.57745	99.99
2.59412	99.99
2.61078	99.99
2.62745	99.99
2.64412	99.99
2.66078	99.99
2.67745	99.99
2.69412	99.99
2.71078	99.99
2.72745	100.00
2.74412	100.00
2.76078	100.00
2.77745	100.00
2.79412	100.00
2.81078	100.00
2.82745	100.00
2.84412	100.01
2.86078	100.01
2.87745	100.01
2.89412	100.01
2.91078	100.01
2.92745	100.01
2.94412	100.01
2.96078	100.01
2.97745	100.01
2.99412	100.01
3.01078	100.02
3.02745	100.02
3.04412	100.02
3.06078	100.02
3.07745	100.02
3.09412	100.03
3.11078	100.02
3.12745	100.03
3.14412	100.03
3.16078	100.03
3.17745	100.03
3.19412	100.03
3.21078	100.03
3.22745	100.04
3.24412	100.04
3.26078	100.04
3.27745	100.04
3.29412	100.04
3.31078	100.04
3.32745	100.04
3.34412	100.04
3.36078	100.04
3.37745	100.05
3.39412	100.05
3.41078	100.05
3.42745	100.05
3.44412	100.05
3.46078	100.04
3.47745	100.05
3.49412	100.05
3.51078	100.05
3.52745	100.05
3.54412	100.05
3.56078	100.05
3.57745	100.05
3.59412	100.05
3.61078	100.05
3.62745	100.05
3.64412	100.05
3.66078	100.06
3.67745	100.06
3.69412	100.06
3.71078	100.06
3.72745	100.06
3.74412	100.06
3.76078	100.06
3.77745	100.06
3.79412	100.06
3.81078	100.06
3.82745	100.06
3.84412	100.06
3.86078	100.06
3.87745	100.06
3.89412	100.06
3.91078	100.06
3.92745	100.06
3.94412	100.06
3.96078	100.06
3.97745	100.05
3.99412	100.06

[Status Trace (Carrier Gas Pressure)]
Interval(msec)	1000
# of Points	240
Start Time(min)	0.011
End Time(min)	3.994
Intensity Units	
Intensity Multiplier	1
R.Time (min)	Intensity
0.01078	58.00
0.02745	55.05
0.04412	57.47
0.06078	59.45
0.07745	59.22
0.09412	58.02
0.11078	57.98
0.12745	58.01
0.14412	58.01
0.16078	58.00
0.17745	58.00
0.19412	58.00
0.21078	58.00
0.22745	58.00
0.24412	58.00
0.26078	58.00
0.27745	58.00
0.29412	58.00
0.31078	58.00
0.32745	58.00
0.34412	58.00
0.36078	58.00
0.37745	58.00
0.39412	58.00
0.41078	58.00
0.42745	58.00
0.44412	58.00
0.46078	58.00
0.47745	58.00
0.49412	58.00
0.51078	58.00
0.52745	58.00
0.54412	58.00
0.56078	58.00
0.57745	58.00
0.59412	58.00
0.61078	58.00
0.62745	58.00
0.64412	58.00
0.66078	58.00
0.67745	58.00
0.69412	58.00
0.71078	58.00
0.72745	58.00
0.74412	58.00
0.76078	58.00
0.77745	58.00
0.79412	58.00
0.81078	58.00
0.82745	58.00
0.84412	58.00
0.86078	58.00
0.87745	58.00
0.89412	58.00
0.91078	58.00
0.92745	58.00
0.94412	58.00
0.96078	58.00
0.97745	58.00
0.99412	58.00
1.01078	58.00
1.02745	58.00
1.04412	58.00
1.06078	58.00
1.07745	58.00
1.09412	58.00
1.11078	58.00
1.12745	58.00
1.14412	58.00
1.16078	58.00
1.17745	58.00
1.19412	58.00
1.21078	58.00
1.22745	58.00
1.24412	58.00
1.26078	58.00
1.27745	58.00
1.29412	58.00
1.31078	58.00
1.32745	58.00
1.34412	58.00
1.36078	58.00
1.37745	58.00
1.39412	58.00
1.41078	58.00
1.42745	58.00
1.44412	58.00
1.46078	58.00
1.47745	58.00
1.49412	58.00
1.51078	58.00
1.52745	58.00
1.54412	58.00
1.56078	58.00
1.57745	58.00
1.59412	58.00
1.61078	58.00
1.62745	58.00
1.64412	58.01
1.66078	58.00
1.67745	58.01
1.69412	58.00
1.71078	58.00
1.72745	58.00
1.74412	58.00
1.76078	58.00
1.77745	58.00
1.79412	58.00
1.81078	58.00
1.82745	58.00
1.84412	58.00
1.86078	58.00
1.87745	58.00
1.89412	58.00
1.91078	58.00
1.92745	58.00
1.94412	58.00
1.96078	58.00
1.97745	58.00
1.99412	58.00
2.01078	58.00
2.02745	58.00
2.04412	58.00
2.06078	58.00
2.07745	58.00
2.09412	58.00
2.11078	58.00
2.12745	58.00
2.14412	58.00
2.16078	58.00
2.17745	58.00
2.19412	58.00
2.21078	58.00
2.22745	58.00
2.24412	58.00
2.26078	58.00
2.27745	58.00
2.29412	58.00
2.31078	58.00
2.32745	58.00
2.34412	58.00
2.36078	58.00
2.37745	58.00
2.39412	57.99
2.41078	57.99
2.42745	58.00
2.44412	58.00
2.46078	58.00
2.47745	58.00
2.49412	58.00
2.51078	57.99
2.52745	57.98
2.54412	58.00
2.56078	58.00
2.57745	58.00
2.59412	58.00
2.61078	58.00
2.62745	58.00
2.64412	58.00
2.66078	58.00
2.67745	58.00
2.69412	58.00
2.71078	58.00
2.72745	58.00
2.74412	58.00
2.76078	58.00
2.77745	58.00
2.79412	58.00
2.81078	58.00
2.82745	58.00
2.84412	58.00
2.86078	58.00
2.87745	58.00
2.89412	58.00
2.91078	58.00
2.92745	58.00
2.94412	58.00
2.96078	58.00
2.97745	58.00
2.99412	58.00
3.01078	58.00
3.02745	58.00
3.04412	58.00
3.06078	58.00
3.07745	58.00
3.09412	58.00
3.11078	58.00
3.12745	58.00
3.14412	58.00
3.16078	58.00
3.17745	58.00
3.19412	58.00
3.21078	58.00
3.22745	58.00
3.24412	58.00
3.26078	58.00
3.27745	58.00
3.29412	58.00
3.31078	58.00
3.32745	58.00
3.34412	58.00
3.36078	58.00
3.37745	58.00
3.39412	58.00
3.41078	58.00
3.42745	58.00
3.44412	58.00
3.46078	58.00
3.47745	58.00
3.49412	58.00
3.51078	58.00
3.52745	58.00
3.54412	58.00
3.56078	58.00
3.57745	58.00
3.59412	58.00
3.61078	58.00
3.62745	58.00
3.64412	58.00
3.66078	58.00
3.67745	58.00
3.69412	58.00
3.71078	58.00
3.72745	58.00
3.74412	58.00
3.76078	58.00
3.77745	58.00
3.79412	58.00
3.81078	58.00
3.82745	58.00
3.84412	58.00
3.86078	58.00
3.87745	58.00
3.89412	58.00
3.91078	58.00
3.92745	58.00
3.94412	58.00
3.96078	58.00
3.97745	58.00
3.99412	58.00

[Status Trace (Carrier Gas Flow)]
Interval(msec)	1000
# of Points	240
Start Time(min)	0.011
End Time(min)	3.994
Intensity Units	
Intensity Multiplier	1
R.Time (min)	Intensity
0.01078	34.52
0.02745	34.53
0.04412	34.55
0.06078	34.55
0.07745	34.51
0.09412	34.52
0.11078	34.52
0.12745	34.52
0.14412	34.52
0.16078	34.52
0.17745	34.52
0.19412	34.52
0.21078	34.52
0.22745	34.52
0.24412	34.52
0.26078	34.52
0.27745	34.52
0.29412	34.52
0.31078	34.52
0.32745	34.52
0.34412	34.52
0.36078	34.52
0.37745	34.52
0.39412	34.52
0.41078	34.52
0.42745	34.52
0.44412	34.52
0.46078	34.52
0.47745	34.52
0.49412	34.52
0.51078	34.52
0.52745	34.52
0.54412	34.52
0.56078	34.52
0.57745	34.52
0.59412	34.52
0.61078	34.52
0.62745	34.52
0.64412	34.52
0.66078	34.52
0.67745	34.52
0.69412	34.52
0.71078	34.52
0.72745	34.52
0.74412	34.52
0.76078	34.52
0.77745	34.52
0.79412	34.52
0.81078	34.52
0.82745	34.52
0.84412	34.52
0.86078	34.52
0.87745	34.52
0.89412	34.52
0.91078	34.52
0.92745	34.52
0.94412	34.52
0.96078	34.52
0.97745	34.52
0.99412	34.52
1.01078	34.52
1.02745	34.52
1.04412	34.52
1.06078	34.52
1.07745	34.52
1.09412	34.52
1.11078	34.52
1.12745	34.52
1.14412	34.52
1.16078	34.52
1.17745	34.52
1.19412	34.52
1.21078	34.52
1.22745	34.52
1.24412	34.52
1.26078	34.52
1.27745	34.52
1.29412	34.52
1.31078	34.52
1.32745	34.52
1.34412	34.52
1.36078	34.52
1.37745	34.52
1.39412	34.52
1.41078	34.52
1.42745	34.52
1.44412	34.52
1.46078	34.52
1.47745	34.52
1.49412	34.52
1.51078	34.52
1.52745	34.52
1.54412	34.52
1.56078	34.52
1.57745	34.52
1.59412	34.52
1.61078	34.52
1.62745	34.52
1.64412	34.52
1.66078	34.52
1.67745	34.52
1.69412	34.52
1.71078	34.52
1.72745	34.52
1.74412	34.52
1.76078	34.52
1.77745	34.52
1.79412	34.52
1.81078	34.52
1.82745	34.52
1.84412	34.52
1.86078	34.52
1.87745	34.52
1.89412	34.52
1.91078	34.52
1.92745	34.52
1.94412	34.52
1.96078	34.52
1.97745	34.52
1.99412	34.52
2.01078	34.52
2.02745	34.52
2.04412	34.52
2.06078	34.52
2.07745	34.52
2.09412	34.52
2.11078	34.52
2.12745	34.52
2.14412	34.52
2.16078	34.52
2.17745	34.52
2.19412	34.52
2.21078	34.52
2.22745	34.52
2.24412	34.52
2.26078	34.52
2.27745	34.52
2.29412	34.52
2.31078	34.52
2.32745	34.52
2.34412	34.52
2.36078	34.52
2.37745	34.52
2.39412	34.50
2.41078	34.53
2.42745	34.52
2.44412	34.52
2.46078	34.52
2.47745	34.52
2.49412	34.52
2.51078	34.52
2.52745	34.52
2.54412	34.52
2.56078	34.52
2.57745	34.52
2.59412	34.52
2.61078	34.52
2.62745	34.52
2.64412	34.52
2.66078	34.52
2.67745	34.52
2.69412	34.52
2.71078	34.52
2.72745	34.52
2.74412	34.52
2.76078	34.52
2.77745	34.51
2.79412	34.52
2.81078	34.52
2.82745	34.52
2.84412	34.52
2.86078	34.52
2.87745	34.52
2.89412	34.52
2.91078	34.52
2.92745	34.52
2.94412	34.52
2.96078	34.52
2.97745	34.52
2.99412	34.52
3.01078	34.52
3.02745	34.52
3.04412	34.52
3.06078	34.52
3.07745	34.52
3.09412	34.52
3.11078	34.52
3.12745	34.52
3.14412	34.52
3.16078	34.52
3.17745	34.52
3.19412	34.52
3.21078	34.52
3.22745	34.52
3.24412	34.52
3.26078	34.52
3.27745	34.52
3.29412	34.52
3.31078	34.52
3.32745	34.52
3.34412	34.52
3.36078	34.52
3.37745	34.52
3.39412	34.52
3.41078	34.52
3.42745	34.52
3.44412	34.52
3.46078	34.52
3.47745	34.52
3.49412	34.52
3.51078	34.52
3.52745	34.52
3.54412	34.52
3.56078	34.52
3.57745	34.52
3.59412	34.52
3.61078	34.52
3.62745	34.52
3.64412	34.52
3.66078	34.52
3.67745	34.52
3.69412	34.52
3.71078	34.52
3.72745	34.52
3.74412	34.52
3.76078	34.52
3.77745	34.52
3.79412	34.52
3.81078	34.52
3.82745	34.52
3.84412	34.52
3.86078	34.52
3.87745	34.52
3.89412	34.52
3.91078	34.52
3.92745	34.52
3.94412	34.52
3.96078	34.52
3.97745	34.52
3.99412	34.52

[Status Trace (Column Flow)]
Interval(msec)	1000
# of Points	240
Start Time(min)	0.011
End Time(min)	3.994
Intensity Units	
Intensity Multiplier	1
R.Time (min)	Intensity
0.01078	5.50
0.02745	5.16
0.04412	5.44
0.06078	5.67
0.07745	5.65
0.09412	5.51
0.11078	5.50
0.12745	5.51
0.14412	5.51
0.16078	5.51
0.17745	5.51
0.19412	5.51
0.21078	5.51
0.22745	5.51
0.24412	5.51
0.26078	5.51
0.27745	5.51
0.29412	5.51
0.31078	5.51
0.32745	5.51
0.34412	5.51
0.36078	5.51
0.37745	5.51
0.39412	5.51
0.41078	5.51
0.42745	5.51
0.44412	5.51
0.46078	5.51
0.47745	5.51
0.49412	5.51
0.51078	5.51
0.52745	5.51
0.54412	5.51
0.56078	5.51
0.57745	5.51
0.59412	5.51
0.61078	5.51
0.62745	5.51
0.64412	5.51
0.66078	5.50
0.67745	5.50
0.69412	5.50
0.71078	5.50
0.72745	5.51
0.74412	5.50
0.76078	5.51
0.77745	5.50
0.79412	5.51
0.81078	5.51
0.82745	5.51
0.84412	5.51
0.86078	5.51
0.87745	5.50
0.89412	5.50
0.91078	5.50
0.92745	5.50
0.94412	5.50
0.96078	5.50
0.97745	5.50
0.99412	5.50
1.01078	5.50
1.02745	5.50
1.04412	5.50
1.06078	5.51
1.07745	5.51
1.09412	5.51
1.11078	5.51
1.12745	5.51
1.14412	5.51
1.16078	5.50
1.17745	5.50
1.19412	5.50
1.21078	5.50
1.22745	5.50
1.24412	5.50
1.26078	5.50
1.27745	5.50
1.29412	5.50
1.31078	5.50
1.32745	5.50
1.34412	5.50
1.36078	5.50
1.37745	5.50
1.39412	5.50
1.41078	5.50
1.42745	5.50
1.44412	5.50
1.46078	5.50
1.47745	5.50
1.49412	5.51
1.51078	5.50
1.52745	5.51
1.54412	5.51
1.56078	5.51
1.57745	5.51
1.59412	5.51
1.61078	5.50
1.62745	5.50
1.64412	5.49
1.66078	5.49
1.67745	5.47
1.69412	5.46
1.71078	5.45
1.72745	5.44
1.74412	5.43
1.76078	5.42
1.77745	5.41
1.79412	5.40
1.81078	5.39
1.82745	5.38
1.84412	5.37
1.86078	5.36
1.87745	5.35
1.89412	5.34
1.91078	5.33
1.92745	5.32
1.94412	5.31
1.96078	5.30
1.97745	5.29
1.99412	5.28
2.01078	5.27
2.02745	5.26
2.04412	5.25
2.06078	5.24
2.07745	5.24
2.09412	5.23
2.11078	5.22
2.12745	5.21
2.14412	5.20
2.16078	5.19
2.17745	5.18
2.19412	5.17
2.21078	5.16
2.22745	5.15
2.24412	5.14
2.26078	5.13
2.27745	5.12
2.29412	5.11
2.31078	5.10
2.32745	5.09
2.34412	5.09
2.36078	5.08
2.37745	5.07
2.39412	5.07
2.41078	5.07
2.42745	5.07
2.44412	5.07
2.46078	5.07
2.47745	5.07
2.49412	5.07
2.51078	5.07
2.52745	5.07
2.54412	5.07
2.56078	5.07
2.57745	5.07
2.59412	5.07
2.61078	5.07
2.62745	5.07
2.64412	5.07
2.66078	5.07
2.67745	5.07
2.69412	5.07
2.71078	5.07
2.72745	5.07
2.74412	5.07
2.76078	5.07
2.77745	5.07
2.79412	5.07
2.81078	5.07
2.82745	5.07
2.84412	5.07
2.86078	5.07
2.87745	5.07
2.89412	5.07
2.91078	5.07
2.92745	5.07
2.94412	5.07
2.96078	5.07
2.97745	5.06
2.99412	5.06
3.01078	5.06
3.02745	5.06
3.04412	5.06
3.06078	5.06
3.07745	5.06
3.09412	5.06
3.11078	5.06
3.12745	5.06
3.14412	5.06
3.16078	5.06
3.17745	5.06
3.19412	5.06
3.21078	5.06
3.22745	5.06
3.24412	5.06
3.26078	5.06
3.27745	5.06
3.29412	5.06
3.31078	5.06
3.32745	5.06
3.34412	5.06
3.36078	5.06
3.37745	5.06
3.39412	5.06
3.41078	5.06
3.42745	5.06
3.44412	5.06
3.46078	5.06
3.47745	5.06
3.49412	5.06
3.51078	5.06
3.52745	5.06
3.54412	5.06
3.56078	5.06
3.57745	5.06
3.59412	5.06
3.61078	5.06
3.62745	5.06
3.64412	5.06
3.66078	5.06
3.67745	5.06
3.69412	5.06
3.71078	5.06
3.72745	5.06
3.74412	5.06
3.76078	5.06
3.77745	5.06
3.79412	5.06
3.81078	5.06
3.82745	5.06
3.84412	5.06
3.86078	5.06
3.87745	5.06
3.89412	5.06
3.91078	5.06
3.92745	5.06
3.94412	5.06
3.96078	5.06
3.97745	5.06
3.99412	5.06

[Status Trace (Linear Velocity)]
Interval(msec)	1000
# of Points	240
Start Time(min)	0.011
End Time(min)	3.994
Intensity Units	
Intensity Multiplier	1
R.Time (min)	Intensity
0.01078	39.01
0.02745	37.08
0.04412	38.66
0.06078	39.96
0.07745	39.81
0.09412	39.02
0.11078	39.00
0.12745	39.02
0.14412	39.02
0.16078	39.02
0.17745	39.02
0.19412	39.02
0.21078	39.02
0.22745	39.02
0.24412	39.01
0.26078	39.01
0.27745	39.01
0.29412	39.02
0.31078	39.01
0.32745	39.01
0.34412	39.01
0.36078	39.01
0.37745	39.01
0.39412	39.02
0.41078	39.01
0.42745	39.02
0.44412	39.02
0.46078	39.02
0.47745	39.01
0.49412	39.01
0.51078	39.01
0.52745	39.01
0.54412	39.01
0.56078	39.01
0.57745	39.01
0.59412	39.02
0.61078	39.02
0.62745	39.01
0.64412	39.01
0.66078	39.01
0.67745	39.01
0.69412	39.01
0.71078	39.01
0.72745	39.01
0.74412	39.01
0.76078	39.01
0.77745	39.01
0.79412	39.01
0.81078	39.01
0.82745	39.01
0.84412	39.01
0.86078	39.01
0.87745	39.01
0.89412	39.01
0.91078	39.01
0.92745	39.01
0.94412	39.01
0.96078	39.01
0.97745	39.01
0.99412	39.01
1.01078	39.01
1.02745	39.01
1.04412	39.01
1.06078	39.01
1.07745	39.01
1.09412	39.01
1.11078	39.01
1.12745	39.01
1.14412	39.01
1.16078	39.01
1.17745	39.01
1.19412	39.01
1.21078	39.01
1.22745	39.01
1.24412	39.01
1.26078	39.01
1.27745	39.01
1.29412	39.01
1.31078	39.01
1.32745	39.01
1.34412	39.01
1.36078	39.01
1.37745	39.01
1.39412	39.01
1.41078	39.01
1.42745	39.01
1.44412	39.01
1.46078	39.01
1.47745	39.01
1.49412	39.01
1.51078	39.01
1.52745	39.01
1.54412	39.01
1.56078	39.01
1.57745	39.01
1.59412	39.01
1.61078	39.01
1.62745	39.00
1.64412	38.98
1.66078	38.96
1.67745	38.92
1.69412	38.88
1.71078	38.85
1.72745	38.82
1.74412	38.78
1.76078	38.75
1.77745	38.72
1.79412	38.69
1.81078	38.66
1.82745	38.63
1.84412	38.60
1.86078	38.57
1.87745	38.54
1.89412	38.50
1.91078	38.48
1.92745	38.45
1.94412	38.41
1.96078	38.39
1.97745	38.36
1.99412	38.32
2.01078	38.29
2.02745	38.26
2.04412	38.23
2.06078	38.21
2.07745	38.18
2.09412	38.14
2.11078	38.11
2.12745	38.09
2.14412	38.05
2.16078	38.03
2.17745	38.00
2.19412	37.97
2.21078	37.94
2.22745	37.91
2.24412	37.88
2.26078	37.85
2.27745	37.82
2.29412	37.79
2.31078	37.76
2.32745	37.73
2.34412	37.70
2.36078	37.68
2.37745	37.66
2.39412	37.65
2.41078	37.66
2.42745	37.66
2.44412	37.66
2.46078	37.66
2.47745	37.66
2.49412	37.65
2.51078	37.65
2.52745	37.64
2.54412	37.65
2.56078	37.65
2.57745	37.65
2.59412	37.65
2.61078	37.65
2.62745	37.65
2.64412	37.64
2.66078	37.64
2.67745	37.64
2.69412	37.64
2.71078	37.64
2.72745	37.64
2.74412	37.64
2.76078	37.64
2.77745	37.64
2.79412	37.64
2.81078	37.64
2.82745	37.64
2.84412	37.64
2.86078	37.64
2.87745	37.64
2.89412	37.64
2.91078	37.64
2.92745	37.64
2.94412	37.64
2.96078	37.64
2.97745	37.63
2.99412	37.63
3.01078	37.63
3.02745	37.63
3.04412	37.63
3.06078	37.63
3.07745	37.63
3.09412	37.63
3.11078	37.63
3.12745	37.63
3.14412	37.63
3.16078	37.63
3.17745	37.63
3.19412	37.63
3.21078	37.62
3.22745	37.62
3.24412	37.62
3.26078	37.62
3.27745	37.62
3.29412	37.62
3.31078	37.62
3.32745	37.62
3.34412	37.62
3.36078	37.62
3.37745	37.62
3.39412	37.62
3.41078	37.62
3.42745	37.62
3.44412	37.62
3.46078	37.63
3.47745	37.63
3.49412	37.63
3.51078	37.63
3.52745	37.63
3.54412	37.63
3.56078	37.63
3.57745	37.62
3.59412	37.62
3.61078	37.62
3.62745	37.62
3.64412	37.62
3.66078	37.62
3.67745	37.62
3.69412	37.62
3.71078	37.62
3.72745	37.63
3.74412	37.63
3.76078	37.62
3.77745	37.62
3.79412	37.62
3.81078	37.63
3.82745	37.62
3.84412	37.62
3.86078	37.62
3.87745	37.62
3.89412	37.62
3.91078	37.62
3.92745	37.62
3.94412	37.62
3.96078	37.62
3.97745	37.62
3.99412	37.62

