[Header]
Application Name	LabSolutions
Version	5.110
Data File Name	C:\Users\User\Desktop\GC Analyses\Jack\UIC Prairie Sampling\10.19.22\221019_078.gcd
Output Date	1/4/2023
Output Time	2:27:23 PM

[File Information]
Type	Data File
Generated	12/7/2022 3:12:53 PM
Generated by	System Administrator
Modified	12/7/2022 3:17:29 PM
Modified by	System Administrator

[Sample Information]
Operator Name	System Administrator
Acquired	12/7/2022 3:13:28 PM
Sample Type	1:Standard
Level	1
Sample Name	221019_UICPrairie
Sample ID	221019_UICPrairie
ISTD Amount1	1
ISTD Amount2	1
ISTD Amount3	1
ISTD Amount4	1
ISTD Amount5	1
ISTD Amount6	1
ISTD Amount7	1
ISTD Amount8	1
ISTD Amount9	1
ISTD Amount10	1
ISTD Amount11	1
ISTD Amount12	1
ISTD Amount13	1
ISTD Amount14	1
ISTD Amount15	1
ISTD Amount16	1
ISTD Amount17	1
ISTD Amount18	1
ISTD Amount19	1
ISTD Amount20	1
ISTD Amount21	1
ISTD Amount22	1
ISTD Amount23	1
ISTD Amount24	1
ISTD Amount25	1
ISTD Amount26	1
ISTD Amount27	1
ISTD Amount28	1
ISTD Amount29	1
ISTD Amount30	1
ISTD Amount31	1
ISTD Amount32	1
Sample Amount	1
Dilution Factor	1
Vial#	1
Injection Volume	1
Injection Count	1
Bar Code	

[Original Files]
Data File	C:\Users\User\Desktop\GC Analyses\Jack\UIC Prairie Sampling\10.19.22\221019_078.gcd
Method File	C:\LabSolutions\Data\GHG_4min_2022\ghg3_togas_w_acet_4 min_new_int.gcm
Batch File	
Report Format File	c:\LabSolutions\System\DEFAULT.lsr

[File Description]


[Configuration]
Instrument Name	C0B7VH3-Instrument1
Instrument #	1
Line #	1
# of Detectors	3
Detector ID	DET#1	DET#2	DET#3
Detector Name	FID	PTCD	ECD
# of Channels	1	1	1

[Peak Table(Ch1)]
# of Peaks	3
Peak#	R.Time	I.Time	F.Time	Area	Height	A/H	Conc.	Mark	ID#	Name	k'	Plate #	Plate Ht.	Tailing	Resolution	Sep.Factor	Area Ratio	Height Ratio	Conc. %	Norm Conc.
1	1.476	1.421	1.538	10943	4712	2.322	100.000	   	1	CO	0.000	8035	18.668	1.296	0.000	0.000	0	0	16.667	16.667
2	1.567	1.538	1.641	4848	2352	2.062	100.000	 V 	2	CH4	0.062	10603	14.146	0.000	1.447	0.000	0	0	16.667	16.667
3	1.996	1.949	2.605	1239438	580904	2.134	400.000	   	3	CO2	0.353	17345	8.648	1.259	7.061	5.680	0	0	66.667	66.667

[Peak Table(Ch2)]
# of Peaks	0

[Peak Table(Ch3)]
# of Peaks	5
Peak#	R.Time	I.Time	F.Time	Area	Height	A/H	Conc.	Mark	ID#	Name	k'	Plate #	Plate Ht.	Tailing	Resolution	Sep.Factor	Area Ratio	Height Ratio	Conc. %	Norm Conc.
1	2.469	2.359	2.480	933	495	1.885	0.000	   			0.000	3047	49.226	0.000	0.000	0.000	0	0	0.000	0.000
2	2.502	2.480	2.524	1358	555	2.446	0.000	 V 			0.013	1390	107.950	0.000	0.148	0.000	0	0	0.000	0.000
3	2.576	2.524	2.653	3584	629	5.702	0.000	 V 			0.043	1716	87.418	0.000	0.284	3.222	0	0	0.000	0.000
4	2.737	2.653	2.818	3251	401	8.105	0.096	 V 	1	N2O	0.108	400	374.543	0.000	0.405	2.517	0	0	9.587	9.587
5	2.880	2.818	3.859	30663	5514	5.561	0.904	 V 	1	N2O	0.166	12223	12.272	0.000	0.439	1.534	0	0	90.413	90.413

[Compound Results(Ch1)]
# of IDs	6
ID#	Name	R.Time	Area	Height	Conc.	Curve	3rd	2nd	1st	Constant	Area Ratio	Height Ratio	Conc. %	Norm Conc.
1	CO	1.476	10943	4712	100.000	Linear	0.000000e+00	0.000000e+00	1.094287e+002	0.000000e+00	0	0	16.667	16.667
2	CH4	1.567	4848	2352	100.000	Linear	0.000000e+00	0.000000e+00	4.848104e+001	0.000000e+00	0	0	16.667	16.667
3	CO2	1.996	1239438	580904	400.000	Linear	0.000000e+00	0.000000e+00	3.098595e+003	0.000000e+00	0	0	66.667	66.667
4	Ethylene	0.000	0	0	0.000	Linear	0.000000e+00	0.000000e+00	0.000000e+00	0.000000e+00	0	0	0.000	0.000
5	Acetylene	0.000	0	0	0.000	Linear	0.000000e+00	0.000000e+00	0.000000e+00	0.000000e+00	0	0	0.000	0.000
6	Ethane	0.000	0	0	0.000	Linear	0.000000e+00	0.000000e+00	0.000000e+00	0.000000e+00	0	0	0.000	0.000

[Compound Results(Ch2)]
# of IDs	5
ID#	Name	R.Time	Area	Height	Conc.	Curve	3rd	2nd	1st	Constant	Area Ratio	Height Ratio	Conc. %	Norm Conc.
1	Hydrogen	0.000	0	0	0.000	Linear	0.000000e+00	0.000000e+00	0.000000e+00	0.000000e+00	0	0	0.000	0.000
2	Oxygen	0.000	0	0	0.000	Linear	0.000000e+00	0.000000e+00	0.000000e+00	0.000000e+00	0	0	0.000	0.000
3	Nitrogen	0.000	0	0	0.000	Linear	0.000000e+00	0.000000e+00	0.000000e+00	0.000000e+00	0	0	0.000	0.000
4	Methane	0.000	0	0	0.000	Linear	0.000000e+00	0.000000e+00	0.000000e+00	0.000000e+00	0	0	0.000	0.000
5	Carbon Monoxide	0.000	0	0	0.000	Linear	0.000000e+00	0.000000e+00	0.000000e+00	0.000000e+00	0	0	0.000	0.000

[Compound Results(Ch3)]
# of IDs	2
ID#	Name	R.Time	Area	Height	Conc.	Curve	3rd	2nd	1st	Constant	Area Ratio	Height Ratio	Conc. %	Norm Conc.
1	N2O	2.880	33914	5915	1.000	Linear	0.000000e+00	0.000000e+00	3.391448e+004	0.000000e+00	0	0	100.000	100.000
2	SF6	0.000	0	0	0.000	Linear	0.000000e+00	0.000000e+00	0.000000e+00	0.000000e+00	0	0	0.000	0.000

[Group Results(Ch1)]
# of Groups	0

[Group Results(Ch2)]
# of Groups	0

[Group Results(Ch3)]
# of Groups	0

[Chromatogram (Ch1)]
Interval(msec)	220
# of Points	1091
Start Time(min)	0.002
End Time(min)	3.998
R.Time (min)	Intensity
0.00167	2
0.00533	3
0.00900	7
0.01267	9
0.01633	6
0.02000	3
0.02367	-2
0.02733	-6
0.03100	-6
0.03467	-4
0.03833	2
0.04200	5
0.04567	3
0.04933	-2
0.05300	-7
0.05667	-10
0.06033	-11
0.06400	-12
0.06767	-15
0.07133	-17
0.07500	-16
0.07867	-10
0.08233	0
0.08600	10
0.08967	20
0.09333	27
0.09700	30
0.10067	31
0.10433	30
0.10800	23
0.11167	15
0.11533	6
0.11900	3
0.12267	4
0.12633	4
0.13000	4
0.13367	2
0.13733	-2
0.14100	-7
0.14467	-10
0.14833	-8
0.15200	-6
0.15567	-5
0.15933	-4
0.16300	-5
0.16667	-9
0.17033	-11
0.17400	-13
0.17767	-15
0.18133	-13
0.18500	-13
0.18867	-15
0.19233	-14
0.19600	-13
0.19967	-12
0.20333	-14
0.20700	-22
0.21067	-29
0.21433	-33
0.21800	-34
0.22167	-34
0.22533	-37
0.22900	-39
0.23267	-39
0.23633	-34
0.24000	-27
0.24367	-19
0.24733	-10
0.25100	-2
0.25467	2
0.25833	1
0.26200	-1
0.26567	-4
0.26933	-7
0.27300	-12
0.27667	-13
0.28033	-10
0.28400	-5
0.28767	-2
0.29133	1
0.29500	3
0.29867	5
0.30233	2
0.30600	-6
0.30967	-12
0.31333	-16
0.31700	-20
0.32067	-25
0.32433	-26
0.32800	-22
0.33167	-17
0.33533	-13
0.33900	-11
0.34267	-15
0.34633	-22
0.35000	-27
0.35367	-31
0.35733	-35
0.36100	-35
0.36467	-33
0.36833	-28
0.37200	-22
0.37567	-17
0.37933	-16
0.38300	-18
0.38667	-18
0.39033	-18
0.39400	-17
0.39767	-15
0.40133	-14
0.40500	-12
0.40867	-11
0.41233	-14
0.41600	-20
0.41967	-28
0.42333	-35
0.42700	-40
0.43067	-45
0.43433	-48
0.43800	-47
0.44167	-41
0.44533	-30
0.44900	-20
0.45267	-14
0.45633	-10
0.46000	-7
0.46367	-4
0.46733	-5
0.47100	-12
0.47467	-23
0.47833	-35
0.48200	-42
0.48567	-42
0.48933	-38
0.49300	-33
0.49667	-30
0.50033	-28
0.50400	-29
0.50767	-30
0.51133	-28
0.51500	-24
0.51867	-16
0.52233	-12
0.52600	-11
0.52967	-16
0.53333	-24
0.53700	-29
0.54067	-28
0.54433	-26
0.54800	-24
0.55167	-24
0.55533	-25
0.55900	-28
0.56267	-29
0.56633	-28
0.57000	-27
0.57367	-28
0.57733	-31
0.58100	-34
0.58467	-36
0.58833	-37
0.59200	-38
0.59567	-38
0.59933	-39
0.60300	-42
0.60667	-49
0.61033	-53
0.61400	-52
0.61767	-49
0.62133	-47
0.62500	-44
0.62867	-41
0.63233	-39
0.63600	-36
0.63967	-37
0.64333	-41
0.64700	-45
0.65067	-51
0.65433	-56
0.65800	-57
0.66167	-53
0.66533	-44
0.66900	-37
0.67267	-34
0.67633	-35
0.68000	-40
0.68367	-43
0.68733	-44
0.69100	-42
0.69467	-40
0.69833	-39
0.70200	-37
0.70567	-37
0.70933	-40
0.71300	-42
0.71667	-40
0.72033	-39
0.72400	-40
0.72767	-47
0.73133	-55
0.73500	-63
0.73867	-65
0.74233	-62
0.74600	-59
0.74967	-58
0.75333	-59
0.75700	-58
0.76067	-55
0.76433	-51
0.76800	-51
0.77167	-55
0.77533	-60
0.77900	-63
0.78267	-64
0.78633	-63
0.79000	-57
0.79367	-50
0.79733	-40
0.80100	-29
0.80467	-19
0.80833	-14
0.81200	-15
0.81567	-24
0.81933	-36
0.82300	-48
0.82667	-51
0.83033	-47
0.83400	-43
0.83767	-44
0.84133	-50
0.84500	-53
0.84867	-51
0.85233	-51
0.85600	-56
0.85967	-62
0.86333	-68
0.86700	-72
0.87067	-76
0.87433	-78
0.87800	-76
0.88167	-71
0.88533	-67
0.88900	-67
0.89267	-70
0.89633	-72
0.90000	-74
0.90367	-76
0.90733	-77
0.91100	-72
0.91467	-66
0.91833	-59
0.92200	-54
0.92567	-54
0.92933	-56
0.93300	-58
0.93667	-60
0.94033	-62
0.94400	-65
0.94767	-68
0.95133	-69
0.95500	-70
0.95867	-69
0.96233	-69
0.96600	-70
0.96967	-69
0.97333	-65
0.97700	-60
0.98067	-57
0.98433	-54
0.98800	-51
0.99167	-50
0.99533	-48
0.99900	-47
1.00267	-48
1.00633	-51
1.01000	-54
1.01367	-59
1.01733	-66
1.02100	-70
1.02467	-72
1.02833	-73
1.03200	-72
1.03567	-71
1.03933	-70
1.04300	-72
1.04667	-75
1.05033	-80
1.05400	-85
1.05767	-86
1.06133	-82
1.06500	-78
1.06867	-76
1.07233	-75
1.07600	-77
1.07967	-80
1.08333	-86
1.08700	-93
1.09067	-98
1.09433	-100
1.09800	-99
1.10167	-99
1.10533	-96
1.10900	-91
1.11267	-85
1.11633	-78
1.12000	-69
1.12367	-63
1.12733	-59
1.13100	-54
1.13467	-50
1.13833	-52
1.14200	-59
1.14567	-68
1.14933	-75
1.15300	-79
1.15667	-79
1.16033	-78
1.16400	-78
1.16767	-80
1.17133	-80
1.17500	-77
1.17867	-74
1.18233	-73
1.18600	-73
1.18967	-74
1.19333	-74
1.19700	-75
1.20067	-73
1.20433	-70
1.20800	-67
1.21167	-65
1.21533	-65
1.21900	-66
1.22267	-68
1.22633	-68
1.23000	-69
1.23367	-72
1.23733	-77
1.24100	-80
1.24467	-83
1.24833	-84
1.25200	-85
1.25567	-90
1.25933	-95
1.26300	-97
1.26667	-97
1.27033	-97
1.27400	-96
1.27767	-97
1.28133	-99
1.28500	-100
1.28867	-98
1.29233	-95
1.29600	-89
1.29967	-84
1.30333	-81
1.30700	-83
1.31067	-85
1.31433	-85
1.31800	-85
1.32167	-88
1.32533	-94
1.32900	-103
1.33267	-108
1.33633	-104
1.34000	-100
1.34367	-99
1.34733	-98
1.35100	-95
1.35467	-92
1.35833	-90
1.36200	-89
1.36567	-89
1.36933	-90
1.37300	-93
1.37667	-99
1.38033	-105
1.38400	-112
1.38767	-119
1.39133	-124
1.39500	-124
1.39867	-121
1.40233	-118
1.40600	-117
1.40967	-114
1.41333	-108
1.41700	-102
1.42067	-98
1.42433	-95
1.42800	-90
1.43167	-85
1.43533	-75
1.43900	-39
1.44267	80
1.44633	303
1.45000	652
1.45367	1203
1.45733	1956
1.46100	2777
1.46467	3514
1.46833	4088
1.47200	4467
1.47567	4616
1.47933	4505
1.48300	4131
1.48667	3554
1.49033	2888
1.49400	2246
1.49767	1691
1.50133	1246
1.50500	910
1.50867	665
1.51233	487
1.51600	358
1.51967	263
1.52333	193
1.52700	137
1.53067	92
1.53433	60
1.53800	57
1.54167	130
1.54533	339
1.54900	694
1.55267	1131
1.55633	1554
1.56000	1900
1.56367	2143
1.56733	2259
1.57100	2213
1.57467	1999
1.57833	1663
1.58200	1285
1.58567	932
1.58933	641
1.59300	421
1.59667	264
1.60033	154
1.60400	79
1.60767	31
1.61133	0
1.61500	-18
1.61867	-29
1.62233	-37
1.62600	-47
1.62967	-58
1.63333	-68
1.63700	-79
1.64067	-89
1.64433	-96
1.64800	-98
1.65167	-95
1.65533	-89
1.65900	-81
1.66267	-77
1.66633	-81
1.67000	-88
1.67367	-94
1.67733	-98
1.68100	-102
1.68467	-109
1.68833	-115
1.69200	-120
1.69567	-121
1.69933	-119
1.70300	-114
1.70667	-110
1.71033	-107
1.71400	-105
1.71767	-107
1.72133	-110
1.72500	-107
1.72867	-105
1.73233	-104
1.73600	-104
1.73967	-101
1.74333	-96
1.74700	-91
1.75067	-88
1.75433	-87
1.75800	-90
1.76167	-97
1.76533	-105
1.76900	-111
1.77267	-111
1.77633	-109
1.78000	-104
1.78367	-99
1.78733	-94
1.79100	-91
1.79467	-89
1.79833	-86
1.80200	-85
1.80567	-85
1.80933	-85
1.81300	-84
1.81667	-86
1.82033	-95
1.82400	-105
1.82767	-116
1.83133	-122
1.83500	-118
1.83867	-105
1.84233	-89
1.84600	-80
1.84967	-82
1.85333	-89
1.85700	-95
1.86067	-100
1.86433	-101
1.86800	-96
1.87167	-91
1.87533	-90
1.87900	-94
1.88267	-103
1.88633	-109
1.89000	-111
1.89367	-108
1.89733	-104
1.90100	-100
1.90467	-97
1.90833	-98
1.91200	-99
1.91567	-100
1.91933	-99
1.92300	-95
1.92667	-92
1.93033	-92
1.93400	-96
1.93767	-100
1.94133	-103
1.94500	-102
1.94867	-96
1.95233	-59
1.95600	149
1.95967	1202
1.96333	5442
1.96700	18528
1.97067	49861
1.97433	108654
1.97800	196216
1.98167	302403
1.98533	409681
1.98900	500118
1.99267	559890
1.99633	580830
2.00000	560894
2.00367	505616
2.00733	427335
2.01100	341014
2.01467	259497
2.01833	190488
2.02200	136492
2.02567	96549
2.02933	68117
2.03300	48375
2.03667	34860
2.04033	25661
2.04400	19389
2.04767	15074
2.05133	12070
2.05500	9943
2.05867	8401
2.06233	7249
2.06600	6363
2.06967	5672
2.07333	5122
2.07700	4672
2.08067	4293
2.08433	3966
2.08800	3683
2.09167	3441
2.09533	3231
2.09900	3044
2.10267	2878
2.10633	2727
2.11000	2588
2.11367	2459
2.11733	2341
2.12100	2237
2.12467	2145
2.12833	2063
2.13200	1985
2.13567	1908
2.13933	1834
2.14300	1765
2.14667	1704
2.15033	1647
2.15400	1588
2.15767	1530
2.16133	1476
2.16500	1425
2.16867	1381
2.17233	1343
2.17600	1307
2.17967	1273
2.18333	1239
2.18700	1204
2.19067	1168
2.19433	1135
2.19800	1109
2.20167	1090
2.20533	1072
2.20900	1054
2.21267	1033
2.21633	1009
2.22000	984
2.22367	958
2.22733	934
2.23100	913
2.23467	890
2.23833	861
2.24200	836
2.24567	812
2.24933	790
2.25300	774
2.25667	761
2.26033	747
2.26400	735
2.26767	723
2.27133	712
2.27500	700
2.27867	684
2.28233	666
2.28600	650
2.28967	636
2.29333	627
2.29700	621
2.30067	618
2.30433	616
2.30800	613
2.31167	607
2.31533	597
2.31900	585
2.32267	571
2.32633	556
2.33000	543
2.33367	533
2.33733	523
2.34100	514
2.34467	504
2.34833	495
2.35200	490
2.35567	487
2.35933	480
2.36300	474
2.36667	470
2.37033	462
2.37400	452
2.37767	442
2.38133	434
2.38500	430
2.38867	428
2.39233	430
2.39600	433
2.39967	433
2.40333	426
2.40700	415
2.41067	400
2.41433	383
2.41800	369
2.42167	359
2.42533	353
2.42900	350
2.43267	353
2.43633	358
2.44000	361
2.44367	358
2.44733	348
2.45100	340
2.45467	339
2.45833	338
2.46200	335
2.46567	329
2.46933	323
2.47300	321
2.47667	321
2.48033	323
2.48400	324
2.48767	322
2.49133	315
2.49500	308
2.49867	301
2.50233	291
2.50600	279
2.50967	272
2.51333	267
2.51700	260
2.52067	256
2.52433	256
2.52800	258
2.53167	259
2.53533	261
2.53900	267
2.54267	274
2.54633	277
2.55000	273
2.55367	262
2.55733	245
2.56100	230
2.56467	221
2.56833	217
2.57200	217
2.57567	219
2.57933	223
2.58300	226
2.58667	225
2.59033	222
2.59400	218
2.59767	215
2.60133	212
2.60500	206
2.60867	199
2.61233	194
2.61600	194
2.61967	196
2.62333	196
2.62700	192
2.63067	186
2.63433	181
2.63800	179
2.64167	179
2.64533	180
2.64900	182
2.65267	182
2.65633	181
2.66000	180
2.66367	178
2.66733	177
2.67100	174
2.67467	172
2.67833	167
2.68200	157
2.68567	146
2.68933	138
2.69300	138
2.69667	141
2.70033	147
2.70400	149
2.70767	147
2.71133	146
2.71500	145
2.71867	144
2.72233	142
2.72600	137
2.72967	131
2.73333	129
2.73700	131
2.74067	136
2.74433	139
2.74800	144
2.75167	146
2.75533	145
2.75900	139
2.76267	133
2.76633	125
2.77000	115
2.77367	110
2.77733	110
2.78100	110
2.78467	109
2.78833	107
2.79200	103
2.79567	101
2.79933	102
2.80300	108
2.80667	115
2.81033	117
2.81400	112
2.81767	103
2.82133	97
2.82500	93
2.82867	89
2.83233	84
2.83600	81
2.83967	82
2.84333	86
2.84700	93
2.85067	93
2.85433	92
2.85800	92
2.86167	91
2.86533	87
2.86900	84
2.87267	82
2.87633	82
2.88000	84
2.88367	86
2.88733	88
2.89100	89
2.89467	89
2.89833	88
2.90200	90
2.90567	94
2.90933	98
2.91300	99
2.91667	97
2.92033	94
2.92400	90
2.92767	87
2.93133	85
2.93500	82
2.93867	78
2.94233	77
2.94600	79
2.94967	80
2.95333	78
2.95700	71
2.96067	61
2.96433	52
2.96800	47
2.97167	45
2.97533	45
2.97900	48
2.98267	52
2.98633	56
2.99000	61
2.99367	63
2.99733	64
3.00100	64
3.00467	63
3.00833	62
3.01200	63
3.01567	64
3.01933	64
3.02300	64
3.02667	63
3.03033	61
3.03400	60
3.03767	59
3.04133	59
3.04500	53
3.04867	45
3.05233	42
3.05600	38
3.05967	34
3.06333	33
3.06700	36
3.07067	40
3.07433	46
3.07800	53
3.08167	56
3.08533	55
3.08900	51
3.09267	47
3.09633	45
3.10000	44
3.10367	47
3.10733	51
3.11100	53
3.11467	52
3.11833	50
3.12200	45
3.12567	39
3.12933	32
3.13300	25
3.13667	23
3.14033	26
3.14400	31
3.14767	33
3.15133	32
3.15500	32
3.15867	36
3.16233	39
3.16600	39
3.16967	36
3.17333	32
3.17700	29
3.18067	26
3.18433	25
3.18800	25
3.19167	28
3.19533	33
3.19900	38
3.20267	39
3.20633	38
3.21000	37
3.21367	37
3.21733	37
3.22100	38
3.22467	36
3.22833	34
3.23200	33
3.23567	32
3.23933	34
3.24300	35
3.24667	33
3.25033	25
3.25400	15
3.25767	8
3.26133	3
3.26500	-1
3.26867	-3
3.27233	-2
3.27600	5
3.27967	14
3.28333	24
3.28700	31
3.29067	34
3.29433	38
3.29800	42
3.30167	45
3.30533	47
3.30900	47
3.31267	44
3.31633	39
3.32000	32
3.32367	25
3.32733	20
3.33100	15
3.33467	10
3.33833	7
3.34200	5
3.34567	4
3.34933	5
3.35300	9
3.35667	14
3.36033	18
3.36400	23
3.36767	26
3.37133	25
3.37500	20
3.37867	14
3.38233	10
3.38600	9
3.38967	11
3.39333	9
3.39700	5
3.40067	2
3.40433	0
3.40800	-1
3.41167	-3
3.41533	-8
3.41900	-12
3.42267	-12
3.42633	-11
3.43000	-7
3.43367	-4
3.43733	-0
3.44100	4
3.44467	8
3.44833	11
3.45200	13
3.45567	11
3.45933	4
3.46300	-2
3.46667	-5
3.47033	-3
3.47400	-0
3.47767	-3
3.48133	-8
3.48500	-11
3.48867	-13
3.49233	-14
3.49600	-12
3.49967	-5
3.50333	2
3.50700	2
3.51067	-3
3.51433	-6
3.51800	-6
3.52167	-5
3.52533	-7
3.52900	-12
3.53267	-15
3.53633	-15
3.54000	-12
3.54367	-8
3.54733	-4
3.55100	-1
3.55467	-2
3.55833	-7
3.56200	-14
3.56567	-18
3.56933	-20
3.57300	-20
3.57667	-20
3.58033	-19
3.58400	-20
3.58767	-24
3.59133	-24
3.59500	-23
3.59867	-24
3.60233	-25
3.60600	-29
3.60967	-31
3.61333	-32
3.61700	-34
3.62067	-37
3.62433	-38
3.62800	-32
3.63167	-25
3.63533	-19
3.63900	-17
3.64267	-17
3.64633	-19
3.65000	-22
3.65367	-25
3.65733	-29
3.66100	-30
3.66467	-25
3.66833	-20
3.67200	-18
3.67567	-23
3.67933	-30
3.68300	-38
3.68667	-47
3.69033	-54
3.69400	-55
3.69767	-52
3.70133	-48
3.70500	-44
3.70867	-40
3.71233	-35
3.71600	-31
3.71967	-31
3.72333	-37
3.72700	-48
3.73067	-56
3.73433	-60
3.73800	-63
3.74167	-64
3.74533	-62
3.74900	-56
3.75267	-47
3.75633	-39
3.76000	-35
3.76367	-34
3.76733	-38
3.77100	-42
3.77467	-49
3.77833	-56
3.78200	-62
3.78567	-65
3.78933	-63
3.79300	-59
3.79667	-52
3.80033	-44
3.80400	-41
3.80767	-42
3.81133	-45
3.81500	-46
3.81867	-45
3.82233	-44
3.82600	-43
3.82967	-41
3.83333	-41
3.83700	-41
3.84067	-39
3.84433	-37
3.84800	-35
3.85167	-34
3.85533	-35
3.85900	-38
3.86267	-41
3.86633	-43
3.87000	-39
3.87367	-34
3.87733	-31
3.88100	-33
3.88467	-37
3.88833	-41
3.89200	-43
3.89567	-47
3.89933	-50
3.90300	-52
3.90667	-53
3.91033	-54
3.91400	-57
3.91767	-62
3.92133	-68
3.92500	-74
3.92867	-78
3.93233	-80
3.93600	-79
3.93967	-73
3.94333	-63
3.94700	-58
3.95067	-55
3.95433	-53
3.95800	-51
3.96167	-47
3.96533	-44
3.96900	-40
3.97267	-38
3.97633	-40
3.98000	-44
3.98367	-51
3.98733	-60
3.99100	-68
3.99467	-70
3.99833	-69

[Chromatogram (Ch2)]
Interval(msec)	220
# of Points	1091
Start Time(min)	0.002
End Time(min)	3.998
R.Time (min)	Intensity
0.00167	0
0.00533	0
0.00900	0
0.01267	0
0.01633	0
0.02000	0
0.02367	0
0.02733	0
0.03100	0
0.03467	0
0.03833	-0
0.04200	-0
0.04567	-0
0.04933	-0
0.05300	-1
0.05667	-1
0.06033	-1
0.06400	-1
0.06767	-1
0.07133	-1
0.07500	-1
0.07867	-1
0.08233	-0
0.08600	-0
0.08967	0
0.09333	0
0.09700	0
0.10067	1
0.10433	1
0.10800	1
0.11167	1
0.11533	1
0.11900	1
0.12267	1
0.12633	1
0.13000	1
0.13367	1
0.13733	1
0.14100	0
0.14467	-0
0.14833	-0
0.15200	-0
0.15567	-1
0.15933	-1
0.16300	-2
0.16667	-2
0.17033	-2
0.17400	-2
0.17767	-2
0.18133	-2
0.18500	-2
0.18867	-2
0.19233	-2
0.19600	-2
0.19967	-2
0.20333	-2
0.20700	-2
0.21067	-2
0.21433	-2
0.21800	-2
0.22167	-2
0.22533	-2
0.22900	-3
0.23267	-3
0.23633	-3
0.24000	-3
0.24367	-2
0.24733	-2
0.25100	-2
0.25467	-2
0.25833	-3
0.26200	-3
0.26567	-2
0.26933	-2
0.27300	-2
0.27667	-3
0.28033	-3
0.28400	-3
0.28767	-3
0.29133	-3
0.29500	-3
0.29867	-3
0.30233	-3
0.30600	-3
0.30967	-3
0.31333	-3
0.31700	-3
0.32067	-3
0.32433	-3
0.32800	-2
0.33167	-2
0.33533	-2
0.33900	-2
0.34267	-3
0.34633	-3
0.35000	-3
0.35367	-3
0.35733	-3
0.36100	-3
0.36467	-3
0.36833	-3
0.37200	-2
0.37567	-2
0.37933	-2
0.38300	-2
0.38667	-2
0.39033	-2
0.39400	-2
0.39767	-3
0.40133	-3
0.40500	-3
0.40867	-3
0.41233	-3
0.41600	-3
0.41967	-3
0.42333	-3
0.42700	-3
0.43067	-3
0.43433	-3
0.43800	-3
0.44167	-3
0.44533	-3
0.44900	-3
0.45267	-3
0.45633	-3
0.46000	-3
0.46367	-3
0.46733	-3
0.47100	-3
0.47467	-4
0.47833	-4
0.48200	-4
0.48567	-4
0.48933	-4
0.49300	-4
0.49667	-4
0.50033	-4
0.50400	-4
0.50767	-3
0.51133	-3
0.51500	-3
0.51867	-3
0.52233	-3
0.52600	-3
0.52967	-3
0.53333	-3
0.53700	-3
0.54067	-3
0.54433	-3
0.54800	-2
0.55167	-2
0.55533	-2
0.55900	-2
0.56267	-2
0.56633	-2
0.57000	-2
0.57367	-2
0.57733	-2
0.58100	-2
0.58467	-2
0.58833	-2
0.59200	-2
0.59567	-2
0.59933	-2
0.60300	-2
0.60667	-2
0.61033	-2
0.61400	-2
0.61767	-2
0.62133	-2
0.62500	-2
0.62867	-2
0.63233	-2
0.63600	-2
0.63967	-2
0.64333	-2
0.64700	-3
0.65067	-3
0.65433	-3
0.65800	-4
0.66167	-4
0.66533	-4
0.66900	-4
0.67267	-4
0.67633	-3
0.68000	-3
0.68367	-3
0.68733	-3
0.69100	-4
0.69467	-4
0.69833	-4
0.70200	-4
0.70567	-4
0.70933	-4
0.71300	-3
0.71667	-3
0.72033	-3
0.72400	-3
0.72767	-3
0.73133	-3
0.73500	-3
0.73867	-3
0.74233	-3
0.74600	-3
0.74967	-3
0.75333	-3
0.75700	-3
0.76067	-3
0.76433	-3
0.76800	-3
0.77167	-3
0.77533	-3
0.77900	-3
0.78267	-3
0.78633	-3
0.79000	-3
0.79367	-3
0.79733	-3
0.80100	-3
0.80467	-3
0.80833	-3
0.81200	-3
0.81567	-3
0.81933	-3
0.82300	-3
0.82667	-3
0.83033	-3
0.83400	-3
0.83767	-3
0.84133	-3
0.84500	-3
0.84867	-3
0.85233	-3
0.85600	-3
0.85967	-3
0.86333	-3
0.86700	-3
0.87067	-4
0.87433	-4
0.87800	-4
0.88167	-5
0.88533	-5
0.88900	-5
0.89267	-4
0.89633	-4
0.90000	-4
0.90367	-4
0.90733	-4
0.91100	-4
0.91467	-4
0.91833	-4
0.92200	-4
0.92567	-4
0.92933	-4
0.93300	-4
0.93667	-4
0.94033	-3
0.94400	-3
0.94767	-3
0.95133	-3
0.95500	-3
0.95867	-2
0.96233	-3
0.96600	-3
0.96967	-3
0.97333	-4
0.97700	-4
0.98067	-4
0.98433	-4
0.98800	-4
0.99167	-4
0.99533	-4
0.99900	-4
1.00267	-4
1.00633	-4
1.01000	-4
1.01367	-4
1.01733	-3
1.02100	-3
1.02467	-3
1.02833	-3
1.03200	-3
1.03567	-4
1.03933	-4
1.04300	-3
1.04667	-3
1.05033	-3
1.05400	-3
1.05767	-3
1.06133	-3
1.06500	-3
1.06867	-3
1.07233	-3
1.07600	-3
1.07967	-3
1.08333	-3
1.08700	-3
1.09067	-3
1.09433	-3
1.09800	-3
1.10167	-3
1.10533	-3
1.10900	-3
1.11267	-3
1.11633	-3
1.12000	-3
1.12367	-3
1.12733	-2
1.13100	-2
1.13467	-2
1.13833	-2
1.14200	-2
1.14567	-3
1.14933	-3
1.15300	-3
1.15667	-3
1.16033	-3
1.16400	-3
1.16767	-3
1.17133	-3
1.17500	-3
1.17867	-3
1.18233	-4
1.18600	-4
1.18967	-4
1.19333	-4
1.19700	-4
1.20067	-4
1.20433	-4
1.20800	-4
1.21167	-4
1.21533	-4
1.21900	-4
1.22267	-4
1.22633	-4
1.23000	-5
1.23367	-5
1.23733	-5
1.24100	-5
1.24467	-5
1.24833	-5
1.25200	-4
1.25567	-4
1.25933	-4
1.26300	-4
1.26667	-4
1.27033	-5
1.27400	-5
1.27767	-5
1.28133	-5
1.28500	-5
1.28867	-5
1.29233	-5
1.29600	-5
1.29967	-4
1.30333	-4
1.30700	-4
1.31067	-4
1.31433	-4
1.31800	-4
1.32167	-4
1.32533	-4
1.32900	-4
1.33267	-4
1.33633	-4
1.34000	-4
1.34367	-4
1.34733	-4
1.35100	-4
1.35467	-4
1.35833	-4
1.36200	-4
1.36567	-3
1.36933	-3
1.37300	-3
1.37667	-3
1.38033	-3
1.38400	-3
1.38767	-3
1.39133	-3
1.39500	-3
1.39867	-3
1.40233	-3
1.40600	-3
1.40967	-3
1.41333	-4
1.41700	-4
1.42067	-4
1.42433	-4
1.42800	-4
1.43167	-4
1.43533	-5
1.43900	-5
1.44267	-5
1.44633	-5
1.45000	-4
1.45367	-4
1.45733	-4
1.46100	-4
1.46467	-5
1.46833	-5
1.47200	-5
1.47567	-5
1.47933	-5
1.48300	-5
1.48667	-6
1.49033	-6
1.49400	-6
1.49767	-6
1.50133	-6
1.50500	-5
1.50867	-5
1.51233	-5
1.51600	-5
1.51967	-4
1.52333	-4
1.52700	-4
1.53067	-4
1.53433	-4
1.53800	-4
1.54167	-4
1.54533	-4
1.54900	-4
1.55267	-4
1.55633	-4
1.56000	-4
1.56367	-4
1.56733	-4
1.57100	-4
1.57467	-4
1.57833	-4
1.58200	-4
1.58567	-4
1.58933	-4
1.59300	-4
1.59667	-4
1.60033	-5
1.60400	-6
1.60767	-8
1.61133	-9
1.61500	-11
1.61867	-14
1.62233	-16
1.62600	-19
1.62967	-22
1.63333	-25
1.63700	-28
1.64067	-32
1.64433	-35
1.64800	-39
1.65167	-42
1.65533	-46
1.65900	-50
1.66267	-54
1.66633	-58
1.67000	-63
1.67367	-68
1.67733	-73
1.68100	-78
1.68467	-82
1.68833	-87
1.69200	-91
1.69567	-94
1.69933	-98
1.70300	-100
1.70667	-103
1.71033	-105
1.71400	-106
1.71767	-108
1.72133	-109
1.72500	-110
1.72867	-111
1.73233	-112
1.73600	-112
1.73967	-113
1.74333	-114
1.74700	-115
1.75067	-116
1.75433	-117
1.75800	-118
1.76167	-118
1.76533	-119
1.76900	-119
1.77267	-119
1.77633	-119
1.78000	-120
1.78367	-120
1.78733	-120
1.79100	-120
1.79467	-120
1.79833	-121
1.80200	-121
1.80567	-121
1.80933	-121
1.81300	-121
1.81667	-121
1.82033	-121
1.82400	-122
1.82767	-122
1.83133	-122
1.83500	-122
1.83867	-122
1.84233	-122
1.84600	-122
1.84967	-122
1.85333	-122
1.85700	-122
1.86067	-122
1.86433	-123
1.86800	-123
1.87167	-123
1.87533	-123
1.87900	-123
1.88267	-123
1.88633	-123
1.89000	-122
1.89367	-122
1.89733	-121
1.90100	-121
1.90467	-120
1.90833	-120
1.91200	-120
1.91567	-120
1.91933	-120
1.92300	-120
1.92667	-119
1.93033	-117
1.93400	-116
1.93767	-116
1.94133	-115
1.94500	-115
1.94867	-115
1.95233	-115
1.95600	-115
1.95967	-116
1.96333	-116
1.96700	-116
1.97067	-116
1.97433	-116
1.97800	-115
1.98167	-115
1.98533	-114
1.98900	-114
1.99267	-114
1.99633	-114
2.00000	-114
2.00367	-114
2.00733	-114
2.01100	-114
2.01467	-113
2.01833	-113
2.02200	-112
2.02567	-111
2.02933	-111
2.03300	-110
2.03667	-110
2.04033	-109
2.04400	-109
2.04767	-108
2.05133	-108
2.05500	-108
2.05867	-108
2.06233	-107
2.06600	-107
2.06967	-106
2.07333	-106
2.07700	-106
2.08067	-106
2.08433	-105
2.08800	-105
2.09167	-105
2.09533	-105
2.09900	-105
2.10267	-105
2.10633	-105
2.11000	-105
2.11367	-105
2.11733	-105
2.12100	-105
2.12467	-104
2.12833	-104
2.13200	-104
2.13567	-104
2.13933	-104
2.14300	-104
2.14667	-104
2.15033	-103
2.15400	-103
2.15767	-102
2.16133	-101
2.16500	-100
2.16867	-99
2.17233	-99
2.17600	-99
2.17967	-98
2.18333	-99
2.18700	-99
2.19067	-98
2.19433	-98
2.19800	-98
2.20167	-98
2.20533	-98
2.20900	-98
2.21267	-98
2.21633	-97
2.22000	-97
2.22367	-97
2.22733	-97
2.23100	-96
2.23467	-96
2.23833	-95
2.24200	-94
2.24567	-94
2.24933	-94
2.25300	-94
2.25667	-95
2.26033	-96
2.26400	-97
2.26767	-97
2.27133	-97
2.27500	-97
2.27867	-96
2.28233	-95
2.28600	-94
2.28967	-93
2.29333	-92
2.29700	-91
2.30067	-90
2.30433	-89
2.30800	-89
2.31167	-88
2.31533	-88
2.31900	-87
2.32267	-87
2.32633	-87
2.33000	-86
2.33367	-86
2.33733	-85
2.34100	-84
2.34467	-83
2.34833	-83
2.35200	-82
2.35567	-82
2.35933	-81
2.36300	-80
2.36667	-79
2.37033	-77
2.37400	-76
2.37767	-73
2.38133	-70
2.38500	-67
2.38867	-63
2.39233	-60
2.39600	-56
2.39967	-52
2.40333	-48
2.40700	-44
2.41067	-40
2.41433	-36
2.41800	-32
2.42167	-29
2.42533	-26
2.42900	-23
2.43267	-20
2.43633	-18
2.44000	-16
2.44367	-14
2.44733	-12
2.45100	-10
2.45467	-8
2.45833	-6
2.46200	-5
2.46567	-4
2.46933	-2
2.47300	-1
2.47667	-0
2.48033	1
2.48400	2
2.48767	3
2.49133	5
2.49500	6
2.49867	7
2.50233	7
2.50600	8
2.50967	9
2.51333	10
2.51700	10
2.52067	11
2.52433	11
2.52800	11
2.53167	12
2.53533	12
2.53900	12
2.54267	13
2.54633	14
2.55000	14
2.55367	14
2.55733	14
2.56100	15
2.56467	15
2.56833	15
2.57200	15
2.57567	15
2.57933	15
2.58300	16
2.58667	16
2.59033	16
2.59400	15
2.59767	15
2.60133	15
2.60500	15
2.60867	15
2.61233	15
2.61600	16
2.61967	17
2.62333	17
2.62700	18
2.63067	18
2.63433	18
2.63800	18
2.64167	18
2.64533	18
2.64900	19
2.65267	19
2.65633	20
2.66000	20
2.66367	21
2.66733	22
2.67100	22
2.67467	22
2.67833	22
2.68200	22
2.68567	22
2.68933	22
2.69300	22
2.69667	22
2.70033	23
2.70400	23
2.70767	23
2.71133	23
2.71500	23
2.71867	24
2.72233	24
2.72600	25
2.72967	26
2.73333	26
2.73700	26
2.74067	26
2.74433	26
2.74800	25
2.75167	25
2.75533	25
2.75900	25
2.76267	25
2.76633	25
2.77000	25
2.77367	25
2.77733	25
2.78100	25
2.78467	25
2.78833	26
2.79200	26
2.79567	26
2.79933	26
2.80300	27
2.80667	27
2.81033	27
2.81400	27
2.81767	27
2.82133	27
2.82500	26
2.82867	26
2.83233	26
2.83600	26
2.83967	25
2.84333	25
2.84700	25
2.85067	25
2.85433	23
2.85800	20
2.86167	15
2.86533	7
2.86900	-4
2.87267	-18
2.87633	-36
2.88000	-58
2.88367	-84
2.88733	-114
2.89100	-147
2.89467	-184
2.89833	-225
2.90200	-268
2.90567	-313
2.90933	-361
2.91300	-410
2.91667	-460
2.92033	-511
2.92400	-562
2.92767	-613
2.93133	-664
2.93500	-714
2.93867	-764
2.94233	-812
2.94600	-862
2.94967	-917
2.95333	-976
2.95700	-1036
2.96067	-1084
2.96433	-1112
2.96800	-1114
2.97167	-1089
2.97533	-1043
2.97900	-979
2.98267	-905
2.98633	-825
2.99000	-744
2.99367	-664
2.99733	-587
3.00100	-516
3.00467	-451
3.00833	-391
3.01200	-338
3.01567	-291
3.01933	-250
3.02300	-213
3.02667	-182
3.03033	-154
3.03400	-131
3.03767	-111
3.04133	-93
3.04500	-78
3.04867	-65
3.05233	-54
3.05600	-45
3.05967	-37
3.06333	-30
3.06700	-23
3.07067	-18
3.07433	-14
3.07800	-10
3.08167	-7
3.08533	-4
3.08900	-1
3.09267	1
3.09633	3
3.10000	5
3.10367	6
3.10733	7
3.11100	8
3.11467	9
3.11833	10
3.12200	11
3.12567	11
3.12933	12
3.13300	12
3.13667	13
3.14033	14
3.14400	14
3.14767	15
3.15133	15
3.15500	15
3.15867	16
3.16233	16
3.16600	17
3.16967	17
3.17333	18
3.17700	18
3.18067	18
3.18433	19
3.18800	19
3.19167	19
3.19533	19
3.19900	19
3.20267	20
3.20633	20
3.21000	20
3.21367	20
3.21733	20
3.22100	21
3.22467	21
3.22833	21
3.23200	21
3.23567	21
3.23933	21
3.24300	21
3.24667	22
3.25033	22
3.25400	22
3.25767	22
3.26133	22
3.26500	22
3.26867	22
3.27233	22
3.27600	22
3.27967	22
3.28333	23
3.28700	23
3.29067	23
3.29433	23
3.29800	23
3.30167	23
3.30533	23
3.30900	23
3.31267	23
3.31633	23
3.32000	23
3.32367	23
3.32733	23
3.33100	23
3.33467	24
3.33833	24
3.34200	24
3.34567	24
3.34933	24
3.35300	25
3.35667	25
3.36033	25
3.36400	26
3.36767	26
3.37133	26
3.37500	27
3.37867	27
3.38233	27
3.38600	27
3.38967	27
3.39333	28
3.39700	28
3.40067	28
3.40433	28
3.40800	29
3.41167	29
3.41533	29
3.41900	29
3.42267	29
3.42633	29
3.43000	29
3.43367	29
3.43733	29
3.44100	29
3.44467	29
3.44833	29
3.45200	29
3.45567	29
3.45933	29
3.46300	29
3.46667	29
3.47033	29
3.47400	29
3.47767	29
3.48133	29
3.48500	29
3.48867	29
3.49233	29
3.49600	29
3.49967	29
3.50333	29
3.50700	29
3.51067	29
3.51433	29
3.51800	29
3.52167	29
3.52533	29
3.52900	29
3.53267	28
3.53633	28
3.54000	28
3.54367	28
3.54733	28
3.55100	28
3.55467	28
3.55833	28
3.56200	28
3.56567	27
3.56933	27
3.57300	27
3.57667	27
3.58033	27
3.58400	27
3.58767	27
3.59133	28
3.59500	28
3.59867	28
3.60233	28
3.60600	28
3.60967	28
3.61333	28
3.61700	27
3.62067	27
3.62433	27
3.62800	27
3.63167	27
3.63533	27
3.63900	27
3.64267	27
3.64633	27
3.65000	27
3.65367	27
3.65733	27
3.66100	27
3.66467	28
3.66833	28
3.67200	28
3.67567	28
3.67933	28
3.68300	28
3.68667	28
3.69033	28
3.69400	27
3.69767	28
3.70133	28
3.70500	28
3.70867	28
3.71233	28
3.71600	28
3.71967	27
3.72333	27
3.72700	27
3.73067	28
3.73433	28
3.73800	28
3.74167	28
3.74533	28
3.74900	28
3.75267	28
3.75633	28
3.76000	28
3.76367	28
3.76733	28
3.77100	28
3.77467	28
3.77833	28
3.78200	27
3.78567	27
3.78933	27
3.79300	27
3.79667	27
3.80033	27
3.80400	27
3.80767	27
3.81133	26
3.81500	26
3.81867	26
3.82233	26
3.82600	26
3.82967	26
3.83333	26
3.83700	26
3.84067	26
3.84433	26
3.84800	26
3.85167	26
3.85533	27
3.85900	27
3.86267	27
3.86633	27
3.87000	27
3.87367	27
3.87733	27
3.88100	27
3.88467	27
3.88833	27
3.89200	27
3.89567	27
3.89933	27
3.90300	27
3.90667	27
3.91033	27
3.91400	27
3.91767	27
3.92133	27
3.92500	27
3.92867	26
3.93233	26
3.93600	26
3.93967	26
3.94333	27
3.94700	27
3.95067	27
3.95433	27
3.95800	26
3.96167	26
3.96533	27
3.96900	27
3.97267	27
3.97633	28
3.98000	28
3.98367	28
3.98733	28
3.99100	29
3.99467	28
3.99833	28

[Chromatogram (Ch3)]
Interval(msec)	220
# of Points	1091
Start Time(min)	0.002
End Time(min)	3.998
R.Time (min)	Intensity
0.00167	-0
0.00533	-2
0.00900	-3
0.01267	1
0.01633	4
0.02000	6
0.02367	5
0.02733	2
0.03100	-2
0.03467	-5
0.03833	-6
0.04200	-5
0.04567	-1
0.04933	-1
0.05300	-0
0.05667	1
0.06033	3
0.06400	4
0.06767	6
0.07133	6
0.07500	5
0.07867	6
0.08233	7
0.08600	7
0.08967	5
0.09333	3
0.09700	0
0.10067	-0
0.10433	2
0.10800	4
0.11167	4
0.11533	2
0.11900	0
0.12267	-0
0.12633	-0
0.13000	0
0.13367	0
0.13733	3
0.14100	6
0.14467	5
0.14833	3
0.15200	2
0.15567	3
0.15933	3
0.16300	3
0.16667	1
0.17033	-1
0.17400	-2
0.17767	-1
0.18133	1
0.18500	1
0.18867	-0
0.19233	-2
0.19600	-0
0.19967	-2
0.20333	-3
0.20700	-2
0.21067	-3
0.21433	-3
0.21800	-3
0.22167	-3
0.22533	-2
0.22900	-0
0.23267	4
0.23633	5
0.24000	3
0.24367	1
0.24733	-1
0.25100	-1
0.25467	2
0.25833	3
0.26200	3
0.26567	2
0.26933	2
0.27300	0
0.27667	-0
0.28033	2
0.28400	4
0.28767	5
0.29133	5
0.29500	5
0.29867	3
0.30233	3
0.30600	3
0.30967	6
0.31333	10
0.31700	9
0.32067	10
0.32433	9
0.32800	9
0.33167	7
0.33533	6
0.33900	6
0.34267	7
0.34633	9
0.35000	8
0.35367	5
0.35733	1
0.36100	-1
0.36467	-0
0.36833	-0
0.37200	1
0.37567	-0
0.37933	-3
0.38300	-4
0.38667	-2
0.39033	-2
0.39400	-1
0.39767	0
0.40133	-1
0.40500	-1
0.40867	-0
0.41233	0
0.41600	-0
0.41967	1
0.42333	2
0.42700	3
0.43067	1
0.43433	1
0.43800	1
0.44167	3
0.44533	4
0.44900	4
0.45267	4
0.45633	3
0.46000	2
0.46367	-1
0.46733	-2
0.47100	-0
0.47467	0
0.47833	0
0.48200	-3
0.48567	-4
0.48933	-4
0.49300	-4
0.49667	-5
0.50033	-6
0.50400	-4
0.50767	-1
0.51133	1
0.51500	1
0.51867	1
0.52233	0
0.52600	1
0.52967	3
0.53333	4
0.53700	5
0.54067	4
0.54433	4
0.54800	2
0.55167	0
0.55533	1
0.55900	4
0.56267	6
0.56633	6
0.57000	7
0.57367	7
0.57733	6
0.58100	6
0.58467	3
0.58833	1
0.59200	2
0.59567	1
0.59933	-2
0.60300	-2
0.60667	-1
0.61033	-1
0.61400	-2
0.61767	-2
0.62133	-1
0.62500	1
0.62867	2
0.63233	3
0.63600	2
0.63967	1
0.64333	-0
0.64700	-2
0.65067	-2
0.65433	-2
0.65800	-1
0.66167	-1
0.66533	-3
0.66900	-3
0.67267	-1
0.67633	-0
0.68000	-2
0.68367	-4
0.68733	-5
0.69100	-5
0.69467	-5
0.69833	-7
0.70200	-10
0.70567	-9
0.70933	-6
0.71300	-6
0.71667	-6
0.72033	-4
0.72400	-2
0.72767	-3
0.73133	-7
0.73500	-9
0.73867	-9
0.74233	-8
0.74600	-7
0.74967	-7
0.75333	-5
0.75700	-2
0.76067	-2
0.76433	-4
0.76800	-6
0.77167	-7
0.77533	-8
0.77900	-7
0.78267	-5
0.78633	-5
0.79000	-6
0.79367	-4
0.79733	-2
0.80100	-2
0.80467	-3
0.80833	-3
0.81200	-3
0.81567	-3
0.81933	-3
0.82300	-3
0.82667	-3
0.83033	-3
0.83400	-2
0.83767	-3
0.84133	-2
0.84500	-3
0.84867	-4
0.85233	-4
0.85600	-5
0.85967	-6
0.86333	-7
0.86700	-7
0.87067	-5
0.87433	-4
0.87800	-3
0.88167	-3
0.88533	-1
0.88900	1
0.89267	0
0.89633	-2
0.90000	-4
0.90367	-7
0.90733	-10
0.91100	-13
0.91467	-13
0.91833	-13
0.92200	-13
0.92567	-12
0.92933	-10
0.93300	-8
0.93667	-7
0.94033	-9
0.94400	-10
0.94767	-10
0.95133	-10
0.95500	-12
0.95867	-13
0.96233	-13
0.96600	-14
0.96967	-15
0.97333	-12
0.97700	-11
0.98067	-11
0.98433	-12
0.98800	-13
0.99167	-12
0.99533	-10
0.99900	-9
1.00267	-9
1.00633	-8
1.01000	-7
1.01367	-8
1.01733	-8
1.02100	-11
1.02467	-10
1.02833	-8
1.03200	-8
1.03567	-7
1.03933	-8
1.04300	-10
1.04667	-10
1.05033	-8
1.05400	-5
1.05767	-5
1.06133	-5
1.06500	-8
1.06867	-9
1.07233	-10
1.07600	-10
1.07967	-10
1.08333	-11
1.08700	-11
1.09067	-11
1.09433	-12
1.09800	-15
1.10167	-17
1.10533	-18
1.10900	-18
1.11267	-13
1.11633	-11
1.12000	-10
1.12367	-8
1.12733	-7
1.13100	-6
1.13467	-8
1.13833	-11
1.14200	-12
1.14567	-14
1.14933	-13
1.15300	-12
1.15667	-13
1.16033	-14
1.16400	-14
1.16767	-13
1.17133	-12
1.17500	-11
1.17867	-11
1.18233	-10
1.18600	-10
1.18967	-12
1.19333	-14
1.19700	-14
1.20067	-12
1.20433	-11
1.20800	-11
1.21167	-10
1.21533	-10
1.21900	-11
1.22267	-9
1.22633	-9
1.23000	-11
1.23367	-12
1.23733	-12
1.24100	-12
1.24467	-13
1.24833	-13
1.25200	-13
1.25567	-15
1.25933	-17
1.26300	-17
1.26667	-17
1.27033	-17
1.27400	-14
1.27767	-11
1.28133	-9
1.28500	-13
1.28867	-16
1.29233	-19
1.29600	-20
1.29967	-19
1.30333	-18
1.30700	-15
1.31067	-14
1.31433	-12
1.31800	-12
1.32167	-12
1.32533	-10
1.32900	-10
1.33267	-11
1.33633	-10
1.34000	-11
1.34367	-13
1.34733	-16
1.35100	-17
1.35467	-18
1.35833	-18
1.36200	-16
1.36567	-15
1.36933	-14
1.37300	-12
1.37667	-10
1.38033	-8
1.38400	-7
1.38767	-7
1.39133	-9
1.39500	-7
1.39867	-5
1.40233	-7
1.40600	-10
1.40967	-12
1.41333	-12
1.41700	-12
1.42067	-12
1.42433	-11
1.42800	-10
1.43167	-10
1.43533	-9
1.43900	-8
1.44267	-8
1.44633	-7
1.45000	-6
1.45367	-7
1.45733	-6
1.46100	-7
1.46467	-8
1.46833	-9
1.47200	-9
1.47567	-10
1.47933	-9
1.48300	-8
1.48667	-8
1.49033	-8
1.49400	-9
1.49767	-9
1.50133	-11
1.50500	-14
1.50867	-15
1.51233	-15
1.51600	-14
1.51967	-13
1.52333	-15
1.52700	-15
1.53067	-16
1.53433	-17
1.53800	-16
1.54167	-11
1.54533	-7
1.54900	-6
1.55267	-9
1.55633	-11
1.56000	-10
1.56367	-10
1.56733	-11
1.57100	-11
1.57467	-12
1.57833	-11
1.58200	-12
1.58567	-13
1.58933	-13
1.59300	-13
1.59667	-10
1.60033	-7
1.60400	-5
1.60767	-6
1.61133	-9
1.61500	-10
1.61867	-10
1.62233	-10
1.62600	-10
1.62967	-9
1.63333	-8
1.63700	-7
1.64067	-7
1.64433	-7
1.64800	-7
1.65167	-7
1.65533	-5
1.65900	-5
1.66267	-4
1.66633	-3
1.67000	-3
1.67367	-4
1.67733	-4
1.68100	-2
1.68467	0
1.68833	3
1.69200	5
1.69567	6
1.69933	4
1.70300	2
1.70667	3
1.71033	4
1.71400	6
1.71767	8
1.72133	7
1.72500	5
1.72867	3
1.73233	5
1.73600	8
1.73967	10
1.74333	9
1.74700	11
1.75067	11
1.75433	10
1.75800	8
1.76167	5
1.76533	5
1.76900	6
1.77267	6
1.77633	9
1.78000	10
1.78367	8
1.78733	6
1.79100	6
1.79467	5
1.79833	3
1.80200	4
1.80567	6
1.80933	7
1.81300	7
1.81667	7
1.82033	7
1.82400	8
1.82767	8
1.83133	10
1.83500	11
1.83867	11
1.84233	11
1.84600	11
1.84967	13
1.85333	15
1.85700	17
1.86067	19
1.86433	18
1.86800	17
1.87167	14
1.87533	11
1.87900	9
1.88267	10
1.88633	10
1.89000	12
1.89367	11
1.89733	11
1.90100	15
1.90467	18
1.90833	22
1.91200	23
1.91567	24
1.91933	25
1.92300	26
1.92667	28
1.93033	28
1.93400	25
1.93767	26
1.94133	27
1.94500	26
1.94867	25
1.95233	26
1.95600	25
1.95967	25
1.96333	22
1.96700	21
1.97067	22
1.97433	24
1.97800	27
1.98167	29
1.98533	32
1.98900	33
1.99267	32
1.99633	30
2.00000	32
2.00367	34
2.00733	34
2.01100	35
2.01467	35
2.01833	35
2.02200	35
2.02567	35
2.02933	37
2.03300	38
2.03667	41
2.04033	42
2.04400	42
2.04767	42
2.05133	42
2.05500	44
2.05867	48
2.06233	51
2.06600	50
2.06967	49
2.07333	49
2.07700	48
2.08067	46
2.08433	47
2.08800	49
2.09167	52
2.09533	57
2.09900	62
2.10267	62
2.10633	58
2.11000	57
2.11367	57
2.11733	58
2.12100	59
2.12467	58
2.12833	57
2.13200	58
2.13567	60
2.13933	62
2.14300	64
2.14667	65
2.15033	65
2.15400	65
2.15767	64
2.16133	63
2.16500	64
2.16867	67
2.17233	68
2.17600	68
2.17967	69
2.18333	69
2.18700	70
2.19067	70
2.19433	71
2.19800	72
2.20167	73
2.20533	72
2.20900	72
2.21267	73
2.21633	74
2.22000	78
2.22367	79
2.22733	79
2.23100	80
2.23467	81
2.23833	81
2.24200	83
2.24567	84
2.24933	84
2.25300	85
2.25667	85
2.26033	86
2.26400	88
2.26767	88
2.27133	88
2.27500	90
2.27867	91
2.28233	93
2.28600	95
2.28967	98
2.29333	100
2.29700	101
2.30067	99
2.30433	100
2.30800	101
2.31167	101
2.31533	102
2.31900	102
2.32267	103
2.32633	105
2.33000	107
2.33367	107
2.33733	108
2.34100	108
2.34467	108
2.34833	109
2.35200	109
2.35567	108
2.35933	108
2.36300	110
2.36667	111
2.37033	113
2.37400	116
2.37767	118
2.38133	118
2.38500	120
2.38867	118
2.39233	117
2.39600	119
2.39967	121
2.40333	122
2.40700	124
2.41067	128
2.41433	130
2.41800	131
2.42167	132
2.42533	135
2.42900	138
2.43267	139
2.43633	139
2.44000	140
2.44367	179
2.44733	279
2.45100	397
2.45467	490
2.45833	547
2.46200	586
2.46567	609
2.46933	612
2.47300	600
2.47667	582
2.48033	576
2.48400	582
2.48767	597
2.49133	618
2.49500	642
2.49867	663
2.50233	675
2.50600	675
2.50967	664
2.51333	648
2.51700	631
2.52067	619
2.52433	613
2.52800	613
2.53167	616
2.53533	620
2.53900	629
2.54267	640
2.54633	651
2.55000	664
2.55367	679
2.55733	698
2.56100	718
2.56467	734
2.56833	746
2.57200	752
2.57567	754
2.57933	750
2.58300	738
2.58667	720
2.59033	700
2.59400	679
2.59767	656
2.60133	631
2.60500	607
2.60867	584
2.61233	556
2.61600	529
2.61967	500
2.62333	469
2.62700	439
2.63067	409
2.63433	382
2.63800	362
2.64167	349
2.64533	339
2.64900	331
2.65267	331
2.65633	333
2.66000	336
2.66367	344
2.66733	355
2.67100	366
2.67467	378
2.67833	389
2.68200	398
2.68567	408
2.68933	419
2.69300	432
2.69667	446
2.70033	459
2.70400	474
2.70767	487
2.71133	499
2.71500	510
2.71867	522
2.72233	528
2.72600	533
2.72967	537
2.73333	538
2.73700	540
2.74067	540
2.74433	537
2.74800	533
2.75167	530
2.75533	525
2.75900	520
2.76267	514
2.76633	506
2.77000	498
2.77367	491
2.77733	486
2.78100	485
2.78467	481
2.78833	479
2.79200	477
2.79567	474
2.79933	470
2.80300	466
2.80667	461
2.81033	458
2.81400	457
2.81767	455
2.82133	458
2.82500	468
2.82867	490
2.83233	533
2.83600	614
2.83967	759
2.84333	990
2.84700	1327
2.85067	1776
2.85433	2328
2.85800	2950
2.86167	3606
2.86533	4239
2.86900	4797
2.87267	5235
2.87633	5527
2.88000	5665
2.88367	5654
2.88733	5513
2.89100	5268
2.89467	4951
2.89833	4589
2.90200	4209
2.90567	3830
2.90933	3463
2.91300	3116
2.91667	2797
2.92033	2511
2.92400	2255
2.92767	2023
2.93133	1819
2.93500	1641
2.93867	1484
2.94233	1346
2.94600	1230
2.94967	1127
2.95333	1038
2.95700	964
2.96067	902
2.96433	850
2.96800	804
2.97167	762
2.97533	725
2.97900	696
2.98267	673
2.98633	651
2.99000	632
2.99367	618
2.99733	602
3.00100	588
3.00467	578
3.00833	568
3.01200	561
3.01567	555
3.01933	551
3.02300	549
3.02667	548
3.03033	544
3.03400	541
3.03767	542
3.04133	544
3.04500	546
3.04867	547
3.05233	547
3.05600	546
3.05967	546
3.06333	546
3.06700	547
3.07067	546
3.07433	545
3.07800	544
3.08167	545
3.08533	545
3.08900	543
3.09267	543
3.09633	542
3.10000	539
3.10367	536
3.10733	533
3.11100	529
3.11467	525
3.11833	524
3.12200	524
3.12567	522
3.12933	519
3.13300	512
3.13667	507
3.14033	504
3.14400	504
3.14767	501
3.15133	496
3.15500	493
3.15867	492
3.16233	492
3.16600	490
3.16967	486
3.17333	481
3.17700	478
3.18067	475
3.18433	471
3.18800	470
3.19167	468
3.19533	466
3.19900	461
3.20267	459
3.20633	457
3.21000	453
3.21367	451
3.21733	446
3.22100	441
3.22467	439
3.22833	436
3.23200	434
3.23567	432
3.23933	431
3.24300	430
3.24667	428
3.25033	427
3.25400	426
3.25767	422
3.26133	417
3.26500	414
3.26867	411
3.27233	409
3.27600	407
3.27967	404
3.28333	402
3.28700	401
3.29067	400
3.29433	398
3.29800	394
3.30167	390
3.30533	387
3.30900	381
3.31267	376
3.31633	375
3.32000	374
3.32367	373
3.32733	370
3.33100	370
3.33467	368
3.33833	365
3.34200	361
3.34567	357
3.34933	353
3.35300	350
3.35667	347
3.36033	345
3.36400	344
3.36767	341
3.37133	339
3.37500	336
3.37867	334
3.38233	332
3.38600	329
3.38967	326
3.39333	324
3.39700	321
3.40067	318
3.40433	315
3.40800	310
3.41167	306
3.41533	305
3.41900	305
3.42267	307
3.42633	307
3.43000	307
3.43367	306
3.43733	304
3.44100	302
3.44467	301
3.44833	299
3.45200	298
3.45567	296
3.45933	295
3.46300	294
3.46667	290
3.47033	286
3.47400	287
3.47767	287
3.48133	285
3.48500	283
3.48867	280
3.49233	278
3.49600	275
3.49967	274
3.50333	273
3.50700	273
3.51067	271
3.51433	270
3.51800	270
3.52167	270
3.52533	269
3.52900	267
3.53267	264
3.53633	261
3.54000	259
3.54367	260
3.54733	262
3.55100	262
3.55467	261
3.55833	260
3.56200	259
3.56567	259
3.56933	259
3.57300	260
3.57667	260
3.58033	257
3.58400	257
3.58767	256
3.59133	253
3.59500	251
3.59867	247
3.60233	245
3.60600	246
3.60967	247
3.61333	245
3.61700	244
3.62067	245
3.62433	246
3.62800	246
3.63167	246
3.63533	246
3.63900	247
3.64267	246
3.64633	244
3.65000	241
3.65367	238
3.65733	236
3.66100	238
3.66467	239
3.66833	238
3.67200	238
3.67567	239
3.67933	240
3.68300	241
3.68667	243
3.69033	241
3.69400	239
3.69767	238
3.70133	238
3.70500	239
3.70867	238
3.71233	237
3.71600	237
3.71967	235
3.72333	233
3.72700	231
3.73067	229
3.73433	230
3.73800	233
3.74167	236
3.74533	237
3.74900	236
3.75267	235
3.75633	234
3.76000	236
3.76367	238
3.76733	237
3.77100	237
3.77467	234
3.77833	233
3.78200	233
3.78567	232
3.78933	233
3.79300	235
3.79667	234
3.80033	232
3.80400	232
3.80767	231
3.81133	231
3.81500	233
3.81867	235
3.82233	236
3.82600	235
3.82967	234
3.83333	234
3.83700	234
3.84067	234
3.84433	235
3.84800	235
3.85167	235
3.85533	233
3.85900	230
3.86267	230
3.86633	232
3.87000	235
3.87367	234
3.87733	232
3.88100	230
3.88467	231
3.88833	232
3.89200	234
3.89567	234
3.89933	233
3.90300	233
3.90667	235
3.91033	234
3.91400	233
3.91767	233
3.92133	231
3.92500	230
3.92867	229
3.93233	231
3.93600	230
3.93967	229
3.94333	229
3.94700	230
3.95067	229
3.95433	228
3.95800	228
3.96167	230
3.96533	232
3.96900	235
3.97267	235
3.97633	233
3.98000	230
3.98367	230
3.98733	231
3.99100	232
3.99467	232
3.99833	232

[Status Trace (Column Oven Temperature)]
Interval(msec)	1000
# of Points	240
Start Time(min)	0.012
End Time(min)	3.996
Intensity Units	
Intensity Multiplier	1
R.Time (min)	Intensity
0.01227	35.01
0.02893	35.00
0.04560	35.00
0.06227	34.99
0.07893	34.99
0.09560	34.99
0.11227	34.98
0.12893	34.98
0.14560	34.99
0.16227	34.98
0.17893	34.99
0.19560	34.98
0.21227	35.00
0.22893	35.00
0.24560	35.00
0.26227	35.01
0.27893	35.02
0.29560	35.02
0.31227	35.01
0.32893	35.01
0.34560	35.01
0.36227	35.00
0.37893	35.00
0.39560	35.00
0.41227	34.99
0.42893	34.99
0.44560	35.00
0.46227	34.99
0.47893	34.98
0.49560	34.98
0.51227	34.99
0.52893	34.99
0.54560	34.99
0.56227	35.00
0.57893	34.99
0.59560	34.99
0.61227	34.99
0.62893	35.00
0.64560	35.01
0.66227	35.01
0.67893	35.00
0.69560	35.00
0.71227	35.00
0.72893	34.99
0.74560	35.00
0.76227	35.00
0.77893	35.00
0.79560	34.99
0.81227	35.00
0.82893	35.00
0.84560	34.99
0.86227	34.99
0.87893	35.00
0.89560	34.99
0.91227	34.99
0.92893	35.00
0.94560	34.99
0.96227	35.00
0.97893	35.00
0.99560	34.99
1.01227	34.99
1.02893	34.99
1.04560	34.99
1.06227	34.99
1.07893	34.99
1.09560	34.99
1.11227	34.98
1.12893	34.99
1.14560	34.99
1.16227	34.99
1.17893	34.99
1.19560	34.99
1.21227	34.99
1.22893	34.99
1.24560	34.99
1.26227	34.99
1.27893	35.00
1.29560	35.00
1.31227	34.99
1.32893	34.99
1.34560	34.99
1.36227	34.99
1.37893	34.98
1.39560	34.98
1.41227	34.98
1.42893	34.99
1.44560	34.99
1.46227	35.00
1.47893	35.00
1.49560	35.01
1.51227	35.01
1.52893	35.01
1.54560	35.00
1.56227	35.00
1.57893	35.00
1.59560	35.02
1.61227	35.09
1.62893	35.23
1.64560	35.44
1.66227	35.70
1.67893	36.05
1.69560	36.41
1.71227	36.75
1.72893	37.08
1.74560	37.43
1.76227	37.77
1.77893	38.11
1.79560	38.44
1.81227	38.76
1.82893	39.10
1.84560	39.43
1.86227	39.77
1.87893	40.10
1.89560	40.42
1.91227	40.75
1.92893	41.05
1.94560	41.38
1.96227	41.71
1.97893	42.03
1.99560	42.36
2.01227	42.69
2.02893	43.00
2.04560	43.32
2.06227	43.63
2.07893	43.96
2.09560	44.28
2.11227	44.61
2.12893	44.93
2.14560	45.27
2.16227	45.58
2.17893	45.92
2.19560	46.25
2.21227	46.58
2.22893	46.91
2.24560	47.24
2.26227	47.63
2.27893	47.94
2.29560	48.26
2.31227	48.59
2.32893	48.91
2.34560	49.23
2.36227	49.52
2.37893	49.67
2.39560	49.70
2.41227	49.69
2.42893	49.68
2.44560	49.70
2.46227	49.70
2.47893	49.71
2.49560	49.72
2.51227	49.73
2.52893	49.75
2.54560	49.76
2.56227	49.79
2.57893	49.79
2.59560	49.83
2.61227	49.83
2.62893	49.83
2.64560	49.84
2.66227	49.84
2.67893	49.84
2.69560	49.85
2.71227	49.85
2.72893	49.84
2.74560	49.86
2.76227	49.86
2.77893	49.86
2.79560	49.85
2.81227	49.85
2.82893	49.88
2.84560	49.89
2.86227	49.90
2.87893	49.90
2.89560	49.91
2.91227	49.92
2.92893	49.91
2.94560	49.92
2.96227	49.93
2.97893	49.94
2.99560	49.95
3.01227	49.96
3.02893	49.97
3.04560	49.98
3.06227	50.00
3.07893	50.01
3.09560	50.01
3.11227	50.02
3.12893	50.03
3.14560	50.04
3.16227	50.05
3.17893	50.05
3.19560	50.06
3.21227	50.07
3.22893	50.07
3.24560	50.07
3.26227	50.08
3.27893	50.09
3.29560	50.10
3.31227	50.10
3.32893	50.10
3.34560	50.11
3.36227	50.10
3.37893	50.09
3.39560	50.08
3.41227	50.07
3.42893	50.05
3.44560	50.05
3.46227	50.05
3.47893	50.05
3.49560	50.04
3.51227	50.04
3.52893	50.04
3.54560	50.03
3.56227	50.03
3.57893	50.03
3.59560	50.03
3.61227	50.03
3.62893	50.04
3.64560	50.04
3.66227	50.04
3.67893	50.04
3.69560	50.04
3.71227	50.05
3.72893	50.05
3.74560	50.05
3.76227	50.06
3.77893	50.06
3.79560	50.06
3.81227	50.07
3.82893	50.07
3.84560	50.08
3.86227	50.07
3.87893	50.07
3.89560	50.06
3.91227	50.07
3.92893	50.07
3.94560	50.08
3.96227	50.08
3.97893	50.07
3.99560	50.06

[Status Trace (Injection Unit Temperature)]
Interval(msec)	1000
# of Points	240
Start Time(min)	0.012
End Time(min)	3.996
Intensity Units	
Intensity Multiplier	1
R.Time (min)	Intensity
0.01227	99.98
0.02893	99.98
0.04560	99.98
0.06227	99.99
0.07893	99.98
0.09560	99.98
0.11227	99.98
0.12893	99.98
0.14560	99.99
0.16227	99.99
0.17893	99.99
0.19560	99.99
0.21227	99.99
0.22893	99.99
0.24560	99.99
0.26227	99.99
0.27893	99.99
0.29560	99.99
0.31227	99.99
0.32893	99.99
0.34560	99.98
0.36227	99.99
0.37893	99.99
0.39560	99.99
0.41227	99.98
0.42893	99.99
0.44560	99.99
0.46227	99.99
0.47893	99.99
0.49560	99.99
0.51227	99.99
0.52893	99.99
0.54560	99.99
0.56227	99.99
0.57893	99.99
0.59560	99.99
0.61227	99.99
0.62893	99.98
0.64560	99.98
0.66227	99.99
0.67893	99.98
0.69560	99.99
0.71227	99.99
0.72893	99.98
0.74560	99.98
0.76227	99.98
0.77893	99.99
0.79560	99.98
0.81227	99.99
0.82893	99.98
0.84560	99.99
0.86227	99.99
0.87893	99.98
0.89560	99.98
0.91227	99.98
0.92893	99.99
0.94560	99.99
0.96227	99.98
0.97893	99.98
0.99560	99.98
1.01227	99.99
1.02893	99.98
1.04560	99.98
1.06227	99.99
1.07893	99.99
1.09560	99.98
1.11227	99.98
1.12893	99.99
1.14560	99.99
1.16227	99.99
1.17893	99.99
1.19560	99.98
1.21227	99.99
1.22893	99.99
1.24560	99.99
1.26227	99.99
1.27893	99.99
1.29560	99.99
1.31227	99.99
1.32893	99.99
1.34560	99.99
1.36227	99.99
1.37893	99.99
1.39560	99.99
1.41227	99.99
1.42893	99.99
1.44560	99.99
1.46227	99.99
1.47893	99.99
1.49560	99.99
1.51227	99.99
1.52893	99.99
1.54560	99.98
1.56227	99.99
1.57893	99.99
1.59560	99.98
1.61227	99.99
1.62893	99.99
1.64560	99.99
1.66227	99.99
1.67893	99.99
1.69560	99.98
1.71227	99.99
1.72893	99.99
1.74560	99.98
1.76227	99.99
1.77893	99.98
1.79560	99.98
1.81227	99.99
1.82893	99.98
1.84560	99.98
1.86227	99.98
1.87893	99.98
1.89560	99.98
1.91227	99.98
1.92893	99.98
1.94560	99.98
1.96227	99.98
1.97893	99.98
1.99560	99.98
2.01227	99.97
2.02893	99.98
2.04560	99.98
2.06227	99.98
2.07893	99.97
2.09560	99.98
2.11227	99.98
2.12893	99.98
2.14560	99.98
2.16227	99.97
2.17893	99.98
2.19560	99.98
2.21227	99.98
2.22893	99.98
2.24560	99.98
2.26227	99.98
2.27893	99.98
2.29560	99.98
2.31227	99.98
2.32893	99.98
2.34560	99.98
2.36227	99.98
2.37893	99.98
2.39560	99.98
2.41227	99.98
2.42893	99.98
2.44560	99.98
2.46227	99.99
2.47893	99.98
2.49560	99.99
2.51227	99.99
2.52893	99.98
2.54560	99.98
2.56227	99.99
2.57893	99.99
2.59560	99.99
2.61227	99.99
2.62893	99.99
2.64560	99.99
2.66227	99.99
2.67893	99.99
2.69560	99.99
2.71227	99.99
2.72893	99.99
2.74560	99.99
2.76227	100.00
2.77893	100.00
2.79560	99.99
2.81227	100.00
2.82893	99.99
2.84560	100.00
2.86227	100.00
2.87893	99.99
2.89560	100.00
2.91227	100.00
2.92893	100.00
2.94560	100.00
2.96227	100.01
2.97893	100.01
2.99560	100.01
3.01227	100.01
3.02893	100.01
3.04560	100.01
3.06227	100.01
3.07893	100.01
3.09560	100.02
3.11227	100.01
3.12893	100.01
3.14560	100.01
3.16227	100.01
3.17893	100.02
3.19560	100.02
3.21227	100.02
3.22893	100.02
3.24560	100.02
3.26227	100.02
3.27893	100.02
3.29560	100.02
3.31227	100.02
3.32893	100.03
3.34560	100.03
3.36227	100.03
3.37893	100.02
3.39560	100.03
3.41227	100.03
3.42893	100.03
3.44560	100.03
3.46227	100.03
3.47893	100.03
3.49560	100.04
3.51227	100.04
3.52893	100.04
3.54560	100.04
3.56227	100.04
3.57893	100.04
3.59560	100.04
3.61227	100.04
3.62893	100.05
3.64560	100.05
3.66227	100.05
3.67893	100.05
3.69560	100.05
3.71227	100.05
3.72893	100.05
3.74560	100.05
3.76227	100.05
3.77893	100.05
3.79560	100.05
3.81227	100.05
3.82893	100.05
3.84560	100.05
3.86227	100.05
3.87893	100.05
3.89560	100.05
3.91227	100.06
3.92893	100.05
3.94560	100.06
3.96227	100.06
3.97893	100.06
3.99560	100.06

[Status Trace (Carrier Gas Pressure)]
Interval(msec)	1000
# of Points	240
Start Time(min)	0.012
End Time(min)	3.996
Intensity Units	
Intensity Multiplier	1
R.Time (min)	Intensity
0.01227	57.98
0.02893	54.93
0.04560	57.63
0.06227	59.67
0.07893	59.09
0.09560	58.00
0.11227	57.99
0.12893	58.01
0.14560	58.01
0.16227	58.00
0.17893	58.00
0.19560	58.00
0.21227	58.00
0.22893	58.00
0.24560	58.00
0.26227	58.00
0.27893	58.00
0.29560	58.00
0.31227	58.00
0.32893	58.00
0.34560	58.00
0.36227	58.00
0.37893	58.00
0.39560	58.00
0.41227	58.00
0.42893	58.00
0.44560	58.00
0.46227	58.00
0.47893	58.00
0.49560	58.00
0.51227	58.00
0.52893	58.00
0.54560	58.00
0.56227	58.00
0.57893	58.00
0.59560	58.00
0.61227	58.00
0.62893	58.00
0.64560	58.00
0.66227	58.00
0.67893	58.00
0.69560	58.00
0.71227	58.00
0.72893	58.00
0.74560	58.00
0.76227	58.00
0.77893	58.00
0.79560	58.00
0.81227	58.00
0.82893	58.00
0.84560	58.00
0.86227	58.00
0.87893	58.00
0.89560	58.00
0.91227	58.00
0.92893	58.00
0.94560	58.00
0.96227	58.00
0.97893	58.00
0.99560	58.00
1.01227	58.00
1.02893	58.00
1.04560	58.00
1.06227	58.00
1.07893	58.00
1.09560	58.00
1.11227	58.00
1.12893	58.00
1.14560	58.00
1.16227	58.00
1.17893	58.00
1.19560	58.00
1.21227	58.00
1.22893	58.00
1.24560	58.00
1.26227	58.00
1.27893	58.00
1.29560	58.00
1.31227	58.00
1.32893	58.00
1.34560	58.00
1.36227	58.00
1.37893	58.00
1.39560	58.00
1.41227	58.00
1.42893	58.00
1.44560	58.00
1.46227	58.00
1.47893	58.00
1.49560	58.00
1.51227	58.00
1.52893	58.00
1.54560	58.00
1.56227	58.00
1.57893	58.00
1.59560	58.00
1.61227	58.00
1.62893	58.00
1.64560	58.01
1.66227	58.00
1.67893	58.01
1.69560	58.00
1.71227	58.00
1.72893	58.00
1.74560	58.00
1.76227	58.00
1.77893	58.00
1.79560	58.00
1.81227	58.00
1.82893	58.00
1.84560	58.00
1.86227	58.00
1.87893	58.00
1.89560	58.00
1.91227	58.00
1.92893	58.00
1.94560	58.00
1.96227	58.00
1.97893	58.00
1.99560	58.00
2.01227	58.00
2.02893	58.00
2.04560	58.00
2.06227	58.00
2.07893	58.00
2.09560	58.00
2.11227	58.00
2.12893	58.00
2.14560	58.00
2.16227	58.00
2.17893	58.00
2.19560	58.00
2.21227	58.00
2.22893	58.00
2.24560	58.00
2.26227	58.00
2.27893	58.00
2.29560	58.00
2.31227	58.00
2.32893	58.00
2.34560	58.00
2.36227	58.00
2.37893	57.99
2.39560	57.99
2.41227	58.00
2.42893	58.00
2.44560	58.00
2.46227	58.00
2.47893	58.00
2.49560	58.00
2.51227	57.99
2.52893	57.99
2.54560	58.00
2.56227	58.00
2.57893	58.00
2.59560	58.00
2.61227	58.00
2.62893	58.00
2.64560	58.00
2.66227	58.00
2.67893	58.00
2.69560	58.00
2.71227	58.00
2.72893	58.00
2.74560	58.00
2.76227	58.00
2.77893	58.00
2.79560	58.00
2.81227	58.00
2.82893	58.00
2.84560	58.00
2.86227	58.00
2.87893	58.00
2.89560	58.00
2.91227	58.00
2.92893	58.00
2.94560	58.00
2.96227	58.00
2.97893	58.00
2.99560	58.00
3.01227	58.00
3.02893	58.00
3.04560	58.00
3.06227	58.00
3.07893	58.00
3.09560	58.00
3.11227	58.00
3.12893	58.00
3.14560	58.00
3.16227	58.00
3.17893	58.00
3.19560	58.00
3.21227	58.00
3.22893	58.00
3.24560	58.00
3.26227	58.00
3.27893	58.00
3.29560	58.00
3.31227	58.00
3.32893	58.00
3.34560	58.00
3.36227	58.00
3.37893	58.00
3.39560	58.00
3.41227	58.00
3.42893	58.00
3.44560	58.00
3.46227	58.00
3.47893	58.00
3.49560	58.00
3.51227	58.00
3.52893	58.00
3.54560	58.00
3.56227	58.00
3.57893	58.00
3.59560	58.00
3.61227	58.00
3.62893	58.00
3.64560	58.00
3.66227	58.00
3.67893	58.00
3.69560	58.00
3.71227	58.00
3.72893	58.00
3.74560	58.00
3.76227	58.00
3.77893	58.00
3.79560	58.00
3.81227	58.00
3.82893	58.00
3.84560	58.00
3.86227	58.00
3.87893	58.00
3.89560	58.00
3.91227	58.00
3.92893	58.00
3.94560	58.00
3.96227	58.00
3.97893	58.00
3.99560	58.00

[Status Trace (Carrier Gas Flow)]
Interval(msec)	1000
# of Points	240
Start Time(min)	0.012
End Time(min)	3.996
Intensity Units	
Intensity Multiplier	1
R.Time (min)	Intensity
0.01227	34.59
0.02893	34.54
0.04560	34.54
0.06227	34.54
0.07893	34.50
0.09560	34.52
0.11227	34.52
0.12893	34.52
0.14560	34.52
0.16227	34.52
0.17893	34.52
0.19560	34.52
0.21227	34.52
0.22893	34.52
0.24560	34.52
0.26227	34.52
0.27893	34.52
0.29560	34.52
0.31227	34.52
0.32893	34.52
0.34560	34.52
0.36227	34.52
0.37893	34.52
0.39560	34.52
0.41227	34.52
0.42893	34.52
0.44560	34.52
0.46227	34.52
0.47893	34.52
0.49560	34.52
0.51227	34.52
0.52893	34.52
0.54560	34.52
0.56227	34.52
0.57893	34.52
0.59560	34.52
0.61227	34.52
0.62893	34.52
0.64560	34.52
0.66227	34.52
0.67893	34.52
0.69560	34.52
0.71227	34.52
0.72893	34.52
0.74560	34.52
0.76227	34.52
0.77893	34.52
0.79560	34.52
0.81227	34.52
0.82893	34.52
0.84560	34.52
0.86227	34.52
0.87893	34.52
0.89560	34.52
0.91227	34.52
0.92893	34.52
0.94560	34.52
0.96227	34.52
0.97893	34.52
0.99560	34.52
1.01227	34.52
1.02893	34.52
1.04560	34.52
1.06227	34.52
1.07893	34.52
1.09560	34.52
1.11227	34.52
1.12893	34.52
1.14560	34.52
1.16227	34.52
1.17893	34.52
1.19560	34.52
1.21227	34.52
1.22893	34.52
1.24560	34.52
1.26227	34.52
1.27893	34.52
1.29560	34.52
1.31227	34.52
1.32893	34.52
1.34560	34.52
1.36227	34.52
1.37893	34.52
1.39560	34.52
1.41227	34.52
1.42893	34.52
1.44560	34.52
1.46227	34.52
1.47893	34.52
1.49560	34.52
1.51227	34.52
1.52893	34.52
1.54560	34.52
1.56227	34.52
1.57893	34.52
1.59560	34.52
1.61227	34.52
1.62893	34.52
1.64560	34.52
1.66227	34.52
1.67893	34.52
1.69560	34.52
1.71227	34.52
1.72893	34.52
1.74560	34.52
1.76227	34.52
1.77893	34.52
1.79560	34.52
1.81227	34.52
1.82893	34.52
1.84560	34.52
1.86227	34.52
1.87893	34.52
1.89560	34.52
1.91227	34.52
1.92893	34.52
1.94560	34.52
1.96227	34.52
1.97893	34.52
1.99560	34.52
2.01227	34.52
2.02893	34.52
2.04560	34.52
2.06227	34.52
2.07893	34.52
2.09560	34.52
2.11227	34.52
2.12893	34.52
2.14560	34.52
2.16227	34.52
2.17893	34.52
2.19560	34.52
2.21227	34.52
2.22893	34.52
2.24560	34.52
2.26227	34.52
2.27893	34.52
2.29560	34.52
2.31227	34.52
2.32893	34.52
2.34560	34.52
2.36227	34.52
2.37893	34.52
2.39560	34.52
2.41227	34.52
2.42893	34.52
2.44560	34.52
2.46227	34.52
2.47893	34.52
2.49560	34.52
2.51227	34.51
2.52893	34.52
2.54560	34.52
2.56227	34.52
2.57893	34.52
2.59560	34.52
2.61227	34.52
2.62893	34.52
2.64560	34.52
2.66227	34.52
2.67893	34.52
2.69560	34.52
2.71227	34.52
2.72893	34.52
2.74560	34.52
2.76227	34.52
2.77893	34.52
2.79560	34.52
2.81227	34.52
2.82893	34.52
2.84560	34.52
2.86227	34.52
2.87893	34.52
2.89560	34.52
2.91227	34.52
2.92893	34.52
2.94560	34.52
2.96227	34.52
2.97893	34.52
2.99560	34.52
3.01227	34.52
3.02893	34.52
3.04560	34.52
3.06227	34.52
3.07893	34.52
3.09560	34.52
3.11227	34.52
3.12893	34.52
3.14560	34.52
3.16227	34.52
3.17893	34.52
3.19560	34.52
3.21227	34.52
3.22893	34.52
3.24560	34.52
3.26227	34.52
3.27893	34.52
3.29560	34.52
3.31227	34.52
3.32893	34.52
3.34560	34.52
3.36227	34.52
3.37893	34.52
3.39560	34.52
3.41227	34.52
3.42893	34.52
3.44560	34.51
3.46227	34.52
3.47893	34.52
3.49560	34.52
3.51227	34.52
3.52893	34.52
3.54560	34.52
3.56227	34.52
3.57893	34.52
3.59560	34.52
3.61227	34.52
3.62893	34.52
3.64560	34.52
3.66227	34.52
3.67893	34.52
3.69560	34.52
3.71227	34.53
3.72893	34.52
3.74560	34.53
3.76227	34.52
3.77893	34.52
3.79560	34.52
3.81227	34.51
3.82893	34.52
3.84560	34.52
3.86227	34.52
3.87893	34.53
3.89560	34.52
3.91227	34.52
3.92893	34.52
3.94560	34.52
3.96227	34.52
3.97893	34.53
3.99560	34.52

[Status Trace (Column Flow)]
Interval(msec)	1000
# of Points	240
Start Time(min)	0.012
End Time(min)	3.996
Intensity Units	
Intensity Multiplier	1
R.Time (min)	Intensity
0.01227	5.54
0.02893	5.19
0.04560	5.50
0.06227	5.74
0.07893	5.68
0.09560	5.55
0.11227	5.55
0.12893	5.55
0.14560	5.55
0.16227	5.55
0.17893	5.55
0.19560	5.55
0.21227	5.55
0.22893	5.55
0.24560	5.55
0.26227	5.55
0.27893	5.55
0.29560	5.55
0.31227	5.55
0.32893	5.55
0.34560	5.55
0.36227	5.55
0.37893	5.55
0.39560	5.55
0.41227	5.55
0.42893	5.55
0.44560	5.55
0.46227	5.55
0.47893	5.55
0.49560	5.55
0.51227	5.55
0.52893	5.55
0.54560	5.55
0.56227	5.55
0.57893	5.55
0.59560	5.55
0.61227	5.55
0.62893	5.55
0.64560	5.55
0.66227	5.55
0.67893	5.55
0.69560	5.55
0.71227	5.55
0.72893	5.55
0.74560	5.55
0.76227	5.55
0.77893	5.55
0.79560	5.55
0.81227	5.55
0.82893	5.55
0.84560	5.55
0.86227	5.55
0.87893	5.55
0.89560	5.55
0.91227	5.55
0.92893	5.55
0.94560	5.55
0.96227	5.55
0.97893	5.55
0.99560	5.55
1.01227	5.55
1.02893	5.55
1.04560	5.55
1.06227	5.55
1.07893	5.55
1.09560	5.55
1.11227	5.55
1.12893	5.55
1.14560	5.55
1.16227	5.55
1.17893	5.55
1.19560	5.55
1.21227	5.55
1.22893	5.55
1.24560	5.55
1.26227	5.55
1.27893	5.55
1.29560	5.55
1.31227	5.55
1.32893	5.55
1.34560	5.55
1.36227	5.55
1.37893	5.55
1.39560	5.55
1.41227	5.55
1.42893	5.55
1.44560	5.55
1.46227	5.55
1.47893	5.55
1.49560	5.55
1.51227	5.55
1.52893	5.55
1.54560	5.55
1.56227	5.55
1.57893	5.55
1.59560	5.55
1.61227	5.54
1.62893	5.54
1.64560	5.53
1.66227	5.52
1.67893	5.51
1.69560	5.50
1.71227	5.49
1.72893	5.48
1.74560	5.47
1.76227	5.46
1.77893	5.45
1.79560	5.44
1.81227	5.43
1.82893	5.42
1.84560	5.41
1.86227	5.40
1.87893	5.39
1.89560	5.38
1.91227	5.37
1.92893	5.36
1.94560	5.35
1.96227	5.34
1.97893	5.33
1.99560	5.32
2.01227	5.31
2.02893	5.30
2.04560	5.29
2.06227	5.28
2.07893	5.27
2.09560	5.26
2.11227	5.25
2.12893	5.25
2.14560	5.24
2.16227	5.23
2.17893	5.22
2.19560	5.21
2.21227	5.20
2.22893	5.19
2.24560	5.18
2.26227	5.17
2.27893	5.16
2.29560	5.15
2.31227	5.14
2.32893	5.13
2.34560	5.12
2.36227	5.11
2.37893	5.11
2.39560	5.11
2.41227	5.11
2.42893	5.11
2.44560	5.11
2.46227	5.11
2.47893	5.11
2.49560	5.11
2.51227	5.11
2.52893	5.11
2.54560	5.11
2.56227	5.11
2.57893	5.11
2.59560	5.11
2.61227	5.11
2.62893	5.11
2.64560	5.11
2.66227	5.11
2.67893	5.11
2.69560	5.11
2.71227	5.11
2.72893	5.11
2.74560	5.11
2.76227	5.10
2.77893	5.10
2.79560	5.11
2.81227	5.11
2.82893	5.10
2.84560	5.10
2.86227	5.10
2.87893	5.10
2.89560	5.10
2.91227	5.10
2.92893	5.10
2.94560	5.10
2.96227	5.10
2.97893	5.10
2.99560	5.10
3.01227	5.10
3.02893	5.10
3.04560	5.10
3.06227	5.10
3.07893	5.10
3.09560	5.10
3.11227	5.10
3.12893	5.10
3.14560	5.10
3.16227	5.10
3.17893	5.10
3.19560	5.10
3.21227	5.10
3.22893	5.10
3.24560	5.10
3.26227	5.10
3.27893	5.10
3.29560	5.10
3.31227	5.10
3.32893	5.10
3.34560	5.10
3.36227	5.10
3.37893	5.10
3.39560	5.10
3.41227	5.10
3.42893	5.10
3.44560	5.10
3.46227	5.10
3.47893	5.10
3.49560	5.10
3.51227	5.10
3.52893	5.10
3.54560	5.10
3.56227	5.10
3.57893	5.10
3.59560	5.10
3.61227	5.10
3.62893	5.10
3.64560	5.10
3.66227	5.10
3.67893	5.10
3.69560	5.10
3.71227	5.10
3.72893	5.10
3.74560	5.10
3.76227	5.10
3.77893	5.10
3.79560	5.10
3.81227	5.10
3.82893	5.10
3.84560	5.10
3.86227	5.10
3.87893	5.10
3.89560	5.10
3.91227	5.10
3.92893	5.10
3.94560	5.10
3.96227	5.10
3.97893	5.10
3.99560	5.10

[Status Trace (Linear Velocity)]
Interval(msec)	1000
# of Points	240
Start Time(min)	0.012
End Time(min)	3.996
Intensity Units	
Intensity Multiplier	1
R.Time (min)	Intensity
0.01227	39.01
0.02893	37.01
0.04560	38.78
0.06227	40.11
0.07893	39.74
0.09560	39.03
0.11227	39.02
0.12893	39.03
0.14560	39.03
0.16227	39.03
0.17893	39.03
0.19560	39.03
0.21227	39.02
0.22893	39.02
0.24560	39.02
0.26227	39.02
0.27893	39.02
0.29560	39.02
0.31227	39.02
0.32893	39.02
0.34560	39.02
0.36227	39.02
0.37893	39.02
0.39560	39.02
0.41227	39.02
0.42893	39.02
0.44560	39.02
0.46227	39.02
0.47893	39.03
0.49560	39.02
0.51227	39.02
0.52893	39.02
0.54560	39.02
0.56227	39.02
0.57893	39.02
0.59560	39.02
0.61227	39.02
0.62893	39.02
0.64560	39.02
0.66227	39.02
0.67893	39.02
0.69560	39.02
0.71227	39.02
0.72893	39.02
0.74560	39.02
0.76227	39.02
0.77893	39.02
0.79560	39.02
0.81227	39.02
0.82893	39.02
0.84560	39.02
0.86227	39.02
0.87893	39.02
0.89560	39.02
0.91227	39.02
0.92893	39.02
0.94560	39.02
0.96227	39.02
0.97893	39.02
0.99560	39.02
1.01227	39.02
1.02893	39.02
1.04560	39.02
1.06227	39.02
1.07893	39.02
1.09560	39.02
1.11227	39.02
1.12893	39.02
1.14560	39.02
1.16227	39.02
1.17893	39.02
1.19560	39.02
1.21227	39.02
1.22893	39.02
1.24560	39.02
1.26227	39.02
1.27893	39.02
1.29560	39.02
1.31227	39.02
1.32893	39.02
1.34560	39.02
1.36227	39.02
1.37893	39.02
1.39560	39.02
1.41227	39.02
1.42893	39.02
1.44560	39.02
1.46227	39.02
1.47893	39.02
1.49560	39.02
1.51227	39.02
1.52893	39.02
1.54560	39.02
1.56227	39.02
1.57893	39.02
1.59560	39.02
1.61227	39.02
1.62893	39.00
1.64560	38.98
1.66227	38.96
1.67893	38.93
1.69560	38.89
1.71227	38.86
1.72893	38.83
1.74560	38.79
1.76227	38.76
1.77893	38.73
1.79560	38.69
1.81227	38.66
1.82893	38.64
1.84560	38.60
1.86227	38.57
1.87893	38.54
1.89560	38.51
1.91227	38.48
1.92893	38.45
1.94560	38.42
1.96227	38.39
1.97893	38.36
1.99560	38.33
2.01227	38.30
2.02893	38.27
2.04560	38.24
2.06227	38.21
2.07893	38.19
2.09560	38.15
2.11227	38.12
2.12893	38.10
2.14560	38.06
2.16227	38.03
2.17893	38.01
2.19560	37.97
2.21227	37.94
2.22893	37.92
2.24560	37.88
2.26227	37.85
2.27893	37.82
2.29560	37.79
2.31227	37.76
2.32893	37.74
2.34560	37.71
2.36227	37.68
2.37893	37.66
2.39560	37.66
2.41227	37.66
2.42893	37.67
2.44560	37.66
2.46227	37.66
2.47893	37.66
2.49560	37.66
2.51227	37.66
2.52893	37.65
2.54560	37.66
2.56227	37.66
2.57893	37.66
2.59560	37.65
2.61227	37.65
2.62893	37.65
2.64560	37.65
2.66227	37.65
2.67893	37.65
2.69560	37.65
2.71227	37.65
2.72893	37.65
2.74560	37.65
2.76227	37.65
2.77893	37.65
2.79560	37.65
2.81227	37.65
2.82893	37.65
2.84560	37.65
2.86227	37.65
2.87893	37.65
2.89560	37.65
2.91227	37.65
2.92893	37.65
2.94560	37.65
2.96227	37.64
2.97893	37.64
2.99560	37.64
3.01227	37.64
3.02893	37.64
3.04560	37.64
3.06227	37.64
3.07893	37.64
3.09560	37.64
3.11227	37.64
3.12893	37.64
3.14560	37.64
3.16227	37.63
3.17893	37.63
3.19560	37.63
3.21227	37.63
3.22893	37.63
3.24560	37.63
3.26227	37.63
3.27893	37.63
3.29560	37.63
3.31227	37.63
3.32893	37.63
3.34560	37.63
3.36227	37.63
3.37893	37.63
3.39560	37.63
3.41227	37.63
3.42893	37.63
3.44560	37.63
3.46227	37.63
3.47893	37.63
3.49560	37.63
3.51227	37.63
3.52893	37.63
3.54560	37.64
3.56227	37.64
3.57893	37.64
3.59560	37.64
3.61227	37.64
3.62893	37.63
3.64560	37.63
3.66227	37.63
3.67893	37.63
3.69560	37.63
3.71227	37.63
3.72893	37.63
3.74560	37.63
3.76227	37.63
3.77893	37.63
3.79560	37.63
3.81227	37.63
3.82893	37.63
3.84560	37.63
3.86227	37.63
3.87893	37.63
3.89560	37.63
3.91227	37.63
3.92893	37.63
3.94560	37.63
3.96227	37.63
3.97893	37.63
3.99560	37.63

