[Header]
Application Name	LabSolutions
Version	5.110
Data File Name	C:\Users\User\Desktop\GC Analyses\Jack\UIC Prairie Sampling\10.19.22\221019_098.gcd
Output Date	1/4/2023
Output Time	2:27:21 PM

[File Information]
Type	Data File
Generated	12/15/2022 11:11:22 AM
Generated by	System Administrator
Modified	12/15/2022 11:15:50 AM
Modified by	System Administrator

[Sample Information]
Operator Name	System Administrator
Acquired	12/15/2022 11:11:49 AM
Sample Type	1:Standard
Level	1
Sample Name	221019_UICPrairie
Sample ID	221019_UICPrairie
ISTD Amount1	1
ISTD Amount2	1
ISTD Amount3	1
ISTD Amount4	1
ISTD Amount5	1
ISTD Amount6	1
ISTD Amount7	1
ISTD Amount8	1
ISTD Amount9	1
ISTD Amount10	1
ISTD Amount11	1
ISTD Amount12	1
ISTD Amount13	1
ISTD Amount14	1
ISTD Amount15	1
ISTD Amount16	1
ISTD Amount17	1
ISTD Amount18	1
ISTD Amount19	1
ISTD Amount20	1
ISTD Amount21	1
ISTD Amount22	1
ISTD Amount23	1
ISTD Amount24	1
ISTD Amount25	1
ISTD Amount26	1
ISTD Amount27	1
ISTD Amount28	1
ISTD Amount29	1
ISTD Amount30	1
ISTD Amount31	1
ISTD Amount32	1
Sample Amount	1
Dilution Factor	1
Vial#	1
Injection Volume	1
Injection Count	1
Bar Code	

[Original Files]
Data File	C:\Users\User\Desktop\GC Analyses\Jack\UIC Prairie Sampling\10.19.22\221019_098.gcd
Method File	C:\LabSolutions\Data\GHG_4min_2022\ghg3_togas_w_acet_4 min_new_int.gcm
Batch File	
Report Format File	c:\LabSolutions\System\DEFAULT.lsr

[File Description]


[Configuration]
Instrument Name	C0B7VH3-Instrument1
Instrument #	1
Line #	1
# of Detectors	3
Detector ID	DET#1	DET#2	DET#3
Detector Name	FID	PTCD	ECD
# of Channels	1	1	1

[Peak Table(Ch1)]
# of Peaks	3
Peak#	R.Time	I.Time	F.Time	Area	Height	A/H	Conc.	Mark	ID#	Name	k'	Plate #	Plate Ht.	Tailing	Resolution	Sep.Factor	Area Ratio	Height Ratio	Conc. %	Norm Conc.
1	1.465	1.424	1.531	2851	883	3.228	100.000	   	1	CO	0.000	5015	29.913	0.000	0.000	0.000	0	0	16.667	16.667
2	1.571	1.531	1.644	20300	10252	1.980	100.000	 V 	2	CH4	0.073	11705	12.815	1.127	1.510	0.000	0	0	16.667	16.667
3	2.000	1.952	2.814	1998846	924942	2.161	400.000	   	3	CO2	0.365	17427	8.607	1.229	7.229	5.034	0	0	66.667	66.667

[Peak Table(Ch2)]
# of Peaks	0

[Peak Table(Ch3)]
# of Peaks	5
Peak#	R.Time	I.Time	F.Time	Area	Height	A/H	Conc.	Mark	ID#	Name	k'	Plate #	Plate Ht.	Tailing	Resolution	Sep.Factor	Area Ratio	Height Ratio	Conc. %	Norm Conc.
1	2.466	2.297	2.495	1922	438	4.390	0.000	   			0.000	4610	32.541	0.000	0.000	0.000	0	0	0.000	0.000
2	2.510	2.495	2.550	1031	352	2.933	0.000	 V 			0.018	811	184.951	0.000	0.177	0.000	0	0	0.000	0.000
3	2.598	2.550	2.649	1537	386	3.977	0.000	 V 			0.054	3729	40.222	0.000	0.337	3.000	0	0	0.000	0.000
4	2.884	2.667	3.118	61964	15815	3.918	1.000	   	1	N2O	0.170	12826	11.695	1.593	2.103	3.167	0	0	100.000	100.000
5	3.338	3.239	3.947	6556	290	22.638	0.000	   			0.354	533	281.461	3.659	1.337	2.088	0	0	0.000	0.000

[Compound Results(Ch1)]
# of IDs	6
ID#	Name	R.Time	Area	Height	Conc.	Curve	3rd	2nd	1st	Constant	Area Ratio	Height Ratio	Conc. %	Norm Conc.
1	CO	1.465	2851	883	100.000	Linear	0.000000e+00	0.000000e+00	2.851466e+001	0.000000e+00	0	0	16.667	16.667
2	CH4	1.571	20300	10252	100.000	Linear	0.000000e+00	0.000000e+00	2.030022e+002	0.000000e+00	0	0	16.667	16.667
3	CO2	2.000	1998846	924942	400.000	Linear	0.000000e+00	0.000000e+00	4.997114e+003	0.000000e+00	0	0	66.667	66.667
4	Ethylene	0.000	0	0	0.000	Linear	0.000000e+00	0.000000e+00	0.000000e+00	0.000000e+00	0	0	0.000	0.000
5	Acetylene	0.000	0	0	0.000	Linear	0.000000e+00	0.000000e+00	0.000000e+00	0.000000e+00	0	0	0.000	0.000
6	Ethane	0.000	0	0	0.000	Linear	0.000000e+00	0.000000e+00	0.000000e+00	0.000000e+00	0	0	0.000	0.000

[Compound Results(Ch2)]
# of IDs	5
ID#	Name	R.Time	Area	Height	Conc.	Curve	3rd	2nd	1st	Constant	Area Ratio	Height Ratio	Conc. %	Norm Conc.
1	Hydrogen	0.000	0	0	0.000	Linear	0.000000e+00	0.000000e+00	0.000000e+00	0.000000e+00	0	0	0.000	0.000
2	Oxygen	0.000	0	0	0.000	Linear	0.000000e+00	0.000000e+00	0.000000e+00	0.000000e+00	0	0	0.000	0.000
3	Nitrogen	0.000	0	0	0.000	Linear	0.000000e+00	0.000000e+00	0.000000e+00	0.000000e+00	0	0	0.000	0.000
4	Methane	0.000	0	0	0.000	Linear	0.000000e+00	0.000000e+00	0.000000e+00	0.000000e+00	0	0	0.000	0.000
5	Carbon Monoxide	0.000	0	0	0.000	Linear	0.000000e+00	0.000000e+00	0.000000e+00	0.000000e+00	0	0	0.000	0.000

[Compound Results(Ch3)]
# of IDs	2
ID#	Name	R.Time	Area	Height	Conc.	Curve	3rd	2nd	1st	Constant	Area Ratio	Height Ratio	Conc. %	Norm Conc.
1	N2O	2.884	61964	15815	1.000	Linear	0.000000e+00	0.000000e+00	6.196366e+004	0.000000e+00	0	0	100.000	100.000
2	SF6	0.000	0	0	0.000	Linear	0.000000e+00	0.000000e+00	0.000000e+00	0.000000e+00	0	0	0.000	0.000

[Group Results(Ch1)]
# of Groups	0

[Group Results(Ch2)]
# of Groups	0

[Group Results(Ch3)]
# of Groups	0

[Chromatogram (Ch1)]
Interval(msec)	220
# of Points	1091
Start Time(min)	0.002
End Time(min)	3.998
R.Time (min)	Intensity
0.00167	2
0.00533	-1
0.00900	-1
0.01267	1
0.01633	3
0.02000	4
0.02367	7
0.02733	9
0.03100	11
0.03467	13
0.03833	11
0.04200	4
0.04567	-3
0.04933	-10
0.05300	-14
0.05667	-14
0.06033	-14
0.06400	-14
0.06767	-12
0.07133	-10
0.07500	-5
0.07867	2
0.08233	5
0.08600	5
0.08967	6
0.09333	7
0.09700	7
0.10067	7
0.10433	6
0.10800	6
0.11167	6
0.11533	6
0.11900	5
0.12267	4
0.12633	1
0.13000	-1
0.13367	-5
0.13733	-11
0.14100	-17
0.14467	-23
0.14833	-25
0.15200	-24
0.15567	-20
0.15933	-18
0.16300	-19
0.16667	-19
0.17033	-18
0.17400	-16
0.17767	-12
0.18133	-9
0.18500	-6
0.18867	-4
0.19233	-4
0.19600	-6
0.19967	-10
0.20333	-13
0.20700	-12
0.21067	-6
0.21433	2
0.21800	10
0.22167	12
0.22533	10
0.22900	8
0.23267	2
0.23633	-8
0.24000	-19
0.24367	-26
0.24733	-31
0.25100	-36
0.25467	-37
0.25833	-33
0.26200	-26
0.26567	-20
0.26933	-14
0.27300	-9
0.27667	-9
0.28033	-12
0.28400	-12
0.28767	-11
0.29133	-9
0.29500	-5
0.29867	-5
0.30233	-10
0.30600	-16
0.30967	-20
0.31333	-19
0.31700	-19
0.32067	-20
0.32433	-20
0.32800	-17
0.33167	-9
0.33533	-1
0.33900	9
0.34267	18
0.34633	24
0.35000	18
0.35367	6
0.35733	-8
0.36100	-20
0.36467	-28
0.36833	-30
0.37200	-29
0.37567	-28
0.37933	-27
0.38300	-24
0.38667	-22
0.39033	-19
0.39400	-16
0.39767	-13
0.40133	-11
0.40500	-13
0.40867	-16
0.41233	-16
0.41600	-19
0.41967	-24
0.42333	-28
0.42700	-31
0.43067	-31
0.43433	-28
0.43800	-22
0.44167	-14
0.44533	-9
0.44900	-9
0.45267	-11
0.45633	-12
0.46000	-12
0.46367	-13
0.46733	-11
0.47100	-8
0.47467	-6
0.47833	-5
0.48200	-7
0.48567	-9
0.48933	-10
0.49300	-12
0.49667	-14
0.50033	-14
0.50400	-11
0.50767	-9
0.51133	-12
0.51500	-15
0.51867	-18
0.52233	-22
0.52600	-26
0.52967	-28
0.53333	-32
0.53700	-33
0.54067	-30
0.54433	-27
0.54800	-24
0.55167	-20
0.55533	-17
0.55900	-12
0.56267	-7
0.56633	-5
0.57000	-6
0.57367	-8
0.57733	-12
0.58100	-18
0.58467	-25
0.58833	-28
0.59200	-27
0.59567	-23
0.59933	-20
0.60300	-18
0.60667	-19
0.61033	-20
0.61400	-23
0.61767	-24
0.62133	-24
0.62500	-25
0.62867	-30
0.63233	-37
0.63600	-40
0.63967	-38
0.64333	-33
0.64700	-29
0.65067	-26
0.65433	-26
0.65800	-24
0.66167	-22
0.66533	-24
0.66900	-28
0.67267	-35
0.67633	-37
0.68000	-34
0.68367	-30
0.68733	-27
0.69100	-24
0.69467	-17
0.69833	-9
0.70200	-9
0.70567	-15
0.70933	-19
0.71300	-23
0.71667	-27
0.72033	-31
0.72400	-34
0.72767	-37
0.73133	-39
0.73500	-38
0.73867	-35
0.74233	-36
0.74600	-40
0.74967	-40
0.75333	-41
0.75700	-42
0.76067	-42
0.76433	-42
0.76800	-41
0.77167	-39
0.77533	-35
0.77900	-32
0.78267	-31
0.78633	-32
0.79000	-33
0.79367	-33
0.79733	-32
0.80100	-31
0.80467	-31
0.80833	-34
0.81200	-37
0.81567	-42
0.81933	-51
0.82300	-62
0.82667	-67
0.83033	-64
0.83400	-53
0.83767	-40
0.84133	-28
0.84500	-19
0.84867	-16
0.85233	-18
0.85600	-24
0.85967	-36
0.86333	-48
0.86700	-56
0.87067	-65
0.87433	-70
0.87800	-70
0.88167	-69
0.88533	-69
0.88900	-68
0.89267	-68
0.89633	-64
0.90000	-56
0.90367	-51
0.90733	-49
0.91100	-47
0.91467	-43
0.91833	-40
0.92200	-40
0.92567	-41
0.92933	-41
0.93300	-41
0.93667	-44
0.94033	-50
0.94400	-60
0.94767	-71
0.95133	-78
0.95500	-78
0.95867	-72
0.96233	-61
0.96600	-50
0.96967	-43
0.97333	-42
0.97700	-45
0.98067	-47
0.98433	-47
0.98800	-44
0.99167	-40
0.99533	-37
0.99900	-35
1.00267	-32
1.00633	-33
1.01000	-37
1.01367	-42
1.01733	-45
1.02100	-47
1.02467	-49
1.02833	-49
1.03200	-49
1.03567	-50
1.03933	-51
1.04300	-52
1.04667	-56
1.05033	-57
1.05400	-57
1.05767	-53
1.06133	-46
1.06500	-37
1.06867	-28
1.07233	-23
1.07600	-21
1.07967	-23
1.08333	-29
1.08700	-34
1.09067	-40
1.09433	-47
1.09800	-52
1.10167	-54
1.10533	-54
1.10900	-57
1.11267	-59
1.11633	-61
1.12000	-63
1.12367	-62
1.12733	-58
1.13100	-54
1.13467	-51
1.13833	-46
1.14200	-45
1.14567	-44
1.14933	-43
1.15300	-43
1.15667	-44
1.16033	-46
1.16400	-47
1.16767	-46
1.17133	-46
1.17500	-46
1.17867	-47
1.18233	-48
1.18600	-47
1.18967	-44
1.19333	-40
1.19700	-35
1.20067	-32
1.20433	-33
1.20800	-35
1.21167	-37
1.21533	-40
1.21900	-43
1.22267	-46
1.22633	-47
1.23000	-45
1.23367	-45
1.23733	-49
1.24100	-54
1.24467	-57
1.24833	-58
1.25200	-58
1.25567	-59
1.25933	-58
1.26300	-55
1.26667	-53
1.27033	-50
1.27400	-47
1.27767	-48
1.28133	-52
1.28500	-56
1.28867	-61
1.29233	-67
1.29600	-71
1.29967	-69
1.30333	-66
1.30700	-65
1.31067	-67
1.31433	-69
1.31800	-69
1.32167	-66
1.32533	-61
1.32900	-56
1.33267	-54
1.33633	-54
1.34000	-52
1.34367	-52
1.34733	-53
1.35100	-52
1.35467	-49
1.35833	-48
1.36200	-47
1.36567	-48
1.36933	-50
1.37300	-53
1.37667	-55
1.38033	-58
1.38400	-59
1.38767	-60
1.39133	-63
1.39500	-67
1.39867	-71
1.40233	-78
1.40600	-80
1.40967	-79
1.41333	-78
1.41700	-76
1.42067	-73
1.42433	-69
1.42800	-65
1.43167	-62
1.43533	-62
1.43900	-53
1.44267	11
1.44633	179
1.45000	402
1.45367	598
1.45733	730
1.46100	798
1.46467	820
1.46833	820
1.47200	815
1.47567	811
1.47933	801
1.48300	774
1.48667	721
1.49033	645
1.49400	555
1.49767	462
1.50133	376
1.50500	300
1.50867	235
1.51233	181
1.51600	138
1.51967	104
1.52333	83
1.52700	72
1.53067	68
1.53433	69
1.53800	114
1.54167	342
1.54533	1037
1.54900	2412
1.55267	4319
1.55633	6343
1.56000	8116
1.56367	9444
1.56733	10191
1.57100	10206
1.57467	9422
1.57833	8005
1.58200	6309
1.58567	4680
1.58933	3315
1.59300	2273
1.59667	1525
1.60033	1009
1.60400	660
1.60767	429
1.61133	278
1.61500	181
1.61867	118
1.62233	73
1.62600	42
1.62967	19
1.63333	-0
1.63700	-17
1.64067	-29
1.64433	-36
1.64800	-36
1.65167	-35
1.65533	-34
1.65900	-38
1.66267	-41
1.66633	-43
1.67000	-45
1.67367	-48
1.67733	-50
1.68100	-50
1.68467	-50
1.68833	-51
1.69200	-52
1.69567	-54
1.69933	-55
1.70300	-58
1.70667	-63
1.71033	-67
1.71400	-73
1.71767	-74
1.72133	-74
1.72500	-75
1.72867	-76
1.73233	-77
1.73600	-78
1.73967	-74
1.74333	-65
1.74700	-56
1.75067	-53
1.75433	-59
1.75800	-66
1.76167	-72
1.76533	-77
1.76900	-80
1.77267	-78
1.77633	-74
1.78000	-67
1.78367	-62
1.78733	-60
1.79100	-61
1.79467	-62
1.79833	-67
1.80200	-73
1.80567	-79
1.80933	-85
1.81300	-85
1.81667	-79
1.82033	-74
1.82400	-70
1.82767	-67
1.83133	-63
1.83500	-56
1.83867	-49
1.84233	-44
1.84600	-39
1.84967	-35
1.85333	-37
1.85700	-42
1.86067	-48
1.86433	-54
1.86800	-60
1.87167	-64
1.87533	-64
1.87900	-64
1.88267	-67
1.88633	-72
1.89000	-78
1.89367	-82
1.89733	-82
1.90100	-79
1.90467	-75
1.90833	-72
1.91200	-69
1.91567	-67
1.91933	-65
1.92300	-62
1.92667	-58
1.93033	-55
1.93400	-54
1.93767	-55
1.94133	-55
1.94500	-59
1.94867	-64
1.95233	-57
1.95600	15
1.95967	470
1.96333	2819
1.96700	12048
1.97067	39569
1.97433	102613
1.97800	214493
1.98167	371308
1.98533	549294
1.98900	716897
1.99267	846459
1.99633	918873
2.00000	924912
2.00367	867183
2.00733	760399
2.01100	627407
2.01467	491375
2.01833	369268
2.02200	269493
2.02567	193290
2.02933	137762
2.03300	98548
2.03667	71381
2.04033	52735
2.04400	39951
2.04767	31130
2.05133	24967
2.05500	20588
2.05867	17409
2.06233	15042
2.06600	13233
2.06967	11812
2.07333	10668
2.07700	9727
2.08067	8943
2.08433	8281
2.08800	7712
2.09167	7218
2.09533	6790
2.09900	6414
2.10267	6075
2.10633	5765
2.11000	5477
2.11367	5209
2.11733	4965
2.12100	4744
2.12467	4545
2.12833	4364
2.13200	4202
2.13567	4051
2.13933	3907
2.14300	3770
2.14667	3641
2.15033	3519
2.15400	3402
2.15767	3290
2.16133	3185
2.16500	3087
2.16867	2994
2.17233	2904
2.17600	2816
2.17967	2730
2.18333	2652
2.18700	2580
2.19067	2514
2.19433	2454
2.19800	2395
2.20167	2337
2.20533	2280
2.20900	2225
2.21267	2177
2.21633	2135
2.22000	2094
2.22367	2052
2.22733	2009
2.23100	1963
2.23467	1918
2.23833	1877
2.24200	1838
2.24567	1802
2.24933	1765
2.25300	1728
2.25667	1690
2.26033	1654
2.26400	1620
2.26767	1591
2.27133	1566
2.27500	1545
2.27867	1525
2.28233	1508
2.28600	1490
2.28967	1468
2.29333	1443
2.29700	1415
2.30067	1387
2.30433	1363
2.30800	1341
2.31167	1315
2.31533	1291
2.31900	1270
2.32267	1253
2.32633	1237
2.33000	1220
2.33367	1202
2.33733	1185
2.34100	1169
2.34467	1155
2.34833	1141
2.35200	1127
2.35567	1112
2.35933	1097
2.36300	1083
2.36667	1068
2.37033	1052
2.37400	1036
2.37767	1022
2.38133	1011
2.38500	998
2.38867	981
2.39233	963
2.39600	947
2.39967	936
2.40333	932
2.40700	932
2.41067	933
2.41433	930
2.41800	924
2.42167	916
2.42533	904
2.42900	890
2.43267	875
2.43633	864
2.44000	855
2.44367	846
2.44733	839
2.45100	831
2.45467	822
2.45833	812
2.46200	802
2.46567	794
2.46933	790
2.47300	788
2.47667	784
2.48033	778
2.48400	768
2.48767	754
2.49133	741
2.49500	731
2.49867	726
2.50233	723
2.50600	717
2.50967	711
2.51333	709
2.51700	710
2.52067	710
2.52433	707
2.52800	701
2.53167	696
2.53533	692
2.53900	685
2.54267	677
2.54633	670
2.55000	666
2.55367	660
2.55733	654
2.56100	649
2.56467	648
2.56833	647
2.57200	646
2.57567	643
2.57933	639
2.58300	634
2.58667	627
2.59033	620
2.59400	612
2.59767	602
2.60133	593
2.60500	585
2.60867	577
2.61233	572
2.61600	568
2.61967	567
2.62333	565
2.62700	566
2.63067	570
2.63433	571
2.63800	569
2.64167	566
2.64533	560
2.64900	556
2.65267	554
2.65633	556
2.66000	562
2.66367	566
2.66733	562
2.67100	553
2.67467	540
2.67833	527
2.68200	517
2.68567	511
2.68933	510
2.69300	512
2.69667	517
2.70033	521
2.70400	521
2.70767	516
2.71133	511
2.71500	509
2.71867	506
2.72233	499
2.72600	495
2.72967	492
2.73333	492
2.73700	493
2.74067	491
2.74433	488
2.74800	487
2.75167	489
2.75533	491
2.75900	493
2.76267	496
2.76633	495
2.77000	489
2.77367	481
2.77733	474
2.78100	468
2.78467	462
2.78833	459
2.79200	458
2.79567	459
2.79933	458
2.80300	457
2.80667	454
2.81033	451
2.81400	445
2.81767	440
2.82133	438
2.82500	439
2.82867	443
2.83233	445
2.83600	445
2.83967	442
2.84333	441
2.84700	441
2.85067	442
2.85433	446
2.85800	452
2.86167	458
2.86533	456
2.86900	449
2.87267	439
2.87633	432
2.88000	427
2.88367	422
2.88733	417
2.89100	412
2.89467	407
2.89833	404
2.90200	408
2.90567	412
2.90933	415
2.91300	418
2.91667	418
2.92033	416
2.92400	411
2.92767	406
2.93133	404
2.93500	403
2.93867	403
2.94233	406
2.94600	406
2.94967	405
2.95333	404
2.95700	402
2.96067	400
2.96433	402
2.96800	405
2.97167	405
2.97533	406
2.97900	406
2.98267	406
2.98633	404
2.99000	398
2.99367	391
2.99733	386
3.00100	380
3.00467	376
3.00833	372
3.01200	369
3.01567	370
3.01933	373
3.02300	377
3.02667	383
3.03033	389
3.03400	391
3.03767	389
3.04133	386
3.04500	380
3.04867	374
3.05233	367
3.05600	361
3.05967	355
3.06333	353
3.06700	352
3.07067	352
3.07433	350
3.07800	348
3.08167	344
3.08533	342
3.08900	344
3.09267	349
3.09633	353
3.10000	353
3.10367	353
3.10733	354
3.11100	356
3.11467	360
3.11833	360
3.12200	357
3.12567	354
3.12933	348
3.13300	339
3.13667	331
3.14033	326
3.14400	324
3.14767	323
3.15133	328
3.15500	334
3.15867	337
3.16233	336
3.16600	332
3.16967	327
3.17333	322
3.17700	317
3.18067	314
3.18433	313
3.18800	313
3.19167	312
3.19533	312
3.19900	312
3.20267	311
3.20633	311
3.21000	312
3.21367	310
3.21733	305
3.22100	304
3.22467	310
3.22833	314
3.23200	315
3.23567	318
3.23933	323
3.24300	325
3.24667	325
3.25033	325
3.25400	324
3.25767	323
3.26133	322
3.26500	320
3.26867	314
3.27233	307
3.27600	302
3.27967	301
3.28333	303
3.28700	304
3.29067	304
3.29433	302
3.29800	302
3.30167	304
3.30533	305
3.30900	303
3.31267	305
3.31633	307
3.32000	306
3.32367	301
3.32733	296
3.33100	295
3.33467	295
3.33833	296
3.34200	295
3.34567	294
3.34933	293
3.35300	294
3.35667	295
3.36033	294
3.36400	295
3.36767	295
3.37133	291
3.37500	286
3.37867	277
3.38233	270
3.38600	275
3.38967	291
3.39333	299
3.39700	304
3.40067	304
3.40433	302
3.40800	298
3.41167	296
3.41533	295
3.41900	294
3.42267	289
3.42633	279
3.43000	271
3.43367	266
3.43733	265
3.44100	269
3.44467	272
3.44833	272
3.45200	268
3.45567	265
3.45933	266
3.46300	270
3.46667	275
3.47033	280
3.47400	283
3.47767	284
3.48133	286
3.48500	285
3.48867	283
3.49233	280
3.49600	276
3.49967	271
3.50333	265
3.50700	259
3.51067	256
3.51433	255
3.51800	255
3.52167	255
3.52533	261
3.52900	269
3.53267	277
3.53633	280
3.54000	276
3.54367	267
3.54733	255
3.55100	248
3.55467	246
3.55833	246
3.56200	247
3.56567	246
3.56933	245
3.57300	244
3.57667	243
3.58033	245
3.58400	248
3.58767	252
3.59133	256
3.59500	260
3.59867	263
3.60233	264
3.60600	261
3.60967	257
3.61333	252
3.61700	250
3.62067	251
3.62433	251
3.62800	251
3.63167	251
3.63533	251
3.63900	252
3.64267	254
3.64633	251
3.65000	245
3.65367	241
3.65733	240
3.66100	244
3.66467	245
3.66833	244
3.67200	243
3.67567	245
3.67933	247
3.68300	249
3.68667	250
3.69033	254
3.69400	256
3.69767	252
3.70133	244
3.70500	236
3.70867	231
3.71233	230
3.71600	228
3.71967	227
3.72333	226
3.72700	225
3.73067	224
3.73433	230
3.73800	238
3.74167	242
3.74533	241
3.74900	239
3.75267	236
3.75633	233
3.76000	230
3.76367	227
3.76733	223
3.77100	223
3.77467	227
3.77833	233
3.78200	237
3.78567	235
3.78933	227
3.79300	219
3.79667	213
3.80033	209
3.80400	208
3.80767	209
3.81133	212
3.81500	214
3.81867	217
3.82233	219
3.82600	223
3.82967	225
3.83333	228
3.83700	233
3.84067	234
3.84433	230
3.84800	227
3.85167	225
3.85533	224
3.85900	223
3.86267	225
3.86633	226
3.87000	226
3.87367	223
3.87733	220
3.88100	214
3.88467	208
3.88833	203
3.89200	200
3.89567	197
3.89933	194
3.90300	191
3.90667	189
3.91033	191
3.91400	195
3.91767	199
3.92133	202
3.92500	203
3.92867	201
3.93233	198
3.93600	197
3.93967	193
3.94333	191
3.94700	194
3.95067	202
3.95433	210
3.95800	216
3.96167	220
3.96533	223
3.96900	223
3.97267	217
3.97633	208
3.98000	199
3.98367	196
3.98733	198
3.99100	204
3.99467	208
3.99833	207

[Chromatogram (Ch2)]
Interval(msec)	220
# of Points	1091
Start Time(min)	0.002
End Time(min)	3.998
R.Time (min)	Intensity
0.00167	-0
0.00533	-0
0.00900	0
0.01267	0
0.01633	1
0.02000	1
0.02367	0
0.02733	0
0.03100	-0
0.03467	-0
0.03833	-0
0.04200	-0
0.04567	-0
0.04933	-0
0.05300	-0
0.05667	-0
0.06033	-0
0.06400	-0
0.06767	-0
0.07133	-0
0.07500	-0
0.07867	-1
0.08233	-1
0.08600	-1
0.08967	-1
0.09333	-1
0.09700	-1
0.10067	-1
0.10433	-1
0.10800	-1
0.11167	-1
0.11533	-1
0.11900	-1
0.12267	-1
0.12633	-1
0.13000	-1
0.13367	-1
0.13733	-1
0.14100	-1
0.14467	-2
0.14833	-2
0.15200	-2
0.15567	-2
0.15933	-2
0.16300	-2
0.16667	-3
0.17033	-3
0.17400	-3
0.17767	-3
0.18133	-3
0.18500	-3
0.18867	-3
0.19233	-3
0.19600	-3
0.19967	-3
0.20333	-3
0.20700	-3
0.21067	-3
0.21433	-3
0.21800	-3
0.22167	-3
0.22533	-4
0.22900	-4
0.23267	-4
0.23633	-4
0.24000	-4
0.24367	-4
0.24733	-4
0.25100	-4
0.25467	-4
0.25833	-4
0.26200	-4
0.26567	-4
0.26933	-5
0.27300	-5
0.27667	-5
0.28033	-5
0.28400	-5
0.28767	-5
0.29133	-5
0.29500	-5
0.29867	-5
0.30233	-5
0.30600	-5
0.30967	-5
0.31333	-5
0.31700	-5
0.32067	-5
0.32433	-6
0.32800	-6
0.33167	-6
0.33533	-6
0.33900	-6
0.34267	-6
0.34633	-6
0.35000	-7
0.35367	-7
0.35733	-7
0.36100	-7
0.36467	-7
0.36833	-7
0.37200	-7
0.37567	-7
0.37933	-7
0.38300	-7
0.38667	-7
0.39033	-7
0.39400	-7
0.39767	-7
0.40133	-7
0.40500	-7
0.40867	-7
0.41233	-7
0.41600	-7
0.41967	-7
0.42333	-7
0.42700	-8
0.43067	-8
0.43433	-8
0.43800	-8
0.44167	-8
0.44533	-8
0.44900	-8
0.45267	-8
0.45633	-8
0.46000	-8
0.46367	-8
0.46733	-8
0.47100	-8
0.47467	-8
0.47833	-8
0.48200	-8
0.48567	-8
0.48933	-8
0.49300	-8
0.49667	-8
0.50033	-8
0.50400	-9
0.50767	-9
0.51133	-9
0.51500	-9
0.51867	-9
0.52233	-9
0.52600	-9
0.52967	-9
0.53333	-8
0.53700	-8
0.54067	-9
0.54433	-9
0.54800	-9
0.55167	-9
0.55533	-9
0.55900	-10
0.56267	-10
0.56633	-10
0.57000	-10
0.57367	-10
0.57733	-10
0.58100	-10
0.58467	-10
0.58833	-11
0.59200	-11
0.59567	-11
0.59933	-12
0.60300	-12
0.60667	-12
0.61033	-12
0.61400	-12
0.61767	-12
0.62133	-13
0.62500	-13
0.62867	-12
0.63233	-12
0.63600	-12
0.63967	-12
0.64333	-12
0.64700	-12
0.65067	-12
0.65433	-12
0.65800	-11
0.66167	-11
0.66533	-11
0.66900	-11
0.67267	-11
0.67633	-12
0.68000	-12
0.68367	-12
0.68733	-12
0.69100	-12
0.69467	-12
0.69833	-12
0.70200	-11
0.70567	-11
0.70933	-11
0.71300	-11
0.71667	-11
0.72033	-11
0.72400	-11
0.72767	-11
0.73133	-11
0.73500	-11
0.73867	-12
0.74233	-11
0.74600	-11
0.74967	-11
0.75333	-11
0.75700	-12
0.76067	-12
0.76433	-12
0.76800	-12
0.77167	-12
0.77533	-12
0.77900	-12
0.78267	-12
0.78633	-12
0.79000	-12
0.79367	-12
0.79733	-12
0.80100	-12
0.80467	-13
0.80833	-13
0.81200	-13
0.81567	-13
0.81933	-13
0.82300	-13
0.82667	-13
0.83033	-13
0.83400	-14
0.83767	-14
0.84133	-14
0.84500	-14
0.84867	-14
0.85233	-14
0.85600	-14
0.85967	-14
0.86333	-14
0.86700	-14
0.87067	-14
0.87433	-14
0.87800	-14
0.88167	-15
0.88533	-15
0.88900	-15
0.89267	-15
0.89633	-15
0.90000	-15
0.90367	-15
0.90733	-15
0.91100	-15
0.91467	-15
0.91833	-15
0.92200	-15
0.92567	-15
0.92933	-16
0.93300	-16
0.93667	-16
0.94033	-16
0.94400	-16
0.94767	-15
0.95133	-15
0.95500	-15
0.95867	-15
0.96233	-15
0.96600	-15
0.96967	-15
0.97333	-16
0.97700	-16
0.98067	-16
0.98433	-16
0.98800	-17
0.99167	-17
0.99533	-18
0.99900	-18
1.00267	-18
1.00633	-18
1.01000	-19
1.01367	-19
1.01733	-19
1.02100	-19
1.02467	-19
1.02833	-19
1.03200	-18
1.03567	-18
1.03933	-18
1.04300	-18
1.04667	-18
1.05033	-18
1.05400	-18
1.05767	-18
1.06133	-18
1.06500	-17
1.06867	-17
1.07233	-17
1.07600	-17
1.07967	-16
1.08333	-16
1.08700	-16
1.09067	-16
1.09433	-16
1.09800	-16
1.10167	-16
1.10533	-16
1.10900	-16
1.11267	-16
1.11633	-16
1.12000	-16
1.12367	-16
1.12733	-16
1.13100	-16
1.13467	-16
1.13833	-16
1.14200	-16
1.14567	-16
1.14933	-16
1.15300	-17
1.15667	-17
1.16033	-17
1.16400	-17
1.16767	-17
1.17133	-17
1.17500	-17
1.17867	-16
1.18233	-16
1.18600	-16
1.18967	-16
1.19333	-16
1.19700	-16
1.20067	-16
1.20433	-16
1.20800	-16
1.21167	-16
1.21533	-16
1.21900	-16
1.22267	-16
1.22633	-17
1.23000	-17
1.23367	-17
1.23733	-17
1.24100	-17
1.24467	-17
1.24833	-17
1.25200	-18
1.25567	-18
1.25933	-18
1.26300	-18
1.26667	-19
1.27033	-19
1.27400	-19
1.27767	-19
1.28133	-19
1.28500	-19
1.28867	-20
1.29233	-19
1.29600	-19
1.29967	-19
1.30333	-19
1.30700	-19
1.31067	-18
1.31433	-18
1.31800	-18
1.32167	-18
1.32533	-19
1.32900	-19
1.33267	-19
1.33633	-19
1.34000	-19
1.34367	-20
1.34733	-20
1.35100	-20
1.35467	-20
1.35833	-20
1.36200	-20
1.36567	-20
1.36933	-20
1.37300	-20
1.37667	-20
1.38033	-21
1.38400	-21
1.38767	-21
1.39133	-21
1.39500	-21
1.39867	-21
1.40233	-21
1.40600	-21
1.40967	-21
1.41333	-20
1.41700	-20
1.42067	-20
1.42433	-20
1.42800	-20
1.43167	-21
1.43533	-21
1.43900	-21
1.44267	-21
1.44633	-21
1.45000	-21
1.45367	-21
1.45733	-21
1.46100	-21
1.46467	-21
1.46833	-21
1.47200	-21
1.47567	-22
1.47933	-22
1.48300	-22
1.48667	-21
1.49033	-21
1.49400	-21
1.49767	-21
1.50133	-21
1.50500	-21
1.50867	-21
1.51233	-21
1.51600	-22
1.51967	-22
1.52333	-22
1.52700	-22
1.53067	-22
1.53433	-22
1.53800	-22
1.54167	-22
1.54533	-22
1.54900	-22
1.55267	-22
1.55633	-22
1.56000	-22
1.56367	-22
1.56733	-22
1.57100	-21
1.57467	-21
1.57833	-21
1.58200	-21
1.58567	-22
1.58933	-22
1.59300	-23
1.59667	-24
1.60033	-25
1.60400	-26
1.60767	-27
1.61133	-28
1.61500	-30
1.61867	-32
1.62233	-35
1.62600	-37
1.62967	-40
1.63333	-43
1.63700	-47
1.64067	-50
1.64433	-54
1.64800	-58
1.65167	-62
1.65533	-65
1.65900	-69
1.66267	-73
1.66633	-77
1.67000	-81
1.67367	-86
1.67733	-91
1.68100	-96
1.68467	-100
1.68833	-105
1.69200	-109
1.69567	-113
1.69933	-116
1.70300	-119
1.70667	-121
1.71033	-123
1.71400	-124
1.71767	-125
1.72133	-126
1.72500	-126
1.72867	-127
1.73233	-127
1.73600	-127
1.73967	-128
1.74333	-128
1.74700	-128
1.75067	-127
1.75433	-127
1.75800	-127
1.76167	-127
1.76533	-128
1.76900	-129
1.77267	-130
1.77633	-131
1.78000	-133
1.78367	-134
1.78733	-135
1.79100	-136
1.79467	-137
1.79833	-138
1.80200	-138
1.80567	-139
1.80933	-139
1.81300	-140
1.81667	-140
1.82033	-140
1.82400	-140
1.82767	-140
1.83133	-140
1.83500	-140
1.83867	-140
1.84233	-141
1.84600	-141
1.84967	-142
1.85333	-141
1.85700	-141
1.86067	-140
1.86433	-140
1.86800	-139
1.87167	-139
1.87533	-138
1.87900	-138
1.88267	-137
1.88633	-137
1.89000	-137
1.89367	-137
1.89733	-137
1.90100	-137
1.90467	-137
1.90833	-137
1.91200	-137
1.91567	-137
1.91933	-137
1.92300	-137
1.92667	-136
1.93033	-136
1.93400	-137
1.93767	-137
1.94133	-137
1.94500	-136
1.94867	-136
1.95233	-136
1.95600	-135
1.95967	-135
1.96333	-135
1.96700	-135
1.97067	-135
1.97433	-135
1.97800	-135
1.98167	-134
1.98533	-134
1.98900	-133
1.99267	-133
1.99633	-132
2.00000	-132
2.00367	-132
2.00733	-132
2.01100	-133
2.01467	-133
2.01833	-133
2.02200	-133
2.02567	-133
2.02933	-133
2.03300	-133
2.03667	-132
2.04033	-132
2.04400	-132
2.04767	-132
2.05133	-132
2.05500	-132
2.05867	-132
2.06233	-131
2.06600	-131
2.06967	-131
2.07333	-130
2.07700	-130
2.08067	-130
2.08433	-129
2.08800	-129
2.09167	-129
2.09533	-128
2.09900	-128
2.10267	-127
2.10633	-126
2.11000	-126
2.11367	-125
2.11733	-125
2.12100	-125
2.12467	-125
2.12833	-125
2.13200	-124
2.13567	-124
2.13933	-124
2.14300	-124
2.14667	-124
2.15033	-123
2.15400	-123
2.15767	-123
2.16133	-123
2.16500	-122
2.16867	-121
2.17233	-121
2.17600	-120
2.17967	-120
2.18333	-119
2.18700	-119
2.19067	-119
2.19433	-118
2.19800	-118
2.20167	-118
2.20533	-118
2.20900	-117
2.21267	-117
2.21633	-116
2.22000	-116
2.22367	-115
2.22733	-115
2.23100	-115
2.23467	-115
2.23833	-115
2.24200	-115
2.24567	-115
2.24933	-115
2.25300	-115
2.25667	-115
2.26033	-115
2.26400	-114
2.26767	-114
2.27133	-114
2.27500	-114
2.27867	-114
2.28233	-113
2.28600	-112
2.28967	-111
2.29333	-111
2.29700	-110
2.30067	-110
2.30433	-109
2.30800	-109
2.31167	-109
2.31533	-108
2.31900	-108
2.32267	-108
2.32633	-108
2.33000	-109
2.33367	-109
2.33733	-109
2.34100	-109
2.34467	-108
2.34833	-107
2.35200	-106
2.35567	-105
2.35933	-103
2.36300	-102
2.36667	-101
2.37033	-99
2.37400	-98
2.37767	-95
2.38133	-93
2.38500	-90
2.38867	-87
2.39233	-83
2.39600	-80
2.39967	-76
2.40333	-73
2.40700	-69
2.41067	-65
2.41433	-61
2.41800	-57
2.42167	-53
2.42533	-50
2.42900	-47
2.43267	-45
2.43633	-43
2.44000	-41
2.44367	-39
2.44733	-37
2.45100	-36
2.45467	-34
2.45833	-32
2.46200	-31
2.46567	-30
2.46933	-29
2.47300	-28
2.47667	-27
2.48033	-26
2.48400	-25
2.48767	-25
2.49133	-24
2.49500	-23
2.49867	-23
2.50233	-22
2.50600	-21
2.50967	-20
2.51333	-20
2.51700	-19
2.52067	-18
2.52433	-18
2.52800	-18
2.53167	-18
2.53533	-17
2.53900	-17
2.54267	-16
2.54633	-16
2.55000	-15
2.55367	-15
2.55733	-15
2.56100	-15
2.56467	-14
2.56833	-14
2.57200	-14
2.57567	-13
2.57933	-13
2.58300	-12
2.58667	-13
2.59033	-13
2.59400	-13
2.59767	-13
2.60133	-14
2.60500	-14
2.60867	-13
2.61233	-13
2.61600	-12
2.61967	-11
2.62333	-10
2.62700	-10
2.63067	-10
2.63433	-9
2.63800	-9
2.64167	-9
2.64533	-9
2.64900	-9
2.65267	-9
2.65633	-9
2.66000	-9
2.66367	-9
2.66733	-8
2.67100	-8
2.67467	-8
2.67833	-9
2.68200	-9
2.68567	-9
2.68933	-9
2.69300	-9
2.69667	-9
2.70033	-8
2.70400	-8
2.70767	-7
2.71133	-7
2.71500	-6
2.71867	-6
2.72233	-5
2.72600	-5
2.72967	-4
2.73333	-4
2.73700	-3
2.74067	-3
2.74433	-3
2.74800	-4
2.75167	-5
2.75533	-5
2.75900	-5
2.76267	-6
2.76633	-6
2.77000	-6
2.77367	-6
2.77733	-7
2.78100	-7
2.78467	-7
2.78833	-6
2.79200	-6
2.79567	-6
2.79933	-6
2.80300	-6
2.80667	-6
2.81033	-6
2.81400	-6
2.81767	-6
2.82133	-5
2.82500	-5
2.82867	-5
2.83233	-4
2.83600	-4
2.83967	-4
2.84333	-4
2.84700	-5
2.85067	-7
2.85433	-10
2.85800	-14
2.86167	-22
2.86533	-33
2.86900	-47
2.87267	-66
2.87633	-90
2.88000	-119
2.88367	-154
2.88733	-193
2.89100	-238
2.89467	-287
2.89833	-341
2.90200	-400
2.90567	-463
2.90933	-530
2.91300	-600
2.91667	-673
2.92033	-749
2.92400	-828
2.92767	-909
2.93133	-992
2.93500	-1077
2.93867	-1164
2.94233	-1253
2.94600	-1343
2.94967	-1430
2.95333	-1502
2.95700	-1548
2.96067	-1559
2.96433	-1535
2.96800	-1479
2.97167	-1399
2.97533	-1301
2.97900	-1195
2.98267	-1084
2.98633	-974
2.99000	-869
2.99367	-770
2.99733	-679
3.00100	-596
3.00467	-521
3.00833	-455
3.01200	-396
3.01567	-345
3.01933	-300
3.02300	-261
3.02667	-227
3.03033	-198
3.03400	-173
3.03767	-151
3.04133	-133
3.04500	-117
3.04867	-104
3.05233	-93
3.05600	-83
3.05967	-74
3.06333	-67
3.06700	-61
3.07067	-55
3.07433	-50
3.07800	-46
3.08167	-43
3.08533	-40
3.08900	-37
3.09267	-35
3.09633	-33
3.10000	-31
3.10367	-29
3.10733	-28
3.11100	-26
3.11467	-25
3.11833	-25
3.12200	-24
3.12567	-23
3.12933	-23
3.13300	-22
3.13667	-22
3.14033	-21
3.14400	-21
3.14767	-20
3.15133	-20
3.15500	-20
3.15867	-19
3.16233	-19
3.16600	-19
3.16967	-19
3.17333	-18
3.17700	-18
3.18067	-18
3.18433	-18
3.18800	-18
3.19167	-17
3.19533	-17
3.19900	-17
3.20267	-17
3.20633	-17
3.21000	-16
3.21367	-16
3.21733	-15
3.22100	-15
3.22467	-15
3.22833	-14
3.23200	-14
3.23567	-13
3.23933	-13
3.24300	-13
3.24667	-12
3.25033	-12
3.25400	-12
3.25767	-11
3.26133	-11
3.26500	-11
3.26867	-11
3.27233	-11
3.27600	-10
3.27967	-10
3.28333	-10
3.28700	-10
3.29067	-9
3.29433	-9
3.29800	-9
3.30167	-9
3.30533	-9
3.30900	-9
3.31267	-9
3.31633	-10
3.32000	-9
3.32367	-9
3.32733	-10
3.33100	-10
3.33467	-10
3.33833	-10
3.34200	-10
3.34567	-10
3.34933	-10
3.35300	-10
3.35667	-10
3.36033	-10
3.36400	-10
3.36767	-10
3.37133	-10
3.37500	-10
3.37867	-11
3.38233	-10
3.38600	-10
3.38967	-10
3.39333	-10
3.39700	-10
3.40067	-9
3.40433	-9
3.40800	-9
3.41167	-9
3.41533	-9
3.41900	-9
3.42267	-9
3.42633	-9
3.43000	-9
3.43367	-9
3.43733	-9
3.44100	-9
3.44467	-9
3.44833	-9
3.45200	-9
3.45567	-9
3.45933	-9
3.46300	-9
3.46667	-9
3.47033	-9
3.47400	-9
3.47767	-9
3.48133	-9
3.48500	-9
3.48867	-9
3.49233	-9
3.49600	-9
3.49967	-9
3.50333	-10
3.50700	-10
3.51067	-10
3.51433	-9
3.51800	-9
3.52167	-9
3.52533	-9
3.52900	-9
3.53267	-9
3.53633	-9
3.54000	-9
3.54367	-9
3.54733	-9
3.55100	-9
3.55467	-9
3.55833	-10
3.56200	-10
3.56567	-10
3.56933	-10
3.57300	-10
3.57667	-10
3.58033	-10
3.58400	-10
3.58767	-10
3.59133	-9
3.59500	-9
3.59867	-9
3.60233	-9
3.60600	-9
3.60967	-9
3.61333	-9
3.61700	-9
3.62067	-9
3.62433	-9
3.62800	-9
3.63167	-9
3.63533	-10
3.63900	-10
3.64267	-10
3.64633	-10
3.65000	-10
3.65367	-10
3.65733	-10
3.66100	-10
3.66467	-9
3.66833	-9
3.67200	-10
3.67567	-10
3.67933	-9
3.68300	-9
3.68667	-9
3.69033	-9
3.69400	-9
3.69767	-9
3.70133	-10
3.70500	-10
3.70867	-10
3.71233	-10
3.71600	-10
3.71967	-10
3.72333	-10
3.72700	-10
3.73067	-10
3.73433	-10
3.73800	-10
3.74167	-11
3.74533	-11
3.74900	-11
3.75267	-11
3.75633	-11
3.76000	-11
3.76367	-11
3.76733	-10
3.77100	-10
3.77467	-11
3.77833	-11
3.78200	-11
3.78567	-11
3.78933	-11
3.79300	-11
3.79667	-11
3.80033	-11
3.80400	-11
3.80767	-11
3.81133	-11
3.81500	-11
3.81867	-11
3.82233	-11
3.82600	-11
3.82967	-11
3.83333	-11
3.83700	-11
3.84067	-11
3.84433	-11
3.84800	-11
3.85167	-11
3.85533	-11
3.85900	-11
3.86267	-12
3.86633	-12
3.87000	-12
3.87367	-12
3.87733	-12
3.88100	-12
3.88467	-12
3.88833	-12
3.89200	-12
3.89567	-12
3.89933	-12
3.90300	-12
3.90667	-11
3.91033	-11
3.91400	-11
3.91767	-11
3.92133	-11
3.92500	-11
3.92867	-12
3.93233	-12
3.93600	-12
3.93967	-11
3.94333	-11
3.94700	-11
3.95067	-11
3.95433	-11
3.95800	-11
3.96167	-12
3.96533	-12
3.96900	-12
3.97267	-12
3.97633	-12
3.98000	-12
3.98367	-13
3.98733	-13
3.99100	-13
3.99467	-13
3.99833	-13

[Chromatogram (Ch3)]
Interval(msec)	220
# of Points	1091
Start Time(min)	0.002
End Time(min)	3.998
R.Time (min)	Intensity
0.00167	-0
0.00533	-2
0.00900	-2
0.01267	-3
0.01633	-3
0.02000	-3
0.02367	-3
0.02733	-2
0.03100	-0
0.03467	3
0.03833	6
0.04200	7
0.04567	4
0.04933	0
0.05300	-1
0.05667	-1
0.06033	-1
0.06400	-1
0.06767	-3
0.07133	-3
0.07500	-3
0.07867	-4
0.08233	-4
0.08600	-5
0.08967	-6
0.09333	-4
0.09700	-3
0.10067	-3
0.10433	-3
0.10800	-2
0.11167	-3
0.11533	-4
0.11900	-4
0.12267	-2
0.12633	-2
0.13000	-4
0.13367	-6
0.13733	-5
0.14100	-2
0.14467	-1
0.14833	-3
0.15200	-5
0.15567	-5
0.15933	-3
0.16300	-4
0.16667	-6
0.17033	-5
0.17400	-4
0.17767	-4
0.18133	-4
0.18500	-2
0.18867	1
0.19233	1
0.19600	-2
0.19967	-2
0.20333	-3
0.20700	-4
0.21067	-6
0.21433	-4
0.21800	-1
0.22167	1
0.22533	1
0.22900	1
0.23267	-1
0.23633	-1
0.24000	-4
0.24367	-7
0.24733	-7
0.25100	-7
0.25467	-8
0.25833	-9
0.26200	-9
0.26567	-7
0.26933	-7
0.27300	-9
0.27667	-8
0.28033	-8
0.28400	-7
0.28767	-6
0.29133	-6
0.29500	-6
0.29867	-6
0.30233	-7
0.30600	-7
0.30967	-6
0.31333	-4
0.31700	-4
0.32067	-5
0.32433	-7
0.32800	-8
0.33167	-10
0.33533	-10
0.33900	-10
0.34267	-8
0.34633	-6
0.35000	-4
0.35367	-4
0.35733	-4
0.36100	-3
0.36467	-5
0.36833	-5
0.37200	-4
0.37567	-1
0.37933	-2
0.38300	-4
0.38667	-6
0.39033	-7
0.39400	-5
0.39767	-5
0.40133	-4
0.40500	-5
0.40867	-7
0.41233	-10
0.41600	-12
0.41967	-13
0.42333	-14
0.42700	-14
0.43067	-12
0.43433	-11
0.43800	-11
0.44167	-11
0.44533	-13
0.44900	-12
0.45267	-12
0.45633	-12
0.46000	-13
0.46367	-13
0.46733	-11
0.47100	-11
0.47467	-10
0.47833	-11
0.48200	-8
0.48567	-7
0.48933	-8
0.49300	-10
0.49667	-10
0.50033	-7
0.50400	-5
0.50767	-3
0.51133	-4
0.51500	-4
0.51867	-5
0.52233	-5
0.52600	-4
0.52967	-4
0.53333	-3
0.53700	-3
0.54067	-5
0.54433	-4
0.54800	-4
0.55167	-2
0.55533	-2
0.55900	-4
0.56267	-6
0.56633	-8
0.57000	-10
0.57367	-11
0.57733	-11
0.58100	-13
0.58467	-13
0.58833	-14
0.59200	-13
0.59567	-11
0.59933	-10
0.60300	-8
0.60667	-9
0.61033	-13
0.61400	-14
0.61767	-13
0.62133	-12
0.62500	-9
0.62867	-7
0.63233	-9
0.63600	-10
0.63967	-9
0.64333	-11
0.64700	-12
0.65067	-14
0.65433	-16
0.65800	-18
0.66167	-20
0.66533	-20
0.66900	-19
0.67267	-17
0.67633	-16
0.68000	-16
0.68367	-19
0.68733	-22
0.69100	-24
0.69467	-24
0.69833	-24
0.70200	-23
0.70567	-21
0.70933	-19
0.71300	-16
0.71667	-12
0.72033	-8
0.72400	-9
0.72767	-13
0.73133	-18
0.73500	-18
0.73867	-18
0.74233	-19
0.74600	-19
0.74967	-17
0.75333	-14
0.75700	-13
0.76067	-14
0.76433	-17
0.76800	-17
0.77167	-17
0.77533	-15
0.77900	-15
0.78267	-18
0.78633	-20
0.79000	-20
0.79367	-20
0.79733	-20
0.80100	-19
0.80467	-17
0.80833	-17
0.81200	-19
0.81567	-21
0.81933	-21
0.82300	-22
0.82667	-22
0.83033	-23
0.83400	-23
0.83767	-22
0.84133	-18
0.84500	-14
0.84867	-13
0.85233	-14
0.85600	-16
0.85967	-18
0.86333	-20
0.86700	-21
0.87067	-22
0.87433	-21
0.87800	-19
0.88167	-17
0.88533	-17
0.88900	-19
0.89267	-21
0.89633	-23
0.90000	-24
0.90367	-22
0.90733	-23
0.91100	-24
0.91467	-25
0.91833	-25
0.92200	-27
0.92567	-27
0.92933	-27
0.93300	-25
0.93667	-22
0.94033	-21
0.94400	-21
0.94767	-18
0.95133	-13
0.95500	-13
0.95867	-14
0.96233	-15
0.96600	-17
0.96967	-20
0.97333	-20
0.97700	-21
0.98067	-22
0.98433	-22
0.98800	-22
0.99167	-21
0.99533	-21
0.99900	-19
1.00267	-17
1.00633	-16
1.01000	-16
1.01367	-18
1.01733	-20
1.02100	-20
1.02467	-21
1.02833	-21
1.03200	-20
1.03567	-19
1.03933	-18
1.04300	-18
1.04667	-18
1.05033	-20
1.05400	-21
1.05767	-22
1.06133	-23
1.06500	-24
1.06867	-23
1.07233	-24
1.07600	-23
1.07967	-22
1.08333	-21
1.08700	-22
1.09067	-20
1.09433	-18
1.09800	-16
1.10167	-18
1.10533	-21
1.10900	-22
1.11267	-19
1.11633	-16
1.12000	-16
1.12367	-16
1.12733	-15
1.13100	-16
1.13467	-16
1.13833	-15
1.14200	-16
1.14567	-16
1.14933	-16
1.15300	-14
1.15667	-14
1.16033	-15
1.16400	-17
1.16767	-18
1.17133	-18
1.17500	-19
1.17867	-20
1.18233	-21
1.18600	-18
1.18967	-16
1.19333	-15
1.19700	-17
1.20067	-18
1.20433	-19
1.20800	-18
1.21167	-15
1.21533	-11
1.21900	-12
1.22267	-15
1.22633	-16
1.23000	-17
1.23367	-17
1.23733	-17
1.24100	-17
1.24467	-18
1.24833	-18
1.25200	-18
1.25567	-19
1.25933	-19
1.26300	-18
1.26667	-17
1.27033	-17
1.27400	-20
1.27767	-23
1.28133	-25
1.28500	-24
1.28867	-23
1.29233	-22
1.29600	-20
1.29967	-20
1.30333	-23
1.30700	-24
1.31067	-27
1.31433	-28
1.31800	-29
1.32167	-28
1.32533	-26
1.32900	-23
1.33267	-21
1.33633	-22
1.34000	-20
1.34367	-20
1.34733	-23
1.35100	-26
1.35467	-25
1.35833	-25
1.36200	-21
1.36567	-18
1.36933	-16
1.37300	-17
1.37667	-18
1.38033	-18
1.38400	-18
1.38767	-19
1.39133	-22
1.39500	-24
1.39867	-24
1.40233	-23
1.40600	-23
1.40967	-23
1.41333	-20
1.41700	-20
1.42067	-23
1.42433	-25
1.42800	-26
1.43167	-23
1.43533	-22
1.43900	-25
1.44267	-26
1.44633	-25
1.45000	-24
1.45367	-22
1.45733	-21
1.46100	-22
1.46467	-22
1.46833	-21
1.47200	-21
1.47567	-22
1.47933	-24
1.48300	-25
1.48667	-24
1.49033	-22
1.49400	-21
1.49767	-19
1.50133	-19
1.50500	-20
1.50867	-23
1.51233	-24
1.51600	-25
1.51967	-25
1.52333	-26
1.52700	-27
1.53067	-27
1.53433	-27
1.53800	-26
1.54167	-24
1.54533	-23
1.54900	-22
1.55267	-22
1.55633	-21
1.56000	-21
1.56367	-22
1.56733	-24
1.57100	-25
1.57467	-27
1.57833	-27
1.58200	-27
1.58567	-27
1.58933	-26
1.59300	-25
1.59667	-25
1.60033	-25
1.60400	-23
1.60767	-22
1.61133	-22
1.61500	-20
1.61867	-19
1.62233	-20
1.62600	-20
1.62967	-21
1.63333	-21
1.63700	-16
1.64067	-13
1.64433	-13
1.64800	-13
1.65167	-14
1.65533	-12
1.65900	-11
1.66267	-10
1.66633	-12
1.67000	-13
1.67367	-13
1.67733	-12
1.68100	-9
1.68467	-5
1.68833	-4
1.69200	-3
1.69567	-3
1.69933	-3
1.70300	-2
1.70667	-2
1.71033	-2
1.71400	-2
1.71767	-4
1.72133	-3
1.72500	-5
1.72867	-7
1.73233	-7
1.73600	-8
1.73967	-9
1.74333	-8
1.74700	-6
1.75067	-4
1.75433	-4
1.75800	-3
1.76167	-1
1.76533	-2
1.76900	-3
1.77267	-0
1.77633	1
1.78000	-2
1.78367	-2
1.78733	1
1.79100	4
1.79467	7
1.79833	11
1.80200	13
1.80567	12
1.80933	10
1.81300	11
1.81667	11
1.82033	11
1.82400	12
1.82767	12
1.83133	13
1.83500	14
1.83867	11
1.84233	7
1.84600	5
1.84967	6
1.85333	6
1.85700	7
1.86067	10
1.86433	12
1.86800	12
1.87167	14
1.87533	15
1.87900	18
1.88267	20
1.88633	21
1.89000	20
1.89367	20
1.89733	20
1.90100	22
1.90467	23
1.90833	25
1.91200	26
1.91567	27
1.91933	28
1.92300	27
1.92667	27
1.93033	26
1.93400	28
1.93767	28
1.94133	28
1.94500	28
1.94867	28
1.95233	29
1.95600	30
1.95967	29
1.96333	30
1.96700	30
1.97067	32
1.97433	36
1.97800	38
1.98167	37
1.98533	36
1.98900	34
1.99267	33
1.99633	35
2.00000	37
2.00367	39
2.00733	41
2.01100	45
2.01467	48
2.01833	51
2.02200	53
2.02567	52
2.02933	48
2.03300	45
2.03667	46
2.04033	49
2.04400	52
2.04767	54
2.05133	55
2.05500	56
2.05867	55
2.06233	56
2.06600	59
2.06967	60
2.07333	59
2.07700	59
2.08067	58
2.08433	58
2.08800	57
2.09167	55
2.09533	56
2.09900	59
2.10267	63
2.10633	68
2.11000	72
2.11367	76
2.11733	79
2.12100	80
2.12467	79
2.12833	78
2.13200	76
2.13567	74
2.13933	73
2.14300	73
2.14667	74
2.15033	76
2.15400	77
2.15767	81
2.16133	85
2.16500	84
2.16867	82
2.17233	82
2.17600	84
2.17967	86
2.18333	86
2.18700	85
2.19067	85
2.19433	84
2.19800	84
2.20167	86
2.20533	89
2.20900	91
2.21267	92
2.21633	92
2.22000	93
2.22367	96
2.22733	99
2.23100	101
2.23467	102
2.23833	102
2.24200	104
2.24567	105
2.24933	107
2.25300	106
2.25667	105
2.26033	106
2.26400	109
2.26767	111
2.27133	113
2.27500	117
2.27867	118
2.28233	117
2.28600	119
2.28967	122
2.29333	124
2.29700	123
2.30067	124
2.30433	124
2.30800	123
2.31167	124
2.31533	127
2.31900	128
2.32267	128
2.32633	126
2.33000	125
2.33367	126
2.33733	131
2.34100	135
2.34467	138
2.34833	139
2.35200	137
2.35567	134
2.35933	133
2.36300	135
2.36667	140
2.37033	143
2.37400	146
2.37767	145
2.38133	143
2.38500	142
2.38867	145
2.39233	149
2.39600	149
2.39967	149
2.40333	152
2.40700	152
2.41067	150
2.41433	150
2.41800	152
2.42167	154
2.42533	158
2.42900	160
2.43267	159
2.43633	158
2.44000	163
2.44367	190
2.44733	256
2.45100	330
2.45467	382
2.45833	401
2.46200	403
2.46567	404
2.46933	400
2.47300	386
2.47667	364
2.48033	336
2.48400	307
2.48767	286
2.49133	276
2.49500	272
2.49867	272
2.50233	276
2.50600	278
2.50967	277
2.51333	270
2.51700	258
2.52067	242
2.52433	226
2.52800	210
2.53167	193
2.53533	180
2.53900	171
2.54267	163
2.54633	159
2.55000	154
2.55367	152
2.55733	156
2.56100	161
2.56467	167
2.56833	171
2.57200	177
2.57567	184
2.57933	192
2.58300	202
2.58667	211
2.59033	220
2.59400	227
2.59767	230
2.60133	226
2.60500	212
2.60867	189
2.61233	158
2.61600	119
2.61967	74
2.62333	25
2.62700	-24
2.63067	-68
2.63433	-109
2.63800	-146
2.64167	-174
2.64533	-193
2.64900	-204
2.65267	-211
2.65633	-212
2.66000	-210
2.66367	-208
2.66733	-200
2.67100	-189
2.67467	-178
2.67833	-170
2.68200	-161
2.68567	-149
2.68933	-137
2.69300	-124
2.69667	-110
2.70033	-96
2.70400	-82
2.70767	-72
2.71133	-64
2.71500	-55
2.71867	-47
2.72233	-38
2.72600	-30
2.72967	-21
2.73333	-11
2.73700	-0
2.74067	10
2.74433	18
2.74800	26
2.75167	34
2.75533	44
2.75900	55
2.76267	64
2.76633	70
2.77000	77
2.77367	82
2.77733	86
2.78100	90
2.78467	95
2.78833	97
2.79200	100
2.79567	103
2.79933	105
2.80300	105
2.80667	102
2.81033	101
2.81400	101
2.81767	102
2.82133	103
2.82500	111
2.82867	140
2.83233	212
2.83600	369
2.83967	673
2.84333	1198
2.84700	2010
2.85067	3147
2.85433	4609
2.85800	6342
2.86167	8247
2.86533	10189
2.86900	12014
2.87267	13577
2.87633	14762
2.88000	15504
2.88367	15790
2.88733	15646
2.89100	15141
2.89467	14363
2.89833	13402
2.90200	12338
2.90567	11233
2.90933	10133
2.91300	9074
2.91667	8077
2.92033	7154
2.92400	6311
2.92767	5548
2.93133	4866
2.93500	4263
2.93867	3727
2.94233	3253
2.94600	2836
2.94967	2473
2.95333	2157
2.95700	1880
2.96067	1640
2.96433	1433
2.96800	1251
2.97167	1092
2.97533	957
2.97900	840
2.98267	739
2.98633	651
2.99000	576
2.99367	513
2.99733	458
3.00100	409
3.00467	370
3.00833	336
3.01200	308
3.01567	283
3.01933	261
3.02300	242
3.02667	228
3.03033	216
3.03400	206
3.03767	200
3.04133	193
3.04500	186
3.04867	179
3.05233	170
3.05600	162
3.05967	155
3.06333	153
3.06700	154
3.07067	156
3.07433	154
3.07800	153
3.08167	154
3.08533	154
3.08900	155
3.09267	155
3.09633	155
3.10000	156
3.10367	159
3.10733	161
3.11100	163
3.11467	163
3.11833	163
3.12200	164
3.12567	165
3.12933	167
3.13300	168
3.13667	170
3.14033	172
3.14400	175
3.14767	178
3.15133	179
3.15500	179
3.15867	180
3.16233	181
3.16600	180
3.16967	179
3.17333	179
3.17700	177
3.18067	179
3.18433	182
3.18800	186
3.19167	188
3.19533	188
3.19900	189
3.20267	190
3.20633	191
3.21000	193
3.21367	193
3.21733	193
3.22100	190
3.22467	188
3.22833	187
3.23200	187
3.23567	189
3.23933	193
3.24300	203
3.24667	216
3.25033	229
3.25400	243
3.25767	259
3.26133	278
3.26500	296
3.26867	312
3.27233	327
3.27600	343
3.27967	360
3.28333	373
3.28700	385
3.29067	399
3.29433	414
3.29800	428
3.30167	439
3.30533	447
3.30900	458
3.31267	470
3.31633	481
3.32000	489
3.32367	494
3.32733	499
3.33100	503
3.33467	506
3.33833	508
3.34200	508
3.34567	509
3.34933	510
3.35300	510
3.35667	510
3.36033	509
3.36400	508
3.36767	506
3.37133	506
3.37500	508
3.37867	510
3.38233	512
3.38600	514
3.38967	513
3.39333	509
3.39700	507
3.40067	504
3.40433	503
3.40800	503
3.41167	504
3.41533	504
3.41900	508
3.42267	511
3.42633	512
3.43000	512
3.43367	508
3.43733	504
3.44100	500
3.44467	498
3.44833	498
3.45200	499
3.45567	500
3.45933	500
3.46300	500
3.46667	500
3.47033	500
3.47400	501
3.47767	500
3.48133	499
3.48500	498
3.48867	494
3.49233	493
3.49600	496
3.49967	500
3.50333	502
3.50700	501
3.51067	498
3.51433	494
3.51800	491
3.52167	489
3.52533	485
3.52900	483
3.53267	483
3.53633	479
3.54000	476
3.54367	477
3.54733	477
3.55100	477
3.55467	477
3.55833	475
3.56200	472
3.56567	470
3.56933	467
3.57300	464
3.57667	463
3.58033	463
3.58400	463
3.58767	462
3.59133	462
3.59500	459
3.59867	455
3.60233	454
3.60600	452
3.60967	451
3.61333	451
3.61700	448
3.62067	446
3.62433	445
3.62800	446
3.63167	448
3.63533	449
3.63900	451
3.64267	450
3.64633	446
3.65000	442
3.65367	442
3.65733	443
3.66100	443
3.66467	440
3.66833	436
3.67200	436
3.67567	436
3.67933	436
3.68300	434
3.68667	434
3.69033	434
3.69400	434
3.69767	433
3.70133	431
3.70500	430
3.70867	428
3.71233	427
3.71600	427
3.71967	425
3.72333	423
3.72700	421
3.73067	418
3.73433	417
3.73800	416
3.74167	415
3.74533	415
3.74900	415
3.75267	415
3.75633	416
3.76000	418
3.76367	419
3.76733	414
3.77100	412
3.77467	410
3.77833	408
3.78200	407
3.78567	406
3.78933	408
3.79300	410
3.79667	410
3.80033	411
3.80400	408
3.80767	404
3.81133	401
3.81500	398
3.81867	398
3.82233	398
3.82600	399
3.82967	401
3.83333	401
3.83700	402
3.84067	401
3.84433	400
3.84800	400
3.85167	398
3.85533	396
3.85900	394
3.86267	395
3.86633	397
3.87000	397
3.87367	395
3.87733	396
3.88100	398
3.88467	397
3.88833	397
3.89200	396
3.89567	393
3.89933	393
3.90300	396
3.90667	397
3.91033	396
3.91400	395
3.91767	395
3.92133	392
3.92500	390
3.92867	388
3.93233	387
3.93600	386
3.93967	384
3.94333	380
3.94700	377
3.95067	377
3.95433	377
3.95800	378
3.96167	381
3.96533	383
3.96900	383
3.97267	382
3.97633	381
3.98000	380
3.98367	378
3.98733	376
3.99100	375
3.99467	374
3.99833	370

[Status Trace (Column Oven Temperature)]
Interval(msec)	1000
# of Points	240
Start Time(min)	0.016
End Time(min)	3.999
Intensity Units	
Intensity Multiplier	1
R.Time (min)	Intensity
0.01552	35.02
0.03218	35.01
0.04885	35.00
0.06552	35.01
0.08218	35.01
0.09885	35.01
0.11552	35.01
0.13218	35.00
0.14885	35.00
0.16552	34.99
0.18218	34.99
0.19885	34.99
0.21552	34.98
0.23218	34.98
0.24885	34.98
0.26552	34.99
0.28218	34.99
0.29885	34.98
0.31552	34.99
0.33218	34.99
0.34885	35.00
0.36552	34.99
0.38218	34.99
0.39885	34.99
0.41552	34.99
0.43218	34.99
0.44885	34.99
0.46552	34.99
0.48218	34.98
0.49885	34.99
0.51552	34.99
0.53218	34.99
0.54885	34.99
0.56552	34.98
0.58218	34.98
0.59885	35.00
0.61552	35.00
0.63218	35.00
0.64885	35.00
0.66552	34.99
0.68218	35.00
0.69885	35.00
0.71552	35.01
0.73218	35.01
0.74885	34.99
0.76552	34.99
0.78218	34.98
0.79885	34.98
0.81552	34.98
0.83218	34.98
0.84885	34.99
0.86552	34.99
0.88218	34.99
0.89885	34.98
0.91552	34.99
0.93218	34.98
0.94885	34.99
0.96552	35.00
0.98218	35.01
0.99885	35.02
1.01552	35.03
1.03218	35.02
1.04885	35.02
1.06552	35.01
1.08218	35.02
1.09885	35.02
1.11552	35.01
1.13218	35.00
1.14885	35.00
1.16552	35.00
1.18218	34.99
1.19885	34.99
1.21552	34.99
1.23218	34.98
1.24885	34.98
1.26552	34.98
1.28218	34.99
1.29885	34.99
1.31552	34.98
1.33218	34.99
1.34885	34.99
1.36552	34.99
1.38218	34.99
1.39885	34.99
1.41552	34.99
1.43218	34.99
1.44885	35.00
1.46552	35.00
1.48218	35.00
1.49885	35.01
1.51552	35.00
1.53218	34.99
1.54885	34.99
1.56552	34.99
1.58218	34.99
1.59885	35.02
1.61552	35.11
1.63218	35.26
1.64885	35.49
1.66552	35.77
1.68218	36.15
1.69885	36.52
1.71552	36.86
1.73218	37.18
1.74885	37.47
1.76552	37.80
1.78218	38.15
1.79885	38.49
1.81552	38.83
1.83218	39.15
1.84885	39.50
1.86552	39.82
1.88218	40.14
1.89885	40.47
1.91552	40.79
1.93218	41.13
1.94885	41.44
1.96552	41.78
1.98218	42.10
1.99885	42.42
2.01552	42.76
2.03218	43.08
2.04885	43.41
2.06552	43.73
2.08218	44.07
2.09885	44.39
2.11552	44.71
2.13218	45.04
2.14885	45.37
2.16552	45.70
2.18218	46.02
2.19885	46.37
2.21552	46.67
2.23218	46.99
2.24885	47.31
2.26552	47.64
2.28218	47.97
2.29885	48.31
2.31552	48.64
2.33218	48.98
2.34885	49.28
2.36552	49.54
2.38218	49.67
2.39885	49.70
2.41552	49.68
2.43218	49.68
2.44885	49.69
2.46552	49.69
2.48218	49.71
2.49885	49.73
2.51552	49.74
2.53218	49.77
2.54885	49.78
2.56552	49.79
2.58218	49.81
2.59885	49.83
2.61552	49.82
2.63218	49.84
2.64885	49.84
2.66552	49.85
2.68218	49.87
2.69885	49.87
2.71552	49.85
2.73218	49.84
2.74885	49.86
2.76552	49.88
2.78218	49.89
2.79885	49.90
2.81552	49.89
2.83218	49.89
2.84885	49.89
2.86552	49.90
2.88218	49.91
2.89885	49.92
2.91552	49.94
2.93218	49.95
2.94885	49.96
2.96552	49.97
2.98218	49.99
2.99885	50.00
3.01552	50.02
3.03218	50.03
3.04885	50.04
3.06552	50.05
3.08218	50.06
3.09885	50.06
3.11552	50.06
3.13218	50.07
3.14885	50.07
3.16552	50.08
3.18218	50.09
3.19885	50.10
3.21552	50.11
3.23218	50.10
3.24885	50.08
3.26552	50.08
3.28218	50.07
3.29885	50.05
3.31552	50.05
3.33218	50.06
3.34885	50.07
3.36552	50.07
3.38218	50.08
3.39885	50.08
3.41552	50.08
3.43218	50.07
3.44885	50.07
3.46552	50.07
3.48218	50.08
3.49885	50.08
3.51552	50.07
3.53218	50.07
3.54885	50.07
3.56552	50.08
3.58218	50.08
3.59885	50.07
3.61552	50.07
3.63218	50.07
3.64885	50.07
3.66552	50.07
3.68218	50.06
3.69885	50.06
3.71552	50.06
3.73218	50.06
3.74885	50.06
3.76552	50.07
3.78218	50.07
3.79885	50.07
3.81552	50.07
3.83218	50.07
3.84885	50.07
3.86552	50.08
3.88218	50.07
3.89885	50.07
3.91552	50.07
3.93218	50.06
3.94885	50.05
3.96552	50.06
3.98218	50.06
3.99885	50.06

[Status Trace (Injection Unit Temperature)]
Interval(msec)	1000
# of Points	240
Start Time(min)	0.016
End Time(min)	3.999
Intensity Units	
Intensity Multiplier	1
R.Time (min)	Intensity
0.01552	100.00
0.03218	100.00
0.04885	100.00
0.06552	100.00
0.08218	100.00
0.09885	100.00
0.11552	100.00
0.13218	100.00
0.14885	100.00
0.16552	100.00
0.18218	100.00
0.19885	100.00
0.21552	100.00
0.23218	100.00
0.24885	100.00
0.26552	100.00
0.28218	100.00
0.29885	100.00
0.31552	100.00
0.33218	99.99
0.34885	100.00
0.36552	99.99
0.38218	99.99
0.39885	99.99
0.41552	99.99
0.43218	99.99
0.44885	99.99
0.46552	99.99
0.48218	99.99
0.49885	99.99
0.51552	99.99
0.53218	99.99
0.54885	99.99
0.56552	99.99
0.58218	99.99
0.59885	99.99
0.61552	99.99
0.63218	99.99
0.64885	99.99
0.66552	99.99
0.68218	99.99
0.69885	99.99
0.71552	99.99
0.73218	99.99
0.74885	99.98
0.76552	99.99
0.78218	99.98
0.79885	99.99
0.81552	99.99
0.83218	99.99
0.84885	99.99
0.86552	99.99
0.88218	99.98
0.89885	99.99
0.91552	99.99
0.93218	99.99
0.94885	99.99
0.96552	99.99
0.98218	99.99
0.99885	99.99
1.01552	99.99
1.03218	99.99
1.04885	99.99
1.06552	99.99
1.08218	99.99
1.09885	99.99
1.11552	99.99
1.13218	99.99
1.14885	99.99
1.16552	99.99
1.18218	99.99
1.19885	99.99
1.21552	99.99
1.23218	99.99
1.24885	99.99
1.26552	99.99
1.28218	99.99
1.29885	99.99
1.31552	99.99
1.33218	99.99
1.34885	100.00
1.36552	99.99
1.38218	100.00
1.39885	99.99
1.41552	99.99
1.43218	99.99
1.44885	99.99
1.46552	99.99
1.48218	99.99
1.49885	99.99
1.51552	99.99
1.53218	100.00
1.54885	100.00
1.56552	100.00
1.58218	100.00
1.59885	100.00
1.61552	99.99
1.63218	99.99
1.64885	99.99
1.66552	99.99
1.68218	100.00
1.69885	99.99
1.71552	99.99
1.73218	100.00
1.74885	100.00
1.76552	99.99
1.78218	99.99
1.79885	99.99
1.81552	99.99
1.83218	99.99
1.84885	99.99
1.86552	99.99
1.88218	99.99
1.89885	99.99
1.91552	99.98
1.93218	99.98
1.94885	99.98
1.96552	99.98
1.98218	99.98
1.99885	99.98
2.01552	99.98
2.03218	99.98
2.04885	99.98
2.06552	99.98
2.08218	99.98
2.09885	99.98
2.11552	99.98
2.13218	99.98
2.14885	99.98
2.16552	99.98
2.18218	99.97
2.19885	99.98
2.21552	99.98
2.23218	99.98
2.24885	99.98
2.26552	99.98
2.28218	99.97
2.29885	99.98
2.31552	99.97
2.33218	99.97
2.34885	99.97
2.36552	99.97
2.38218	99.97
2.39885	99.97
2.41552	99.97
2.43218	99.97
2.44885	99.97
2.46552	99.97
2.48218	99.98
2.49885	99.97
2.51552	99.97
2.53218	99.97
2.54885	99.98
2.56552	99.98
2.58218	99.97
2.59885	99.98
2.61552	99.98
2.63218	99.98
2.64885	99.98
2.66552	99.98
2.68218	99.98
2.69885	99.99
2.71552	99.98
2.73218	99.99
2.74885	99.99
2.76552	99.99
2.78218	100.00
2.79885	99.99
2.81552	99.99
2.83218	100.00
2.84885	100.00
2.86552	100.00
2.88218	100.00
2.89885	100.01
2.91552	100.00
2.93218	100.01
2.94885	100.01
2.96552	100.01
2.98218	100.01
2.99885	100.01
3.01552	100.01
3.03218	100.02
3.04885	100.02
3.06552	100.02
3.08218	100.02
3.09885	100.02
3.11552	100.02
3.13218	100.02
3.14885	100.03
3.16552	100.03
3.18218	100.03
3.19885	100.03
3.21552	100.03
3.23218	100.03
3.24885	100.04
3.26552	100.04
3.28218	100.04
3.29885	100.04
3.31552	100.04
3.33218	100.04
3.34885	100.04
3.36552	100.04
3.38218	100.04
3.39885	100.05
3.41552	100.05
3.43218	100.05
3.44885	100.05
3.46552	100.05
3.48218	100.05
3.49885	100.05
3.51552	100.05
3.53218	100.06
3.54885	100.05
3.56552	100.05
3.58218	100.05
3.59885	100.06
3.61552	100.06
3.63218	100.06
3.64885	100.06
3.66552	100.06
3.68218	100.06
3.69885	100.06
3.71552	100.06
3.73218	100.06
3.74885	100.06
3.76552	100.06
3.78218	100.06
3.79885	100.05
3.81552	100.05
3.83218	100.06
3.84885	100.05
3.86552	100.05
3.88218	100.06
3.89885	100.05
3.91552	100.06
3.93218	100.05
3.94885	100.05
3.96552	100.06
3.98218	100.06
3.99885	100.05

[Status Trace (Carrier Gas Pressure)]
Interval(msec)	1000
# of Points	240
Start Time(min)	0.016
End Time(min)	3.999
Intensity Units	
Intensity Multiplier	1
R.Time (min)	Intensity
0.01552	57.13
0.03218	55.78
0.04885	58.23
0.06552	59.88
0.08218	58.47
0.09885	57.98
0.11552	58.00
0.13218	58.01
0.14885	58.01
0.16552	58.00
0.18218	58.00
0.19885	58.00
0.21552	58.00
0.23218	58.00
0.24885	58.00
0.26552	58.00
0.28218	58.00
0.29885	58.00
0.31552	58.00
0.33218	58.00
0.34885	58.00
0.36552	58.00
0.38218	58.00
0.39885	58.00
0.41552	58.00
0.43218	58.00
0.44885	58.00
0.46552	58.00
0.48218	58.00
0.49885	58.00
0.51552	58.00
0.53218	58.00
0.54885	58.00
0.56552	58.00
0.58218	58.00
0.59885	58.00
0.61552	58.00
0.63218	58.00
0.64885	58.00
0.66552	58.00
0.68218	58.00
0.69885	58.00
0.71552	58.00
0.73218	58.00
0.74885	58.00
0.76552	58.00
0.78218	58.00
0.79885	58.00
0.81552	58.00
0.83218	58.00
0.84885	58.00
0.86552	58.00
0.88218	58.00
0.89885	58.00
0.91552	58.00
0.93218	58.00
0.94885	58.00
0.96552	58.00
0.98218	58.00
0.99885	58.00
1.01552	58.00
1.03218	58.00
1.04885	58.00
1.06552	58.00
1.08218	58.00
1.09885	58.00
1.11552	58.00
1.13218	58.00
1.14885	58.00
1.16552	58.00
1.18218	58.00
1.19885	58.00
1.21552	58.00
1.23218	58.00
1.24885	58.00
1.26552	58.00
1.28218	58.00
1.29885	58.00
1.31552	58.00
1.33218	58.00
1.34885	58.00
1.36552	58.00
1.38218	58.00
1.39885	58.00
1.41552	58.00
1.43218	58.00
1.44885	58.00
1.46552	58.00
1.48218	58.00
1.49885	58.00
1.51552	58.00
1.53218	58.00
1.54885	58.00
1.56552	58.00
1.58218	58.00
1.59885	58.00
1.61552	58.00
1.63218	58.00
1.64885	58.01
1.66552	58.00
1.68218	58.01
1.69885	58.00
1.71552	58.00
1.73218	58.00
1.74885	58.00
1.76552	58.00
1.78218	58.00
1.79885	58.00
1.81552	58.00
1.83218	58.00
1.84885	58.00
1.86552	58.00
1.88218	58.00
1.89885	58.00
1.91552	58.00
1.93218	58.00
1.94885	58.00
1.96552	58.00
1.98218	58.00
1.99885	58.00
2.01552	58.00
2.03218	58.00
2.04885	58.00
2.06552	58.00
2.08218	58.00
2.09885	58.00
2.11552	58.00
2.13218	58.00
2.14885	58.00
2.16552	58.00
2.18218	58.00
2.19885	58.00
2.21552	58.00
2.23218	58.00
2.24885	58.00
2.26552	58.00
2.28218	58.00
2.29885	58.00
2.31552	58.00
2.33218	58.00
2.34885	58.00
2.36552	58.00
2.38218	57.99
2.39885	57.99
2.41552	57.99
2.43218	58.00
2.44885	58.00
2.46552	58.00
2.48218	58.00
2.49885	58.00
2.51552	57.98
2.53218	57.99
2.54885	58.00
2.56552	58.00
2.58218	58.00
2.59885	58.00
2.61552	58.00
2.63218	58.00
2.64885	58.00
2.66552	58.00
2.68218	58.00
2.69885	58.00
2.71552	58.00
2.73218	58.00
2.74885	58.00
2.76552	58.00
2.78218	58.00
2.79885	58.00
2.81552	58.00
2.83218	58.00
2.84885	58.00
2.86552	58.00
2.88218	58.00
2.89885	58.00
2.91552	58.00
2.93218	58.00
2.94885	58.00
2.96552	58.00
2.98218	58.00
2.99885	58.00
3.01552	58.00
3.03218	58.00
3.04885	58.00
3.06552	58.00
3.08218	58.00
3.09885	58.00
3.11552	58.00
3.13218	58.00
3.14885	58.00
3.16552	58.00
3.18218	58.00
3.19885	58.00
3.21552	58.00
3.23218	58.00
3.24885	58.00
3.26552	58.00
3.28218	58.00
3.29885	58.00
3.31552	58.00
3.33218	58.00
3.34885	58.00
3.36552	58.00
3.38218	58.00
3.39885	58.00
3.41552	58.00
3.43218	58.00
3.44885	58.00
3.46552	58.00
3.48218	58.00
3.49885	58.00
3.51552	58.00
3.53218	58.00
3.54885	58.00
3.56552	58.00
3.58218	58.00
3.59885	58.00
3.61552	58.00
3.63218	58.00
3.64885	58.00
3.66552	58.00
3.68218	58.00
3.69885	58.00
3.71552	58.00
3.73218	58.00
3.74885	58.00
3.76552	58.00
3.78218	58.00
3.79885	58.00
3.81552	58.00
3.83218	58.00
3.84885	58.00
3.86552	58.00
3.88218	58.00
3.89885	58.00
3.91552	58.00
3.93218	58.00
3.94885	58.00
3.96552	58.00
3.98218	58.00
3.99885	58.00

[Status Trace (Carrier Gas Flow)]
Interval(msec)	1000
# of Points	240
Start Time(min)	0.016
End Time(min)	3.999
Intensity Units	
Intensity Multiplier	1
R.Time (min)	Intensity
0.01552	33.81
0.03218	34.53
0.04885	34.55
0.06552	34.51
0.08218	34.50
0.09885	34.52
0.11552	34.52
0.13218	34.52
0.14885	34.52
0.16552	34.52
0.18218	34.52
0.19885	34.52
0.21552	34.52
0.23218	34.52
0.24885	34.52
0.26552	34.52
0.28218	34.52
0.29885	34.52
0.31552	34.52
0.33218	34.52
0.34885	34.52
0.36552	34.52
0.38218	34.52
0.39885	34.52
0.41552	34.52
0.43218	34.52
0.44885	34.52
0.46552	34.52
0.48218	34.52
0.49885	34.52
0.51552	34.52
0.53218	34.52
0.54885	34.52
0.56552	34.52
0.58218	34.52
0.59885	34.52
0.61552	34.52
0.63218	34.52
0.64885	34.52
0.66552	34.51
0.68218	34.53
0.69885	34.51
0.71552	34.52
0.73218	34.52
0.74885	34.52
0.76552	34.52
0.78218	34.52
0.79885	34.52
0.81552	34.52
0.83218	34.52
0.84885	34.52
0.86552	34.52
0.88218	34.52
0.89885	34.52
0.91552	34.52
0.93218	34.52
0.94885	34.52
0.96552	34.52
0.98218	34.52
0.99885	34.52
1.01552	34.52
1.03218	34.52
1.04885	34.52
1.06552	34.52
1.08218	34.52
1.09885	34.52
1.11552	34.52
1.13218	34.52
1.14885	34.52
1.16552	34.52
1.18218	34.52
1.19885	34.52
1.21552	34.52
1.23218	34.52
1.24885	34.52
1.26552	34.52
1.28218	34.52
1.29885	34.52
1.31552	34.51
1.33218	34.52
1.34885	34.51
1.36552	34.53
1.38218	34.52
1.39885	34.52
1.41552	34.52
1.43218	34.52
1.44885	34.52
1.46552	34.52
1.48218	34.52
1.49885	34.52
1.51552	34.52
1.53218	34.52
1.54885	34.52
1.56552	34.52
1.58218	34.52
1.59885	34.52
1.61552	34.52
1.63218	34.52
1.64885	34.52
1.66552	34.52
1.68218	34.52
1.69885	34.52
1.71552	34.52
1.73218	34.52
1.74885	34.52
1.76552	34.52
1.78218	34.52
1.79885	34.52
1.81552	34.52
1.83218	34.52
1.84885	34.52
1.86552	34.52
1.88218	34.52
1.89885	34.52
1.91552	34.52
1.93218	34.52
1.94885	34.52
1.96552	34.52
1.98218	34.52
1.99885	34.52
2.01552	34.52
2.03218	34.52
2.04885	34.52
2.06552	34.52
2.08218	34.52
2.09885	34.52
2.11552	34.52
2.13218	34.52
2.14885	34.52
2.16552	34.52
2.18218	34.52
2.19885	34.52
2.21552	34.52
2.23218	34.52
2.24885	34.52
2.26552	34.52
2.28218	34.52
2.29885	34.52
2.31552	34.52
2.33218	34.52
2.34885	34.52
2.36552	34.52
2.38218	34.52
2.39885	34.52
2.41552	34.52
2.43218	34.52
2.44885	34.52
2.46552	34.52
2.48218	34.52
2.49885	34.52
2.51552	34.52
2.53218	34.52
2.54885	34.52
2.56552	34.52
2.58218	34.52
2.59885	34.52
2.61552	34.52
2.63218	34.52
2.64885	34.52
2.66552	34.52
2.68218	34.52
2.69885	34.52
2.71552	34.52
2.73218	34.52
2.74885	34.52
2.76552	34.52
2.78218	34.52
2.79885	34.51
2.81552	34.51
2.83218	34.52
2.84885	34.52
2.86552	34.52
2.88218	34.52
2.89885	34.52
2.91552	34.52
2.93218	34.52
2.94885	34.52
2.96552	34.52
2.98218	34.52
2.99885	34.52
3.01552	34.52
3.03218	34.52
3.04885	34.52
3.06552	34.52
3.08218	34.52
3.09885	34.52
3.11552	34.52
3.13218	34.52
3.14885	34.52
3.16552	34.52
3.18218	34.52
3.19885	34.52
3.21552	34.52
3.23218	34.52
3.24885	34.52
3.26552	34.52
3.28218	34.52
3.29885	34.52
3.31552	34.52
3.33218	34.52
3.34885	34.52
3.36552	34.52
3.38218	34.53
3.39885	34.52
3.41552	34.52
3.43218	34.52
3.44885	34.52
3.46552	34.52
3.48218	34.52
3.49885	34.52
3.51552	34.52
3.53218	34.52
3.54885	34.52
3.56552	34.52
3.58218	34.52
3.59885	34.52
3.61552	34.52
3.63218	34.52
3.64885	34.52
3.66552	34.52
3.68218	34.52
3.69885	34.52
3.71552	34.52
3.73218	34.52
3.74885	34.52
3.76552	34.52
3.78218	34.52
3.79885	34.52
3.81552	34.52
3.83218	34.52
3.84885	34.52
3.86552	34.52
3.88218	34.52
3.89885	34.52
3.91552	34.52
3.93218	34.51
3.94885	34.53
3.96552	34.52
3.98218	34.52
3.99885	34.51

[Status Trace (Column Flow)]
Interval(msec)	1000
# of Points	240
Start Time(min)	0.016
End Time(min)	3.999
Intensity Units	
Intensity Multiplier	1
R.Time (min)	Intensity
0.01552	5.35
0.03218	5.19
0.04885	5.47
0.06552	5.67
0.08218	5.50
0.09885	5.44
0.11552	5.45
0.13218	5.45
0.14885	5.45
0.16552	5.45
0.18218	5.45
0.19885	5.45
0.21552	5.45
0.23218	5.45
0.24885	5.45
0.26552	5.45
0.28218	5.45
0.29885	5.45
0.31552	5.45
0.33218	5.45
0.34885	5.45
0.36552	5.45
0.38218	5.45
0.39885	5.45
0.41552	5.45
0.43218	5.45
0.44885	5.45
0.46552	5.45
0.48218	5.45
0.49885	5.45
0.51552	5.45
0.53218	5.45
0.54885	5.45
0.56552	5.45
0.58218	5.45
0.59885	5.45
0.61552	5.45
0.63218	5.45
0.64885	5.45
0.66552	5.45
0.68218	5.45
0.69885	5.45
0.71552	5.45
0.73218	5.45
0.74885	5.45
0.76552	5.45
0.78218	5.45
0.79885	5.45
0.81552	5.45
0.83218	5.45
0.84885	5.45
0.86552	5.45
0.88218	5.45
0.89885	5.45
0.91552	5.45
0.93218	5.45
0.94885	5.45
0.96552	5.45
0.98218	5.45
0.99885	5.45
1.01552	5.45
1.03218	5.45
1.04885	5.45
1.06552	5.45
1.08218	5.45
1.09885	5.45
1.11552	5.45
1.13218	5.45
1.14885	5.45
1.16552	5.45
1.18218	5.45
1.19885	5.45
1.21552	5.45
1.23218	5.45
1.24885	5.45
1.26552	5.45
1.28218	5.45
1.29885	5.45
1.31552	5.45
1.33218	5.45
1.34885	5.45
1.36552	5.45
1.38218	5.45
1.39885	5.45
1.41552	5.45
1.43218	5.45
1.44885	5.45
1.46552	5.45
1.48218	5.45
1.49885	5.45
1.51552	5.45
1.53218	5.45
1.54885	5.45
1.56552	5.45
1.58218	5.45
1.59885	5.45
1.61552	5.45
1.63218	5.44
1.64885	5.43
1.66552	5.43
1.68218	5.41
1.69885	5.40
1.71552	5.39
1.73218	5.38
1.74885	5.37
1.76552	5.36
1.78218	5.35
1.79885	5.34
1.81552	5.33
1.83218	5.32
1.84885	5.31
1.86552	5.30
1.88218	5.29
1.89885	5.28
1.91552	5.27
1.93218	5.26
1.94885	5.25
1.96552	5.24
1.98218	5.23
1.99885	5.22
2.01552	5.21
2.03218	5.20
2.04885	5.19
2.06552	5.19
2.08218	5.18
2.09885	5.17
2.11552	5.16
2.13218	5.15
2.14885	5.14
2.16552	5.13
2.18218	5.12
2.19885	5.11
2.21552	5.10
2.23218	5.09
2.24885	5.08
2.26552	5.08
2.28218	5.07
2.29885	5.06
2.31552	5.05
2.33218	5.04
2.34885	5.03
2.36552	5.02
2.38218	5.02
2.39885	5.02
2.41552	5.02
2.43218	5.02
2.44885	5.02
2.46552	5.02
2.48218	5.02
2.49885	5.02
2.51552	5.02
2.53218	5.01
2.54885	5.02
2.56552	5.02
2.58218	5.02
2.59885	5.02
2.61552	5.01
2.63218	5.01
2.64885	5.01
2.66552	5.01
2.68218	5.01
2.69885	5.01
2.71552	5.01
2.73218	5.01
2.74885	5.01
2.76552	5.01
2.78218	5.01
2.79885	5.01
2.81552	5.01
2.83218	5.01
2.84885	5.01
2.86552	5.01
2.88218	5.01
2.89885	5.01
2.91552	5.01
2.93218	5.01
2.94885	5.01
2.96552	5.01
2.98218	5.01
2.99885	5.01
3.01552	5.01
3.03218	5.01
3.04885	5.01
3.06552	5.01
3.08218	5.01
3.09885	5.01
3.11552	5.01
3.13218	5.01
3.14885	5.01
3.16552	5.01
3.18218	5.01
3.19885	5.01
3.21552	5.01
3.23218	5.01
3.24885	5.01
3.26552	5.01
3.28218	5.01
3.29885	5.01
3.31552	5.01
3.33218	5.01
3.34885	5.01
3.36552	5.01
3.38218	5.01
3.39885	5.01
3.41552	5.01
3.43218	5.01
3.44885	5.01
3.46552	5.01
3.48218	5.01
3.49885	5.01
3.51552	5.01
3.53218	5.01
3.54885	5.01
3.56552	5.01
3.58218	5.01
3.59885	5.01
3.61552	5.01
3.63218	5.01
3.64885	5.01
3.66552	5.01
3.68218	5.01
3.69885	5.01
3.71552	5.01
3.73218	5.01
3.74885	5.01
3.76552	5.01
3.78218	5.01
3.79885	5.01
3.81552	5.01
3.83218	5.01
3.84885	5.01
3.86552	5.01
3.88218	5.01
3.89885	5.01
3.91552	5.01
3.93218	5.01
3.94885	5.01
3.96552	5.01
3.98218	5.01
3.99885	5.01

[Status Trace (Linear Velocity)]
Interval(msec)	1000
# of Points	240
Start Time(min)	0.016
End Time(min)	3.999
Intensity Units	
Intensity Multiplier	1
R.Time (min)	Intensity
0.01552	38.43
0.03218	37.54
0.04885	39.15
0.06552	40.23
0.08218	39.30
0.09885	38.98
0.11552	39.00
0.13218	39.01
0.14885	39.00
0.16552	39.00
0.18218	39.00
0.19885	39.00
0.21552	39.00
0.23218	39.00
0.24885	39.00
0.26552	39.00
0.28218	39.00
0.29885	39.00
0.31552	39.00
0.33218	39.00
0.34885	39.00
0.36552	39.00
0.38218	39.00
0.39885	39.00
0.41552	39.00
0.43218	39.00
0.44885	39.00
0.46552	39.00
0.48218	39.00
0.49885	39.00
0.51552	39.00
0.53218	39.00
0.54885	39.00
0.56552	39.00
0.58218	39.00
0.59885	39.00
0.61552	39.00
0.63218	39.00
0.64885	39.00
0.66552	39.00
0.68218	39.00
0.69885	39.00
0.71552	39.00
0.73218	39.00
0.74885	39.00
0.76552	39.00
0.78218	39.00
0.79885	39.00
0.81552	39.00
0.83218	39.00
0.84885	39.00
0.86552	39.00
0.88218	39.00
0.89885	39.00
0.91552	39.00
0.93218	39.00
0.94885	39.00
0.96552	39.00
0.98218	39.00
0.99885	39.00
1.01552	39.00
1.03218	39.00
1.04885	39.00
1.06552	39.00
1.08218	39.00
1.09885	39.00
1.11552	39.00
1.13218	39.00
1.14885	39.00
1.16552	39.00
1.18218	39.00
1.19885	39.00
1.21552	39.00
1.23218	39.00
1.24885	39.00
1.26552	39.00
1.28218	39.00
1.29885	39.00
1.31552	39.00
1.33218	39.00
1.34885	39.00
1.36552	39.00
1.38218	39.00
1.39885	39.00
1.41552	39.00
1.43218	39.00
1.44885	39.00
1.46552	39.00
1.48218	39.00
1.49885	39.00
1.51552	39.00
1.53218	39.00
1.54885	39.00
1.56552	39.00
1.58218	39.00
1.59885	39.00
1.61552	38.99
1.63218	38.98
1.64885	38.96
1.66552	38.93
1.68218	38.89
1.69885	38.85
1.71552	38.82
1.73218	38.79
1.74885	38.76
1.76552	38.74
1.78218	38.70
1.79885	38.67
1.81552	38.64
1.83218	38.60
1.84885	38.57
1.86552	38.54
1.88218	38.51
1.89885	38.48
1.91552	38.45
1.93218	38.42
1.94885	38.39
1.96552	38.36
1.98218	38.33
1.99885	38.30
2.01552	38.27
2.03218	38.24
2.04885	38.21
2.06552	38.18
2.08218	38.15
2.09885	38.12
2.11552	38.09
2.13218	38.06
2.14885	38.03
2.16552	38.00
2.18218	37.97
2.19885	37.94
2.21552	37.91
2.23218	37.88
2.24885	37.86
2.26552	37.83
2.28218	37.80
2.29885	37.77
2.31552	37.74
2.33218	37.71
2.34885	37.68
2.36552	37.66
2.38218	37.64
2.39885	37.64
2.41552	37.64
2.43218	37.64
2.44885	37.64
2.46552	37.64
2.48218	37.64
2.49885	37.64
2.51552	37.63
2.53218	37.63
2.54885	37.64
2.56552	37.63
2.58218	37.63
2.59885	37.63
2.61552	37.63
2.63218	37.63
2.64885	37.63
2.66552	37.63
2.68218	37.63
2.69885	37.63
2.71552	37.63
2.73218	37.63
2.74885	37.63
2.76552	37.63
2.78218	37.63
2.79885	37.62
2.81552	37.62
2.83218	37.63
2.84885	37.63
2.86552	37.62
2.88218	37.62
2.89885	37.62
2.91552	37.62
2.93218	37.62
2.94885	37.62
2.96552	37.62
2.98218	37.62
2.99885	37.62
3.01552	37.61
3.03218	37.61
3.04885	37.61
3.06552	37.61
3.08218	37.61
3.09885	37.61
3.11552	37.61
3.13218	37.61
3.14885	37.61
3.16552	37.61
3.18218	37.61
3.19885	37.61
3.21552	37.61
3.23218	37.61
3.24885	37.61
3.26552	37.61
3.28218	37.61
3.29885	37.61
3.31552	37.61
3.33218	37.61
3.34885	37.61
3.36552	37.61
3.38218	37.61
3.39885	37.61
3.41552	37.61
3.43218	37.61
3.44885	37.61
3.46552	37.61
3.48218	37.61
3.49885	37.61
3.51552	37.61
3.53218	37.61
3.54885	37.61
3.56552	37.61
3.58218	37.61
3.59885	37.61
3.61552	37.61
3.63218	37.61
3.64885	37.61
3.66552	37.61
3.68218	37.61
3.69885	37.61
3.71552	37.61
3.73218	37.61
3.74885	37.61
3.76552	37.61
3.78218	37.61
3.79885	37.61
3.81552	37.61
3.83218	37.61
3.84885	37.61
3.86552	37.61
3.88218	37.61
3.89885	37.61
3.91552	37.61
3.93218	37.61
3.94885	37.61
3.96552	37.61
3.98218	37.61
3.99885	37.61

