[Header]
Application Name	LabSolutions
Version	5.110
Data File Name	C:\Users\User\Desktop\GC Analyses\Jack\UIC Prairie Sampling\10.19.22\221019_063.gcd
Output Date	1/4/2023
Output Time	2:27:24 PM

[File Information]
Type	Data File
Generated	12/7/2022 1:14:40 PM
Generated by	System Administrator
Modified	12/7/2022 1:19:32 PM
Modified by	System Administrator

[Sample Information]
Operator Name	System Administrator
Acquired	12/7/2022 1:15:30 PM
Sample Type	1:Standard
Level	1
Sample Name	221019_UICPrairie
Sample ID	221019_UICPrairie
ISTD Amount1	1
ISTD Amount2	1
ISTD Amount3	1
ISTD Amount4	1
ISTD Amount5	1
ISTD Amount6	1
ISTD Amount7	1
ISTD Amount8	1
ISTD Amount9	1
ISTD Amount10	1
ISTD Amount11	1
ISTD Amount12	1
ISTD Amount13	1
ISTD Amount14	1
ISTD Amount15	1
ISTD Amount16	1
ISTD Amount17	1
ISTD Amount18	1
ISTD Amount19	1
ISTD Amount20	1
ISTD Amount21	1
ISTD Amount22	1
ISTD Amount23	1
ISTD Amount24	1
ISTD Amount25	1
ISTD Amount26	1
ISTD Amount27	1
ISTD Amount28	1
ISTD Amount29	1
ISTD Amount30	1
ISTD Amount31	1
ISTD Amount32	1
Sample Amount	1
Dilution Factor	1
Vial#	1
Injection Volume	1
Injection Count	1
Bar Code	

[Original Files]
Data File	C:\Users\User\Desktop\GC Analyses\Jack\UIC Prairie Sampling\10.19.22\221019_063.gcd
Method File	C:\LabSolutions\Data\GHG_4min_2022\ghg3_togas_w_acet_4 min_new_int.gcm
Batch File	
Report Format File	c:\LabSolutions\System\DEFAULT.lsr

[File Description]


[Configuration]
Instrument Name	C0B7VH3-Instrument1
Instrument #	1
Line #	1
# of Detectors	3
Detector ID	DET#1	DET#2	DET#3
Detector Name	FID	PTCD	ECD
# of Channels	1	1	1

[Peak Table(Ch1)]
# of Peaks	3
Peak#	R.Time	I.Time	F.Time	Area	Height	A/H	Conc.	Mark	ID#	Name	k'	Plate #	Plate Ht.	Tailing	Resolution	Sep.Factor	Area Ratio	Height Ratio	Conc. %	Norm Conc.
1	1.461	1.428	1.531	2870	828	3.466	100.000	   	1	CO	0.000	4405	34.051	0.000	0.000	0.000	0	0	16.667	16.667
2	1.567	1.531	1.659	21367	10651	2.006	100.000	 V 	2	CH4	0.073	11381	13.180	1.210	1.449	0.000	0	0	16.667	16.667
3	1.996	1.949	2.455	2136062	996816	2.143	400.000	   	3	CO2	0.366	16942	8.854	1.244	7.143	5.034	0	0	66.667	66.667

[Peak Table(Ch2)]
# of Peaks	0

[Peak Table(Ch3)]
# of Peaks	5
Peak#	R.Time	I.Time	F.Time	Area	Height	A/H	Conc.	Mark	ID#	Name	k'	Plate #	Plate Ht.	Tailing	Resolution	Sep.Factor	Area Ratio	Height Ratio	Conc. %	Norm Conc.
1	2.469	2.154	2.480	1258	448	2.812	0.000	   			0.000	3613	41.512	0.000	0.000	0.000	0	0	0.000	0.000
2	2.506	2.480	2.524	1226	500	2.451	0.000	 V 			0.015	1322	113.498	0.000	0.167	0.000	0	0	0.000	0.000
3	2.576	2.524	2.653	3186	579	5.505	0.000	 V 			0.043	1703	88.099	0.000	0.265	2.900	0	0	0.000	0.000
4	2.752	2.653	2.803	2650	372	7.118	0.034	 V 	1	N2O	0.114	443	338.438	0.000	0.456	2.655	0	0	3.382	3.382
5	2.880	2.803	3.877	75702	16814	4.502	0.966	 V 	1	N2O	0.166	12223	12.272	1.727	0.409	1.455	0	0	96.618	96.618

[Compound Results(Ch1)]
# of IDs	6
ID#	Name	R.Time	Area	Height	Conc.	Curve	3rd	2nd	1st	Constant	Area Ratio	Height Ratio	Conc. %	Norm Conc.
1	CO	1.461	2870	828	100.000	Linear	0.000000e+00	0.000000e+00	2.869855e+001	0.000000e+00	0	0	16.667	16.667
2	CH4	1.567	21367	10651	100.000	Linear	0.000000e+00	0.000000e+00	2.136699e+002	0.000000e+00	0	0	16.667	16.667
3	CO2	1.996	2136062	996816	400.000	Linear	0.000000e+00	0.000000e+00	5.340155e+003	0.000000e+00	0	0	66.667	66.667
4	Ethylene	0.000	0	0	0.000	Linear	0.000000e+00	0.000000e+00	0.000000e+00	0.000000e+00	0	0	0.000	0.000
5	Acetylene	0.000	0	0	0.000	Linear	0.000000e+00	0.000000e+00	0.000000e+00	0.000000e+00	0	0	0.000	0.000
6	Ethane	0.000	0	0	0.000	Linear	0.000000e+00	0.000000e+00	0.000000e+00	0.000000e+00	0	0	0.000	0.000

[Compound Results(Ch2)]
# of IDs	5
ID#	Name	R.Time	Area	Height	Conc.	Curve	3rd	2nd	1st	Constant	Area Ratio	Height Ratio	Conc. %	Norm Conc.
1	Hydrogen	0.000	0	0	0.000	Linear	0.000000e+00	0.000000e+00	0.000000e+00	0.000000e+00	0	0	0.000	0.000
2	Oxygen	0.000	0	0	0.000	Linear	0.000000e+00	0.000000e+00	0.000000e+00	0.000000e+00	0	0	0.000	0.000
3	Nitrogen	0.000	0	0	0.000	Linear	0.000000e+00	0.000000e+00	0.000000e+00	0.000000e+00	0	0	0.000	0.000
4	Methane	0.000	0	0	0.000	Linear	0.000000e+00	0.000000e+00	0.000000e+00	0.000000e+00	0	0	0.000	0.000
5	Carbon Monoxide	0.000	0	0	0.000	Linear	0.000000e+00	0.000000e+00	0.000000e+00	0.000000e+00	0	0	0.000	0.000

[Compound Results(Ch3)]
# of IDs	2
ID#	Name	R.Time	Area	Height	Conc.	Curve	3rd	2nd	1st	Constant	Area Ratio	Height Ratio	Conc. %	Norm Conc.
1	N2O	2.880	78351	17186	1.000	Linear	0.000000e+00	0.000000e+00	7.835139e+004	0.000000e+00	0	0	100.000	100.000
2	SF6	0.000	0	0	0.000	Linear	0.000000e+00	0.000000e+00	0.000000e+00	0.000000e+00	0	0	0.000	0.000

[Group Results(Ch1)]
# of Groups	0

[Group Results(Ch2)]
# of Groups	0

[Group Results(Ch3)]
# of Groups	0

[Chromatogram (Ch1)]
Interval(msec)	220
# of Points	1091
Start Time(min)	0.002
End Time(min)	3.998
R.Time (min)	Intensity
0.00167	-2
0.00533	-0
0.00900	5
0.01267	11
0.01633	16
0.02000	17
0.02367	20
0.02733	23
0.03100	21
0.03467	16
0.03833	9
0.04200	1
0.04567	-5
0.04933	-12
0.05300	-16
0.05667	-21
0.06033	-25
0.06400	-26
0.06767	-23
0.07133	-17
0.07500	-10
0.07867	-5
0.08233	-2
0.08600	-1
0.08967	-3
0.09333	-5
0.09700	-6
0.10067	-9
0.10433	-14
0.10800	-18
0.11167	-20
0.11533	-23
0.11900	-23
0.12267	-22
0.12633	-18
0.13000	-14
0.13367	-11
0.13733	-8
0.14100	-8
0.14467	-10
0.14833	-14
0.15200	-22
0.15567	-27
0.15933	-31
0.16300	-32
0.16667	-27
0.17033	-22
0.17400	-19
0.17767	-19
0.18133	-22
0.18500	-26
0.18867	-28
0.19233	-26
0.19600	-23
0.19967	-22
0.20333	-22
0.20700	-22
0.21067	-23
0.21433	-22
0.21800	-25
0.22167	-28
0.22533	-31
0.22900	-30
0.23267	-27
0.23633	-23
0.24000	-19
0.24367	-14
0.24733	-13
0.25100	-17
0.25467	-22
0.25833	-23
0.26200	-24
0.26567	-24
0.26933	-27
0.27300	-33
0.27667	-36
0.28033	-37
0.28400	-37
0.28767	-34
0.29133	-30
0.29500	-26
0.29867	-25
0.30233	-26
0.30600	-22
0.30967	-16
0.31333	-15
0.31700	-17
0.32067	-24
0.32433	-32
0.32800	-38
0.33167	-39
0.33533	-34
0.33900	-33
0.34267	-35
0.34633	-38
0.35000	-38
0.35367	-36
0.35733	-35
0.36100	-38
0.36467	-40
0.36833	-43
0.37200	-42
0.37567	-40
0.37933	-39
0.38300	-39
0.38667	-38
0.39033	-37
0.39400	-36
0.39767	-36
0.40133	-40
0.40500	-46
0.40867	-48
0.41233	-42
0.41600	-34
0.41967	-31
0.42333	-30
0.42700	-35
0.43067	-44
0.43433	-47
0.43800	-47
0.44167	-46
0.44533	-46
0.44900	-46
0.45267	-47
0.45633	-45
0.46000	-42
0.46367	-42
0.46733	-44
0.47100	-44
0.47467	-47
0.47833	-49
0.48200	-50
0.48567	-53
0.48933	-57
0.49300	-62
0.49667	-62
0.50033	-54
0.50400	-41
0.50767	-32
0.51133	-32
0.51500	-35
0.51867	-42
0.52233	-51
0.52600	-55
0.52967	-56
0.53333	-55
0.53700	-52
0.54067	-50
0.54433	-45
0.54800	-41
0.55167	-37
0.55533	-36
0.55900	-36
0.56267	-39
0.56633	-48
0.57000	-57
0.57367	-65
0.57733	-70
0.58100	-73
0.58467	-74
0.58833	-74
0.59200	-72
0.59567	-70
0.59933	-66
0.60300	-58
0.60667	-53
0.61033	-54
0.61400	-57
0.61767	-58
0.62133	-58
0.62500	-59
0.62867	-61
0.63233	-65
0.63600	-67
0.63967	-67
0.64333	-67
0.64700	-67
0.65067	-66
0.65433	-60
0.65800	-51
0.66167	-44
0.66533	-40
0.66900	-37
0.67267	-36
0.67633	-38
0.68000	-45
0.68367	-56
0.68733	-68
0.69100	-75
0.69467	-80
0.69833	-87
0.70200	-92
0.70567	-94
0.70933	-90
0.71300	-82
0.71667	-75
0.72033	-70
0.72400	-64
0.72767	-58
0.73133	-50
0.73500	-41
0.73867	-34
0.74233	-32
0.74600	-37
0.74967	-48
0.75333	-57
0.75700	-64
0.76067	-69
0.76433	-71
0.76800	-72
0.77167	-73
0.77533	-71
0.77900	-68
0.78267	-67
0.78633	-70
0.79000	-76
0.79367	-79
0.79733	-76
0.80100	-75
0.80467	-74
0.80833	-74
0.81200	-73
0.81567	-75
0.81933	-79
0.82300	-82
0.82667	-82
0.83033	-77
0.83400	-66
0.83767	-57
0.84133	-54
0.84500	-58
0.84867	-66
0.85233	-74
0.85600	-80
0.85967	-85
0.86333	-87
0.86700	-86
0.87067	-83
0.87433	-78
0.87800	-72
0.88167	-67
0.88533	-68
0.88900	-73
0.89267	-77
0.89633	-78
0.90000	-78
0.90367	-79
0.90733	-80
0.91100	-83
0.91467	-87
0.91833	-90
0.92200	-93
0.92567	-95
0.92933	-95
0.93300	-93
0.93667	-88
0.94033	-84
0.94400	-81
0.94767	-81
0.95133	-80
0.95500	-81
0.95867	-84
0.96233	-88
0.96600	-91
0.96967	-92
0.97333	-90
0.97700	-85
0.98067	-81
0.98433	-80
0.98800	-78
0.99167	-77
0.99533	-81
0.99900	-86
1.00267	-90
1.00633	-90
1.01000	-86
1.01367	-84
1.01733	-80
1.02100	-80
1.02467	-84
1.02833	-88
1.03200	-90
1.03567	-90
1.03933	-88
1.04300	-86
1.04667	-84
1.05033	-80
1.05400	-79
1.05767	-79
1.06133	-81
1.06500	-82
1.06867	-83
1.07233	-85
1.07600	-89
1.07967	-93
1.08333	-96
1.08700	-99
1.09067	-99
1.09433	-94
1.09800	-88
1.10167	-80
1.10533	-73
1.10900	-72
1.11267	-72
1.11633	-76
1.12000	-81
1.12367	-85
1.12733	-88
1.13100	-93
1.13467	-101
1.13833	-108
1.14200	-114
1.14567	-118
1.14933	-119
1.15300	-118
1.15667	-113
1.16033	-107
1.16400	-102
1.16767	-98
1.17133	-95
1.17500	-90
1.17867	-86
1.18233	-83
1.18600	-86
1.18967	-91
1.19333	-95
1.19700	-97
1.20067	-96
1.20433	-91
1.20800	-83
1.21167	-77
1.21533	-77
1.21900	-85
1.22267	-95
1.22633	-105
1.23000	-112
1.23367	-114
1.23733	-113
1.24100	-112
1.24467	-111
1.24833	-109
1.25200	-109
1.25567	-111
1.25933	-116
1.26300	-119
1.26667	-121
1.27033	-121
1.27400	-116
1.27767	-110
1.28133	-105
1.28500	-99
1.28867	-94
1.29233	-95
1.29600	-98
1.29967	-101
1.30333	-106
1.30700	-109
1.31067	-111
1.31433	-111
1.31800	-109
1.32167	-107
1.32533	-103
1.32900	-96
1.33267	-87
1.33633	-81
1.34000	-85
1.34367	-94
1.34733	-102
1.35100	-109
1.35467	-115
1.35833	-121
1.36200	-126
1.36567	-130
1.36933	-132
1.37300	-132
1.37667	-133
1.38033	-131
1.38400	-125
1.38767	-119
1.39133	-112
1.39500	-108
1.39867	-109
1.40233	-115
1.40600	-123
1.40967	-130
1.41333	-135
1.41700	-139
1.42067	-139
1.42433	-135
1.42800	-128
1.43167	-122
1.43533	-115
1.43900	-79
1.44267	49
1.44633	261
1.45000	465
1.45367	607
1.45733	680
1.46100	701
1.46467	695
1.46833	680
1.47200	675
1.47567	683
1.47933	691
1.48300	681
1.48667	638
1.49033	566
1.49400	479
1.49767	390
1.50133	307
1.50500	234
1.50867	171
1.51233	118
1.51600	76
1.51967	43
1.52333	15
1.52700	-8
1.53067	-20
1.53433	-7
1.53800	116
1.54167	580
1.54533	1669
1.54900	3412
1.55267	5471
1.55633	7421
1.56000	8996
1.56367	10071
1.56733	10528
1.57100	10240
1.57467	9199
1.57833	7630
1.58200	5894
1.58567	4296
1.58933	2993
1.59300	2012
1.59667	1315
1.60033	836
1.60400	512
1.60767	298
1.61133	155
1.61500	60
1.61867	1
1.62233	-34
1.62600	-53
1.62967	-64
1.63333	-69
1.63700	-73
1.64067	-82
1.64433	-93
1.64800	-103
1.65167	-111
1.65533	-117
1.65900	-121
1.66267	-124
1.66633	-125
1.67000	-127
1.67367	-127
1.67733	-126
1.68100	-124
1.68467	-121
1.68833	-121
1.69200	-123
1.69567	-125
1.69933	-129
1.70300	-133
1.70667	-134
1.71033	-129
1.71400	-122
1.71767	-117
1.72133	-117
1.72500	-119
1.72867	-125
1.73233	-132
1.73600	-134
1.73967	-134
1.74333	-132
1.74700	-130
1.75067	-130
1.75433	-131
1.75800	-128
1.76167	-124
1.76533	-121
1.76900	-119
1.77267	-121
1.77633	-125
1.78000	-129
1.78367	-131
1.78733	-129
1.79100	-125
1.79467	-124
1.79833	-125
1.80200	-131
1.80567	-137
1.80933	-140
1.81300	-140
1.81667	-141
1.82033	-142
1.82400	-142
1.82767	-142
1.83133	-142
1.83500	-141
1.83867	-140
1.84233	-140
1.84600	-139
1.84967	-137
1.85333	-133
1.85700	-126
1.86067	-119
1.86433	-114
1.86800	-112
1.87167	-115
1.87533	-119
1.87900	-124
1.88267	-128
1.88633	-127
1.89000	-124
1.89367	-119
1.89733	-114
1.90100	-109
1.90467	-104
1.90833	-105
1.91200	-113
1.91567	-117
1.91933	-117
1.92300	-116
1.92667	-118
1.93033	-127
1.93400	-137
1.93767	-147
1.94133	-154
1.94500	-153
1.94867	-142
1.95233	-76
1.95600	321
1.95967	2383
1.96333	10664
1.96700	36023
1.97067	95934
1.97433	206085
1.97800	365643
1.98167	552677
1.98533	734423
1.98900	881365
1.99267	972608
1.99633	996746
2.00000	953041
2.00367	852964
2.00733	717656
2.01100	571313
2.01467	434276
2.01833	318686
2.02200	228381
2.02567	161601
2.02933	114065
2.03300	81061
2.03667	58477
2.04033	43106
2.04400	32624
2.04767	25421
2.05133	20402
2.05500	16840
2.05867	14257
2.06233	12332
2.06600	10860
2.06967	9702
2.07333	8764
2.07700	7990
2.08067	7344
2.08433	6795
2.08800	6325
2.09167	5915
2.09533	5556
2.09900	5242
2.10267	4962
2.10633	4708
2.11000	4476
2.11367	4265
2.11733	4078
2.12100	3908
2.12467	3752
2.12833	3604
2.13200	3463
2.13567	3330
2.13933	3204
2.14300	3087
2.14667	2980
2.15033	2880
2.15400	2786
2.15767	2697
2.16133	2609
2.16500	2525
2.16867	2446
2.17233	2373
2.17600	2304
2.17967	2236
2.18333	2171
2.18700	2111
2.19067	2056
2.19433	2006
2.19800	1956
2.20167	1905
2.20533	1854
2.20900	1802
2.21267	1754
2.21633	1709
2.22000	1667
2.22367	1630
2.22733	1595
2.23100	1566
2.23467	1539
2.23833	1513
2.24200	1487
2.24567	1461
2.24933	1436
2.25300	1408
2.25667	1378
2.26033	1345
2.26400	1311
2.26767	1277
2.27133	1244
2.27500	1218
2.27867	1197
2.28233	1180
2.28600	1164
2.28967	1152
2.29333	1139
2.29700	1123
2.30067	1107
2.30433	1090
2.30800	1070
2.31167	1048
2.31533	1025
2.31900	1005
2.32267	988
2.32633	973
2.33000	961
2.33367	947
2.33733	928
2.34100	910
2.34467	893
2.34833	880
2.35200	869
2.35567	859
2.35933	847
2.36300	836
2.36667	823
2.37033	810
2.37400	797
2.37767	784
2.38133	771
2.38500	760
2.38867	749
2.39233	736
2.39600	728
2.39967	721
2.40333	715
2.40700	711
2.41067	706
2.41433	702
2.41800	698
2.42167	697
2.42533	694
2.42900	686
2.43267	672
2.43633	659
2.44000	650
2.44367	645
2.44733	637
2.45100	628
2.45467	621
2.45833	617
2.46200	614
2.46567	611
2.46933	605
2.47300	595
2.47667	587
2.48033	577
2.48400	564
2.48767	551
2.49133	542
2.49500	533
2.49867	524
2.50233	519
2.50600	514
2.50967	509
2.51333	508
2.51700	507
2.52067	503
2.52433	495
2.52800	487
2.53167	480
2.53533	473
2.53900	466
2.54267	463
2.54633	460
2.55000	453
2.55367	444
2.55733	436
2.56100	432
2.56467	431
2.56833	434
2.57200	440
2.57567	441
2.57933	437
2.58300	433
2.58667	429
2.59033	425
2.59400	419
2.59767	413
2.60133	404
2.60500	392
2.60867	381
2.61233	369
2.61600	358
2.61967	349
2.62333	341
2.62700	338
2.63067	342
2.63433	346
2.63800	350
2.64167	353
2.64533	357
2.64900	359
2.65267	356
2.65633	350
2.66000	342
2.66367	334
2.66733	328
2.67100	322
2.67467	317
2.67833	313
2.68200	310
2.68567	311
2.68933	314
2.69300	315
2.69667	319
2.70033	318
2.70400	314
2.70767	307
2.71133	301
2.71500	298
2.71867	295
2.72233	288
2.72600	280
2.72967	274
2.73333	269
2.73700	268
2.74067	273
2.74433	281
2.74800	283
2.75167	278
2.75533	273
2.75900	267
2.76267	261
2.76633	257
2.77000	257
2.77367	257
2.77733	257
2.78100	255
2.78467	250
2.78833	241
2.79200	234
2.79567	228
2.79933	222
2.80300	219
2.80667	214
2.81033	210
2.81400	210
2.81767	215
2.82133	220
2.82500	224
2.82867	225
2.83233	225
2.83600	222
2.83967	220
2.84333	219
2.84700	217
2.85067	216
2.85433	215
2.85800	215
2.86167	214
2.86533	211
2.86900	210
2.87267	209
2.87633	211
2.88000	217
2.88367	223
2.88733	228
2.89100	229
2.89467	222
2.89833	212
2.90200	199
2.90567	187
2.90933	180
2.91300	179
2.91667	182
2.92033	184
2.92400	184
2.92767	181
2.93133	179
2.93500	179
2.93867	179
2.94233	178
2.94600	178
2.94967	182
2.95333	185
2.95700	185
2.96067	186
2.96433	185
2.96800	186
2.97167	187
2.97533	187
2.97900	184
2.98267	181
2.98633	179
2.99000	181
2.99367	185
2.99733	191
3.00100	193
3.00467	191
3.00833	187
3.01200	183
3.01567	177
3.01933	175
3.02300	174
3.02667	176
3.03033	177
3.03400	175
3.03767	171
3.04133	165
3.04500	157
3.04867	152
3.05233	150
3.05600	148
3.05967	149
3.06333	153
3.06700	156
3.07067	157
3.07433	158
3.07800	157
3.08167	154
3.08533	149
3.08900	147
3.09267	147
3.09633	148
3.10000	145
3.10367	142
3.10733	140
3.11100	137
3.11467	135
3.11833	138
3.12200	143
3.12567	147
3.12933	148
3.13300	144
3.13667	139
3.14033	131
3.14400	124
3.14767	121
3.15133	122
3.15500	126
3.15867	134
3.16233	143
3.16600	148
3.16967	148
3.17333	145
3.17700	143
3.18067	140
3.18433	138
3.18800	135
3.19167	132
3.19533	128
3.19900	127
3.20267	130
3.20633	133
3.21000	136
3.21367	139
3.21733	143
3.22100	147
3.22467	148
3.22833	144
3.23200	136
3.23567	125
3.23933	118
3.24300	114
3.24667	110
3.25033	108
3.25400	107
3.25767	109
3.26133	115
3.26500	122
3.26867	125
3.27233	126
3.27600	123
3.27967	114
3.28333	104
3.28700	100
3.29067	103
3.29433	107
3.29800	108
3.30167	107
3.30533	104
3.30900	98
3.31267	95
3.31633	92
3.32000	90
3.32367	92
3.32733	93
3.33100	94
3.33467	93
3.33833	92
3.34200	92
3.34567	89
3.34933	87
3.35300	88
3.35667	93
3.36033	97
3.36400	98
3.36767	96
3.37133	92
3.37500	93
3.37867	97
3.38233	101
3.38600	102
3.38967	100
3.39333	97
3.39700	96
3.40067	93
3.40433	90
3.40800	85
3.41167	77
3.41533	69
3.41900	66
3.42267	68
3.42633	72
3.43000	76
3.43367	78
3.43733	75
3.44100	67
3.44467	58
3.44833	51
3.45200	48
3.45567	49
3.45933	52
3.46300	55
3.46667	58
3.47033	64
3.47400	70
3.47767	77
3.48133	86
3.48500	92
3.48867	90
3.49233	82
3.49600	73
3.49967	67
3.50333	67
3.50700	70
3.51067	68
3.51433	63
3.51800	60
3.52167	56
3.52533	55
3.52900	55
3.53267	56
3.53633	57
3.54000	58
3.54367	57
3.54733	54
3.55100	48
3.55467	44
3.55833	42
3.56200	41
3.56567	40
3.56933	41
3.57300	44
3.57667	51
3.58033	59
3.58400	66
3.58767	67
3.59133	61
3.59500	53
3.59867	46
3.60233	37
3.60600	26
3.60967	22
3.61333	24
3.61700	31
3.62067	37
3.62433	42
3.62800	46
3.63167	48
3.63533	47
3.63900	43
3.64267	37
3.64633	34
3.65000	34
3.65367	34
3.65733	33
3.66100	35
3.66467	38
3.66833	44
3.67200	49
3.67567	50
3.67933	49
3.68300	48
3.68667	45
3.69033	42
3.69400	38
3.69767	36
3.70133	40
3.70500	52
3.70867	63
3.71233	70
3.71600	71
3.71967	71
3.72333	66
3.72700	59
3.73067	49
3.73433	36
3.73800	19
3.74167	2
3.74533	-12
3.74900	-19
3.75267	-15
3.75633	-5
3.76000	6
3.76367	14
3.76733	17
3.77100	19
3.77467	25
3.77833	34
3.78200	37
3.78567	35
3.78933	32
3.79300	28
3.79667	25
3.80033	20
3.80400	13
3.80767	8
3.81133	8
3.81500	13
3.81867	18
3.82233	18
3.82600	18
3.82967	17
3.83333	18
3.83700	21
3.84067	24
3.84433	27
3.84800	28
3.85167	25
3.85533	22
3.85900	20
3.86267	19
3.86633	21
3.87000	27
3.87367	35
3.87733	41
3.88100	43
3.88467	41
3.88833	34
3.89200	25
3.89567	17
3.89933	10
3.90300	11
3.90667	15
3.91033	18
3.91400	15
3.91767	8
3.92133	3
3.92500	1
3.92867	3
3.93233	6
3.93600	7
3.93967	8
3.94333	10
3.94700	12
3.95067	14
3.95433	16
3.95800	20
3.96167	23
3.96533	21
3.96900	15
3.97267	9
3.97633	5
3.98000	5
3.98367	6
3.98733	6
3.99100	7
3.99467	5
3.99833	-1

[Chromatogram (Ch2)]
Interval(msec)	220
# of Points	1091
Start Time(min)	0.002
End Time(min)	3.998
R.Time (min)	Intensity
0.00167	0
0.00533	0
0.00900	0
0.01267	0
0.01633	0
0.02000	0
0.02367	0
0.02733	0
0.03100	0
0.03467	0
0.03833	0
0.04200	-0
0.04567	-0
0.04933	-0
0.05300	-0
0.05667	-0
0.06033	-0
0.06400	-0
0.06767	0
0.07133	1
0.07500	1
0.07867	2
0.08233	2
0.08600	3
0.08967	4
0.09333	4
0.09700	5
0.10067	5
0.10433	5
0.10800	6
0.11167	6
0.11533	6
0.11900	6
0.12267	6
0.12633	6
0.13000	6
0.13367	6
0.13733	6
0.14100	5
0.14467	5
0.14833	5
0.15200	4
0.15567	4
0.15933	4
0.16300	3
0.16667	3
0.17033	4
0.17400	4
0.17767	4
0.18133	4
0.18500	4
0.18867	5
0.19233	5
0.19600	5
0.19967	5
0.20333	5
0.20700	4
0.21067	4
0.21433	4
0.21800	3
0.22167	3
0.22533	2
0.22900	2
0.23267	2
0.23633	2
0.24000	2
0.24367	2
0.24733	2
0.25100	2
0.25467	2
0.25833	2
0.26200	2
0.26567	2
0.26933	2
0.27300	2
0.27667	2
0.28033	2
0.28400	2
0.28767	2
0.29133	3
0.29500	3
0.29867	3
0.30233	3
0.30600	3
0.30967	3
0.31333	3
0.31700	3
0.32067	3
0.32433	3
0.32800	3
0.33167	3
0.33533	3
0.33900	3
0.34267	2
0.34633	2
0.35000	3
0.35367	3
0.35733	3
0.36100	3
0.36467	3
0.36833	3
0.37200	3
0.37567	3
0.37933	3
0.38300	3
0.38667	3
0.39033	3
0.39400	3
0.39767	3
0.40133	3
0.40500	3
0.40867	3
0.41233	3
0.41600	3
0.41967	3
0.42333	2
0.42700	2
0.43067	2
0.43433	1
0.43800	1
0.44167	1
0.44533	1
0.44900	1
0.45267	1
0.45633	1
0.46000	1
0.46367	1
0.46733	1
0.47100	1
0.47467	1
0.47833	1
0.48200	1
0.48567	1
0.48933	0
0.49300	1
0.49667	0
0.50033	0
0.50400	0
0.50767	0
0.51133	0
0.51500	0
0.51867	0
0.52233	0
0.52600	0
0.52967	1
0.53333	1
0.53700	1
0.54067	1
0.54433	1
0.54800	1
0.55167	1
0.55533	1
0.55900	1
0.56267	1
0.56633	1
0.57000	1
0.57367	1
0.57733	1
0.58100	1
0.58467	1
0.58833	1
0.59200	1
0.59567	1
0.59933	1
0.60300	1
0.60667	1
0.61033	1
0.61400	1
0.61767	2
0.62133	2
0.62500	2
0.62867	2
0.63233	2
0.63600	2
0.63967	2
0.64333	2
0.64700	2
0.65067	2
0.65433	1
0.65800	1
0.66167	1
0.66533	1
0.66900	1
0.67267	1
0.67633	2
0.68000	2
0.68367	2
0.68733	2
0.69100	2
0.69467	2
0.69833	2
0.70200	2
0.70567	2
0.70933	1
0.71300	1
0.71667	1
0.72033	1
0.72400	1
0.72767	1
0.73133	0
0.73500	0
0.73867	0
0.74233	0
0.74600	0
0.74967	0
0.75333	0
0.75700	0
0.76067	0
0.76433	1
0.76800	1
0.77167	0
0.77533	0
0.77900	0
0.78267	-0
0.78633	-0
0.79000	-0
0.79367	-0
0.79733	-0
0.80100	-1
0.80467	-1
0.80833	-1
0.81200	-1
0.81567	-1
0.81933	-1
0.82300	-1
0.82667	-1
0.83033	-1
0.83400	-1
0.83767	-0
0.84133	-0
0.84500	-0
0.84867	-0
0.85233	-0
0.85600	-0
0.85967	-0
0.86333	-1
0.86700	-1
0.87067	-1
0.87433	-1
0.87800	-1
0.88167	-1
0.88533	-1
0.88900	-1
0.89267	-0
0.89633	-0
0.90000	-0
0.90367	-0
0.90733	-0
0.91100	0
0.91467	1
0.91833	1
0.92200	1
0.92567	1
0.92933	1
0.93300	1
0.93667	1
0.94033	1
0.94400	1
0.94767	1
0.95133	1
0.95500	1
0.95867	1
0.96233	1
0.96600	1
0.96967	1
0.97333	1
0.97700	1
0.98067	1
0.98433	1
0.98800	1
0.99167	1
0.99533	1
0.99900	1
1.00267	1
1.00633	1
1.01000	0
1.01367	-0
1.01733	-0
1.02100	-0
1.02467	-0
1.02833	-0
1.03200	-0
1.03567	0
1.03933	0
1.04300	0
1.04667	-0
1.05033	0
1.05400	0
1.05767	0
1.06133	-0
1.06500	-0
1.06867	-0
1.07233	-0
1.07600	0
1.07967	0
1.08333	0
1.08700	0
1.09067	1
1.09433	1
1.09800	1
1.10167	1
1.10533	1
1.10900	1
1.11267	1
1.11633	1
1.12000	1
1.12367	0
1.12733	0
1.13100	0
1.13467	0
1.13833	0
1.14200	0
1.14567	0
1.14933	1
1.15300	0
1.15667	0
1.16033	0
1.16400	0
1.16767	0
1.17133	0
1.17500	0
1.17867	0
1.18233	0
1.18600	-0
1.18967	-0
1.19333	-0
1.19700	-0
1.20067	0
1.20433	0
1.20800	0
1.21167	0
1.21533	0
1.21900	-0
1.22267	-0
1.22633	-0
1.23000	-0
1.23367	-0
1.23733	-0
1.24100	-0
1.24467	-0
1.24833	-0
1.25200	-0
1.25567	-0
1.25933	-0
1.26300	-0
1.26667	-0
1.27033	-1
1.27400	-1
1.27767	-1
1.28133	-1
1.28500	-1
1.28867	-1
1.29233	-1
1.29600	-1
1.29967	-1
1.30333	-1
1.30700	-1
1.31067	-1
1.31433	-1
1.31800	-0
1.32167	-0
1.32533	-0
1.32900	-0
1.33267	0
1.33633	0
1.34000	-0
1.34367	-0
1.34733	-0
1.35100	-0
1.35467	-0
1.35833	-0
1.36200	0
1.36567	0
1.36933	-0
1.37300	-0
1.37667	-1
1.38033	-1
1.38400	-1
1.38767	-1
1.39133	-1
1.39500	-1
1.39867	-1
1.40233	-1
1.40600	-1
1.40967	-1
1.41333	-1
1.41700	-1
1.42067	-1
1.42433	-1
1.42800	-1
1.43167	-1
1.43533	-1
1.43900	-1
1.44267	-1
1.44633	-1
1.45000	-1
1.45367	-0
1.45733	-0
1.46100	-0
1.46467	0
1.46833	0
1.47200	0
1.47567	0
1.47933	0
1.48300	0
1.48667	0
1.49033	0
1.49400	0
1.49767	-0
1.50133	-0
1.50500	-0
1.50867	-1
1.51233	-1
1.51600	-0
1.51967	-0
1.52333	-0
1.52700	0
1.53067	0
1.53433	1
1.53800	1
1.54167	1
1.54533	1
1.54900	1
1.55267	1
1.55633	1
1.56000	1
1.56367	1
1.56733	1
1.57100	1
1.57467	1
1.57833	1
1.58200	1
1.58567	1
1.58933	0
1.59300	0
1.59667	-1
1.60033	-1
1.60400	-3
1.60767	-4
1.61133	-5
1.61500	-7
1.61867	-9
1.62233	-12
1.62600	-15
1.62967	-18
1.63333	-21
1.63700	-25
1.64067	-28
1.64433	-32
1.64800	-36
1.65167	-39
1.65533	-43
1.65900	-47
1.66267	-51
1.66633	-56
1.67000	-60
1.67367	-65
1.67733	-71
1.68100	-76
1.68467	-81
1.68833	-85
1.69200	-89
1.69567	-92
1.69933	-95
1.70300	-98
1.70667	-100
1.71033	-101
1.71400	-102
1.71767	-104
1.72133	-105
1.72500	-106
1.72867	-107
1.73233	-108
1.73600	-109
1.73967	-110
1.74333	-110
1.74700	-111
1.75067	-111
1.75433	-112
1.75800	-112
1.76167	-112
1.76533	-113
1.76900	-113
1.77267	-114
1.77633	-114
1.78000	-115
1.78367	-115
1.78733	-116
1.79100	-116
1.79467	-116
1.79833	-117
1.80200	-117
1.80567	-117
1.80933	-116
1.81300	-116
1.81667	-116
1.82033	-116
1.82400	-116
1.82767	-116
1.83133	-116
1.83500	-116
1.83867	-117
1.84233	-117
1.84600	-117
1.84967	-117
1.85333	-117
1.85700	-117
1.86067	-117
1.86433	-116
1.86800	-116
1.87167	-116
1.87533	-116
1.87900	-117
1.88267	-117
1.88633	-117
1.89000	-117
1.89367	-117
1.89733	-116
1.90100	-116
1.90467	-116
1.90833	-115
1.91200	-115
1.91567	-114
1.91933	-114
1.92300	-114
1.92667	-114
1.93033	-115
1.93400	-115
1.93767	-115
1.94133	-116
1.94500	-116
1.94867	-116
1.95233	-115
1.95600	-114
1.95967	-114
1.96333	-113
1.96700	-112
1.97067	-111
1.97433	-111
1.97800	-111
1.98167	-111
1.98533	-111
1.98900	-111
1.99267	-110
1.99633	-110
2.00000	-110
2.00367	-110
2.00733	-110
2.01100	-110
2.01467	-110
2.01833	-109
2.02200	-109
2.02567	-109
2.02933	-108
2.03300	-107
2.03667	-106
2.04033	-106
2.04400	-105
2.04767	-104
2.05133	-104
2.05500	-104
2.05867	-104
2.06233	-104
2.06600	-104
2.06967	-104
2.07333	-103
2.07700	-103
2.08067	-103
2.08433	-103
2.08800	-103
2.09167	-102
2.09533	-103
2.09900	-103
2.10267	-103
2.10633	-103
2.11000	-103
2.11367	-103
2.11733	-103
2.12100	-102
2.12467	-102
2.12833	-101
2.13200	-100
2.13567	-100
2.13933	-99
2.14300	-98
2.14667	-98
2.15033	-98
2.15400	-99
2.15767	-99
2.16133	-100
2.16500	-100
2.16867	-100
2.17233	-100
2.17600	-99
2.17967	-99
2.18333	-98
2.18700	-97
2.19067	-96
2.19433	-95
2.19800	-94
2.20167	-94
2.20533	-93
2.20900	-93
2.21267	-93
2.21633	-93
2.22000	-94
2.22367	-95
2.22733	-96
2.23100	-96
2.23467	-97
2.23833	-96
2.24200	-96
2.24567	-95
2.24933	-95
2.25300	-94
2.25667	-92
2.26033	-91
2.26400	-90
2.26767	-89
2.27133	-89
2.27500	-88
2.27867	-88
2.28233	-88
2.28600	-88
2.28967	-87
2.29333	-86
2.29700	-86
2.30067	-85
2.30433	-85
2.30800	-85
2.31167	-85
2.31533	-85
2.31900	-85
2.32267	-85
2.32633	-84
2.33000	-83
2.33367	-82
2.33733	-81
2.34100	-80
2.34467	-79
2.34833	-78
2.35200	-77
2.35567	-76
2.35933	-76
2.36300	-75
2.36667	-74
2.37033	-73
2.37400	-71
2.37767	-69
2.38133	-66
2.38500	-63
2.38867	-59
2.39233	-56
2.39600	-52
2.39967	-48
2.40333	-43
2.40700	-39
2.41067	-35
2.41433	-31
2.41800	-27
2.42167	-24
2.42533	-21
2.42900	-18
2.43267	-16
2.43633	-13
2.44000	-10
2.44367	-8
2.44733	-6
2.45100	-4
2.45467	-3
2.45833	-2
2.46200	-0
2.46567	1
2.46933	3
2.47300	4
2.47667	5
2.48033	6
2.48400	7
2.48767	8
2.49133	9
2.49500	9
2.49867	10
2.50233	11
2.50600	12
2.50967	13
2.51333	14
2.51700	15
2.52067	16
2.52433	16
2.52800	17
2.53167	17
2.53533	17
2.53900	17
2.54267	17
2.54633	17
2.55000	17
2.55367	17
2.55733	18
2.56100	18
2.56467	19
2.56833	19
2.57200	20
2.57567	20
2.57933	20
2.58300	20
2.58667	20
2.59033	21
2.59400	21
2.59767	21
2.60133	21
2.60500	21
2.60867	22
2.61233	22
2.61600	22
2.61967	22
2.62333	22
2.62700	22
2.63067	21
2.63433	21
2.63800	21
2.64167	21
2.64533	21
2.64900	21
2.65267	22
2.65633	22
2.66000	23
2.66367	24
2.66733	24
2.67100	25
2.67467	25
2.67833	25
2.68200	25
2.68567	26
2.68933	26
2.69300	26
2.69667	26
2.70033	27
2.70400	27
2.70767	28
2.71133	28
2.71500	29
2.71867	29
2.72233	29
2.72600	29
2.72967	28
2.73333	28
2.73700	27
2.74067	27
2.74433	27
2.74800	27
2.75167	27
2.75533	27
2.75900	28
2.76267	28
2.76633	29
2.77000	29
2.77367	30
2.77733	30
2.78100	30
2.78467	30
2.78833	30
2.79200	30
2.79567	30
2.79933	30
2.80300	30
2.80667	30
2.81033	30
2.81400	29
2.81767	29
2.82133	28
2.82500	28
2.82867	28
2.83233	27
2.83600	27
2.83967	27
2.84333	27
2.84700	26
2.85067	25
2.85433	22
2.85800	18
2.86167	11
2.86533	1
2.86900	-13
2.87267	-31
2.87633	-54
2.88000	-82
2.88367	-116
2.88733	-154
2.89100	-197
2.89467	-246
2.89833	-299
2.90200	-357
2.90567	-418
2.90933	-483
2.91300	-552
2.91667	-623
2.92033	-697
2.92400	-773
2.92767	-852
2.93133	-933
2.93500	-1016
2.93867	-1101
2.94233	-1186
2.94600	-1274
2.94967	-1362
2.95333	-1446
2.95700	-1512
2.96067	-1551
2.96433	-1555
2.96800	-1524
2.97167	-1462
2.97533	-1377
2.97900	-1276
2.98267	-1166
2.98633	-1054
2.99000	-943
2.99367	-836
2.99733	-737
3.00100	-645
3.00467	-562
3.00833	-488
3.01200	-421
3.01567	-363
3.01933	-311
3.02300	-266
3.02667	-227
3.03033	-193
3.03400	-163
3.03767	-138
3.04133	-116
3.04500	-97
3.04867	-81
3.05233	-67
3.05600	-56
3.05967	-46
3.06333	-38
3.06700	-31
3.07067	-25
3.07433	-20
3.07800	-15
3.08167	-11
3.08533	-8
3.08900	-4
3.09267	-2
3.09633	1
3.10000	3
3.10367	4
3.10733	6
3.11100	8
3.11467	9
3.11833	10
3.12200	11
3.12567	12
3.12933	12
3.13300	13
3.13667	14
3.14033	14
3.14400	15
3.14767	15
3.15133	16
3.15500	16
3.15867	16
3.16233	17
3.16600	18
3.16967	18
3.17333	19
3.17700	19
3.18067	20
3.18433	20
3.18800	21
3.19167	21
3.19533	21
3.19900	21
3.20267	21
3.20633	21
3.21000	21
3.21367	21
3.21733	22
3.22100	22
3.22467	22
3.22833	22
3.23200	22
3.23567	23
3.23933	23
3.24300	23
3.24667	23
3.25033	24
3.25400	24
3.25767	24
3.26133	24
3.26500	25
3.26867	25
3.27233	25
3.27600	26
3.27967	26
3.28333	26
3.28700	26
3.29067	26
3.29433	26
3.29800	26
3.30167	26
3.30533	26
3.30900	26
3.31267	26
3.31633	26
3.32000	26
3.32367	26
3.32733	27
3.33100	27
3.33467	27
3.33833	27
3.34200	27
3.34567	27
3.34933	28
3.35300	28
3.35667	28
3.36033	28
3.36400	28
3.36767	29
3.37133	29
3.37500	29
3.37867	30
3.38233	30
3.38600	30
3.38967	30
3.39333	30
3.39700	30
3.40067	31
3.40433	31
3.40800	31
3.41167	31
3.41533	31
3.41900	31
3.42267	31
3.42633	31
3.43000	31
3.43367	31
3.43733	31
3.44100	31
3.44467	31
3.44833	31
3.45200	32
3.45567	32
3.45933	32
3.46300	32
3.46667	31
3.47033	31
3.47400	31
3.47767	31
3.48133	31
3.48500	32
3.48867	32
3.49233	32
3.49600	32
3.49967	32
3.50333	32
3.50700	32
3.51067	32
3.51433	32
3.51800	31
3.52167	31
3.52533	31
3.52900	31
3.53267	31
3.53633	31
3.54000	31
3.54367	31
3.54733	31
3.55100	31
3.55467	31
3.55833	30
3.56200	30
3.56567	30
3.56933	30
3.57300	30
3.57667	30
3.58033	30
3.58400	30
3.58767	30
3.59133	30
3.59500	30
3.59867	30
3.60233	30
3.60600	30
3.60967	30
3.61333	30
3.61700	30
3.62067	30
3.62433	30
3.62800	30
3.63167	30
3.63533	30
3.63900	30
3.64267	30
3.64633	31
3.65000	31
3.65367	31
3.65733	31
3.66100	31
3.66467	31
3.66833	31
3.67200	30
3.67567	30
3.67933	30
3.68300	30
3.68667	30
3.69033	30
3.69400	30
3.69767	30
3.70133	30
3.70500	30
3.70867	30
3.71233	30
3.71600	30
3.71967	30
3.72333	30
3.72700	30
3.73067	30
3.73433	30
3.73800	30
3.74167	30
3.74533	30
3.74900	30
3.75267	30
3.75633	30
3.76000	30
3.76367	30
3.76733	30
3.77100	29
3.77467	29
3.77833	29
3.78200	30
3.78567	30
3.78933	30
3.79300	30
3.79667	30
3.80033	30
3.80400	30
3.80767	30
3.81133	30
3.81500	30
3.81867	30
3.82233	30
3.82600	30
3.82967	30
3.83333	30
3.83700	30
3.84067	30
3.84433	29
3.84800	29
3.85167	29
3.85533	29
3.85900	29
3.86267	29
3.86633	29
3.87000	29
3.87367	29
3.87733	29
3.88100	29
3.88467	29
3.88833	30
3.89200	30
3.89567	30
3.89933	30
3.90300	30
3.90667	30
3.91033	30
3.91400	30
3.91767	29
3.92133	29
3.92500	29
3.92867	29
3.93233	29
3.93600	29
3.93967	29
3.94333	29
3.94700	30
3.95067	30
3.95433	30
3.95800	30
3.96167	31
3.96533	31
3.96900	31
3.97267	31
3.97633	31
3.98000	32
3.98367	32
3.98733	32
3.99100	32
3.99467	32
3.99833	32

[Chromatogram (Ch3)]
Interval(msec)	220
# of Points	1091
Start Time(min)	0.002
End Time(min)	3.998
R.Time (min)	Intensity
0.00167	1
0.00533	2
0.00900	4
0.01267	3
0.01633	2
0.02000	2
0.02367	2
0.02733	0
0.03100	-2
0.03467	-4
0.03833	-7
0.04200	-5
0.04567	-2
0.04933	-1
0.05300	-2
0.05667	-3
0.06033	-3
0.06400	-3
0.06767	-3
0.07133	-4
0.07500	-3
0.07867	-3
0.08233	-3
0.08600	-1
0.08967	-1
0.09333	-3
0.09700	-7
0.10067	-10
0.10433	-10
0.10800	-10
0.11167	-8
0.11533	-8
0.11900	-8
0.12267	-7
0.12633	-5
0.13000	-5
0.13367	-3
0.13733	-3
0.14100	-2
0.14467	-1
0.14833	-1
0.15200	-2
0.15567	-2
0.15933	-1
0.16300	-2
0.16667	-1
0.17033	-0
0.17400	0
0.17767	-2
0.18133	-6
0.18500	-6
0.18867	-7
0.19233	-7
0.19600	-4
0.19967	-2
0.20333	-2
0.20700	-3
0.21067	-5
0.21433	-4
0.21800	-3
0.22167	-4
0.22533	-5
0.22900	-4
0.23267	-5
0.23633	-6
0.24000	-3
0.24367	0
0.24733	0
0.25100	-1
0.25467	-6
0.25833	-9
0.26200	-11
0.26567	-10
0.26933	-9
0.27300	-10
0.27667	-10
0.28033	-9
0.28400	-9
0.28767	-10
0.29133	-9
0.29500	-7
0.29867	-6
0.30233	-5
0.30600	-5
0.30967	-6
0.31333	-5
0.31700	-4
0.32067	-5
0.32433	-8
0.32800	-9
0.33167	-9
0.33533	-6
0.33900	-5
0.34267	-3
0.34633	-3
0.35000	-5
0.35367	-7
0.35733	-8
0.36100	-8
0.36467	-6
0.36833	-5
0.37200	-5
0.37567	-5
0.37933	-5
0.38300	-8
0.38667	-10
0.39033	-16
0.39400	-18
0.39767	-18
0.40133	-16
0.40500	-14
0.40867	-13
0.41233	-13
0.41600	-12
0.41967	-11
0.42333	-10
0.42700	-8
0.43067	-6
0.43433	-5
0.43800	-5
0.44167	-6
0.44533	-6
0.44900	-10
0.45267	-12
0.45633	-13
0.46000	-13
0.46367	-13
0.46733	-13
0.47100	-10
0.47467	-7
0.47833	-6
0.48200	-8
0.48567	-8
0.48933	-9
0.49300	-10
0.49667	-11
0.50033	-12
0.50400	-13
0.50767	-14
0.51133	-17
0.51500	-17
0.51867	-15
0.52233	-15
0.52600	-15
0.52967	-14
0.53333	-14
0.53700	-14
0.54067	-13
0.54433	-12
0.54800	-12
0.55167	-11
0.55533	-11
0.55900	-13
0.56267	-13
0.56633	-13
0.57000	-13
0.57367	-13
0.57733	-14
0.58100	-14
0.58467	-13
0.58833	-11
0.59200	-11
0.59567	-14
0.59933	-15
0.60300	-17
0.60667	-20
0.61033	-20
0.61400	-20
0.61767	-19
0.62133	-19
0.62500	-17
0.62867	-16
0.63233	-17
0.63600	-17
0.63967	-17
0.64333	-16
0.64700	-15
0.65067	-16
0.65433	-17
0.65800	-18
0.66167	-19
0.66533	-20
0.66900	-18
0.67267	-19
0.67633	-20
0.68000	-20
0.68367	-20
0.68733	-19
0.69100	-18
0.69467	-15
0.69833	-14
0.70200	-15
0.70567	-15
0.70933	-15
0.71300	-14
0.71667	-13
0.72033	-13
0.72400	-14
0.72767	-13
0.73133	-12
0.73500	-12
0.73867	-13
0.74233	-15
0.74600	-15
0.74967	-15
0.75333	-16
0.75700	-15
0.76067	-15
0.76433	-15
0.76800	-17
0.77167	-17
0.77533	-17
0.77900	-17
0.78267	-17
0.78633	-17
0.79000	-18
0.79367	-18
0.79733	-18
0.80100	-19
0.80467	-17
0.80833	-16
0.81200	-13
0.81567	-13
0.81933	-14
0.82300	-12
0.82667	-11
0.83033	-12
0.83400	-13
0.83767	-11
0.84133	-11
0.84500	-11
0.84867	-13
0.85233	-17
0.85600	-20
0.85967	-22
0.86333	-20
0.86700	-18
0.87067	-18
0.87433	-18
0.87800	-17
0.88167	-14
0.88533	-16
0.88900	-17
0.89267	-15
0.89633	-14
0.90000	-16
0.90367	-18
0.90733	-18
0.91100	-19
0.91467	-20
0.91833	-19
0.92200	-17
0.92567	-17
0.92933	-19
0.93300	-20
0.93667	-19
0.94033	-16
0.94400	-15
0.94767	-15
0.95133	-16
0.95500	-18
0.95867	-17
0.96233	-17
0.96600	-15
0.96967	-15
0.97333	-15
0.97700	-16
0.98067	-16
0.98433	-15
0.98800	-17
0.99167	-19
0.99533	-20
0.99900	-22
1.00267	-21
1.00633	-20
1.01000	-22
1.01367	-22
1.01733	-21
1.02100	-16
1.02467	-15
1.02833	-15
1.03200	-15
1.03567	-15
1.03933	-17
1.04300	-16
1.04667	-15
1.05033	-14
1.05400	-14
1.05767	-13
1.06133	-14
1.06500	-16
1.06867	-15
1.07233	-15
1.07600	-16
1.07967	-17
1.08333	-16
1.08700	-17
1.09067	-19
1.09433	-18
1.09800	-15
1.10167	-13
1.10533	-10
1.10900	-9
1.11267	-12
1.11633	-15
1.12000	-20
1.12367	-24
1.12733	-23
1.13100	-22
1.13467	-21
1.13833	-19
1.14200	-16
1.14567	-15
1.14933	-17
1.15300	-18
1.15667	-18
1.16033	-20
1.16400	-19
1.16767	-17
1.17133	-15
1.17500	-15
1.17867	-16
1.18233	-18
1.18600	-17
1.18967	-17
1.19333	-18
1.19700	-19
1.20067	-17
1.20433	-16
1.20800	-15
1.21167	-14
1.21533	-14
1.21900	-13
1.22267	-13
1.22633	-13
1.23000	-13
1.23367	-13
1.23733	-15
1.24100	-17
1.24467	-17
1.24833	-16
1.25200	-15
1.25567	-15
1.25933	-13
1.26300	-13
1.26667	-15
1.27033	-15
1.27400	-15
1.27767	-15
1.28133	-13
1.28500	-12
1.28867	-12
1.29233	-11
1.29600	-11
1.29967	-13
1.30333	-15
1.30700	-18
1.31067	-20
1.31433	-21
1.31800	-21
1.32167	-20
1.32533	-18
1.32900	-15
1.33267	-13
1.33633	-12
1.34000	-11
1.34367	-11
1.34733	-12
1.35100	-15
1.35467	-16
1.35833	-14
1.36200	-12
1.36567	-11
1.36933	-13
1.37300	-16
1.37667	-19
1.38033	-20
1.38400	-19
1.38767	-19
1.39133	-17
1.39500	-17
1.39867	-16
1.40233	-16
1.40600	-16
1.40967	-15
1.41333	-14
1.41700	-14
1.42067	-16
1.42433	-17
1.42800	-16
1.43167	-16
1.43533	-18
1.43900	-21
1.44267	-22
1.44633	-21
1.45000	-19
1.45367	-18
1.45733	-18
1.46100	-18
1.46467	-19
1.46833	-20
1.47200	-20
1.47567	-21
1.47933	-17
1.48300	-13
1.48667	-12
1.49033	-16
1.49400	-18
1.49767	-19
1.50133	-17
1.50500	-16
1.50867	-17
1.51233	-18
1.51600	-20
1.51967	-17
1.52333	-15
1.52700	-16
1.53067	-16
1.53433	-17
1.53800	-19
1.54167	-19
1.54533	-19
1.54900	-18
1.55267	-21
1.55633	-22
1.56000	-21
1.56367	-19
1.56733	-18
1.57100	-18
1.57467	-17
1.57833	-17
1.58200	-16
1.58567	-17
1.58933	-18
1.59300	-20
1.59667	-22
1.60033	-21
1.60400	-20
1.60767	-19
1.61133	-20
1.61500	-19
1.61867	-17
1.62233	-16
1.62600	-16
1.62967	-16
1.63333	-17
1.63700	-18
1.64067	-19
1.64433	-17
1.64800	-15
1.65167	-12
1.65533	-12
1.65900	-13
1.66267	-11
1.66633	-11
1.67000	-11
1.67367	-10
1.67733	-8
1.68100	-7
1.68467	-6
1.68833	-4
1.69200	-5
1.69567	-5
1.69933	-3
1.70300	-2
1.70667	-2
1.71033	-3
1.71400	-2
1.71767	-1
1.72133	-1
1.72500	-1
1.72867	-2
1.73233	-5
1.73600	-7
1.73967	-5
1.74333	-6
1.74700	-5
1.75067	-5
1.75433	-4
1.75800	-3
1.76167	-2
1.76533	-1
1.76900	1
1.77267	5
1.77633	6
1.78000	4
1.78367	2
1.78733	1
1.79100	4
1.79467	8
1.79833	10
1.80200	9
1.80567	7
1.80933	6
1.81300	6
1.81667	7
1.82033	8
1.82400	9
1.82767	7
1.83133	5
1.83500	5
1.83867	6
1.84233	7
1.84600	6
1.84967	5
1.85333	5
1.85700	4
1.86067	3
1.86433	4
1.86800	6
1.87167	7
1.87533	5
1.87900	6
1.88267	8
1.88633	11
1.89000	14
1.89367	15
1.89733	15
1.90100	14
1.90467	13
1.90833	14
1.91200	15
1.91567	15
1.91933	15
1.92300	15
1.92667	14
1.93033	15
1.93400	17
1.93767	18
1.94133	19
1.94500	20
1.94867	19
1.95233	19
1.95600	17
1.95967	18
1.96333	19
1.96700	20
1.97067	23
1.97433	26
1.97800	27
1.98167	26
1.98533	26
1.98900	28
1.99267	30
1.99633	32
2.00000	32
2.00367	31
2.00733	30
2.01100	30
2.01467	33
2.01833	38
2.02200	40
2.02567	41
2.02933	41
2.03300	40
2.03667	39
2.04033	37
2.04400	37
2.04767	39
2.05133	40
2.05500	40
2.05867	41
2.06233	40
2.06600	37
2.06967	37
2.07333	41
2.07700	44
2.08067	46
2.08433	46
2.08800	46
2.09167	46
2.09533	44
2.09900	45
2.10267	45
2.10633	45
2.11000	47
2.11367	49
2.11733	48
2.12100	49
2.12467	51
2.12833	54
2.13200	55
2.13567	57
2.13933	58
2.14300	55
2.14667	50
2.15033	49
2.15400	52
2.15767	57
2.16133	59
2.16500	58
2.16867	58
2.17233	58
2.17600	58
2.17967	60
2.18333	62
2.18700	66
2.19067	69
2.19433	71
2.19800	73
2.20167	74
2.20533	75
2.20900	73
2.21267	73
2.21633	73
2.22000	73
2.22367	73
2.22733	74
2.23100	78
2.23467	83
2.23833	86
2.24200	87
2.24567	85
2.24933	83
2.25300	82
2.25667	83
2.26033	85
2.26400	86
2.26767	86
2.27133	87
2.27500	86
2.27867	85
2.28233	85
2.28600	86
2.28967	88
2.29333	89
2.29700	90
2.30067	91
2.30433	93
2.30800	96
2.31167	99
2.31533	99
2.31900	99
2.32267	101
2.32633	103
2.33000	105
2.33367	106
2.33733	105
2.34100	107
2.34467	109
2.34833	109
2.35200	110
2.35567	112
2.35933	115
2.36300	115
2.36667	115
2.37033	117
2.37400	120
2.37767	122
2.38133	122
2.38500	121
2.38867	119
2.39233	119
2.39600	119
2.39967	121
2.40333	122
2.40700	124
2.41067	128
2.41433	131
2.41800	134
2.42167	138
2.42533	140
2.42900	144
2.43267	145
2.43633	144
2.44000	144
2.44367	177
2.44733	263
2.45100	363
2.45467	441
2.45833	488
2.46200	518
2.46567	536
2.46933	539
2.47300	526
2.47667	510
2.48033	502
2.48400	509
2.48767	524
2.49133	542
2.49500	564
2.49867	584
2.50233	594
2.50600	596
2.50967	590
2.51333	578
2.51700	563
2.52067	552
2.52433	548
2.52800	549
2.53167	554
2.53533	562
2.53900	572
2.54267	582
2.54633	593
2.55000	604
2.55367	617
2.55733	631
2.56100	645
2.56467	660
2.56833	672
2.57200	680
2.57567	684
2.57933	681
2.58300	673
2.58667	662
2.59033	647
2.59400	628
2.59767	609
2.60133	587
2.60500	561
2.60867	531
2.61233	496
2.61600	458
2.61967	419
2.62333	380
2.62700	343
2.63067	310
2.63433	280
2.63800	258
2.64167	242
2.64533	232
2.64900	227
2.65267	225
2.65633	228
2.66000	235
2.66367	246
2.66733	259
2.67100	273
2.67467	286
2.67833	303
2.68200	316
2.68567	327
2.68933	339
2.69300	353
2.69667	368
2.70033	382
2.70400	396
2.70767	412
2.71133	430
2.71500	447
2.71867	460
2.72233	470
2.72600	479
2.72967	485
2.73333	488
2.73700	492
2.74067	495
2.74433	497
2.74800	498
2.75167	499
2.75533	500
2.75900	497
2.76267	495
2.76633	495
2.77000	494
2.77367	493
2.77733	488
2.78100	484
2.78467	481
2.78833	478
2.79200	476
2.79567	474
2.79933	472
2.80300	472
2.80667	474
2.81033	477
2.81400	479
2.81767	484
2.82133	497
2.82500	528
2.82867	598
2.83233	750
2.83600	1043
2.83967	1552
2.84333	2343
2.84700	3458
2.85067	4903
2.85433	6636
2.85800	8575
2.86167	10587
2.86533	12520
2.86900	14228
2.87267	15587
2.87633	16508
2.88000	16957
2.88367	16955
2.88733	16558
2.89100	15846
2.89467	14912
2.89833	13834
2.90200	12689
2.90567	11531
2.90933	10406
2.91300	9341
2.91667	8351
2.92033	7440
2.92400	6611
2.92767	5863
2.93133	5197
2.93500	4606
2.93867	4083
2.94233	3620
2.94600	3214
2.94967	2861
2.95333	2552
2.95700	2282
2.96067	2045
2.96433	1838
2.96800	1658
2.97167	1504
2.97533	1372
2.97900	1256
2.98267	1157
2.98633	1072
2.99000	998
2.99367	934
2.99733	882
3.00100	836
3.00467	794
3.00833	759
3.01200	730
3.01567	706
3.01933	689
3.02300	673
3.02667	657
3.03033	643
3.03400	632
3.03767	622
3.04133	613
3.04500	606
3.04867	601
3.05233	594
3.05600	588
3.05967	584
3.06333	581
3.06700	578
3.07067	576
3.07433	575
3.07800	573
3.08167	569
3.08533	563
3.08900	560
3.09267	559
3.09633	557
3.10000	556
3.10367	553
3.10733	552
3.11100	552
3.11467	549
3.11833	544
3.12200	539
3.12567	537
3.12933	536
3.13300	535
3.13667	534
3.14033	532
3.14400	526
3.14767	521
3.15133	517
3.15500	514
3.15867	510
3.16233	506
3.16600	501
3.16967	495
3.17333	491
3.17700	487
3.18067	483
3.18433	481
3.18800	478
3.19167	474
3.19533	470
3.19900	467
3.20267	463
3.20633	462
3.21000	459
3.21367	454
3.21733	449
3.22100	445
3.22467	444
3.22833	443
3.23200	443
3.23567	443
3.23933	440
3.24300	437
3.24667	432
3.25033	428
3.25400	425
3.25767	421
3.26133	420
3.26500	418
3.26867	417
3.27233	414
3.27600	412
3.27967	409
3.28333	404
3.28700	400
3.29067	397
3.29433	394
3.29800	392
3.30167	391
3.30533	390
3.30900	389
3.31267	386
3.31633	382
3.32000	379
3.32367	377
3.32733	376
3.33100	376
3.33467	374
3.33833	372
3.34200	370
3.34567	367
3.34933	363
3.35300	361
3.35667	357
3.36033	354
3.36400	352
3.36767	351
3.37133	349
3.37500	349
3.37867	349
3.38233	350
3.38600	346
3.38967	343
3.39333	339
3.39700	336
3.40067	334
3.40433	334
3.40800	334
3.41167	333
3.41533	331
3.41900	329
3.42267	327
3.42633	327
3.43000	326
3.43367	326
3.43733	324
3.44100	322
3.44467	320
3.44833	316
3.45200	313
3.45567	312
3.45933	312
3.46300	311
3.46667	312
3.47033	312
3.47400	312
3.47767	311
3.48133	310
3.48500	307
3.48867	305
3.49233	306
3.49600	306
3.49967	306
3.50333	304
3.50700	302
3.51067	300
3.51433	299
3.51800	299
3.52167	300
3.52533	299
3.52900	298
3.53267	296
3.53633	291
3.54000	290
3.54367	292
3.54733	295
3.55100	297
3.55467	295
3.55833	294
3.56200	292
3.56567	291
3.56933	288
3.57300	287
3.57667	285
3.58033	285
3.58400	288
3.58767	288
3.59133	286
3.59500	285
3.59867	282
3.60233	281
3.60600	280
3.60967	280
3.61333	281
3.61700	281
3.62067	279
3.62433	278
3.62800	278
3.63167	277
3.63533	276
3.63900	276
3.64267	277
3.64633	276
3.65000	277
3.65367	275
3.65733	271
3.66100	270
3.66467	272
3.66833	276
3.67200	277
3.67567	276
3.67933	274
3.68300	272
3.68667	272
3.69033	271
3.69400	271
3.69767	272
3.70133	274
3.70500	275
3.70867	274
3.71233	272
3.71600	271
3.71967	272
3.72333	272
3.72700	273
3.73067	273
3.73433	272
3.73800	271
3.74167	271
3.74533	272
3.74900	274
3.75267	273
3.75633	273
3.76000	274
3.76367	273
3.76733	273
3.77100	272
3.77467	272
3.77833	271
3.78200	270
3.78567	268
3.78933	268
3.79300	269
3.79667	271
3.80033	271
3.80400	267
3.80767	265
3.81133	267
3.81500	268
3.81867	268
3.82233	268
3.82600	267
3.82967	267
3.83333	268
3.83700	268
3.84067	269
3.84433	270
3.84800	271
3.85167	271
3.85533	269
3.85900	268
3.86267	268
3.86633	269
3.87000	270
3.87367	271
3.87733	269
3.88100	267
3.88467	266
3.88833	266
3.89200	269
3.89567	268
3.89933	269
3.90300	270
3.90667	270
3.91033	268
3.91400	266
3.91767	265
3.92133	267
3.92500	271
3.92867	274
3.93233	273
3.93600	270
3.93967	267
3.94333	266
3.94700	267
3.95067	269
3.95433	269
3.95800	269
3.96167	271
3.96533	272
3.96900	271
3.97267	271
3.97633	269
3.98000	266
3.98367	263
3.98733	263
3.99100	264
3.99467	263
3.99833	262

[Status Trace (Column Oven Temperature)]
Interval(msec)	1000
# of Points	240
Start Time(min)	0.001
End Time(min)	3.984
Intensity Units	
Intensity Multiplier	1
R.Time (min)	Intensity
0.00070	35.04
0.01737	35.05
0.03403	35.06
0.05070	35.06
0.06737	35.06
0.08403	35.04
0.10070	35.03
0.11737	35.02
0.13403	35.01
0.15070	35.01
0.16737	35.00
0.18403	35.00
0.20070	35.00
0.21737	35.00
0.23403	35.00
0.25070	35.00
0.26737	35.00
0.28403	34.99
0.30070	34.99
0.31737	34.99
0.33403	34.98
0.35070	34.98
0.36737	34.97
0.38403	34.97
0.40070	34.97
0.41737	34.98
0.43403	34.99
0.45070	34.98
0.46737	34.98
0.48403	34.99
0.50070	34.99
0.51737	34.98
0.53403	34.98
0.55070	34.99
0.56737	34.99
0.58403	34.98
0.60070	34.99
0.61737	34.99
0.63403	34.99
0.65070	34.98
0.66737	34.98
0.68403	34.97
0.70070	34.97
0.71737	34.97
0.73403	34.98
0.75070	34.99
0.76737	34.99
0.78403	34.99
0.80070	34.99
0.81737	34.98
0.83403	34.99
0.85070	34.99
0.86737	34.99
0.88403	35.00
0.90070	35.00
0.91737	35.01
0.93403	35.01
0.95070	35.00
0.96737	35.00
0.98403	34.99
1.00070	34.98
1.01737	34.99
1.03403	35.00
1.05070	35.00
1.06737	34.99
1.08403	35.00
1.10070	34.99
1.11737	35.00
1.13403	35.00
1.15070	34.99
1.16737	34.99
1.18403	34.99
1.20070	34.99
1.21737	34.99
1.23403	34.99
1.25070	35.00
1.26737	34.99
1.28403	34.99
1.30070	34.99
1.31737	34.99
1.33403	34.99
1.35070	34.99
1.36737	35.00
1.38403	35.01
1.40070	35.01
1.41737	35.01
1.43403	35.02
1.45070	35.01
1.46737	35.01
1.48403	35.00
1.50070	35.00
1.51737	35.00
1.53403	35.00
1.55070	35.00
1.56737	35.00
1.58403	35.00
1.60070	35.03
1.61737	35.12
1.63403	35.28
1.65070	35.49
1.66737	35.80
1.68403	36.16
1.70070	36.51
1.71737	36.85
1.73403	37.19
1.75070	37.52
1.76737	37.86
1.78403	38.20
1.80070	38.53
1.81737	38.86
1.83403	39.18
1.85070	39.51
1.86737	39.83
1.88403	40.16
1.90070	40.49
1.91737	40.80
1.93403	41.14
1.95070	41.47
1.96737	41.78
1.98403	42.11
2.00070	42.44
2.01737	42.77
2.03403	43.07
2.05070	43.39
2.06737	43.71
2.08403	44.02
2.10070	44.35
2.11737	44.69
2.13403	45.01
2.15070	45.35
2.16737	45.70
2.18403	46.02
2.20070	46.34
2.21737	46.70
2.23403	47.06
2.25070	47.38
2.26737	47.70
2.28403	48.01
2.30070	48.36
2.31737	48.72
2.33403	49.03
2.35070	49.33
2.36737	49.57
2.38403	49.67
2.40070	49.67
2.41737	49.67
2.43403	49.68
2.45070	49.69
2.46737	49.69
2.48403	49.70
2.50070	49.71
2.51737	49.72
2.53403	49.74
2.55070	49.74
2.56737	49.77
2.58403	49.78
2.60070	49.80
2.61737	49.82
2.63403	49.84
2.65070	49.85
2.66737	49.85
2.68403	49.86
2.70070	49.85
2.71737	49.84
2.73403	49.87
2.75070	49.88
2.76737	49.86
2.78403	49.85
2.80070	49.85
2.81737	49.88
2.83403	49.89
2.85070	49.91
2.86737	49.92
2.88403	49.92
2.90070	49.93
2.91737	49.93
2.93403	49.94
2.95070	49.94
2.96737	49.95
2.98403	49.95
3.00070	49.95
3.01737	49.96
3.03403	49.96
3.05070	49.98
3.06737	49.99
3.08403	50.00
3.10070	50.01
3.11737	50.02
3.13403	50.03
3.15070	50.04
3.16737	50.05
3.18403	50.05
3.20070	50.06
3.21737	50.07
3.23403	50.08
3.25070	50.09
3.26737	50.09
3.28403	50.09
3.30070	50.10
3.31737	50.10
3.33403	50.10
3.35070	50.10
3.36737	50.09
3.38403	50.08
3.40070	50.07
3.41737	50.06
3.43403	50.06
3.45070	50.05
3.46737	50.04
3.48403	50.04
3.50070	50.04
3.51737	50.04
3.53403	50.03
3.55070	50.04
3.56737	50.04
3.58403	50.05
3.60070	50.05
3.61737	50.04
3.63403	50.04
3.65070	50.03
3.66737	50.03
3.68403	50.04
3.70070	50.04
3.71737	50.04
3.73403	50.04
3.75070	50.06
3.76737	50.06
3.78403	50.06
3.80070	50.05
3.81737	50.05
3.83403	50.05
3.85070	50.07
3.86737	50.07
3.88403	50.07
3.90070	50.07
3.91737	50.07
3.93403	50.08
3.95070	50.08
3.96737	50.08
3.98403	50.07

[Status Trace (Injection Unit Temperature)]
Interval(msec)	1000
# of Points	240
Start Time(min)	0.001
End Time(min)	3.984
Intensity Units	
Intensity Multiplier	1
R.Time (min)	Intensity
0.00070	99.98
0.01737	99.98
0.03403	99.98
0.05070	99.98
0.06737	99.98
0.08403	99.99
0.10070	99.98
0.11737	99.98
0.13403	99.98
0.15070	99.98
0.16737	99.99
0.18403	99.98
0.20070	99.98
0.21737	99.98
0.23403	99.99
0.25070	99.98
0.26737	99.98
0.28403	99.99
0.30070	99.98
0.31737	99.99
0.33403	99.99
0.35070	99.98
0.36737	99.98
0.38403	99.98
0.40070	99.99
0.41737	99.98
0.43403	99.99
0.45070	99.99
0.46737	99.99
0.48403	99.99
0.50070	99.99
0.51737	99.99
0.53403	99.99
0.55070	99.99
0.56737	99.99
0.58403	99.99
0.60070	99.99
0.61737	99.99
0.63403	99.99
0.65070	99.99
0.66737	99.99
0.68403	99.99
0.70070	99.99
0.71737	99.99
0.73403	99.99
0.75070	99.99
0.76737	99.99
0.78403	99.99
0.80070	99.98
0.81737	99.99
0.83403	99.99
0.85070	99.99
0.86737	99.99
0.88403	99.99
0.90070	99.99
0.91737	99.99
0.93403	99.99
0.95070	99.99
0.96737	99.99
0.98403	99.99
1.00070	99.99
1.01737	99.98
1.03403	99.99
1.05070	99.99
1.06737	99.99
1.08403	99.99
1.10070	99.99
1.11737	99.99
1.13403	99.99
1.15070	99.99
1.16737	99.98
1.18403	99.99
1.20070	99.99
1.21737	99.99
1.23403	99.99
1.25070	99.99
1.26737	99.99
1.28403	99.99
1.30070	99.99
1.31737	99.99
1.33403	99.99
1.35070	99.99
1.36737	99.99
1.38403	99.99
1.40070	99.99
1.41737	99.99
1.43403	99.99
1.45070	99.99
1.46737	99.99
1.48403	99.99
1.50070	99.99
1.51737	99.99
1.53403	99.99
1.55070	99.99
1.56737	99.99
1.58403	99.99
1.60070	99.99
1.61737	99.99
1.63403	99.99
1.65070	99.99
1.66737	99.99
1.68403	99.99
1.70070	99.99
1.71737	99.99
1.73403	99.99
1.75070	99.99
1.76737	99.99
1.78403	99.99
1.80070	99.99
1.81737	99.99
1.83403	99.99
1.85070	99.98
1.86737	99.99
1.88403	99.99
1.90070	99.98
1.91737	99.98
1.93403	99.99
1.95070	99.99
1.96737	99.99
1.98403	99.99
2.00070	99.98
2.01737	99.98
2.03403	99.98
2.05070	99.98
2.06737	99.98
2.08403	99.98
2.10070	99.98
2.11737	99.98
2.13403	99.98
2.15070	99.98
2.16737	99.97
2.18403	99.97
2.20070	99.97
2.21737	99.97
2.23403	99.97
2.25070	99.97
2.26737	99.97
2.28403	99.97
2.30070	99.97
2.31737	99.97
2.33403	99.97
2.35070	99.97
2.36737	99.97
2.38403	99.97
2.40070	99.97
2.41737	99.97
2.43403	99.97
2.45070	99.97
2.46737	99.97
2.48403	99.97
2.50070	99.97
2.51737	99.97
2.53403	99.97
2.55070	99.97
2.56737	99.97
2.58403	99.98
2.60070	99.97
2.61737	99.98
2.63403	99.98
2.65070	99.98
2.66737	99.98
2.68403	99.98
2.70070	99.98
2.71737	99.99
2.73403	99.99
2.75070	99.99
2.76737	99.99
2.78403	99.99
2.80070	100.00
2.81737	100.00
2.83403	99.99
2.85070	100.00
2.86737	100.00
2.88403	100.00
2.90070	100.01
2.91737	100.00
2.93403	100.00
2.95070	100.01
2.96737	100.01
2.98403	100.01
3.00070	100.01
3.01737	100.01
3.03403	100.01
3.05070	100.02
3.06737	100.02
3.08403	100.02
3.10070	100.02
3.11737	100.02
3.13403	100.02
3.15070	100.02
3.16737	100.02
3.18403	100.03
3.20070	100.03
3.21737	100.03
3.23403	100.03
3.25070	100.03
3.26737	100.03
3.28403	100.03
3.30070	100.03
3.31737	100.03
3.33403	100.03
3.35070	100.04
3.36737	100.04
3.38403	100.04
3.40070	100.04
3.41737	100.04
3.43403	100.04
3.45070	100.04
3.46737	100.04
3.48403	100.05
3.50070	100.05
3.51737	100.05
3.53403	100.05
3.55070	100.05
3.56737	100.05
3.58403	100.05
3.60070	100.04
3.61737	100.05
3.63403	100.05
3.65070	100.05
3.66737	100.05
3.68403	100.05
3.70070	100.05
3.71737	100.06
3.73403	100.06
3.75070	100.06
3.76737	100.05
3.78403	100.05
3.80070	100.05
3.81737	100.05
3.83403	100.06
3.85070	100.05
3.86737	100.05
3.88403	100.06
3.90070	100.05
3.91737	100.05
3.93403	100.06
3.95070	100.06
3.96737	100.06
3.98403	100.05

[Status Trace (Carrier Gas Pressure)]
Interval(msec)	1000
# of Points	240
Start Time(min)	0.001
End Time(min)	3.984
Intensity Units	
Intensity Multiplier	1
R.Time (min)	Intensity
0.00070	58.00
0.01737	56.61
0.03403	56.07
0.05070	58.25
0.06737	59.92
0.08403	58.45
0.10070	57.97
0.11737	58.00
0.13403	58.01
0.15070	58.01
0.16737	58.00
0.18403	58.00
0.20070	58.00
0.21737	58.00
0.23403	58.00
0.25070	58.00
0.26737	58.00
0.28403	58.00
0.30070	58.00
0.31737	58.00
0.33403	58.00
0.35070	58.00
0.36737	58.00
0.38403	58.00
0.40070	58.00
0.41737	58.00
0.43403	58.00
0.45070	58.00
0.46737	58.00
0.48403	58.00
0.50070	58.00
0.51737	58.00
0.53403	58.00
0.55070	58.00
0.56737	58.00
0.58403	58.00
0.60070	58.00
0.61737	58.00
0.63403	58.00
0.65070	58.00
0.66737	58.00
0.68403	58.00
0.70070	58.00
0.71737	58.00
0.73403	58.00
0.75070	58.00
0.76737	58.00
0.78403	58.00
0.80070	58.00
0.81737	58.00
0.83403	58.00
0.85070	58.00
0.86737	58.00
0.88403	58.00
0.90070	58.00
0.91737	58.00
0.93403	58.00
0.95070	58.00
0.96737	58.00
0.98403	58.00
1.00070	58.00
1.01737	58.00
1.03403	58.00
1.05070	58.00
1.06737	58.00
1.08403	58.00
1.10070	58.00
1.11737	58.00
1.13403	58.00
1.15070	58.00
1.16737	58.00
1.18403	58.00
1.20070	58.00
1.21737	58.00
1.23403	58.00
1.25070	58.00
1.26737	58.00
1.28403	58.00
1.30070	58.00
1.31737	58.00
1.33403	58.00
1.35070	58.00
1.36737	58.00
1.38403	58.00
1.40070	58.00
1.41737	58.00
1.43403	58.00
1.45070	58.00
1.46737	58.00
1.48403	58.00
1.50070	58.00
1.51737	58.00
1.53403	58.00
1.55070	58.00
1.56737	58.00
1.58403	58.00
1.60070	58.00
1.61737	58.00
1.63403	58.00
1.65070	58.00
1.66737	58.01
1.68403	58.01
1.70070	58.00
1.71737	58.00
1.73403	58.00
1.75070	58.00
1.76737	58.00
1.78403	58.00
1.80070	58.00
1.81737	58.00
1.83403	58.00
1.85070	58.00
1.86737	58.00
1.88403	58.00
1.90070	58.00
1.91737	58.00
1.93403	58.00
1.95070	58.00
1.96737	58.00
1.98403	58.00
2.00070	58.00
2.01737	58.00
2.03403	58.00
2.05070	58.00
2.06737	58.00
2.08403	58.00
2.10070	58.00
2.11737	58.00
2.13403	58.00
2.15070	58.00
2.16737	58.00
2.18403	58.00
2.20070	58.00
2.21737	58.00
2.23403	58.00
2.25070	58.00
2.26737	58.00
2.28403	58.00
2.30070	58.00
2.31737	58.00
2.33403	58.00
2.35070	58.00
2.36737	58.00
2.38403	57.99
2.40070	57.99
2.41737	58.00
2.43403	58.00
2.45070	58.00
2.46737	58.00
2.48403	58.00
2.50070	58.00
2.51737	57.98
2.53403	57.99
2.55070	58.00
2.56737	58.00
2.58403	58.00
2.60070	58.00
2.61737	58.00
2.63403	58.00
2.65070	58.00
2.66737	58.00
2.68403	58.00
2.70070	58.00
2.71737	58.00
2.73403	58.00
2.75070	58.00
2.76737	58.00
2.78403	58.00
2.80070	58.00
2.81737	58.00
2.83403	58.00
2.85070	58.00
2.86737	58.00
2.88403	58.00
2.90070	58.00
2.91737	58.00
2.93403	58.00
2.95070	58.00
2.96737	58.00
2.98403	58.00
3.00070	58.00
3.01737	58.00
3.03403	58.00
3.05070	58.00
3.06737	58.00
3.08403	58.00
3.10070	58.00
3.11737	58.00
3.13403	58.00
3.15070	58.00
3.16737	58.00
3.18403	58.00
3.20070	58.00
3.21737	58.00
3.23403	58.00
3.25070	58.00
3.26737	58.00
3.28403	58.00
3.30070	58.00
3.31737	58.00
3.33403	58.00
3.35070	58.00
3.36737	58.00
3.38403	58.00
3.40070	58.00
3.41737	58.00
3.43403	58.00
3.45070	58.00
3.46737	58.00
3.48403	58.00
3.50070	58.00
3.51737	58.00
3.53403	58.00
3.55070	58.00
3.56737	58.00
3.58403	58.00
3.60070	58.00
3.61737	58.00
3.63403	58.00
3.65070	58.00
3.66737	58.00
3.68403	58.00
3.70070	58.00
3.71737	58.00
3.73403	58.00
3.75070	58.00
3.76737	58.00
3.78403	58.00
3.80070	58.00
3.81737	58.00
3.83403	58.00
3.85070	58.00
3.86737	58.00
3.88403	58.00
3.90070	58.00
3.91737	58.00
3.93403	58.00
3.95070	58.00
3.96737	58.00
3.98403	58.00

[Status Trace (Carrier Gas Flow)]
Interval(msec)	1000
# of Points	240
Start Time(min)	0.001
End Time(min)	3.984
Intensity Units	
Intensity Multiplier	1
R.Time (min)	Intensity
0.00070	34.52
0.01737	33.96
0.03403	34.54
0.05070	34.55
0.06737	34.51
0.08403	34.52
0.10070	34.52
0.11737	34.52
0.13403	34.52
0.15070	34.52
0.16737	34.52
0.18403	34.52
0.20070	34.52
0.21737	34.52
0.23403	34.52
0.25070	34.52
0.26737	34.52
0.28403	34.52
0.30070	34.52
0.31737	34.52
0.33403	34.52
0.35070	34.52
0.36737	34.52
0.38403	34.52
0.40070	34.52
0.41737	34.52
0.43403	34.52
0.45070	34.52
0.46737	34.52
0.48403	34.52
0.50070	34.52
0.51737	34.52
0.53403	34.52
0.55070	34.52
0.56737	34.52
0.58403	34.52
0.60070	34.52
0.61737	34.52
0.63403	34.52
0.65070	34.51
0.66737	34.52
0.68403	34.52
0.70070	34.52
0.71737	34.52
0.73403	34.52
0.75070	34.52
0.76737	34.52
0.78403	34.52
0.80070	34.52
0.81737	34.52
0.83403	34.52
0.85070	34.52
0.86737	34.52
0.88403	34.52
0.90070	34.52
0.91737	34.52
0.93403	34.52
0.95070	34.52
0.96737	34.52
0.98403	34.52
1.00070	34.52
1.01737	34.52
1.03403	34.52
1.05070	34.52
1.06737	34.52
1.08403	34.52
1.10070	34.52
1.11737	34.52
1.13403	34.52
1.15070	34.52
1.16737	34.52
1.18403	34.52
1.20070	34.52
1.21737	34.52
1.23403	34.52
1.25070	34.52
1.26737	34.52
1.28403	34.52
1.30070	34.52
1.31737	34.52
1.33403	34.52
1.35070	34.52
1.36737	34.52
1.38403	34.52
1.40070	34.52
1.41737	34.52
1.43403	34.52
1.45070	34.52
1.46737	34.52
1.48403	34.52
1.50070	34.52
1.51737	34.52
1.53403	34.52
1.55070	34.52
1.56737	34.52
1.58403	34.52
1.60070	34.52
1.61737	34.52
1.63403	34.52
1.65070	34.52
1.66737	34.52
1.68403	34.52
1.70070	34.52
1.71737	34.52
1.73403	34.52
1.75070	34.52
1.76737	34.52
1.78403	34.52
1.80070	34.52
1.81737	34.52
1.83403	34.52
1.85070	34.52
1.86737	34.52
1.88403	34.52
1.90070	34.52
1.91737	34.52
1.93403	34.52
1.95070	34.52
1.96737	34.52
1.98403	34.52
2.00070	34.52
2.01737	34.52
2.03403	34.52
2.05070	34.52
2.06737	34.52
2.08403	34.52
2.10070	34.52
2.11737	34.52
2.13403	34.52
2.15070	34.52
2.16737	34.52
2.18403	34.52
2.20070	34.52
2.21737	34.52
2.23403	34.52
2.25070	34.52
2.26737	34.52
2.28403	34.52
2.30070	34.52
2.31737	34.52
2.33403	34.52
2.35070	34.52
2.36737	34.52
2.38403	34.52
2.40070	34.51
2.41737	34.52
2.43403	34.52
2.45070	34.53
2.46737	34.51
2.48403	34.52
2.50070	34.53
2.51737	34.52
2.53403	34.52
2.55070	34.52
2.56737	34.52
2.58403	34.52
2.60070	34.52
2.61737	34.52
2.63403	34.52
2.65070	34.52
2.66737	34.52
2.68403	34.52
2.70070	34.52
2.71737	34.52
2.73403	34.52
2.75070	34.52
2.76737	34.52
2.78403	34.52
2.80070	34.52
2.81737	34.52
2.83403	34.52
2.85070	34.52
2.86737	34.52
2.88403	34.52
2.90070	34.52
2.91737	34.52
2.93403	34.52
2.95070	34.52
2.96737	34.52
2.98403	34.52
3.00070	34.52
3.01737	34.52
3.03403	34.52
3.05070	34.52
3.06737	34.52
3.08403	34.52
3.10070	34.52
3.11737	34.52
3.13403	34.52
3.15070	34.52
3.16737	34.52
3.18403	34.52
3.20070	34.52
3.21737	34.52
3.23403	34.52
3.25070	34.52
3.26737	34.52
3.28403	34.52
3.30070	34.52
3.31737	34.52
3.33403	34.51
3.35070	34.52
3.36737	34.51
3.38403	34.51
3.40070	34.52
3.41737	34.51
3.43403	34.52
3.45070	34.51
3.46737	34.52
3.48403	34.52
3.50070	34.51
3.51737	34.51
3.53403	34.52
3.55070	34.52
3.56737	34.54
3.58403	34.51
3.60070	34.52
3.61737	34.52
3.63403	34.53
3.65070	34.52
3.66737	34.52
3.68403	34.52
3.70070	34.52
3.71737	34.52
3.73403	34.51
3.75070	34.52
3.76737	34.52
3.78403	34.52
3.80070	34.52
3.81737	34.52
3.83403	34.52
3.85070	34.52
3.86737	34.52
3.88403	34.52
3.90070	34.52
3.91737	34.52
3.93403	34.52
3.95070	34.52
3.96737	34.52
3.98403	34.52

[Status Trace (Column Flow)]
Interval(msec)	1000
# of Points	240
Start Time(min)	0.001
End Time(min)	3.984
Intensity Units	
Intensity Multiplier	1
R.Time (min)	Intensity
0.00070	5.54
0.01737	5.38
0.03403	5.31
0.05070	5.57
0.06737	5.76
0.08403	5.59
0.10070	5.54
0.11737	5.54
0.13403	5.54
0.15070	5.54
0.16737	5.54
0.18403	5.54
0.20070	5.54
0.21737	5.54
0.23403	5.54
0.25070	5.54
0.26737	5.54
0.28403	5.54
0.30070	5.54
0.31737	5.54
0.33403	5.54
0.35070	5.54
0.36737	5.54
0.38403	5.54
0.40070	5.54
0.41737	5.54
0.43403	5.54
0.45070	5.54
0.46737	5.54
0.48403	5.54
0.50070	5.54
0.51737	5.54
0.53403	5.54
0.55070	5.54
0.56737	5.54
0.58403	5.54
0.60070	5.54
0.61737	5.54
0.63403	5.54
0.65070	5.54
0.66737	5.54
0.68403	5.54
0.70070	5.54
0.71737	5.54
0.73403	5.54
0.75070	5.54
0.76737	5.54
0.78403	5.54
0.80070	5.54
0.81737	5.54
0.83403	5.54
0.85070	5.54
0.86737	5.54
0.88403	5.54
0.90070	5.54
0.91737	5.54
0.93403	5.54
0.95070	5.54
0.96737	5.54
0.98403	5.54
1.00070	5.54
1.01737	5.54
1.03403	5.54
1.05070	5.54
1.06737	5.54
1.08403	5.54
1.10070	5.54
1.11737	5.54
1.13403	5.54
1.15070	5.54
1.16737	5.54
1.18403	5.54
1.20070	5.54
1.21737	5.54
1.23403	5.54
1.25070	5.54
1.26737	5.54
1.28403	5.54
1.30070	5.54
1.31737	5.54
1.33403	5.54
1.35070	5.54
1.36737	5.54
1.38403	5.54
1.40070	5.54
1.41737	5.54
1.43403	5.54
1.45070	5.54
1.46737	5.54
1.48403	5.54
1.50070	5.54
1.51737	5.54
1.53403	5.54
1.55070	5.54
1.56737	5.54
1.58403	5.54
1.60070	5.54
1.61737	5.54
1.63403	5.53
1.65070	5.53
1.66737	5.52
1.68403	5.50
1.70070	5.49
1.71737	5.48
1.73403	5.47
1.75070	5.46
1.76737	5.45
1.78403	5.44
1.80070	5.43
1.81737	5.42
1.83403	5.41
1.85070	5.40
1.86737	5.39
1.88403	5.38
1.90070	5.37
1.91737	5.36
1.93403	5.35
1.95070	5.34
1.96737	5.33
1.98403	5.32
2.00070	5.31
2.01737	5.30
2.03403	5.29
2.05070	5.29
2.06737	5.28
2.08403	5.27
2.10070	5.26
2.11737	5.25
2.13403	5.24
2.15070	5.23
2.16737	5.22
2.18403	5.21
2.20070	5.20
2.21737	5.19
2.23403	5.18
2.25070	5.17
2.26737	5.16
2.28403	5.15
2.30070	5.14
2.31737	5.13
2.33403	5.12
2.35070	5.12
2.36737	5.11
2.38403	5.10
2.40070	5.10
2.41737	5.10
2.43403	5.10
2.45070	5.10
2.46737	5.10
2.48403	5.10
2.50070	5.10
2.51737	5.10
2.53403	5.10
2.55070	5.10
2.56737	5.10
2.58403	5.10
2.60070	5.10
2.61737	5.10
2.63403	5.10
2.65070	5.10
2.66737	5.10
2.68403	5.10
2.70070	5.10
2.71737	5.10
2.73403	5.10
2.75070	5.10
2.76737	5.10
2.78403	5.10
2.80070	5.10
2.81737	5.10
2.83403	5.10
2.85070	5.10
2.86737	5.10
2.88403	5.10
2.90070	5.10
2.91737	5.10
2.93403	5.10
2.95070	5.10
2.96737	5.10
2.98403	5.10
3.00070	5.10
3.01737	5.10
3.03403	5.10
3.05070	5.10
3.06737	5.10
3.08403	5.10
3.10070	5.10
3.11737	5.10
3.13403	5.10
3.15070	5.10
3.16737	5.09
3.18403	5.09
3.20070	5.09
3.21737	5.09
3.23403	5.09
3.25070	5.09
3.26737	5.09
3.28403	5.09
3.30070	5.09
3.31737	5.09
3.33403	5.09
3.35070	5.09
3.36737	5.09
3.38403	5.09
3.40070	5.09
3.41737	5.09
3.43403	5.09
3.45070	5.09
3.46737	5.09
3.48403	5.09
3.50070	5.09
3.51737	5.09
3.53403	5.10
3.55070	5.09
3.56737	5.09
3.58403	5.09
3.60070	5.09
3.61737	5.09
3.63403	5.09
3.65070	5.09
3.66737	5.10
3.68403	5.09
3.70070	5.09
3.71737	5.09
3.73403	5.09
3.75070	5.09
3.76737	5.09
3.78403	5.09
3.80070	5.09
3.81737	5.09
3.83403	5.09
3.85070	5.09
3.86737	5.09
3.88403	5.09
3.90070	5.09
3.91737	5.09
3.93403	5.09
3.95070	5.09
3.96737	5.09
3.98403	5.09

[Status Trace (Linear Velocity)]
Interval(msec)	1000
# of Points	240
Start Time(min)	0.001
End Time(min)	3.984
Intensity Units	
Intensity Multiplier	1
R.Time (min)	Intensity
0.00070	39.02
0.01737	38.11
0.03403	37.75
0.05070	39.18
0.06737	40.27
0.08403	39.31
0.10070	39.00
0.11737	39.02
0.13403	39.03
0.15070	39.02
0.16737	39.02
0.18403	39.02
0.20070	39.02
0.21737	39.02
0.23403	39.02
0.25070	39.02
0.26737	39.02
0.28403	39.02
0.30070	39.02
0.31737	39.02
0.33403	39.02
0.35070	39.02
0.36737	39.02
0.38403	39.02
0.40070	39.02
0.41737	39.02
0.43403	39.02
0.45070	39.02
0.46737	39.02
0.48403	39.02
0.50070	39.02
0.51737	39.02
0.53403	39.02
0.55070	39.02
0.56737	39.02
0.58403	39.02
0.60070	39.02
0.61737	39.02
0.63403	39.02
0.65070	39.02
0.66737	39.02
0.68403	39.02
0.70070	39.02
0.71737	39.02
0.73403	39.02
0.75070	39.02
0.76737	39.02
0.78403	39.02
0.80070	39.02
0.81737	39.02
0.83403	39.02
0.85070	39.02
0.86737	39.02
0.88403	39.02
0.90070	39.02
0.91737	39.02
0.93403	39.02
0.95070	39.02
0.96737	39.02
0.98403	39.02
1.00070	39.02
1.01737	39.02
1.03403	39.02
1.05070	39.02
1.06737	39.02
1.08403	39.02
1.10070	39.02
1.11737	39.02
1.13403	39.02
1.15070	39.02
1.16737	39.02
1.18403	39.02
1.20070	39.02
1.21737	39.02
1.23403	39.02
1.25070	39.02
1.26737	39.02
1.28403	39.02
1.30070	39.02
1.31737	39.02
1.33403	39.02
1.35070	39.02
1.36737	39.02
1.38403	39.02
1.40070	39.02
1.41737	39.02
1.43403	39.02
1.45070	39.02
1.46737	39.02
1.48403	39.02
1.50070	39.02
1.51737	39.02
1.53403	39.02
1.55070	39.02
1.56737	39.02
1.58403	39.02
1.60070	39.02
1.61737	39.01
1.63403	39.00
1.65070	38.98
1.66737	38.95
1.68403	38.91
1.70070	38.88
1.71737	38.84
1.73403	38.81
1.75070	38.78
1.76737	38.75
1.78403	38.72
1.80070	38.69
1.81737	38.65
1.83403	38.62
1.85070	38.59
1.86737	38.56
1.88403	38.53
1.90070	38.50
1.91737	38.47
1.93403	38.44
1.95070	38.41
1.96737	38.38
1.98403	38.35
2.00070	38.32
2.01737	38.29
2.03403	38.26
2.05070	38.24
2.06737	38.20
2.08403	38.17
2.10070	38.15
2.11737	38.11
2.13403	38.08
2.15070	38.06
2.16737	38.02
2.18403	37.99
2.20070	37.97
2.21737	37.93
2.23403	37.90
2.25070	37.87
2.26737	37.84
2.28403	37.81
2.30070	37.79
2.31737	37.75
2.33403	37.72
2.35070	37.70
2.36737	37.67
2.38403	37.66
2.40070	37.66
2.41737	37.66
2.43403	37.66
2.45070	37.66
2.46737	37.66
2.48403	37.66
2.50070	37.66
2.51737	37.65
2.53403	37.66
2.55070	37.66
2.56737	37.66
2.58403	37.66
2.60070	37.65
2.61737	37.65
2.63403	37.65
2.65070	37.65
2.66737	37.65
2.68403	37.65
2.70070	37.65
2.71737	37.65
2.73403	37.65
2.75070	37.65
2.76737	37.65
2.78403	37.65
2.80070	37.65
2.81737	37.65
2.83403	37.65
2.85070	37.64
2.86737	37.64
2.88403	37.64
2.90070	37.64
2.91737	37.64
2.93403	37.64
2.95070	37.64
2.96737	37.64
2.98403	37.64
3.00070	37.64
3.01737	37.64
3.03403	37.64
3.05070	37.64
3.06737	37.64
3.08403	37.64
3.10070	37.64
3.11737	37.64
3.13403	37.63
3.15070	37.63
3.16737	37.63
3.18403	37.63
3.20070	37.63
3.21737	37.63
3.23403	37.63
3.25070	37.63
3.26737	37.63
3.28403	37.63
3.30070	37.63
3.31737	37.63
3.33403	37.63
3.35070	37.63
3.36737	37.63
3.38403	37.63
3.40070	37.63
3.41737	37.63
3.43403	37.63
3.45070	37.63
3.46737	37.63
3.48403	37.63
3.50070	37.63
3.51737	37.63
3.53403	37.63
3.55070	37.63
3.56737	37.63
3.58403	37.63
3.60070	37.63
3.61737	37.63
3.63403	37.63
3.65070	37.63
3.66737	37.63
3.68403	37.63
3.70070	37.63
3.71737	37.63
3.73403	37.63
3.75070	37.63
3.76737	37.63
3.78403	37.63
3.80070	37.63
3.81737	37.63
3.83403	37.63
3.85070	37.63
3.86737	37.63
3.88403	37.63
3.90070	37.63
3.91737	37.63
3.93403	37.63
3.95070	37.63
3.96737	37.63
3.98403	37.63

