[Header]
Application Name	LabSolutions
Version	5.110
Data File Name	C:\Users\User\Desktop\GC Analyses\Jack\UIC Prairie Sampling\10.19.22\221019_052.gcd
Output Date	1/4/2023
Output Time	2:27:25 PM

[File Information]
Type	Data File
Generated	12/6/2022 1:17:24 PM
Generated by	System Administrator
Modified	12/6/2022 1:21:42 PM
Modified by	System Administrator

[Sample Information]
Operator Name	System Administrator
Acquired	12/6/2022 1:17:40 PM
Sample Type	1:Standard
Level	1
Sample Name	221019_UICPrairie
Sample ID	221019_UICPrairie
ISTD Amount1	1
ISTD Amount2	1
ISTD Amount3	1
ISTD Amount4	1
ISTD Amount5	1
ISTD Amount6	1
ISTD Amount7	1
ISTD Amount8	1
ISTD Amount9	1
ISTD Amount10	1
ISTD Amount11	1
ISTD Amount12	1
ISTD Amount13	1
ISTD Amount14	1
ISTD Amount15	1
ISTD Amount16	1
ISTD Amount17	1
ISTD Amount18	1
ISTD Amount19	1
ISTD Amount20	1
ISTD Amount21	1
ISTD Amount22	1
ISTD Amount23	1
ISTD Amount24	1
ISTD Amount25	1
ISTD Amount26	1
ISTD Amount27	1
ISTD Amount28	1
ISTD Amount29	1
ISTD Amount30	1
ISTD Amount31	1
ISTD Amount32	1
Sample Amount	1
Dilution Factor	1
Vial#	1
Injection Volume	1
Injection Count	1
Bar Code	

[Original Files]
Data File	C:\Users\User\Desktop\GC Analyses\Jack\UIC Prairie Sampling\10.19.22\221019_052.gcd
Method File	C:\LabSolutions\Data\GHG_4min_2022\ghg3_togas_w_acet_4 min_new_int.gcm
Batch File	
Report Format File	c:\LabSolutions\System\DEFAULT.lsr

[File Description]


[Configuration]
Instrument Name	C0B7VH3-Instrument1
Instrument #	1
Line #	1
# of Detectors	3
Detector ID	DET#1	DET#2	DET#3
Detector Name	FID	PTCD	ECD
# of Channels	1	1	1

[Peak Table(Ch1)]
# of Peaks	3
Peak#	R.Time	I.Time	F.Time	Area	Height	A/H	Conc.	Mark	ID#	Name	k'	Plate #	Plate Ht.	Tailing	Resolution	Sep.Factor	Area Ratio	Height Ratio	Conc. %	Norm Conc.
1	1.476	1.439	1.538	10552	4633	2.278	100.000	   	1	CO	0.000	8297	18.078	1.322	0.000	0.000	0	0	16.667	16.667
2	1.567	1.538	1.622	3638	1792	2.030	100.000	 V 	2	CH4	0.062	10882	13.785	0.000	1.468	0.000	0	0	16.667	16.667
3	1.996	1.949	2.917	5003025	2335790	2.142	400.000	   	3	CO2	0.353	17250	8.696	1.283	7.097	5.680	0	0	66.667	66.667

[Peak Table(Ch2)]
# of Peaks	0

[Peak Table(Ch3)]
# of Peaks	5
Peak#	R.Time	I.Time	F.Time	Area	Height	A/H	Conc.	Mark	ID#	Name	k'	Plate #	Plate Ht.	Tailing	Resolution	Sep.Factor	Area Ratio	Height Ratio	Conc. %	Norm Conc.
1	2.473	2.392	2.480	765	377	2.030	0.000	   			0.000	3007	49.888	0.000	0.000	0.000	0	0	0.000	0.000
2	2.510	2.480	2.521	1081	506	2.138	0.000	 V 			0.015	736	203.679	0.000	0.133	0.000	0	0	0.000	0.000
3	2.576	2.521	2.653	3600	662	5.437	0.000	 V 			0.042	2296	65.323	0.000	0.226	2.800	0	0	0.000	0.000
4	2.748	2.653	2.752	1388	376	3.695	0.036	 V 	1	N2O	0.111	97	1540.481	0.000	0.259	2.679	0	0	3.637	3.637
5	2.884	2.752	3.837	36766	5724	6.423	0.964	 V 	1	N2O	0.166	11763	12.751	0.000	0.222	1.493	0	0	96.363	96.363

[Compound Results(Ch1)]
# of IDs	6
ID#	Name	R.Time	Area	Height	Conc.	Curve	3rd	2nd	1st	Constant	Area Ratio	Height Ratio	Conc. %	Norm Conc.
1	CO	1.476	10552	4633	100.000	Linear	0.000000e+00	0.000000e+00	1.055167e+002	0.000000e+00	0	0	16.667	16.667
2	CH4	1.567	3638	1792	100.000	Linear	0.000000e+00	0.000000e+00	3.637947e+001	0.000000e+00	0	0	16.667	16.667
3	CO2	1.996	5003025	2335790	400.000	Linear	0.000000e+00	0.000000e+00	1.250756e+004	0.000000e+00	0	0	66.667	66.667
4	Ethylene	0.000	0	0	0.000	Linear	0.000000e+00	0.000000e+00	0.000000e+00	0.000000e+00	0	0	0.000	0.000
5	Acetylene	0.000	0	0	0.000	Linear	0.000000e+00	0.000000e+00	0.000000e+00	0.000000e+00	0	0	0.000	0.000
6	Ethane	0.000	0	0	0.000	Linear	0.000000e+00	0.000000e+00	0.000000e+00	0.000000e+00	0	0	0.000	0.000

[Compound Results(Ch2)]
# of IDs	5
ID#	Name	R.Time	Area	Height	Conc.	Curve	3rd	2nd	1st	Constant	Area Ratio	Height Ratio	Conc. %	Norm Conc.
1	Hydrogen	0.000	0	0	0.000	Linear	0.000000e+00	0.000000e+00	0.000000e+00	0.000000e+00	0	0	0.000	0.000
2	Oxygen	0.000	0	0	0.000	Linear	0.000000e+00	0.000000e+00	0.000000e+00	0.000000e+00	0	0	0.000	0.000
3	Nitrogen	0.000	0	0	0.000	Linear	0.000000e+00	0.000000e+00	0.000000e+00	0.000000e+00	0	0	0.000	0.000
4	Methane	0.000	0	0	0.000	Linear	0.000000e+00	0.000000e+00	0.000000e+00	0.000000e+00	0	0	0.000	0.000
5	Carbon Monoxide	0.000	0	0	0.000	Linear	0.000000e+00	0.000000e+00	0.000000e+00	0.000000e+00	0	0	0.000	0.000

[Compound Results(Ch3)]
# of IDs	2
ID#	Name	R.Time	Area	Height	Conc.	Curve	3rd	2nd	1st	Constant	Area Ratio	Height Ratio	Conc. %	Norm Conc.
1	N2O	2.884	38154	6099	1.000	Linear	0.000000e+00	0.000000e+00	3.815426e+004	0.000000e+00	0	0	100.000	100.000
2	SF6	0.000	0	0	0.000	Linear	0.000000e+00	0.000000e+00	0.000000e+00	0.000000e+00	0	0	0.000	0.000

[Group Results(Ch1)]
# of Groups	0

[Group Results(Ch2)]
# of Groups	0

[Group Results(Ch3)]
# of Groups	0

[Chromatogram (Ch1)]
Interval(msec)	220
# of Points	1091
Start Time(min)	0.002
End Time(min)	3.998
R.Time (min)	Intensity
0.00167	15
0.00533	4
0.00900	-6
0.01267	-11
0.01633	-11
0.02000	-9
0.02367	-11
0.02733	-13
0.03100	-15
0.03467	-13
0.03833	-9
0.04200	-5
0.04567	-3
0.04933	0
0.05300	0
0.05667	-3
0.06033	-9
0.06400	-18
0.06767	-27
0.07133	-31
0.07500	-31
0.07867	-26
0.08233	-21
0.08600	-17
0.08967	-13
0.09333	-10
0.09700	-5
0.10067	-0
0.10433	4
0.10800	8
0.11167	10
0.11533	9
0.11900	4
0.12267	1
0.12633	1
0.13000	-2
0.13367	-7
0.13733	-13
0.14100	-21
0.14467	-28
0.14833	-33
0.15200	-36
0.15567	-35
0.15933	-34
0.16300	-32
0.16667	-27
0.17033	-26
0.17400	-26
0.17767	-23
0.18133	-16
0.18500	-7
0.18867	-2
0.19233	-6
0.19600	-18
0.19967	-30
0.20333	-38
0.20700	-39
0.21067	-37
0.21433	-33
0.21800	-27
0.22167	-20
0.22533	-15
0.22900	-13
0.23267	-14
0.23633	-19
0.24000	-21
0.24367	-23
0.24733	-25
0.25100	-30
0.25467	-34
0.25833	-38
0.26200	-42
0.26567	-47
0.26933	-49
0.27300	-47
0.27667	-42
0.28033	-36
0.28400	-33
0.28767	-28
0.29133	-24
0.29500	-22
0.29867	-22
0.30233	-24
0.30600	-25
0.30967	-26
0.31333	-23
0.31700	-11
0.32067	4
0.32433	5
0.32800	6
0.33167	4
0.33533	-3
0.33900	-9
0.34267	-13
0.34633	-18
0.35000	-22
0.35367	-26
0.35733	-33
0.36100	-42
0.36467	-50
0.36833	-55
0.37200	-54
0.37567	-46
0.37933	-40
0.38300	-39
0.38667	-43
0.39033	-51
0.39400	-55
0.39767	-56
0.40133	-54
0.40500	-50
0.40867	-44
0.41233	-38
0.41600	-34
0.41967	-33
0.42333	-32
0.42700	-34
0.43067	-36
0.43433	-39
0.43800	-39
0.44167	-38
0.44533	-38
0.44900	-40
0.45267	-44
0.45633	-48
0.46000	-49
0.46367	-46
0.46733	-41
0.47100	-36
0.47467	-35
0.47833	-35
0.48200	-37
0.48567	-38
0.48933	-38
0.49300	-35
0.49667	-29
0.50033	-23
0.50400	-26
0.50767	-34
0.51133	-43
0.51500	-50
0.51867	-53
0.52233	-53
0.52600	-54
0.52967	-57
0.53333	-62
0.53700	-66
0.54067	-69
0.54433	-68
0.54800	-65
0.55167	-65
0.55533	-64
0.55900	-62
0.56267	-61
0.56633	-58
0.57000	-53
0.57367	-47
0.57733	-45
0.58100	-46
0.58467	-47
0.58833	-48
0.59200	-47
0.59567	-43
0.59933	-38
0.60300	-36
0.60667	-38
0.61033	-45
0.61400	-54
0.61767	-61
0.62133	-63
0.62500	-63
0.62867	-62
0.63233	-61
0.63600	-60
0.63967	-55
0.64333	-51
0.64700	-49
0.65067	-50
0.65433	-50
0.65800	-46
0.66167	-40
0.66533	-36
0.66900	-35
0.67267	-38
0.67633	-47
0.68000	-55
0.68367	-58
0.68733	-54
0.69100	-49
0.69467	-47
0.69833	-50
0.70200	-58
0.70567	-67
0.70933	-76
0.71300	-81
0.71667	-83
0.72033	-83
0.72400	-78
0.72767	-72
0.73133	-66
0.73500	-68
0.73867	-75
0.74233	-80
0.74600	-79
0.74967	-76
0.75333	-74
0.75700	-74
0.76067	-74
0.76433	-70
0.76800	-62
0.77167	-55
0.77533	-51
0.77900	-47
0.78267	-43
0.78633	-42
0.79000	-46
0.79367	-56
0.79733	-65
0.80100	-71
0.80467	-75
0.80833	-80
0.81200	-84
0.81567	-86
0.81933	-85
0.82300	-83
0.82667	-85
0.83033	-89
0.83400	-96
0.83767	-98
0.84133	-95
0.84500	-89
0.84867	-82
0.85233	-73
0.85600	-66
0.85967	-64
0.86333	-66
0.86700	-73
0.87067	-80
0.87433	-87
0.87800	-92
0.88167	-92
0.88533	-91
0.88900	-88
0.89267	-85
0.89633	-85
0.90000	-82
0.90367	-78
0.90733	-75
0.91100	-70
0.91467	-65
0.91833	-66
0.92200	-72
0.92567	-77
0.92933	-79
0.93300	-78
0.93667	-80
0.94033	-82
0.94400	-82
0.94767	-83
0.95133	-86
0.95500	-90
0.95867	-93
0.96233	-93
0.96600	-92
0.96967	-91
0.97333	-89
0.97700	-86
0.98067	-82
0.98433	-78
0.98800	-77
0.99167	-79
0.99533	-82
0.99900	-85
1.00267	-87
1.00633	-88
1.01000	-87
1.01367	-86
1.01733	-87
1.02100	-90
1.02467	-89
1.02833	-86
1.03200	-83
1.03567	-81
1.03933	-79
1.04300	-79
1.04667	-81
1.05033	-82
1.05400	-82
1.05767	-79
1.06133	-77
1.06500	-75
1.06867	-76
1.07233	-79
1.07600	-82
1.07967	-87
1.08333	-91
1.08700	-99
1.09067	-107
1.09433	-110
1.09800	-109
1.10167	-108
1.10533	-107
1.10900	-104
1.11267	-99
1.11633	-94
1.12000	-91
1.12367	-89
1.12733	-89
1.13100	-93
1.13467	-98
1.13833	-101
1.14200	-103
1.14567	-104
1.14933	-106
1.15300	-110
1.15667	-114
1.16033	-117
1.16400	-118
1.16767	-117
1.17133	-116
1.17500	-112
1.17867	-105
1.18233	-100
1.18600	-101
1.18967	-104
1.19333	-104
1.19700	-102
1.20067	-100
1.20433	-100
1.20800	-102
1.21167	-106
1.21533	-111
1.21900	-114
1.22267	-115
1.22633	-115
1.23000	-115
1.23367	-113
1.23733	-110
1.24100	-106
1.24467	-102
1.24833	-100
1.25200	-102
1.25567	-107
1.25933	-116
1.26300	-128
1.26667	-137
1.27033	-143
1.27400	-149
1.27767	-154
1.28133	-155
1.28500	-150
1.28867	-142
1.29233	-132
1.29600	-124
1.29967	-120
1.30333	-118
1.30700	-118
1.31067	-116
1.31433	-109
1.31800	-101
1.32167	-100
1.32533	-103
1.32900	-105
1.33267	-105
1.33633	-104
1.34000	-106
1.34367	-115
1.34733	-126
1.35100	-135
1.35467	-140
1.35833	-140
1.36200	-137
1.36567	-130
1.36933	-123
1.37300	-117
1.37667	-113
1.38033	-112
1.38400	-114
1.38767	-116
1.39133	-116
1.39500	-116
1.39867	-115
1.40233	-112
1.40600	-108
1.40967	-106
1.41333	-107
1.41700	-112
1.42067	-118
1.42433	-121
1.42800	-122
1.43167	-123
1.43533	-124
1.43900	-109
1.44267	-29
1.44633	168
1.45000	485
1.45367	977
1.45733	1681
1.46100	2498
1.46467	3273
1.46833	3898
1.47200	4327
1.47567	4527
1.47933	4467
1.48300	4138
1.48667	3595
1.49033	2944
1.49400	2294
1.49767	1722
1.50133	1261
1.50500	912
1.50867	657
1.51233	469
1.51600	332
1.51967	233
1.52333	161
1.52700	106
1.53067	64
1.53433	34
1.53800	22
1.54167	50
1.54533	167
1.54900	406
1.55267	734
1.55633	1073
1.56000	1363
1.56367	1578
1.56733	1696
1.57100	1694
1.57467	1562
1.57833	1323
1.58200	1031
1.58567	752
1.58933	518
1.59300	335
1.59667	197
1.60033	99
1.60400	31
1.60767	-16
1.61133	-46
1.61500	-67
1.61867	-81
1.62233	-90
1.62600	-95
1.62967	-94
1.63333	-90
1.63700	-89
1.64067	-94
1.64433	-102
1.64800	-109
1.65167	-114
1.65533	-120
1.65900	-126
1.66267	-132
1.66633	-136
1.67000	-135
1.67367	-132
1.67733	-129
1.68100	-125
1.68467	-121
1.68833	-116
1.69200	-114
1.69567	-117
1.69933	-121
1.70300	-126
1.70667	-127
1.71033	-127
1.71400	-126
1.71767	-122
1.72133	-116
1.72500	-112
1.72867	-111
1.73233	-114
1.73600	-120
1.73967	-126
1.74333	-128
1.74700	-127
1.75067	-124
1.75433	-121
1.75800	-117
1.76167	-115
1.76533	-115
1.76900	-116
1.77267	-115
1.77633	-113
1.78000	-113
1.78367	-115
1.78733	-117
1.79100	-116
1.79467	-114
1.79833	-111
1.80200	-110
1.80567	-112
1.80933	-117
1.81300	-119
1.81667	-118
1.82033	-116
1.82400	-117
1.82767	-118
1.83133	-116
1.83500	-115
1.83867	-115
1.84233	-113
1.84600	-113
1.84967	-115
1.85333	-119
1.85700	-122
1.86067	-125
1.86433	-132
1.86800	-138
1.87167	-142
1.87533	-147
1.87900	-149
1.88267	-148
1.88633	-143
1.89000	-136
1.89367	-130
1.89733	-126
1.90100	-125
1.90467	-127
1.90833	-121
1.91200	-112
1.91567	-103
1.91933	-96
1.92300	-93
1.92667	-96
1.93033	-101
1.93400	-104
1.93767	-105
1.94133	-105
1.94500	-104
1.94867	-99
1.95233	-57
1.95600	287
1.95967	2516
1.96333	13433
1.96700	53997
1.97067	167829
1.97433	406439
1.97800	782858
1.98167	1242647
1.98533	1693727
1.98900	2055001
1.99267	2275785
1.99633	2335715
2.00000	2240822
2.00367	2019641
2.00733	1716756
2.01100	1383314
2.01467	1064095
2.01833	788499
2.02200	568602
2.02567	403191
2.02933	283923
2.03300	200378
2.03667	142910
2.04033	103736
2.04400	77075
2.04767	58847
2.05133	46252
2.05500	37405
2.05867	31070
2.06233	26427
2.06600	22938
2.06967	20254
2.07333	18136
2.07700	16425
2.08067	15012
2.08433	13825
2.08800	12818
2.09167	11950
2.09533	11197
2.09900	10538
2.10267	9956
2.10633	9436
2.11000	8967
2.11367	8539
2.11733	8145
2.12100	7786
2.12467	7460
2.12833	7158
2.13200	6875
2.13567	6606
2.13933	6352
2.14300	6114
2.14667	5895
2.15033	5692
2.15400	5501
2.15767	5324
2.16133	5157
2.16500	5000
2.16867	4856
2.17233	4722
2.17600	4599
2.17967	4482
2.18333	4366
2.18700	4250
2.19067	4138
2.19433	4029
2.19800	3926
2.20167	3824
2.20533	3723
2.20900	3626
2.21267	3534
2.21633	3448
2.22000	3373
2.22367	3304
2.22733	3238
2.23100	3173
2.23467	3110
2.23833	3046
2.24200	2984
2.24567	2921
2.24933	2860
2.25300	2796
2.25667	2732
2.26033	2676
2.26400	2627
2.26767	2578
2.27133	2530
2.27500	2483
2.27867	2443
2.28233	2406
2.28600	2368
2.28967	2331
2.29333	2289
2.29700	2244
2.30067	2199
2.30433	2156
2.30800	2116
2.31167	2080
2.31533	2046
2.31900	2017
2.32267	1988
2.32633	1959
2.33000	1929
2.33367	1900
2.33733	1873
2.34100	1848
2.34467	1819
2.34833	1791
2.35200	1764
2.35567	1741
2.35933	1717
2.36300	1690
2.36667	1663
2.37033	1640
2.37400	1621
2.37767	1605
2.38133	1586
2.38500	1562
2.38867	1538
2.39233	1516
2.39600	1499
2.39967	1484
2.40333	1466
2.40700	1447
2.41067	1430
2.41433	1417
2.41800	1402
2.42167	1387
2.42533	1375
2.42900	1367
2.43267	1358
2.43633	1344
2.44000	1325
2.44367	1305
2.44733	1288
2.45100	1273
2.45467	1257
2.45833	1240
2.46200	1223
2.46567	1203
2.46933	1183
2.47300	1168
2.47667	1156
2.48033	1144
2.48400	1127
2.48767	1108
2.49133	1093
2.49500	1084
2.49867	1079
2.50233	1075
2.50600	1067
2.50967	1059
2.51333	1048
2.51700	1032
2.52067	1015
2.52433	1002
2.52800	990
2.53167	980
2.53533	969
2.53900	961
2.54267	954
2.54633	946
2.55000	938
2.55367	931
2.55733	922
2.56100	911
2.56467	897
2.56833	881
2.57200	864
2.57567	850
2.57933	836
2.58300	827
2.58667	819
2.59033	812
2.59400	805
2.59767	798
2.60133	792
2.60500	787
2.60867	784
2.61233	783
2.61600	784
2.61967	779
2.62333	770
2.62700	762
2.63067	754
2.63433	747
2.63800	741
2.64167	737
2.64533	731
2.64900	722
2.65267	708
2.65633	694
2.66000	688
2.66367	690
2.66733	690
2.67100	685
2.67467	676
2.67833	669
2.68200	658
2.68567	644
2.68933	628
2.69300	613
2.69667	600
2.70033	593
2.70400	591
2.70767	593
2.71133	596
2.71500	599
2.71867	603
2.72233	599
2.72600	586
2.72967	568
2.73333	552
2.73700	543
2.74067	541
2.74433	545
2.74800	550
2.75167	555
2.75533	560
2.75900	563
2.76267	560
2.76633	554
2.77000	545
2.77367	533
2.77733	520
2.78100	511
2.78467	506
2.78833	502
2.79200	499
2.79567	493
2.79933	483
2.80300	473
2.80667	465
2.81033	458
2.81400	452
2.81767	446
2.82133	444
2.82500	445
2.82867	448
2.83233	449
2.83600	448
2.83967	448
2.84333	449
2.84700	451
2.85067	452
2.85433	449
2.85800	443
2.86167	437
2.86533	430
2.86900	424
2.87267	420
2.87633	416
2.88000	413
2.88367	409
2.88733	406
2.89100	403
2.89467	398
2.89833	397
2.90200	397
2.90567	395
2.90933	389
2.91300	384
2.91667	381
2.92033	380
2.92400	379
2.92767	378
2.93133	377
2.93500	375
2.93867	372
2.94233	373
2.94600	374
2.94967	372
2.95333	367
2.95700	363
2.96067	358
2.96433	351
2.96800	348
2.97167	346
2.97533	343
2.97900	337
2.98267	330
2.98633	322
2.99000	319
2.99367	318
2.99733	320
3.00100	323
3.00467	326
3.00833	326
3.01200	320
3.01567	306
3.01933	292
3.02300	283
3.02667	282
3.03033	283
3.03400	285
3.03767	285
3.04133	283
3.04500	283
3.04867	285
3.05233	282
3.05600	279
3.05967	276
3.06333	273
3.06700	270
3.07067	267
3.07433	264
3.07800	260
3.08167	259
3.08533	260
3.08900	265
3.09267	272
3.09633	276
3.10000	275
3.10367	268
3.10733	259
3.11100	250
3.11467	243
3.11833	238
3.12200	236
3.12567	236
3.12933	241
3.13300	246
3.13667	245
3.14033	240
3.14400	233
3.14767	227
3.15133	223
3.15500	223
3.15867	221
3.16233	215
3.16600	210
3.16967	207
3.17333	207
3.17700	209
3.18067	213
3.18433	217
3.18800	217
3.19167	215
3.19533	216
3.19900	215
3.20267	210
3.20633	203
3.21000	198
3.21367	195
3.21733	194
3.22100	194
3.22467	196
3.22833	196
3.23200	195
3.23567	194
3.23933	192
3.24300	190
3.24667	186
3.25033	178
3.25400	170
3.25767	168
3.26133	170
3.26500	174
3.26867	181
3.27233	184
3.27600	183
3.27967	181
3.28333	178
3.28700	172
3.29067	165
3.29433	160
3.29800	158
3.30167	160
3.30533	160
3.30900	158
3.31267	156
3.31633	157
3.32000	158
3.32367	157
3.32733	155
3.33100	151
3.33467	148
3.33833	146
3.34200	148
3.34567	150
3.34933	150
3.35300	147
3.35667	143
3.36033	138
3.36400	132
3.36767	130
3.37133	132
3.37500	140
3.37867	147
3.38233	149
3.38600	143
3.38967	137
3.39333	129
3.39700	119
3.40067	110
3.40433	104
3.40800	103
3.41167	103
3.41533	101
3.41900	101
3.42267	105
3.42633	111
3.43000	118
3.43367	119
3.43733	117
3.44100	115
3.44467	115
3.44833	116
3.45200	115
3.45567	113
3.45933	113
3.46300	113
3.46667	113
3.47033	114
3.47400	118
3.47767	124
3.48133	127
3.48500	123
3.48867	113
3.49233	100
3.49600	94
3.49967	94
3.50333	99
3.50700	107
3.51067	112
3.51433	112
3.51800	109
3.52167	103
3.52533	95
3.52900	88
3.53267	81
3.53633	77
3.54000	72
3.54367	66
3.54733	62
3.55100	57
3.55467	54
3.55833	57
3.56200	64
3.56567	69
3.56933	71
3.57300	73
3.57667	73
3.58033	72
3.58400	75
3.58767	79
3.59133	80
3.59500	76
3.59867	69
3.60233	63
3.60600	59
3.60967	56
3.61333	54
3.61700	54
3.62067	54
3.62433	56
3.62800	57
3.63167	54
3.63533	51
3.63900	47
3.64267	48
3.64633	51
3.65000	54
3.65367	58
3.65733	64
3.66100	68
3.66467	69
3.66833	66
3.67200	64
3.67567	59
3.67933	55
3.68300	51
3.68667	47
3.69033	46
3.69400	48
3.69767	52
3.70133	57
3.70500	58
3.70867	55
3.71233	50
3.71600	50
3.71967	52
3.72333	52
3.72700	49
3.73067	44
3.73433	42
3.73800	43
3.74167	41
3.74533	36
3.74900	31
3.75267	29
3.75633	31
3.76000	36
3.76367	41
3.76733	43
3.77100	40
3.77467	36
3.77833	31
3.78200	26
3.78567	22
3.78933	20
3.79300	17
3.79667	16
3.80033	16
3.80400	17
3.80767	20
3.81133	23
3.81500	24
3.81867	25
3.82233	23
3.82600	21
3.82967	22
3.83333	23
3.83700	23
3.84067	22
3.84433	20
3.84800	16
3.85167	12
3.85533	10
3.85900	12
3.86267	16
3.86633	20
3.87000	22
3.87367	21
3.87733	18
3.88100	15
3.88467	13
3.88833	12
3.89200	12
3.89567	11
3.89933	11
3.90300	14
3.90667	16
3.91033	19
3.91400	18
3.91767	15
3.92133	13
3.92500	13
3.92867	14
3.93233	16
3.93600	17
3.93967	18
3.94333	15
3.94700	10
3.95067	5
3.95433	3
3.95800	2
3.96167	-1
3.96533	-8
3.96900	-14
3.97267	-15
3.97633	-16
3.98000	-16
3.98367	-12
3.98733	-7
3.99100	-3
3.99467	-3
3.99833	-4

[Chromatogram (Ch2)]
Interval(msec)	220
# of Points	1091
Start Time(min)	0.002
End Time(min)	3.998
R.Time (min)	Intensity
0.00167	-1
0.00533	-1
0.00900	-1
0.01267	-2
0.01633	-2
0.02000	-2
0.02367	-2
0.02733	-1
0.03100	-1
0.03467	-1
0.03833	-1
0.04200	-1
0.04567	-1
0.04933	-1
0.05300	-1
0.05667	-0
0.06033	-0
0.06400	-0
0.06767	-0
0.07133	-0
0.07500	-1
0.07867	-1
0.08233	-1
0.08600	-1
0.08967	-1
0.09333	-2
0.09700	-2
0.10067	-2
0.10433	-2
0.10800	-2
0.11167	-1
0.11533	-1
0.11900	-1
0.12267	-2
0.12633	-2
0.13000	-2
0.13367	-2
0.13733	-2
0.14100	-2
0.14467	-2
0.14833	-2
0.15200	-2
0.15567	-2
0.15933	-2
0.16300	-2
0.16667	-2
0.17033	-2
0.17400	-2
0.17767	-2
0.18133	-2
0.18500	-2
0.18867	-2
0.19233	-2
0.19600	-2
0.19967	-3
0.20333	-3
0.20700	-3
0.21067	-3
0.21433	-3
0.21800	-2
0.22167	-2
0.22533	-2
0.22900	-2
0.23267	-2
0.23633	-2
0.24000	-2
0.24367	-2
0.24733	-2
0.25100	-2
0.25467	-2
0.25833	-2
0.26200	-1
0.26567	-1
0.26933	-1
0.27300	-1
0.27667	-1
0.28033	-0
0.28400	0
0.28767	0
0.29133	0
0.29500	1
0.29867	0
0.30233	0
0.30600	0
0.30967	0
0.31333	0
0.31700	-0
0.32067	-0
0.32433	-1
0.32800	-1
0.33167	-1
0.33533	-1
0.33900	-1
0.34267	-2
0.34633	-2
0.35000	-3
0.35367	-3
0.35733	-3
0.36100	-3
0.36467	-4
0.36833	-4
0.37200	-4
0.37567	-4
0.37933	-4
0.38300	-4
0.38667	-4
0.39033	-4
0.39400	-4
0.39767	-4
0.40133	-4
0.40500	-3
0.40867	-3
0.41233	-3
0.41600	-3
0.41967	-3
0.42333	-3
0.42700	-3
0.43067	-3
0.43433	-3
0.43800	-3
0.44167	-3
0.44533	-3
0.44900	-3
0.45267	-3
0.45633	-3
0.46000	-3
0.46367	-3
0.46733	-3
0.47100	-3
0.47467	-3
0.47833	-4
0.48200	-4
0.48567	-4
0.48933	-4
0.49300	-4
0.49667	-4
0.50033	-4
0.50400	-4
0.50767	-4
0.51133	-4
0.51500	-4
0.51867	-4
0.52233	-4
0.52600	-4
0.52967	-4
0.53333	-3
0.53700	-3
0.54067	-3
0.54433	-2
0.54800	-2
0.55167	-2
0.55533	-1
0.55900	-1
0.56267	-1
0.56633	-1
0.57000	-1
0.57367	-1
0.57733	-1
0.58100	-0
0.58467	-0
0.58833	0
0.59200	0
0.59567	1
0.59933	1
0.60300	1
0.60667	1
0.61033	0
0.61400	0
0.61767	0
0.62133	0
0.62500	0
0.62867	0
0.63233	0
0.63600	-0
0.63967	-0
0.64333	-0
0.64700	-0
0.65067	-0
0.65433	-1
0.65800	-1
0.66167	-1
0.66533	-1
0.66900	-1
0.67267	-2
0.67633	-2
0.68000	-2
0.68367	-2
0.68733	-3
0.69100	-3
0.69467	-3
0.69833	-3
0.70200	-4
0.70567	-4
0.70933	-4
0.71300	-5
0.71667	-5
0.72033	-6
0.72400	-6
0.72767	-7
0.73133	-7
0.73500	-7
0.73867	-7
0.74233	-7
0.74600	-7
0.74967	-7
0.75333	-7
0.75700	-6
0.76067	-6
0.76433	-5
0.76800	-5
0.77167	-5
0.77533	-4
0.77900	-4
0.78267	-3
0.78633	-2
0.79000	-2
0.79367	-2
0.79733	-2
0.80100	-2
0.80467	-1
0.80833	-1
0.81200	-1
0.81567	-0
0.81933	-0
0.82300	-0
0.82667	-0
0.83033	-1
0.83400	-1
0.83767	-1
0.84133	-1
0.84500	-1
0.84867	-1
0.85233	-1
0.85600	-1
0.85967	-1
0.86333	-0
0.86700	-0
0.87067	-0
0.87433	-0
0.87800	-0
0.88167	-0
0.88533	-1
0.88900	-1
0.89267	-1
0.89633	-1
0.90000	-1
0.90367	-1
0.90733	-1
0.91100	-1
0.91467	-1
0.91833	-1
0.92200	-1
0.92567	-1
0.92933	-1
0.93300	-1
0.93667	-1
0.94033	-1
0.94400	-1
0.94767	-1
0.95133	-1
0.95500	-1
0.95867	-2
0.96233	-2
0.96600	-2
0.96967	-2
0.97333	-2
0.97700	-2
0.98067	-2
0.98433	-2
0.98800	-2
0.99167	-2
0.99533	-2
0.99900	-2
1.00267	-2
1.00633	-2
1.01000	-2
1.01367	-2
1.01733	-2
1.02100	-2
1.02467	-2
1.02833	-2
1.03200	-3
1.03567	-3
1.03933	-3
1.04300	-3
1.04667	-3
1.05033	-3
1.05400	-4
1.05767	-4
1.06133	-3
1.06500	-3
1.06867	-3
1.07233	-3
1.07600	-3
1.07967	-3
1.08333	-3
1.08700	-3
1.09067	-3
1.09433	-3
1.09800	-3
1.10167	-3
1.10533	-3
1.10900	-3
1.11267	-3
1.11633	-3
1.12000	-3
1.12367	-3
1.12733	-3
1.13100	-3
1.13467	-4
1.13833	-4
1.14200	-4
1.14567	-4
1.14933	-3
1.15300	-3
1.15667	-3
1.16033	-3
1.16400	-3
1.16767	-3
1.17133	-2
1.17500	-2
1.17867	-2
1.18233	-1
1.18600	-1
1.18967	-1
1.19333	-1
1.19700	-1
1.20067	-2
1.20433	-2
1.20800	-2
1.21167	-2
1.21533	-3
1.21900	-3
1.22267	-3
1.22633	-3
1.23000	-4
1.23367	-4
1.23733	-4
1.24100	-4
1.24467	-4
1.24833	-4
1.25200	-4
1.25567	-4
1.25933	-4
1.26300	-4
1.26667	-4
1.27033	-4
1.27400	-5
1.27767	-5
1.28133	-5
1.28500	-5
1.28867	-5
1.29233	-5
1.29600	-5
1.29967	-6
1.30333	-6
1.30700	-6
1.31067	-6
1.31433	-6
1.31800	-6
1.32167	-7
1.32533	-7
1.32900	-7
1.33267	-6
1.33633	-6
1.34000	-6
1.34367	-6
1.34733	-6
1.35100	-6
1.35467	-5
1.35833	-5
1.36200	-5
1.36567	-5
1.36933	-5
1.37300	-5
1.37667	-4
1.38033	-4
1.38400	-4
1.38767	-4
1.39133	-3
1.39500	-3
1.39867	-3
1.40233	-3
1.40600	-3
1.40967	-3
1.41333	-3
1.41700	-3
1.42067	-3
1.42433	-3
1.42800	-3
1.43167	-3
1.43533	-3
1.43900	-3
1.44267	-3
1.44633	-3
1.45000	-3
1.45367	-3
1.45733	-4
1.46100	-4
1.46467	-4
1.46833	-4
1.47200	-4
1.47567	-4
1.47933	-4
1.48300	-4
1.48667	-5
1.49033	-5
1.49400	-5
1.49767	-5
1.50133	-5
1.50500	-5
1.50867	-6
1.51233	-6
1.51600	-6
1.51967	-6
1.52333	-5
1.52700	-5
1.53067	-5
1.53433	-5
1.53800	-4
1.54167	-4
1.54533	-4
1.54900	-4
1.55267	-4
1.55633	-4
1.56000	-5
1.56367	-5
1.56733	-5
1.57100	-5
1.57467	-5
1.57833	-5
1.58200	-6
1.58567	-6
1.58933	-6
1.59300	-7
1.59667	-7
1.60033	-7
1.60400	-8
1.60767	-9
1.61133	-11
1.61500	-13
1.61867	-15
1.62233	-17
1.62600	-20
1.62967	-22
1.63333	-25
1.63700	-28
1.64067	-32
1.64433	-35
1.64800	-38
1.65167	-42
1.65533	-45
1.65900	-49
1.66267	-53
1.66633	-57
1.67000	-62
1.67367	-67
1.67733	-72
1.68100	-77
1.68467	-82
1.68833	-86
1.69200	-89
1.69567	-93
1.69933	-96
1.70300	-98
1.70667	-100
1.71033	-102
1.71400	-104
1.71767	-106
1.72133	-108
1.72500	-109
1.72867	-111
1.73233	-113
1.73600	-114
1.73967	-115
1.74333	-115
1.74700	-115
1.75067	-115
1.75433	-115
1.75800	-114
1.76167	-114
1.76533	-114
1.76900	-114
1.77267	-115
1.77633	-115
1.78000	-116
1.78367	-117
1.78733	-117
1.79100	-118
1.79467	-119
1.79833	-119
1.80200	-120
1.80567	-120
1.80933	-121
1.81300	-121
1.81667	-121
1.82033	-121
1.82400	-121
1.82767	-121
1.83133	-121
1.83500	-122
1.83867	-122
1.84233	-122
1.84600	-122
1.84967	-122
1.85333	-123
1.85700	-123
1.86067	-123
1.86433	-123
1.86800	-123
1.87167	-122
1.87533	-122
1.87900	-121
1.88267	-121
1.88633	-120
1.89000	-120
1.89367	-119
1.89733	-119
1.90100	-119
1.90467	-119
1.90833	-119
1.91200	-119
1.91567	-119
1.91933	-119
1.92300	-119
1.92667	-118
1.93033	-118
1.93400	-118
1.93767	-118
1.94133	-117
1.94500	-117
1.94867	-117
1.95233	-117
1.95600	-117
1.95967	-117
1.96333	-116
1.96700	-116
1.97067	-116
1.97433	-115
1.97800	-115
1.98167	-115
1.98533	-115
1.98900	-115
1.99267	-115
1.99633	-115
2.00000	-115
2.00367	-114
2.00733	-114
2.01100	-113
2.01467	-113
2.01833	-112
2.02200	-112
2.02567	-112
2.02933	-111
2.03300	-111
2.03667	-110
2.04033	-110
2.04400	-109
2.04767	-108
2.05133	-108
2.05500	-108
2.05867	-108
2.06233	-108
2.06600	-108
2.06967	-107
2.07333	-107
2.07700	-107
2.08067	-106
2.08433	-106
2.08800	-106
2.09167	-105
2.09533	-105
2.09900	-104
2.10267	-103
2.10633	-103
2.11000	-103
2.11367	-103
2.11733	-103
2.12100	-103
2.12467	-103
2.12833	-103
2.13200	-103
2.13567	-102
2.13933	-102
2.14300	-102
2.14667	-102
2.15033	-102
2.15400	-102
2.15767	-101
2.16133	-101
2.16500	-100
2.16867	-100
2.17233	-100
2.17600	-101
2.17967	-103
2.18333	-103
2.18700	-104
2.19067	-103
2.19433	-103
2.19800	-102
2.20167	-101
2.20533	-100
2.20900	-99
2.21267	-99
2.21633	-98
2.22000	-97
2.22367	-97
2.22733	-96
2.23100	-96
2.23467	-95
2.23833	-94
2.24200	-94
2.24567	-94
2.24933	-94
2.25300	-93
2.25667	-93
2.26033	-93
2.26400	-92
2.26767	-92
2.27133	-92
2.27500	-93
2.27867	-94
2.28233	-95
2.28600	-95
2.28967	-96
2.29333	-95
2.29700	-95
2.30067	-94
2.30433	-93
2.30800	-92
2.31167	-91
2.31533	-90
2.31900	-89
2.32267	-89
2.32633	-88
2.33000	-87
2.33367	-86
2.33733	-86
2.34100	-85
2.34467	-84
2.34833	-83
2.35200	-82
2.35567	-81
2.35933	-81
2.36300	-80
2.36667	-80
2.37033	-79
2.37400	-78
2.37767	-77
2.38133	-75
2.38500	-72
2.38867	-69
2.39233	-66
2.39600	-62
2.39967	-58
2.40333	-54
2.40700	-49
2.41067	-45
2.41433	-41
2.41800	-37
2.42167	-33
2.42533	-30
2.42900	-27
2.43267	-24
2.43633	-21
2.44000	-18
2.44367	-15
2.44733	-13
2.45100	-11
2.45467	-9
2.45833	-7
2.46200	-6
2.46567	-4
2.46933	-2
2.47300	-1
2.47667	1
2.48033	2
2.48400	3
2.48767	4
2.49133	5
2.49500	5
2.49867	6
2.50233	6
2.50600	6
2.50967	7
2.51333	8
2.51700	8
2.52067	9
2.52433	9
2.52800	10
2.53167	11
2.53533	11
2.53900	12
2.54267	12
2.54633	12
2.55000	12
2.55367	12
2.55733	13
2.56100	13
2.56467	14
2.56833	15
2.57200	15
2.57567	16
2.57933	16
2.58300	16
2.58667	16
2.59033	16
2.59400	16
2.59767	15
2.60133	15
2.60500	16
2.60867	16
2.61233	16
2.61600	16
2.61967	17
2.62333	17
2.62700	17
2.63067	18
2.63433	18
2.63800	18
2.64167	18
2.64533	17
2.64900	17
2.65267	18
2.65633	18
2.66000	18
2.66367	18
2.66733	19
2.67100	19
2.67467	20
2.67833	20
2.68200	20
2.68567	20
2.68933	20
2.69300	20
2.69667	20
2.70033	20
2.70400	20
2.70767	20
2.71133	20
2.71500	21
2.71867	21
2.72233	21
2.72600	22
2.72967	22
2.73333	23
2.73700	23
2.74067	24
2.74433	24
2.74800	24
2.75167	24
2.75533	24
2.75900	24
2.76267	23
2.76633	23
2.77000	23
2.77367	23
2.77733	23
2.78100	23
2.78467	24
2.78833	24
2.79200	24
2.79567	24
2.79933	25
2.80300	25
2.80667	25
2.81033	25
2.81400	26
2.81767	26
2.82133	26
2.82500	26
2.82867	26
2.83233	25
2.83600	25
2.83967	24
2.84333	24
2.84700	23
2.85067	23
2.85433	21
2.85800	19
2.86167	15
2.86533	8
2.86900	-1
2.87267	-13
2.87633	-28
2.88000	-48
2.88367	-72
2.88733	-99
2.89100	-131
2.89467	-166
2.89833	-204
2.90200	-246
2.90567	-290
2.90933	-336
2.91300	-384
2.91667	-433
2.92033	-483
2.92400	-534
2.92767	-584
2.93133	-635
2.93500	-685
2.93867	-734
2.94233	-783
2.94600	-831
2.94967	-883
2.95333	-941
2.95700	-1000
2.96067	-1053
2.96433	-1088
2.96800	-1098
2.97167	-1082
2.97533	-1043
2.97900	-985
2.98267	-915
2.98633	-838
2.99000	-758
2.99367	-678
2.99733	-601
3.00100	-530
3.00467	-463
3.00833	-403
3.01200	-348
3.01567	-300
3.01933	-257
3.02300	-220
3.02667	-187
3.03033	-159
3.03400	-134
3.03767	-113
3.04133	-95
3.04500	-79
3.04867	-65
3.05233	-54
3.05600	-44
3.05967	-36
3.06333	-29
3.06700	-23
3.07067	-17
3.07433	-13
3.07800	-9
3.08167	-6
3.08533	-3
3.08900	-1
3.09267	1
3.09633	3
3.10000	5
3.10367	6
3.10733	7
3.11100	8
3.11467	9
3.11833	10
3.12200	10
3.12567	11
3.12933	12
3.13300	12
3.13667	13
3.14033	13
3.14400	14
3.14767	14
3.15133	15
3.15500	15
3.15867	16
3.16233	16
3.16600	16
3.16967	16
3.17333	16
3.17700	16
3.18067	17
3.18433	17
3.18800	17
3.19167	17
3.19533	17
3.19900	18
3.20267	18
3.20633	18
3.21000	18
3.21367	18
3.21733	19
3.22100	19
3.22467	19
3.22833	19
3.23200	20
3.23567	20
3.23933	20
3.24300	21
3.24667	21
3.25033	21
3.25400	21
3.25767	21
3.26133	21
3.26500	21
3.26867	21
3.27233	21
3.27600	21
3.27967	22
3.28333	22
3.28700	22
3.29067	22
3.29433	22
3.29800	23
3.30167	22
3.30533	22
3.30900	23
3.31267	23
3.31633	23
3.32000	23
3.32367	23
3.32733	23
3.33100	23
3.33467	23
3.33833	23
3.34200	23
3.34567	24
3.34933	24
3.35300	24
3.35667	24
3.36033	24
3.36400	24
3.36767	24
3.37133	24
3.37500	24
3.37867	24
3.38233	24
3.38600	24
3.38967	24
3.39333	24
3.39700	24
3.40067	23
3.40433	23
3.40800	23
3.41167	23
3.41533	24
3.41900	24
3.42267	24
3.42633	25
3.43000	25
3.43367	25
3.43733	25
3.44100	25
3.44467	25
3.44833	25
3.45200	24
3.45567	24
3.45933	24
3.46300	24
3.46667	24
3.47033	24
3.47400	24
3.47767	24
3.48133	24
3.48500	24
3.48867	25
3.49233	25
3.49600	25
3.49967	25
3.50333	25
3.50700	25
3.51067	26
3.51433	26
3.51800	26
3.52167	26
3.52533	26
3.52900	27
3.53267	27
3.53633	27
3.54000	28
3.54367	28
3.54733	28
3.55100	28
3.55467	28
3.55833	28
3.56200	28
3.56567	28
3.56933	28
3.57300	28
3.57667	28
3.58033	29
3.58400	29
3.58767	29
3.59133	29
3.59500	29
3.59867	29
3.60233	28
3.60600	28
3.60967	28
3.61333	28
3.61700	28
3.62067	27
3.62433	27
3.62800	27
3.63167	28
3.63533	28
3.63900	28
3.64267	28
3.64633	28
3.65000	28
3.65367	28
3.65733	28
3.66100	28
3.66467	28
3.66833	27
3.67200	27
3.67567	26
3.67933	26
3.68300	26
3.68667	26
3.69033	26
3.69400	26
3.69767	26
3.70133	26
3.70500	26
3.70867	26
3.71233	26
3.71600	26
3.71967	26
3.72333	26
3.72700	26
3.73067	26
3.73433	25
3.73800	25
3.74167	25
3.74533	25
3.74900	25
3.75267	25
3.75633	25
3.76000	26
3.76367	26
3.76733	26
3.77100	26
3.77467	26
3.77833	26
3.78200	26
3.78567	26
3.78933	26
3.79300	26
3.79667	26
3.80033	26
3.80400	26
3.80767	26
3.81133	26
3.81500	26
3.81867	26
3.82233	26
3.82600	26
3.82967	26
3.83333	26
3.83700	26
3.84067	26
3.84433	26
3.84800	26
3.85167	26
3.85533	26
3.85900	26
3.86267	26
3.86633	26
3.87000	26
3.87367	26
3.87733	26
3.88100	26
3.88467	26
3.88833	26
3.89200	26
3.89567	26
3.89933	25
3.90300	25
3.90667	25
3.91033	25
3.91400	25
3.91767	25
3.92133	25
3.92500	25
3.92867	25
3.93233	25
3.93600	25
3.93967	25
3.94333	26
3.94700	26
3.95067	26
3.95433	26
3.95800	26
3.96167	25
3.96533	25
3.96900	25
3.97267	25
3.97633	25
3.98000	25
3.98367	26
3.98733	26
3.99100	26
3.99467	26
3.99833	26

[Chromatogram (Ch3)]
Interval(msec)	220
# of Points	1091
Start Time(min)	0.002
End Time(min)	3.998
R.Time (min)	Intensity
0.00167	1
0.00533	3
0.00900	5
0.01267	5
0.01633	3
0.02000	3
0.02367	6
0.02733	10
0.03100	13
0.03467	16
0.03833	20
0.04200	22
0.04567	22
0.04933	19
0.05300	16
0.05667	13
0.06033	11
0.06400	10
0.06767	8
0.07133	7
0.07500	9
0.07867	11
0.08233	13
0.08600	13
0.08967	12
0.09333	10
0.09700	11
0.10067	14
0.10433	14
0.10800	13
0.11167	11
0.11533	10
0.11900	12
0.12267	13
0.12633	15
0.13000	16
0.13367	19
0.13733	19
0.14100	18
0.14467	17
0.14833	16
0.15200	14
0.15567	13
0.15933	11
0.16300	12
0.16667	12
0.17033	13
0.17400	15
0.17767	14
0.18133	14
0.18500	15
0.18867	15
0.19233	14
0.19600	12
0.19967	10
0.20333	10
0.20700	10
0.21067	6
0.21433	4
0.21800	5
0.22167	9
0.22533	12
0.22900	13
0.23267	12
0.23633	12
0.24000	12
0.24367	13
0.24733	12
0.25100	11
0.25467	9
0.25833	9
0.26200	12
0.26567	12
0.26933	11
0.27300	11
0.27667	10
0.28033	11
0.28400	11
0.28767	10
0.29133	10
0.29500	10
0.29867	12
0.30233	12
0.30600	11
0.30967	10
0.31333	10
0.31700	11
0.32067	10
0.32433	9
0.32800	8
0.33167	9
0.33533	12
0.33900	15
0.34267	16
0.34633	15
0.35000	14
0.35367	14
0.35733	13
0.36100	13
0.36467	11
0.36833	12
0.37200	13
0.37567	13
0.37933	10
0.38300	8
0.38667	7
0.39033	7
0.39400	7
0.39767	6
0.40133	5
0.40500	6
0.40867	8
0.41233	10
0.41600	12
0.41967	13
0.42333	14
0.42700	12
0.43067	13
0.43433	14
0.43800	14
0.44167	14
0.44533	13
0.44900	13
0.45267	12
0.45633	10
0.46000	10
0.46367	11
0.46733	14
0.47100	15
0.47467	15
0.47833	14
0.48200	14
0.48567	14
0.48933	15
0.49300	16
0.49667	14
0.50033	13
0.50400	12
0.50767	12
0.51133	13
0.51500	15
0.51867	16
0.52233	17
0.52600	16
0.52967	14
0.53333	12
0.53700	11
0.54067	14
0.54433	16
0.54800	17
0.55167	15
0.55533	12
0.55900	12
0.56267	14
0.56633	14
0.57000	13
0.57367	12
0.57733	13
0.58100	17
0.58467	18
0.58833	16
0.59200	13
0.59567	11
0.59933	11
0.60300	12
0.60667	13
0.61033	12
0.61400	10
0.61767	10
0.62133	9
0.62500	7
0.62867	6
0.63233	6
0.63600	5
0.63967	6
0.64333	9
0.64700	9
0.65067	7
0.65433	7
0.65800	9
0.66167	9
0.66533	8
0.66900	8
0.67267	6
0.67633	6
0.68000	7
0.68367	10
0.68733	11
0.69100	10
0.69467	9
0.69833	9
0.70200	9
0.70567	8
0.70933	8
0.71300	7
0.71667	7
0.72033	8
0.72400	7
0.72767	6
0.73133	8
0.73500	10
0.73867	11
0.74233	11
0.74600	11
0.74967	10
0.75333	9
0.75700	10
0.76067	10
0.76433	10
0.76800	8
0.77167	6
0.77533	6
0.77900	7
0.78267	6
0.78633	7
0.79000	11
0.79367	15
0.79733	15
0.80100	14
0.80467	12
0.80833	9
0.81200	8
0.81567	6
0.81933	5
0.82300	6
0.82667	7
0.83033	8
0.83400	9
0.83767	10
0.84133	10
0.84500	9
0.84867	6
0.85233	4
0.85600	4
0.85967	6
0.86333	6
0.86700	7
0.87067	7
0.87433	8
0.87800	10
0.88167	11
0.88533	10
0.88900	9
0.89267	7
0.89633	5
0.90000	6
0.90367	7
0.90733	7
0.91100	6
0.91467	7
0.91833	8
0.92200	7
0.92567	6
0.92933	4
0.93300	4
0.93667	5
0.94033	6
0.94400	6
0.94767	8
0.95133	8
0.95500	7
0.95867	6
0.96233	5
0.96600	6
0.96967	6
0.97333	8
0.97700	9
0.98067	5
0.98433	4
0.98800	2
0.99167	2
0.99533	2
0.99900	4
1.00267	5
1.00633	3
1.01000	4
1.01367	3
1.01733	1
1.02100	-1
1.02467	-1
1.02833	-1
1.03200	0
1.03567	0
1.03933	2
1.04300	5
1.04667	8
1.05033	10
1.05400	10
1.05767	10
1.06133	11
1.06500	12
1.06867	11
1.07233	9
1.07600	7
1.07967	5
1.08333	4
1.08700	5
1.09067	5
1.09433	6
1.09800	5
1.10167	3
1.10533	5
1.10900	7
1.11267	9
1.11633	9
1.12000	9
1.12367	9
1.12733	5
1.13100	2
1.13467	1
1.13833	2
1.14200	6
1.14567	6
1.14933	6
1.15300	6
1.15667	5
1.16033	5
1.16400	4
1.16767	2
1.17133	1
1.17500	-1
1.17867	-2
1.18233	-1
1.18600	-0
1.18967	-1
1.19333	-1
1.19700	-1
1.20067	0
1.20433	1
1.20800	4
1.21167	4
1.21533	2
1.21900	1
1.22267	2
1.22633	1
1.23000	2
1.23367	2
1.23733	3
1.24100	3
1.24467	-0
1.24833	-2
1.25200	-3
1.25567	-4
1.25933	-4
1.26300	-2
1.26667	-1
1.27033	-1
1.27400	-1
1.27767	-1
1.28133	1
1.28500	0
1.28867	-0
1.29233	0
1.29600	-1
1.29967	-3
1.30333	-3
1.30700	-3
1.31067	-3
1.31433	-4
1.31800	-5
1.32167	-5
1.32533	-5
1.32900	-4
1.33267	-1
1.33633	1
1.34000	1
1.34367	-0
1.34733	-2
1.35100	-3
1.35467	-1
1.35833	2
1.36200	2
1.36567	-0
1.36933	-4
1.37300	-5
1.37667	-4
1.38033	-3
1.38400	-3
1.38767	-5
1.39133	-6
1.39500	-7
1.39867	-7
1.40233	-3
1.40600	-0
1.40967	0
1.41333	-0
1.41700	1
1.42067	2
1.42433	1
1.42800	-2
1.43167	-4
1.43533	-5
1.43900	-4
1.44267	-4
1.44633	-4
1.45000	-4
1.45367	-4
1.45733	-2
1.46100	-2
1.46467	-3
1.46833	-6
1.47200	-8
1.47567	-9
1.47933	-7
1.48300	-5
1.48667	-3
1.49033	-2
1.49400	-1
1.49767	-0
1.50133	-0
1.50500	-1
1.50867	-2
1.51233	-0
1.51600	-1
1.51967	-1
1.52333	-0
1.52700	-1
1.53067	-1
1.53433	-1
1.53800	-0
1.54167	1
1.54533	2
1.54900	1
1.55267	-2
1.55633	-2
1.56000	-2
1.56367	-1
1.56733	1
1.57100	-0
1.57467	1
1.57833	2
1.58200	1
1.58567	-1
1.58933	-3
1.59300	-5
1.59667	-7
1.60033	-9
1.60400	-7
1.60767	-5
1.61133	-2
1.61500	-1
1.61867	-0
1.62233	-2
1.62600	-2
1.62967	1
1.63333	5
1.63700	7
1.64067	7
1.64433	7
1.64800	6
1.65167	4
1.65533	3
1.65900	0
1.66267	-0
1.66633	2
1.67000	4
1.67367	4
1.67733	6
1.68100	11
1.68467	14
1.68833	15
1.69200	16
1.69567	15
1.69933	13
1.70300	10
1.70667	8
1.71033	6
1.71400	4
1.71767	3
1.72133	4
1.72500	8
1.72867	8
1.73233	9
1.73600	11
1.73967	11
1.74333	11
1.74700	10
1.75067	11
1.75433	12
1.75800	14
1.76167	16
1.76533	17
1.76900	17
1.77267	17
1.77633	16
1.78000	16
1.78367	15
1.78733	14
1.79100	16
1.79467	19
1.79833	20
1.80200	20
1.80567	18
1.80933	16
1.81300	15
1.81667	15
1.82033	16
1.82400	17
1.82767	18
1.83133	19
1.83500	21
1.83867	21
1.84233	19
1.84600	18
1.84967	20
1.85333	23
1.85700	25
1.86067	25
1.86433	26
1.86800	27
1.87167	27
1.87533	28
1.87900	27
1.88267	27
1.88633	27
1.89000	27
1.89367	26
1.89733	26
1.90100	27
1.90467	26
1.90833	23
1.91200	22
1.91567	26
1.91933	29
1.92300	29
1.92667	30
1.93033	33
1.93400	36
1.93767	35
1.94133	35
1.94500	35
1.94867	36
1.95233	38
1.95600	39
1.95967	39
1.96333	39
1.96700	37
1.97067	36
1.97433	36
1.97800	36
1.98167	36
1.98533	39
1.98900	40
1.99267	41
1.99633	44
2.00000	46
2.00367	46
2.00733	45
2.01100	45
2.01467	46
2.01833	44
2.02200	42
2.02567	45
2.02933	48
2.03300	50
2.03667	49
2.04033	48
2.04400	49
2.04767	50
2.05133	50
2.05500	50
2.05867	50
2.06233	50
2.06600	51
2.06967	54
2.07333	54
2.07700	55
2.08067	55
2.08433	57
2.08800	60
2.09167	62
2.09533	62
2.09900	60
2.10267	63
2.10633	67
2.11000	68
2.11367	68
2.11733	68
2.12100	69
2.12467	71
2.12833	72
2.13200	71
2.13567	72
2.13933	71
2.14300	73
2.14667	73
2.15033	72
2.15400	74
2.15767	77
2.16133	80
2.16500	82
2.16867	82
2.17233	82
2.17600	81
2.17967	82
2.18333	82
2.18700	83
2.19067	84
2.19433	85
2.19800	86
2.20167	88
2.20533	90
2.20900	90
2.21267	89
2.21633	88
2.22000	91
2.22367	95
2.22733	98
2.23100	99
2.23467	98
2.23833	97
2.24200	97
2.24567	98
2.24933	100
2.25300	102
2.25667	104
2.26033	104
2.26400	105
2.26767	107
2.27133	109
2.27500	112
2.27867	114
2.28233	114
2.28600	113
2.28967	113
2.29333	114
2.29700	115
2.30067	117
2.30433	117
2.30800	116
2.31167	114
2.31533	114
2.31900	117
2.32267	121
2.32633	123
2.33000	123
2.33367	121
2.33733	121
2.34100	122
2.34467	123
2.34833	124
2.35200	126
2.35567	128
2.35933	130
2.36300	127
2.36667	127
2.37033	128
2.37400	130
2.37767	132
2.38133	133
2.38500	133
2.38867	131
2.39233	131
2.39600	135
2.39967	141
2.40333	145
2.40700	148
2.41067	148
2.41433	150
2.41800	156
2.42167	161
2.42533	164
2.42900	164
2.43267	163
2.43633	160
2.44000	161
2.44367	198
2.44733	290
2.45100	392
2.45467	471
2.45833	503
2.46200	502
2.46567	503
2.46933	512
2.47300	515
2.47667	508
2.48033	499
2.48400	497
2.48767	511
2.49133	535
2.49500	565
2.49867	597
2.50233	625
2.50600	643
2.50967	647
2.51333	642
2.51700	635
2.52067	629
2.52433	627
2.52800	630
2.53167	636
2.53533	648
2.53900	660
2.54267	675
2.54633	692
2.55000	709
2.55367	727
2.55733	744
2.56100	762
2.56467	782
2.56833	797
2.57200	806
2.57567	810
2.57933	807
2.58300	798
2.58667	784
2.59033	765
2.59400	745
2.59767	726
2.60133	704
2.60500	675
2.60867	638
2.61233	592
2.61600	540
2.61967	483
2.62333	427
2.62700	377
2.63067	332
2.63433	293
2.63800	259
2.64167	232
2.64533	214
2.64900	202
2.65267	198
2.65633	202
2.66000	210
2.66367	220
2.66733	232
2.67100	245
2.67467	261
2.67833	278
2.68200	296
2.68567	317
2.68933	336
2.69300	359
2.69667	380
2.70033	401
2.70400	420
2.70767	440
2.71133	460
2.71500	476
2.71867	489
2.72233	502
2.72600	514
2.72967	522
2.73333	530
2.73700	535
2.74067	537
2.74433	538
2.74800	539
2.75167	538
2.75533	538
2.75900	539
2.76267	539
2.76633	539
2.77000	539
2.77367	540
2.77733	540
2.78100	539
2.78467	539
2.78833	541
2.79200	543
2.79567	544
2.79933	544
2.80300	544
2.80667	546
2.81033	548
2.81400	548
2.81767	551
2.82133	554
2.82500	560
2.82867	572
2.83233	598
2.83600	649
2.83967	742
2.84333	902
2.84700	1154
2.85067	1513
2.85433	1987
2.85800	2564
2.86167	3210
2.86533	3878
2.86900	4515
2.87267	5071
2.87633	5502
2.88000	5781
2.88367	5900
2.88733	5868
2.89100	5707
2.89467	5450
2.89833	5124
2.90200	4759
2.90567	4376
2.90933	3993
2.91300	3624
2.91667	3278
2.92033	2958
2.92400	2668
2.92767	2409
2.93133	2178
2.93500	1973
2.93867	1794
2.94233	1638
2.94600	1503
2.94967	1387
2.95333	1286
2.95700	1200
2.96067	1121
2.96433	1053
2.96800	995
2.97167	946
2.97533	905
2.97900	871
2.98267	841
2.98633	817
2.99000	797
2.99367	780
2.99733	764
3.00100	752
3.00467	743
3.00833	733
3.01200	724
3.01567	718
3.01933	714
3.02300	709
3.02667	705
3.03033	703
3.03400	701
3.03767	700
3.04133	697
3.04500	695
3.04867	693
3.05233	691
3.05600	689
3.05967	687
3.06333	685
3.06700	683
3.07067	685
3.07433	687
3.07800	687
3.08167	687
3.08533	685
3.08900	683
3.09267	681
3.09633	677
3.10000	672
3.10367	670
3.10733	669
3.11100	667
3.11467	664
3.11833	660
3.12200	658
3.12567	656
3.12933	653
3.13300	649
3.13667	644
3.14033	639
3.14400	637
3.14767	632
3.15133	626
3.15500	622
3.15867	618
3.16233	615
3.16600	610
3.16967	607
3.17333	604
3.17700	600
3.18067	596
3.18433	593
3.18800	590
3.19167	590
3.19533	588
3.19900	586
3.20267	583
3.20633	582
3.21000	578
3.21367	574
3.21733	571
3.22100	566
3.22467	562
3.22833	560
3.23200	559
3.23567	554
3.23933	552
3.24300	551
3.24667	547
3.25033	542
3.25400	539
3.25767	537
3.26133	533
3.26500	529
3.26867	524
3.27233	518
3.27600	516
3.27967	516
3.28333	515
3.28700	512
3.29067	509
3.29433	507
3.29800	505
3.30167	504
3.30533	503
3.30900	500
3.31267	497
3.31633	493
3.32000	489
3.32367	484
3.32733	479
3.33100	476
3.33467	471
3.33833	467
3.34200	463
3.34567	459
3.34933	456
3.35300	454
3.35667	452
3.36033	449
3.36400	447
3.36767	444
3.37133	441
3.37500	438
3.37867	433
3.38233	428
3.38600	425
3.38967	423
3.39333	419
3.39700	417
3.40067	414
3.40433	410
3.40800	406
3.41167	402
3.41533	400
3.41900	400
3.42267	400
3.42633	400
3.43000	396
3.43367	394
3.43733	393
3.44100	393
3.44467	391
3.44833	387
3.45200	382
3.45567	380
3.45933	378
3.46300	376
3.46667	372
3.47033	369
3.47400	368
3.47767	368
3.48133	368
3.48500	368
3.48867	367
3.49233	363
3.49600	359
3.49967	356
3.50333	355
3.50700	353
3.51067	350
3.51433	346
3.51800	344
3.52167	343
3.52533	341
3.52900	338
3.53267	335
3.53633	331
3.54000	330
3.54367	328
3.54733	327
3.55100	326
3.55467	326
3.55833	326
3.56200	325
3.56567	321
3.56933	319
3.57300	319
3.57667	320
3.58033	318
3.58400	317
3.58767	313
3.59133	312
3.59500	311
3.59867	312
3.60233	316
3.60600	317
3.60967	315
3.61333	315
3.61700	314
3.62067	315
3.62433	314
3.62800	314
3.63167	314
3.63533	314
3.63900	311
3.64267	307
3.64633	303
3.65000	299
3.65367	294
3.65733	291
3.66100	292
3.66467	294
3.66833	296
3.67200	296
3.67567	294
3.67933	292
3.68300	293
3.68667	296
3.69033	297
3.69400	295
3.69767	293
3.70133	293
3.70500	290
3.70867	288
3.71233	287
3.71600	286
3.71967	285
3.72333	282
3.72700	279
3.73067	277
3.73433	275
3.73800	273
3.74167	274
3.74533	274
3.74900	276
3.75267	278
3.75633	280
3.76000	280
3.76367	279
3.76733	279
3.77100	279
3.77467	278
3.77833	276
3.78200	273
3.78567	271
3.78933	270
3.79300	270
3.79667	270
3.80033	269
3.80400	268
3.80767	268
3.81133	268
3.81500	270
3.81867	270
3.82233	270
3.82600	270
3.82967	269
3.83333	267
3.83700	264
3.84067	262
3.84433	265
3.84800	268
3.85167	270
3.85533	270
3.85900	271
3.86267	271
3.86633	271
3.87000	270
3.87367	271
3.87733	270
3.88100	268
3.88467	265
3.88833	266
3.89200	269
3.89567	271
3.89933	273
3.90300	270
3.90667	269
3.91033	269
3.91400	267
3.91767	265
3.92133	263
3.92500	262
3.92867	262
3.93233	261
3.93600	260
3.93967	260
3.94333	259
3.94700	259
3.95067	259
3.95433	260
3.95800	260
3.96167	260
3.96533	258
3.96900	258
3.97267	258
3.97633	257
3.98000	253
3.98367	251
3.98733	251
3.99100	251
3.99467	251
3.99833	249

[Status Trace (Column Oven Temperature)]
Interval(msec)	1000
# of Points	240
Start Time(min)	0.003
End Time(min)	3.987
Intensity Units	
Intensity Multiplier	1
R.Time (min)	Intensity
0.00345	35.00
0.02012	35.01
0.03678	35.01
0.05345	34.99
0.07012	34.99
0.08678	34.99
0.10345	35.00
0.12012	34.99
0.13678	35.00
0.15345	35.01
0.17012	35.01
0.18678	35.02
0.20345	35.02
0.22012	35.03
0.23678	35.03
0.25345	35.02
0.27012	35.02
0.28678	35.01
0.30345	35.01
0.32012	35.01
0.33678	35.00
0.35345	35.00
0.37012	35.00
0.38678	35.01
0.40345	35.01
0.42012	35.00
0.43678	35.00
0.45345	35.01
0.47012	35.02
0.48678	35.02
0.50345	35.02
0.52012	35.02
0.53678	35.01
0.55345	35.01
0.57012	35.00
0.58678	34.99
0.60345	34.99
0.62012	34.98
0.63678	34.97
0.65345	34.97
0.67012	34.97
0.68678	34.98
0.70345	35.00
0.72012	35.02
0.73678	35.04
0.75345	35.04
0.77012	35.04
0.78678	35.04
0.80345	35.02
0.82012	35.00
0.83678	34.99
0.85345	34.99
0.87012	34.98
0.88678	34.97
0.90345	34.97
0.92012	34.97
0.93678	34.98
0.95345	34.98
0.97012	34.99
0.98678	34.99
1.00345	34.99
1.02012	34.99
1.03678	34.99
1.05345	35.00
1.07012	35.01
1.08678	35.00
1.10345	35.00
1.12012	35.00
1.13678	34.99
1.15345	34.99
1.17012	34.98
1.18678	34.97
1.20345	34.98
1.22012	34.98
1.23678	34.97
1.25345	34.97
1.27012	34.97
1.28678	34.98
1.30345	34.99
1.32012	34.99
1.33678	34.99
1.35345	34.99
1.37012	34.99
1.38678	34.98
1.40345	34.98
1.42012	34.98
1.43678	34.99
1.45345	34.99
1.47012	34.99
1.48678	34.99
1.50345	34.99
1.52012	35.00
1.53678	35.00
1.55345	35.00
1.57012	35.00
1.58678	35.01
1.60345	35.06
1.62012	35.16
1.63678	35.32
1.65345	35.55
1.67012	35.87
1.68678	36.23
1.70345	36.57
1.72012	36.93
1.73678	37.27
1.75345	37.58
1.77012	37.92
1.78678	38.25
1.80345	38.59
1.82012	38.92
1.83678	39.26
1.85345	39.60
1.87012	39.92
1.88678	40.25
1.90345	40.57
1.92012	40.89
1.93678	41.21
1.95345	41.54
1.97012	41.84
1.98678	42.18
2.00345	42.51
2.02012	42.83
2.03678	43.13
2.05345	43.46
2.07012	43.78
2.08678	44.11
2.10345	44.41
2.12012	44.75
2.13678	45.08
2.15345	45.39
2.17012	45.75
2.18678	46.10
2.20345	46.42
2.22012	46.75
2.23678	47.09
2.25345	47.40
2.27012	47.75
2.28678	48.12
2.30345	48.42
2.32012	48.76
2.33678	49.07
2.35345	49.37
2.37012	49.63
2.38678	49.72
2.40345	49.72
2.42012	49.73
2.43678	49.72
2.45345	49.74
2.47012	49.72
2.48678	49.73
2.50345	49.74
2.52012	49.76
2.53678	49.76
2.55345	49.79
2.57012	49.79
2.58678	49.81
2.60345	49.81
2.62012	49.80
2.63678	49.82
2.65345	49.83
2.67012	49.83
2.68678	49.85
2.70345	49.86
2.72012	49.86
2.73678	49.84
2.75345	49.85
2.77012	49.86
2.78678	49.86
2.80345	49.85
2.82012	49.85
2.83678	49.88
2.85345	49.90
2.87012	49.92
2.88678	49.94
2.90345	49.95
2.92012	49.95
2.93678	49.95
2.95345	49.94
2.97012	49.93
2.98678	49.94
3.00345	49.94
3.02012	49.95
3.03678	49.95
3.05345	49.96
3.07012	49.96
3.08678	49.97
3.10345	49.98
3.12012	49.99
3.13678	50.00
3.15345	50.02
3.17012	50.03
3.18678	50.05
3.20345	50.06
3.22012	50.06
3.23678	50.06
3.25345	50.06
3.27012	50.07
3.28678	50.08
3.30345	50.08
3.32012	50.08
3.33678	50.08
3.35345	50.09
3.37012	50.09
3.38678	50.09
3.40345	50.10
3.42012	50.09
3.43678	50.09
3.45345	50.10
3.47012	50.10
3.48678	50.10
3.50345	50.10
3.52012	50.10
3.53678	50.09
3.55345	50.07
3.57012	50.06
3.58678	50.05
3.60345	50.05
3.62012	50.04
3.63678	50.02
3.65345	50.02
3.67012	50.02
3.68678	50.03
3.70345	50.03
3.72012	50.03
3.73678	50.04
3.75345	50.03
3.77012	50.03
3.78678	50.03
3.80345	50.03
3.82012	50.04
3.83678	50.04
3.85345	50.04
3.87012	50.03
3.88678	50.03
3.90345	50.03
3.92012	50.03
3.93678	50.03
3.95345	50.04
3.97012	50.04
3.98678	50.03

[Status Trace (Injection Unit Temperature)]
Interval(msec)	1000
# of Points	240
Start Time(min)	0.003
End Time(min)	3.987
Intensity Units	
Intensity Multiplier	1
R.Time (min)	Intensity
0.00345	99.98
0.02012	99.98
0.03678	99.99
0.05345	99.98
0.07012	99.98
0.08678	99.98
0.10345	99.98
0.12012	99.98
0.13678	99.98
0.15345	99.98
0.17012	99.99
0.18678	99.99
0.20345	99.98
0.22012	99.99
0.23678	99.99
0.25345	99.99
0.27012	99.99
0.28678	99.99
0.30345	99.99
0.32012	99.99
0.33678	99.99
0.35345	99.99
0.37012	99.99
0.38678	99.98
0.40345	99.99
0.42012	99.99
0.43678	99.98
0.45345	99.98
0.47012	99.99
0.48678	99.99
0.50345	99.99
0.52012	99.99
0.53678	99.99
0.55345	99.99
0.57012	99.99
0.58678	99.99
0.60345	99.99
0.62012	99.99
0.63678	99.99
0.65345	99.99
0.67012	99.99
0.68678	99.99
0.70345	99.99
0.72012	99.99
0.73678	99.99
0.75345	99.99
0.77012	99.99
0.78678	99.99
0.80345	99.99
0.82012	99.99
0.83678	99.99
0.85345	99.99
0.87012	99.99
0.88678	99.99
0.90345	99.98
0.92012	99.99
0.93678	99.99
0.95345	99.98
0.97012	99.98
0.98678	99.99
1.00345	99.98
1.02012	99.98
1.03678	99.99
1.05345	99.99
1.07012	99.99
1.08678	99.99
1.10345	99.99
1.12012	99.99
1.13678	99.99
1.15345	99.99
1.17012	99.99
1.18678	99.99
1.20345	99.99
1.22012	99.99
1.23678	99.99
1.25345	99.99
1.27012	99.99
1.28678	99.99
1.30345	99.99
1.32012	99.99
1.33678	99.99
1.35345	99.99
1.37012	99.99
1.38678	99.99
1.40345	99.99
1.42012	99.99
1.43678	99.99
1.45345	99.99
1.47012	99.99
1.48678	99.99
1.50345	99.99
1.52012	99.99
1.53678	99.99
1.55345	100.00
1.57012	99.99
1.58678	99.99
1.60345	99.99
1.62012	99.99
1.63678	99.99
1.65345	99.99
1.67012	99.99
1.68678	99.99
1.70345	99.99
1.72012	99.99
1.73678	99.99
1.75345	99.99
1.77012	99.99
1.78678	99.99
1.80345	99.99
1.82012	99.99
1.83678	99.99
1.85345	99.99
1.87012	99.99
1.88678	99.99
1.90345	99.99
1.92012	99.99
1.93678	99.99
1.95345	99.98
1.97012	99.98
1.98678	99.98
2.00345	99.98
2.02012	99.98
2.03678	99.98
2.05345	99.98
2.07012	99.98
2.08678	99.98
2.10345	99.98
2.12012	99.98
2.13678	99.98
2.15345	99.98
2.17012	99.97
2.18678	99.97
2.20345	99.97
2.22012	99.97
2.23678	99.97
2.25345	99.97
2.27012	99.97
2.28678	99.97
2.30345	99.97
2.32012	99.97
2.33678	99.97
2.35345	99.97
2.37012	99.97
2.38678	99.97
2.40345	99.97
2.42012	99.98
2.43678	99.97
2.45345	99.97
2.47012	99.97
2.48678	99.97
2.50345	99.97
2.52012	99.98
2.53678	99.98
2.55345	99.97
2.57012	99.97
2.58678	99.98
2.60345	99.98
2.62012	99.98
2.63678	99.98
2.65345	99.99
2.67012	99.98
2.68678	99.99
2.70345	99.99
2.72012	99.99
2.73678	99.99
2.75345	100.00
2.77012	99.99
2.78678	100.00
2.80345	100.00
2.82012	100.00
2.83678	100.00
2.85345	100.00
2.87012	100.00
2.88678	100.01
2.90345	100.00
2.92012	100.01
2.93678	100.01
2.95345	100.01
2.97012	100.01
2.98678	100.01
3.00345	100.01
3.02012	100.02
3.03678	100.02
3.05345	100.02
3.07012	100.02
3.08678	100.02
3.10345	100.02
3.12012	100.02
3.13678	100.03
3.15345	100.02
3.17012	100.02
3.18678	100.03
3.20345	100.03
3.22012	100.03
3.23678	100.03
3.25345	100.03
3.27012	100.03
3.28678	100.03
3.30345	100.03
3.32012	100.03
3.33678	100.03
3.35345	100.03
3.37012	100.03
3.38678	100.03
3.40345	100.04
3.42012	100.04
3.43678	100.04
3.45345	100.04
3.47012	100.04
3.48678	100.04
3.50345	100.04
3.52012	100.04
3.53678	100.04
3.55345	100.04
3.57012	100.04
3.58678	100.05
3.60345	100.04
3.62012	100.04
3.63678	100.05
3.65345	100.05
3.67012	100.04
3.68678	100.05
3.70345	100.04
3.72012	100.05
3.73678	100.04
3.75345	100.05
3.77012	100.05
3.78678	100.05
3.80345	100.05
3.82012	100.05
3.83678	100.05
3.85345	100.05
3.87012	100.05
3.88678	100.05
3.90345	100.05
3.92012	100.05
3.93678	100.05
3.95345	100.05
3.97012	100.05
3.98678	100.05

[Status Trace (Carrier Gas Pressure)]
Interval(msec)	1000
# of Points	240
Start Time(min)	0.003
End Time(min)	3.987
Intensity Units	
Intensity Multiplier	1
R.Time (min)	Intensity
0.00345	58.00
0.02012	56.12
0.03678	56.46
0.05345	58.57
0.07012	59.88
0.08678	58.27
0.10345	57.97
0.12012	58.01
0.13678	58.01
0.15345	58.01
0.17012	58.00
0.18678	58.00
0.20345	58.00
0.22012	58.00
0.23678	58.00
0.25345	58.00
0.27012	58.00
0.28678	58.00
0.30345	58.00
0.32012	58.00
0.33678	58.00
0.35345	58.00
0.37012	58.00
0.38678	58.00
0.40345	58.00
0.42012	58.00
0.43678	58.00
0.45345	58.00
0.47012	58.00
0.48678	58.00
0.50345	58.00
0.52012	58.00
0.53678	58.00
0.55345	58.00
0.57012	58.00
0.58678	58.00
0.60345	58.00
0.62012	58.00
0.63678	58.00
0.65345	58.00
0.67012	58.00
0.68678	58.00
0.70345	58.00
0.72012	58.00
0.73678	58.00
0.75345	58.00
0.77012	58.00
0.78678	58.00
0.80345	58.00
0.82012	58.00
0.83678	58.00
0.85345	58.00
0.87012	58.00
0.88678	58.00
0.90345	58.00
0.92012	58.00
0.93678	58.00
0.95345	58.00
0.97012	58.00
0.98678	58.00
1.00345	58.00
1.02012	58.00
1.03678	58.00
1.05345	58.00
1.07012	58.00
1.08678	58.00
1.10345	58.00
1.12012	58.00
1.13678	58.00
1.15345	58.00
1.17012	58.00
1.18678	58.00
1.20345	58.00
1.22012	58.00
1.23678	58.00
1.25345	58.00
1.27012	58.00
1.28678	58.00
1.30345	58.00
1.32012	58.00
1.33678	58.00
1.35345	58.00
1.37012	58.00
1.38678	58.00
1.40345	58.00
1.42012	58.00
1.43678	58.00
1.45345	58.00
1.47012	58.00
1.48678	58.00
1.50345	58.00
1.52012	58.00
1.53678	58.00
1.55345	58.00
1.57012	58.00
1.58678	58.00
1.60345	58.00
1.62012	58.00
1.63678	58.00
1.65345	58.01
1.67012	58.01
1.68678	58.01
1.70345	58.00
1.72012	58.00
1.73678	58.00
1.75345	58.00
1.77012	58.00
1.78678	58.00
1.80345	58.00
1.82012	58.00
1.83678	58.00
1.85345	58.00
1.87012	58.00
1.88678	58.00
1.90345	58.00
1.92012	58.00
1.93678	58.00
1.95345	58.00
1.97012	58.00
1.98678	58.00
2.00345	58.00
2.02012	58.00
2.03678	58.00
2.05345	58.00
2.07012	58.00
2.08678	58.00
2.10345	58.00
2.12012	58.00
2.13678	58.00
2.15345	58.00
2.17012	58.00
2.18678	58.00
2.20345	58.00
2.22012	58.00
2.23678	58.00
2.25345	58.00
2.27012	58.00
2.28678	58.00
2.30345	58.00
2.32012	58.00
2.33678	58.00
2.35345	58.00
2.37012	58.00
2.38678	57.99
2.40345	57.99
2.42012	58.00
2.43678	58.00
2.45345	58.00
2.47012	58.00
2.48678	58.00
2.50345	57.96
2.52012	58.00
2.53678	57.99
2.55345	58.00
2.57012	58.00
2.58678	58.00
2.60345	58.00
2.62012	58.00
2.63678	58.00
2.65345	58.00
2.67012	58.00
2.68678	58.00
2.70345	58.00
2.72012	58.00
2.73678	58.00
2.75345	58.00
2.77012	58.00
2.78678	58.00
2.80345	58.00
2.82012	58.00
2.83678	58.00
2.85345	58.00
2.87012	58.00
2.88678	58.00
2.90345	58.00
2.92012	58.00
2.93678	58.00
2.95345	58.00
2.97012	58.00
2.98678	58.00
3.00345	58.00
3.02012	58.00
3.03678	58.00
3.05345	58.00
3.07012	58.00
3.08678	58.00
3.10345	58.00
3.12012	58.00
3.13678	58.00
3.15345	58.00
3.17012	58.00
3.18678	58.00
3.20345	58.00
3.22012	58.00
3.23678	58.00
3.25345	58.00
3.27012	58.00
3.28678	58.00
3.30345	58.00
3.32012	58.00
3.33678	58.00
3.35345	58.00
3.37012	58.00
3.38678	58.00
3.40345	58.00
3.42012	58.00
3.43678	58.00
3.45345	58.00
3.47012	58.00
3.48678	58.00
3.50345	58.00
3.52012	58.00
3.53678	58.00
3.55345	58.00
3.57012	58.00
3.58678	58.00
3.60345	58.00
3.62012	58.00
3.63678	58.00
3.65345	58.00
3.67012	58.00
3.68678	58.00
3.70345	58.00
3.72012	58.00
3.73678	58.00
3.75345	58.00
3.77012	58.00
3.78678	58.00
3.80345	58.00
3.82012	58.00
3.83678	58.00
3.85345	58.00
3.87012	58.00
3.88678	58.00
3.90345	58.00
3.92012	58.00
3.93678	58.00
3.95345	58.00
3.97012	58.00
3.98678	58.00

[Status Trace (Carrier Gas Flow)]
Interval(msec)	1000
# of Points	240
Start Time(min)	0.003
End Time(min)	3.987
Intensity Units	
Intensity Multiplier	1
R.Time (min)	Intensity
0.00345	34.51
0.02012	34.61
0.03678	34.53
0.05345	34.54
0.07012	34.50
0.08678	34.52
0.10345	34.52
0.12012	34.52
0.13678	34.52
0.15345	34.52
0.17012	34.52
0.18678	34.52
0.20345	34.52
0.22012	34.52
0.23678	34.52
0.25345	34.52
0.27012	34.52
0.28678	34.52
0.30345	34.52
0.32012	34.52
0.33678	34.52
0.35345	34.52
0.37012	34.52
0.38678	34.52
0.40345	34.52
0.42012	34.52
0.43678	34.52
0.45345	34.52
0.47012	34.52
0.48678	34.52
0.50345	34.52
0.52012	34.52
0.53678	34.52
0.55345	34.52
0.57012	34.52
0.58678	34.52
0.60345	34.52
0.62012	34.52
0.63678	34.52
0.65345	34.52
0.67012	34.52
0.68678	34.52
0.70345	34.52
0.72012	34.51
0.73678	34.51
0.75345	34.52
0.77012	34.52
0.78678	34.54
0.80345	34.52
0.82012	34.52
0.83678	34.52
0.85345	34.52
0.87012	34.52
0.88678	34.52
0.90345	34.52
0.92012	34.52
0.93678	34.52
0.95345	34.52
0.97012	34.52
0.98678	34.52
1.00345	34.52
1.02012	34.52
1.03678	34.52
1.05345	34.52
1.07012	34.53
1.08678	34.52
1.10345	34.52
1.12012	34.52
1.13678	34.52
1.15345	34.52
1.17012	34.52
1.18678	34.52
1.20345	34.52
1.22012	34.52
1.23678	34.52
1.25345	34.52
1.27012	34.52
1.28678	34.52
1.30345	34.52
1.32012	34.52
1.33678	34.52
1.35345	34.52
1.37012	34.52
1.38678	34.52
1.40345	34.52
1.42012	34.52
1.43678	34.52
1.45345	34.52
1.47012	34.52
1.48678	34.52
1.50345	34.52
1.52012	34.52
1.53678	34.52
1.55345	34.52
1.57012	34.52
1.58678	34.52
1.60345	34.52
1.62012	34.52
1.63678	34.52
1.65345	34.52
1.67012	34.52
1.68678	34.52
1.70345	34.52
1.72012	34.52
1.73678	34.52
1.75345	34.52
1.77012	34.52
1.78678	34.52
1.80345	34.52
1.82012	34.52
1.83678	34.52
1.85345	34.52
1.87012	34.52
1.88678	34.52
1.90345	34.52
1.92012	34.52
1.93678	34.52
1.95345	34.52
1.97012	34.52
1.98678	34.52
2.00345	34.52
2.02012	34.52
2.03678	34.52
2.05345	34.52
2.07012	34.52
2.08678	34.52
2.10345	34.52
2.12012	34.52
2.13678	34.52
2.15345	34.52
2.17012	34.52
2.18678	34.52
2.20345	34.52
2.22012	34.52
2.23678	34.51
2.25345	34.52
2.27012	34.52
2.28678	34.52
2.30345	34.52
2.32012	34.52
2.33678	34.52
2.35345	34.52
2.37012	34.51
2.38678	34.54
2.40345	34.52
2.42012	34.52
2.43678	34.52
2.45345	34.52
2.47012	34.52
2.48678	34.52
2.50345	34.63
2.52012	34.52
2.53678	34.52
2.55345	34.52
2.57012	34.52
2.58678	34.52
2.60345	34.53
2.62012	34.52
2.63678	34.52
2.65345	34.52
2.67012	34.52
2.68678	34.52
2.70345	34.52
2.72012	34.52
2.73678	34.52
2.75345	34.52
2.77012	34.52
2.78678	34.52
2.80345	34.52
2.82012	34.52
2.83678	34.52
2.85345	34.52
2.87012	34.52
2.88678	34.52
2.90345	34.52
2.92012	34.52
2.93678	34.52
2.95345	34.52
2.97012	34.52
2.98678	34.52
3.00345	34.52
3.02012	34.52
3.03678	34.52
3.05345	34.52
3.07012	34.52
3.08678	34.52
3.10345	34.52
3.12012	34.52
3.13678	34.52
3.15345	34.52
3.17012	34.52
3.18678	34.52
3.20345	34.52
3.22012	34.52
3.23678	34.52
3.25345	34.52
3.27012	34.52
3.28678	34.52
3.30345	34.52
3.32012	34.52
3.33678	34.52
3.35345	34.52
3.37012	34.52
3.38678	34.52
3.40345	34.52
3.42012	34.52
3.43678	34.52
3.45345	34.52
3.47012	34.52
3.48678	34.52
3.50345	34.52
3.52012	34.52
3.53678	34.52
3.55345	34.52
3.57012	34.52
3.58678	34.52
3.60345	34.52
3.62012	34.52
3.63678	34.52
3.65345	34.52
3.67012	34.52
3.68678	34.52
3.70345	34.52
3.72012	34.52
3.73678	34.52
3.75345	34.52
3.77012	34.52
3.78678	34.52
3.80345	34.52
3.82012	34.52
3.83678	34.52
3.85345	34.52
3.87012	34.52
3.88678	34.52
3.90345	34.52
3.92012	34.52
3.93678	34.52
3.95345	34.52
3.97012	34.52
3.98678	34.52

[Status Trace (Column Flow)]
Interval(msec)	1000
# of Points	240
Start Time(min)	0.003
End Time(min)	3.987
Intensity Units	
Intensity Multiplier	1
R.Time (min)	Intensity
0.00345	5.51
0.02012	5.29
0.03678	5.33
0.05345	5.57
0.07012	5.73
0.08678	5.54
0.10345	5.50
0.12012	5.51
0.13678	5.51
0.15345	5.51
0.17012	5.51
0.18678	5.51
0.20345	5.51
0.22012	5.51
0.23678	5.51
0.25345	5.51
0.27012	5.51
0.28678	5.51
0.30345	5.51
0.32012	5.51
0.33678	5.51
0.35345	5.51
0.37012	5.51
0.38678	5.51
0.40345	5.51
0.42012	5.51
0.43678	5.51
0.45345	5.51
0.47012	5.51
0.48678	5.51
0.50345	5.51
0.52012	5.51
0.53678	5.51
0.55345	5.51
0.57012	5.51
0.58678	5.51
0.60345	5.51
0.62012	5.51
0.63678	5.51
0.65345	5.51
0.67012	5.51
0.68678	5.51
0.70345	5.51
0.72012	5.51
0.73678	5.50
0.75345	5.50
0.77012	5.50
0.78678	5.50
0.80345	5.50
0.82012	5.51
0.83678	5.51
0.85345	5.51
0.87012	5.51
0.88678	5.51
0.90345	5.51
0.92012	5.51
0.93678	5.51
0.95345	5.51
0.97012	5.51
0.98678	5.51
1.00345	5.51
1.02012	5.51
1.03678	5.51
1.05345	5.51
1.07012	5.51
1.08678	5.51
1.10345	5.51
1.12012	5.51
1.13678	5.51
1.15345	5.51
1.17012	5.51
1.18678	5.51
1.20345	5.51
1.22012	5.51
1.23678	5.51
1.25345	5.51
1.27012	5.51
1.28678	5.51
1.30345	5.51
1.32012	5.51
1.33678	5.51
1.35345	5.51
1.37012	5.51
1.38678	5.51
1.40345	5.51
1.42012	5.51
1.43678	5.51
1.45345	5.51
1.47012	5.51
1.48678	5.51
1.50345	5.51
1.52012	5.51
1.53678	5.51
1.55345	5.51
1.57012	5.51
1.58678	5.51
1.60345	5.50
1.62012	5.50
1.63678	5.50
1.65345	5.49
1.67012	5.48
1.68678	5.47
1.70345	5.46
1.72012	5.45
1.73678	5.44
1.75345	5.43
1.77012	5.42
1.78678	5.41
1.80345	5.40
1.82012	5.39
1.83678	5.37
1.85345	5.37
1.87012	5.36
1.88678	5.34
1.90345	5.34
1.92012	5.33
1.93678	5.32
1.95345	5.31
1.97012	5.30
1.98678	5.29
2.00345	5.28
2.02012	5.27
2.03678	5.26
2.05345	5.25
2.07012	5.24
2.08678	5.23
2.10345	5.22
2.12012	5.21
2.13678	5.20
2.15345	5.19
2.17012	5.18
2.18678	5.17
2.20345	5.16
2.22012	5.16
2.23678	5.15
2.25345	5.14
2.27012	5.13
2.28678	5.12
2.30345	5.11
2.32012	5.10
2.33678	5.09
2.35345	5.08
2.37012	5.07
2.38678	5.07
2.40345	5.07
2.42012	5.07
2.43678	5.07
2.45345	5.07
2.47012	5.07
2.48678	5.07
2.50345	5.07
2.52012	5.07
2.53678	5.07
2.55345	5.07
2.57012	5.07
2.58678	5.07
2.60345	5.07
2.62012	5.07
2.63678	5.07
2.65345	5.07
2.67012	5.07
2.68678	5.07
2.70345	5.07
2.72012	5.07
2.73678	5.07
2.75345	5.07
2.77012	5.07
2.78678	5.07
2.80345	5.07
2.82012	5.07
2.83678	5.07
2.85345	5.07
2.87012	5.07
2.88678	5.07
2.90345	5.07
2.92012	5.07
2.93678	5.07
2.95345	5.07
2.97012	5.07
2.98678	5.07
3.00345	5.07
3.02012	5.07
3.03678	5.07
3.05345	5.07
3.07012	5.07
3.08678	5.06
3.10345	5.06
3.12012	5.06
3.13678	5.06
3.15345	5.06
3.17012	5.06
3.18678	5.06
3.20345	5.06
3.22012	5.06
3.23678	5.06
3.25345	5.06
3.27012	5.06
3.28678	5.06
3.30345	5.06
3.32012	5.06
3.33678	5.06
3.35345	5.06
3.37012	5.06
3.38678	5.06
3.40345	5.06
3.42012	5.06
3.43678	5.06
3.45345	5.06
3.47012	5.06
3.48678	5.06
3.50345	5.06
3.52012	5.06
3.53678	5.06
3.55345	5.06
3.57012	5.06
3.58678	5.06
3.60345	5.06
3.62012	5.06
3.63678	5.06
3.65345	5.06
3.67012	5.06
3.68678	5.06
3.70345	5.06
3.72012	5.06
3.73678	5.06
3.75345	5.06
3.77012	5.06
3.78678	5.06
3.80345	5.06
3.82012	5.06
3.83678	5.06
3.85345	5.06
3.87012	5.06
3.88678	5.06
3.90345	5.06
3.92012	5.06
3.93678	5.06
3.95345	5.06
3.97012	5.06
3.98678	5.06

[Status Trace (Linear Velocity)]
Interval(msec)	1000
# of Points	240
Start Time(min)	0.003
End Time(min)	3.987
Intensity Units	
Intensity Multiplier	1
R.Time (min)	Intensity
0.00345	39.01
0.02012	37.78
0.03678	38.00
0.05345	39.39
0.07012	40.24
0.08678	39.19
0.10345	38.99
0.12012	39.02
0.13678	39.02
0.15345	39.02
0.17012	39.01
0.18678	39.01
0.20345	39.01
0.22012	39.01
0.23678	39.01
0.25345	39.01
0.27012	39.01
0.28678	39.01
0.30345	39.01
0.32012	39.01
0.33678	39.01
0.35345	39.01
0.37012	39.01
0.38678	39.01
0.40345	39.01
0.42012	39.01
0.43678	39.01
0.45345	39.01
0.47012	39.01
0.48678	39.01
0.50345	39.01
0.52012	39.01
0.53678	39.01
0.55345	39.01
0.57012	39.01
0.58678	39.01
0.60345	39.01
0.62012	39.02
0.63678	39.02
0.65345	39.02
0.67012	39.02
0.68678	39.02
0.70345	39.01
0.72012	39.01
0.73678	39.01
0.75345	39.01
0.77012	39.01
0.78678	39.01
0.80345	39.01
0.82012	39.01
0.83678	39.01
0.85345	39.01
0.87012	39.02
0.88678	39.02
0.90345	39.02
0.92012	39.02
0.93678	39.01
0.95345	39.02
0.97012	39.01
0.98678	39.01
1.00345	39.01
1.02012	39.01
1.03678	39.01
1.05345	39.01
1.07012	39.01
1.08678	39.01
1.10345	39.01
1.12012	39.01
1.13678	39.01
1.15345	39.01
1.17012	39.01
1.18678	39.02
1.20345	39.02
1.22012	39.02
1.23678	39.02
1.25345	39.02
1.27012	39.02
1.28678	39.02
1.30345	39.01
1.32012	39.01
1.33678	39.01
1.35345	39.01
1.37012	39.01
1.38678	39.01
1.40345	39.01
1.42012	39.02
1.43678	39.01
1.45345	39.01
1.47012	39.01
1.48678	39.01
1.50345	39.01
1.52012	39.01
1.53678	39.01
1.55345	39.01
1.57012	39.01
1.58678	39.01
1.60345	39.01
1.62012	39.00
1.63678	38.99
1.65345	38.97
1.67012	38.94
1.68678	38.90
1.70345	38.87
1.72012	38.83
1.73678	38.80
1.75345	38.77
1.77012	38.74
1.78678	38.70
1.80345	38.67
1.82012	38.64
1.83678	38.61
1.85345	38.58
1.87012	38.55
1.88678	38.52
1.90345	38.49
1.92012	38.46
1.93678	38.43
1.95345	38.40
1.97012	38.37
1.98678	38.34
2.00345	38.31
2.02012	38.28
2.03678	38.25
2.05345	38.22
2.07012	38.19
2.08678	38.16
2.10345	38.13
2.12012	38.10
2.13678	38.07
2.15345	38.04
2.17012	38.01
2.18678	37.98
2.20345	37.95
2.22012	37.92
2.23678	37.89
2.25345	37.86
2.27012	37.83
2.28678	37.80
2.30345	37.77
2.32012	37.74
2.33678	37.71
2.35345	37.69
2.37012	37.66
2.38678	37.65
2.40345	37.65
2.42012	37.65
2.43678	37.65
2.45345	37.65
2.47012	37.65
2.48678	37.65
2.50345	37.63
2.52012	37.65
2.53678	37.65
2.55345	37.65
2.57012	37.65
2.58678	37.65
2.60345	37.65
2.62012	37.65
2.63678	37.65
2.65345	37.64
2.67012	37.64
2.68678	37.64
2.70345	37.64
2.72012	37.64
2.73678	37.64
2.75345	37.64
2.77012	37.64
2.78678	37.64
2.80345	37.64
2.82012	37.64
2.83678	37.64
2.85345	37.64
2.87012	37.64
2.88678	37.63
2.90345	37.63
2.92012	37.63
2.93678	37.63
2.95345	37.63
2.97012	37.63
2.98678	37.63
3.00345	37.63
3.02012	37.63
3.03678	37.63
3.05345	37.63
3.07012	37.63
3.08678	37.63
3.10345	37.63
3.12012	37.63
3.13678	37.63
3.15345	37.63
3.17012	37.63
3.18678	37.62
3.20345	37.62
3.22012	37.62
3.23678	37.62
3.25345	37.62
3.27012	37.62
3.28678	37.62
3.30345	37.62
3.32012	37.62
3.33678	37.62
3.35345	37.62
3.37012	37.62
3.38678	37.62
3.40345	37.62
3.42012	37.62
3.43678	37.62
3.45345	37.62
3.47012	37.62
3.48678	37.62
3.50345	37.62
3.52012	37.62
3.53678	37.62
3.55345	37.62
3.57012	37.62
3.58678	37.62
3.60345	37.62
3.62012	37.63
3.63678	37.63
3.65345	37.63
3.67012	37.63
3.68678	37.63
3.70345	37.63
3.72012	37.63
3.73678	37.63
3.75345	37.63
3.77012	37.63
3.78678	37.63
3.80345	37.63
3.82012	37.63
3.83678	37.63
3.85345	37.63
3.87012	37.63
3.88678	37.63
3.90345	37.63
3.92012	37.63
3.93678	37.63
3.95345	37.63
3.97012	37.63
3.98678	37.63

