[Header]
Application Name	LabSolutions
Version	5.110
Data File Name	C:\Users\User\Desktop\GC Analyses\Jack\UIC Prairie Sampling\10.19.22\221019_002.gcd
Output Date	1/4/2023
Output Time	2:27:28 PM

[File Information]
Type	Data File
Generated	12/5/2022 12:36:18 PM
Generated by	System Administrator
Modified	12/5/2022 12:40:38 PM
Modified by	System Administrator

[Sample Information]
Operator Name	System Administrator
Acquired	12/5/2022 12:36:37 PM
Sample Type	1:Standard
Level	1
Sample Name	221019_UICPrairie
Sample ID	221019_UICPrairie
ISTD Amount1	1
ISTD Amount2	1
ISTD Amount3	1
ISTD Amount4	1
ISTD Amount5	1
ISTD Amount6	1
ISTD Amount7	1
ISTD Amount8	1
ISTD Amount9	1
ISTD Amount10	1
ISTD Amount11	1
ISTD Amount12	1
ISTD Amount13	1
ISTD Amount14	1
ISTD Amount15	1
ISTD Amount16	1
ISTD Amount17	1
ISTD Amount18	1
ISTD Amount19	1
ISTD Amount20	1
ISTD Amount21	1
ISTD Amount22	1
ISTD Amount23	1
ISTD Amount24	1
ISTD Amount25	1
ISTD Amount26	1
ISTD Amount27	1
ISTD Amount28	1
ISTD Amount29	1
ISTD Amount30	1
ISTD Amount31	1
ISTD Amount32	1
Sample Amount	1
Dilution Factor	1
Vial#	1
Injection Volume	1
Injection Count	1
Bar Code	

[Original Files]
Data File	C:\Users\User\Desktop\GC Analyses\Jack\UIC Prairie Sampling\10.19.22\221019_002.gcd
Method File	C:\LabSolutions\Data\GHG_4min_2022\ghg3_togas_w_acet_4 min_new_int.gcm
Batch File	
Report Format File	c:\LabSolutions\System\DEFAULT.lsr

[File Description]


[Configuration]
Instrument Name	C0B7VH3-Instrument1
Instrument #	1
Line #	1
# of Detectors	3
Detector ID	DET#1	DET#2	DET#3
Detector Name	FID	PTCD	ECD
# of Channels	1	1	1

[Peak Table(Ch1)]
# of Peaks	3
Peak#	R.Time	I.Time	F.Time	Area	Height	A/H	Conc.	Mark	ID#	Name	k'	Plate #	Plate Ht.	Tailing	Resolution	Sep.Factor	Area Ratio	Height Ratio	Conc. %	Norm Conc.
1	1.465	1.424	1.534	4995	1734	2.880	100.000	   	1	CO	0.000	5234	28.661	0.000	0.000	0.000	0	0	16.667	16.667
2	1.571	1.534	1.659	20452	10175	2.010	100.000	 V 	2	CH4	0.073	11493	13.052	1.214	1.523	0.000	0	0	16.667	16.667
3	2.000	1.952	2.521	2087946	982820	2.124	400.000	   	3	CO2	0.365	17069	8.788	1.288	7.159	5.034	0	0	66.667	66.667

[Peak Table(Ch2)]
# of Peaks	0

[Peak Table(Ch3)]
# of Peaks	4
Peak#	R.Time	I.Time	F.Time	Area	Height	A/H	Conc.	Mark	ID#	Name	k'	Plate #	Plate Ht.	Tailing	Resolution	Sep.Factor	Area Ratio	Height Ratio	Conc. %	Norm Conc.
1	2.469	2.268	2.495	1856	351	5.294	0.000	   			0.000	4273	35.103	0.000	0.000	0.000	0	0	0.000	0.000
2	2.517	2.495	2.550	929	309	3.006	0.000	 V 			0.019	1048	143.128	0.000	0.206	0.000	0	0	0.000	0.000
3	2.605	2.550	2.656	1493	338	4.411	0.000	 V 			0.055	2801	53.561	0.000	0.347	2.846	0	0	0.000	0.000
4	2.891	2.671	3.815	74578	17055	4.373	1.000	   	1	N2O	0.171	12512	11.989	1.645	1.905	3.108	0	0	100.000	100.000

[Compound Results(Ch1)]
# of IDs	6
ID#	Name	R.Time	Area	Height	Conc.	Curve	3rd	2nd	1st	Constant	Area Ratio	Height Ratio	Conc. %	Norm Conc.
1	CO	1.465	4995	1734	100.000	Linear	0.000000e+00	0.000000e+00	4.995470e+001	0.000000e+00	0	0	16.667	16.667
2	CH4	1.571	20452	10175	100.000	Linear	0.000000e+00	0.000000e+00	2.045168e+002	0.000000e+00	0	0	16.667	16.667
3	CO2	2.000	2087946	982820	400.000	Linear	0.000000e+00	0.000000e+00	5.219866e+003	0.000000e+00	0	0	66.667	66.667
4	Ethylene	0.000	0	0	0.000	Linear	0.000000e+00	0.000000e+00	0.000000e+00	0.000000e+00	0	0	0.000	0.000
5	Acetylene	0.000	0	0	0.000	Linear	0.000000e+00	0.000000e+00	0.000000e+00	0.000000e+00	0	0	0.000	0.000
6	Ethane	0.000	0	0	0.000	Linear	0.000000e+00	0.000000e+00	0.000000e+00	0.000000e+00	0	0	0.000	0.000

[Compound Results(Ch2)]
# of IDs	5
ID#	Name	R.Time	Area	Height	Conc.	Curve	3rd	2nd	1st	Constant	Area Ratio	Height Ratio	Conc. %	Norm Conc.
1	Hydrogen	0.000	0	0	0.000	Linear	0.000000e+00	0.000000e+00	0.000000e+00	0.000000e+00	0	0	0.000	0.000
2	Oxygen	0.000	0	0	0.000	Linear	0.000000e+00	0.000000e+00	0.000000e+00	0.000000e+00	0	0	0.000	0.000
3	Nitrogen	0.000	0	0	0.000	Linear	0.000000e+00	0.000000e+00	0.000000e+00	0.000000e+00	0	0	0.000	0.000
4	Methane	0.000	0	0	0.000	Linear	0.000000e+00	0.000000e+00	0.000000e+00	0.000000e+00	0	0	0.000	0.000
5	Carbon Monoxide	0.000	0	0	0.000	Linear	0.000000e+00	0.000000e+00	0.000000e+00	0.000000e+00	0	0	0.000	0.000

[Compound Results(Ch3)]
# of IDs	2
ID#	Name	R.Time	Area	Height	Conc.	Curve	3rd	2nd	1st	Constant	Area Ratio	Height Ratio	Conc. %	Norm Conc.
1	N2O	2.891	74578	17055	1.000	Linear	0.000000e+00	0.000000e+00	7.457777e+004	0.000000e+00	0	0	100.000	100.000
2	SF6	0.000	0	0	0.000	Linear	0.000000e+00	0.000000e+00	0.000000e+00	0.000000e+00	0	0	0.000	0.000

[Group Results(Ch1)]
# of Groups	0

[Group Results(Ch2)]
# of Groups	0

[Group Results(Ch3)]
# of Groups	0

[Chromatogram (Ch1)]
Interval(msec)	220
# of Points	1091
Start Time(min)	0.002
End Time(min)	3.998
R.Time (min)	Intensity
0.00167	-7
0.00533	-12
0.00900	-16
0.01267	-20
0.01633	-21
0.02000	-18
0.02367	-14
0.02733	-11
0.03100	-9
0.03467	-7
0.03833	-4
0.04200	-0
0.04567	1
0.04933	4
0.05300	8
0.05667	11
0.06033	15
0.06400	16
0.06767	12
0.07133	4
0.07500	-3
0.07867	-9
0.08233	-12
0.08600	-14
0.08967	-16
0.09333	-16
0.09700	-13
0.10067	-8
0.10433	-3
0.10800	-0
0.11167	-0
0.11533	-1
0.11900	-2
0.12267	-3
0.12633	-5
0.13000	-9
0.13367	-13
0.13733	-17
0.14100	-17
0.14467	-14
0.14833	-8
0.15200	1
0.15567	8
0.15933	12
0.16300	15
0.16667	13
0.17033	2
0.17400	-8
0.17767	-16
0.18133	-20
0.18500	-22
0.18867	-24
0.19233	-28
0.19600	-30
0.19967	-28
0.20333	-24
0.20700	-22
0.21067	-21
0.21433	-19
0.21800	-19
0.22167	-18
0.22533	-13
0.22900	-5
0.23267	-0
0.23633	1
0.24000	-0
0.24367	1
0.24733	1
0.25100	-2
0.25467	-8
0.25833	-11
0.26200	-12
0.26567	-14
0.26933	-18
0.27300	-20
0.27667	-18
0.28033	-17
0.28400	-19
0.28767	-24
0.29133	-26
0.29500	-25
0.29867	-21
0.30233	-15
0.30600	-10
0.30967	-6
0.31333	-4
0.31700	-6
0.32067	-6
0.32433	-5
0.32800	-3
0.33167	-6
0.33533	-11
0.33900	-15
0.34267	-15
0.34633	-10
0.35000	-7
0.35367	-8
0.35733	-14
0.36100	-19
0.36467	-20
0.36833	-16
0.37200	-14
0.37567	-13
0.37933	-12
0.38300	-8
0.38667	-4
0.39033	1
0.39400	4
0.39767	0
0.40133	-9
0.40500	-17
0.40867	-20
0.41233	-19
0.41600	-15
0.41967	-11
0.42333	-9
0.42700	-9
0.43067	-11
0.43433	-14
0.43800	-16
0.44167	-16
0.44533	-17
0.44900	-19
0.45267	-19
0.45633	-19
0.46000	-24
0.46367	-28
0.46733	-28
0.47100	-23
0.47467	-18
0.47833	-14
0.48200	-12
0.48567	-14
0.48933	-20
0.49300	-25
0.49667	-25
0.50033	-21
0.50400	-15
0.50767	-5
0.51133	3
0.51500	8
0.51867	7
0.52233	5
0.52600	4
0.52967	1
0.53333	-7
0.53700	-18
0.54067	-28
0.54433	-36
0.54800	-38
0.55167	-31
0.55533	-19
0.55900	-7
0.56267	-1
0.56633	-0
0.57000	-6
0.57367	-16
0.57733	-22
0.58100	-21
0.58467	-17
0.58833	-12
0.59200	-9
0.59567	-10
0.59933	-13
0.60300	-15
0.60667	-12
0.61033	-5
0.61400	-1
0.61767	-1
0.62133	-3
0.62500	-9
0.62867	-15
0.63233	-20
0.63600	-27
0.63967	-30
0.64333	-31
0.64700	-30
0.65067	-29
0.65433	-28
0.65800	-29
0.66167	-28
0.66533	-25
0.66900	-20
0.67267	-15
0.67633	-14
0.68000	-17
0.68367	-21
0.68733	-21
0.69100	-22
0.69467	-26
0.69833	-30
0.70200	-32
0.70567	-30
0.70933	-24
0.71300	-16
0.71667	-8
0.72033	0
0.72400	2
0.72767	-1
0.73133	-6
0.73500	-13
0.73867	-19
0.74233	-24
0.74600	-30
0.74967	-38
0.75333	-42
0.75700	-40
0.76067	-32
0.76433	-24
0.76800	-22
0.77167	-24
0.77533	-26
0.77900	-26
0.78267	-23
0.78633	-18
0.79000	-12
0.79367	-8
0.79733	-9
0.80100	-11
0.80467	-11
0.80833	-8
0.81200	-4
0.81567	-1
0.81933	-0
0.82300	-4
0.82667	-11
0.83033	-16
0.83400	-22
0.83767	-29
0.84133	-32
0.84500	-29
0.84867	-23
0.85233	-18
0.85600	-16
0.85967	-15
0.86333	-14
0.86700	-12
0.87067	-9
0.87433	-8
0.87800	-7
0.88167	-4
0.88533	-2
0.88900	-3
0.89267	-6
0.89633	-10
0.90000	-15
0.90367	-20
0.90733	-19
0.91100	-16
0.91467	-13
0.91833	-18
0.92200	-25
0.92567	-32
0.92933	-38
0.93300	-35
0.93667	-29
0.94033	-23
0.94400	-21
0.94767	-21
0.95133	-20
0.95500	-19
0.95867	-19
0.96233	-19
0.96600	-18
0.96967	-17
0.97333	-13
0.97700	-13
0.98067	-15
0.98433	-19
0.98800	-21
0.99167	-20
0.99533	-21
0.99900	-22
1.00267	-20
1.00633	-16
1.01000	-11
1.01367	-9
1.01733	-11
1.02100	-14
1.02467	-14
1.02833	-13
1.03200	-10
1.03567	-7
1.03933	-3
1.04300	-1
1.04667	0
1.05033	-0
1.05400	1
1.05767	-0
1.06133	-2
1.06500	-4
1.06867	-1
1.07233	0
1.07600	1
1.07967	-0
1.08333	-3
1.08700	-4
1.09067	-6
1.09433	-10
1.09800	-18
1.10167	-26
1.10533	-27
1.10900	-23
1.11267	-20
1.11633	-22
1.12000	-29
1.12367	-34
1.12733	-38
1.13100	-39
1.13467	-36
1.13833	-31
1.14200	-27
1.14567	-25
1.14933	-27
1.15300	-28
1.15667	-26
1.16033	-22
1.16400	-16
1.16767	-12
1.17133	-8
1.17500	-4
1.17867	-0
1.18233	1
1.18600	-1
1.18967	-2
1.19333	-1
1.19700	-2
1.20067	-5
1.20433	-9
1.20800	-11
1.21167	-13
1.21533	-13
1.21900	-11
1.22267	-9
1.22633	-7
1.23000	-6
1.23367	-6
1.23733	-10
1.24100	-19
1.24467	-27
1.24833	-33
1.25200	-34
1.25567	-34
1.25933	-34
1.26300	-32
1.26667	-27
1.27033	-21
1.27400	-14
1.27767	-12
1.28133	-14
1.28500	-19
1.28867	-23
1.29233	-23
1.29600	-19
1.29967	-12
1.30333	-12
1.30700	-18
1.31067	-24
1.31433	-31
1.31800	-35
1.32167	-36
1.32533	-32
1.32900	-27
1.33267	-23
1.33633	-24
1.34000	-24
1.34367	-22
1.34733	-20
1.35100	-19
1.35467	-20
1.35833	-20
1.36200	-22
1.36567	-23
1.36933	-26
1.37300	-27
1.37667	-24
1.38033	-22
1.38400	-23
1.38767	-24
1.39133	-25
1.39500	-25
1.39867	-23
1.40233	-22
1.40600	-25
1.40967	-28
1.41333	-29
1.41700	-30
1.42067	-30
1.42433	-24
1.42800	-17
1.43167	-9
1.43533	-1
1.43900	14
1.44267	90
1.44633	361
1.45000	822
1.45367	1261
1.45733	1549
1.46100	1685
1.46467	1711
1.46833	1675
1.47200	1613
1.47567	1542
1.47933	1464
1.48300	1372
1.48667	1255
1.49033	1110
1.49400	948
1.49767	787
1.50133	640
1.50500	511
1.50867	403
1.51233	315
1.51600	250
1.51967	204
1.52333	170
1.52700	142
1.53067	120
1.53433	108
1.53800	115
1.54167	217
1.54533	631
1.54900	1632
1.55267	3271
1.55633	5238
1.56000	7118
1.56367	8641
1.56733	9688
1.57100	10155
1.57467	9914
1.57833	8944
1.58200	7452
1.58567	5784
1.58933	4240
1.59300	2977
1.59667	2027
1.60033	1353
1.60400	894
1.60767	587
1.61133	387
1.61500	261
1.61867	184
1.62233	138
1.62600	108
1.62967	88
1.63333	72
1.63700	59
1.64067	47
1.64433	35
1.64800	21
1.65167	6
1.65533	-9
1.65900	-17
1.66267	-20
1.66633	-20
1.67000	-20
1.67367	-19
1.67733	-13
1.68100	-6
1.68467	-0
1.68833	2
1.69200	2
1.69567	1
1.69933	0
1.70300	2
1.70667	4
1.71033	4
1.71400	1
1.71767	-1
1.72133	-4
1.72500	-6
1.72867	-5
1.73233	-1
1.73600	3
1.73967	3
1.74333	1
1.74700	2
1.75067	5
1.75433	12
1.75800	19
1.76167	24
1.76533	21
1.76900	13
1.77267	4
1.77633	-4
1.78000	-6
1.78367	-4
1.78733	-1
1.79100	1
1.79467	1
1.79833	-1
1.80200	-5
1.80567	-8
1.80933	-7
1.81300	-3
1.81667	2
1.82033	10
1.82400	19
1.82767	26
1.83133	29
1.83500	29
1.83867	26
1.84233	23
1.84600	20
1.84967	17
1.85333	12
1.85700	5
1.86067	-4
1.86433	-10
1.86800	-13
1.87167	-11
1.87533	-6
1.87900	1
1.88267	11
1.88633	23
1.89000	29
1.89367	30
1.89733	27
1.90100	24
1.90467	21
1.90833	20
1.91200	21
1.91567	23
1.91933	26
1.92300	29
1.92667	27
1.93033	23
1.93400	20
1.93767	20
1.94133	24
1.94500	26
1.94867	26
1.95233	28
1.95600	52
1.95967	245
1.96333	1374
1.96700	6470
1.97067	23796
1.97433	68831
1.97800	159383
1.98167	301818
1.98533	481141
1.98900	666623
1.99267	826375
1.99633	936708
2.00000	982899
2.00367	960259
2.00733	876447
2.01100	750361
2.01467	606067
2.01833	465673
2.02200	343968
2.02567	247061
2.02933	174511
2.03300	122490
2.03667	86245
2.04033	61433
2.04400	44597
2.04767	33184
2.05133	25403
2.05500	20034
2.05867	16269
2.06233	13576
2.06600	11597
2.06967	10103
2.07333	8945
2.07700	8026
2.08067	7281
2.08433	6665
2.08800	6147
2.09167	5704
2.09533	5320
2.09900	4986
2.10267	4694
2.10633	4437
2.11000	4209
2.11367	4001
2.11733	3811
2.12100	3637
2.12467	3476
2.12833	3326
2.13200	3191
2.13567	3068
2.13933	2954
2.14300	2844
2.14667	2739
2.15033	2644
2.15400	2561
2.15767	2482
2.16133	2406
2.16500	2335
2.16867	2268
2.17233	2205
2.17600	2146
2.17967	2092
2.18333	2041
2.18700	1991
2.19067	1939
2.19433	1886
2.19800	1836
2.20167	1789
2.20533	1744
2.20900	1701
2.21267	1659
2.21633	1621
2.22000	1593
2.22367	1569
2.22733	1542
2.23100	1511
2.23467	1480
2.23833	1451
2.24200	1425
2.24567	1402
2.24933	1375
2.25300	1346
2.25667	1320
2.26033	1295
2.26400	1271
2.26767	1250
2.27133	1233
2.27500	1217
2.27867	1202
2.28233	1189
2.28600	1175
2.28967	1161
2.29333	1146
2.29700	1127
2.30067	1103
2.30433	1079
2.30800	1060
2.31167	1045
2.31533	1030
2.31900	1014
2.32267	999
2.32633	987
2.33000	974
2.33367	965
2.33733	960
2.34100	953
2.34467	941
2.34833	927
2.35200	912
2.35567	901
2.35933	894
2.36300	887
2.36667	879
2.37033	869
2.37400	859
2.37767	852
2.38133	843
2.38500	834
2.38867	826
2.39233	820
2.39600	814
2.39967	812
2.40333	810
2.40700	806
2.41067	798
2.41433	787
2.41800	776
2.42167	769
2.42533	760
2.42900	749
2.43267	738
2.43633	730
2.44000	725
2.44367	724
2.44733	724
2.45100	722
2.45467	717
2.45833	710
2.46200	701
2.46567	696
2.46933	692
2.47300	688
2.47667	683
2.48033	678
2.48400	671
2.48767	666
2.49133	666
2.49500	665
2.49867	664
2.50233	660
2.50600	653
2.50967	647
2.51333	643
2.51700	641
2.52067	637
2.52433	635
2.52800	633
2.53167	628
2.53533	621
2.53900	618
2.54267	616
2.54633	611
2.55000	608
2.55367	607
2.55733	605
2.56100	601
2.56467	594
2.56833	586
2.57200	576
2.57567	566
2.57933	559
2.58300	554
2.58667	552
2.59033	551
2.59400	550
2.59767	548
2.60133	547
2.60500	544
2.60867	540
2.61233	535
2.61600	531
2.61967	529
2.62333	528
2.62700	527
2.63067	528
2.63433	530
2.63800	529
2.64167	527
2.64533	526
2.64900	526
2.65267	525
2.65633	525
2.66000	525
2.66367	523
2.66733	520
2.67100	516
2.67467	512
2.67833	509
2.68200	507
2.68567	506
2.68933	507
2.69300	508
2.69667	506
2.70033	498
2.70400	490
2.70767	487
2.71133	486
2.71500	486
2.71867	483
2.72233	477
2.72600	468
2.72967	458
2.73333	449
2.73700	445
2.74067	445
2.74433	446
2.74800	445
2.75167	445
2.75533	449
2.75900	454
2.76267	459
2.76633	460
2.77000	454
2.77367	443
2.77733	439
2.78100	444
2.78467	451
2.78833	454
2.79200	453
2.79567	448
2.79933	443
2.80300	439
2.80667	434
2.81033	427
2.81400	419
2.81767	418
2.82133	423
2.82500	428
2.82867	431
2.83233	428
2.83600	426
2.83967	425
2.84333	423
2.84700	419
2.85067	417
2.85433	417
2.85800	417
2.86167	417
2.86533	416
2.86900	415
2.87267	414
2.87633	413
2.88000	414
2.88367	417
2.88733	419
2.89100	418
2.89467	416
2.89833	414
2.90200	408
2.90567	398
2.90933	390
2.91300	385
2.91667	383
2.92033	383
2.92400	387
2.92767	393
2.93133	399
2.93500	402
2.93867	404
2.94233	402
2.94600	398
2.94967	393
2.95333	391
2.95700	393
2.96067	395
2.96433	396
2.96800	395
2.97167	392
2.97533	386
2.97900	382
2.98267	380
2.98633	380
2.99000	384
2.99367	388
2.99733	394
3.00100	398
3.00467	399
3.00833	398
3.01200	395
3.01567	391
3.01933	386
3.02300	382
3.02667	380
3.03033	379
3.03400	378
3.03767	378
3.04133	379
3.04500	378
3.04867	376
3.05233	370
3.05600	364
3.05967	359
3.06333	353
3.06700	349
3.07067	348
3.07433	351
3.07800	353
3.08167	353
3.08533	354
3.08900	354
3.09267	351
3.09633	348
3.10000	351
3.10367	359
3.10733	365
3.11100	365
3.11467	358
3.11833	348
3.12200	338
3.12567	328
3.12933	321
3.13300	320
3.13667	324
3.14033	327
3.14400	330
3.14767	332
3.15133	336
3.15500	341
3.15867	347
3.16233	353
3.16600	358
3.16967	359
3.17333	357
3.17700	353
3.18067	347
3.18433	341
3.18800	340
3.19167	340
3.19533	339
3.19900	334
3.20267	327
3.20633	321
3.21000	321
3.21367	325
3.21733	333
3.22100	341
3.22467	347
3.22833	349
3.23200	346
3.23567	336
3.23933	323
3.24300	312
3.24667	304
3.25033	299
3.25400	298
3.25767	302
3.26133	308
3.26500	314
3.26867	321
3.27233	327
3.27600	332
3.27967	333
3.28333	335
3.28700	340
3.29067	345
3.29433	345
3.29800	341
3.30167	333
3.30533	326
3.30900	320
3.31267	317
3.31633	314
3.32000	312
3.32367	310
3.32733	310
3.33100	310
3.33467	309
3.33833	306
3.34200	302
3.34567	299
3.34933	296
3.35300	292
3.35667	289
3.36033	290
3.36400	294
3.36767	303
3.37133	312
3.37500	321
3.37867	327
3.38233	331
3.38600	331
3.38967	329
3.39333	326
3.39700	321
3.40067	319
3.40433	318
3.40800	315
3.41167	312
3.41533	305
3.41900	296
3.42267	287
3.42633	282
3.43000	280
3.43367	281
3.43733	287
3.44100	295
3.44467	304
3.44833	311
3.45200	316
3.45567	316
3.45933	311
3.46300	304
3.46667	299
3.47033	296
3.47400	295
3.47767	295
3.48133	292
3.48500	289
3.48867	288
3.49233	290
3.49600	293
3.49967	298
3.50333	301
3.50700	300
3.51067	297
3.51433	291
3.51800	289
3.52167	292
3.52533	297
3.52900	299
3.53267	301
3.53633	306
3.54000	310
3.54367	307
3.54733	299
3.55100	290
3.55467	282
3.55833	276
3.56200	274
3.56567	275
3.56933	278
3.57300	282
3.57667	283
3.58033	285
3.58400	288
3.58767	288
3.59133	285
3.59500	279
3.59867	277
3.60233	281
3.60600	288
3.60967	294
3.61333	297
3.61700	296
3.62067	291
3.62433	287
3.62800	287
3.63167	287
3.63533	285
3.63900	286
3.64267	288
3.64633	287
3.65000	288
3.65367	291
3.65733	295
3.66100	296
3.66467	294
3.66833	289
3.67200	283
3.67567	277
3.67933	275
3.68300	277
3.68667	280
3.69033	285
3.69400	292
3.69767	297
3.70133	296
3.70500	291
3.70867	284
3.71233	278
3.71600	276
3.71967	275
3.72333	279
3.72700	281
3.73067	277
3.73433	274
3.73800	270
3.74167	267
3.74533	270
3.74900	279
3.75267	287
3.75633	289
3.76000	285
3.76367	277
3.76733	274
3.77100	277
3.77467	281
3.77833	285
3.78200	285
3.78567	280
3.78933	276
3.79300	274
3.79667	271
3.80033	269
3.80400	268
3.80767	270
3.81133	270
3.81500	273
3.81867	273
3.82233	270
3.82600	269
3.82967	270
3.83333	271
3.83700	273
3.84067	275
3.84433	278
3.84800	280
3.85167	279
3.85533	274
3.85900	270
3.86267	267
3.86633	266
3.87000	264
3.87367	262
3.87733	259
3.88100	259
3.88467	260
3.88833	258
3.89200	255
3.89567	251
3.89933	250
3.90300	254
3.90667	262
3.91033	268
3.91400	271
3.91767	273
3.92133	272
3.92500	269
3.92867	266
3.93233	266
3.93600	265
3.93967	265
3.94333	269
3.94700	274
3.95067	278
3.95433	279
3.95800	278
3.96167	276
3.96533	275
3.96900	275
3.97267	275
3.97633	273
3.98000	269
3.98367	266
3.98733	265
3.99100	268
3.99467	273
3.99833	279

[Chromatogram (Ch2)]
Interval(msec)	220
# of Points	1091
Start Time(min)	0.002
End Time(min)	3.998
R.Time (min)	Intensity
0.00167	0
0.00533	1
0.00900	1
0.01267	1
0.01633	1
0.02000	1
0.02367	1
0.02733	1
0.03100	1
0.03467	1
0.03833	1
0.04200	2
0.04567	2
0.04933	2
0.05300	2
0.05667	2
0.06033	2
0.06400	2
0.06767	3
0.07133	3
0.07500	3
0.07867	3
0.08233	3
0.08600	3
0.08967	3
0.09333	3
0.09700	3
0.10067	3
0.10433	3
0.10800	3
0.11167	3
0.11533	3
0.11900	3
0.12267	4
0.12633	4
0.13000	4
0.13367	4
0.13733	4
0.14100	4
0.14467	4
0.14833	4
0.15200	4
0.15567	4
0.15933	4
0.16300	4
0.16667	4
0.17033	4
0.17400	4
0.17767	4
0.18133	4
0.18500	3
0.18867	3
0.19233	3
0.19600	3
0.19967	3
0.20333	3
0.20700	2
0.21067	2
0.21433	2
0.21800	2
0.22167	2
0.22533	2
0.22900	2
0.23267	1
0.23633	1
0.24000	1
0.24367	1
0.24733	1
0.25100	1
0.25467	1
0.25833	1
0.26200	1
0.26567	1
0.26933	1
0.27300	1
0.27667	1
0.28033	1
0.28400	0
0.28767	0
0.29133	0
0.29500	0
0.29867	0
0.30233	0
0.30600	0
0.30967	0
0.31333	0
0.31700	0
0.32067	0
0.32433	1
0.32800	1
0.33167	1
0.33533	1
0.33900	1
0.34267	1
0.34633	1
0.35000	1
0.35367	1
0.35733	1
0.36100	1
0.36467	1
0.36833	1
0.37200	1
0.37567	1
0.37933	1
0.38300	1
0.38667	1
0.39033	1
0.39400	1
0.39767	1
0.40133	2
0.40500	2
0.40867	2
0.41233	3
0.41600	3
0.41967	3
0.42333	4
0.42700	4
0.43067	4
0.43433	4
0.43800	3
0.44167	3
0.44533	3
0.44900	3
0.45267	3
0.45633	3
0.46000	3
0.46367	2
0.46733	2
0.47100	2
0.47467	2
0.47833	2
0.48200	2
0.48567	2
0.48933	2
0.49300	2
0.49667	2
0.50033	2
0.50400	2
0.50767	2
0.51133	2
0.51500	2
0.51867	2
0.52233	3
0.52600	3
0.52967	3
0.53333	3
0.53700	3
0.54067	3
0.54433	3
0.54800	3
0.55167	3
0.55533	3
0.55900	3
0.56267	3
0.56633	3
0.57000	2
0.57367	2
0.57733	2
0.58100	2
0.58467	1
0.58833	1
0.59200	1
0.59567	1
0.59933	1
0.60300	0
0.60667	0
0.61033	0
0.61400	1
0.61767	1
0.62133	1
0.62500	1
0.62867	1
0.63233	1
0.63600	1
0.63967	1
0.64333	1
0.64700	1
0.65067	1
0.65433	1
0.65800	0
0.66167	0
0.66533	0
0.66900	0
0.67267	0
0.67633	0
0.68000	0
0.68367	1
0.68733	1
0.69100	1
0.69467	2
0.69833	2
0.70200	2
0.70567	2
0.70933	2
0.71300	2
0.71667	2
0.72033	2
0.72400	2
0.72767	2
0.73133	2
0.73500	2
0.73867	2
0.74233	2
0.74600	2
0.74967	3
0.75333	3
0.75700	3
0.76067	3
0.76433	3
0.76800	2
0.77167	2
0.77533	2
0.77900	2
0.78267	2
0.78633	2
0.79000	1
0.79367	1
0.79733	1
0.80100	1
0.80467	1
0.80833	1
0.81200	2
0.81567	2
0.81933	2
0.82300	2
0.82667	1
0.83033	1
0.83400	1
0.83767	2
0.84133	2
0.84500	2
0.84867	1
0.85233	1
0.85600	1
0.85967	0
0.86333	0
0.86700	-0
0.87067	-0
0.87433	-0
0.87800	-0
0.88167	-0
0.88533	0
0.88900	1
0.89267	1
0.89633	1
0.90000	1
0.90367	1
0.90733	1
0.91100	1
0.91467	1
0.91833	1
0.92200	1
0.92567	1
0.92933	1
0.93300	1
0.93667	1
0.94033	1
0.94400	0
0.94767	0
0.95133	0
0.95500	-0
0.95867	-0
0.96233	-0
0.96600	-0
0.96967	-0
0.97333	-0
0.97700	-0
0.98067	-0
0.98433	-0
0.98800	0
0.99167	0
0.99533	0
0.99900	0
1.00267	0
1.00633	0
1.01000	0
1.01367	0
1.01733	-0
1.02100	-0
1.02467	-0
1.02833	-0
1.03200	-0
1.03567	-0
1.03933	-0
1.04300	-0
1.04667	-0
1.05033	-0
1.05400	-0
1.05767	0
1.06133	0
1.06500	0
1.06867	1
1.07233	1
1.07600	1
1.07967	1
1.08333	1
1.08700	1
1.09067	1
1.09433	1
1.09800	1
1.10167	1
1.10533	1
1.10900	1
1.11267	1
1.11633	1
1.12000	1
1.12367	1
1.12733	1
1.13100	1
1.13467	1
1.13833	1
1.14200	1
1.14567	1
1.14933	1
1.15300	1
1.15667	0
1.16033	0
1.16400	-0
1.16767	-0
1.17133	-0
1.17500	-0
1.17867	-0
1.18233	-0
1.18600	-0
1.18967	-0
1.19333	-0
1.19700	-0
1.20067	-0
1.20433	-0
1.20800	-0
1.21167	0
1.21533	0
1.21900	0
1.22267	0
1.22633	1
1.23000	1
1.23367	1
1.23733	1
1.24100	1
1.24467	1
1.24833	1
1.25200	1
1.25567	1
1.25933	1
1.26300	1
1.26667	1
1.27033	2
1.27400	2
1.27767	2
1.28133	2
1.28500	2
1.28867	3
1.29233	3
1.29600	3
1.29967	3
1.30333	3
1.30700	3
1.31067	3
1.31433	3
1.31800	3
1.32167	3
1.32533	3
1.32900	3
1.33267	3
1.33633	3
1.34000	3
1.34367	3
1.34733	3
1.35100	3
1.35467	3
1.35833	2
1.36200	2
1.36567	2
1.36933	1
1.37300	1
1.37667	1
1.38033	1
1.38400	1
1.38767	1
1.39133	1
1.39500	1
1.39867	1
1.40233	1
1.40600	1
1.40967	1
1.41333	0
1.41700	0
1.42067	0
1.42433	-0
1.42800	-0
1.43167	-0
1.43533	0
1.43900	0
1.44267	1
1.44633	1
1.45000	1
1.45367	1
1.45733	1
1.46100	1
1.46467	1
1.46833	1
1.47200	1
1.47567	1
1.47933	1
1.48300	1
1.48667	1
1.49033	1
1.49400	1
1.49767	1
1.50133	1
1.50500	2
1.50867	2
1.51233	2
1.51600	2
1.51967	2
1.52333	2
1.52700	2
1.53067	2
1.53433	3
1.53800	3
1.54167	3
1.54533	3
1.54900	2
1.55267	2
1.55633	2
1.56000	2
1.56367	2
1.56733	2
1.57100	2
1.57467	2
1.57833	2
1.58200	2
1.58567	1
1.58933	1
1.59300	1
1.59667	0
1.60033	-0
1.60400	-1
1.60767	-2
1.61133	-4
1.61500	-6
1.61867	-8
1.62233	-11
1.62600	-13
1.62967	-16
1.63333	-19
1.63700	-23
1.64067	-26
1.64433	-29
1.64800	-33
1.65167	-37
1.65533	-41
1.65900	-44
1.66267	-48
1.66633	-53
1.67000	-57
1.67367	-62
1.67733	-67
1.68100	-71
1.68467	-76
1.68833	-81
1.69200	-85
1.69567	-89
1.69933	-92
1.70300	-95
1.70667	-97
1.71033	-99
1.71400	-101
1.71767	-102
1.72133	-103
1.72500	-104
1.72867	-105
1.73233	-106
1.73600	-107
1.73967	-107
1.74333	-107
1.74700	-107
1.75067	-107
1.75433	-106
1.75800	-106
1.76167	-106
1.76533	-107
1.76900	-107
1.77267	-108
1.77633	-109
1.78000	-110
1.78367	-111
1.78733	-112
1.79100	-113
1.79467	-113
1.79833	-113
1.80200	-114
1.80567	-114
1.80933	-114
1.81300	-115
1.81667	-115
1.82033	-115
1.82400	-116
1.82767	-116
1.83133	-116
1.83500	-116
1.83867	-116
1.84233	-116
1.84600	-115
1.84967	-114
1.85333	-114
1.85700	-113
1.86067	-113
1.86433	-113
1.86800	-113
1.87167	-113
1.87533	-113
1.87900	-113
1.88267	-113
1.88633	-114
1.89000	-114
1.89367	-114
1.89733	-114
1.90100	-114
1.90467	-113
1.90833	-113
1.91200	-112
1.91567	-112
1.91933	-112
1.92300	-111
1.92667	-111
1.93033	-111
1.93400	-110
1.93767	-110
1.94133	-110
1.94500	-110
1.94867	-109
1.95233	-109
1.95600	-108
1.95967	-108
1.96333	-108
1.96700	-108
1.97067	-108
1.97433	-108
1.97800	-108
1.98167	-107
1.98533	-107
1.98900	-107
1.99267	-107
1.99633	-107
2.00000	-107
2.00367	-107
2.00733	-106
2.01100	-106
2.01467	-106
2.01833	-106
2.02200	-106
2.02567	-106
2.02933	-106
2.03300	-105
2.03667	-105
2.04033	-105
2.04400	-104
2.04767	-104
2.05133	-104
2.05500	-103
2.05867	-103
2.06233	-103
2.06600	-103
2.06967	-102
2.07333	-102
2.07700	-102
2.08067	-101
2.08433	-101
2.08800	-101
2.09167	-100
2.09533	-100
2.09900	-100
2.10267	-99
2.10633	-99
2.11000	-99
2.11367	-99
2.11733	-98
2.12100	-98
2.12467	-98
2.12833	-98
2.13200	-97
2.13567	-97
2.13933	-97
2.14300	-97
2.14667	-97
2.15033	-97
2.15400	-97
2.15767	-97
2.16133	-97
2.16500	-97
2.16867	-97
2.17233	-96
2.17600	-95
2.17967	-95
2.18333	-94
2.18700	-93
2.19067	-93
2.19433	-92
2.19800	-91
2.20167	-90
2.20533	-89
2.20900	-88
2.21267	-88
2.21633	-88
2.22000	-87
2.22367	-86
2.22733	-86
2.23100	-86
2.23467	-85
2.23833	-85
2.24200	-85
2.24567	-85
2.24933	-85
2.25300	-85
2.25667	-84
2.26033	-84
2.26400	-84
2.26767	-83
2.27133	-83
2.27500	-83
2.27867	-83
2.28233	-83
2.28600	-83
2.28967	-83
2.29333	-83
2.29700	-83
2.30067	-83
2.30433	-82
2.30800	-82
2.31167	-81
2.31533	-80
2.31900	-80
2.32267	-79
2.32633	-79
2.33000	-78
2.33367	-78
2.33733	-78
2.34100	-77
2.34467	-76
2.34833	-75
2.35200	-74
2.35567	-73
2.35933	-72
2.36300	-71
2.36667	-70
2.37033	-68
2.37400	-66
2.37767	-63
2.38133	-61
2.38500	-58
2.38867	-54
2.39233	-50
2.39600	-47
2.39967	-43
2.40333	-40
2.40700	-37
2.41067	-33
2.41433	-30
2.41800	-27
2.42167	-24
2.42533	-21
2.42900	-17
2.43267	-14
2.43633	-11
2.44000	-9
2.44367	-7
2.44733	-5
2.45100	-3
2.45467	-2
2.45833	0
2.46200	2
2.46567	4
2.46933	5
2.47300	6
2.47667	7
2.48033	7
2.48400	8
2.48767	9
2.49133	10
2.49500	11
2.49867	12
2.50233	13
2.50600	13
2.50967	14
2.51333	14
2.51700	15
2.52067	15
2.52433	16
2.52800	16
2.53167	17
2.53533	17
2.53900	18
2.54267	18
2.54633	19
2.55000	19
2.55367	19
2.55733	19
2.56100	19
2.56467	20
2.56833	20
2.57200	20
2.57567	20
2.57933	21
2.58300	21
2.58667	22
2.59033	23
2.59400	24
2.59767	24
2.60133	25
2.60500	25
2.60867	25
2.61233	25
2.61600	25
2.61967	25
2.62333	26
2.62700	26
2.63067	27
2.63433	27
2.63800	27
2.64167	27
2.64533	28
2.64900	28
2.65267	28
2.65633	27
2.66000	27
2.66367	27
2.66733	27
2.67100	27
2.67467	27
2.67833	27
2.68200	27
2.68567	27
2.68933	27
2.69300	28
2.69667	28
2.70033	29
2.70400	29
2.70767	29
2.71133	29
2.71500	29
2.71867	29
2.72233	28
2.72600	29
2.72967	29
2.73333	29
2.73700	29
2.74067	29
2.74433	29
2.74800	30
2.75167	30
2.75533	30
2.75900	31
2.76267	31
2.76633	32
2.77000	32
2.77367	33
2.77733	33
2.78100	33
2.78467	33
2.78833	33
2.79200	32
2.79567	32
2.79933	32
2.80300	31
2.80667	31
2.81033	31
2.81400	31
2.81767	30
2.82133	30
2.82500	31
2.82867	31
2.83233	31
2.83600	31
2.83967	31
2.84333	31
2.84700	32
2.85067	32
2.85433	32
2.85800	31
2.86167	29
2.86533	26
2.86900	21
2.87267	12
2.87633	0
2.88000	-15
2.88367	-36
2.88733	-61
2.89100	-91
2.89467	-127
2.89833	-167
2.90200	-212
2.90567	-262
2.90933	-317
2.91300	-375
2.91667	-438
2.92033	-504
2.92400	-572
2.92767	-644
2.93133	-718
2.93500	-795
2.93867	-874
2.94233	-955
2.94600	-1037
2.94967	-1121
2.95333	-1207
2.95700	-1294
2.96067	-1380
2.96433	-1454
2.96800	-1505
2.97167	-1524
2.97533	-1507
2.97900	-1457
2.98267	-1381
2.98633	-1286
2.99000	-1181
2.99367	-1070
2.99733	-961
3.00100	-854
3.00467	-754
3.00833	-661
3.01200	-576
3.01567	-500
3.01933	-432
3.02300	-371
3.02667	-318
3.03033	-272
3.03400	-231
3.03767	-196
3.04133	-166
3.04500	-140
3.04867	-117
3.05233	-98
3.05600	-82
3.05967	-68
3.06333	-56
3.06700	-46
3.07067	-37
3.07433	-29
3.07800	-23
3.08167	-18
3.08533	-13
3.08900	-9
3.09267	-5
3.09633	-2
3.10000	0
3.10367	3
3.10733	5
3.11100	7
3.11467	8
3.11833	10
3.12200	11
3.12567	12
3.12933	13
3.13300	14
3.13667	15
3.14033	15
3.14400	16
3.14767	17
3.15133	18
3.15500	18
3.15867	19
3.16233	19
3.16600	19
3.16967	20
3.17333	20
3.17700	20
3.18067	20
3.18433	21
3.18800	21
3.19167	21
3.19533	21
3.19900	22
3.20267	22
3.20633	22
3.21000	23
3.21367	23
3.21733	23
3.22100	24
3.22467	24
3.22833	24
3.23200	24
3.23567	25
3.23933	25
3.24300	25
3.24667	25
3.25033	26
3.25400	26
3.25767	26
3.26133	27
3.26500	27
3.26867	27
3.27233	27
3.27600	28
3.27967	28
3.28333	28
3.28700	28
3.29067	28
3.29433	29
3.29800	29
3.30167	29
3.30533	29
3.30900	29
3.31267	29
3.31633	29
3.32000	29
3.32367	29
3.32733	29
3.33100	29
3.33467	29
3.33833	30
3.34200	30
3.34567	30
3.34933	30
3.35300	30
3.35667	31
3.36033	31
3.36400	31
3.36767	32
3.37133	32
3.37500	32
3.37867	32
3.38233	32
3.38600	32
3.38967	32
3.39333	32
3.39700	32
3.40067	32
3.40433	32
3.40800	32
3.41167	32
3.41533	32
3.41900	32
3.42267	32
3.42633	32
3.43000	33
3.43367	33
3.43733	33
3.44100	33
3.44467	32
3.44833	33
3.45200	33
3.45567	33
3.45933	33
3.46300	33
3.46667	33
3.47033	33
3.47400	33
3.47767	33
3.48133	33
3.48500	33
3.48867	33
3.49233	33
3.49600	33
3.49967	33
3.50333	33
3.50700	33
3.51067	33
3.51433	33
3.51800	33
3.52167	33
3.52533	33
3.52900	33
3.53267	33
3.53633	33
3.54000	33
3.54367	33
3.54733	33
3.55100	33
3.55467	33
3.55833	33
3.56200	33
3.56567	33
3.56933	34
3.57300	34
3.57667	34
3.58033	34
3.58400	34
3.58767	34
3.59133	34
3.59500	33
3.59867	33
3.60233	33
3.60600	32
3.60967	32
3.61333	32
3.61700	32
3.62067	32
3.62433	32
3.62800	32
3.63167	32
3.63533	32
3.63900	32
3.64267	32
3.64633	32
3.65000	32
3.65367	32
3.65733	32
3.66100	32
3.66467	32
3.66833	32
3.67200	32
3.67567	32
3.67933	32
3.68300	32
3.68667	32
3.69033	32
3.69400	33
3.69767	32
3.70133	32
3.70500	32
3.70867	32
3.71233	33
3.71600	33
3.71967	33
3.72333	33
3.72700	33
3.73067	33
3.73433	33
3.73800	33
3.74167	33
3.74533	32
3.74900	32
3.75267	32
3.75633	32
3.76000	32
3.76367	32
3.76733	32
3.77100	32
3.77467	32
3.77833	32
3.78200	32
3.78567	32
3.78933	32
3.79300	32
3.79667	32
3.80033	32
3.80400	32
3.80767	32
3.81133	32
3.81500	32
3.81867	32
3.82233	32
3.82600	32
3.82967	32
3.83333	31
3.83700	31
3.84067	31
3.84433	31
3.84800	30
3.85167	30
3.85533	30
3.85900	31
3.86267	31
3.86633	31
3.87000	31
3.87367	32
3.87733	32
3.88100	32
3.88467	32
3.88833	32
3.89200	33
3.89567	33
3.89933	33
3.90300	32
3.90667	32
3.91033	32
3.91400	32
3.91767	32
3.92133	32
3.92500	32
3.92867	32
3.93233	32
3.93600	32
3.93967	32
3.94333	33
3.94700	33
3.95067	33
3.95433	33
3.95800	33
3.96167	33
3.96533	34
3.96900	34
3.97267	34
3.97633	34
3.98000	34
3.98367	34
3.98733	34
3.99100	34
3.99467	33
3.99833	33

[Chromatogram (Ch3)]
Interval(msec)	220
# of Points	1091
Start Time(min)	0.002
End Time(min)	3.998
R.Time (min)	Intensity
0.00167	-1
0.00533	1
0.00900	2
0.01267	3
0.01633	6
0.02000	8
0.02367	8
0.02733	7
0.03100	5
0.03467	5
0.03833	4
0.04200	3
0.04567	4
0.04933	5
0.05300	7
0.05667	8
0.06033	7
0.06400	6
0.06767	7
0.07133	6
0.07500	7
0.07867	7
0.08233	5
0.08600	3
0.08967	2
0.09333	3
0.09700	2
0.10067	0
0.10433	-1
0.10800	-1
0.11167	2
0.11533	3
0.11900	2
0.12267	1
0.12633	1
0.13000	4
0.13367	8
0.13733	10
0.14100	7
0.14467	4
0.14833	1
0.15200	0
0.15567	0
0.15933	-1
0.16300	-2
0.16667	-1
0.17033	1
0.17400	-1
0.17767	-2
0.18133	-3
0.18500	-2
0.18867	-2
0.19233	1
0.19600	4
0.19967	7
0.20333	10
0.20700	8
0.21067	2
0.21433	1
0.21800	2
0.22167	5
0.22533	8
0.22900	10
0.23267	10
0.23633	9
0.24000	9
0.24367	8
0.24733	6
0.25100	3
0.25467	3
0.25833	3
0.26200	6
0.26567	8
0.26933	10
0.27300	8
0.27667	5
0.28033	6
0.28400	7
0.28767	8
0.29133	8
0.29500	6
0.29867	6
0.30233	8
0.30600	10
0.30967	11
0.31333	9
0.31700	6
0.32067	6
0.32433	5
0.32800	4
0.33167	3
0.33533	2
0.33900	2
0.34267	3
0.34633	5
0.35000	6
0.35367	2
0.35733	2
0.36100	3
0.36467	4
0.36833	3
0.37200	2
0.37567	-1
0.37933	-2
0.38300	-4
0.38667	-4
0.39033	-3
0.39400	-1
0.39767	1
0.40133	3
0.40500	5
0.40867	7
0.41233	6
0.41600	5
0.41967	5
0.42333	4
0.42700	5
0.43067	4
0.43433	4
0.43800	3
0.44167	3
0.44533	1
0.44900	2
0.45267	3
0.45633	3
0.46000	2
0.46367	2
0.46733	3
0.47100	4
0.47467	4
0.47833	5
0.48200	4
0.48567	3
0.48933	1
0.49300	-0
0.49667	1
0.50033	3
0.50400	4
0.50767	4
0.51133	3
0.51500	2
0.51867	2
0.52233	0
0.52600	-1
0.52967	-1
0.53333	-1
0.53700	1
0.54067	2
0.54433	1
0.54800	1
0.55167	1
0.55533	1
0.55900	1
0.56267	2
0.56633	3
0.57000	5
0.57367	4
0.57733	3
0.58100	3
0.58467	4
0.58833	5
0.59200	5
0.59567	5
0.59933	4
0.60300	3
0.60667	3
0.61033	4
0.61400	5
0.61767	7
0.62133	7
0.62500	6
0.62867	6
0.63233	4
0.63600	-0
0.63967	-4
0.64333	-3
0.64700	-1
0.65067	3
0.65433	7
0.65800	6
0.66167	4
0.66533	4
0.66900	5
0.67267	7
0.67633	7
0.68000	6
0.68367	4
0.68733	3
0.69100	5
0.69467	4
0.69833	3
0.70200	2
0.70567	1
0.70933	-2
0.71300	-2
0.71667	2
0.72033	4
0.72400	4
0.72767	2
0.73133	1
0.73500	1
0.73867	1
0.74233	-0
0.74600	-2
0.74967	-2
0.75333	-2
0.75700	-1
0.76067	-1
0.76433	-1
0.76800	-1
0.77167	-0
0.77533	2
0.77900	3
0.78267	3
0.78633	3
0.79000	2
0.79367	4
0.79733	3
0.80100	1
0.80467	-0
0.80833	0
0.81200	1
0.81567	4
0.81933	8
0.82300	10
0.82667	12
0.83033	12
0.83400	11
0.83767	11
0.84133	11
0.84500	10
0.84867	10
0.85233	11
0.85600	10
0.85967	5
0.86333	3
0.86700	2
0.87067	5
0.87433	7
0.87800	7
0.88167	4
0.88533	3
0.88900	3
0.89267	4
0.89633	3
0.90000	4
0.90367	6
0.90733	7
0.91100	10
0.91467	12
0.91833	9
0.92200	3
0.92567	-2
0.92933	-3
0.93300	-0
0.93667	4
0.94033	5
0.94400	6
0.94767	8
0.95133	9
0.95500	8
0.95867	6
0.96233	5
0.96600	4
0.96967	4
0.97333	5
0.97700	5
0.98067	5
0.98433	4
0.98800	4
0.99167	5
0.99533	7
0.99900	8
1.00267	8
1.00633	6
1.01000	6
1.01367	5
1.01733	5
1.02100	4
1.02467	2
1.02833	1
1.03200	0
1.03567	0
1.03933	1
1.04300	3
1.04667	4
1.05033	4
1.05400	5
1.05767	5
1.06133	5
1.06500	3
1.06867	2
1.07233	1
1.07600	-0
1.07967	-1
1.08333	-1
1.08700	-4
1.09067	-4
1.09433	-2
1.09800	1
1.10167	4
1.10533	4
1.10900	1
1.11267	-1
1.11633	-2
1.12000	-1
1.12367	-1
1.12733	0
1.13100	-1
1.13467	-1
1.13833	-0
1.14200	1
1.14567	1
1.14933	0
1.15300	-1
1.15667	-3
1.16033	-3
1.16400	-2
1.16767	-3
1.17133	-3
1.17500	-2
1.17867	-1
1.18233	-0
1.18600	-0
1.18967	-1
1.19333	-2
1.19700	-4
1.20067	-5
1.20433	-4
1.20800	-2
1.21167	-0
1.21533	-1
1.21900	-2
1.22267	-0
1.22633	2
1.23000	2
1.23367	1
1.23733	-2
1.24100	-2
1.24467	-3
1.24833	-3
1.25200	-2
1.25567	-2
1.25933	-1
1.26300	1
1.26667	2
1.27033	3
1.27400	3
1.27767	2
1.28133	3
1.28500	2
1.28867	2
1.29233	0
1.29600	-1
1.29967	-1
1.30333	-0
1.30700	1
1.31067	0
1.31433	2
1.31800	4
1.32167	4
1.32533	0
1.32900	-3
1.33267	-4
1.33633	-3
1.34000	-1
1.34367	-1
1.34733	-1
1.35100	-2
1.35467	-3
1.35833	-4
1.36200	-4
1.36567	-3
1.36933	-3
1.37300	-2
1.37667	-1
1.38033	-4
1.38400	-4
1.38767	-3
1.39133	-3
1.39500	-2
1.39867	-2
1.40233	-4
1.40600	-3
1.40967	-4
1.41333	-5
1.41700	-6
1.42067	-6
1.42433	-6
1.42800	-7
1.43167	-6
1.43533	-7
1.43900	-8
1.44267	-7
1.44633	-5
1.45000	-3
1.45367	-2
1.45733	0
1.46100	1
1.46467	1
1.46833	-2
1.47200	-5
1.47567	-7
1.47933	-7
1.48300	-5
1.48667	-3
1.49033	-3
1.49400	-3
1.49767	-3
1.50133	-5
1.50500	-4
1.50867	-3
1.51233	-2
1.51600	-1
1.51967	-1
1.52333	-0
1.52700	1
1.53067	1
1.53433	-2
1.53800	-4
1.54167	-5
1.54533	-8
1.54900	-8
1.55267	-6
1.55633	-5
1.56000	-3
1.56367	-2
1.56733	-2
1.57100	-4
1.57467	-4
1.57833	-3
1.58200	-2
1.58567	-2
1.58933	-0
1.59300	-0
1.59667	-0
1.60033	-2
1.60400	-4
1.60767	-6
1.61133	-5
1.61500	-3
1.61867	-1
1.62233	1
1.62600	2
1.62967	3
1.63333	2
1.63700	1
1.64067	1
1.64433	1
1.64800	1
1.65167	1
1.65533	3
1.65900	3
1.66267	3
1.66633	4
1.67000	3
1.67367	3
1.67733	7
1.68100	11
1.68467	14
1.68833	15
1.69200	15
1.69567	13
1.69933	12
1.70300	13
1.70667	15
1.71033	17
1.71400	17
1.71767	20
1.72133	20
1.72500	21
1.72867	21
1.73233	19
1.73600	19
1.73967	20
1.74333	21
1.74700	21
1.75067	22
1.75433	21
1.75800	21
1.76167	22
1.76533	23
1.76900	23
1.77267	24
1.77633	26
1.78000	27
1.78367	26
1.78733	26
1.79100	26
1.79467	28
1.79833	31
1.80200	34
1.80567	36
1.80933	36
1.81300	35
1.81667	34
1.82033	36
1.82400	38
1.82767	39
1.83133	42
1.83500	43
1.83867	44
1.84233	47
1.84600	46
1.84967	44
1.85333	41
1.85700	38
1.86067	37
1.86433	39
1.86800	41
1.87167	43
1.87533	41
1.87900	41
1.88267	43
1.88633	48
1.89000	50
1.89367	50
1.89733	49
1.90100	50
1.90467	49
1.90833	45
1.91200	44
1.91567	45
1.91933	46
1.92300	47
1.92667	50
1.93033	55
1.93400	59
1.93767	60
1.94133	60
1.94500	59
1.94867	57
1.95233	55
1.95600	55
1.95967	56
1.96333	59
1.96700	60
1.97067	60
1.97433	59
1.97800	57
1.98167	55
1.98533	56
1.98900	60
1.99267	65
1.99633	67
2.00000	69
2.00367	69
2.00733	71
2.01100	74
2.01467	75
2.01833	75
2.02200	76
2.02567	78
2.02933	79
2.03300	79
2.03667	80
2.04033	80
2.04400	82
2.04767	85
2.05133	86
2.05500	88
2.05867	89
2.06233	88
2.06600	86
2.06967	84
2.07333	83
2.07700	86
2.08067	88
2.08433	88
2.08800	89
2.09167	94
2.09533	97
2.09900	99
2.10267	102
2.10633	105
2.11000	107
2.11367	108
2.11733	110
2.12100	111
2.12467	110
2.12833	110
2.13200	110
2.13567	109
2.13933	108
2.14300	109
2.14667	109
2.15033	113
2.15400	117
2.15767	120
2.16133	121
2.16500	122
2.16867	123
2.17233	126
2.17600	128
2.17967	129
2.18333	129
2.18700	129
2.19067	129
2.19433	129
2.19800	130
2.20167	129
2.20533	130
2.20900	133
2.21267	136
2.21633	139
2.22000	142
2.22367	145
2.22733	146
2.23100	147
2.23467	149
2.23833	152
2.24200	151
2.24567	153
2.24933	156
2.25300	159
2.25667	162
2.26033	162
2.26400	161
2.26767	160
2.27133	160
2.27500	161
2.27867	161
2.28233	162
2.28600	163
2.28967	162
2.29333	164
2.29700	169
2.30067	173
2.30433	176
2.30800	178
2.31167	179
2.31533	179
2.31900	179
2.32267	181
2.32633	183
2.33000	186
2.33367	190
2.33733	189
2.34100	189
2.34467	189
2.34833	192
2.35200	195
2.35567	198
2.35933	198
2.36300	197
2.36667	197
2.37033	199
2.37400	202
2.37767	202
2.38133	204
2.38500	206
2.38867	207
2.39233	209
2.39600	212
2.39967	214
2.40333	212
2.40700	213
2.41067	217
2.41433	221
2.41800	225
2.42167	227
2.42533	227
2.42900	227
2.43267	226
2.43633	226
2.44000	228
2.44367	244
2.44733	285
2.45100	335
2.45467	374
2.45833	390
2.46200	390
2.46567	391
2.46933	394
2.47300	391
2.47667	378
2.48033	359
2.48400	338
2.48767	321
2.49133	311
2.49500	305
2.49867	305
2.50233	309
2.50600	316
2.50967	323
2.51333	326
2.51700	325
2.52067	319
2.52433	307
2.52800	293
2.53167	280
2.53533	270
2.53900	262
2.54267	256
2.54633	251
2.55000	249
2.55367	250
2.55733	250
2.56100	252
2.56467	255
2.56833	258
2.57200	259
2.57567	259
2.57933	262
2.58300	266
2.58667	273
2.59033	280
2.59400	286
2.59767	293
2.60133	301
2.60500	304
2.60867	301
2.61233	290
2.61600	272
2.61967	245
2.62333	212
2.62700	175
2.63067	136
2.63433	95
2.63800	53
2.64167	15
2.64533	-17
2.64900	-40
2.65267	-55
2.65633	-64
2.66000	-69
2.66367	-71
2.66733	-71
2.67100	-68
2.67467	-60
2.67833	-50
2.68200	-37
2.68567	-25
2.68933	-10
2.69300	0
2.69667	7
2.70033	17
2.70400	28
2.70767	40
2.71133	51
2.71500	61
2.71867	71
2.72233	82
2.72600	92
2.72967	101
2.73333	108
2.73700	115
2.74067	121
2.74433	128
2.74800	136
2.75167	144
2.75533	152
2.75900	160
2.76267	165
2.76633	169
2.77000	173
2.77367	177
2.77733	180
2.78100	186
2.78467	192
2.78833	198
2.79200	203
2.79567	208
2.79933	211
2.80300	211
2.80667	212
2.81033	215
2.81400	217
2.81767	222
2.82133	226
2.82500	229
2.82867	235
2.83233	248
2.83600	282
2.83967	363
2.84333	540
2.84700	876
2.85067	1445
2.85433	2320
2.85800	3542
2.86167	5098
2.86533	6933
2.86900	8947
2.87267	10992
2.87633	12922
2.88000	14586
2.88367	15863
2.88733	16674
2.89100	17001
2.89467	16874
2.89833	16368
2.90200	15565
2.90567	14559
2.90933	13430
2.91300	12250
2.91667	11078
2.92033	9946
2.92400	8872
2.92767	7880
2.93133	6975
2.93500	6154
2.93867	5415
2.94233	4758
2.94600	4175
2.94967	3661
2.95333	3207
2.95700	2807
2.96067	2458
2.96433	2157
2.96800	1898
2.97167	1670
2.97533	1470
2.97900	1296
2.98267	1145
2.98633	1016
2.99000	905
2.99367	807
2.99733	724
3.00100	653
3.00467	591
3.00833	537
3.01200	488
3.01567	444
3.01933	407
3.02300	377
3.02667	351
3.03033	329
3.03400	311
3.03767	296
3.04133	283
3.04500	273
3.04867	264
3.05233	258
3.05600	251
3.05967	242
3.06333	237
3.06700	232
3.07067	227
3.07433	223
3.07800	218
3.08167	211
3.08533	206
3.08900	203
3.09267	202
3.09633	200
3.10000	199
3.10367	199
3.10733	200
3.11100	199
3.11467	197
3.11833	197
3.12200	197
3.12567	196
3.12933	195
3.13300	195
3.13667	196
3.14033	197
3.14400	196
3.14767	195
3.15133	193
3.15500	190
3.15867	188
3.16233	187
3.16600	187
3.16967	188
3.17333	191
3.17700	191
3.18067	188
3.18433	187
3.18800	188
3.19167	187
3.19533	184
3.19900	183
3.20267	184
3.20633	183
3.21000	181
3.21367	182
3.21733	180
3.22100	180
3.22467	178
3.22833	176
3.23200	177
3.23567	179
3.23933	180
3.24300	181
3.24667	181
3.25033	179
3.25400	178
3.25767	177
3.26133	177
3.26500	175
3.26867	172
3.27233	167
3.27600	166
3.27967	166
3.28333	166
3.28700	166
3.29067	164
3.29433	160
3.29800	157
3.30167	158
3.30533	158
3.30900	157
3.31267	156
3.31633	154
3.32000	152
3.32367	151
3.32733	149
3.33100	145
3.33467	143
3.33833	139
3.34200	136
3.34567	135
3.34933	134
3.35300	133
3.35667	130
3.36033	129
3.36400	128
3.36767	125
3.37133	119
3.37500	114
3.37867	112
3.38233	110
3.38600	105
3.38967	103
3.39333	103
3.39700	102
3.40067	102
3.40433	100
3.40800	99
3.41167	95
3.41533	92
3.41900	87
3.42267	81
3.42633	80
3.43000	79
3.43367	79
3.43733	79
3.44100	78
3.44467	74
3.44833	70
3.45200	66
3.45567	63
3.45933	60
3.46300	59
3.46667	58
3.47033	56
3.47400	55
3.47767	57
3.48133	57
3.48500	55
3.48867	51
3.49233	48
3.49600	46
3.49967	45
3.50333	45
3.50700	45
3.51067	46
3.51433	43
3.51800	39
3.52167	37
3.52533	36
3.52900	35
3.53267	34
3.53633	33
3.54000	33
3.54367	32
3.54733	32
3.55100	35
3.55467	36
3.55833	35
3.56200	34
3.56567	32
3.56933	30
3.57300	27
3.57667	25
3.58033	23
3.58400	20
3.58767	18
3.59133	19
3.59500	20
3.59867	23
3.60233	24
3.60600	25
3.60967	24
3.61333	25
3.61700	25
3.62067	26
3.62433	26
3.62800	26
3.63167	25
3.63533	25
3.63900	26
3.64267	27
3.64633	26
3.65000	24
3.65367	20
3.65733	17
3.66100	18
3.66467	19
3.66833	19
3.67200	19
3.67567	17
3.67933	16
3.68300	15
3.68667	12
3.69033	10
3.69400	11
3.69767	11
3.70133	11
3.70500	11
3.70867	14
3.71233	15
3.71600	16
3.71967	16
3.72333	17
3.72700	17
3.73067	16
3.73433	16
3.73800	17
3.74167	15
3.74533	12
3.74900	11
3.75267	10
3.75633	9
3.76000	8
3.76367	9
3.76733	9
3.77100	12
3.77467	12
3.77833	13
3.78200	13
3.78567	10
3.78933	8
3.79300	8
3.79667	9
3.80033	12
3.80400	13
3.80767	11
3.81133	9
3.81500	6
3.81867	4
3.82233	3
3.82600	4
3.82967	4
3.83333	6
3.83700	8
3.84067	10
3.84433	8
3.84800	6
3.85167	6
3.85533	5
3.85900	6
3.86267	8
3.86633	8
3.87000	6
3.87367	8
3.87733	10
3.88100	10
3.88467	12
3.88833	11
3.89200	8
3.89567	7
3.89933	7
3.90300	7
3.90667	5
3.91033	3
3.91400	3
3.91767	3
3.92133	7
3.92500	7
3.92867	7
3.93233	6
3.93600	4
3.93967	5
3.94333	4
3.94700	5
3.95067	8
3.95433	9
3.95800	9
3.96167	8
3.96533	5
3.96900	5
3.97267	6
3.97633	6
3.98000	7
3.98367	6
3.98733	6
3.99100	6
3.99467	6
3.99833	7

[Status Trace (Column Oven Temperature)]
Interval(msec)	1000
# of Points	240
Start Time(min)	0.007
End Time(min)	3.990
Intensity Units	
Intensity Multiplier	1
R.Time (min)	Intensity
0.00670	35.03
0.02337	35.02
0.04003	35.02
0.05670	35.02
0.07337	35.02
0.09003	35.01
0.10670	35.00
0.12337	35.00
0.14003	35.00
0.15670	35.00
0.17337	34.99
0.19003	34.98
0.20670	34.98
0.22337	34.98
0.24003	34.98
0.25670	34.98
0.27337	34.99
0.29003	34.99
0.30670	35.00
0.32337	35.00
0.34003	35.00
0.35670	35.00
0.37337	35.00
0.39003	34.99
0.40670	34.98
0.42337	34.98
0.44003	34.98
0.45670	34.98
0.47337	34.99
0.49003	35.00
0.50670	34.99
0.52337	34.99
0.54003	34.99
0.55670	34.98
0.57337	34.98
0.59003	34.98
0.60670	34.98
0.62337	34.99
0.64003	34.99
0.65670	34.99
0.67337	35.00
0.69003	34.99
0.70670	35.00
0.72337	35.00
0.74003	34.99
0.75670	34.99
0.77337	34.99
0.79003	34.99
0.80670	34.99
0.82337	34.98
0.84003	34.99
0.85670	34.99
0.87337	35.00
0.89003	35.00
0.90670	35.00
0.92337	34.99
0.94003	35.00
0.95670	35.00
0.97337	35.01
0.99003	35.01
1.00670	35.02
1.02337	35.01
1.04003	35.01
1.05670	35.01
1.07337	35.01
1.09003	35.01
1.10670	35.00
1.12337	35.00
1.14003	35.00
1.15670	35.00
1.17337	35.00
1.19003	35.00
1.20670	35.01
1.22337	35.01
1.24003	35.02
1.25670	35.01
1.27337	35.01
1.29003	35.01
1.30670	35.01
1.32337	35.00
1.34003	34.99
1.35670	34.99
1.37337	35.00
1.39003	35.00
1.40670	35.00
1.42337	35.00
1.44003	35.01
1.45670	35.00
1.47337	35.01
1.49003	35.02
1.50670	35.01
1.52337	35.01
1.54003	35.01
1.55670	35.00
1.57337	35.00
1.59003	35.01
1.60670	35.06
1.62337	35.18
1.64003	35.36
1.65670	35.61
1.67337	35.95
1.69003	36.31
1.70670	36.66
1.72337	37.00
1.74003	37.32
1.75670	37.63
1.77337	37.97
1.79003	38.32
1.80670	38.65
1.82337	38.99
1.84003	39.31
1.85670	39.64
1.87337	39.96
1.89003	40.30
1.90670	40.63
1.92337	40.96
1.94003	41.28
1.95670	41.61
1.97337	41.93
1.99003	42.25
2.00670	42.56
2.02337	42.90
2.04003	43.22
2.05670	43.55
2.07337	43.89
2.09003	44.21
2.10670	44.53
2.12337	44.86
2.14003	45.19
2.15670	45.56
2.17337	45.88
2.19003	46.21
2.20670	46.53
2.22337	46.85
2.24003	47.18
2.25670	47.49
2.27337	47.82
2.29003	48.14
2.30670	48.47
2.32337	48.82
2.34003	49.14
2.35670	49.42
2.37337	49.60
2.39003	49.67
2.40670	49.68
2.42337	49.69
2.44003	49.70
2.45670	49.70
2.47337	49.72
2.49003	49.72
2.50670	49.74
2.52337	49.77
2.54003	49.77
2.55670	49.80
2.57337	49.81
2.59003	49.80
2.60670	49.81
2.62337	49.81
2.64003	49.82
2.65670	49.82
2.67337	49.85
2.69003	49.84
2.70670	49.85
2.72337	49.86
2.74003	49.86
2.75670	49.85
2.77337	49.84
2.79003	49.87
2.80670	49.88
2.82337	49.88
2.84003	49.88
2.85670	49.87
2.87337	49.89
2.89003	49.89
2.90670	49.90
2.92337	49.92
2.94003	49.92
2.95670	49.94
2.97337	49.95
2.99003	49.97
3.00670	49.98
3.02337	49.98
3.04003	49.99
3.05670	50.00
3.07337	50.01
3.09003	50.01
3.10670	50.01
3.12337	50.03
3.14003	50.03
3.15670	50.04
3.17337	50.05
3.19003	50.06
3.20670	50.07
3.22337	50.08
3.24003	50.09
3.25670	50.09
3.27337	50.09
3.29003	50.09
3.30670	50.10
3.32337	50.11
3.34003	50.10
3.35670	50.09
3.37337	50.09
3.39003	50.08
3.40670	50.08
3.42337	50.07
3.44003	50.07
3.45670	50.06
3.47337	50.06
3.49003	50.06
3.50670	50.06
3.52337	50.06
3.54003	50.06
3.55670	50.06
3.57337	50.05
3.59003	50.06
3.60670	50.06
3.62337	50.06
3.64003	50.07
3.65670	50.07
3.67337	50.07
3.69003	50.08
3.70670	50.07
3.72337	50.07
3.74003	50.07
3.75670	50.07
3.77337	50.07
3.79003	50.07
3.80670	50.08
3.82337	50.08
3.84003	50.09
3.85670	50.08
3.87337	50.08
3.89003	50.07
3.90670	50.07
3.92337	50.07
3.94003	50.07
3.95670	50.07
3.97337	50.07
3.99003	50.06

[Status Trace (Injection Unit Temperature)]
Interval(msec)	1000
# of Points	240
Start Time(min)	0.007
End Time(min)	3.990
Intensity Units	
Intensity Multiplier	1
R.Time (min)	Intensity
0.00670	100.00
0.02337	100.00
0.04003	100.00
0.05670	100.00
0.07337	100.00
0.09003	100.00
0.10670	100.00
0.12337	100.00
0.14003	100.00
0.15670	100.00
0.17337	100.00
0.19003	100.00
0.20670	100.00
0.22337	100.01
0.24003	100.01
0.25670	100.01
0.27337	100.00
0.29003	100.00
0.30670	100.00
0.32337	100.00
0.34003	100.00
0.35670	100.00
0.37337	100.00
0.39003	100.00
0.40670	100.00
0.42337	100.00
0.44003	100.00
0.45670	100.00
0.47337	100.00
0.49003	100.00
0.50670	100.00
0.52337	100.00
0.54003	100.00
0.55670	100.00
0.57337	100.00
0.59003	100.00
0.60670	100.00
0.62337	99.99
0.64003	100.00
0.65670	100.00
0.67337	100.00
0.69003	100.00
0.70670	100.00
0.72337	100.00
0.74003	100.00
0.75670	100.00
0.77337	100.00
0.79003	99.99
0.80670	100.00
0.82337	100.00
0.84003	99.99
0.85670	100.00
0.87337	100.00
0.89003	100.00
0.90670	99.99
0.92337	99.99
0.94003	99.99
0.95670	99.99
0.97337	99.99
0.99003	100.00
1.00670	100.00
1.02337	99.99
1.04003	99.99
1.05670	100.00
1.07337	100.00
1.09003	99.99
1.10670	100.00
1.12337	99.99
1.14003	99.99
1.15670	100.00
1.17337	100.00
1.19003	99.99
1.20670	99.99
1.22337	99.99
1.24003	100.00
1.25670	99.99
1.27337	100.00
1.29003	100.00
1.30670	100.00
1.32337	100.00
1.34003	100.00
1.35670	100.00
1.37337	100.00
1.39003	100.00
1.40670	100.00
1.42337	100.00
1.44003	99.99
1.45670	100.00
1.47337	100.00
1.49003	100.00
1.50670	100.00
1.52337	100.00
1.54003	100.00
1.55670	100.00
1.57337	100.00
1.59003	100.00
1.60670	100.00
1.62337	100.00
1.64003	100.00
1.65670	100.00
1.67337	100.00
1.69003	100.00
1.70670	100.00
1.72337	100.00
1.74003	100.00
1.75670	100.00
1.77337	100.00
1.79003	100.00
1.80670	100.00
1.82337	100.00
1.84003	100.00
1.85670	100.00
1.87337	100.00
1.89003	100.00
1.90670	100.00
1.92337	100.00
1.94003	100.00
1.95670	100.00
1.97337	100.00
1.99003	100.00
2.00670	99.99
2.02337	100.00
2.04003	100.00
2.05670	99.99
2.07337	99.99
2.09003	99.99
2.10670	99.99
2.12337	99.99
2.14003	99.99
2.15670	99.99
2.17337	99.99
2.19003	99.99
2.20670	99.98
2.22337	99.99
2.24003	99.99
2.25670	99.98
2.27337	99.99
2.29003	99.99
2.30670	99.99
2.32337	99.99
2.34003	99.98
2.35670	99.99
2.37337	99.98
2.39003	99.99
2.40670	99.98
2.42337	99.99
2.44003	99.98
2.45670	99.99
2.47337	99.99
2.49003	99.99
2.50670	99.99
2.52337	99.99
2.54003	99.99
2.55670	99.99
2.57337	99.99
2.59003	99.99
2.60670	100.00
2.62337	99.99
2.64003	100.00
2.65670	100.00
2.67337	100.00
2.69003	100.00
2.70670	100.00
2.72337	100.00
2.74003	100.00
2.75670	100.00
2.77337	100.00
2.79003	100.01
2.80670	100.00
2.82337	100.01
2.84003	100.01
2.85670	100.01
2.87337	100.01
2.89003	100.01
2.90670	100.01
2.92337	100.01
2.94003	100.01
2.95670	100.01
2.97337	100.01
2.99003	100.02
3.00670	100.02
3.02337	100.02
3.04003	100.02
3.05670	100.02
3.07337	100.02
3.09003	100.02
3.10670	100.02
3.12337	100.02
3.14003	100.02
3.15670	100.03
3.17337	100.03
3.19003	100.03
3.20670	100.03
3.22337	100.03
3.24003	100.03
3.25670	100.03
3.27337	100.03
3.29003	100.03
3.30670	100.03
3.32337	100.03
3.34003	100.04
3.35670	100.04
3.37337	100.04
3.39003	100.04
3.40670	100.03
3.42337	100.04
3.44003	100.04
3.45670	100.04
3.47337	100.04
3.49003	100.04
3.50670	100.04
3.52337	100.04
3.54003	100.04
3.55670	100.04
3.57337	100.04
3.59003	100.04
3.60670	100.04
3.62337	100.04
3.64003	100.05
3.65670	100.05
3.67337	100.05
3.69003	100.05
3.70670	100.05
3.72337	100.05
3.74003	100.05
3.75670	100.05
3.77337	100.05
3.79003	100.04
3.80670	100.05
3.82337	100.05
3.84003	100.05
3.85670	100.05
3.87337	100.05
3.89003	100.05
3.90670	100.05
3.92337	100.05
3.94003	100.06
3.95670	100.05
3.97337	100.05
3.99003	100.05

[Status Trace (Carrier Gas Pressure)]
Interval(msec)	1000
# of Points	240
Start Time(min)	0.007
End Time(min)	3.990
Intensity Units	
Intensity Multiplier	1
R.Time (min)	Intensity
0.00670	58.00
0.02337	55.53
0.04003	56.84
0.05670	59.05
0.07337	59.51
0.09003	58.11
0.10670	57.98
0.12337	58.01
0.14003	58.01
0.15670	58.01
0.17337	58.00
0.19003	58.00
0.20670	58.00
0.22337	58.00
0.24003	58.00
0.25670	58.00
0.27337	58.00
0.29003	58.00
0.30670	58.00
0.32337	58.00
0.34003	58.00
0.35670	58.00
0.37337	58.00
0.39003	58.00
0.40670	58.00
0.42337	58.00
0.44003	58.00
0.45670	58.00
0.47337	58.00
0.49003	58.00
0.50670	58.00
0.52337	58.00
0.54003	58.00
0.55670	58.00
0.57337	58.00
0.59003	58.00
0.60670	58.00
0.62337	58.00
0.64003	58.00
0.65670	58.00
0.67337	58.00
0.69003	58.00
0.70670	58.00
0.72337	58.00
0.74003	58.00
0.75670	58.00
0.77337	58.00
0.79003	58.00
0.80670	58.00
0.82337	58.00
0.84003	58.00
0.85670	58.00
0.87337	58.00
0.89003	58.00
0.90670	58.00
0.92337	58.00
0.94003	58.00
0.95670	58.00
0.97337	58.00
0.99003	58.00
1.00670	58.00
1.02337	58.00
1.04003	58.00
1.05670	58.00
1.07337	58.00
1.09003	58.00
1.10670	58.00
1.12337	58.00
1.14003	58.00
1.15670	58.00
1.17337	58.00
1.19003	58.00
1.20670	58.00
1.22337	58.00
1.24003	58.00
1.25670	58.00
1.27337	58.00
1.29003	58.00
1.30670	58.00
1.32337	58.00
1.34003	58.00
1.35670	58.00
1.37337	58.00
1.39003	58.00
1.40670	58.00
1.42337	58.00
1.44003	58.00
1.45670	58.00
1.47337	58.00
1.49003	58.00
1.50670	58.00
1.52337	58.00
1.54003	58.00
1.55670	58.00
1.57337	58.00
1.59003	58.00
1.60670	58.00
1.62337	58.00
1.64003	58.00
1.65670	58.00
1.67337	58.01
1.69003	58.00
1.70670	58.00
1.72337	58.00
1.74003	58.00
1.75670	58.00
1.77337	58.00
1.79003	58.00
1.80670	58.00
1.82337	58.00
1.84003	58.00
1.85670	58.00
1.87337	58.00
1.89003	58.00
1.90670	58.00
1.92337	58.00
1.94003	58.00
1.95670	58.00
1.97337	58.00
1.99003	58.00
2.00670	58.00
2.02337	58.00
2.04003	58.00
2.05670	58.00
2.07337	58.00
2.09003	58.00
2.10670	58.00
2.12337	58.00
2.14003	58.00
2.15670	58.00
2.17337	58.00
2.19003	58.00
2.20670	58.00
2.22337	58.00
2.24003	58.00
2.25670	58.00
2.27337	58.00
2.29003	58.00
2.30670	58.00
2.32337	58.00
2.34003	58.00
2.35670	58.00
2.37337	58.00
2.39003	57.99
2.40670	57.99
2.42337	58.00
2.44003	58.00
2.45670	58.00
2.47337	58.00
2.49003	58.00
2.50670	57.99
2.52337	57.98
2.54003	58.00
2.55670	58.00
2.57337	58.00
2.59003	58.00
2.60670	58.00
2.62337	58.00
2.64003	58.00
2.65670	58.00
2.67337	58.00
2.69003	58.00
2.70670	58.00
2.72337	58.00
2.74003	58.00
2.75670	58.00
2.77337	58.00
2.79003	58.00
2.80670	58.00
2.82337	58.00
2.84003	58.00
2.85670	58.00
2.87337	58.00
2.89003	58.00
2.90670	58.00
2.92337	58.00
2.94003	58.00
2.95670	58.00
2.97337	58.00
2.99003	58.00
3.00670	58.00
3.02337	58.00
3.04003	58.00
3.05670	58.00
3.07337	58.00
3.09003	58.00
3.10670	58.00
3.12337	58.00
3.14003	58.00
3.15670	58.00
3.17337	58.00
3.19003	58.00
3.20670	58.00
3.22337	58.00
3.24003	58.00
3.25670	58.00
3.27337	58.00
3.29003	58.00
3.30670	58.00
3.32337	58.00
3.34003	58.00
3.35670	58.00
3.37337	58.00
3.39003	58.00
3.40670	58.00
3.42337	58.00
3.44003	58.00
3.45670	58.00
3.47337	58.00
3.49003	58.00
3.50670	58.00
3.52337	58.00
3.54003	58.00
3.55670	58.00
3.57337	58.00
3.59003	58.00
3.60670	58.00
3.62337	58.00
3.64003	58.00
3.65670	58.00
3.67337	58.00
3.69003	58.00
3.70670	58.00
3.72337	58.00
3.74003	58.00
3.75670	58.00
3.77337	58.00
3.79003	58.00
3.80670	58.00
3.82337	58.00
3.84003	58.00
3.85670	58.00
3.87337	58.00
3.89003	58.00
3.90670	58.00
3.92337	58.00
3.94003	58.00
3.95670	58.00
3.97337	58.00
3.99003	58.00

[Status Trace (Carrier Gas Flow)]
Interval(msec)	1000
# of Points	240
Start Time(min)	0.007
End Time(min)	3.990
Intensity Units	
Intensity Multiplier	1
R.Time (min)	Intensity
0.00670	34.52
0.02337	34.53
0.04003	34.54
0.05670	34.55
0.07337	34.49
0.09003	34.52
0.10670	34.52
0.12337	34.52
0.14003	34.52
0.15670	34.52
0.17337	34.52
0.19003	34.52
0.20670	34.52
0.22337	34.52
0.24003	34.52
0.25670	34.52
0.27337	34.52
0.29003	34.52
0.30670	34.52
0.32337	34.52
0.34003	34.52
0.35670	34.52
0.37337	34.52
0.39003	34.52
0.40670	34.52
0.42337	34.52
0.44003	34.52
0.45670	34.52
0.47337	34.52
0.49003	34.52
0.50670	34.52
0.52337	34.52
0.54003	34.52
0.55670	34.52
0.57337	34.52
0.59003	34.52
0.60670	34.52
0.62337	34.52
0.64003	34.52
0.65670	34.52
0.67337	34.52
0.69003	34.52
0.70670	34.52
0.72337	34.52
0.74003	34.52
0.75670	34.52
0.77337	34.52
0.79003	34.52
0.80670	34.52
0.82337	34.52
0.84003	34.52
0.85670	34.52
0.87337	34.52
0.89003	34.52
0.90670	34.52
0.92337	34.52
0.94003	34.52
0.95670	34.52
0.97337	34.52
0.99003	34.52
1.00670	34.51
1.02337	34.52
1.04003	34.52
1.05670	34.52
1.07337	34.52
1.09003	34.52
1.10670	34.51
1.12337	34.52
1.14003	34.50
1.15670	34.51
1.17337	34.52
1.19003	34.51
1.20670	34.52
1.22337	34.52
1.24003	34.52
1.25670	34.52
1.27337	34.52
1.29003	34.52
1.30670	34.52
1.32337	34.52
1.34003	34.52
1.35670	34.52
1.37337	34.52
1.39003	34.52
1.40670	34.52
1.42337	34.52
1.44003	34.52
1.45670	34.52
1.47337	34.52
1.49003	34.52
1.50670	34.52
1.52337	34.52
1.54003	34.52
1.55670	34.52
1.57337	34.52
1.59003	34.52
1.60670	34.52
1.62337	34.52
1.64003	34.52
1.65670	34.52
1.67337	34.52
1.69003	34.52
1.70670	34.52
1.72337	34.52
1.74003	34.52
1.75670	34.52
1.77337	34.52
1.79003	34.52
1.80670	34.52
1.82337	34.52
1.84003	34.52
1.85670	34.52
1.87337	34.52
1.89003	34.52
1.90670	34.52
1.92337	34.52
1.94003	34.52
1.95670	34.52
1.97337	34.52
1.99003	34.52
2.00670	34.52
2.02337	34.52
2.04003	34.52
2.05670	34.52
2.07337	34.52
2.09003	34.52
2.10670	34.52
2.12337	34.52
2.14003	34.52
2.15670	34.52
2.17337	34.52
2.19003	34.52
2.20670	34.52
2.22337	34.52
2.24003	34.52
2.25670	34.52
2.27337	34.52
2.29003	34.52
2.30670	34.52
2.32337	34.52
2.34003	34.52
2.35670	34.52
2.37337	34.52
2.39003	34.52
2.40670	34.52
2.42337	34.52
2.44003	34.52
2.45670	34.52
2.47337	34.52
2.49003	34.52
2.50670	34.45
2.52337	34.52
2.54003	34.52
2.55670	34.52
2.57337	34.52
2.59003	34.52
2.60670	34.52
2.62337	34.52
2.64003	34.52
2.65670	34.52
2.67337	34.52
2.69003	34.52
2.70670	34.52
2.72337	34.52
2.74003	34.52
2.75670	34.52
2.77337	34.52
2.79003	34.52
2.80670	34.52
2.82337	34.52
2.84003	34.52
2.85670	34.52
2.87337	34.52
2.89003	34.52
2.90670	34.52
2.92337	34.52
2.94003	34.52
2.95670	34.52
2.97337	34.52
2.99003	34.52
3.00670	34.52
3.02337	34.52
3.04003	34.52
3.05670	34.52
3.07337	34.52
3.09003	34.52
3.10670	34.52
3.12337	34.52
3.14003	34.52
3.15670	34.52
3.17337	34.52
3.19003	34.52
3.20670	34.52
3.22337	34.52
3.24003	34.52
3.25670	34.52
3.27337	34.52
3.29003	34.52
3.30670	34.52
3.32337	34.52
3.34003	34.52
3.35670	34.52
3.37337	34.52
3.39003	34.52
3.40670	34.52
3.42337	34.52
3.44003	34.52
3.45670	34.52
3.47337	34.52
3.49003	34.52
3.50670	34.52
3.52337	34.52
3.54003	34.52
3.55670	34.52
3.57337	34.52
3.59003	34.52
3.60670	34.52
3.62337	34.52
3.64003	34.52
3.65670	34.52
3.67337	34.52
3.69003	34.52
3.70670	34.52
3.72337	34.52
3.74003	34.52
3.75670	34.52
3.77337	34.52
3.79003	34.52
3.80670	34.52
3.82337	34.52
3.84003	34.52
3.85670	34.52
3.87337	34.52
3.89003	34.52
3.90670	34.52
3.92337	34.52
3.94003	34.52
3.95670	34.52
3.97337	34.52
3.99003	34.52

[Status Trace (Column Flow)]
Interval(msec)	1000
# of Points	240
Start Time(min)	0.007
End Time(min)	3.990
Intensity Units	
Intensity Multiplier	1
R.Time (min)	Intensity
0.00670	5.48
0.02337	5.20
0.04003	5.35
0.05670	5.61
0.07337	5.66
0.09003	5.50
0.10670	5.48
0.12337	5.49
0.14003	5.49
0.15670	5.48
0.17337	5.49
0.19003	5.49
0.20670	5.49
0.22337	5.48
0.24003	5.48
0.25670	5.48
0.27337	5.48
0.29003	5.48
0.30670	5.48
0.32337	5.48
0.34003	5.48
0.35670	5.48
0.37337	5.48
0.39003	5.48
0.40670	5.48
0.42337	5.49
0.44003	5.49
0.45670	5.48
0.47337	5.48
0.49003	5.48
0.50670	5.48
0.52337	5.48
0.54003	5.48
0.55670	5.48
0.57337	5.48
0.59003	5.48
0.60670	5.48
0.62337	5.48
0.64003	5.48
0.65670	5.48
0.67337	5.48
0.69003	5.48
0.70670	5.48
0.72337	5.48
0.74003	5.48
0.75670	5.48
0.77337	5.48
0.79003	5.49
0.80670	5.48
0.82337	5.49
0.84003	5.48
0.85670	5.48
0.87337	5.48
0.89003	5.48
0.90670	5.48
0.92337	5.48
0.94003	5.48
0.95670	5.48
0.97337	5.48
0.99003	5.48
1.00670	5.48
1.02337	5.48
1.04003	5.48
1.05670	5.48
1.07337	5.48
1.09003	5.48
1.10670	5.48
1.12337	5.48
1.14003	5.48
1.15670	5.48
1.17337	5.48
1.19003	5.48
1.20670	5.48
1.22337	5.48
1.24003	5.48
1.25670	5.48
1.27337	5.48
1.29003	5.48
1.30670	5.48
1.32337	5.48
1.34003	5.48
1.35670	5.48
1.37337	5.48
1.39003	5.48
1.40670	5.48
1.42337	5.48
1.44003	5.48
1.45670	5.48
1.47337	5.48
1.49003	5.48
1.50670	5.48
1.52337	5.48
1.54003	5.48
1.55670	5.48
1.57337	5.48
1.59003	5.48
1.60670	5.48
1.62337	5.48
1.64003	5.47
1.65670	5.47
1.67337	5.46
1.69003	5.45
1.70670	5.43
1.72337	5.42
1.74003	5.41
1.75670	5.40
1.77337	5.39
1.79003	5.38
1.80670	5.37
1.82337	5.36
1.84003	5.35
1.85670	5.34
1.87337	5.33
1.89003	5.32
1.90670	5.31
1.92337	5.30
1.94003	5.29
1.95670	5.28
1.97337	5.27
1.99003	5.27
2.00670	5.26
2.02337	5.25
2.04003	5.24
2.05670	5.23
2.07337	5.22
2.09003	5.21
2.10670	5.20
2.12337	5.19
2.14003	5.18
2.15670	5.17
2.17337	5.16
2.19003	5.15
2.20670	5.14
2.22337	5.13
2.24003	5.12
2.25670	5.11
2.27337	5.10
2.29003	5.10
2.30670	5.09
2.32337	5.08
2.34003	5.07
2.35670	5.06
2.37337	5.05
2.39003	5.05
2.40670	5.05
2.42337	5.05
2.44003	5.05
2.45670	5.05
2.47337	5.05
2.49003	5.05
2.50670	5.05
2.52337	5.05
2.54003	5.05
2.55670	5.05
2.57337	5.05
2.59003	5.05
2.60670	5.05
2.62337	5.05
2.64003	5.05
2.65670	5.05
2.67337	5.05
2.69003	5.05
2.70670	5.05
2.72337	5.05
2.74003	5.05
2.75670	5.05
2.77337	5.05
2.79003	5.05
2.80670	5.05
2.82337	5.05
2.84003	5.05
2.85670	5.05
2.87337	5.05
2.89003	5.05
2.90670	5.05
2.92337	5.05
2.94003	5.05
2.95670	5.05
2.97337	5.05
2.99003	5.05
3.00670	5.04
3.02337	5.04
3.04003	5.04
3.05670	5.04
3.07337	5.04
3.09003	5.04
3.10670	5.04
3.12337	5.04
3.14003	5.04
3.15670	5.04
3.17337	5.04
3.19003	5.04
3.20670	5.04
3.22337	5.04
3.24003	5.04
3.25670	5.04
3.27337	5.04
3.29003	5.04
3.30670	5.04
3.32337	5.04
3.34003	5.04
3.35670	5.04
3.37337	5.04
3.39003	5.04
3.40670	5.04
3.42337	5.04
3.44003	5.04
3.45670	5.04
3.47337	5.04
3.49003	5.04
3.50670	5.04
3.52337	5.04
3.54003	5.04
3.55670	5.04
3.57337	5.04
3.59003	5.04
3.60670	5.04
3.62337	5.04
3.64003	5.04
3.65670	5.04
3.67337	5.04
3.69003	5.04
3.70670	5.04
3.72337	5.04
3.74003	5.04
3.75670	5.04
3.77337	5.04
3.79003	5.04
3.80670	5.04
3.82337	5.04
3.84003	5.04
3.85670	5.04
3.87337	5.04
3.89003	5.04
3.90670	5.04
3.92337	5.04
3.94003	5.04
3.95670	5.04
3.97337	5.04
3.99003	5.04

[Status Trace (Linear Velocity)]
Interval(msec)	1000
# of Points	240
Start Time(min)	0.007
End Time(min)	3.990
Intensity Units	
Intensity Multiplier	1
R.Time (min)	Intensity
0.00670	39.01
0.02337	37.38
0.04003	38.25
0.05670	39.69
0.07337	39.99
0.09003	39.08
0.10670	39.00
0.12337	39.01
0.14003	39.01
0.15670	39.01
0.17337	39.01
0.19003	39.01
0.20670	39.01
0.22337	39.01
0.24003	39.01
0.25670	39.01
0.27337	39.01
0.29003	39.01
0.30670	39.01
0.32337	39.01
0.34003	39.01
0.35670	39.01
0.37337	39.01
0.39003	39.01
0.40670	39.01
0.42337	39.01
0.44003	39.01
0.45670	39.01
0.47337	39.01
0.49003	39.01
0.50670	39.01
0.52337	39.01
0.54003	39.01
0.55670	39.01
0.57337	39.01
0.59003	39.01
0.60670	39.01
0.62337	39.01
0.64003	39.01
0.65670	39.01
0.67337	39.01
0.69003	39.01
0.70670	39.01
0.72337	39.01
0.74003	39.01
0.75670	39.01
0.77337	39.01
0.79003	39.01
0.80670	39.01
0.82337	39.01
0.84003	39.01
0.85670	39.01
0.87337	39.01
0.89003	39.01
0.90670	39.01
0.92337	39.01
0.94003	39.01
0.95670	39.01
0.97337	39.01
0.99003	39.01
1.00670	39.01
1.02337	39.01
1.04003	39.01
1.05670	39.01
1.07337	39.01
1.09003	39.01
1.10670	39.01
1.12337	39.01
1.14003	39.01
1.15670	39.01
1.17337	39.01
1.19003	39.01
1.20670	39.01
1.22337	39.01
1.24003	39.01
1.25670	39.01
1.27337	39.01
1.29003	39.01
1.30670	39.01
1.32337	39.01
1.34003	39.01
1.35670	39.01
1.37337	39.01
1.39003	39.01
1.40670	39.01
1.42337	39.01
1.44003	39.01
1.45670	39.01
1.47337	39.01
1.49003	39.01
1.50670	39.01
1.52337	39.01
1.54003	39.01
1.55670	39.01
1.57337	39.01
1.59003	39.01
1.60670	39.00
1.62337	38.99
1.64003	38.98
1.65670	38.95
1.67337	38.92
1.69003	38.89
1.70670	38.85
1.72337	38.82
1.74003	38.79
1.75670	38.76
1.77337	38.73
1.79003	38.70
1.80670	38.66
1.82337	38.63
1.84003	38.60
1.85670	38.57
1.87337	38.54
1.89003	38.51
1.90670	38.47
1.92337	38.44
1.94003	38.41
1.95670	38.38
1.97337	38.35
1.99003	38.33
2.00670	38.29
2.02337	38.26
2.04003	38.24
2.05670	38.21
2.07337	38.17
2.09003	38.15
2.10670	38.11
2.12337	38.09
2.14003	38.06
2.15670	38.02
2.17337	37.99
2.19003	37.96
2.20670	37.93
2.22337	37.90
2.24003	37.88
2.25670	37.85
2.27337	37.82
2.29003	37.79
2.30670	37.76
2.32337	37.73
2.34003	37.70
2.35670	37.67
2.37337	37.66
2.39003	37.65
2.40670	37.65
2.42337	37.65
2.44003	37.65
2.45670	37.65
2.47337	37.65
2.49003	37.65
2.50670	37.64
2.52337	37.63
2.54003	37.64
2.55670	37.64
2.57337	37.64
2.59003	37.64
2.60670	37.64
2.62337	37.64
2.64003	37.64
2.65670	37.64
2.67337	37.64
2.69003	37.64
2.70670	37.64
2.72337	37.64
2.74003	37.64
2.75670	37.64
2.77337	37.64
2.79003	37.64
2.80670	37.63
2.82337	37.63
2.84003	37.63
2.85670	37.64
2.87337	37.63
2.89003	37.63
2.90670	37.63
2.92337	37.63
2.94003	37.63
2.95670	37.63
2.97337	37.63
2.99003	37.63
3.00670	37.63
3.02337	37.63
3.04003	37.62
3.05670	37.62
3.07337	37.62
3.09003	37.62
3.10670	37.62
3.12337	37.62
3.14003	37.62
3.15670	37.62
3.17337	37.62
3.19003	37.62
3.20670	37.62
3.22337	37.62
3.24003	37.62
3.25670	37.62
3.27337	37.62
3.29003	37.62
3.30670	37.62
3.32337	37.61
3.34003	37.61
3.35670	37.62
3.37337	37.62
3.39003	37.62
3.40670	37.62
3.42337	37.62
3.44003	37.62
3.45670	37.62
3.47337	37.62
3.49003	37.62
3.50670	37.62
3.52337	37.62
3.54003	37.62
3.55670	37.62
3.57337	37.62
3.59003	37.62
3.60670	37.62
3.62337	37.62
3.64003	37.62
3.65670	37.62
3.67337	37.62
3.69003	37.62
3.70670	37.62
3.72337	37.62
3.74003	37.62
3.75670	37.62
3.77337	37.62
3.79003	37.62
3.80670	37.62
3.82337	37.62
3.84003	37.62
3.85670	37.62
3.87337	37.62
3.89003	37.62
3.90670	37.62
3.92337	37.62
3.94003	37.62
3.95670	37.62
3.97337	37.62
3.99003	37.62

