[Header]
Application Name	LabSolutions
Version	5.110
Data File Name	C:\Users\User\Desktop\GC Analyses\Jack\UIC Prairie Sampling\10.19.22\221019_045.gcd
Output Date	1/4/2023
Output Time	2:27:25 PM

[File Information]
Type	Data File
Generated	12/6/2022 12:13:34 PM
Generated by	System Administrator
Modified	12/6/2022 12:17:48 PM
Modified by	System Administrator

[Sample Information]
Operator Name	System Administrator
Acquired	12/6/2022 12:13:46 PM
Sample Type	1:Standard
Level	1
Sample Name	221019_UICPrairie
Sample ID	221019_UICPrairie
ISTD Amount1	1
ISTD Amount2	1
ISTD Amount3	1
ISTD Amount4	1
ISTD Amount5	1
ISTD Amount6	1
ISTD Amount7	1
ISTD Amount8	1
ISTD Amount9	1
ISTD Amount10	1
ISTD Amount11	1
ISTD Amount12	1
ISTD Amount13	1
ISTD Amount14	1
ISTD Amount15	1
ISTD Amount16	1
ISTD Amount17	1
ISTD Amount18	1
ISTD Amount19	1
ISTD Amount20	1
ISTD Amount21	1
ISTD Amount22	1
ISTD Amount23	1
ISTD Amount24	1
ISTD Amount25	1
ISTD Amount26	1
ISTD Amount27	1
ISTD Amount28	1
ISTD Amount29	1
ISTD Amount30	1
ISTD Amount31	1
ISTD Amount32	1
Sample Amount	1
Dilution Factor	1
Vial#	1
Injection Volume	1
Injection Count	1
Bar Code	

[Original Files]
Data File	C:\Users\User\Desktop\GC Analyses\Jack\UIC Prairie Sampling\10.19.22\221019_045.gcd
Method File	C:\LabSolutions\Data\GHG_4min_2022\ghg3_togas_w_acet_4 min_new_int.gcm
Batch File	
Report Format File	c:\LabSolutions\System\DEFAULT.lsr

[File Description]


[Configuration]
Instrument Name	C0B7VH3-Instrument1
Instrument #	1
Line #	1
# of Detectors	3
Detector ID	DET#1	DET#2	DET#3
Detector Name	FID	PTCD	ECD
# of Channels	1	1	1

[Peak Table(Ch1)]
# of Peaks	2
Peak#	R.Time	I.Time	F.Time	Area	Height	A/H	Conc.	Mark	ID#	Name	k'	Plate #	Plate Ht.	Tailing	Resolution	Sep.Factor	Area Ratio	Height Ratio	Conc. %	Norm Conc.
1	1.483	1.443	1.538	589	331	1.781	100.000	   	1	CO	0.000	12472	12.027	1.254	0.000	0.000	0	0	20.000	20.000
2	2.007	1.945	2.114	23656	13174	1.796	400.000	   	3	CO2	0.354	23981	6.255	1.290	9.990	0.000	0	0	80.000	80.000

[Peak Table(Ch2)]
# of Peaks	0

[Peak Table(Ch3)]
# of Peaks	6
Peak#	R.Time	I.Time	F.Time	Area	Height	A/H	Conc.	Mark	ID#	Name	k'	Plate #	Plate Ht.	Tailing	Resolution	Sep.Factor	Area Ratio	Height Ratio	Conc. %	Norm Conc.
1	2.469	1.993	2.480	1690	471	3.585	0.000	   			0.000	953	157.357	0.000	0.000	0.000	0	0	0.000	0.000
2	2.506	2.480	2.521	1232	547	2.253	0.000	 V 			0.015	996	150.534	0.000	0.115	0.000	0	0	0.000	0.000
3	2.572	2.521	2.642	4006	636	6.299	0.000	 V 			0.042	865	173.391	0.000	0.198	2.800	0	0	0.000	0.000
4	2.730	2.642	2.836	5937	571	10.406	0.268	 V 	1	N2O	0.105	27	5582.388	0.000	0.128	2.536	0	0	26.820	26.820
5	2.895	2.836	2.975	4333	597	7.260	0.196	 V 	1	N2O	0.172	893	167.917	0.000	0.132	1.634	0	0	19.575	19.575
6	3.045	2.975	3.995	11866	493	24.066	0.536	 V 	1	N2O	0.233	12	12714.003	0.000	0.076	1.353	0	0	53.605	53.605

[Compound Results(Ch1)]
# of IDs	6
ID#	Name	R.Time	Area	Height	Conc.	Curve	3rd	2nd	1st	Constant	Area Ratio	Height Ratio	Conc. %	Norm Conc.
1	CO	1.483	589	331	100.000	Linear	0.000000e+00	0.000000e+00	5.887234e+000	0.000000e+00	0	0	20.000	20.000
2	CH4	0.000	0	0	0.000	Linear	0.000000e+00	0.000000e+00	0.000000e+00	0.000000e+00	0	0	0.000	0.000
3	CO2	2.007	23656	13174	400.000	Linear	0.000000e+00	0.000000e+00	5.913941e+001	0.000000e+00	0	0	80.000	80.000
4	Ethylene	0.000	0	0	0.000	Linear	0.000000e+00	0.000000e+00	0.000000e+00	0.000000e+00	0	0	0.000	0.000
5	Acetylene	0.000	0	0	0.000	Linear	0.000000e+00	0.000000e+00	0.000000e+00	0.000000e+00	0	0	0.000	0.000
6	Ethane	0.000	0	0	0.000	Linear	0.000000e+00	0.000000e+00	0.000000e+00	0.000000e+00	0	0	0.000	0.000

[Compound Results(Ch2)]
# of IDs	5
ID#	Name	R.Time	Area	Height	Conc.	Curve	3rd	2nd	1st	Constant	Area Ratio	Height Ratio	Conc. %	Norm Conc.
1	Hydrogen	0.000	0	0	0.000	Linear	0.000000e+00	0.000000e+00	0.000000e+00	0.000000e+00	0	0	0.000	0.000
2	Oxygen	0.000	0	0	0.000	Linear	0.000000e+00	0.000000e+00	0.000000e+00	0.000000e+00	0	0	0.000	0.000
3	Nitrogen	0.000	0	0	0.000	Linear	0.000000e+00	0.000000e+00	0.000000e+00	0.000000e+00	0	0	0.000	0.000
4	Methane	0.000	0	0	0.000	Linear	0.000000e+00	0.000000e+00	0.000000e+00	0.000000e+00	0	0	0.000	0.000
5	Carbon Monoxide	0.000	0	0	0.000	Linear	0.000000e+00	0.000000e+00	0.000000e+00	0.000000e+00	0	0	0.000	0.000

[Compound Results(Ch3)]
# of IDs	2
ID#	Name	R.Time	Area	Height	Conc.	Curve	3rd	2nd	1st	Constant	Area Ratio	Height Ratio	Conc. %	Norm Conc.
1	N2O	2.895	22137	1661	1.000	Linear	0.000000e+00	0.000000e+00	2.213697e+004	0.000000e+00	0	0	100.000	100.000
2	SF6	0.000	0	0	0.000	Linear	0.000000e+00	0.000000e+00	0.000000e+00	0.000000e+00	0	0	0.000	0.000

[Group Results(Ch1)]
# of Groups	0

[Group Results(Ch2)]
# of Groups	0

[Group Results(Ch3)]
# of Groups	0

[Chromatogram (Ch1)]
Interval(msec)	220
# of Points	1091
Start Time(min)	0.002
End Time(min)	3.998
R.Time (min)	Intensity
0.00167	13
0.00533	14
0.00900	14
0.01267	17
0.01633	23
0.02000	26
0.02367	22
0.02733	12
0.03100	0
0.03467	-10
0.03833	-16
0.04200	-15
0.04567	-8
0.04933	2
0.05300	14
0.05667	20
0.06033	20
0.06400	13
0.06767	4
0.07133	-3
0.07500	-9
0.07867	-10
0.08233	-8
0.08600	-7
0.08967	-7
0.09333	-8
0.09700	-11
0.10067	-11
0.10433	-9
0.10800	-6
0.11167	-5
0.11533	-5
0.11900	-3
0.12267	-3
0.12633	-3
0.13000	-7
0.13367	-10
0.13733	-9
0.14100	-6
0.14467	-2
0.14833	2
0.15200	7
0.15567	9
0.15933	8
0.16300	8
0.16667	9
0.17033	7
0.17400	4
0.17767	0
0.18133	-1
0.18500	1
0.18867	2
0.19233	3
0.19600	2
0.19967	-3
0.20333	-9
0.20700	-12
0.21067	-9
0.21433	-8
0.21800	-11
0.22167	-17
0.22533	-22
0.22900	-24
0.23267	-22
0.23633	-17
0.24000	-10
0.24367	-6
0.24733	-6
0.25100	-14
0.25467	-26
0.25833	-37
0.26200	-40
0.26567	-40
0.26933	-36
0.27300	-30
0.27667	-24
0.28033	-19
0.28400	-16
0.28767	-14
0.29133	-12
0.29500	-9
0.29867	-8
0.30233	-7
0.30600	-2
0.30967	2
0.31333	6
0.31700	6
0.32067	3
0.32433	-4
0.32800	-12
0.33167	-21
0.33533	-29
0.33900	-32
0.34267	-31
0.34633	-28
0.35000	-26
0.35367	-26
0.35733	-27
0.36100	-29
0.36467	-33
0.36833	-38
0.37200	-43
0.37567	-46
0.37933	-45
0.38300	-40
0.38667	-33
0.39033	-26
0.39400	-19
0.39767	-16
0.40133	-15
0.40500	-16
0.40867	-17
0.41233	-17
0.41600	-20
0.41967	-24
0.42333	-30
0.42700	-39
0.43067	-46
0.43433	-48
0.43800	-46
0.44167	-43
0.44533	-39
0.44900	-34
0.45267	-29
0.45633	-24
0.46000	-19
0.46367	-20
0.46733	-26
0.47100	-30
0.47467	-35
0.47833	-38
0.48200	-38
0.48567	-37
0.48933	-30
0.49300	-24
0.49667	-21
0.50033	-21
0.50400	-24
0.50767	-31
0.51133	-40
0.51500	-45
0.51867	-46
0.52233	-43
0.52600	-39
0.52967	-36
0.53333	-38
0.53700	-41
0.54067	-41
0.54433	-41
0.54800	-43
0.55167	-44
0.55533	-46
0.55900	-48
0.56267	-49
0.56633	-50
0.57000	-50
0.57367	-49
0.57733	-48
0.58100	-48
0.58467	-48
0.58833	-50
0.59200	-56
0.59567	-64
0.59933	-70
0.60300	-72
0.60667	-71
0.61033	-70
0.61400	-67
0.61767	-64
0.62133	-59
0.62500	-55
0.62867	-51
0.63233	-49
0.63600	-50
0.63967	-53
0.64333	-56
0.64700	-57
0.65067	-60
0.65433	-61
0.65800	-59
0.66167	-54
0.66533	-46
0.66900	-41
0.67267	-39
0.67633	-39
0.68000	-37
0.68367	-38
0.68733	-43
0.69100	-53
0.69467	-62
0.69833	-67
0.70200	-67
0.70567	-60
0.70933	-51
0.71300	-46
0.71667	-44
0.72033	-44
0.72400	-44
0.72767	-41
0.73133	-38
0.73500	-37
0.73867	-37
0.74233	-37
0.74600	-37
0.74967	-39
0.75333	-42
0.75700	-46
0.76067	-50
0.76433	-53
0.76800	-55
0.77167	-58
0.77533	-65
0.77900	-72
0.78267	-73
0.78633	-69
0.79000	-63
0.79367	-59
0.79733	-60
0.80100	-65
0.80467	-70
0.80833	-75
0.81200	-80
0.81567	-84
0.81933	-81
0.82300	-74
0.82667	-68
0.83033	-63
0.83400	-61
0.83767	-62
0.84133	-66
0.84500	-70
0.84867	-73
0.85233	-76
0.85600	-80
0.85967	-83
0.86333	-85
0.86700	-84
0.87067	-84
0.87433	-83
0.87800	-81
0.88167	-80
0.88533	-79
0.88900	-76
0.89267	-71
0.89633	-70
0.90000	-70
0.90367	-69
0.90733	-64
0.91100	-60
0.91467	-56
0.91833	-52
0.92200	-49
0.92567	-50
0.92933	-57
0.93300	-64
0.93667	-70
0.94033	-71
0.94400	-71
0.94767	-70
0.95133	-68
0.95500	-63
0.95867	-61
0.96233	-63
0.96600	-69
0.96967	-74
0.97333	-81
0.97700	-85
0.98067	-86
0.98433	-82
0.98800	-78
0.99167	-74
0.99533	-71
0.99900	-72
1.00267	-75
1.00633	-79
1.01000	-84
1.01367	-87
1.01733	-87
1.02100	-87
1.02467	-89
1.02833	-91
1.03200	-90
1.03567	-89
1.03933	-91
1.04300	-91
1.04667	-88
1.05033	-81
1.05400	-75
1.05767	-73
1.06133	-73
1.06500	-72
1.06867	-73
1.07233	-75
1.07600	-75
1.07967	-76
1.08333	-76
1.08700	-77
1.09067	-78
1.09433	-80
1.09800	-83
1.10167	-90
1.10533	-92
1.10900	-90
1.11267	-87
1.11633	-89
1.12000	-95
1.12367	-99
1.12733	-102
1.13100	-104
1.13467	-101
1.13833	-94
1.14200	-90
1.14567	-89
1.14933	-88
1.15300	-88
1.15667	-91
1.16033	-91
1.16400	-91
1.16767	-93
1.17133	-95
1.17500	-95
1.17867	-93
1.18233	-87
1.18600	-81
1.18967	-77
1.19333	-76
1.19700	-78
1.20067	-82
1.20433	-89
1.20800	-96
1.21167	-100
1.21533	-103
1.21900	-104
1.22267	-105
1.22633	-104
1.23000	-105
1.23367	-105
1.23733	-104
1.24100	-100
1.24467	-92
1.24833	-85
1.25200	-82
1.25567	-79
1.25933	-78
1.26300	-75
1.26667	-72
1.27033	-71
1.27400	-73
1.27767	-80
1.28133	-91
1.28500	-102
1.28867	-112
1.29233	-118
1.29600	-122
1.29967	-120
1.30333	-116
1.30700	-111
1.31067	-107
1.31433	-104
1.31800	-103
1.32167	-104
1.32533	-103
1.32900	-104
1.33267	-106
1.33633	-107
1.34000	-109
1.34367	-111
1.34733	-110
1.35100	-109
1.35467	-107
1.35833	-106
1.36200	-110
1.36567	-120
1.36933	-128
1.37300	-128
1.37667	-123
1.38033	-118
1.38400	-114
1.38767	-112
1.39133	-107
1.39500	-101
1.39867	-98
1.40233	-97
1.40600	-98
1.40967	-103
1.41333	-109
1.41700	-116
1.42067	-122
1.42433	-122
1.42800	-118
1.43167	-113
1.43533	-110
1.43900	-110
1.44267	-110
1.44633	-109
1.45000	-105
1.45367	-97
1.45733	-91
1.46100	-87
1.46467	-74
1.46833	-29
1.47200	53
1.47567	142
1.47933	203
1.48300	224
1.48667	207
1.49033	169
1.49400	124
1.49767	77
1.50133	32
1.50500	-7
1.50867	-34
1.51233	-56
1.51600	-72
1.51967	-81
1.52333	-87
1.52700	-90
1.53067	-92
1.53433	-95
1.53800	-102
1.54167	-109
1.54533	-110
1.54900	-112
1.55267	-115
1.55633	-117
1.56000	-113
1.56367	-103
1.56733	-87
1.57100	-64
1.57467	-40
1.57833	-29
1.58200	-33
1.58567	-47
1.58933	-64
1.59300	-80
1.59667	-96
1.60033	-109
1.60400	-122
1.60767	-130
1.61133	-133
1.61500	-134
1.61867	-132
1.62233	-129
1.62600	-128
1.62967	-126
1.63333	-124
1.63700	-120
1.64067	-118
1.64433	-118
1.64800	-119
1.65167	-119
1.65533	-119
1.65900	-119
1.66267	-118
1.66633	-116
1.67000	-114
1.67367	-113
1.67733	-111
1.68100	-109
1.68467	-110
1.68833	-114
1.69200	-118
1.69567	-118
1.69933	-114
1.70300	-107
1.70667	-103
1.71033	-107
1.71400	-118
1.71767	-128
1.72133	-135
1.72500	-142
1.72867	-147
1.73233	-148
1.73600	-144
1.73967	-139
1.74333	-136
1.74700	-134
1.75067	-135
1.75433	-135
1.75800	-132
1.76167	-129
1.76533	-124
1.76900	-120
1.77267	-115
1.77633	-113
1.78000	-116
1.78367	-124
1.78733	-128
1.79100	-127
1.79467	-125
1.79833	-128
1.80200	-134
1.80567	-140
1.80933	-143
1.81300	-141
1.81667	-137
1.82033	-132
1.82400	-131
1.82767	-132
1.83133	-131
1.83500	-129
1.83867	-127
1.84233	-126
1.84600	-123
1.84967	-117
1.85333	-112
1.85700	-112
1.86067	-116
1.86433	-119
1.86800	-122
1.87167	-126
1.87533	-128
1.87900	-123
1.88267	-118
1.88633	-117
1.89000	-120
1.89367	-125
1.89733	-130
1.90100	-132
1.90467	-131
1.90833	-129
1.91200	-124
1.91567	-120
1.91933	-120
1.92300	-123
1.92667	-129
1.93033	-133
1.93400	-134
1.93767	-136
1.94133	-138
1.94500	-137
1.94867	-131
1.95233	-121
1.95600	-112
1.95967	-101
1.96333	-81
1.96700	-44
1.97067	24
1.97433	137
1.97800	302
1.98167	532
1.98533	908
1.98900	1666
1.99267	3177
1.99633	5648
2.00000	8734
2.00367	11530
2.00733	13080
2.01100	12992
2.01467	11558
2.01833	9428
2.02200	7203
2.02567	5250
2.02933	3708
2.03300	2574
2.03667	1774
2.04033	1223
2.04400	847
2.04767	592
2.05133	420
2.05500	307
2.05867	232
2.06233	179
2.06600	143
2.06967	116
2.07333	94
2.07700	75
2.08067	59
2.08433	46
2.08800	34
2.09167	22
2.09533	7
2.09900	-7
2.10267	-16
2.10633	-21
2.11000	-22
2.11367	-21
2.11733	-21
2.12100	-22
2.12467	-29
2.12833	-37
2.13200	-47
2.13567	-56
2.13933	-57
2.14300	-54
2.14667	-49
2.15033	-43
2.15400	-37
2.15767	-35
2.16133	-36
2.16500	-38
2.16867	-41
2.17233	-44
2.17600	-49
2.17967	-52
2.18333	-52
2.18700	-49
2.19067	-48
2.19433	-48
2.19800	-50
2.20167	-51
2.20533	-53
2.20900	-55
2.21267	-55
2.21633	-51
2.22000	-45
2.22367	-44
2.22733	-46
2.23100	-50
2.23467	-53
2.23833	-57
2.24200	-62
2.24567	-66
2.24933	-66
2.25300	-63
2.25667	-60
2.26033	-58
2.26400	-56
2.26767	-53
2.27133	-50
2.27500	-49
2.27867	-50
2.28233	-54
2.28600	-58
2.28967	-59
2.29333	-54
2.29700	-46
2.30067	-42
2.30433	-45
2.30800	-53
2.31167	-61
2.31533	-68
2.31900	-71
2.32267	-69
2.32633	-63
2.33000	-58
2.33367	-54
2.33733	-53
2.34100	-55
2.34467	-60
2.34833	-62
2.35200	-62
2.35567	-63
2.35933	-66
2.36300	-69
2.36667	-68
2.37033	-65
2.37400	-62
2.37767	-58
2.38133	-54
2.38500	-48
2.38867	-44
2.39233	-42
2.39600	-43
2.39967	-43
2.40333	-39
2.40700	-34
2.41067	-32
2.41433	-34
2.41800	-35
2.42167	-38
2.42533	-42
2.42900	-44
2.43267	-45
2.43633	-45
2.44000	-47
2.44367	-48
2.44733	-48
2.45100	-52
2.45467	-55
2.45833	-54
2.46200	-51
2.46567	-47
2.46933	-42
2.47300	-34
2.47667	-27
2.48033	-23
2.48400	-22
2.48767	-23
2.49133	-27
2.49500	-36
2.49867	-44
2.50233	-49
2.50600	-52
2.50967	-53
2.51333	-51
2.51700	-46
2.52067	-44
2.52433	-43
2.52800	-42
2.53167	-41
2.53533	-40
2.53900	-36
2.54267	-30
2.54633	-28
2.55000	-30
2.55367	-35
2.55733	-44
2.56100	-50
2.56467	-54
2.56833	-55
2.57200	-51
2.57567	-46
2.57933	-38
2.58300	-30
2.58667	-26
2.59033	-29
2.59400	-35
2.59767	-42
2.60133	-50
2.60500	-57
2.60867	-59
2.61233	-57
2.61600	-49
2.61967	-40
2.62333	-32
2.62700	-31
2.63067	-38
2.63433	-46
2.63800	-52
2.64167	-53
2.64533	-49
2.64900	-43
2.65267	-40
2.65633	-37
2.66000	-32
2.66367	-26
2.66733	-21
2.67100	-22
2.67467	-23
2.67833	-21
2.68200	-19
2.68567	-22
2.68933	-28
2.69300	-34
2.69667	-35
2.70033	-32
2.70400	-29
2.70767	-29
2.71133	-32
2.71500	-34
2.71867	-34
2.72233	-33
2.72600	-32
2.72967	-34
2.73333	-33
2.73700	-32
2.74067	-33
2.74433	-36
2.74800	-35
2.75167	-30
2.75533	-28
2.75900	-27
2.76267	-23
2.76633	-21
2.77000	-22
2.77367	-24
2.77733	-28
2.78100	-31
2.78467	-32
2.78833	-31
2.79200	-28
2.79567	-22
2.79933	-16
2.80300	-16
2.80667	-20
2.81033	-24
2.81400	-27
2.81767	-33
2.82133	-43
2.82500	-51
2.82867	-54
2.83233	-52
2.83600	-47
2.83967	-42
2.84333	-40
2.84700	-37
2.85067	-33
2.85433	-31
2.85800	-30
2.86167	-32
2.86533	-36
2.86900	-39
2.87267	-39
2.87633	-40
2.88000	-41
2.88367	-44
2.88733	-47
2.89100	-49
2.89467	-47
2.89833	-45
2.90200	-41
2.90567	-38
2.90933	-37
2.91300	-38
2.91667	-42
2.92033	-40
2.92400	-34
2.92767	-26
2.93133	-21
2.93500	-22
2.93867	-26
2.94233	-25
2.94600	-23
2.94967	-25
2.95333	-28
2.95700	-31
2.96067	-31
2.96433	-30
2.96800	-30
2.97167	-32
2.97533	-35
2.97900	-40
2.98267	-48
2.98633	-54
2.99000	-54
2.99367	-49
2.99733	-42
3.00100	-35
3.00467	-28
3.00833	-18
3.01200	-6
3.01567	1
3.01933	2
3.02300	-4
3.02667	-13
3.03033	-19
3.03400	-23
3.03767	-23
3.04133	-20
3.04500	-16
3.04867	-13
3.05233	-13
3.05600	-13
3.05967	-13
3.06333	-10
3.06700	-8
3.07067	-10
3.07433	-13
3.07800	-13
3.08167	-14
3.08533	-18
3.08900	-22
3.09267	-22
3.09633	-19
3.10000	-17
3.10367	-16
3.10733	-15
3.11100	-14
3.11467	-15
3.11833	-18
3.12200	-19
3.12567	-20
3.12933	-20
3.13300	-23
3.13667	-24
3.14033	-23
3.14400	-21
3.14767	-20
3.15133	-17
3.15500	-11
3.15867	-3
3.16233	0
3.16600	-3
3.16967	-11
3.17333	-18
3.17700	-24
3.18067	-31
3.18433	-33
3.18800	-29
3.19167	-21
3.19533	-15
3.19900	-13
3.20267	-16
3.20633	-22
3.21000	-23
3.21367	-20
3.21733	-15
3.22100	-12
3.22467	-13
3.22833	-14
3.23200	-20
3.23567	-25
3.23933	-25
3.24300	-21
3.24667	-16
3.25033	-11
3.25400	-8
3.25767	-6
3.26133	-7
3.26500	-7
3.26867	-6
3.27233	-0
3.27600	7
3.27967	9
3.28333	6
3.28700	-2
3.29067	-10
3.29433	-17
3.29800	-21
3.30167	-20
3.30533	-17
3.30900	-12
3.31267	-8
3.31633	-5
3.32000	-6
3.32367	-12
3.32733	-16
3.33100	-17
3.33467	-16
3.33833	-11
3.34200	-6
3.34567	-1
3.34933	5
3.35300	11
3.35667	18
3.36033	25
3.36400	30
3.36767	30
3.37133	22
3.37500	11
3.37867	-1
3.38233	-9
3.38600	-14
3.38967	-15
3.39333	-11
3.39700	-4
3.40067	4
3.40433	11
3.40800	16
3.41167	21
3.41533	25
3.41900	23
3.42267	18
3.42633	12
3.43000	6
3.43367	2
3.43733	-2
3.44100	-8
3.44467	-16
3.44833	-21
3.45200	-17
3.45567	-8
3.45933	-1
3.46300	1
3.46667	-1
3.47033	-4
3.47400	-6
3.47767	-9
3.48133	-9
3.48500	-7
3.48867	-5
3.49233	-3
3.49600	3
3.49967	14
3.50333	27
3.50700	36
3.51067	39
3.51433	33
3.51800	23
3.52167	14
3.52533	10
3.52900	10
3.53267	9
3.53633	7
3.54000	6
3.54367	6
3.54733	9
3.55100	14
3.55467	20
3.55833	24
3.56200	25
3.56567	18
3.56933	11
3.57300	7
3.57667	5
3.58033	3
3.58400	2
3.58767	2
3.59133	5
3.59500	11
3.59867	18
3.60233	25
3.60600	31
3.60967	34
3.61333	33
3.61700	27
3.62067	21
3.62433	17
3.62800	16
3.63167	13
3.63533	8
3.63900	1
3.64267	-5
3.64633	-7
3.65000	-3
3.65367	5
3.65733	12
3.66100	16
3.66467	16
3.66833	12
3.67200	10
3.67567	12
3.67933	14
3.68300	15
3.68667	13
3.69033	13
3.69400	15
3.69767	15
3.70133	12
3.70500	9
3.70867	4
3.71233	-1
3.71600	-14
3.71967	-11
3.72333	5
3.72700	13
3.73067	14
3.73433	16
3.73800	17
3.74167	22
3.74533	24
3.74900	26
3.75267	28
3.75633	26
3.76000	20
3.76367	13
3.76733	8
3.77100	9
3.77467	14
3.77833	19
3.78200	21
3.78567	20
3.78933	21
3.79300	20
3.79667	15
3.80033	8
3.80400	2
3.80767	-2
3.81133	-4
3.81500	-3
3.81867	-2
3.82233	-3
3.82600	-6
3.82967	-9
3.83333	-7
3.83700	-4
3.84067	-3
3.84433	-0
3.84800	4
3.85167	12
3.85533	22
3.85900	30
3.86267	31
3.86633	26
3.87000	21
3.87367	15
3.87733	6
3.88100	-3
3.88467	-7
3.88833	-8
3.89200	-7
3.89567	-6
3.89933	-5
3.90300	-2
3.90667	4
3.91033	7
3.91400	5
3.91767	1
3.92133	-1
3.92500	1
3.92867	4
3.93233	7
3.93600	8
3.93967	2
3.94333	-8
3.94700	-25
3.95067	-27
3.95433	-26
3.95800	-22
3.96167	-16
3.96533	-7
3.96900	1
3.97267	7
3.97633	7
3.98000	4
3.98367	5
3.98733	10
3.99100	15
3.99467	16
3.99833	11

[Chromatogram (Ch2)]
Interval(msec)	220
# of Points	1091
Start Time(min)	0.002
End Time(min)	3.998
R.Time (min)	Intensity
0.00167	-0
0.00533	-0
0.00900	-0
0.01267	-0
0.01633	-0
0.02000	-0
0.02367	0
0.02733	0
0.03100	0
0.03467	1
0.03833	0
0.04200	0
0.04567	0
0.04933	-0
0.05300	-0
0.05667	-1
0.06033	-1
0.06400	-2
0.06767	-2
0.07133	-2
0.07500	-2
0.07867	-2
0.08233	-2
0.08600	-2
0.08967	-2
0.09333	-2
0.09700	-2
0.10067	-2
0.10433	-2
0.10800	-2
0.11167	-2
0.11533	-2
0.11900	-2
0.12267	-2
0.12633	-3
0.13000	-2
0.13367	-2
0.13733	-2
0.14100	-2
0.14467	-2
0.14833	-2
0.15200	-3
0.15567	-3
0.15933	-3
0.16300	-3
0.16667	-3
0.17033	-3
0.17400	-3
0.17767	-3
0.18133	-2
0.18500	-2
0.18867	-2
0.19233	-1
0.19600	-1
0.19967	-0
0.20333	0
0.20700	0
0.21067	0
0.21433	0
0.21800	0
0.22167	-0
0.22533	-0
0.22900	-0
0.23267	-0
0.23633	-0
0.24000	0
0.24367	0
0.24733	0
0.25100	-0
0.25467	-0
0.25833	-0
0.26200	-0
0.26567	-0
0.26933	-0
0.27300	-0
0.27667	-0
0.28033	-0
0.28400	-0
0.28767	-0
0.29133	-0
0.29500	0
0.29867	-0
0.30233	-0
0.30600	-1
0.30967	-1
0.31333	-1
0.31700	-2
0.32067	-2
0.32433	-2
0.32800	-3
0.33167	-3
0.33533	-2
0.33900	-2
0.34267	-2
0.34633	-2
0.35000	-1
0.35367	-1
0.35733	-1
0.36100	-1
0.36467	-1
0.36833	-1
0.37200	-1
0.37567	-1
0.37933	-1
0.38300	-1
0.38667	-1
0.39033	-1
0.39400	-2
0.39767	-2
0.40133	-2
0.40500	-2
0.40867	-2
0.41233	-2
0.41600	-2
0.41967	-2
0.42333	-2
0.42700	-2
0.43067	-2
0.43433	-1
0.43800	-1
0.44167	-1
0.44533	-1
0.44900	-1
0.45267	-1
0.45633	-1
0.46000	-1
0.46367	-1
0.46733	-2
0.47100	-2
0.47467	-2
0.47833	-2
0.48200	-2
0.48567	-2
0.48933	-2
0.49300	-2
0.49667	-1
0.50033	-1
0.50400	-1
0.50767	-1
0.51133	-1
0.51500	-1
0.51867	-1
0.52233	-1
0.52600	-1
0.52967	-1
0.53333	-1
0.53700	-1
0.54067	-1
0.54433	-1
0.54800	-1
0.55167	-1
0.55533	-1
0.55900	-2
0.56267	-2
0.56633	-2
0.57000	-2
0.57367	-2
0.57733	-2
0.58100	-2
0.58467	-2
0.58833	-2
0.59200	-2
0.59567	-2
0.59933	-3
0.60300	-3
0.60667	-3
0.61033	-3
0.61400	-3
0.61767	-3
0.62133	-3
0.62500	-3
0.62867	-3
0.63233	-3
0.63600	-3
0.63967	-3
0.64333	-3
0.64700	-3
0.65067	-3
0.65433	-2
0.65800	-2
0.66167	-2
0.66533	-2
0.66900	-2
0.67267	-2
0.67633	-3
0.68000	-3
0.68367	-3
0.68733	-3
0.69100	-3
0.69467	-4
0.69833	-4
0.70200	-4
0.70567	-4
0.70933	-4
0.71300	-4
0.71667	-4
0.72033	-4
0.72400	-4
0.72767	-4
0.73133	-4
0.73500	-4
0.73867	-3
0.74233	-3
0.74600	-3
0.74967	-3
0.75333	-3
0.75700	-3
0.76067	-3
0.76433	-2
0.76800	-2
0.77167	-3
0.77533	-3
0.77900	-3
0.78267	-3
0.78633	-3
0.79000	-3
0.79367	-3
0.79733	-4
0.80100	-4
0.80467	-4
0.80833	-3
0.81200	-3
0.81567	-3
0.81933	-3
0.82300	-4
0.82667	-4
0.83033	-4
0.83400	-4
0.83767	-4
0.84133	-4
0.84500	-4
0.84867	-4
0.85233	-4
0.85600	-4
0.85967	-4
0.86333	-4
0.86700	-4
0.87067	-4
0.87433	-4
0.87800	-3
0.88167	-3
0.88533	-3
0.88900	-3
0.89267	-3
0.89633	-2
0.90000	-2
0.90367	-2
0.90733	-2
0.91100	-1
0.91467	-1
0.91833	-1
0.92200	-1
0.92567	-1
0.92933	-1
0.93300	-1
0.93667	-1
0.94033	-1
0.94400	-1
0.94767	-1
0.95133	-1
0.95500	-1
0.95867	-1
0.96233	-2
0.96600	-2
0.96967	-2
0.97333	-2
0.97700	-2
0.98067	-2
0.98433	-2
0.98800	-2
0.99167	-2
0.99533	-3
0.99900	-3
1.00267	-3
1.00633	-3
1.01000	-3
1.01367	-3
1.01733	-4
1.02100	-4
1.02467	-4
1.02833	-4
1.03200	-3
1.03567	-3
1.03933	-3
1.04300	-3
1.04667	-4
1.05033	-4
1.05400	-4
1.05767	-4
1.06133	-4
1.06500	-4
1.06867	-4
1.07233	-4
1.07600	-4
1.07967	-4
1.08333	-3
1.08700	-3
1.09067	-3
1.09433	-3
1.09800	-3
1.10167	-3
1.10533	-3
1.10900	-3
1.11267	-2
1.11633	-2
1.12000	-3
1.12367	-3
1.12733	-3
1.13100	-3
1.13467	-3
1.13833	-3
1.14200	-3
1.14567	-3
1.14933	-3
1.15300	-3
1.15667	-3
1.16033	-3
1.16400	-3
1.16767	-3
1.17133	-3
1.17500	-3
1.17867	-3
1.18233	-3
1.18600	-3
1.18967	-3
1.19333	-3
1.19700	-3
1.20067	-3
1.20433	-3
1.20800	-3
1.21167	-3
1.21533	-4
1.21900	-4
1.22267	-4
1.22633	-4
1.23000	-4
1.23367	-4
1.23733	-4
1.24100	-4
1.24467	-3
1.24833	-3
1.25200	-3
1.25567	-3
1.25933	-3
1.26300	-3
1.26667	-3
1.27033	-3
1.27400	-3
1.27767	-3
1.28133	-3
1.28500	-3
1.28867	-3
1.29233	-3
1.29600	-3
1.29967	-3
1.30333	-3
1.30700	-4
1.31067	-4
1.31433	-4
1.31800	-4
1.32167	-4
1.32533	-4
1.32900	-4
1.33267	-4
1.33633	-4
1.34000	-4
1.34367	-4
1.34733	-4
1.35100	-4
1.35467	-4
1.35833	-4
1.36200	-4
1.36567	-3
1.36933	-3
1.37300	-3
1.37667	-3
1.38033	-3
1.38400	-3
1.38767	-3
1.39133	-3
1.39500	-3
1.39867	-3
1.40233	-3
1.40600	-4
1.40967	-4
1.41333	-4
1.41700	-4
1.42067	-4
1.42433	-4
1.42800	-5
1.43167	-5
1.43533	-5
1.43900	-5
1.44267	-5
1.44633	-5
1.45000	-6
1.45367	-6
1.45733	-5
1.46100	-5
1.46467	-5
1.46833	-5
1.47200	-5
1.47567	-4
1.47933	-4
1.48300	-4
1.48667	-4
1.49033	-4
1.49400	-4
1.49767	-4
1.50133	-4
1.50500	-4
1.50867	-4
1.51233	-5
1.51600	-5
1.51967	-5
1.52333	-5
1.52700	-5
1.53067	-5
1.53433	-5
1.53800	-5
1.54167	-5
1.54533	-5
1.54900	-5
1.55267	-5
1.55633	-4
1.56000	-4
1.56367	-4
1.56733	-4
1.57100	-4
1.57467	-3
1.57833	-3
1.58200	-3
1.58567	-3
1.58933	-4
1.59300	-4
1.59667	-5
1.60033	-6
1.60400	-8
1.60767	-9
1.61133	-11
1.61500	-13
1.61867	-15
1.62233	-17
1.62600	-19
1.62967	-22
1.63333	-25
1.63700	-28
1.64067	-32
1.64433	-35
1.64800	-39
1.65167	-42
1.65533	-46
1.65900	-49
1.66267	-53
1.66633	-57
1.67000	-61
1.67367	-66
1.67733	-71
1.68100	-76
1.68467	-81
1.68833	-86
1.69200	-90
1.69567	-94
1.69933	-97
1.70300	-100
1.70667	-102
1.71033	-104
1.71400	-106
1.71767	-107
1.72133	-109
1.72500	-110
1.72867	-111
1.73233	-112
1.73600	-113
1.73967	-113
1.74333	-113
1.74700	-114
1.75067	-114
1.75433	-115
1.75800	-115
1.76167	-115
1.76533	-116
1.76900	-116
1.77267	-116
1.77633	-116
1.78000	-116
1.78367	-117
1.78733	-117
1.79100	-118
1.79467	-119
1.79833	-120
1.80200	-121
1.80567	-121
1.80933	-122
1.81300	-122
1.81667	-122
1.82033	-122
1.82400	-122
1.82767	-122
1.83133	-122
1.83500	-122
1.83867	-122
1.84233	-122
1.84600	-122
1.84967	-122
1.85333	-122
1.85700	-122
1.86067	-122
1.86433	-122
1.86800	-122
1.87167	-122
1.87533	-121
1.87900	-121
1.88267	-120
1.88633	-120
1.89000	-119
1.89367	-119
1.89733	-119
1.90100	-119
1.90467	-119
1.90833	-119
1.91200	-119
1.91567	-119
1.91933	-119
1.92300	-118
1.92667	-118
1.93033	-117
1.93400	-117
1.93767	-117
1.94133	-117
1.94500	-117
1.94867	-117
1.95233	-117
1.95600	-117
1.95967	-117
1.96333	-117
1.96700	-117
1.97067	-117
1.97433	-116
1.97800	-115
1.98167	-114
1.98533	-113
1.98900	-112
1.99267	-112
1.99633	-112
2.00000	-112
2.00367	-112
2.00733	-112
2.01100	-112
2.01467	-113
2.01833	-113
2.02200	-112
2.02567	-112
2.02933	-112
2.03300	-112
2.03667	-111
2.04033	-111
2.04400	-110
2.04767	-110
2.05133	-110
2.05500	-109
2.05867	-109
2.06233	-109
2.06600	-109
2.06967	-109
2.07333	-108
2.07700	-108
2.08067	-107
2.08433	-107
2.08800	-106
2.09167	-105
2.09533	-105
2.09900	-104
2.10267	-104
2.10633	-105
2.11000	-105
2.11367	-105
2.11733	-105
2.12100	-105
2.12467	-104
2.12833	-103
2.13200	-103
2.13567	-102
2.13933	-102
2.14300	-102
2.14667	-102
2.15033	-102
2.15400	-101
2.15767	-101
2.16133	-101
2.16500	-101
2.16867	-100
2.17233	-100
2.17600	-100
2.17967	-99
2.18333	-99
2.18700	-99
2.19067	-98
2.19433	-97
2.19800	-97
2.20167	-96
2.20533	-95
2.20900	-95
2.21267	-95
2.21633	-95
2.22000	-95
2.22367	-95
2.22733	-95
2.23100	-95
2.23467	-95
2.23833	-95
2.24200	-95
2.24567	-94
2.24933	-94
2.25300	-93
2.25667	-92
2.26033	-91
2.26400	-90
2.26767	-89
2.27133	-89
2.27500	-89
2.27867	-88
2.28233	-88
2.28600	-88
2.28967	-88
2.29333	-88
2.29700	-88
2.30067	-88
2.30433	-88
2.30800	-88
2.31167	-89
2.31533	-89
2.31900	-88
2.32267	-88
2.32633	-88
2.33000	-87
2.33367	-87
2.33733	-87
2.34100	-86
2.34467	-85
2.34833	-84
2.35200	-83
2.35567	-82
2.35933	-81
2.36300	-79
2.36667	-78
2.37033	-77
2.37400	-75
2.37767	-73
2.38133	-70
2.38500	-67
2.38867	-63
2.39233	-59
2.39600	-55
2.39967	-51
2.40333	-46
2.40700	-41
2.41067	-37
2.41433	-32
2.41800	-28
2.42167	-24
2.42533	-21
2.42900	-18
2.43267	-16
2.43633	-14
2.44000	-12
2.44367	-11
2.44733	-9
2.45100	-7
2.45467	-5
2.45833	-3
2.46200	-1
2.46567	-0
2.46933	1
2.47300	1
2.47667	2
2.48033	3
2.48400	4
2.48767	5
2.49133	6
2.49500	8
2.49867	9
2.50233	10
2.50600	11
2.50967	11
2.51333	12
2.51700	12
2.52067	12
2.52433	13
2.52800	13
2.53167	14
2.53533	14
2.53900	14
2.54267	15
2.54633	15
2.55000	15
2.55367	15
2.55733	16
2.56100	17
2.56467	17
2.56833	18
2.57200	18
2.57567	18
2.57933	19
2.58300	18
2.58667	18
2.59033	18
2.59400	18
2.59767	18
2.60133	18
2.60500	18
2.60867	19
2.61233	19
2.61600	20
2.61967	20
2.62333	21
2.62700	21
2.63067	22
2.63433	22
2.63800	22
2.64167	23
2.64533	23
2.64900	23
2.65267	23
2.65633	23
2.66000	23
2.66367	23
2.66733	23
2.67100	23
2.67467	23
2.67833	23
2.68200	23
2.68567	23
2.68933	24
2.69300	24
2.69667	24
2.70033	24
2.70400	24
2.70767	24
2.71133	24
2.71500	24
2.71867	24
2.72233	24
2.72600	24
2.72967	24
2.73333	25
2.73700	25
2.74067	25
2.74433	26
2.74800	26
2.75167	26
2.75533	25
2.75900	25
2.76267	25
2.76633	24
2.77000	24
2.77367	24
2.77733	24
2.78100	23
2.78467	23
2.78833	23
2.79200	23
2.79567	24
2.79933	24
2.80300	24
2.80667	24
2.81033	25
2.81400	25
2.81767	26
2.82133	26
2.82500	26
2.82867	26
2.83233	27
2.83600	27
2.83967	27
2.84333	27
2.84700	28
2.85067	28
2.85433	28
2.85800	28
2.86167	28
2.86533	28
2.86900	28
2.87267	28
2.87633	27
2.88000	27
2.88367	27
2.88733	26
2.89100	25
2.89467	24
2.89833	22
2.90200	20
2.90567	17
2.90933	14
2.91300	10
2.91667	6
2.92033	2
2.92400	-2
2.92767	-5
2.93133	-8
2.93500	-10
2.93867	-10
2.94233	-10
2.94600	-10
2.94967	-8
2.95333	-6
2.95700	-4
2.96067	-2
2.96433	0
2.96800	2
2.97167	5
2.97533	7
2.97900	9
2.98267	10
2.98633	12
2.99000	14
2.99367	15
2.99733	16
3.00100	17
3.00467	17
3.00833	18
3.01200	19
3.01567	19
3.01933	20
3.02300	20
3.02667	21
3.03033	21
3.03400	22
3.03767	22
3.04133	22
3.04500	22
3.04867	23
3.05233	23
3.05600	24
3.05967	24
3.06333	24
3.06700	24
3.07067	25
3.07433	25
3.07800	25
3.08167	25
3.08533	25
3.08900	26
3.09267	26
3.09633	26
3.10000	26
3.10367	25
3.10733	25
3.11100	25
3.11467	25
3.11833	25
3.12200	25
3.12567	25
3.12933	25
3.13300	25
3.13667	25
3.14033	25
3.14400	25
3.14767	25
3.15133	25
3.15500	25
3.15867	25
3.16233	25
3.16600	25
3.16967	25
3.17333	24
3.17700	24
3.18067	24
3.18433	24
3.18800	23
3.19167	23
3.19533	23
3.19900	23
3.20267	23
3.20633	23
3.21000	23
3.21367	23
3.21733	23
3.22100	23
3.22467	23
3.22833	24
3.23200	24
3.23567	24
3.23933	24
3.24300	24
3.24667	24
3.25033	25
3.25400	25
3.25767	25
3.26133	25
3.26500	25
3.26867	25
3.27233	25
3.27600	25
3.27967	25
3.28333	25
3.28700	25
3.29067	25
3.29433	25
3.29800	25
3.30167	25
3.30533	25
3.30900	25
3.31267	25
3.31633	25
3.32000	25
3.32367	25
3.32733	25
3.33100	25
3.33467	25
3.33833	25
3.34200	25
3.34567	25
3.34933	25
3.35300	25
3.35667	24
3.36033	24
3.36400	24
3.36767	24
3.37133	24
3.37500	24
3.37867	24
3.38233	25
3.38600	25
3.38967	25
3.39333	25
3.39700	25
3.40067	25
3.40433	25
3.40800	26
3.41167	26
3.41533	26
3.41900	27
3.42267	27
3.42633	27
3.43000	27
3.43367	27
3.43733	28
3.44100	28
3.44467	28
3.44833	29
3.45200	29
3.45567	29
3.45933	29
3.46300	30
3.46667	30
3.47033	30
3.47400	30
3.47767	30
3.48133	30
3.48500	29
3.48867	29
3.49233	29
3.49600	29
3.49967	29
3.50333	29
3.50700	28
3.51067	28
3.51433	28
3.51800	28
3.52167	28
3.52533	28
3.52900	28
3.53267	28
3.53633	28
3.54000	28
3.54367	28
3.54733	28
3.55100	28
3.55467	28
3.55833	28
3.56200	28
3.56567	28
3.56933	28
3.57300	28
3.57667	28
3.58033	28
3.58400	27
3.58767	27
3.59133	27
3.59500	27
3.59867	27
3.60233	27
3.60600	27
3.60967	27
3.61333	26
3.61700	26
3.62067	26
3.62433	26
3.62800	26
3.63167	26
3.63533	26
3.63900	25
3.64267	25
3.64633	25
3.65000	25
3.65367	25
3.65733	25
3.66100	26
3.66467	26
3.66833	26
3.67200	26
3.67567	26
3.67933	26
3.68300	26
3.68667	25
3.69033	25
3.69400	25
3.69767	25
3.70133	25
3.70500	25
3.70867	25
3.71233	25
3.71600	24
3.71967	24
3.72333	24
3.72700	24
3.73067	24
3.73433	24
3.73800	24
3.74167	25
3.74533	25
3.74900	25
3.75267	25
3.75633	25
3.76000	25
3.76367	25
3.76733	25
3.77100	25
3.77467	25
3.77833	25
3.78200	25
3.78567	25
3.78933	25
3.79300	25
3.79667	25
3.80033	25
3.80400	26
3.80767	26
3.81133	26
3.81500	26
3.81867	26
3.82233	26
3.82600	26
3.82967	26
3.83333	26
3.83700	26
3.84067	26
3.84433	26
3.84800	26
3.85167	26
3.85533	26
3.85900	26
3.86267	26
3.86633	26
3.87000	25
3.87367	25
3.87733	25
3.88100	25
3.88467	25
3.88833	25
3.89200	25
3.89567	25
3.89933	25
3.90300	25
3.90667	25
3.91033	25
3.91400	24
3.91767	24
3.92133	25
3.92500	25
3.92867	25
3.93233	25
3.93600	25
3.93967	25
3.94333	25
3.94700	25
3.95067	25
3.95433	25
3.95800	25
3.96167	25
3.96533	25
3.96900	25
3.97267	25
3.97633	25
3.98000	24
3.98367	24
3.98733	24
3.99100	24
3.99467	24
3.99833	24

[Chromatogram (Ch3)]
Interval(msec)	220
# of Points	1091
Start Time(min)	0.002
End Time(min)	3.998
R.Time (min)	Intensity
0.00167	0
0.00533	-0
0.00900	-2
0.01267	-6
0.01633	-8
0.02000	-8
0.02367	-6
0.02733	-4
0.03100	-3
0.03467	-5
0.03833	-6
0.04200	-7
0.04567	-10
0.04933	-12
0.05300	-14
0.05667	-11
0.06033	-9
0.06400	-8
0.06767	-8
0.07133	-8
0.07500	-9
0.07867	-9
0.08233	-11
0.08600	-13
0.08967	-16
0.09333	-14
0.09700	-13
0.10067	-13
0.10433	-13
0.10800	-14
0.11167	-13
0.11533	-12
0.11900	-10
0.12267	-9
0.12633	-8
0.13000	-9
0.13367	-9
0.13733	-10
0.14100	-9
0.14467	-8
0.14833	-8
0.15200	-6
0.15567	-6
0.15933	-7
0.16300	-8
0.16667	-9
0.17033	-9
0.17400	-7
0.17767	-5
0.18133	-6
0.18500	-7
0.18867	-7
0.19233	-6
0.19600	-7
0.19967	-7
0.20333	-7
0.20700	-8
0.21067	-9
0.21433	-9
0.21800	-9
0.22167	-9
0.22533	-7
0.22900	-6
0.23267	-6
0.23633	-8
0.24000	-5
0.24367	-4
0.24733	-4
0.25100	-5
0.25467	-5
0.25833	-5
0.26200	-6
0.26567	-5
0.26933	-5
0.27300	-7
0.27667	-8
0.28033	-8
0.28400	-7
0.28767	-6
0.29133	-6
0.29500	-7
0.29867	-9
0.30233	-8
0.30600	-10
0.30967	-14
0.31333	-14
0.31700	-14
0.32067	-15
0.32433	-16
0.32800	-15
0.33167	-12
0.33533	-11
0.33900	-10
0.34267	-9
0.34633	-8
0.35000	-6
0.35367	-7
0.35733	-9
0.36100	-10
0.36467	-8
0.36833	-7
0.37200	-7
0.37567	-9
0.37933	-9
0.38300	-10
0.38667	-11
0.39033	-11
0.39400	-12
0.39767	-11
0.40133	-11
0.40500	-10
0.40867	-10
0.41233	-9
0.41600	-8
0.41967	-8
0.42333	-8
0.42700	-9
0.43067	-10
0.43433	-11
0.43800	-11
0.44167	-12
0.44533	-13
0.44900	-13
0.45267	-11
0.45633	-8
0.46000	-7
0.46367	-7
0.46733	-7
0.47100	-9
0.47467	-10
0.47833	-9
0.48200	-7
0.48567	-7
0.48933	-10
0.49300	-11
0.49667	-10
0.50033	-9
0.50400	-8
0.50767	-8
0.51133	-9
0.51500	-10
0.51867	-8
0.52233	-5
0.52600	-4
0.52967	-5
0.53333	-8
0.53700	-12
0.54067	-14
0.54433	-15
0.54800	-14
0.55167	-14
0.55533	-15
0.55900	-14
0.56267	-14
0.56633	-13
0.57000	-14
0.57367	-15
0.57733	-15
0.58100	-16
0.58467	-14
0.58833	-10
0.59200	-8
0.59567	-5
0.59933	-3
0.60300	-5
0.60667	-8
0.61033	-12
0.61400	-15
0.61767	-17
0.62133	-17
0.62500	-16
0.62867	-14
0.63233	-12
0.63600	-13
0.63967	-15
0.64333	-18
0.64700	-18
0.65067	-17
0.65433	-16
0.65800	-16
0.66167	-17
0.66533	-17
0.66900	-18
0.67267	-18
0.67633	-18
0.68000	-18
0.68367	-19
0.68733	-18
0.69100	-17
0.69467	-15
0.69833	-14
0.70200	-14
0.70567	-15
0.70933	-16
0.71300	-16
0.71667	-15
0.72033	-14
0.72400	-13
0.72767	-14
0.73133	-16
0.73500	-19
0.73867	-23
0.74233	-23
0.74600	-22
0.74967	-22
0.75333	-20
0.75700	-19
0.76067	-19
0.76433	-18
0.76800	-18
0.77167	-17
0.77533	-16
0.77900	-18
0.78267	-20
0.78633	-20
0.79000	-19
0.79367	-16
0.79733	-12
0.80100	-11
0.80467	-13
0.80833	-17
0.81200	-19
0.81567	-20
0.81933	-18
0.82300	-18
0.82667	-18
0.83033	-17
0.83400	-17
0.83767	-16
0.84133	-15
0.84500	-17
0.84867	-19
0.85233	-19
0.85600	-20
0.85967	-20
0.86333	-21
0.86700	-19
0.87067	-18
0.87433	-18
0.87800	-18
0.88167	-17
0.88533	-16
0.88900	-17
0.89267	-17
0.89633	-17
0.90000	-19
0.90367	-21
0.90733	-22
0.91100	-20
0.91467	-18
0.91833	-17
0.92200	-19
0.92567	-17
0.92933	-15
0.93300	-17
0.93667	-20
0.94033	-20
0.94400	-18
0.94767	-18
0.95133	-14
0.95500	-13
0.95867	-16
0.96233	-17
0.96600	-18
0.96967	-20
0.97333	-20
0.97700	-18
0.98067	-17
0.98433	-17
0.98800	-17
0.99167	-18
0.99533	-18
0.99900	-18
1.00267	-19
1.00633	-20
1.01000	-20
1.01367	-21
1.01733	-21
1.02100	-21
1.02467	-22
1.02833	-23
1.03200	-22
1.03567	-21
1.03933	-20
1.04300	-20
1.04667	-21
1.05033	-25
1.05400	-26
1.05767	-27
1.06133	-26
1.06500	-26
1.06867	-24
1.07233	-23
1.07600	-21
1.07967	-20
1.08333	-19
1.08700	-20
1.09067	-21
1.09433	-21
1.09800	-23
1.10167	-21
1.10533	-19
1.10900	-18
1.11267	-18
1.11633	-18
1.12000	-19
1.12367	-20
1.12733	-19
1.13100	-19
1.13467	-19
1.13833	-19
1.14200	-19
1.14567	-20
1.14933	-22
1.15300	-22
1.15667	-23
1.16033	-23
1.16400	-23
1.16767	-22
1.17133	-19
1.17500	-16
1.17867	-17
1.18233	-19
1.18600	-21
1.18967	-21
1.19333	-21
1.19700	-22
1.20067	-22
1.20433	-20
1.20800	-20
1.21167	-21
1.21533	-23
1.21900	-24
1.22267	-24
1.22633	-24
1.23000	-24
1.23367	-23
1.23733	-22
1.24100	-19
1.24467	-20
1.24833	-21
1.25200	-23
1.25567	-22
1.25933	-22
1.26300	-22
1.26667	-22
1.27033	-23
1.27400	-23
1.27767	-25
1.28133	-27
1.28500	-27
1.28867	-27
1.29233	-28
1.29600	-28
1.29967	-26
1.30333	-25
1.30700	-26
1.31067	-28
1.31433	-29
1.31800	-28
1.32167	-26
1.32533	-23
1.32900	-20
1.33267	-19
1.33633	-21
1.34000	-23
1.34367	-24
1.34733	-24
1.35100	-23
1.35467	-21
1.35833	-17
1.36200	-17
1.36567	-19
1.36933	-22
1.37300	-23
1.37667	-25
1.38033	-26
1.38400	-26
1.38767	-23
1.39133	-20
1.39500	-18
1.39867	-19
1.40233	-20
1.40600	-23
1.40967	-23
1.41333	-22
1.41700	-21
1.42067	-19
1.42433	-17
1.42800	-17
1.43167	-16
1.43533	-15
1.43900	-14
1.44267	-16
1.44633	-19
1.45000	-21
1.45367	-23
1.45733	-24
1.46100	-23
1.46467	-22
1.46833	-19
1.47200	-17
1.47567	-20
1.47933	-24
1.48300	-26
1.48667	-26
1.49033	-25
1.49400	-23
1.49767	-20
1.50133	-19
1.50500	-20
1.50867	-21
1.51233	-19
1.51600	-20
1.51967	-22
1.52333	-23
1.52700	-23
1.53067	-22
1.53433	-22
1.53800	-23
1.54167	-25
1.54533	-24
1.54900	-25
1.55267	-25
1.55633	-25
1.56000	-27
1.56367	-26
1.56733	-26
1.57100	-26
1.57467	-27
1.57833	-28
1.58200	-28
1.58567	-26
1.58933	-26
1.59300	-26
1.59667	-24
1.60033	-22
1.60400	-22
1.60767	-23
1.61133	-24
1.61500	-23
1.61867	-22
1.62233	-22
1.62600	-20
1.62967	-18
1.63333	-19
1.63700	-17
1.64067	-16
1.64433	-16
1.64800	-17
1.65167	-19
1.65533	-21
1.65900	-22
1.66267	-22
1.66633	-21
1.67000	-19
1.67367	-17
1.67733	-15
1.68100	-15
1.68467	-16
1.68833	-16
1.69200	-15
1.69567	-15
1.69933	-15
1.70300	-16
1.70667	-17
1.71033	-19
1.71400	-18
1.71767	-18
1.72133	-18
1.72500	-17
1.72867	-15
1.73233	-14
1.73600	-15
1.73967	-13
1.74333	-13
1.74700	-14
1.75067	-16
1.75433	-16
1.75800	-14
1.76167	-13
1.76533	-13
1.76900	-14
1.77267	-14
1.77633	-15
1.78000	-14
1.78367	-11
1.78733	-8
1.79100	-6
1.79467	-5
1.79833	-3
1.80200	-2
1.80567	-2
1.80933	-3
1.81300	-3
1.81667	-2
1.82033	-2
1.82400	-3
1.82767	-4
1.83133	-5
1.83500	-3
1.83867	1
1.84233	1
1.84600	-2
1.84967	-2
1.85333	-3
1.85700	-3
1.86067	-3
1.86433	-3
1.86800	-1
1.87167	-0
1.87533	-1
1.87900	1
1.88267	2
1.88633	4
1.89000	5
1.89367	4
1.89733	2
1.90100	3
1.90467	4
1.90833	3
1.91200	3
1.91567	3
1.91933	5
1.92300	6
1.92667	5
1.93033	6
1.93400	7
1.93767	9
1.94133	9
1.94500	8
1.94867	6
1.95233	6
1.95600	8
1.95967	9
1.96333	10
1.96700	10
1.97067	11
1.97433	12
1.97800	12
1.98167	12
1.98533	10
1.98900	11
1.99267	12
1.99633	14
2.00000	15
2.00367	16
2.00733	18
2.01100	21
2.01467	21
2.01833	23
2.02200	24
2.02567	24
2.02933	23
2.03300	25
2.03667	25
2.04033	26
2.04400	25
2.04767	23
2.05133	24
2.05500	26
2.05867	29
2.06233	32
2.06600	34
2.06967	35
2.07333	38
2.07700	39
2.08067	37
2.08433	34
2.08800	33
2.09167	36
2.09533	40
2.09900	40
2.10267	39
2.10633	42
2.11000	46
2.11367	48
2.11733	46
2.12100	46
2.12467	48
2.12833	50
2.13200	53
2.13567	54
2.13933	54
2.14300	55
2.14667	59
2.15033	60
2.15400	61
2.15767	60
2.16133	59
2.16500	60
2.16867	60
2.17233	60
2.17600	58
2.17967	55
2.18333	55
2.18700	56
2.19067	57
2.19433	58
2.19800	59
2.20167	61
2.20533	63
2.20900	65
2.21267	66
2.21633	69
2.22000	70
2.22367	71
2.22733	73
2.23100	74
2.23467	74
2.23833	75
2.24200	73
2.24567	72
2.24933	75
2.25300	76
2.25667	78
2.26033	79
2.26400	80
2.26767	80
2.27133	80
2.27500	80
2.27867	80
2.28233	80
2.28600	80
2.28967	79
2.29333	77
2.29700	77
2.30067	80
2.30433	82
2.30800	85
2.31167	87
2.31533	89
2.31900	89
2.32267	90
2.32633	90
2.33000	91
2.33367	93
2.33733	95
2.34100	95
2.34467	95
2.34833	94
2.35200	95
2.35567	96
2.35933	100
2.36300	103
2.36667	105
2.37033	105
2.37400	105
2.37767	106
2.38133	108
2.38500	107
2.38867	106
2.39233	106
2.39600	109
2.39967	111
2.40333	114
2.40700	118
2.41067	121
2.41433	124
2.41800	127
2.42167	129
2.42533	129
2.42900	128
2.43267	130
2.43633	131
2.44000	135
2.44367	169
2.44733	253
2.45100	351
2.45467	427
2.45833	474
2.46200	508
2.46567	530
2.46933	537
2.47300	531
2.47667	520
2.48033	515
2.48400	520
2.48767	536
2.49133	557
2.49500	581
2.49867	602
2.50233	614
2.50600	617
2.50967	608
2.51333	595
2.51700	585
2.52067	581
2.52433	581
2.52800	586
2.53167	593
2.53533	599
2.53900	609
2.54267	617
2.54633	627
2.55000	640
2.55367	654
2.55733	670
2.56100	685
2.56467	699
2.56833	709
2.57200	714
2.57567	713
2.57933	709
2.58300	698
2.58667	682
2.59033	666
2.59400	649
2.59767	634
2.60133	621
2.60500	610
2.60867	601
2.61233	593
2.61600	586
2.61967	581
2.62333	578
2.62700	578
2.63067	580
2.63433	581
2.63800	581
2.64167	580
2.64533	580
2.64900	582
2.65267	585
2.65633	588
2.66000	590
2.66367	593
2.66733	595
2.67100	594
2.67467	596
2.67833	598
2.68200	602
2.68567	607
2.68933	613
2.69300	619
2.69667	625
2.70033	634
2.70400	641
2.70767	646
2.71133	651
2.71500	654
2.71867	657
2.72233	660
2.72600	665
2.72967	666
2.73333	663
2.73700	657
2.74067	652
2.74433	648
2.74800	644
2.75167	637
2.75533	631
2.75900	622
2.76267	613
2.76633	604
2.77000	597
2.77367	594
2.77733	590
2.78100	584
2.78467	580
2.78833	576
2.79200	572
2.79567	568
2.79933	565
2.80300	563
2.80667	562
2.81033	563
2.81400	565
2.81767	567
2.82133	567
2.82500	568
2.82867	567
2.83233	565
2.83600	564
2.83967	566
2.84333	567
2.84700	567
2.85067	570
2.85433	575
2.85800	582
2.86167	588
2.86533	598
2.86900	609
2.87267	625
2.87633	646
2.88000	667
2.88367	687
2.88733	701
2.89100	710
2.89467	711
2.89833	709
2.90200	705
2.90567	697
2.90933	689
2.91300	679
2.91667	668
2.92033	660
2.92400	653
2.92767	645
2.93133	639
2.93500	633
2.93867	628
2.94233	622
2.94600	617
2.94967	614
2.95333	612
2.95700	612
2.96067	613
2.96433	611
2.96800	609
2.97167	609
2.97533	609
2.97900	611
2.98267	612
2.98633	614
2.99000	614
2.99367	615
2.99733	615
3.00100	615
3.00467	616
3.00833	617
3.01200	619
3.01567	619
3.01933	619
3.02300	618
3.02667	619
3.03033	621
3.03400	622
3.03767	621
3.04133	622
3.04500	624
3.04867	624
3.05233	623
3.05600	621
3.05967	619
3.06333	619
3.06700	617
3.07067	616
3.07433	614
3.07800	611
3.08167	611
3.08533	612
3.08900	610
3.09267	608
3.09633	606
3.10000	603
3.10367	602
3.10733	600
3.11100	597
3.11467	595
3.11833	593
3.12200	592
3.12567	591
3.12933	588
3.13300	582
3.13667	576
3.14033	572
3.14400	569
3.14767	564
3.15133	558
3.15500	553
3.15867	549
3.16233	548
3.16600	547
3.16967	544
3.17333	541
3.17700	538
3.18067	534
3.18433	529
3.18800	525
3.19167	523
3.19533	516
3.19900	509
3.20267	505
3.20633	504
3.21000	498
3.21367	494
3.21733	492
3.22100	487
3.22467	484
3.22833	478
3.23200	471
3.23567	465
3.23933	461
3.24300	458
3.24667	456
3.25033	455
3.25400	453
3.25767	448
3.26133	444
3.26500	441
3.26867	436
3.27233	433
3.27600	432
3.27967	431
3.28333	430
3.28700	428
3.29067	426
3.29433	422
3.29800	417
3.30167	412
3.30533	409
3.30900	407
3.31267	404
3.31633	403
3.32000	401
3.32367	399
3.32733	397
3.33100	395
3.33467	392
3.33833	391
3.34200	389
3.34567	388
3.34933	386
3.35300	385
3.35667	385
3.36033	385
3.36400	382
3.36767	380
3.37133	378
3.37500	375
3.37867	373
3.38233	371
3.38600	368
3.38967	366
3.39333	363
3.39700	361
3.40067	362
3.40433	362
3.40800	359
3.41167	356
3.41533	354
3.41900	350
3.42267	343
3.42633	340
3.43000	340
3.43367	343
3.43733	343
3.44100	342
3.44467	339
3.44833	335
3.45200	330
3.45567	327
3.45933	325
3.46300	325
3.46667	325
3.47033	323
3.47400	319
3.47767	319
3.48133	318
3.48500	316
3.48867	312
3.49233	310
3.49600	309
3.49967	308
3.50333	308
3.50700	307
3.51067	305
3.51433	303
3.51800	301
3.52167	301
3.52533	301
3.52900	301
3.53267	301
3.53633	300
3.54000	300
3.54367	300
3.54733	299
3.55100	296
3.55467	295
3.55833	295
3.56200	295
3.56567	293
3.56933	289
3.57300	285
3.57667	284
3.58033	285
3.58400	286
3.58767	285
3.59133	286
3.59500	287
3.59867	286
3.60233	285
3.60600	284
3.60967	284
3.61333	285
3.61700	285
3.62067	283
3.62433	283
3.62800	283
3.63167	283
3.63533	283
3.63900	281
3.64267	280
3.64633	278
3.65000	275
3.65367	273
3.65733	273
3.66100	273
3.66467	273
3.66833	273
3.67200	270
3.67567	267
3.67933	266
3.68300	267
3.68667	267
3.69033	267
3.69400	266
3.69767	265
3.70133	263
3.70500	266
3.70867	267
3.71233	269
3.71600	269
3.71967	267
3.72333	268
3.72700	269
3.73067	268
3.73433	268
3.73800	265
3.74167	264
3.74533	263
3.74900	263
3.75267	263
3.75633	262
3.76000	260
3.76367	258
3.76733	258
3.77100	260
3.77467	260
3.77833	260
3.78200	259
3.78567	259
3.78933	257
3.79300	256
3.79667	256
3.80033	255
3.80400	255
3.80767	254
3.81133	252
3.81500	250
3.81867	251
3.82233	252
3.82600	255
3.82967	257
3.83333	257
3.83700	256
3.84067	255
3.84433	254
3.84800	252
3.85167	252
3.85533	250
3.85900	249
3.86267	249
3.86633	248
3.87000	247
3.87367	248
3.87733	250
3.88100	250
3.88467	249
3.88833	248
3.89200	248
3.89567	248
3.89933	249
3.90300	247
3.90667	245
3.91033	244
3.91400	242
3.91767	241
3.92133	243
3.92500	245
3.92867	244
3.93233	244
3.93600	244
3.93967	243
3.94333	243
3.94700	242
3.95067	241
3.95433	239
3.95800	237
3.96167	236
3.96533	237
3.96900	239
3.97267	241
3.97633	241
3.98000	241
3.98367	242
3.98733	243
3.99100	242
3.99467	239
3.99833	235

[Status Trace (Column Oven Temperature)]
Interval(msec)	1000
# of Points	240
Start Time(min)	0.003
End Time(min)	3.986
Intensity Units	
Intensity Multiplier	1
R.Time (min)	Intensity
0.00295	35.00
0.01962	35.00
0.03628	35.00
0.05295	34.99
0.06962	35.00
0.08628	35.00
0.10295	35.01
0.11962	35.01
0.13628	35.02
0.15295	35.03
0.16962	35.03
0.18628	35.02
0.20295	35.00
0.21962	35.00
0.23628	34.99
0.25295	35.00
0.26962	35.00
0.28628	34.99
0.30295	34.99
0.31962	35.00
0.33628	34.99
0.35295	34.99
0.36962	34.99
0.38628	35.00
0.40295	34.99
0.41962	34.99
0.43628	34.99
0.45295	34.98
0.46962	34.98
0.48628	34.98
0.50295	34.99
0.51962	34.99
0.53628	34.98
0.55295	34.98
0.56962	34.98
0.58628	34.97
0.60295	34.98
0.61962	34.98
0.63628	34.98
0.65295	34.98
0.66962	34.98
0.68628	34.98
0.70295	34.99
0.71962	34.99
0.73628	34.99
0.75295	34.99
0.76962	34.99
0.78628	34.99
0.80295	34.99
0.81962	35.00
0.83628	35.01
0.85295	35.01
0.86962	34.99
0.88628	35.00
0.90295	34.99
0.91962	34.99
0.93628	34.98
0.95295	34.98
0.96962	34.98
0.98628	34.99
1.00295	34.99
1.01962	34.99
1.03628	34.99
1.05295	35.00
1.06962	34.99
1.08628	34.99
1.10295	34.99
1.11962	35.00
1.13628	34.99
1.15295	35.00
1.16962	34.99
1.18628	35.00
1.20295	35.00
1.21962	35.00
1.23628	34.99
1.25295	34.99
1.26962	34.99
1.28628	34.98
1.30295	34.99
1.31962	34.99
1.33628	35.00
1.35295	35.00
1.36962	34.99
1.38628	34.99
1.40295	34.99
1.41962	34.99
1.43628	35.00
1.45295	35.00
1.46962	35.01
1.48628	35.01
1.50295	35.00
1.51962	35.00
1.53628	35.00
1.55295	34.99
1.56962	34.99
1.58628	35.00
1.60295	35.05
1.61962	35.15
1.63628	35.32
1.65295	35.54
1.66962	35.85
1.68628	36.21
1.70295	36.57
1.71962	36.91
1.73628	37.25
1.75295	37.58
1.76962	37.91
1.78628	38.24
1.80295	38.58
1.81962	38.91
1.83628	39.24
1.85295	39.58
1.86962	39.90
1.88628	40.23
1.90295	40.57
1.91962	40.89
1.93628	41.21
1.95295	41.54
1.96962	41.86
1.98628	42.17
2.00295	42.49
2.01962	42.81
2.03628	43.15
2.05295	43.48
2.06962	43.80
2.08628	44.12
2.10295	44.45
2.11962	44.79
2.13628	45.11
2.15295	45.45
2.16962	45.77
2.18628	46.09
2.20295	46.41
2.21962	46.73
2.23628	47.07
2.25295	47.39
2.26962	47.72
2.28628	48.06
2.30295	48.39
2.31962	48.73
2.33628	49.05
2.35295	49.35
2.36962	49.61
2.38628	49.73
2.40295	49.73
2.41962	49.72
2.43628	49.75
2.45295	49.75
2.46962	49.77
2.48628	49.78
2.50295	49.78
2.51962	49.79
2.53628	49.80
2.55295	49.80
2.56962	49.81
2.58628	49.85
2.60295	49.85
2.61962	49.84
2.63628	49.84
2.65295	49.84
2.66962	49.85
2.68628	49.84
2.70295	49.85
2.71962	49.85
2.73628	49.84
2.75295	49.85
2.76962	49.87
2.78628	49.88
2.80295	49.89
2.81962	49.88
2.83628	49.87
2.85295	49.86
2.86962	49.85
2.88628	49.86
2.90295	49.87
2.91962	49.89
2.93628	49.90
2.95295	49.91
2.96962	49.94
2.98628	49.96
3.00295	49.97
3.01962	49.98
3.03628	49.99
3.05295	49.99
3.06962	49.99
3.08628	50.00
3.10295	50.00
3.11962	50.00
3.13628	50.02
3.15295	50.02
3.16962	50.04
3.18628	50.05
3.20295	50.06
3.21962	50.07
3.23628	50.08
3.25295	50.07
3.26962	50.07
3.28628	50.08
3.30295	50.09
3.31962	50.09
3.33628	50.10
3.35295	50.11
3.36962	50.11
3.38628	50.11
3.40295	50.11
3.41962	50.10
3.43628	50.08
3.45295	50.06
3.46962	50.04
3.48628	50.03
3.50295	50.02
3.51962	50.02
3.53628	50.00
3.55295	50.00
3.56962	49.99
3.58628	49.99
3.60295	49.99
3.61962	50.00
3.63628	50.01
3.65295	50.01
3.66962	50.01
3.68628	50.01
3.70295	50.01
3.71962	50.03
3.73628	50.04
3.75295	50.03
3.76962	50.03
3.78628	50.03
3.80295	50.03
3.81962	50.03
3.83628	50.03
3.85295	50.03
3.86962	50.03
3.88628	50.04
3.90295	50.04
3.91962	50.04
3.93628	50.05
3.95295	50.05
3.96962	50.04
3.98628	50.05

[Status Trace (Injection Unit Temperature)]
Interval(msec)	1000
# of Points	240
Start Time(min)	0.003
End Time(min)	3.986
Intensity Units	
Intensity Multiplier	1
R.Time (min)	Intensity
0.00295	99.99
0.01962	99.98
0.03628	99.98
0.05295	99.99
0.06962	99.99
0.08628	99.98
0.10295	99.99
0.11962	99.98
0.13628	99.99
0.15295	99.99
0.16962	99.99
0.18628	99.98
0.20295	99.99
0.21962	99.99
0.23628	99.99
0.25295	99.99
0.26962	99.99
0.28628	99.99
0.30295	99.98
0.31962	99.99
0.33628	99.98
0.35295	99.99
0.36962	99.99
0.38628	99.99
0.40295	99.99
0.41962	99.99
0.43628	99.99
0.45295	99.99
0.46962	99.99
0.48628	99.98
0.50295	99.99
0.51962	99.99
0.53628	99.99
0.55295	99.99
0.56962	99.99
0.58628	99.99
0.60295	99.99
0.61962	99.99
0.63628	99.99
0.65295	99.99
0.66962	99.98
0.68628	99.99
0.70295	99.99
0.71962	99.99
0.73628	99.99
0.75295	99.99
0.76962	99.99
0.78628	99.98
0.80295	99.99
0.81962	99.99
0.83628	99.99
0.85295	99.99
0.86962	99.99
0.88628	99.99
0.90295	99.99
0.91962	99.99
0.93628	99.99
0.95295	99.99
0.96962	99.99
0.98628	99.99
1.00295	99.99
1.01962	99.99
1.03628	99.99
1.05295	99.99
1.06962	99.99
1.08628	99.99
1.10295	99.99
1.11962	99.99
1.13628	99.99
1.15295	99.99
1.16962	99.99
1.18628	99.99
1.20295	99.99
1.21962	99.99
1.23628	99.99
1.25295	99.99
1.26962	99.99
1.28628	99.99
1.30295	99.99
1.31962	99.99
1.33628	99.99
1.35295	99.99
1.36962	100.00
1.38628	99.99
1.40295	99.99
1.41962	100.00
1.43628	99.99
1.45295	99.99
1.46962	100.00
1.48628	99.99
1.50295	100.00
1.51962	100.00
1.53628	99.99
1.55295	99.99
1.56962	99.99
1.58628	99.99
1.60295	99.99
1.61962	99.99
1.63628	99.99
1.65295	100.00
1.66962	99.99
1.68628	99.99
1.70295	99.99
1.71962	99.99
1.73628	99.99
1.75295	99.99
1.76962	99.99
1.78628	99.99
1.80295	99.99
1.81962	99.99
1.83628	99.99
1.85295	99.99
1.86962	99.98
1.88628	99.99
1.90295	99.99
1.91962	99.98
1.93628	99.98
1.95295	99.99
1.96962	99.99
1.98628	99.98
2.00295	99.98
2.01962	99.99
2.03628	99.98
2.05295	99.98
2.06962	99.98
2.08628	99.98
2.10295	99.98
2.11962	99.98
2.13628	99.98
2.15295	99.98
2.16962	99.98
2.18628	99.98
2.20295	99.97
2.21962	99.97
2.23628	99.98
2.25295	99.97
2.26962	99.98
2.28628	99.97
2.30295	99.98
2.31962	99.98
2.33628	99.97
2.35295	99.97
2.36962	99.97
2.38628	99.97
2.40295	99.97
2.41962	99.97
2.43628	99.98
2.45295	99.97
2.46962	99.97
2.48628	99.98
2.50295	99.98
2.51962	99.97
2.53628	99.97
2.55295	99.98
2.56962	99.98
2.58628	99.98
2.60295	99.98
2.61962	99.98
2.63628	99.98
2.65295	99.98
2.66962	99.98
2.68628	99.99
2.70295	99.99
2.71962	99.99
2.73628	99.99
2.75295	99.99
2.76962	100.00
2.78628	100.00
2.80295	100.00
2.81962	100.00
2.83628	100.00
2.85295	100.00
2.86962	100.00
2.88628	100.01
2.90295	100.01
2.91962	100.01
2.93628	100.01
2.95295	100.01
2.96962	100.01
2.98628	100.01
3.00295	100.02
3.01962	100.02
3.03628	100.02
3.05295	100.02
3.06962	100.02
3.08628	100.02
3.10295	100.02
3.11962	100.03
3.13628	100.03
3.15295	100.03
3.16962	100.03
3.18628	100.03
3.20295	100.03
3.21962	100.03
3.23628	100.03
3.25295	100.03
3.26962	100.04
3.28628	100.03
3.30295	100.04
3.31962	100.04
3.33628	100.04
3.35295	100.04
3.36962	100.04
3.38628	100.04
3.40295	100.04
3.41962	100.04
3.43628	100.04
3.45295	100.04
3.46962	100.05
3.48628	100.04
3.50295	100.05
3.51962	100.05
3.53628	100.05
3.55295	100.04
3.56962	100.05
3.58628	100.05
3.60295	100.05
3.61962	100.05
3.63628	100.05
3.65295	100.05
3.66962	100.05
3.68628	100.05
3.70295	100.05
3.71962	100.05
3.73628	100.05
3.75295	100.05
3.76962	100.05
3.78628	100.05
3.80295	100.05
3.81962	100.05
3.83628	100.05
3.85295	100.05
3.86962	100.05
3.88628	100.05
3.90295	100.04
3.91962	100.05
3.93628	100.05
3.95295	100.05
3.96962	100.04
3.98628	100.05

[Status Trace (Carrier Gas Pressure)]
Interval(msec)	1000
# of Points	240
Start Time(min)	0.003
End Time(min)	3.986
Intensity Units	
Intensity Multiplier	1
R.Time (min)	Intensity
0.00295	58.00
0.01962	56.22
0.03628	56.38
0.05295	58.52
0.06962	59.89
0.08628	58.30
0.10295	57.97
0.11962	58.00
0.13628	58.01
0.15295	58.01
0.16962	58.00
0.18628	58.00
0.20295	58.00
0.21962	58.00
0.23628	58.00
0.25295	58.00
0.26962	58.00
0.28628	58.00
0.30295	58.00
0.31962	58.00
0.33628	58.00
0.35295	58.00
0.36962	58.00
0.38628	58.00
0.40295	58.00
0.41962	58.00
0.43628	58.00
0.45295	58.00
0.46962	58.00
0.48628	58.00
0.50295	58.00
0.51962	58.00
0.53628	58.00
0.55295	58.00
0.56962	58.00
0.58628	58.00
0.60295	58.00
0.61962	58.00
0.63628	58.00
0.65295	58.00
0.66962	58.00
0.68628	58.00
0.70295	58.00
0.71962	58.00
0.73628	58.00
0.75295	58.00
0.76962	58.00
0.78628	58.00
0.80295	58.00
0.81962	58.00
0.83628	58.00
0.85295	58.00
0.86962	58.00
0.88628	58.00
0.90295	58.00
0.91962	58.00
0.93628	58.00
0.95295	58.00
0.96962	58.00
0.98628	58.00
1.00295	58.00
1.01962	58.00
1.03628	58.00
1.05295	58.00
1.06962	58.00
1.08628	58.00
1.10295	58.00
1.11962	58.00
1.13628	58.00
1.15295	58.00
1.16962	58.00
1.18628	58.00
1.20295	58.00
1.21962	58.00
1.23628	58.00
1.25295	58.00
1.26962	58.00
1.28628	58.00
1.30295	58.00
1.31962	58.00
1.33628	58.00
1.35295	58.00
1.36962	58.00
1.38628	58.00
1.40295	58.00
1.41962	58.00
1.43628	58.00
1.45295	58.00
1.46962	58.00
1.48628	58.00
1.50295	58.00
1.51962	58.00
1.53628	58.00
1.55295	58.00
1.56962	58.00
1.58628	58.00
1.60295	58.00
1.61962	58.00
1.63628	58.01
1.65295	58.00
1.66962	58.01
1.68628	58.01
1.70295	58.00
1.71962	58.00
1.73628	58.00
1.75295	58.00
1.76962	58.00
1.78628	58.00
1.80295	58.00
1.81962	58.00
1.83628	58.00
1.85295	58.00
1.86962	58.00
1.88628	58.00
1.90295	58.00
1.91962	58.00
1.93628	58.00
1.95295	58.00
1.96962	58.00
1.98628	58.00
2.00295	58.00
2.01962	58.00
2.03628	58.00
2.05295	58.00
2.06962	58.00
2.08628	58.00
2.10295	58.00
2.11962	58.00
2.13628	58.00
2.15295	58.00
2.16962	58.00
2.18628	58.00
2.20295	58.00
2.21962	58.00
2.23628	58.00
2.25295	58.00
2.26962	58.00
2.28628	58.00
2.30295	58.00
2.31962	58.00
2.33628	58.00
2.35295	58.00
2.36962	58.00
2.38628	57.99
2.40295	57.99
2.41962	58.00
2.43628	58.00
2.45295	58.00
2.46962	58.00
2.48628	58.00
2.50295	57.98
2.51962	58.02
2.53628	57.99
2.55295	58.00
2.56962	58.00
2.58628	58.00
2.60295	58.00
2.61962	58.00
2.63628	58.00
2.65295	58.00
2.66962	58.00
2.68628	58.00
2.70295	58.00
2.71962	58.00
2.73628	58.00
2.75295	58.00
2.76962	58.00
2.78628	58.00
2.80295	58.00
2.81962	58.00
2.83628	58.00
2.85295	58.00
2.86962	58.00
2.88628	58.00
2.90295	58.00
2.91962	58.00
2.93628	58.00
2.95295	58.00
2.96962	58.00
2.98628	58.00
3.00295	58.00
3.01962	58.00
3.03628	58.00
3.05295	58.00
3.06962	58.00
3.08628	58.00
3.10295	58.00
3.11962	58.00
3.13628	58.00
3.15295	58.00
3.16962	58.00
3.18628	58.00
3.20295	58.00
3.21962	58.00
3.23628	58.00
3.25295	58.00
3.26962	58.00
3.28628	58.00
3.30295	58.00
3.31962	58.00
3.33628	58.00
3.35295	58.00
3.36962	58.00
3.38628	58.00
3.40295	58.00
3.41962	58.00
3.43628	58.00
3.45295	58.00
3.46962	58.00
3.48628	58.00
3.50295	58.00
3.51962	58.00
3.53628	58.00
3.55295	58.00
3.56962	58.00
3.58628	58.00
3.60295	58.00
3.61962	58.00
3.63628	58.00
3.65295	58.00
3.66962	58.00
3.68628	58.00
3.70295	58.00
3.71962	58.00
3.73628	58.00
3.75295	58.00
3.76962	58.00
3.78628	58.00
3.80295	58.00
3.81962	58.00
3.83628	58.00
3.85295	58.00
3.86962	58.00
3.88628	58.00
3.90295	58.00
3.91962	58.00
3.93628	58.00
3.95295	58.00
3.96962	58.00
3.98628	58.00

[Status Trace (Carrier Gas Flow)]
Interval(msec)	1000
# of Points	240
Start Time(min)	0.003
End Time(min)	3.986
Intensity Units	
Intensity Multiplier	1
R.Time (min)	Intensity
0.00295	34.52
0.01962	34.61
0.03628	34.54
0.05295	34.55
0.06962	34.49
0.08628	34.52
0.10295	34.52
0.11962	34.52
0.13628	34.51
0.15295	34.52
0.16962	34.52
0.18628	34.53
0.20295	34.51
0.21962	34.52
0.23628	34.52
0.25295	34.52
0.26962	34.52
0.28628	34.52
0.30295	34.52
0.31962	34.52
0.33628	34.52
0.35295	34.52
0.36962	34.52
0.38628	34.52
0.40295	34.52
0.41962	34.52
0.43628	34.52
0.45295	34.52
0.46962	34.52
0.48628	34.52
0.50295	34.52
0.51962	34.52
0.53628	34.52
0.55295	34.52
0.56962	34.52
0.58628	34.52
0.60295	34.52
0.61962	34.52
0.63628	34.52
0.65295	34.52
0.66962	34.52
0.68628	34.52
0.70295	34.52
0.71962	34.52
0.73628	34.52
0.75295	34.52
0.76962	34.52
0.78628	34.52
0.80295	34.52
0.81962	34.52
0.83628	34.52
0.85295	34.52
0.86962	34.52
0.88628	34.52
0.90295	34.52
0.91962	34.52
0.93628	34.52
0.95295	34.52
0.96962	34.52
0.98628	34.52
1.00295	34.52
1.01962	34.52
1.03628	34.52
1.05295	34.52
1.06962	34.52
1.08628	34.52
1.10295	34.52
1.11962	34.52
1.13628	34.52
1.15295	34.52
1.16962	34.52
1.18628	34.52
1.20295	34.52
1.21962	34.52
1.23628	34.52
1.25295	34.52
1.26962	34.52
1.28628	34.52
1.30295	34.52
1.31962	34.52
1.33628	34.52
1.35295	34.52
1.36962	34.52
1.38628	34.52
1.40295	34.52
1.41962	34.52
1.43628	34.52
1.45295	34.52
1.46962	34.52
1.48628	34.52
1.50295	34.52
1.51962	34.52
1.53628	34.52
1.55295	34.52
1.56962	34.52
1.58628	34.52
1.60295	34.52
1.61962	34.52
1.63628	34.52
1.65295	34.52
1.66962	34.52
1.68628	34.52
1.70295	34.52
1.71962	34.52
1.73628	34.52
1.75295	34.52
1.76962	34.52
1.78628	34.52
1.80295	34.52
1.81962	34.52
1.83628	34.52
1.85295	34.52
1.86962	34.52
1.88628	34.52
1.90295	34.52
1.91962	34.52
1.93628	34.52
1.95295	34.52
1.96962	34.52
1.98628	34.52
2.00295	34.52
2.01962	34.52
2.03628	34.52
2.05295	34.52
2.06962	34.52
2.08628	34.52
2.10295	34.52
2.11962	34.52
2.13628	34.52
2.15295	34.52
2.16962	34.52
2.18628	34.52
2.20295	34.52
2.21962	34.52
2.23628	34.52
2.25295	34.52
2.26962	34.52
2.28628	34.52
2.30295	34.52
2.31962	34.52
2.33628	34.52
2.35295	34.52
2.36962	34.52
2.38628	34.54
2.40295	34.52
2.41962	34.52
2.43628	34.52
2.45295	34.52
2.46962	34.52
2.48628	34.52
2.50295	34.57
2.51962	34.52
2.53628	34.52
2.55295	34.52
2.56962	34.52
2.58628	34.52
2.60295	34.52
2.61962	34.52
2.63628	34.52
2.65295	34.52
2.66962	34.52
2.68628	34.52
2.70295	34.52
2.71962	34.52
2.73628	34.52
2.75295	34.52
2.76962	34.52
2.78628	34.52
2.80295	34.52
2.81962	34.52
2.83628	34.52
2.85295	34.52
2.86962	34.52
2.88628	34.52
2.90295	34.52
2.91962	34.52
2.93628	34.52
2.95295	34.52
2.96962	34.52
2.98628	34.52
3.00295	34.52
3.01962	34.52
3.03628	34.51
3.05295	34.52
3.06962	34.52
3.08628	34.52
3.10295	34.52
3.11962	34.52
3.13628	34.52
3.15295	34.52
3.16962	34.52
3.18628	34.52
3.20295	34.52
3.21962	34.52
3.23628	34.52
3.25295	34.52
3.26962	34.52
3.28628	34.51
3.30295	34.52
3.31962	34.52
3.33628	34.52
3.35295	34.52
3.36962	34.52
3.38628	34.52
3.40295	34.52
3.41962	34.52
3.43628	34.52
3.45295	34.52
3.46962	34.52
3.48628	34.52
3.50295	34.52
3.51962	34.52
3.53628	34.52
3.55295	34.52
3.56962	34.52
3.58628	34.52
3.60295	34.52
3.61962	34.52
3.63628	34.52
3.65295	34.52
3.66962	34.52
3.68628	34.52
3.70295	34.52
3.71962	34.52
3.73628	34.52
3.75295	34.52
3.76962	34.52
3.78628	34.52
3.80295	34.52
3.81962	34.52
3.83628	34.52
3.85295	34.52
3.86962	34.52
3.88628	34.52
3.90295	34.52
3.91962	34.52
3.93628	34.52
3.95295	34.52
3.96962	34.52
3.98628	34.52

[Status Trace (Column Flow)]
Interval(msec)	1000
# of Points	240
Start Time(min)	0.003
End Time(min)	3.986
Intensity Units	
Intensity Multiplier	1
R.Time (min)	Intensity
0.00295	5.51
0.01962	5.30
0.03628	5.32
0.05295	5.57
0.06962	5.73
0.08628	5.54
0.10295	5.50
0.11962	5.51
0.13628	5.51
0.15295	5.51
0.16962	5.51
0.18628	5.51
0.20295	5.51
0.21962	5.51
0.23628	5.51
0.25295	5.51
0.26962	5.51
0.28628	5.51
0.30295	5.51
0.31962	5.51
0.33628	5.51
0.35295	5.51
0.36962	5.51
0.38628	5.51
0.40295	5.51
0.41962	5.51
0.43628	5.51
0.45295	5.51
0.46962	5.51
0.48628	5.51
0.50295	5.51
0.51962	5.51
0.53628	5.51
0.55295	5.51
0.56962	5.51
0.58628	5.51
0.60295	5.51
0.61962	5.51
0.63628	5.51
0.65295	5.51
0.66962	5.51
0.68628	5.51
0.70295	5.51
0.71962	5.51
0.73628	5.51
0.75295	5.51
0.76962	5.51
0.78628	5.51
0.80295	5.51
0.81962	5.51
0.83628	5.51
0.85295	5.51
0.86962	5.51
0.88628	5.51
0.90295	5.51
0.91962	5.51
0.93628	5.51
0.95295	5.51
0.96962	5.51
0.98628	5.51
1.00295	5.51
1.01962	5.51
1.03628	5.51
1.05295	5.51
1.06962	5.51
1.08628	5.51
1.10295	5.51
1.11962	5.51
1.13628	5.51
1.15295	5.51
1.16962	5.51
1.18628	5.51
1.20295	5.51
1.21962	5.51
1.23628	5.51
1.25295	5.51
1.26962	5.51
1.28628	5.51
1.30295	5.51
1.31962	5.51
1.33628	5.51
1.35295	5.51
1.36962	5.51
1.38628	5.51
1.40295	5.51
1.41962	5.51
1.43628	5.51
1.45295	5.51
1.46962	5.51
1.48628	5.51
1.50295	5.51
1.51962	5.51
1.53628	5.51
1.55295	5.51
1.56962	5.51
1.58628	5.51
1.60295	5.51
1.61962	5.50
1.63628	5.50
1.65295	5.49
1.66962	5.48
1.68628	5.47
1.70295	5.46
1.71962	5.45
1.73628	5.44
1.75295	5.43
1.76962	5.42
1.78628	5.41
1.80295	5.40
1.81962	5.39
1.83628	5.38
1.85295	5.37
1.86962	5.36
1.88628	5.35
1.90295	5.34
1.91962	5.33
1.93628	5.32
1.95295	5.31
1.96962	5.30
1.98628	5.29
2.00295	5.28
2.01962	5.27
2.03628	5.26
2.05295	5.25
2.06962	5.24
2.08628	5.23
2.10295	5.22
2.11962	5.21
2.13628	5.20
2.15295	5.19
2.16962	5.18
2.18628	5.17
2.20295	5.17
2.21962	5.16
2.23628	5.15
2.25295	5.14
2.26962	5.13
2.28628	5.12
2.30295	5.11
2.31962	5.10
2.33628	5.09
2.35295	5.08
2.36962	5.08
2.38628	5.07
2.40295	5.07
2.41962	5.07
2.43628	5.07
2.45295	5.07
2.46962	5.07
2.48628	5.07
2.50295	5.07
2.51962	5.07
2.53628	5.07
2.55295	5.07
2.56962	5.07
2.58628	5.07
2.60295	5.07
2.61962	5.07
2.63628	5.07
2.65295	5.07
2.66962	5.07
2.68628	5.07
2.70295	5.07
2.71962	5.07
2.73628	5.07
2.75295	5.07
2.76962	5.07
2.78628	5.07
2.80295	5.07
2.81962	5.07
2.83628	5.07
2.85295	5.07
2.86962	5.07
2.88628	5.07
2.90295	5.07
2.91962	5.07
2.93628	5.07
2.95295	5.07
2.96962	5.07
2.98628	5.07
3.00295	5.07
3.01962	5.07
3.03628	5.06
3.05295	5.06
3.06962	5.06
3.08628	5.06
3.10295	5.06
3.11962	5.06
3.13628	5.06
3.15295	5.06
3.16962	5.06
3.18628	5.06
3.20295	5.06
3.21962	5.06
3.23628	5.06
3.25295	5.06
3.26962	5.06
3.28628	5.06
3.30295	5.06
3.31962	5.06
3.33628	5.06
3.35295	5.06
3.36962	5.06
3.38628	5.06
3.40295	5.06
3.41962	5.06
3.43628	5.06
3.45295	5.06
3.46962	5.06
3.48628	5.06
3.50295	5.06
3.51962	5.06
3.53628	5.06
3.55295	5.06
3.56962	5.07
3.58628	5.06
3.60295	5.06
3.61962	5.06
3.63628	5.06
3.65295	5.06
3.66962	5.06
3.68628	5.06
3.70295	5.06
3.71962	5.06
3.73628	5.06
3.75295	5.06
3.76962	5.06
3.78628	5.06
3.80295	5.06
3.81962	5.06
3.83628	5.06
3.85295	5.06
3.86962	5.06
3.88628	5.06
3.90295	5.06
3.91962	5.06
3.93628	5.06
3.95295	5.06
3.96962	5.06
3.98628	5.06

[Status Trace (Linear Velocity)]
Interval(msec)	1000
# of Points	240
Start Time(min)	0.003
End Time(min)	3.986
Intensity Units	
Intensity Multiplier	1
R.Time (min)	Intensity
0.00295	39.01
0.01962	37.85
0.03628	37.95
0.05295	39.35
0.06962	40.25
0.08628	39.21
0.10295	38.99
0.11962	39.01
0.13628	39.02
0.15295	39.01
0.16962	39.01
0.18628	39.01
0.20295	39.01
0.21962	39.01
0.23628	39.01
0.25295	39.01
0.26962	39.01
0.28628	39.01
0.30295	39.01
0.31962	39.01
0.33628	39.01
0.35295	39.01
0.36962	39.02
0.38628	39.01
0.40295	39.01
0.41962	39.01
0.43628	39.01
0.45295	39.02
0.46962	39.02
0.48628	39.02
0.50295	39.01
0.51962	39.01
0.53628	39.01
0.55295	39.02
0.56962	39.02
0.58628	39.02
0.60295	39.02
0.61962	39.02
0.63628	39.02
0.65295	39.02
0.66962	39.02
0.68628	39.02
0.70295	39.01
0.71962	39.01
0.73628	39.02
0.75295	39.01
0.76962	39.01
0.78628	39.01
0.80295	39.01
0.81962	39.01
0.83628	39.01
0.85295	39.01
0.86962	39.01
0.88628	39.01
0.90295	39.01
0.91962	39.01
0.93628	39.01
0.95295	39.02
0.96962	39.02
0.98628	39.01
1.00295	39.01
1.01962	39.01
1.03628	39.01
1.05295	39.01
1.06962	39.01
1.08628	39.01
1.10295	39.01
1.11962	39.01
1.13628	39.01
1.15295	39.01
1.16962	39.01
1.18628	39.01
1.20295	39.01
1.21962	39.01
1.23628	39.01
1.25295	39.01
1.26962	39.01
1.28628	39.01
1.30295	39.01
1.31962	39.01
1.33628	39.01
1.35295	39.01
1.36962	39.01
1.38628	39.01
1.40295	39.01
1.41962	39.01
1.43628	39.01
1.45295	39.01
1.46962	39.01
1.48628	39.01
1.50295	39.01
1.51962	39.01
1.53628	39.01
1.55295	39.01
1.56962	39.01
1.58628	39.01
1.60295	39.01
1.61962	39.00
1.63628	38.99
1.65295	38.97
1.66962	38.94
1.68628	38.90
1.70295	38.87
1.71962	38.83
1.73628	38.80
1.75295	38.77
1.76962	38.74
1.78628	38.71
1.80295	38.68
1.81962	38.64
1.83628	38.61
1.85295	38.58
1.86962	38.55
1.88628	38.52
1.90295	38.49
1.91962	38.46
1.93628	38.43
1.95295	38.40
1.96962	38.37
1.98628	38.34
2.00295	38.31
2.01962	38.28
2.03628	38.25
2.05295	38.22
2.06962	38.19
2.08628	38.16
2.10295	38.13
2.11962	38.10
2.13628	38.07
2.15295	38.04
2.16962	38.01
2.18628	37.98
2.20295	37.95
2.21962	37.92
2.23628	37.89
2.25295	37.86
2.26962	37.84
2.28628	37.80
2.30295	37.78
2.31962	37.75
2.33628	37.71
2.35295	37.69
2.36962	37.67
2.38628	37.65
2.40295	37.65
2.41962	37.65
2.43628	37.65
2.45295	37.65
2.46962	37.65
2.48628	37.65
2.50295	37.64
2.51962	37.66
2.53628	37.64
2.55295	37.65
2.56962	37.65
2.58628	37.64
2.60295	37.64
2.61962	37.64
2.63628	37.64
2.65295	37.64
2.66962	37.64
2.68628	37.64
2.70295	37.64
2.71962	37.64
2.73628	37.64
2.75295	37.64
2.76962	37.64
2.78628	37.64
2.80295	37.64
2.81962	37.64
2.83628	37.64
2.85295	37.64
2.86962	37.64
2.88628	37.64
2.90295	37.64
2.91962	37.64
2.93628	37.64
2.95295	37.64
2.96962	37.64
2.98628	37.63
3.00295	37.63
3.01962	37.63
3.03628	37.63
3.05295	37.63
3.06962	37.63
3.08628	37.63
3.10295	37.63
3.11962	37.63
3.13628	37.63
3.15295	37.63
3.16962	37.63
3.18628	37.63
3.20295	37.62
3.21962	37.62
3.23628	37.62
3.25295	37.62
3.26962	37.62
3.28628	37.62
3.30295	37.62
3.31962	37.62
3.33628	37.62
3.35295	37.62
3.36962	37.62
3.38628	37.62
3.40295	37.62
3.41962	37.62
3.43628	37.62
3.45295	37.62
3.46962	37.63
3.48628	37.63
3.50295	37.63
3.51962	37.63
3.53628	37.63
3.55295	37.63
3.56962	37.63
3.58628	37.63
3.60295	37.63
3.61962	37.63
3.63628	37.63
3.65295	37.63
3.66962	37.63
3.68628	37.63
3.70295	37.63
3.71962	37.63
3.73628	37.63
3.75295	37.63
3.76962	37.63
3.78628	37.63
3.80295	37.63
3.81962	37.63
3.83628	37.63
3.85295	37.63
3.86962	37.63
3.88628	37.63
3.90295	37.63
3.91962	37.63
3.93628	37.63
3.95295	37.62
3.96962	37.63
3.98628	37.62

