[Header]
Application Name	LabSolutions
Version	5.110
Data File Name	C:\Users\User\Desktop\GC Analyses\Jack\UIC Prairie Sampling\10.19.22\221019_073.gcd
Output Date	1/4/2023
Output Time	2:27:23 PM

[File Information]
Type	Data File
Generated	12/7/2022 2:34:03 PM
Generated by	System Administrator
Modified	12/7/2022 2:38:26 PM
Modified by	System Administrator

[Sample Information]
Operator Name	System Administrator
Acquired	12/7/2022 2:34:25 PM
Sample Type	1:Standard
Level	1
Sample Name	221019_UICPrairie
Sample ID	221019_UICPrairie
ISTD Amount1	1
ISTD Amount2	1
ISTD Amount3	1
ISTD Amount4	1
ISTD Amount5	1
ISTD Amount6	1
ISTD Amount7	1
ISTD Amount8	1
ISTD Amount9	1
ISTD Amount10	1
ISTD Amount11	1
ISTD Amount12	1
ISTD Amount13	1
ISTD Amount14	1
ISTD Amount15	1
ISTD Amount16	1
ISTD Amount17	1
ISTD Amount18	1
ISTD Amount19	1
ISTD Amount20	1
ISTD Amount21	1
ISTD Amount22	1
ISTD Amount23	1
ISTD Amount24	1
ISTD Amount25	1
ISTD Amount26	1
ISTD Amount27	1
ISTD Amount28	1
ISTD Amount29	1
ISTD Amount30	1
ISTD Amount31	1
ISTD Amount32	1
Sample Amount	1
Dilution Factor	1
Vial#	1
Injection Volume	1
Injection Count	1
Bar Code	

[Original Files]
Data File	C:\Users\User\Desktop\GC Analyses\Jack\UIC Prairie Sampling\10.19.22\221019_073.gcd
Method File	C:\LabSolutions\Data\GHG_4min_2022\ghg3_togas_w_acet_4 min_new_int.gcm
Batch File	
Report Format File	c:\LabSolutions\System\DEFAULT.lsr

[File Description]


[Configuration]
Instrument Name	C0B7VH3-Instrument1
Instrument #	1
Line #	1
# of Detectors	3
Detector ID	DET#1	DET#2	DET#3
Detector Name	FID	PTCD	ECD
# of Channels	1	1	1

[Peak Table(Ch1)]
# of Peaks	3
Peak#	R.Time	I.Time	F.Time	Area	Height	A/H	Conc.	Mark	ID#	Name	k'	Plate #	Plate Ht.	Tailing	Resolution	Sep.Factor	Area Ratio	Height Ratio	Conc. %	Norm Conc.
1	1.476	1.432	1.534	9440	4045	2.334	100.000	   	1	CO	0.000	7835	19.144	1.271	0.000	0.000	0	0	16.667	16.667
2	1.567	1.534	1.622	4683	2339	2.002	100.000	 V 	2	CH4	0.062	10985	13.655	0.000	1.449	0.000	0	0	16.667	16.667
3	1.996	1.949	2.521	1387468	651214	2.131	400.000	   	3	CO2	0.353	17306	8.667	1.251	7.119	5.680	0	0	66.667	66.667

[Peak Table(Ch2)]
# of Peaks	0

[Peak Table(Ch3)]
# of Peaks	5
Peak#	R.Time	I.Time	F.Time	Area	Height	A/H	Conc.	Mark	ID#	Name	k'	Plate #	Plate Ht.	Tailing	Resolution	Sep.Factor	Area Ratio	Height Ratio	Conc. %	Norm Conc.
1	2.458	1.989	2.484	1786	408	4.382	0.000	   			0.000	10238	14.651	0.000	0.000	0.000	0	0	0.000	0.000
2	2.513	2.484	2.517	805	500	1.611	0.000	 V 			0.022	517	290.120	0.000	0.204	0.000	0	0	0.000	0.000
3	2.576	2.517	2.649	4142	686	6.039	0.000	 V 			0.048	1785	84.042	0.000	0.182	2.133	0	0	0.000	0.000
4	2.730	2.649	2.807	3632	458	7.924	0.102	 V 	1	N2O	0.110	651	230.322	0.000	0.459	2.313	0	0	10.222	10.222
5	2.880	2.807	3.863	31898	5538	5.760	0.898	 V 	1	N2O	0.172	12022	12.477	0.000	0.564	1.554	0	0	89.778	89.778

[Compound Results(Ch1)]
# of IDs	6
ID#	Name	R.Time	Area	Height	Conc.	Curve	3rd	2nd	1st	Constant	Area Ratio	Height Ratio	Conc. %	Norm Conc.
1	CO	1.476	9440	4045	100.000	Linear	0.000000e+00	0.000000e+00	9.440286e+001	0.000000e+00	0	0	16.667	16.667
2	CH4	1.567	4683	2339	100.000	Linear	0.000000e+00	0.000000e+00	4.682894e+001	0.000000e+00	0	0	16.667	16.667
3	CO2	1.996	1387468	651214	400.000	Linear	0.000000e+00	0.000000e+00	3.468670e+003	0.000000e+00	0	0	66.667	66.667
4	Ethylene	0.000	0	0	0.000	Linear	0.000000e+00	0.000000e+00	0.000000e+00	0.000000e+00	0	0	0.000	0.000
5	Acetylene	0.000	0	0	0.000	Linear	0.000000e+00	0.000000e+00	0.000000e+00	0.000000e+00	0	0	0.000	0.000
6	Ethane	0.000	0	0	0.000	Linear	0.000000e+00	0.000000e+00	0.000000e+00	0.000000e+00	0	0	0.000	0.000

[Compound Results(Ch2)]
# of IDs	5
ID#	Name	R.Time	Area	Height	Conc.	Curve	3rd	2nd	1st	Constant	Area Ratio	Height Ratio	Conc. %	Norm Conc.
1	Hydrogen	0.000	0	0	0.000	Linear	0.000000e+00	0.000000e+00	0.000000e+00	0.000000e+00	0	0	0.000	0.000
2	Oxygen	0.000	0	0	0.000	Linear	0.000000e+00	0.000000e+00	0.000000e+00	0.000000e+00	0	0	0.000	0.000
3	Nitrogen	0.000	0	0	0.000	Linear	0.000000e+00	0.000000e+00	0.000000e+00	0.000000e+00	0	0	0.000	0.000
4	Methane	0.000	0	0	0.000	Linear	0.000000e+00	0.000000e+00	0.000000e+00	0.000000e+00	0	0	0.000	0.000
5	Carbon Monoxide	0.000	0	0	0.000	Linear	0.000000e+00	0.000000e+00	0.000000e+00	0.000000e+00	0	0	0.000	0.000

[Compound Results(Ch3)]
# of IDs	2
ID#	Name	R.Time	Area	Height	Conc.	Curve	3rd	2nd	1st	Constant	Area Ratio	Height Ratio	Conc. %	Norm Conc.
1	N2O	2.880	35529	5996	1.000	Linear	0.000000e+00	0.000000e+00	3.552928e+004	0.000000e+00	0	0	100.000	100.000
2	SF6	0.000	0	0	0.000	Linear	0.000000e+00	0.000000e+00	0.000000e+00	0.000000e+00	0	0	0.000	0.000

[Group Results(Ch1)]
# of Groups	0

[Group Results(Ch2)]
# of Groups	0

[Group Results(Ch3)]
# of Groups	0

[Chromatogram (Ch1)]
Interval(msec)	220
# of Points	1091
Start Time(min)	0.002
End Time(min)	3.998
R.Time (min)	Intensity
0.00167	20
0.00533	22
0.00900	20
0.01267	14
0.01633	6
0.02000	-2
0.02367	-8
0.02733	-10
0.03100	-6
0.03467	0
0.03833	3
0.04200	1
0.04567	-1
0.04933	2
0.05300	8
0.05667	15
0.06033	19
0.06400	21
0.06767	20
0.07133	16
0.07500	11
0.07867	6
0.08233	1
0.08600	1
0.08967	5
0.09333	9
0.09700	9
0.10067	7
0.10433	2
0.10800	-3
0.11167	-9
0.11533	-12
0.11900	-13
0.12267	-16
0.12633	-17
0.13000	-17
0.13367	-16
0.13733	-15
0.14100	-16
0.14467	-16
0.14833	-15
0.15200	-16
0.15567	-15
0.15933	-17
0.16300	-17
0.16667	-11
0.17033	-4
0.17400	2
0.17767	5
0.18133	4
0.18500	1
0.18867	-5
0.19233	-9
0.19600	-13
0.19967	-16
0.20333	-18
0.20700	-19
0.21067	-23
0.21433	-25
0.21800	-26
0.22167	-25
0.22533	-22
0.22900	-18
0.23267	-12
0.23633	-5
0.24000	1
0.24367	5
0.24733	4
0.25100	-0
0.25467	-7
0.25833	-13
0.26200	-18
0.26567	-19
0.26933	-19
0.27300	-19
0.27667	-24
0.28033	-28
0.28400	-26
0.28767	-23
0.29133	-21
0.29500	-18
0.29867	-17
0.30233	-18
0.30600	-23
0.30967	-26
0.31333	-28
0.31700	-26
0.32067	-23
0.32433	-24
0.32800	-29
0.33167	-34
0.33533	-36
0.33900	-38
0.34267	-39
0.34633	-35
0.35000	-28
0.35367	-23
0.35733	-22
0.36100	-19
0.36467	-16
0.36833	-16
0.37200	-18
0.37567	-19
0.37933	-21
0.38300	-24
0.38667	-29
0.39033	-37
0.39400	-44
0.39767	-45
0.40133	-36
0.40500	-27
0.40867	-25
0.41233	-29
0.41600	-36
0.41967	-42
0.42333	-42
0.42700	-36
0.43067	-31
0.43433	-29
0.43800	-29
0.44167	-28
0.44533	-31
0.44900	-40
0.45267	-50
0.45633	-62
0.46000	-74
0.46367	-80
0.46733	-78
0.47100	-71
0.47467	-60
0.47833	-49
0.48200	-41
0.48567	-38
0.48933	-37
0.49300	-36
0.49667	-34
0.50033	-31
0.50400	-30
0.50767	-31
0.51133	-34
0.51500	-39
0.51867	-45
0.52233	-47
0.52600	-47
0.52967	-46
0.53333	-46
0.53700	-47
0.54067	-52
0.54433	-55
0.54800	-54
0.55167	-50
0.55533	-48
0.55900	-50
0.56267	-53
0.56633	-54
0.57000	-54
0.57367	-54
0.57733	-56
0.58100	-58
0.58467	-57
0.58833	-51
0.59200	-46
0.59567	-46
0.59933	-47
0.60300	-49
0.60667	-51
0.61033	-53
0.61400	-59
0.61767	-64
0.62133	-68
0.62500	-71
0.62867	-71
0.63233	-67
0.63600	-61
0.63967	-56
0.64333	-52
0.64700	-47
0.65067	-42
0.65433	-40
0.65800	-36
0.66167	-34
0.66533	-34
0.66900	-37
0.67267	-42
0.67633	-48
0.68000	-51
0.68367	-52
0.68733	-53
0.69100	-55
0.69467	-57
0.69833	-59
0.70200	-60
0.70567	-59
0.70933	-58
0.71300	-57
0.71667	-57
0.72033	-59
0.72400	-60
0.72767	-62
0.73133	-66
0.73500	-67
0.73867	-66
0.74233	-66
0.74600	-66
0.74967	-65
0.75333	-60
0.75700	-55
0.76067	-50
0.76433	-50
0.76800	-52
0.77167	-52
0.77533	-51
0.77900	-50
0.78267	-52
0.78633	-56
0.79000	-58
0.79367	-60
0.79733	-63
0.80100	-69
0.80467	-74
0.80833	-77
0.81200	-79
0.81567	-78
0.81933	-73
0.82300	-64
0.82667	-59
0.83033	-60
0.83400	-63
0.83767	-63
0.84133	-64
0.84500	-66
0.84867	-70
0.85233	-75
0.85600	-77
0.85967	-78
0.86333	-79
0.86700	-79
0.87067	-78
0.87433	-74
0.87800	-72
0.88167	-71
0.88533	-71
0.88900	-67
0.89267	-63
0.89633	-58
0.90000	-55
0.90367	-59
0.90733	-66
0.91100	-71
0.91467	-77
0.91833	-84
0.92200	-88
0.92567	-88
0.92933	-83
0.93300	-78
0.93667	-73
0.94033	-67
0.94400	-64
0.94767	-66
0.95133	-69
0.95500	-69
0.95867	-66
0.96233	-67
0.96600	-75
0.96967	-81
0.97333	-83
0.97700	-79
0.98067	-71
0.98433	-64
0.98800	-59
0.99167	-61
0.99533	-70
0.99900	-81
1.00267	-91
1.00633	-98
1.01000	-101
1.01367	-99
1.01733	-94
1.02100	-89
1.02467	-85
1.02833	-82
1.03200	-81
1.03567	-78
1.03933	-75
1.04300	-73
1.04667	-74
1.05033	-73
1.05400	-71
1.05767	-67
1.06133	-64
1.06500	-63
1.06867	-66
1.07233	-69
1.07600	-73
1.07967	-74
1.08333	-72
1.08700	-67
1.09067	-65
1.09433	-67
1.09800	-69
1.10167	-73
1.10533	-77
1.10900	-80
1.11267	-80
1.11633	-77
1.12000	-76
1.12367	-81
1.12733	-91
1.13100	-102
1.13467	-108
1.13833	-112
1.14200	-114
1.14567	-116
1.14933	-115
1.15300	-113
1.15667	-110
1.16033	-108
1.16400	-109
1.16767	-111
1.17133	-111
1.17500	-106
1.17867	-103
1.18233	-101
1.18600	-100
1.18967	-100
1.19333	-102
1.19700	-101
1.20067	-100
1.20433	-99
1.20800	-98
1.21167	-94
1.21533	-95
1.21900	-103
1.22267	-108
1.22633	-108
1.23000	-106
1.23367	-105
1.23733	-103
1.24100	-100
1.24467	-99
1.24833	-101
1.25200	-105
1.25567	-110
1.25933	-112
1.26300	-111
1.26667	-109
1.27033	-105
1.27400	-99
1.27767	-94
1.28133	-87
1.28500	-84
1.28867	-87
1.29233	-89
1.29600	-90
1.29967	-90
1.30333	-90
1.30700	-90
1.31067	-90
1.31433	-92
1.31800	-95
1.32167	-101
1.32533	-108
1.32900	-111
1.33267	-112
1.33633	-112
1.34000	-112
1.34367	-112
1.34733	-115
1.35100	-119
1.35467	-118
1.35833	-115
1.36200	-112
1.36567	-111
1.36933	-109
1.37300	-107
1.37667	-105
1.38033	-102
1.38400	-99
1.38767	-98
1.39133	-100
1.39500	-102
1.39867	-102
1.40233	-103
1.40600	-105
1.40967	-107
1.41333	-111
1.41700	-114
1.42067	-113
1.42433	-113
1.42800	-113
1.43167	-106
1.43533	-96
1.43900	-53
1.44267	74
1.44633	304
1.45000	634
1.45367	1117
1.45733	1750
1.46100	2425
1.46467	3029
1.46833	3506
1.47200	3823
1.47567	3946
1.47933	3842
1.48300	3515
1.48667	3024
1.49033	2459
1.49400	1910
1.49767	1436
1.50133	1057
1.50500	769
1.50867	556
1.51233	396
1.51600	279
1.51967	198
1.52333	142
1.52700	98
1.53067	60
1.53433	32
1.53800	37
1.54167	124
1.54533	351
1.54900	723
1.55267	1166
1.55633	1588
1.56000	1929
1.56367	2160
1.56733	2254
1.57100	2185
1.57467	1953
1.57833	1606
1.58200	1226
1.58567	874
1.58933	588
1.59300	374
1.59667	219
1.60033	109
1.60400	34
1.60767	-14
1.61133	-43
1.61500	-61
1.61867	-71
1.62233	-76
1.62600	-78
1.62967	-79
1.63333	-80
1.63700	-83
1.64067	-89
1.64433	-96
1.64800	-102
1.65167	-107
1.65533	-111
1.65900	-114
1.66267	-117
1.66633	-120
1.67000	-125
1.67367	-128
1.67733	-130
1.68100	-130
1.68467	-128
1.68833	-125
1.69200	-125
1.69567	-127
1.69933	-126
1.70300	-125
1.70667	-127
1.71033	-131
1.71400	-138
1.71767	-145
1.72133	-147
1.72500	-143
1.72867	-138
1.73233	-134
1.73600	-130
1.73967	-127
1.74333	-126
1.74700	-126
1.75067	-127
1.75433	-129
1.75800	-133
1.76167	-137
1.76533	-142
1.76900	-144
1.77267	-140
1.77633	-138
1.78000	-139
1.78367	-140
1.78733	-140
1.79100	-135
1.79467	-127
1.79833	-122
1.80200	-125
1.80567	-132
1.80933	-138
1.81300	-142
1.81667	-143
1.82033	-142
1.82400	-142
1.82767	-144
1.83133	-142
1.83500	-142
1.83867	-142
1.84233	-142
1.84600	-142
1.84967	-140
1.85333	-138
1.85700	-139
1.86067	-143
1.86433	-149
1.86800	-151
1.87167	-150
1.87533	-152
1.87900	-154
1.88267	-155
1.88633	-152
1.89000	-147
1.89367	-144
1.89733	-143
1.90100	-144
1.90467	-143
1.90833	-140
1.91200	-135
1.91567	-130
1.91933	-129
1.92300	-132
1.92667	-136
1.93033	-138
1.93400	-136
1.93767	-134
1.94133	-133
1.94500	-132
1.94867	-126
1.95233	-84
1.95600	166
1.95967	1430
1.96333	6492
1.96700	21994
1.97067	58699
1.97433	126624
1.97800	226354
1.98167	345652
1.98533	464853
1.98900	564551
1.99267	629786
1.99633	651121
2.00000	626511
2.00367	562854
2.00733	474245
2.01100	377452
2.01467	286634
2.01833	210107
2.02200	150431
2.02567	106385
2.02933	75073
2.03300	53351
2.03667	38486
2.04033	28362
2.04400	21453
2.04767	16700
2.05133	13387
2.05500	11034
2.05867	9325
2.06233	8050
2.06600	7072
2.06967	6306
2.07333	5696
2.07700	5197
2.08067	4780
2.08433	4426
2.08800	4122
2.09167	3856
2.09533	3617
2.09900	3404
2.10267	3216
2.10633	3046
2.11000	2890
2.11367	2747
2.11733	2618
2.12100	2498
2.12467	2387
2.12833	2284
2.13200	2189
2.13567	2103
2.13933	2024
2.14300	1949
2.14667	1879
2.15033	1814
2.15400	1756
2.15767	1702
2.16133	1648
2.16500	1594
2.16867	1537
2.17233	1480
2.17600	1432
2.17967	1392
2.18333	1357
2.18700	1324
2.19067	1292
2.19433	1261
2.19800	1230
2.20167	1197
2.20533	1161
2.20900	1124
2.21267	1094
2.21633	1069
2.22000	1046
2.22367	1025
2.22733	1003
2.23100	982
2.23467	962
2.23833	944
2.24200	925
2.24567	906
2.24933	885
2.25300	864
2.25667	846
2.26033	829
2.26400	810
2.26767	789
2.27133	768
2.27500	751
2.27867	736
2.28233	723
2.28600	711
2.28967	697
2.29333	682
2.29700	665
2.30067	651
2.30433	637
2.30800	623
2.31167	611
2.31533	602
2.31900	593
2.32267	587
2.32633	583
2.33000	579
2.33367	571
2.33733	559
2.34100	543
2.34467	527
2.34833	513
2.35200	502
2.35567	497
2.35933	496
2.36300	497
2.36667	497
2.37033	493
2.37400	486
2.37767	475
2.38133	460
2.38500	447
2.38867	440
2.39233	434
2.39600	429
2.39967	426
2.40333	425
2.40700	422
2.41067	418
2.41433	418
2.41800	418
2.42167	416
2.42533	413
2.42900	409
2.43267	400
2.43633	388
2.44000	376
2.44367	367
2.44733	363
2.45100	362
2.45467	361
2.45833	359
2.46200	358
2.46567	353
2.46933	346
2.47300	338
2.47667	330
2.48033	324
2.48400	324
2.48767	324
2.49133	321
2.49500	313
2.49867	304
2.50233	294
2.50600	287
2.50967	285
2.51333	283
2.51700	283
2.52067	285
2.52433	288
2.52800	292
2.53167	293
2.53533	291
2.53900	286
2.54267	279
2.54633	271
2.55000	265
2.55367	262
2.55733	258
2.56100	253
2.56467	245
2.56833	236
2.57200	229
2.57567	225
2.57933	219
2.58300	213
2.58667	209
2.59033	207
2.59400	210
2.59767	212
2.60133	212
2.60500	211
2.60867	210
2.61233	209
2.61600	208
2.61967	207
2.62333	203
2.62700	201
2.63067	199
2.63433	198
2.63800	197
2.64167	196
2.64533	191
2.64900	184
2.65267	178
2.65633	175
2.66000	175
2.66367	178
2.66733	183
2.67100	185
2.67467	182
2.67833	178
2.68200	176
2.68567	175
2.68933	173
2.69300	171
2.69667	171
2.70033	170
2.70400	166
2.70767	160
2.71133	154
2.71500	147
2.71867	143
2.72233	140
2.72600	137
2.72967	135
2.73333	137
2.73700	139
2.74067	137
2.74433	134
2.74800	130
2.75167	127
2.75533	127
2.75900	127
2.76267	126
2.76633	124
2.77000	123
2.77367	119
2.77733	111
2.78100	104
2.78467	99
2.78833	93
2.79200	87
2.79567	82
2.79933	78
2.80300	77
2.80667	84
2.81033	97
2.81400	111
2.81767	119
2.82133	120
2.82500	116
2.82867	109
2.83233	99
2.83600	88
2.83967	81
2.84333	80
2.84700	84
2.85067	90
2.85433	97
2.85800	104
2.86167	109
2.86533	109
2.86900	105
2.87267	98
2.87633	92
2.88000	89
2.88367	85
2.88733	80
2.89100	77
2.89467	75
2.89833	76
2.90200	78
2.90567	78
2.90933	76
2.91300	76
2.91667	75
2.92033	76
2.92400	80
2.92767	83
2.93133	84
2.93500	84
2.93867	83
2.94233	83
2.94600	84
2.94967	83
2.95333	81
2.95700	73
2.96067	62
2.96433	55
2.96800	50
2.97167	48
2.97533	46
2.97900	46
2.98267	52
2.98633	63
2.99000	78
2.99367	90
2.99733	96
3.00100	97
3.00467	94
3.00833	90
3.01200	86
3.01567	83
3.01933	78
3.02300	77
3.02667	77
3.03033	77
3.03400	74
3.03767	67
3.04133	63
3.04500	62
3.04867	60
3.05233	55
3.05600	50
3.05967	44
3.06333	38
3.06700	36
3.07067	35
3.07433	38
3.07800	43
3.08167	49
3.08533	52
3.08900	53
3.09267	51
3.09633	47
3.10000	43
3.10367	40
3.10733	37
3.11100	35
3.11467	33
3.11833	32
3.12200	32
3.12567	30
3.12933	32
3.13300	38
3.13667	41
3.14033	44
3.14400	45
3.14767	43
3.15133	39
3.15500	33
3.15867	27
3.16233	22
3.16600	21
3.16967	24
3.17333	26
3.17700	24
3.18067	19
3.18433	17
3.18800	20
3.19167	21
3.19533	17
3.19900	15
3.20267	18
3.20633	22
3.21000	22
3.21367	20
3.21733	22
3.22100	27
3.22467	30
3.22833	30
3.23200	23
3.23567	16
3.23933	12
3.24300	11
3.24667	11
3.25033	14
3.25400	17
3.25767	20
3.26133	20
3.26500	21
3.26867	23
3.27233	25
3.27600	24
3.27967	24
3.28333	22
3.28700	15
3.29067	6
3.29433	3
3.29800	2
3.30167	2
3.30533	2
3.30900	4
3.31267	8
3.31633	13
3.32000	15
3.32367	16
3.32733	19
3.33100	22
3.33467	23
3.33833	21
3.34200	18
3.34567	13
3.34933	6
3.35300	-3
3.35667	-13
3.36033	-20
3.36400	-21
3.36767	-18
3.37133	-14
3.37500	-11
3.37867	-8
3.38233	-6
3.38600	-7
3.38967	-6
3.39333	-3
3.39700	2
3.40067	6
3.40433	7
3.40800	6
3.41167	4
3.41533	-0
3.41900	-5
3.42267	-7
3.42633	-6
3.43000	-10
3.43367	-16
3.43733	-22
3.44100	-26
3.44467	-30
3.44833	-34
3.45200	-37
3.45567	-39
3.45933	-40
3.46300	-38
3.46667	-36
3.47033	-37
3.47400	-40
3.47767	-41
3.48133	-42
3.48500	-43
3.48867	-45
3.49233	-42
3.49600	-37
3.49967	-31
3.50333	-27
3.50700	-28
3.51067	-34
3.51433	-41
3.51800	-44
3.52167	-43
3.52533	-44
3.52900	-45
3.53267	-46
3.53633	-48
3.54000	-46
3.54367	-38
3.54733	-29
3.55100	-24
3.55467	-25
3.55833	-26
3.56200	-30
3.56567	-33
3.56933	-36
3.57300	-37
3.57667	-40
3.58033	-44
3.58400	-44
3.58767	-42
3.59133	-45
3.59500	-52
3.59867	-58
3.60233	-60
3.60600	-64
3.60967	-71
3.61333	-74
3.61700	-73
3.62067	-71
3.62433	-67
3.62800	-59
3.63167	-47
3.63533	-35
3.63900	-30
3.64267	-32
3.64633	-35
3.65000	-37
3.65367	-37
3.65733	-36
3.66100	-37
3.66467	-39
3.66833	-48
3.67200	-62
3.67567	-73
3.67933	-80
3.68300	-78
3.68667	-73
3.69033	-68
3.69400	-61
3.69767	-55
3.70133	-52
3.70500	-52
3.70867	-54
3.71233	-56
3.71600	-58
3.71967	-62
3.72333	-68
3.72700	-74
3.73067	-75
3.73433	-75
3.73800	-70
3.74167	-64
3.74533	-60
3.74900	-58
3.75267	-56
3.75633	-59
3.76000	-64
3.76367	-69
3.76733	-73
3.77100	-74
3.77467	-72
3.77833	-71
3.78200	-70
3.78567	-70
3.78933	-70
3.79300	-70
3.79667	-70
3.80033	-69
3.80400	-66
3.80767	-64
3.81133	-64
3.81500	-64
3.81867	-64
3.82233	-66
3.82600	-69
3.82967	-75
3.83333	-84
3.83700	-94
3.84067	-103
3.84433	-106
3.84800	-103
3.85167	-97
3.85533	-92
3.85900	-91
3.86267	-91
3.86633	-93
3.87000	-93
3.87367	-92
3.87733	-90
3.88100	-87
3.88467	-83
3.88833	-76
3.89200	-69
3.89567	-68
3.89933	-74
3.90300	-79
3.90667	-80
3.91033	-82
3.91400	-86
3.91767	-90
3.92133	-90
3.92500	-91
3.92867	-93
3.93233	-96
3.93600	-99
3.93967	-103
3.94333	-107
3.94700	-108
3.95067	-108
3.95433	-104
3.95800	-99
3.96167	-96
3.96533	-95
3.96900	-95
3.97267	-94
3.97633	-90
3.98000	-86
3.98367	-86
3.98733	-85
3.99100	-84
3.99467	-82
3.99833	-80

[Chromatogram (Ch2)]
Interval(msec)	220
# of Points	1091
Start Time(min)	0.002
End Time(min)	3.998
R.Time (min)	Intensity
0.00167	0
0.00533	0
0.00900	0
0.01267	0
0.01633	1
0.02000	1
0.02367	1
0.02733	1
0.03100	0
0.03467	0
0.03833	0
0.04200	0
0.04567	-0
0.04933	-0
0.05300	-0
0.05667	-0
0.06033	-0
0.06400	0
0.06767	0
0.07133	0
0.07500	1
0.07867	1
0.08233	1
0.08600	1
0.08967	1
0.09333	1
0.09700	2
0.10067	2
0.10433	2
0.10800	3
0.11167	3
0.11533	3
0.11900	4
0.12267	4
0.12633	4
0.13000	4
0.13367	4
0.13733	4
0.14100	4
0.14467	4
0.14833	5
0.15200	5
0.15567	5
0.15933	5
0.16300	5
0.16667	5
0.17033	5
0.17400	6
0.17767	6
0.18133	6
0.18500	6
0.18867	6
0.19233	6
0.19600	6
0.19967	5
0.20333	5
0.20700	5
0.21067	4
0.21433	4
0.21800	3
0.22167	3
0.22533	3
0.22900	2
0.23267	2
0.23633	2
0.24000	1
0.24367	1
0.24733	1
0.25100	0
0.25467	0
0.25833	0
0.26200	0
0.26567	0
0.26933	0
0.27300	1
0.27667	1
0.28033	1
0.28400	1
0.28767	2
0.29133	2
0.29500	2
0.29867	2
0.30233	2
0.30600	2
0.30967	2
0.31333	2
0.31700	2
0.32067	2
0.32433	2
0.32800	2
0.33167	2
0.33533	2
0.33900	2
0.34267	2
0.34633	2
0.35000	2
0.35367	2
0.35733	2
0.36100	2
0.36467	2
0.36833	2
0.37200	2
0.37567	2
0.37933	2
0.38300	2
0.38667	1
0.39033	1
0.39400	1
0.39767	2
0.40133	2
0.40500	2
0.40867	2
0.41233	2
0.41600	2
0.41967	2
0.42333	2
0.42700	2
0.43067	2
0.43433	2
0.43800	2
0.44167	2
0.44533	2
0.44900	2
0.45267	2
0.45633	1
0.46000	1
0.46367	1
0.46733	1
0.47100	0
0.47467	0
0.47833	0
0.48200	0
0.48567	0
0.48933	0
0.49300	0
0.49667	0
0.50033	0
0.50400	0
0.50767	0
0.51133	0
0.51500	0
0.51867	0
0.52233	-0
0.52600	-0
0.52967	-1
0.53333	-1
0.53700	-1
0.54067	-2
0.54433	-2
0.54800	-2
0.55167	-1
0.55533	-1
0.55900	-1
0.56267	-1
0.56633	-0
0.57000	-0
0.57367	-0
0.57733	-0
0.58100	0
0.58467	0
0.58833	1
0.59200	1
0.59567	1
0.59933	1
0.60300	1
0.60667	1
0.61033	1
0.61400	1
0.61767	1
0.62133	2
0.62500	2
0.62867	2
0.63233	2
0.63600	2
0.63967	2
0.64333	2
0.64700	1
0.65067	1
0.65433	1
0.65800	1
0.66167	1
0.66533	1
0.66900	1
0.67267	1
0.67633	1
0.68000	1
0.68367	0
0.68733	0
0.69100	0
0.69467	0
0.69833	0
0.70200	-0
0.70567	-0
0.70933	-0
0.71300	-1
0.71667	-1
0.72033	-1
0.72400	-1
0.72767	-1
0.73133	-1
0.73500	-1
0.73867	-1
0.74233	-1
0.74600	-1
0.74967	-1
0.75333	-1
0.75700	-1
0.76067	-1
0.76433	-0
0.76800	-0
0.77167	-0
0.77533	-0
0.77900	-0
0.78267	-0
0.78633	0
0.79000	0
0.79367	0
0.79733	0
0.80100	0
0.80467	1
0.80833	1
0.81200	1
0.81567	1
0.81933	1
0.82300	1
0.82667	1
0.83033	1
0.83400	1
0.83767	1
0.84133	1
0.84500	1
0.84867	1
0.85233	1
0.85600	1
0.85967	1
0.86333	1
0.86700	1
0.87067	1
0.87433	1
0.87800	1
0.88167	1
0.88533	1
0.88900	1
0.89267	2
0.89633	2
0.90000	2
0.90367	2
0.90733	2
0.91100	2
0.91467	2
0.91833	1
0.92200	1
0.92567	1
0.92933	1
0.93300	0
0.93667	0
0.94033	0
0.94400	-0
0.94767	-0
0.95133	-1
0.95500	-1
0.95867	-2
0.96233	-2
0.96600	-2
0.96967	-2
0.97333	-2
0.97700	-2
0.98067	-2
0.98433	-1
0.98800	-1
0.99167	-1
0.99533	-1
0.99900	-1
1.00267	-1
1.00633	-1
1.01000	-0
1.01367	-0
1.01733	-0
1.02100	0
1.02467	0
1.02833	0
1.03200	0
1.03567	0
1.03933	0
1.04300	0
1.04667	0
1.05033	-0
1.05400	-0
1.05767	-0
1.06133	-0
1.06500	-0
1.06867	-0
1.07233	0
1.07600	0
1.07967	0
1.08333	0
1.08700	0
1.09067	0
1.09433	0
1.09800	-0
1.10167	-0
1.10533	-1
1.10900	-1
1.11267	-1
1.11633	-1
1.12000	-2
1.12367	-1
1.12733	-1
1.13100	-1
1.13467	-1
1.13833	-1
1.14200	-1
1.14567	-1
1.14933	-1
1.15300	-1
1.15667	-1
1.16033	-1
1.16400	-1
1.16767	-1
1.17133	-1
1.17500	-1
1.17867	-1
1.18233	-1
1.18600	-1
1.18967	-1
1.19333	-1
1.19700	-1
1.20067	-1
1.20433	-0
1.20800	-0
1.21167	-0
1.21533	0
1.21900	0
1.22267	0
1.22633	0
1.23000	-0
1.23367	-0
1.23733	-0
1.24100	-0
1.24467	-1
1.24833	-1
1.25200	-1
1.25567	-2
1.25933	-1
1.26300	-1
1.26667	-1
1.27033	-1
1.27400	-1
1.27767	-1
1.28133	-1
1.28500	-1
1.28867	-0
1.29233	-0
1.29600	-1
1.29967	-1
1.30333	-1
1.30700	-1
1.31067	-2
1.31433	-2
1.31800	-2
1.32167	-2
1.32533	-2
1.32900	-2
1.33267	-3
1.33633	-3
1.34000	-3
1.34367	-2
1.34733	-2
1.35100	-2
1.35467	-2
1.35833	-2
1.36200	-1
1.36567	-1
1.36933	-1
1.37300	-1
1.37667	-1
1.38033	-1
1.38400	-1
1.38767	-1
1.39133	-1
1.39500	-2
1.39867	-2
1.40233	-2
1.40600	-2
1.40967	-1
1.41333	-1
1.41700	-1
1.42067	-1
1.42433	-1
1.42800	-1
1.43167	-1
1.43533	-1
1.43900	-1
1.44267	-1
1.44633	-1
1.45000	-1
1.45367	-1
1.45733	-1
1.46100	-1
1.46467	-1
1.46833	-0
1.47200	-0
1.47567	-0
1.47933	-1
1.48300	-1
1.48667	-1
1.49033	-1
1.49400	-1
1.49767	-1
1.50133	-1
1.50500	-1
1.50867	-1
1.51233	-1
1.51600	-1
1.51967	-1
1.52333	-1
1.52700	-1
1.53067	-1
1.53433	-1
1.53800	-1
1.54167	-1
1.54533	-1
1.54900	-1
1.55267	-1
1.55633	-1
1.56000	-1
1.56367	-1
1.56733	-1
1.57100	-1
1.57467	-1
1.57833	-1
1.58200	-1
1.58567	-1
1.58933	-1
1.59300	-2
1.59667	-2
1.60033	-3
1.60400	-4
1.60767	-5
1.61133	-7
1.61500	-9
1.61867	-11
1.62233	-14
1.62600	-17
1.62967	-20
1.63333	-23
1.63700	-26
1.64067	-29
1.64433	-33
1.64800	-37
1.65167	-40
1.65533	-44
1.65900	-48
1.66267	-52
1.66633	-56
1.67000	-60
1.67367	-65
1.67733	-70
1.68100	-75
1.68467	-80
1.68833	-85
1.69200	-89
1.69567	-93
1.69933	-96
1.70300	-99
1.70667	-101
1.71033	-103
1.71400	-105
1.71767	-106
1.72133	-108
1.72500	-109
1.72867	-110
1.73233	-111
1.73600	-112
1.73967	-113
1.74333	-113
1.74700	-113
1.75067	-113
1.75433	-113
1.75800	-113
1.76167	-113
1.76533	-114
1.76900	-114
1.77267	-115
1.77633	-116
1.78000	-117
1.78367	-117
1.78733	-118
1.79100	-118
1.79467	-119
1.79833	-119
1.80200	-119
1.80567	-119
1.80933	-119
1.81300	-119
1.81667	-119
1.82033	-119
1.82400	-119
1.82767	-119
1.83133	-118
1.83500	-118
1.83867	-118
1.84233	-118
1.84600	-118
1.84967	-118
1.85333	-118
1.85700	-118
1.86067	-118
1.86433	-119
1.86800	-120
1.87167	-120
1.87533	-120
1.87900	-120
1.88267	-121
1.88633	-121
1.89000	-120
1.89367	-120
1.89733	-119
1.90100	-118
1.90467	-117
1.90833	-116
1.91200	-116
1.91567	-115
1.91933	-115
1.92300	-115
1.92667	-114
1.93033	-114
1.93400	-113
1.93767	-113
1.94133	-113
1.94500	-113
1.94867	-113
1.95233	-113
1.95600	-113
1.95967	-113
1.96333	-113
1.96700	-113
1.97067	-113
1.97433	-112
1.97800	-112
1.98167	-112
1.98533	-113
1.98900	-113
1.99267	-113
1.99633	-112
2.00000	-112
2.00367	-112
2.00733	-111
2.01100	-111
2.01467	-111
2.01833	-111
2.02200	-111
2.02567	-111
2.02933	-111
2.03300	-111
2.03667	-110
2.04033	-110
2.04400	-109
2.04767	-109
2.05133	-108
2.05500	-108
2.05867	-107
2.06233	-107
2.06600	-106
2.06967	-106
2.07333	-105
2.07700	-105
2.08067	-105
2.08433	-105
2.08800	-104
2.09167	-104
2.09533	-104
2.09900	-103
2.10267	-103
2.10633	-103
2.11000	-102
2.11367	-102
2.11733	-102
2.12100	-103
2.12467	-103
2.12833	-103
2.13200	-103
2.13567	-102
2.13933	-102
2.14300	-101
2.14667	-100
2.15033	-99
2.15400	-99
2.15767	-98
2.16133	-98
2.16500	-98
2.16867	-97
2.17233	-97
2.17600	-96
2.17967	-95
2.18333	-95
2.18700	-94
2.19067	-94
2.19433	-95
2.19800	-95
2.20167	-97
2.20533	-98
2.20900	-98
2.21267	-98
2.21633	-98
2.22000	-97
2.22367	-96
2.22733	-95
2.23100	-94
2.23467	-94
2.23833	-93
2.24200	-93
2.24567	-92
2.24933	-91
2.25300	-90
2.25667	-90
2.26033	-89
2.26400	-89
2.26767	-89
2.27133	-88
2.27500	-88
2.27867	-87
2.28233	-87
2.28600	-86
2.28967	-86
2.29333	-86
2.29700	-86
2.30067	-86
2.30433	-86
2.30800	-86
2.31167	-86
2.31533	-86
2.31900	-85
2.32267	-84
2.32633	-83
2.33000	-83
2.33367	-82
2.33733	-82
2.34100	-82
2.34467	-82
2.34833	-83
2.35200	-83
2.35567	-83
2.35933	-82
2.36300	-81
2.36667	-79
2.37033	-76
2.37400	-74
2.37767	-71
2.38133	-67
2.38500	-64
2.38867	-60
2.39233	-56
2.39600	-52
2.39967	-48
2.40333	-43
2.40700	-39
2.41067	-36
2.41433	-32
2.41800	-29
2.42167	-26
2.42533	-23
2.42900	-20
2.43267	-18
2.43633	-15
2.44000	-12
2.44367	-10
2.44733	-8
2.45100	-6
2.45467	-5
2.45833	-4
2.46200	-2
2.46567	-1
2.46933	0
2.47300	2
2.47667	3
2.48033	4
2.48400	5
2.48767	6
2.49133	6
2.49500	7
2.49867	8
2.50233	9
2.50600	10
2.50967	11
2.51333	12
2.51700	12
2.52067	13
2.52433	14
2.52800	14
2.53167	15
2.53533	15
2.53900	16
2.54267	16
2.54633	16
2.55000	16
2.55367	16
2.55733	16
2.56100	16
2.56467	16
2.56833	16
2.57200	16
2.57567	16
2.57933	16
2.58300	16
2.58667	16
2.59033	16
2.59400	17
2.59767	17
2.60133	17
2.60500	18
2.60867	18
2.61233	18
2.61600	18
2.61967	18
2.62333	18
2.62700	19
2.63067	19
2.63433	20
2.63800	20
2.64167	20
2.64533	21
2.64900	21
2.65267	21
2.65633	21
2.66000	21
2.66367	21
2.66733	21
2.67100	22
2.67467	22
2.67833	22
2.68200	22
2.68567	23
2.68933	23
2.69300	24
2.69667	24
2.70033	25
2.70400	25
2.70767	26
2.71133	26
2.71500	26
2.71867	27
2.72233	26
2.72600	26
2.72967	26
2.73333	25
2.73700	25
2.74067	25
2.74433	25
2.74800	25
2.75167	25
2.75533	25
2.75900	26
2.76267	26
2.76633	27
2.77000	27
2.77367	28
2.77733	29
2.78100	29
2.78467	30
2.78833	30
2.79200	30
2.79567	31
2.79933	31
2.80300	31
2.80667	31
2.81033	31
2.81400	30
2.81767	30
2.82133	30
2.82500	29
2.82867	29
2.83233	29
2.83600	28
2.83967	28
2.84333	28
2.84700	27
2.85067	26
2.85433	24
2.85800	21
2.86167	16
2.86533	8
2.86900	-3
2.87267	-17
2.87633	-35
2.88000	-58
2.88367	-84
2.88733	-114
2.89100	-147
2.89467	-184
2.89833	-224
2.90200	-267
2.90567	-313
2.90933	-360
2.91300	-409
2.91667	-459
2.92033	-510
2.92400	-562
2.92767	-613
2.93133	-664
2.93500	-715
2.93867	-764
2.94233	-813
2.94600	-864
2.94967	-920
2.95333	-980
2.95700	-1039
2.96067	-1084
2.96433	-1108
2.96800	-1104
2.97167	-1076
2.97533	-1026
2.97900	-961
2.98267	-886
2.98633	-806
2.99000	-725
2.99367	-646
2.99733	-571
3.00100	-501
3.00467	-437
3.00833	-379
3.01200	-327
3.01567	-281
3.01933	-241
3.02300	-206
3.02667	-175
3.03033	-148
3.03400	-125
3.03767	-105
3.04133	-87
3.04500	-72
3.04867	-59
3.05233	-48
3.05600	-39
3.05967	-31
3.06333	-25
3.06700	-19
3.07067	-14
3.07433	-9
3.07800	-6
3.08167	-2
3.08533	0
3.08900	3
3.09267	5
3.09633	6
3.10000	8
3.10367	9
3.10733	11
3.11100	12
3.11467	13
3.11833	14
3.12200	15
3.12567	16
3.12933	16
3.13300	17
3.13667	17
3.14033	17
3.14400	18
3.14767	18
3.15133	19
3.15500	19
3.15867	19
3.16233	20
3.16600	20
3.16967	20
3.17333	20
3.17700	20
3.18067	21
3.18433	21
3.18800	21
3.19167	21
3.19533	21
3.19900	21
3.20267	21
3.20633	21
3.21000	21
3.21367	21
3.21733	21
3.22100	21
3.22467	21
3.22833	21
3.23200	21
3.23567	22
3.23933	22
3.24300	22
3.24667	23
3.25033	23
3.25400	23
3.25767	24
3.26133	24
3.26500	24
3.26867	24
3.27233	24
3.27600	25
3.27967	25
3.28333	26
3.28700	26
3.29067	26
3.29433	26
3.29800	27
3.30167	27
3.30533	27
3.30900	27
3.31267	27
3.31633	28
3.32000	28
3.32367	28
3.32733	28
3.33100	29
3.33467	29
3.33833	29
3.34200	29
3.34567	29
3.34933	29
3.35300	29
3.35667	29
3.36033	29
3.36400	29
3.36767	29
3.37133	29
3.37500	29
3.37867	29
3.38233	30
3.38600	30
3.38967	30
3.39333	30
3.39700	30
3.40067	30
3.40433	30
3.40800	30
3.41167	30
3.41533	30
3.41900	30
3.42267	30
3.42633	30
3.43000	29
3.43367	29
3.43733	29
3.44100	29
3.44467	29
3.44833	29
3.45200	29
3.45567	29
3.45933	29
3.46300	29
3.46667	29
3.47033	29
3.47400	29
3.47767	29
3.48133	29
3.48500	29
3.48867	29
3.49233	29
3.49600	29
3.49967	29
3.50333	29
3.50700	29
3.51067	30
3.51433	30
3.51800	30
3.52167	30
3.52533	30
3.52900	30
3.53267	30
3.53633	30
3.54000	29
3.54367	29
3.54733	29
3.55100	29
3.55467	29
3.55833	30
3.56200	30
3.56567	30
3.56933	30
3.57300	30
3.57667	30
3.58033	30
3.58400	30
3.58767	29
3.59133	29
3.59500	29
3.59867	29
3.60233	29
3.60600	29
3.60967	29
3.61333	29
3.61700	29
3.62067	29
3.62433	29
3.62800	29
3.63167	29
3.63533	29
3.63900	29
3.64267	29
3.64633	29
3.65000	29
3.65367	29
3.65733	29
3.66100	30
3.66467	30
3.66833	30
3.67200	30
3.67567	30
3.67933	30
3.68300	29
3.68667	29
3.69033	29
3.69400	29
3.69767	29
3.70133	29
3.70500	29
3.70867	29
3.71233	29
3.71600	29
3.71967	29
3.72333	29
3.72700	29
3.73067	29
3.73433	29
3.73800	29
3.74167	29
3.74533	29
3.74900	30
3.75267	29
3.75633	29
3.76000	29
3.76367	29
3.76733	29
3.77100	29
3.77467	29
3.77833	29
3.78200	29
3.78567	28
3.78933	28
3.79300	28
3.79667	28
3.80033	28
3.80400	28
3.80767	28
3.81133	28
3.81500	28
3.81867	28
3.82233	28
3.82600	28
3.82967	28
3.83333	28
3.83700	29
3.84067	29
3.84433	29
3.84800	29
3.85167	29
3.85533	30
3.85900	30
3.86267	30
3.86633	30
3.87000	30
3.87367	30
3.87733	30
3.88100	31
3.88467	31
3.88833	31
3.89200	31
3.89567	31
3.89933	32
3.90300	32
3.90667	32
3.91033	32
3.91400	33
3.91767	33
3.92133	33
3.92500	33
3.92867	33
3.93233	33
3.93600	32
3.93967	32
3.94333	32
3.94700	32
3.95067	32
3.95433	32
3.95800	32
3.96167	32
3.96533	32
3.96900	32
3.97267	32
3.97633	32
3.98000	32
3.98367	32
3.98733	32
3.99100	32
3.99467	32
3.99833	32

[Chromatogram (Ch3)]
Interval(msec)	220
# of Points	1091
Start Time(min)	0.002
End Time(min)	3.998
R.Time (min)	Intensity
0.00167	-1
0.00533	-3
0.00900	-4
0.01267	-3
0.01633	-4
0.02000	-3
0.02367	1
0.02733	2
0.03100	-1
0.03467	-4
0.03833	-3
0.04200	-1
0.04567	1
0.04933	0
0.05300	-2
0.05667	-2
0.06033	-4
0.06400	-5
0.06767	-4
0.07133	-2
0.07500	-1
0.07867	2
0.08233	3
0.08600	1
0.08967	0
0.09333	1
0.09700	2
0.10067	5
0.10433	7
0.10800	5
0.11167	3
0.11533	2
0.11900	2
0.12267	2
0.12633	1
0.13000	-0
0.13367	0
0.13733	0
0.14100	-3
0.14467	-4
0.14833	-3
0.15200	-3
0.15567	-3
0.15933	-3
0.16300	-5
0.16667	-6
0.17033	-6
0.17400	-6
0.17767	-6
0.18133	-4
0.18500	-4
0.18867	-6
0.19233	-7
0.19600	-6
0.19967	-4
0.20333	-1
0.20700	-0
0.21067	-0
0.21433	-1
0.21800	-2
0.22167	-1
0.22533	-0
0.22900	1
0.23267	1
0.23633	0
0.24000	-2
0.24367	-2
0.24733	-0
0.25100	-0
0.25467	1
0.25833	2
0.26200	1
0.26567	1
0.26933	1
0.27300	1
0.27667	3
0.28033	2
0.28400	1
0.28767	-1
0.29133	-3
0.29500	-4
0.29867	-4
0.30233	-2
0.30600	-0
0.30967	-1
0.31333	-3
0.31700	-3
0.32067	-3
0.32433	-2
0.32800	-1
0.33167	-2
0.33533	-4
0.33900	-7
0.34267	-7
0.34633	-8
0.35000	-6
0.35367	-3
0.35733	-2
0.36100	-2
0.36467	-1
0.36833	-1
0.37200	-1
0.37567	-1
0.37933	-0
0.38300	0
0.38667	2
0.39033	1
0.39400	-0
0.39767	-1
0.40133	-3
0.40500	-6
0.40867	-6
0.41233	-6
0.41600	-7
0.41967	-7
0.42333	-8
0.42700	-8
0.43067	-7
0.43433	-7
0.43800	-7
0.44167	-8
0.44533	-8
0.44900	-7
0.45267	-4
0.45633	-2
0.46000	-1
0.46367	1
0.46733	-0
0.47100	-2
0.47467	-3
0.47833	-4
0.48200	-4
0.48567	-5
0.48933	-3
0.49300	-1
0.49667	-2
0.50033	-6
0.50400	-6
0.50767	-7
0.51133	-9
0.51500	-12
0.51867	-12
0.52233	-10
0.52600	-7
0.52967	-5
0.53333	-4
0.53700	-3
0.54067	-3
0.54433	-2
0.54800	-0
0.55167	-0
0.55533	-1
0.55900	-1
0.56267	-2
0.56633	-2
0.57000	-3
0.57367	-4
0.57733	-4
0.58100	-3
0.58467	-5
0.58833	-5
0.59200	-5
0.59567	-5
0.59933	-4
0.60300	-4
0.60667	-8
0.61033	-8
0.61400	-8
0.61767	-8
0.62133	-9
0.62500	-8
0.62867	-7
0.63233	-7
0.63600	-6
0.63967	-5
0.64333	-5
0.64700	-4
0.65067	-4
0.65433	-6
0.65800	-6
0.66167	-4
0.66533	-4
0.66900	-5
0.67267	-6
0.67633	-5
0.68000	-5
0.68367	-7
0.68733	-8
0.69100	-6
0.69467	-5
0.69833	-4
0.70200	-4
0.70567	-4
0.70933	-6
0.71300	-5
0.71667	-4
0.72033	-6
0.72400	-5
0.72767	-4
0.73133	-6
0.73500	-5
0.73867	-4
0.74233	-3
0.74600	-3
0.74967	-5
0.75333	-6
0.75700	-5
0.76067	-7
0.76433	-9
0.76800	-7
0.77167	-6
0.77533	-6
0.77900	-5
0.78267	-6
0.78633	-8
0.79000	-9
0.79367	-8
0.79733	-7
0.80100	-6
0.80467	-5
0.80833	-4
0.81200	-5
0.81567	-7
0.81933	-9
0.82300	-8
0.82667	-7
0.83033	-6
0.83400	-7
0.83767	-7
0.84133	-8
0.84500	-7
0.84867	-5
0.85233	-4
0.85600	-4
0.85967	-3
0.86333	-3
0.86700	-2
0.87067	-3
0.87433	-5
0.87800	-7
0.88167	-8
0.88533	-7
0.88900	-6
0.89267	-6
0.89633	-8
0.90000	-9
0.90367	-10
0.90733	-9
0.91100	-9
0.91467	-8
0.91833	-8
0.92200	-8
0.92567	-7
0.92933	-5
0.93300	-5
0.93667	-3
0.94033	-1
0.94400	-2
0.94767	-6
0.95133	-9
0.95500	-9
0.95867	-11
0.96233	-10
0.96600	-10
0.96967	-11
0.97333	-11
0.97700	-9
0.98067	-9
0.98433	-9
0.98800	-8
0.99167	-10
0.99533	-11
0.99900	-11
1.00267	-10
1.00633	-10
1.01000	-10
1.01367	-10
1.01733	-8
1.02100	-8
1.02467	-8
1.02833	-8
1.03200	-10
1.03567	-12
1.03933	-11
1.04300	-9
1.04667	-8
1.05033	-7
1.05400	-10
1.05767	-11
1.06133	-11
1.06500	-11
1.06867	-11
1.07233	-11
1.07600	-9
1.07967	-8
1.08333	-8
1.08700	-9
1.09067	-11
1.09433	-12
1.09800	-12
1.10167	-12
1.10533	-12
1.10900	-10
1.11267	-8
1.11633	-6
1.12000	-4
1.12367	-5
1.12733	-7
1.13100	-7
1.13467	-7
1.13833	-7
1.14200	-6
1.14567	-6
1.14933	-6
1.15300	-9
1.15667	-12
1.16033	-12
1.16400	-12
1.16767	-10
1.17133	-10
1.17500	-10
1.17867	-10
1.18233	-10
1.18600	-9
1.18967	-8
1.19333	-8
1.19700	-9
1.20067	-9
1.20433	-10
1.20800	-10
1.21167	-10
1.21533	-12
1.21900	-14
1.22267	-14
1.22633	-13
1.23000	-13
1.23367	-13
1.23733	-12
1.24100	-10
1.24467	-10
1.24833	-11
1.25200	-14
1.25567	-14
1.25933	-14
1.26300	-15
1.26667	-13
1.27033	-12
1.27400	-12
1.27767	-11
1.28133	-11
1.28500	-14
1.28867	-16
1.29233	-14
1.29600	-14
1.29967	-13
1.30333	-15
1.30700	-14
1.31067	-12
1.31433	-12
1.31800	-10
1.32167	-11
1.32533	-13
1.32900	-13
1.33267	-12
1.33633	-10
1.34000	-10
1.34367	-9
1.34733	-9
1.35100	-11
1.35467	-10
1.35833	-10
1.36200	-12
1.36567	-14
1.36933	-16
1.37300	-18
1.37667	-18
1.38033	-18
1.38400	-17
1.38767	-17
1.39133	-17
1.39500	-17
1.39867	-16
1.40233	-17
1.40600	-16
1.40967	-14
1.41333	-13
1.41700	-14
1.42067	-15
1.42433	-17
1.42800	-18
1.43167	-17
1.43533	-14
1.43900	-14
1.44267	-13
1.44633	-15
1.45000	-18
1.45367	-18
1.45733	-17
1.46100	-17
1.46467	-17
1.46833	-16
1.47200	-18
1.47567	-20
1.47933	-20
1.48300	-19
1.48667	-17
1.49033	-14
1.49400	-14
1.49767	-13
1.50133	-12
1.50500	-10
1.50867	-9
1.51233	-10
1.51600	-11
1.51967	-9
1.52333	-10
1.52700	-12
1.53067	-12
1.53433	-13
1.53800	-15
1.54167	-13
1.54533	-12
1.54900	-11
1.55267	-10
1.55633	-10
1.56000	-9
1.56367	-10
1.56733	-9
1.57100	-7
1.57467	-5
1.57833	-6
1.58200	-8
1.58567	-12
1.58933	-14
1.59300	-13
1.59667	-12
1.60033	-10
1.60400	-9
1.60767	-9
1.61133	-10
1.61500	-9
1.61867	-7
1.62233	-7
1.62600	-7
1.62967	-6
1.63333	-6
1.63700	-7
1.64067	-6
1.64433	-5
1.64800	-6
1.65167	-6
1.65533	-4
1.65900	-4
1.66267	-3
1.66633	-3
1.67000	-2
1.67367	-3
1.67733	-3
1.68100	-2
1.68467	-0
1.68833	-0
1.69200	-0
1.69567	-1
1.69933	-1
1.70300	0
1.70667	1
1.71033	2
1.71400	3
1.71767	4
1.72133	3
1.72500	1
1.72867	2
1.73233	3
1.73600	4
1.73967	4
1.74333	5
1.74700	6
1.75067	6
1.75433	6
1.75800	6
1.76167	5
1.76533	6
1.76900	6
1.77267	4
1.77633	1
1.78000	-1
1.78367	-1
1.78733	-1
1.79100	0
1.79467	1
1.79833	0
1.80200	1
1.80567	2
1.80933	0
1.81300	-1
1.81667	2
1.82033	4
1.82400	4
1.82767	2
1.83133	4
1.83500	8
1.83867	10
1.84233	11
1.84600	10
1.84967	9
1.85333	9
1.85700	11
1.86067	11
1.86433	12
1.86800	13
1.87167	11
1.87533	11
1.87900	12
1.88267	13
1.88633	12
1.89000	12
1.89367	13
1.89733	14
1.90100	14
1.90467	15
1.90833	17
1.91200	19
1.91567	21
1.91933	19
1.92300	16
1.92667	14
1.93033	14
1.93400	17
1.93767	18
1.94133	19
1.94500	18
1.94867	19
1.95233	20
1.95600	20
1.95967	20
1.96333	22
1.96700	24
1.97067	27
1.97433	27
1.97800	26
1.98167	26
1.98533	24
1.98900	23
1.99267	25
1.99633	26
2.00000	29
2.00367	33
2.00733	34
2.01100	35
2.01467	35
2.01833	35
2.02200	35
2.02567	37
2.02933	38
2.03300	38
2.03667	39
2.04033	40
2.04400	41
2.04767	41
2.05133	40
2.05500	38
2.05867	39
2.06233	41
2.06600	42
2.06967	43
2.07333	44
2.07700	46
2.08067	46
2.08433	45
2.08800	45
2.09167	44
2.09533	43
2.09900	45
2.10267	47
2.10633	49
2.11000	50
2.11367	54
2.11733	58
2.12100	61
2.12467	61
2.12833	61
2.13200	63
2.13567	64
2.13933	64
2.14300	63
2.14667	64
2.15033	65
2.15400	65
2.15767	64
2.16133	64
2.16500	64
2.16867	64
2.17233	65
2.17600	67
2.17967	68
2.18333	69
2.18700	72
2.19067	75
2.19433	77
2.19800	76
2.20167	76
2.20533	75
2.20900	77
2.21267	76
2.21633	75
2.22000	74
2.22367	73
2.22733	75
2.23100	79
2.23467	82
2.23833	84
2.24200	85
2.24567	84
2.24933	84
2.25300	85
2.25667	85
2.26033	88
2.26400	92
2.26767	94
2.27133	95
2.27500	96
2.27867	96
2.28233	96
2.28600	98
2.28967	99
2.29333	98
2.29700	99
2.30067	97
2.30433	97
2.30800	96
2.31167	96
2.31533	97
2.31900	98
2.32267	99
2.32633	101
2.33000	106
2.33367	110
2.33733	113
2.34100	114
2.34467	114
2.34833	116
2.35200	119
2.35567	119
2.35933	118
2.36300	117
2.36667	116
2.37033	115
2.37400	114
2.37767	114
2.38133	114
2.38500	114
2.38867	115
2.39233	119
2.39600	123
2.39967	126
2.40333	128
2.40700	129
2.41067	132
2.41433	133
2.41800	135
2.42167	138
2.42533	139
2.42900	139
2.43267	136
2.43633	136
2.44000	140
2.44367	178
2.44733	270
2.45100	372
2.45467	449
2.45833	472
2.46200	457
2.46567	437
2.46933	418
2.47300	397
2.47667	375
2.48033	353
2.48400	341
2.48767	351
2.49133	382
2.49500	425
2.49867	470
2.50233	513
2.50600	545
2.50967	564
2.51333	569
2.51700	564
2.52067	562
2.52433	563
2.52800	568
2.53167	578
2.53533	592
2.53900	608
2.54267	625
2.54633	642
2.55000	658
2.55367	675
2.55733	695
2.56100	716
2.56467	736
2.56833	751
2.57200	759
2.57567	760
2.57933	756
2.58300	743
2.58667	724
2.59033	704
2.59400	685
2.59767	665
2.60133	646
2.60500	622
2.60867	596
2.61233	568
2.61600	539
2.61967	508
2.62333	478
2.62700	450
2.63067	423
2.63433	397
2.63800	376
2.64167	359
2.64533	351
2.64900	347
2.65267	349
2.65633	352
2.66000	355
2.66367	362
2.66733	369
2.67100	380
2.67467	391
2.67833	400
2.68200	411
2.68567	424
2.68933	438
2.69300	453
2.69667	467
2.70033	482
2.70400	496
2.70767	506
2.71133	518
2.71500	528
2.71867	536
2.72233	542
2.72600	544
2.72967	546
2.73333	545
2.73700	541
2.74067	539
2.74433	533
2.74800	527
2.75167	523
2.75533	520
2.75900	515
2.76267	509
2.76633	502
2.77000	495
2.77367	489
2.77733	485
2.78100	481
2.78467	476
2.78833	473
2.79200	471
2.79567	470
2.79933	470
2.80300	468
2.80667	468
2.81033	470
2.81400	470
2.81767	469
2.82133	470
2.82500	478
2.82867	496
2.83233	536
2.83600	618
2.83967	761
2.84333	994
2.84700	1337
2.85067	1788
2.85433	2341
2.85800	2965
2.86167	3614
2.86533	4239
2.86900	4788
2.87267	5222
2.87633	5508
2.88000	5639
2.88367	5622
2.88733	5476
2.89100	5228
2.89467	4910
2.89833	4551
2.90200	4171
2.90567	3793
2.90933	3429
2.91300	3087
2.91667	2772
2.92033	2487
2.92400	2230
2.92767	2000
2.93133	1798
2.93500	1623
2.93867	1469
2.94233	1337
2.94600	1223
2.94967	1124
2.95333	1037
2.95700	960
2.96067	894
2.96433	837
2.96800	789
2.97167	748
2.97533	714
2.97900	686
2.98267	661
2.98633	639
2.99000	621
2.99367	604
2.99733	590
3.00100	580
3.00467	570
3.00833	562
3.01200	555
3.01567	547
3.01933	543
3.02300	540
3.02667	537
3.03033	536
3.03400	533
3.03767	527
3.04133	524
3.04500	524
3.04867	524
3.05233	524
3.05600	525
3.05967	525
3.06333	523
3.06700	524
3.07067	524
3.07433	524
3.07800	523
3.08167	522
3.08533	520
3.08900	516
3.09267	509
3.09633	503
3.10000	499
3.10367	499
3.10733	498
3.11100	494
3.11467	491
3.11833	489
3.12200	486
3.12567	482
3.12933	475
3.13300	472
3.13667	469
3.14033	465
3.14400	460
3.14767	456
3.15133	449
3.15500	444
3.15867	444
3.16233	446
3.16600	443
3.16967	440
3.17333	436
3.17700	435
3.18067	430
3.18433	423
3.18800	419
3.19167	416
3.19533	413
3.19900	411
3.20267	407
3.20633	404
3.21000	399
3.21367	397
3.21733	395
3.22100	396
3.22467	396
3.22833	394
3.23200	393
3.23567	392
3.23933	390
3.24300	387
3.24667	384
3.25033	381
3.25400	380
3.25767	377
3.26133	374
3.26500	372
3.26867	371
3.27233	369
3.27600	365
3.27967	365
3.28333	365
3.28700	366
3.29067	364
3.29433	358
3.29800	352
3.30167	350
3.30533	349
3.30900	346
3.31267	341
3.31633	334
3.32000	329
3.32367	326
3.32733	325
3.33100	323
3.33467	321
3.33833	318
3.34200	317
3.34567	314
3.34933	311
3.35300	309
3.35667	305
3.36033	302
3.36400	300
3.36767	299
3.37133	297
3.37500	296
3.37867	295
3.38233	292
3.38600	287
3.38967	284
3.39333	283
3.39700	281
3.40067	279
3.40433	279
3.40800	279
3.41167	278
3.41533	278
3.41900	276
3.42267	275
3.42633	272
3.43000	270
3.43367	268
3.43733	265
3.44100	261
3.44467	260
3.44833	259
3.45200	258
3.45567	260
3.45933	261
3.46300	260
3.46667	260
3.47033	259
3.47400	258
3.47767	255
3.48133	253
3.48500	250
3.48867	249
3.49233	247
3.49600	247
3.49967	246
3.50333	247
3.50700	246
3.51067	243
3.51433	240
3.51800	239
3.52167	241
3.52533	240
3.52900	238
3.53267	238
3.53633	238
3.54000	239
3.54367	237
3.54733	236
3.55100	236
3.55467	233
3.55833	228
3.56200	225
3.56567	223
3.56933	222
3.57300	222
3.57667	224
3.58033	225
3.58400	224
3.58767	223
3.59133	221
3.59500	220
3.59867	219
3.60233	218
3.60600	218
3.60967	219
3.61333	219
3.61700	221
3.62067	223
3.62433	223
3.62800	221
3.63167	220
3.63533	220
3.63900	219
3.64267	218
3.64633	219
3.65000	219
3.65367	218
3.65733	217
3.66100	216
3.66467	214
3.66833	212
3.67200	211
3.67567	211
3.67933	211
3.68300	212
3.68667	211
3.69033	208
3.69400	206
3.69767	205
3.70133	206
3.70500	208
3.70867	207
3.71233	206
3.71600	206
3.71967	204
3.72333	205
3.72700	205
3.73067	203
3.73433	201
3.73800	201
3.74167	203
3.74533	204
3.74900	205
3.75267	206
3.75633	207
3.76000	206
3.76367	204
3.76733	201
3.77100	197
3.77467	195
3.77833	195
3.78200	197
3.78567	198
3.78933	196
3.79300	195
3.79667	194
3.80033	193
3.80400	194
3.80767	194
3.81133	193
3.81500	194
3.81867	198
3.82233	200
3.82600	198
3.82967	196
3.83333	195
3.83700	195
3.84067	197
3.84433	199
3.84800	200
3.85167	199
3.85533	196
3.85900	192
3.86267	188
3.86633	187
3.87000	187
3.87367	187
3.87733	187
3.88100	187
3.88467	187
3.88833	189
3.89200	189
3.89567	189
3.89933	189
3.90300	190
3.90667	190
3.91033	190
3.91400	190
3.91767	192
3.92133	193
3.92500	193
3.92867	191
3.93233	188
3.93600	186
3.93967	184
3.94333	184
3.94700	184
3.95067	184
3.95433	184
3.95800	185
3.96167	185
3.96533	184
3.96900	183
3.97267	183
3.97633	183
3.98000	183
3.98367	183
3.98733	184
3.99100	184
3.99467	184
3.99833	181

[Status Trace (Column Oven Temperature)]
Interval(msec)	1000
# of Points	240
Start Time(min)	0.003
End Time(min)	3.987
Intensity Units	
Intensity Multiplier	1
R.Time (min)	Intensity
0.00320	35.05
0.01987	35.04
0.03653	35.04
0.05320	35.05
0.06987	35.05
0.08653	35.05
0.10320	35.05
0.11987	35.03
0.13653	35.02
0.15320	35.00
0.16987	34.99
0.18653	34.99
0.20320	34.98
0.21987	34.98
0.23653	34.99
0.25320	35.00
0.26987	35.00
0.28653	34.99
0.30320	34.99
0.31987	35.00
0.33653	34.99
0.35320	34.99
0.36987	34.98
0.38653	34.98
0.40320	34.98
0.41987	34.98
0.43653	34.99
0.45320	34.99
0.46987	34.98
0.48653	34.99
0.50320	35.00
0.51987	35.00
0.53653	35.01
0.55320	35.01
0.56987	35.01
0.58653	35.00
0.60320	35.00
0.61987	34.99
0.63653	34.98
0.65320	34.99
0.66987	34.98
0.68653	34.99
0.70320	35.00
0.71987	35.01
0.73653	35.02
0.75320	35.01
0.76987	35.01
0.78653	35.00
0.80320	34.99
0.81987	34.99
0.83653	34.99
0.85320	34.99
0.86987	34.99
0.88653	34.98
0.90320	34.99
0.91987	34.98
0.93653	34.99
0.95320	34.99
0.96987	35.00
0.98653	35.00
1.00320	35.01
1.01987	35.00
1.03653	34.99
1.05320	34.98
1.06987	34.99
1.08653	34.98
1.10320	34.99
1.11987	35.00
1.13653	35.00
1.15320	35.00
1.16987	35.00
1.18653	34.99
1.20320	35.00
1.21987	35.00
1.23653	34.99
1.25320	34.98
1.26987	34.99
1.28653	34.99
1.30320	35.00
1.31987	35.00
1.33653	35.00
1.35320	35.00
1.36987	35.00
1.38653	35.01
1.40320	35.01
1.41987	35.00
1.43653	35.00
1.45320	34.99
1.46987	34.99
1.48653	34.99
1.50320	34.99
1.51987	34.98
1.53653	34.99
1.55320	34.99
1.56987	35.00
1.58653	35.01
1.60320	35.05
1.61987	35.16
1.63653	35.33
1.65320	35.55
1.66987	35.86
1.68653	36.23
1.70320	36.58
1.71987	36.93
1.73653	37.26
1.75320	37.57
1.76987	37.91
1.78653	38.23
1.80320	38.57
1.81987	38.91
1.83653	39.24
1.85320	39.57
1.86987	39.92
1.88653	40.25
1.90320	40.55
1.91987	40.87
1.93653	41.19
1.95320	41.51
1.96987	41.82
1.98653	42.15
2.00320	42.47
2.01987	42.82
2.03653	43.14
2.05320	43.47
2.06987	43.78
2.08653	44.11
2.10320	44.42
2.11987	44.77
2.13653	45.08
2.15320	45.40
2.16987	45.73
2.18653	46.05
2.20320	46.44
2.21987	46.73
2.23653	47.08
2.25320	47.39
2.26987	47.72
2.28653	48.07
2.30320	48.41
2.31987	48.71
2.33653	49.07
2.35320	49.40
2.36987	49.59
2.38653	49.66
2.40320	49.65
2.41987	49.66
2.43653	49.67
2.45320	49.68
2.46987	49.68
2.48653	49.70
2.50320	49.71
2.51987	49.71
2.53653	49.73
2.55320	49.75
2.56987	49.77
2.58653	49.79
2.60320	49.80
2.61987	49.81
2.63653	49.83
2.65320	49.84
2.66987	49.85
2.68653	49.85
2.70320	49.84
2.71987	49.85
2.73653	49.88
2.75320	49.87
2.76987	49.86
2.78653	49.85
2.80320	49.84
2.81987	49.86
2.83653	49.87
2.85320	49.89
2.86987	49.90
2.88653	49.90
2.90320	49.90
2.91987	49.91
2.93653	49.92
2.95320	49.93
2.96987	49.94
2.98653	49.96
3.00320	49.98
3.01987	50.00
3.03653	49.99
3.05320	50.00
3.06987	50.01
3.08653	50.02
3.10320	50.02
3.11987	50.03
3.13653	50.03
3.15320	50.04
3.16987	50.04
3.18653	50.05
3.20320	50.07
3.21987	50.08
3.23653	50.09
3.25320	50.10
3.26987	50.10
3.28653	50.10
3.30320	50.10
3.31987	50.08
3.33653	50.08
3.35320	50.07
3.36987	50.06
3.38653	50.05
3.40320	50.05
3.41987	50.05
3.43653	50.05
3.45320	50.04
3.46987	50.04
3.48653	50.03
3.50320	50.03
3.51987	50.04
3.53653	50.04
3.55320	50.05
3.56987	50.05
3.58653	50.05
3.60320	50.06
3.61987	50.05
3.63653	50.05
3.65320	50.05
3.66987	50.06
3.68653	50.06
3.70320	50.06
3.71987	50.07
3.73653	50.07
3.75320	50.08
3.76987	50.09
3.78653	50.09
3.80320	50.11
3.81987	50.11
3.83653	50.10
3.85320	50.10
3.86987	50.08
3.88653	50.07
3.90320	50.05
3.91987	50.04
3.93653	50.03
3.95320	50.02
3.96987	50.01
3.98653	50.00

[Status Trace (Injection Unit Temperature)]
Interval(msec)	1000
# of Points	240
Start Time(min)	0.003
End Time(min)	3.987
Intensity Units	
Intensity Multiplier	1
R.Time (min)	Intensity
0.00320	99.99
0.01987	99.99
0.03653	99.99
0.05320	99.99
0.06987	99.99
0.08653	99.99
0.10320	99.99
0.11987	99.99
0.13653	99.99
0.15320	99.99
0.16987	99.99
0.18653	99.99
0.20320	99.99
0.21987	99.99
0.23653	99.99
0.25320	99.99
0.26987	99.99
0.28653	99.99
0.30320	99.99
0.31987	99.99
0.33653	99.99
0.35320	99.99
0.36987	99.99
0.38653	99.99
0.40320	99.99
0.41987	99.99
0.43653	99.99
0.45320	99.99
0.46987	99.99
0.48653	99.99
0.50320	99.99
0.51987	99.99
0.53653	99.99
0.55320	99.99
0.56987	99.99
0.58653	99.99
0.60320	99.99
0.61987	99.99
0.63653	99.99
0.65320	99.99
0.66987	99.99
0.68653	99.99
0.70320	99.99
0.71987	99.99
0.73653	99.99
0.75320	99.99
0.76987	99.99
0.78653	99.99
0.80320	99.99
0.81987	99.98
0.83653	99.99
0.85320	99.99
0.86987	99.99
0.88653	99.99
0.90320	99.99
0.91987	99.99
0.93653	99.99
0.95320	99.99
0.96987	99.99
0.98653	99.99
1.00320	99.99
1.01987	99.99
1.03653	99.99
1.05320	99.99
1.06987	99.99
1.08653	99.99
1.10320	99.99
1.11987	99.99
1.13653	99.99
1.15320	99.99
1.16987	99.99
1.18653	99.99
1.20320	99.99
1.21987	99.99
1.23653	99.99
1.25320	99.99
1.26987	99.99
1.28653	99.99
1.30320	99.99
1.31987	99.99
1.33653	99.99
1.35320	99.99
1.36987	99.99
1.38653	99.99
1.40320	99.99
1.41987	99.99
1.43653	99.99
1.45320	99.99
1.46987	99.99
1.48653	99.99
1.50320	99.98
1.51987	99.99
1.53653	99.99
1.55320	99.99
1.56987	99.99
1.58653	99.99
1.60320	99.99
1.61987	99.99
1.63653	99.99
1.65320	99.99
1.66987	99.99
1.68653	99.99
1.70320	99.99
1.71987	99.99
1.73653	99.99
1.75320	99.99
1.76987	99.99
1.78653	99.99
1.80320	99.99
1.81987	99.99
1.83653	99.99
1.85320	99.99
1.86987	99.98
1.88653	99.99
1.90320	99.99
1.91987	99.99
1.93653	99.98
1.95320	99.99
1.96987	99.98
1.98653	99.98
2.00320	99.98
2.01987	99.98
2.03653	99.98
2.05320	99.98
2.06987	99.98
2.08653	99.98
2.10320	99.98
2.11987	99.98
2.13653	99.98
2.15320	99.98
2.16987	99.97
2.18653	99.97
2.20320	99.97
2.21987	99.97
2.23653	99.97
2.25320	99.97
2.26987	99.97
2.28653	99.97
2.30320	99.97
2.31987	99.97
2.33653	99.97
2.35320	99.97
2.36987	99.97
2.38653	99.97
2.40320	99.97
2.41987	99.97
2.43653	99.97
2.45320	99.97
2.46987	99.97
2.48653	99.97
2.50320	99.97
2.51987	99.98
2.53653	99.97
2.55320	99.98
2.56987	99.98
2.58653	99.98
2.60320	99.98
2.61987	99.98
2.63653	99.98
2.65320	99.99
2.66987	99.99
2.68653	99.99
2.70320	99.99
2.71987	99.99
2.73653	99.99
2.75320	99.99
2.76987	99.99
2.78653	99.99
2.80320	99.99
2.81987	100.00
2.83653	100.00
2.85320	100.00
2.86987	100.00
2.88653	100.00
2.90320	100.00
2.91987	100.00
2.93653	100.00
2.95320	100.01
2.96987	100.01
2.98653	100.01
3.00320	100.01
3.01987	100.01
3.03653	100.01
3.05320	100.02
3.06987	100.01
3.08653	100.02
3.10320	100.02
3.11987	100.02
3.13653	100.02
3.15320	100.02
3.16987	100.02
3.18653	100.03
3.20320	100.03
3.21987	100.03
3.23653	100.03
3.25320	100.03
3.26987	100.03
3.28653	100.03
3.30320	100.03
3.31987	100.03
3.33653	100.03
3.35320	100.04
3.36987	100.04
3.38653	100.04
3.40320	100.04
3.41987	100.04
3.43653	100.04
3.45320	100.04
3.46987	100.04
3.48653	100.04
3.50320	100.04
3.51987	100.05
3.53653	100.05
3.55320	100.05
3.56987	100.05
3.58653	100.05
3.60320	100.05
3.61987	100.05
3.63653	100.05
3.65320	100.05
3.66987	100.05
3.68653	100.05
3.70320	100.05
3.71987	100.06
3.73653	100.05
3.75320	100.06
3.76987	100.05
3.78653	100.06
3.80320	100.06
3.81987	100.06
3.83653	100.06
3.85320	100.06
3.86987	100.06
3.88653	100.06
3.90320	100.06
3.91987	100.06
3.93653	100.06
3.95320	100.06
3.96987	100.06
3.98653	100.06

[Status Trace (Carrier Gas Pressure)]
Interval(msec)	1000
# of Points	240
Start Time(min)	0.003
End Time(min)	3.987
Intensity Units	
Intensity Multiplier	1
R.Time (min)	Intensity
0.00320	58.00
0.01987	56.07
0.03653	56.35
0.05320	58.60
0.06987	59.87
0.08653	58.33
0.10320	57.97
0.11987	58.01
0.13653	58.01
0.15320	58.01
0.16987	58.00
0.18653	58.00
0.20320	58.00
0.21987	58.00
0.23653	58.00
0.25320	58.00
0.26987	58.00
0.28653	58.00
0.30320	58.00
0.31987	58.00
0.33653	58.00
0.35320	58.00
0.36987	58.00
0.38653	58.00
0.40320	58.00
0.41987	58.00
0.43653	58.00
0.45320	58.00
0.46987	58.00
0.48653	58.00
0.50320	58.00
0.51987	58.00
0.53653	58.00
0.55320	58.00
0.56987	58.00
0.58653	58.00
0.60320	58.00
0.61987	58.00
0.63653	58.00
0.65320	58.00
0.66987	58.00
0.68653	58.00
0.70320	58.00
0.71987	58.00
0.73653	58.00
0.75320	58.00
0.76987	58.00
0.78653	58.00
0.80320	58.00
0.81987	58.00
0.83653	58.00
0.85320	58.00
0.86987	58.00
0.88653	58.00
0.90320	58.00
0.91987	58.00
0.93653	58.00
0.95320	58.00
0.96987	58.00
0.98653	58.00
1.00320	58.00
1.01987	58.00
1.03653	58.00
1.05320	58.00
1.06987	58.00
1.08653	58.00
1.10320	58.00
1.11987	58.00
1.13653	58.00
1.15320	58.00
1.16987	58.00
1.18653	58.00
1.20320	58.00
1.21987	58.00
1.23653	58.00
1.25320	58.00
1.26987	58.00
1.28653	58.00
1.30320	58.00
1.31987	58.00
1.33653	58.00
1.35320	58.00
1.36987	58.00
1.38653	58.00
1.40320	58.00
1.41987	58.00
1.43653	58.00
1.45320	58.00
1.46987	58.00
1.48653	58.00
1.50320	58.00
1.51987	58.00
1.53653	58.00
1.55320	58.00
1.56987	58.00
1.58653	58.00
1.60320	58.00
1.61987	58.00
1.63653	58.00
1.65320	58.00
1.66987	58.01
1.68653	58.01
1.70320	58.00
1.71987	58.00
1.73653	58.00
1.75320	58.00
1.76987	58.00
1.78653	58.00
1.80320	58.00
1.81987	58.00
1.83653	58.00
1.85320	58.00
1.86987	58.00
1.88653	58.00
1.90320	58.00
1.91987	58.00
1.93653	58.00
1.95320	58.00
1.96987	58.00
1.98653	58.00
2.00320	58.00
2.01987	58.00
2.03653	58.00
2.05320	58.00
2.06987	58.00
2.08653	58.00
2.10320	58.00
2.11987	58.00
2.13653	58.00
2.15320	58.00
2.16987	58.00
2.18653	58.00
2.20320	58.00
2.21987	58.00
2.23653	58.00
2.25320	58.00
2.26987	58.00
2.28653	58.00
2.30320	58.00
2.31987	58.00
2.33653	58.00
2.35320	58.00
2.36987	57.99
2.38653	57.99
2.40320	57.99
2.41987	58.00
2.43653	58.00
2.45320	58.00
2.46987	58.00
2.48653	58.00
2.50320	57.96
2.51987	58.00
2.53653	58.00
2.55320	58.00
2.56987	58.00
2.58653	58.00
2.60320	58.00
2.61987	58.00
2.63653	58.00
2.65320	58.00
2.66987	58.00
2.68653	58.00
2.70320	58.00
2.71987	58.00
2.73653	58.00
2.75320	58.00
2.76987	58.00
2.78653	58.00
2.80320	58.00
2.81987	58.00
2.83653	58.00
2.85320	58.00
2.86987	58.00
2.88653	58.00
2.90320	58.00
2.91987	58.00
2.93653	58.00
2.95320	58.00
2.96987	58.00
2.98653	58.00
3.00320	58.00
3.01987	58.00
3.03653	58.00
3.05320	58.00
3.06987	58.00
3.08653	58.00
3.10320	58.00
3.11987	58.00
3.13653	58.00
3.15320	58.00
3.16987	58.00
3.18653	58.00
3.20320	58.00
3.21987	58.00
3.23653	58.00
3.25320	58.00
3.26987	58.00
3.28653	58.00
3.30320	58.00
3.31987	58.00
3.33653	58.00
3.35320	58.00
3.36987	58.00
3.38653	58.00
3.40320	58.00
3.41987	58.00
3.43653	58.00
3.45320	58.00
3.46987	58.00
3.48653	58.00
3.50320	58.00
3.51987	58.00
3.53653	58.00
3.55320	58.00
3.56987	58.00
3.58653	58.00
3.60320	58.00
3.61987	58.00
3.63653	58.00
3.65320	58.00
3.66987	58.00
3.68653	58.00
3.70320	58.00
3.71987	58.00
3.73653	58.00
3.75320	58.00
3.76987	58.00
3.78653	58.00
3.80320	58.00
3.81987	58.00
3.83653	58.00
3.85320	58.00
3.86987	58.00
3.88653	58.00
3.90320	58.00
3.91987	58.00
3.93653	58.00
3.95320	58.00
3.96987	58.00
3.98653	58.00

[Status Trace (Carrier Gas Flow)]
Interval(msec)	1000
# of Points	240
Start Time(min)	0.003
End Time(min)	3.987
Intensity Units	
Intensity Multiplier	1
R.Time (min)	Intensity
0.00320	34.52
0.01987	34.60
0.03653	34.54
0.05320	34.55
0.06987	34.49
0.08653	34.52
0.10320	34.52
0.11987	34.53
0.13653	34.53
0.15320	34.53
0.16987	34.53
0.18653	34.52
0.20320	34.52
0.21987	34.52
0.23653	34.52
0.25320	34.52
0.26987	34.52
0.28653	34.52
0.30320	34.52
0.31987	34.52
0.33653	34.52
0.35320	34.52
0.36987	34.52
0.38653	34.52
0.40320	34.52
0.41987	34.52
0.43653	34.52
0.45320	34.52
0.46987	34.52
0.48653	34.52
0.50320	34.52
0.51987	34.52
0.53653	34.52
0.55320	34.52
0.56987	34.52
0.58653	34.52
0.60320	34.52
0.61987	34.52
0.63653	34.52
0.65320	34.52
0.66987	34.52
0.68653	34.52
0.70320	34.52
0.71987	34.52
0.73653	34.52
0.75320	34.52
0.76987	34.52
0.78653	34.52
0.80320	34.52
0.81987	34.52
0.83653	34.52
0.85320	34.52
0.86987	34.52
0.88653	34.52
0.90320	34.52
0.91987	34.52
0.93653	34.52
0.95320	34.52
0.96987	34.52
0.98653	34.52
1.00320	34.52
1.01987	34.52
1.03653	34.52
1.05320	34.52
1.06987	34.52
1.08653	34.52
1.10320	34.52
1.11987	34.52
1.13653	34.52
1.15320	34.52
1.16987	34.52
1.18653	34.52
1.20320	34.52
1.21987	34.52
1.23653	34.52
1.25320	34.52
1.26987	34.52
1.28653	34.52
1.30320	34.52
1.31987	34.52
1.33653	34.52
1.35320	34.52
1.36987	34.52
1.38653	34.52
1.40320	34.52
1.41987	34.52
1.43653	34.52
1.45320	34.52
1.46987	34.52
1.48653	34.52
1.50320	34.52
1.51987	34.52
1.53653	34.52
1.55320	34.52
1.56987	34.52
1.58653	34.52
1.60320	34.52
1.61987	34.52
1.63653	34.52
1.65320	34.52
1.66987	34.52
1.68653	34.52
1.70320	34.52
1.71987	34.52
1.73653	34.52
1.75320	34.52
1.76987	34.52
1.78653	34.52
1.80320	34.52
1.81987	34.52
1.83653	34.52
1.85320	34.52
1.86987	34.52
1.88653	34.52
1.90320	34.52
1.91987	34.52
1.93653	34.52
1.95320	34.52
1.96987	34.52
1.98653	34.52
2.00320	34.52
2.01987	34.52
2.03653	34.52
2.05320	34.52
2.06987	34.52
2.08653	34.52
2.10320	34.52
2.11987	34.52
2.13653	34.52
2.15320	34.52
2.16987	34.52
2.18653	34.52
2.20320	34.52
2.21987	34.52
2.23653	34.52
2.25320	34.52
2.26987	34.52
2.28653	34.52
2.30320	34.52
2.31987	34.52
2.33653	34.52
2.35320	34.52
2.36987	34.52
2.38653	34.52
2.40320	34.52
2.41987	34.52
2.43653	34.52
2.45320	34.52
2.46987	34.52
2.48653	34.52
2.50320	34.69
2.51987	34.52
2.53653	34.52
2.55320	34.52
2.56987	34.52
2.58653	34.52
2.60320	34.52
2.61987	34.52
2.63653	34.52
2.65320	34.52
2.66987	34.52
2.68653	34.52
2.70320	34.52
2.71987	34.52
2.73653	34.52
2.75320	34.52
2.76987	34.52
2.78653	34.52
2.80320	34.52
2.81987	34.52
2.83653	34.52
2.85320	34.52
2.86987	34.52
2.88653	34.52
2.90320	34.52
2.91987	34.52
2.93653	34.52
2.95320	34.52
2.96987	34.52
2.98653	34.52
3.00320	34.52
3.01987	34.52
3.03653	34.52
3.05320	34.52
3.06987	34.52
3.08653	34.52
3.10320	34.52
3.11987	34.52
3.13653	34.52
3.15320	34.52
3.16987	34.52
3.18653	34.52
3.20320	34.52
3.21987	34.52
3.23653	34.52
3.25320	34.52
3.26987	34.52
3.28653	34.52
3.30320	34.52
3.31987	34.52
3.33653	34.52
3.35320	34.52
3.36987	34.52
3.38653	34.52
3.40320	34.52
3.41987	34.52
3.43653	34.52
3.45320	34.52
3.46987	34.52
3.48653	34.52
3.50320	34.52
3.51987	34.52
3.53653	34.52
3.55320	34.52
3.56987	34.52
3.58653	34.52
3.60320	34.52
3.61987	34.52
3.63653	34.52
3.65320	34.52
3.66987	34.52
3.68653	34.52
3.70320	34.52
3.71987	34.52
3.73653	34.52
3.75320	34.52
3.76987	34.52
3.78653	34.52
3.80320	34.52
3.81987	34.52
3.83653	34.52
3.85320	34.52
3.86987	34.52
3.88653	34.52
3.90320	34.52
3.91987	34.52
3.93653	34.52
3.95320	34.52
3.96987	34.52
3.98653	34.52

[Status Trace (Column Flow)]
Interval(msec)	1000
# of Points	240
Start Time(min)	0.003
End Time(min)	3.987
Intensity Units	
Intensity Multiplier	1
R.Time (min)	Intensity
0.00320	5.54
0.01987	5.32
0.03653	5.35
0.05320	5.61
0.06987	5.76
0.08653	5.58
0.10320	5.54
0.11987	5.54
0.13653	5.55
0.15320	5.55
0.16987	5.55
0.18653	5.55
0.20320	5.55
0.21987	5.55
0.23653	5.55
0.25320	5.54
0.26987	5.54
0.28653	5.54
0.30320	5.54
0.31987	5.54
0.33653	5.54
0.35320	5.54
0.36987	5.54
0.38653	5.54
0.40320	5.55
0.41987	5.55
0.43653	5.55
0.45320	5.54
0.46987	5.55
0.48653	5.54
0.50320	5.54
0.51987	5.54
0.53653	5.54
0.55320	5.54
0.56987	5.54
0.58653	5.54
0.60320	5.54
0.61987	5.55
0.63653	5.55
0.65320	5.54
0.66987	5.55
0.68653	5.54
0.70320	5.54
0.71987	5.54
0.73653	5.54
0.75320	5.54
0.76987	5.54
0.78653	5.54
0.80320	5.54
0.81987	5.54
0.83653	5.54
0.85320	5.54
0.86987	5.54
0.88653	5.54
0.90320	5.54
0.91987	5.55
0.93653	5.55
0.95320	5.54
0.96987	5.54
0.98653	5.54
1.00320	5.54
1.01987	5.54
1.03653	5.54
1.05320	5.55
1.06987	5.54
1.08653	5.55
1.10320	5.54
1.11987	5.54
1.13653	5.54
1.15320	5.54
1.16987	5.54
1.18653	5.54
1.20320	5.54
1.21987	5.54
1.23653	5.54
1.25320	5.55
1.26987	5.54
1.28653	5.54
1.30320	5.54
1.31987	5.54
1.33653	5.54
1.35320	5.54
1.36987	5.54
1.38653	5.54
1.40320	5.54
1.41987	5.54
1.43653	5.54
1.45320	5.54
1.46987	5.55
1.48653	5.54
1.50320	5.55
1.51987	5.55
1.53653	5.55
1.55320	5.54
1.56987	5.54
1.58653	5.54
1.60320	5.54
1.61987	5.54
1.63653	5.54
1.65320	5.53
1.66987	5.52
1.68653	5.51
1.70320	5.49
1.71987	5.48
1.73653	5.47
1.75320	5.46
1.76987	5.45
1.78653	5.44
1.80320	5.43
1.81987	5.42
1.83653	5.41
1.85320	5.40
1.86987	5.39
1.88653	5.38
1.90320	5.37
1.91987	5.36
1.93653	5.35
1.95320	5.34
1.96987	5.33
1.98653	5.33
2.00320	5.32
2.01987	5.31
2.03653	5.30
2.05320	5.29
2.06987	5.28
2.08653	5.27
2.10320	5.26
2.11987	5.25
2.13653	5.24
2.15320	5.23
2.16987	5.22
2.18653	5.21
2.20320	5.20
2.21987	5.19
2.23653	5.18
2.25320	5.17
2.26987	5.16
2.28653	5.15
2.30320	5.14
2.31987	5.14
2.33653	5.13
2.35320	5.12
2.36987	5.11
2.38653	5.11
2.40320	5.11
2.41987	5.11
2.43653	5.11
2.45320	5.11
2.46987	5.11
2.48653	5.11
2.50320	5.10
2.51987	5.11
2.53653	5.11
2.55320	5.11
2.56987	5.11
2.58653	5.11
2.60320	5.10
2.61987	5.10
2.63653	5.10
2.65320	5.10
2.66987	5.10
2.68653	5.10
2.70320	5.10
2.71987	5.10
2.73653	5.10
2.75320	5.10
2.76987	5.10
2.78653	5.10
2.80320	5.10
2.81987	5.10
2.83653	5.10
2.85320	5.10
2.86987	5.10
2.88653	5.10
2.90320	5.10
2.91987	5.10
2.93653	5.10
2.95320	5.10
2.96987	5.10
2.98653	5.10
3.00320	5.10
3.01987	5.10
3.03653	5.10
3.05320	5.10
3.06987	5.10
3.08653	5.10
3.10320	5.10
3.11987	5.10
3.13653	5.10
3.15320	5.10
3.16987	5.10
3.18653	5.10
3.20320	5.10
3.21987	5.10
3.23653	5.10
3.25320	5.10
3.26987	5.10
3.28653	5.10
3.30320	5.10
3.31987	5.10
3.33653	5.10
3.35320	5.10
3.36987	5.10
3.38653	5.10
3.40320	5.10
3.41987	5.10
3.43653	5.10
3.45320	5.10
3.46987	5.10
3.48653	5.10
3.50320	5.10
3.51987	5.10
3.53653	5.10
3.55320	5.10
3.56987	5.10
3.58653	5.10
3.60320	5.10
3.61987	5.10
3.63653	5.10
3.65320	5.10
3.66987	5.10
3.68653	5.10
3.70320	5.10
3.71987	5.10
3.73653	5.10
3.75320	5.10
3.76987	5.10
3.78653	5.10
3.80320	5.10
3.81987	5.10
3.83653	5.10
3.85320	5.10
3.86987	5.10
3.88653	5.10
3.90320	5.10
3.91987	5.10
3.93653	5.10
3.95320	5.10
3.96987	5.10
3.98653	5.10

[Status Trace (Linear Velocity)]
Interval(msec)	1000
# of Points	240
Start Time(min)	0.003
End Time(min)	3.987
Intensity Units	
Intensity Multiplier	1
R.Time (min)	Intensity
0.00320	39.02
0.01987	37.75
0.03653	37.93
0.05320	39.41
0.06987	40.24
0.08653	39.23
0.10320	38.99
0.11987	39.02
0.13653	39.03
0.15320	39.03
0.16987	39.03
0.18653	39.03
0.20320	39.03
0.21987	39.03
0.23653	39.02
0.25320	39.02
0.26987	39.02
0.28653	39.02
0.30320	39.02
0.31987	39.02
0.33653	39.02
0.35320	39.02
0.36987	39.02
0.38653	39.02
0.40320	39.02
0.41987	39.03
0.43653	39.02
0.45320	39.02
0.46987	39.02
0.48653	39.02
0.50320	39.02
0.51987	39.02
0.53653	39.02
0.55320	39.02
0.56987	39.02
0.58653	39.02
0.60320	39.02
0.61987	39.02
0.63653	39.02
0.65320	39.02
0.66987	39.02
0.68653	39.02
0.70320	39.02
0.71987	39.02
0.73653	39.02
0.75320	39.02
0.76987	39.02
0.78653	39.02
0.80320	39.02
0.81987	39.02
0.83653	39.02
0.85320	39.02
0.86987	39.02
0.88653	39.02
0.90320	39.02
0.91987	39.02
0.93653	39.02
0.95320	39.02
0.96987	39.02
0.98653	39.02
1.00320	39.02
1.01987	39.02
1.03653	39.02
1.05320	39.02
1.06987	39.02
1.08653	39.02
1.10320	39.02
1.11987	39.02
1.13653	39.02
1.15320	39.02
1.16987	39.02
1.18653	39.02
1.20320	39.02
1.21987	39.02
1.23653	39.02
1.25320	39.02
1.26987	39.02
1.28653	39.02
1.30320	39.02
1.31987	39.02
1.33653	39.02
1.35320	39.02
1.36987	39.02
1.38653	39.02
1.40320	39.02
1.41987	39.02
1.43653	39.02
1.45320	39.02
1.46987	39.02
1.48653	39.02
1.50320	39.02
1.51987	39.02
1.53653	39.02
1.55320	39.02
1.56987	39.02
1.58653	39.02
1.60320	39.02
1.61987	39.01
1.63653	39.00
1.65320	38.97
1.66987	38.94
1.68653	38.91
1.70320	38.87
1.71987	38.84
1.73653	38.81
1.75320	38.78
1.76987	38.74
1.78653	38.72
1.80320	38.68
1.81987	38.65
1.83653	38.62
1.85320	38.59
1.86987	38.56
1.88653	38.53
1.90320	38.49
1.91987	38.47
1.93653	38.44
1.95320	38.41
1.96987	38.38
1.98653	38.35
2.00320	38.32
2.01987	38.29
2.03653	38.26
2.05320	38.22
2.06987	38.20
2.08653	38.17
2.10320	38.14
2.11987	38.11
2.13653	38.08
2.15320	38.05
2.16987	38.02
2.18653	37.99
2.20320	37.96
2.21987	37.93
2.23653	37.90
2.25320	37.87
2.26987	37.84
2.28653	37.81
2.30320	37.78
2.31987	37.75
2.33653	37.72
2.35320	37.69
2.36987	37.67
2.38653	37.66
2.40320	37.66
2.41987	37.67
2.43653	37.67
2.45320	37.66
2.46987	37.67
2.48653	37.66
2.50320	37.64
2.51987	37.66
2.53653	37.66
2.55320	37.66
2.56987	37.66
2.58653	37.66
2.60320	37.66
2.61987	37.65
2.63653	37.65
2.65320	37.65
2.66987	37.65
2.68653	37.65
2.70320	37.65
2.71987	37.65
2.73653	37.65
2.75320	37.65
2.76987	37.65
2.78653	37.65
2.80320	37.65
2.81987	37.65
2.83653	37.65
2.85320	37.65
2.86987	37.65
2.88653	37.65
2.90320	37.65
2.91987	37.65
2.93653	37.64
2.95320	37.64
2.96987	37.64
2.98653	37.64
3.00320	37.64
3.01987	37.64
3.03653	37.64
3.05320	37.64
3.06987	37.64
3.08653	37.64
3.10320	37.64
3.11987	37.64
3.13653	37.63
3.15320	37.63
3.16987	37.63
3.18653	37.63
3.20320	37.63
3.21987	37.63
3.23653	37.63
3.25320	37.63
3.26987	37.63
3.28653	37.63
3.30320	37.63
3.31987	37.63
3.33653	37.63
3.35320	37.63
3.36987	37.63
3.38653	37.63
3.40320	37.63
3.41987	37.63
3.43653	37.63
3.45320	37.63
3.46987	37.63
3.48653	37.63
3.50320	37.63
3.51987	37.63
3.53653	37.63
3.55320	37.63
3.56987	37.63
3.58653	37.63
3.60320	37.63
3.61987	37.63
3.63653	37.63
3.65320	37.63
3.66987	37.63
3.68653	37.63
3.70320	37.63
3.71987	37.63
3.73653	37.63
3.75320	37.63
3.76987	37.63
3.78653	37.63
3.80320	37.63
3.81987	37.63
3.83653	37.63
3.85320	37.63
3.86987	37.63
3.88653	37.63
3.90320	37.63
3.91987	37.63
3.93653	37.63
3.95320	37.64
3.96987	37.64
3.98653	37.64

