[Header]
Application Name	LabSolutions
Version	5.110
Data File Name	C:\Users\User\Desktop\GC Analyses\Jack\UIC Prairie Sampling\10.19.22\221019_010.gcd
Output Date	1/4/2023
Output Time	2:27:28 PM

[File Information]
Type	Data File
Generated	12/5/2022 1:43:18 PM
Generated by	System Administrator
Modified	12/5/2022 1:48:26 PM
Modified by	System Administrator

[Sample Information]
Operator Name	System Administrator
Acquired	12/5/2022 1:44:25 PM
Sample Type	1:Standard
Level	1
Sample Name	221019_UICPrairie
Sample ID	221019_UICPrairie
ISTD Amount1	1
ISTD Amount2	1
ISTD Amount3	1
ISTD Amount4	1
ISTD Amount5	1
ISTD Amount6	1
ISTD Amount7	1
ISTD Amount8	1
ISTD Amount9	1
ISTD Amount10	1
ISTD Amount11	1
ISTD Amount12	1
ISTD Amount13	1
ISTD Amount14	1
ISTD Amount15	1
ISTD Amount16	1
ISTD Amount17	1
ISTD Amount18	1
ISTD Amount19	1
ISTD Amount20	1
ISTD Amount21	1
ISTD Amount22	1
ISTD Amount23	1
ISTD Amount24	1
ISTD Amount25	1
ISTD Amount26	1
ISTD Amount27	1
ISTD Amount28	1
ISTD Amount29	1
ISTD Amount30	1
ISTD Amount31	1
ISTD Amount32	1
Sample Amount	1
Dilution Factor	1
Vial#	1
Injection Volume	1
Injection Count	1
Bar Code	

[Original Files]
Data File	C:\Users\User\Desktop\GC Analyses\Jack\UIC Prairie Sampling\10.19.22\221019_010.gcd
Method File	C:\LabSolutions\Data\GHG_4min_2022\ghg3_togas_w_acet_4 min_new_int.gcm
Batch File	
Report Format File	c:\LabSolutions\System\DEFAULT.lsr

[File Description]


[Configuration]
Instrument Name	C0B7VH3-Instrument1
Instrument #	1
Line #	1
# of Detectors	3
Detector ID	DET#1	DET#2	DET#3
Detector Name	FID	PTCD	ECD
# of Channels	1	1	1

[Peak Table(Ch1)]
# of Peaks	3
Peak#	R.Time	I.Time	F.Time	Area	Height	A/H	Conc.	Mark	ID#	Name	k'	Plate #	Plate Ht.	Tailing	Resolution	Sep.Factor	Area Ratio	Height Ratio	Conc. %	Norm Conc.
1	1.479	1.439	1.538	10480	4574	2.291	100.000	   	1	CO	0.000	8149	18.407	1.286	0.000	0.000	0	0	16.667	16.667
2	1.571	1.538	1.648	4828	2321	2.080	100.000	 V 	2	CH4	0.062	10729	13.980	0.000	1.453	0.000	0	0	16.667	16.667
3	2.000	1.956	2.396	1292758	613586	2.107	400.000	   	3	CO2	0.352	17514	8.565	1.320	7.084	5.680	0	0	66.667	66.667

[Peak Table(Ch2)]
# of Peaks	0

[Peak Table(Ch3)]
# of Peaks	4
Peak#	R.Time	I.Time	F.Time	Area	Height	A/H	Conc.	Mark	ID#	Name	k'	Plate #	Plate Ht.	Tailing	Resolution	Sep.Factor	Area Ratio	Height Ratio	Conc. %	Norm Conc.
1	2.506	2.396	2.521	1299	357	3.644	0.000	   			0.000	1049	143.044	0.000	0.000	0.000	0	0	0.000	0.000
2	2.572	2.521	2.667	2778	447	6.211	0.000	 V 			0.026	1672	89.688	0.000	0.235	0.000	0	0	0.000	0.000
3	2.748	2.667	2.825	1745	225	7.744	0.071	 V 	1	N2O	0.097	828	181.161	0.000	0.556	3.667	0	0	7.127	7.127
4	2.891	2.825	3.261	22732	5349	4.249	0.929	 V 	1	N2O	0.154	12891	11.636	1.730	0.591	1.591	0	0	92.873	92.873

[Compound Results(Ch1)]
# of IDs	6
ID#	Name	R.Time	Area	Height	Conc.	Curve	3rd	2nd	1st	Constant	Area Ratio	Height Ratio	Conc. %	Norm Conc.
1	CO	1.479	10480	4574	100.000	Linear	0.000000e+00	0.000000e+00	1.047994e+002	0.000000e+00	0	0	16.667	16.667
2	CH4	1.571	4828	2321	100.000	Linear	0.000000e+00	0.000000e+00	4.827577e+001	0.000000e+00	0	0	16.667	16.667
3	CO2	2.000	1292758	613586	400.000	Linear	0.000000e+00	0.000000e+00	3.231895e+003	0.000000e+00	0	0	66.667	66.667
4	Ethylene	0.000	0	0	0.000	Linear	0.000000e+00	0.000000e+00	0.000000e+00	0.000000e+00	0	0	0.000	0.000
5	Acetylene	0.000	0	0	0.000	Linear	0.000000e+00	0.000000e+00	0.000000e+00	0.000000e+00	0	0	0.000	0.000
6	Ethane	0.000	0	0	0.000	Linear	0.000000e+00	0.000000e+00	0.000000e+00	0.000000e+00	0	0	0.000	0.000

[Compound Results(Ch2)]
# of IDs	5
ID#	Name	R.Time	Area	Height	Conc.	Curve	3rd	2nd	1st	Constant	Area Ratio	Height Ratio	Conc. %	Norm Conc.
1	Hydrogen	0.000	0	0	0.000	Linear	0.000000e+00	0.000000e+00	0.000000e+00	0.000000e+00	0	0	0.000	0.000
2	Oxygen	0.000	0	0	0.000	Linear	0.000000e+00	0.000000e+00	0.000000e+00	0.000000e+00	0	0	0.000	0.000
3	Nitrogen	0.000	0	0	0.000	Linear	0.000000e+00	0.000000e+00	0.000000e+00	0.000000e+00	0	0	0.000	0.000
4	Methane	0.000	0	0	0.000	Linear	0.000000e+00	0.000000e+00	0.000000e+00	0.000000e+00	0	0	0.000	0.000
5	Carbon Monoxide	0.000	0	0	0.000	Linear	0.000000e+00	0.000000e+00	0.000000e+00	0.000000e+00	0	0	0.000	0.000

[Compound Results(Ch3)]
# of IDs	2
ID#	Name	R.Time	Area	Height	Conc.	Curve	3rd	2nd	1st	Constant	Area Ratio	Height Ratio	Conc. %	Norm Conc.
1	N2O	2.891	24477	5575	1.000	Linear	0.000000e+00	0.000000e+00	2.447673e+004	0.000000e+00	0	0	100.000	100.000
2	SF6	0.000	0	0	0.000	Linear	0.000000e+00	0.000000e+00	0.000000e+00	0.000000e+00	0	0	0.000	0.000

[Group Results(Ch1)]
# of Groups	0

[Group Results(Ch2)]
# of Groups	0

[Group Results(Ch3)]
# of Groups	0

[Chromatogram (Ch1)]
Interval(msec)	220
# of Points	1091
Start Time(min)	0.002
End Time(min)	3.998
R.Time (min)	Intensity
0.00167	-9
0.00533	-11
0.00900	-12
0.01267	-13
0.01633	-11
0.02000	-6
0.02367	0
0.02733	9
0.03100	18
0.03467	22
0.03833	19
0.04200	10
0.04567	-1
0.04933	-9
0.05300	-11
0.05667	-8
0.06033	-7
0.06400	-6
0.06767	-1
0.07133	4
0.07500	6
0.07867	8
0.08233	8
0.08600	9
0.08967	12
0.09333	13
0.09700	11
0.10067	8
0.10433	5
0.10800	5
0.11167	6
0.11533	6
0.11900	2
0.12267	-6
0.12633	-13
0.13000	-15
0.13367	-10
0.13733	-7
0.14100	-11
0.14467	-19
0.14833	-26
0.15200	-30
0.15567	-33
0.15933	-34
0.16300	-32
0.16667	-27
0.17033	-21
0.17400	-16
0.17767	-12
0.18133	-10
0.18500	-9
0.18867	-8
0.19233	-11
0.19600	-15
0.19967	-19
0.20333	-24
0.20700	-29
0.21067	-34
0.21433	-38
0.21800	-38
0.22167	-37
0.22533	-32
0.22900	-26
0.23267	-22
0.23633	-21
0.24000	-20
0.24367	-19
0.24733	-21
0.25100	-22
0.25467	-22
0.25833	-19
0.26200	-16
0.26567	-16
0.26933	-17
0.27300	-20
0.27667	-24
0.28033	-29
0.28400	-32
0.28767	-30
0.29133	-25
0.29500	-23
0.29867	-22
0.30233	-20
0.30600	-16
0.30967	-12
0.31333	-10
0.31700	-12
0.32067	-20
0.32433	-30
0.32800	-42
0.33167	-51
0.33533	-54
0.33900	-53
0.34267	-51
0.34633	-51
0.35000	-49
0.35367	-44
0.35733	-38
0.36100	-34
0.36467	-36
0.36833	-39
0.37200	-40
0.37567	-39
0.37933	-37
0.38300	-37
0.38667	-43
0.39033	-47
0.39400	-49
0.39767	-47
0.40133	-42
0.40500	-36
0.40867	-31
0.41233	-30
0.41600	-30
0.41967	-31
0.42333	-38
0.42700	-45
0.43067	-52
0.43433	-57
0.43800	-60
0.44167	-62
0.44533	-62
0.44900	-60
0.45267	-56
0.45633	-56
0.46000	-57
0.46367	-55
0.46733	-48
0.47100	-42
0.47467	-40
0.47833	-41
0.48200	-43
0.48567	-44
0.48933	-48
0.49300	-54
0.49667	-58
0.50033	-56
0.50400	-53
0.50767	-51
0.51133	-52
0.51500	-55
0.51867	-57
0.52233	-57
0.52600	-54
0.52967	-50
0.53333	-47
0.53700	-43
0.54067	-38
0.54433	-37
0.54800	-39
0.55167	-43
0.55533	-47
0.55900	-50
0.56267	-53
0.56633	-58
0.57000	-63
0.57367	-66
0.57733	-69
0.58100	-71
0.58467	-70
0.58833	-69
0.59200	-68
0.59567	-67
0.59933	-66
0.60300	-64
0.60667	-64
0.61033	-62
0.61400	-60
0.61767	-59
0.62133	-58
0.62500	-56
0.62867	-53
0.63233	-50
0.63600	-46
0.63967	-42
0.64333	-44
0.64700	-47
0.65067	-48
0.65433	-49
0.65800	-51
0.66167	-51
0.66533	-53
0.66900	-60
0.67267	-66
0.67633	-72
0.68000	-76
0.68367	-78
0.68733	-79
0.69100	-79
0.69467	-77
0.69833	-69
0.70200	-59
0.70567	-51
0.70933	-49
0.71300	-47
0.71667	-45
0.72033	-47
0.72400	-55
0.72767	-66
0.73133	-77
0.73500	-83
0.73867	-81
0.74233	-76
0.74600	-71
0.74967	-71
0.75333	-74
0.75700	-78
0.76067	-77
0.76433	-73
0.76800	-67
0.77167	-62
0.77533	-58
0.77900	-58
0.78267	-63
0.78633	-70
0.79000	-78
0.79367	-83
0.79733	-83
0.80100	-78
0.80467	-71
0.80833	-68
0.81200	-67
0.81567	-64
0.81933	-61
0.82300	-58
0.82667	-58
0.83033	-62
0.83400	-68
0.83767	-74
0.84133	-78
0.84500	-82
0.84867	-84
0.85233	-85
0.85600	-84
0.85967	-82
0.86333	-83
0.86700	-85
0.87067	-88
0.87433	-88
0.87800	-86
0.88167	-81
0.88533	-72
0.88900	-61
0.89267	-55
0.89633	-55
0.90000	-60
0.90367	-68
0.90733	-75
0.91100	-78
0.91467	-76
0.91833	-75
0.92200	-75
0.92567	-80
0.92933	-87
0.93300	-94
0.93667	-97
0.94033	-97
0.94400	-95
0.94767	-92
0.95133	-86
0.95500	-81
0.95867	-78
0.96233	-76
0.96600	-75
0.96967	-74
0.97333	-69
0.97700	-64
0.98067	-64
0.98433	-70
0.98800	-80
0.99167	-89
0.99533	-98
0.99900	-103
1.00267	-105
1.00633	-104
1.01000	-105
1.01367	-105
1.01733	-104
1.02100	-102
1.02467	-104
1.02833	-106
1.03200	-106
1.03567	-100
1.03933	-94
1.04300	-91
1.04667	-92
1.05033	-95
1.05400	-99
1.05767	-100
1.06133	-96
1.06500	-88
1.06867	-79
1.07233	-75
1.07600	-75
1.07967	-76
1.08333	-82
1.08700	-90
1.09067	-100
1.09433	-102
1.09800	-98
1.10167	-93
1.10533	-88
1.10900	-86
1.11267	-90
1.11633	-97
1.12000	-104
1.12367	-109
1.12733	-112
1.13100	-113
1.13467	-114
1.13833	-113
1.14200	-105
1.14567	-102
1.14933	-101
1.15300	-99
1.15667	-96
1.16033	-97
1.16400	-101
1.16767	-105
1.17133	-107
1.17500	-106
1.17867	-102
1.18233	-99
1.18600	-98
1.18967	-98
1.19333	-99
1.19700	-99
1.20067	-96
1.20433	-95
1.20800	-94
1.21167	-93
1.21533	-93
1.21900	-95
1.22267	-96
1.22633	-98
1.23000	-104
1.23367	-110
1.23733	-113
1.24100	-115
1.24467	-115
1.24833	-114
1.25200	-114
1.25567	-112
1.25933	-108
1.26300	-104
1.26667	-101
1.27033	-98
1.27400	-91
1.27767	-85
1.28133	-83
1.28500	-84
1.28867	-84
1.29233	-85
1.29600	-86
1.29967	-86
1.30333	-85
1.30700	-84
1.31067	-86
1.31433	-91
1.31800	-101
1.32167	-114
1.32533	-122
1.32900	-127
1.33267	-130
1.33633	-135
1.34000	-135
1.34367	-129
1.34733	-121
1.35100	-118
1.35467	-117
1.35833	-114
1.36200	-111
1.36567	-108
1.36933	-110
1.37300	-113
1.37667	-114
1.38033	-112
1.38400	-110
1.38767	-107
1.39133	-105
1.39500	-101
1.39867	-96
1.40233	-94
1.40600	-94
1.40967	-98
1.41333	-102
1.41700	-102
1.42067	-101
1.42433	-104
1.42800	-111
1.43167	-118
1.43533	-122
1.43900	-119
1.44267	-85
1.44633	41
1.45000	287
1.45367	646
1.45733	1166
1.46100	1856
1.46467	2612
1.46833	3313
1.47200	3883
1.47567	4277
1.47933	4451
1.48300	4355
1.48667	3983
1.49033	3408
1.49400	2750
1.49767	2116
1.50133	1573
1.50500	1144
1.50867	820
1.51233	581
1.51600	409
1.51967	285
1.52333	196
1.52700	133
1.53067	90
1.53433	60
1.53800	41
1.54167	43
1.54533	105
1.54900	288
1.55267	620
1.55633	1047
1.56000	1472
1.56367	1825
1.56733	2073
1.57100	2191
1.57467	2150
1.57833	1943
1.58200	1613
1.58567	1237
1.58933	882
1.59300	592
1.59667	376
1.60033	224
1.60400	120
1.60767	51
1.61133	1
1.61500	-36
1.61867	-60
1.62233	-75
1.62600	-87
1.62967	-98
1.63333	-107
1.63700	-115
1.64067	-122
1.64433	-130
1.64800	-137
1.65167	-142
1.65533	-143
1.65900	-141
1.66267	-137
1.66633	-132
1.67000	-130
1.67367	-129
1.67733	-128
1.68100	-125
1.68467	-120
1.68833	-118
1.69200	-118
1.69567	-118
1.69933	-121
1.70300	-123
1.70667	-126
1.71033	-129
1.71400	-131
1.71767	-130
1.72133	-127
1.72500	-123
1.72867	-122
1.73233	-125
1.73600	-128
1.73967	-128
1.74333	-126
1.74700	-126
1.75067	-128
1.75433	-133
1.75800	-140
1.76167	-143
1.76533	-143
1.76900	-145
1.77267	-146
1.77633	-144
1.78000	-141
1.78367	-138
1.78733	-138
1.79100	-140
1.79467	-143
1.79833	-144
1.80200	-144
1.80567	-142
1.80933	-140
1.81300	-136
1.81667	-131
1.82033	-125
1.82400	-121
1.82767	-121
1.83133	-126
1.83500	-133
1.83867	-139
1.84233	-138
1.84600	-136
1.84967	-139
1.85333	-140
1.85700	-139
1.86067	-137
1.86433	-135
1.86800	-133
1.87167	-131
1.87533	-130
1.87900	-129
1.88267	-127
1.88633	-123
1.89000	-122
1.89367	-123
1.89733	-122
1.90100	-122
1.90467	-127
1.90833	-136
1.91200	-146
1.91567	-154
1.91933	-157
1.92300	-155
1.92667	-151
1.93033	-146
1.93400	-139
1.93767	-131
1.94133	-125
1.94500	-123
1.94867	-122
1.95233	-121
1.95600	-106
1.95967	-7
1.96333	554
1.96700	3108
1.97067	12011
1.97433	35769
1.97800	85237
1.98167	166417
1.98533	273622
1.98900	390276
1.99267	496218
1.99633	574575
2.00000	613526
2.00367	607700
2.00733	560398
2.01100	483101
2.01467	391822
2.01833	301772
2.02200	223209
2.02567	160459
2.02933	113397
2.03300	79606
2.03667	56038
2.04033	39885
2.04400	28912
2.04767	21469
2.05133	16393
2.05500	12891
2.05867	10434
2.06233	8673
2.06600	7381
2.06967	6409
2.07333	5658
2.07700	5062
2.08067	4578
2.08433	4173
2.08800	3828
2.09167	3534
2.09533	3282
2.09900	3067
2.10267	2884
2.10633	2720
2.11000	2568
2.11367	2429
2.11733	2305
2.12100	2195
2.12467	2093
2.12833	2000
2.13200	1913
2.13567	1830
2.13933	1754
2.14300	1685
2.14667	1620
2.15033	1555
2.15400	1490
2.15767	1431
2.16133	1379
2.16500	1331
2.16867	1286
2.17233	1243
2.17600	1203
2.17967	1165
2.18333	1126
2.18700	1088
2.19067	1056
2.19433	1027
2.19800	1001
2.20167	977
2.20533	955
2.20900	936
2.21267	919
2.21633	901
2.22000	880
2.22367	858
2.22733	835
2.23100	813
2.23467	792
2.23833	773
2.24200	755
2.24567	737
2.24933	718
2.25300	700
2.25667	683
2.26033	664
2.26400	645
2.26767	627
2.27133	614
2.27500	607
2.27867	605
2.28233	604
2.28600	599
2.28967	588
2.29333	575
2.29700	559
2.30067	542
2.30433	526
2.30800	510
2.31167	496
2.31533	483
2.31900	471
2.32267	462
2.32633	455
2.33000	449
2.33367	446
2.33733	440
2.34100	430
2.34467	419
2.34833	409
2.35200	402
2.35567	401
2.35933	404
2.36300	407
2.36667	407
2.37033	404
2.37400	397
2.37767	388
2.38133	381
2.38500	376
2.38867	372
2.39233	364
2.39600	355
2.39967	349
2.40333	349
2.40700	353
2.41067	358
2.41433	358
2.41800	355
2.42167	348
2.42533	338
2.42900	330
2.43267	327
2.43633	325
2.44000	320
2.44367	311
2.44733	298
2.45100	286
2.45467	276
2.45833	270
2.46200	267
2.46567	265
2.46933	263
2.47300	259
2.47667	254
2.48033	252
2.48400	255
2.48767	257
2.49133	258
2.49500	259
2.49867	259
2.50233	255
2.50600	246
2.50967	240
2.51333	240
2.51700	245
2.52067	249
2.52433	249
2.52800	248
2.53167	247
2.53533	246
2.53900	245
2.54267	243
2.54633	240
2.55000	234
2.55367	227
2.55733	220
2.56100	214
2.56467	209
2.56833	203
2.57200	196
2.57567	192
2.57933	189
2.58300	185
2.58667	185
2.59033	188
2.59400	194
2.59767	198
2.60133	197
2.60500	192
2.60867	185
2.61233	181
2.61600	181
2.61967	181
2.62333	180
2.62700	177
2.63067	172
2.63433	168
2.63800	169
2.64167	175
2.64533	179
2.64900	180
2.65267	179
2.65633	179
2.66000	176
2.66367	167
2.66733	156
2.67100	144
2.67467	133
2.67833	122
2.68200	113
2.68567	106
2.68933	103
2.69300	106
2.69667	114
2.70033	127
2.70400	140
2.70767	146
2.71133	140
2.71500	126
2.71867	112
2.72233	104
2.72600	101
2.72967	106
2.73333	114
2.73700	119
2.74067	121
2.74433	122
2.74800	121
2.75167	118
2.75533	113
2.75900	110
2.76267	108
2.76633	106
2.77000	103
2.77367	103
2.77733	103
2.78100	102
2.78467	101
2.78833	97
2.79200	96
2.79567	102
2.79933	108
2.80300	110
2.80667	104
2.81033	95
2.81400	88
2.81767	81
2.82133	74
2.82500	70
2.82867	68
2.83233	71
2.83600	78
2.83967	83
2.84333	86
2.84700	89
2.85067	93
2.85433	98
2.85800	99
2.86167	96
2.86533	92
2.86900	88
2.87267	86
2.87633	89
2.88000	97
2.88367	106
2.88733	109
2.89100	104
2.89467	96
2.89833	89
2.90200	83
2.90567	77
2.90933	69
2.91300	65
2.91667	64
2.92033	64
2.92400	64
2.92767	68
2.93133	75
2.93500	82
2.93867	86
2.94233	87
2.94600	85
2.94967	80
2.95333	74
2.95700	66
2.96067	59
2.96433	55
2.96800	52
2.97167	50
2.97533	50
2.97900	50
2.98267	49
2.98633	48
2.99000	48
2.99367	50
2.99733	54
3.00100	60
3.00467	66
3.00833	70
3.01200	75
3.01567	81
3.01933	82
3.02300	78
3.02667	72
3.03033	66
3.03400	62
3.03767	60
3.04133	57
3.04500	49
3.04867	40
3.05233	37
3.05600	37
3.05967	38
3.06333	44
3.06700	52
3.07067	55
3.07433	51
3.07800	43
3.08167	34
3.08533	29
3.08900	23
3.09267	16
3.09633	11
3.10000	10
3.10367	15
3.10733	25
3.11100	34
3.11467	37
3.11833	34
3.12200	31
3.12567	31
3.12933	33
3.13300	33
3.13667	30
3.14033	25
3.14400	18
3.14767	14
3.15133	11
3.15500	12
3.15867	11
3.16233	9
3.16600	8
3.16967	9
3.17333	14
3.17700	19
3.18067	21
3.18433	23
3.18800	27
3.19167	31
3.19533	37
3.19900	39
3.20267	36
3.20633	28
3.21000	18
3.21367	10
3.21733	5
3.22100	5
3.22467	8
3.22833	14
3.23200	22
3.23567	29
3.23933	35
3.24300	39
3.24667	41
3.25033	40
3.25400	35
3.25767	29
3.26133	26
3.26500	24
3.26867	22
3.27233	16
3.27600	6
3.27967	-4
3.28333	-11
3.28700	-15
3.29067	-16
3.29433	-13
3.29800	-7
3.30167	-0
3.30533	3
3.30900	3
3.31267	0
3.31633	-0
3.32000	-1
3.32367	2
3.32733	7
3.33100	11
3.33467	14
3.33833	14
3.34200	13
3.34567	14
3.34933	16
3.35300	15
3.35667	12
3.36033	7
3.36400	5
3.36767	4
3.37133	4
3.37500	3
3.37867	2
3.38233	-2
3.38600	-6
3.38967	-8
3.39333	-5
3.39700	1
3.40067	5
3.40433	5
3.40800	3
3.41167	2
3.41533	1
3.41900	-2
3.42267	-9
3.42633	-14
3.43000	-13
3.43367	-10
3.43733	-7
3.44100	-6
3.44467	-6
3.44833	-8
3.45200	-13
3.45567	-17
3.45933	-21
3.46300	-22
3.46667	-23
3.47033	-22
3.47400	-20
3.47767	-15
3.48133	-9
3.48500	-3
3.48867	0
3.49233	-2
3.49600	-5
3.49967	-9
3.50333	-13
3.50700	-17
3.51067	-18
3.51433	-17
3.51800	-12
3.52167	-4
3.52533	4
3.52900	6
3.53267	2
3.53633	-4
3.54000	-7
3.54367	-7
3.54733	-3
3.55100	4
3.55467	8
3.55833	6
3.56200	-1
3.56567	-9
3.56933	-15
3.57300	-16
3.57667	-12
3.58033	-9
3.58400	-7
3.58767	-7
3.59133	-9
3.59500	-10
3.59867	-13
3.60233	-14
3.60600	-15
3.60967	-13
3.61333	-17
3.61700	-29
3.62067	-41
3.62433	-48
3.62800	-54
3.63167	-58
3.63533	-58
3.63900	-52
3.64267	-44
3.64633	-35
3.65000	-30
3.65367	-29
3.65733	-30
3.66100	-28
3.66467	-25
3.66833	-24
3.67200	-26
3.67567	-30
3.67933	-34
3.68300	-37
3.68667	-39
3.69033	-38
3.69400	-36
3.69767	-35
3.70133	-33
3.70500	-30
3.70867	-28
3.71233	-23
3.71600	-13
3.71967	-6
3.72333	-4
3.72700	-4
3.73067	-5
3.73433	-6
3.73800	-8
3.74167	-13
3.74533	-18
3.74900	-24
3.75267	-29
3.75633	-32
3.76000	-32
3.76367	-31
3.76733	-32
3.77100	-36
3.77467	-40
3.77833	-43
3.78200	-46
3.78567	-49
3.78933	-52
3.79300	-52
3.79667	-48
3.80033	-44
3.80400	-40
3.80767	-36
3.81133	-30
3.81500	-27
3.81867	-29
3.82233	-33
3.82600	-37
3.82967	-41
3.83333	-42
3.83700	-42
3.84067	-43
3.84433	-43
3.84800	-46
3.85167	-48
3.85533	-45
3.85900	-40
3.86267	-36
3.86633	-33
3.87000	-32
3.87367	-38
3.87733	-45
3.88100	-46
3.88467	-43
3.88833	-41
3.89200	-42
3.89567	-46
3.89933	-52
3.90300	-54
3.90667	-51
3.91033	-44
3.91400	-37
3.91767	-28
3.92133	-20
3.92500	-23
3.92867	-34
3.93233	-44
3.93600	-48
3.93967	-48
3.94333	-44
3.94700	-39
3.95067	-33
3.95433	-25
3.95800	-20
3.96167	-20
3.96533	-24
3.96900	-29
3.97267	-32
3.97633	-35
3.98000	-40
3.98367	-43
3.98733	-46
3.99100	-51
3.99467	-54
3.99833	-55

[Chromatogram (Ch2)]
Interval(msec)	220
# of Points	1091
Start Time(min)	0.002
End Time(min)	3.998
R.Time (min)	Intensity
0.00167	1
0.00533	1
0.00900	1
0.01267	1
0.01633	1
0.02000	1
0.02367	1
0.02733	1
0.03100	1
0.03467	1
0.03833	2
0.04200	2
0.04567	2
0.04933	2
0.05300	2
0.05667	2
0.06033	2
0.06400	2
0.06767	2
0.07133	2
0.07500	2
0.07867	2
0.08233	2
0.08600	2
0.08967	2
0.09333	2
0.09700	2
0.10067	2
0.10433	2
0.10800	2
0.11167	2
0.11533	2
0.11900	2
0.12267	2
0.12633	2
0.13000	1
0.13367	1
0.13733	1
0.14100	1
0.14467	1
0.14833	1
0.15200	1
0.15567	1
0.15933	1
0.16300	1
0.16667	1
0.17033	1
0.17400	1
0.17767	1
0.18133	1
0.18500	1
0.18867	1
0.19233	1
0.19600	1
0.19967	1
0.20333	1
0.20700	0
0.21067	-0
0.21433	-0
0.21800	-1
0.22167	-1
0.22533	-1
0.22900	-1
0.23267	-1
0.23633	-1
0.24000	-1
0.24367	-1
0.24733	-0
0.25100	-0
0.25467	-0
0.25833	-0
0.26200	-0
0.26567	-0
0.26933	-0
0.27300	-0
0.27667	-0
0.28033	0
0.28400	0
0.28767	1
0.29133	1
0.29500	1
0.29867	1
0.30233	1
0.30600	1
0.30967	0
0.31333	0
0.31700	-0
0.32067	-1
0.32433	-1
0.32800	-1
0.33167	-1
0.33533	-1
0.33900	-1
0.34267	-1
0.34633	-1
0.35000	-1
0.35367	-1
0.35733	-1
0.36100	-1
0.36467	-1
0.36833	-1
0.37200	-1
0.37567	-0
0.37933	-0
0.38300	0
0.38667	0
0.39033	0
0.39400	0
0.39767	0
0.40133	0
0.40500	0
0.40867	0
0.41233	0
0.41600	0
0.41967	0
0.42333	0
0.42700	0
0.43067	0
0.43433	-0
0.43800	-0
0.44167	-1
0.44533	-1
0.44900	-1
0.45267	-1
0.45633	-1
0.46000	-1
0.46367	-0
0.46733	-0
0.47100	-0
0.47467	-0
0.47833	0
0.48200	0
0.48567	0
0.48933	0
0.49300	0
0.49667	0
0.50033	0
0.50400	0
0.50767	0
0.51133	0
0.51500	0
0.51867	1
0.52233	1
0.52600	1
0.52967	0
0.53333	0
0.53700	0
0.54067	0
0.54433	0
0.54800	0
0.55167	1
0.55533	1
0.55900	1
0.56267	1
0.56633	0
0.57000	0
0.57367	0
0.57733	-0
0.58100	-0
0.58467	-0
0.58833	-0
0.59200	-1
0.59567	-0
0.59933	-0
0.60300	-0
0.60667	-0
0.61033	-1
0.61400	-1
0.61767	-1
0.62133	-0
0.62500	-0
0.62867	-0
0.63233	-0
0.63600	-0
0.63967	0
0.64333	0
0.64700	0
0.65067	1
0.65433	1
0.65800	1
0.66167	1
0.66533	1
0.66900	1
0.67267	1
0.67633	1
0.68000	0
0.68367	0
0.68733	-0
0.69100	-0
0.69467	-1
0.69833	-1
0.70200	-1
0.70567	-1
0.70933	-1
0.71300	-1
0.71667	-1
0.72033	-1
0.72400	-1
0.72767	-1
0.73133	-0
0.73500	-0
0.73867	-0
0.74233	-0
0.74600	-0
0.74967	-0
0.75333	-0
0.75700	-0
0.76067	-1
0.76433	-1
0.76800	-1
0.77167	-1
0.77533	-2
0.77900	-2
0.78267	-2
0.78633	-1
0.79000	-1
0.79367	-1
0.79733	-1
0.80100	-0
0.80467	-0
0.80833	0
0.81200	0
0.81567	0
0.81933	0
0.82300	0
0.82667	0
0.83033	0
0.83400	0
0.83767	0
0.84133	-0
0.84500	-0
0.84867	-0
0.85233	0
0.85600	0
0.85967	1
0.86333	1
0.86700	1
0.87067	1
0.87433	1
0.87800	1
0.88167	0
0.88533	0
0.88900	0
0.89267	-0
0.89633	-0
0.90000	-1
0.90367	-1
0.90733	-1
0.91100	-1
0.91467	-1
0.91833	-1
0.92200	-1
0.92567	-2
0.92933	-2
0.93300	-1
0.93667	-1
0.94033	-1
0.94400	-1
0.94767	-1
0.95133	-1
0.95500	-1
0.95867	-1
0.96233	-1
0.96600	-1
0.96967	-1
0.97333	-1
0.97700	-1
0.98067	-2
0.98433	-2
0.98800	-2
0.99167	-2
0.99533	-2
0.99900	-3
1.00267	-3
1.00633	-3
1.01000	-3
1.01367	-3
1.01733	-3
1.02100	-3
1.02467	-3
1.02833	-3
1.03200	-2
1.03567	-2
1.03933	-2
1.04300	-2
1.04667	-2
1.05033	-2
1.05400	-2
1.05767	-1
1.06133	-1
1.06500	-1
1.06867	-1
1.07233	-1
1.07600	-1
1.07967	-1
1.08333	-1
1.08700	-0
1.09067	-0
1.09433	-1
1.09800	-1
1.10167	-1
1.10533	-1
1.10900	-1
1.11267	-1
1.11633	-1
1.12000	-1
1.12367	-1
1.12733	-1
1.13100	-1
1.13467	-1
1.13833	-1
1.14200	-1
1.14567	-1
1.14933	-1
1.15300	-1
1.15667	-1
1.16033	-1
1.16400	-0
1.16767	-0
1.17133	0
1.17500	0
1.17867	0
1.18233	0
1.18600	0
1.18967	0
1.19333	0
1.19700	-0
1.20067	-0
1.20433	-1
1.20800	-1
1.21167	-1
1.21533	-1
1.21900	-1
1.22267	-1
1.22633	-1
1.23000	-1
1.23367	-1
1.23733	-1
1.24100	-1
1.24467	-1
1.24833	-1
1.25200	-1
1.25567	-2
1.25933	-2
1.26300	-2
1.26667	-2
1.27033	-2
1.27400	-2
1.27767	-2
1.28133	-2
1.28500	-2
1.28867	-2
1.29233	-2
1.29600	-2
1.29967	-2
1.30333	-2
1.30700	-2
1.31067	-2
1.31433	-2
1.31800	-2
1.32167	-2
1.32533	-2
1.32900	-3
1.33267	-3
1.33633	-3
1.34000	-3
1.34367	-2
1.34733	-2
1.35100	-2
1.35467	-2
1.35833	-2
1.36200	-2
1.36567	-2
1.36933	-2
1.37300	-2
1.37667	-2
1.38033	-2
1.38400	-1
1.38767	-1
1.39133	-1
1.39500	-1
1.39867	-1
1.40233	-1
1.40600	-1
1.40967	-1
1.41333	-0
1.41700	-0
1.42067	-1
1.42433	-0
1.42800	-0
1.43167	-0
1.43533	-0
1.43900	-0
1.44267	-0
1.44633	-0
1.45000	-1
1.45367	-1
1.45733	-1
1.46100	-1
1.46467	-1
1.46833	-1
1.47200	-1
1.47567	-1
1.47933	-1
1.48300	-1
1.48667	-1
1.49033	-1
1.49400	-1
1.49767	-1
1.50133	-2
1.50500	-2
1.50867	-1
1.51233	-1
1.51600	-1
1.51967	-1
1.52333	-1
1.52700	-1
1.53067	-1
1.53433	-1
1.53800	-2
1.54167	-2
1.54533	-2
1.54900	-2
1.55267	-2
1.55633	-3
1.56000	-3
1.56367	-3
1.56733	-3
1.57100	-3
1.57467	-3
1.57833	-3
1.58200	-3
1.58567	-3
1.58933	-3
1.59300	-3
1.59667	-4
1.60033	-5
1.60400	-6
1.60767	-7
1.61133	-8
1.61500	-10
1.61867	-12
1.62233	-14
1.62600	-17
1.62967	-20
1.63333	-23
1.63700	-26
1.64067	-29
1.64433	-33
1.64800	-37
1.65167	-41
1.65533	-44
1.65900	-48
1.66267	-53
1.66633	-57
1.67000	-61
1.67367	-66
1.67733	-71
1.68100	-75
1.68467	-80
1.68833	-84
1.69200	-87
1.69567	-90
1.69933	-93
1.70300	-96
1.70667	-98
1.71033	-100
1.71400	-102
1.71767	-104
1.72133	-106
1.72500	-107
1.72867	-109
1.73233	-110
1.73600	-111
1.73967	-112
1.74333	-113
1.74700	-113
1.75067	-114
1.75433	-114
1.75800	-115
1.76167	-114
1.76533	-114
1.76900	-113
1.77267	-113
1.77633	-112
1.78000	-112
1.78367	-113
1.78733	-113
1.79100	-114
1.79467	-115
1.79833	-115
1.80200	-116
1.80567	-116
1.80933	-117
1.81300	-117
1.81667	-117
1.82033	-117
1.82400	-118
1.82767	-118
1.83133	-119
1.83500	-119
1.83867	-119
1.84233	-119
1.84600	-119
1.84967	-118
1.85333	-118
1.85700	-117
1.86067	-117
1.86433	-117
1.86800	-117
1.87167	-117
1.87533	-117
1.87900	-118
1.88267	-118
1.88633	-118
1.89000	-117
1.89367	-117
1.89733	-117
1.90100	-117
1.90467	-117
1.90833	-117
1.91200	-117
1.91567	-118
1.91933	-117
1.92300	-117
1.92667	-117
1.93033	-117
1.93400	-116
1.93767	-116
1.94133	-116
1.94500	-116
1.94867	-115
1.95233	-115
1.95600	-114
1.95967	-114
1.96333	-113
1.96700	-113
1.97067	-112
1.97433	-112
1.97800	-112
1.98167	-112
1.98533	-111
1.98900	-111
1.99267	-111
1.99633	-111
2.00000	-111
2.00367	-111
2.00733	-111
2.01100	-111
2.01467	-111
2.01833	-110
2.02200	-110
2.02567	-110
2.02933	-109
2.03300	-109
2.03667	-108
2.04033	-108
2.04400	-107
2.04767	-106
2.05133	-106
2.05500	-106
2.05867	-105
2.06233	-105
2.06600	-105
2.06967	-104
2.07333	-104
2.07700	-104
2.08067	-104
2.08433	-104
2.08800	-103
2.09167	-103
2.09533	-103
2.09900	-102
2.10267	-102
2.10633	-101
2.11000	-101
2.11367	-101
2.11733	-101
2.12100	-101
2.12467	-100
2.12833	-100
2.13200	-99
2.13567	-98
2.13933	-97
2.14300	-96
2.14667	-95
2.15033	-95
2.15400	-95
2.15767	-95
2.16133	-95
2.16500	-96
2.16867	-96
2.17233	-97
2.17600	-97
2.17967	-97
2.18333	-97
2.18700	-96
2.19067	-96
2.19433	-95
2.19800	-94
2.20167	-94
2.20533	-94
2.20900	-93
2.21267	-93
2.21633	-93
2.22000	-92
2.22367	-92
2.22733	-91
2.23100	-91
2.23467	-90
2.23833	-90
2.24200	-90
2.24567	-90
2.24933	-90
2.25300	-90
2.25667	-90
2.26033	-89
2.26400	-89
2.26767	-88
2.27133	-88
2.27500	-88
2.27867	-88
2.28233	-88
2.28600	-87
2.28967	-87
2.29333	-86
2.29700	-86
2.30067	-85
2.30433	-84
2.30800	-84
2.31167	-83
2.31533	-83
2.31900	-82
2.32267	-82
2.32633	-82
2.33000	-81
2.33367	-81
2.33733	-80
2.34100	-80
2.34467	-80
2.34833	-79
2.35200	-78
2.35567	-78
2.35933	-77
2.36300	-76
2.36667	-76
2.37033	-74
2.37400	-72
2.37767	-70
2.38133	-67
2.38500	-65
2.38867	-62
2.39233	-58
2.39600	-55
2.39967	-51
2.40333	-47
2.40700	-43
2.41067	-39
2.41433	-35
2.41800	-32
2.42167	-28
2.42533	-25
2.42900	-22
2.43267	-19
2.43633	-17
2.44000	-15
2.44367	-13
2.44733	-11
2.45100	-9
2.45467	-8
2.45833	-6
2.46200	-5
2.46567	-3
2.46933	-2
2.47300	-1
2.47667	0
2.48033	2
2.48400	3
2.48767	4
2.49133	5
2.49500	6
2.49867	7
2.50233	8
2.50600	9
2.50967	11
2.51333	12
2.51700	13
2.52067	14
2.52433	15
2.52800	15
2.53167	15
2.53533	15
2.53900	15
2.54267	15
2.54633	15
2.55000	16
2.55367	16
2.55733	16
2.56100	17
2.56467	17
2.56833	17
2.57200	17
2.57567	17
2.57933	17
2.58300	18
2.58667	18
2.59033	19
2.59400	19
2.59767	20
2.60133	20
2.60500	20
2.60867	19
2.61233	19
2.61600	19
2.61967	19
2.62333	19
2.62700	19
2.63067	20
2.63433	20
2.63800	20
2.64167	21
2.64533	21
2.64900	21
2.65267	21
2.65633	20
2.66000	21
2.66367	21
2.66733	21
2.67100	21
2.67467	21
2.67833	21
2.68200	22
2.68567	22
2.68933	23
2.69300	23
2.69667	24
2.70033	24
2.70400	24
2.70767	24
2.71133	24
2.71500	25
2.71867	25
2.72233	25
2.72600	25
2.72967	25
2.73333	25
2.73700	26
2.74067	26
2.74433	26
2.74800	26
2.75167	26
2.75533	26
2.75900	26
2.76267	25
2.76633	25
2.77000	25
2.77367	24
2.77733	24
2.78100	24
2.78467	24
2.78833	24
2.79200	24
2.79567	25
2.79933	25
2.80300	26
2.80667	26
2.81033	27
2.81400	27
2.81767	28
2.82133	28
2.82500	28
2.82867	28
2.83233	28
2.83600	28
2.83967	29
2.84333	29
2.84700	29
2.85067	29
2.85433	29
2.85800	29
2.86167	28
2.86533	25
2.86900	22
2.87267	16
2.87633	8
2.88000	-4
2.88367	-19
2.88733	-38
2.89100	-61
2.89467	-88
2.89833	-119
2.90200	-153
2.90567	-191
2.90933	-232
2.91300	-275
2.91667	-322
2.92033	-370
2.92400	-419
2.92767	-470
2.93133	-521
2.93500	-572
2.93867	-623
2.94233	-674
2.94600	-725
2.94967	-774
2.95333	-824
2.95700	-876
2.96067	-934
2.96433	-995
2.96800	-1050
2.97167	-1087
2.97533	-1099
2.97900	-1085
2.98267	-1048
2.98633	-991
2.99000	-921
2.99367	-844
2.99733	-764
3.00100	-683
3.00467	-606
3.00833	-533
3.01200	-466
3.01567	-405
3.01933	-351
3.02300	-302
3.02667	-259
3.03033	-221
3.03400	-188
3.03767	-159
3.04133	-134
3.04500	-112
3.04867	-94
3.05233	-78
3.05600	-64
3.05967	-52
3.06333	-43
3.06700	-34
3.07067	-27
3.07433	-20
3.07800	-15
3.08167	-11
3.08533	-7
3.08900	-4
3.09267	-1
3.09633	1
3.10000	3
3.10367	5
3.10733	6
3.11100	8
3.11467	9
3.11833	10
3.12200	11
3.12567	12
3.12933	13
3.13300	13
3.13667	14
3.14033	14
3.14400	15
3.14767	15
3.15133	16
3.15500	16
3.15867	16
3.16233	17
3.16600	17
3.16967	18
3.17333	18
3.17700	18
3.18067	19
3.18433	19
3.18800	19
3.19167	20
3.19533	20
3.19900	20
3.20267	20
3.20633	20
3.21000	20
3.21367	20
3.21733	20
3.22100	21
3.22467	21
3.22833	21
3.23200	21
3.23567	21
3.23933	21
3.24300	22
3.24667	22
3.25033	22
3.25400	23
3.25767	23
3.26133	24
3.26500	24
3.26867	24
3.27233	24
3.27600	24
3.27967	24
3.28333	24
3.28700	24
3.29067	24
3.29433	25
3.29800	25
3.30167	25
3.30533	25
3.30900	25
3.31267	25
3.31633	25
3.32000	25
3.32367	26
3.32733	26
3.33100	26
3.33467	26
3.33833	26
3.34200	27
3.34567	27
3.34933	28
3.35300	28
3.35667	28
3.36033	29
3.36400	29
3.36767	29
3.37133	30
3.37500	30
3.37867	30
3.38233	30
3.38600	30
3.38967	30
3.39333	30
3.39700	30
3.40067	30
3.40433	30
3.40800	30
3.41167	30
3.41533	30
3.41900	29
3.42267	29
3.42633	29
3.43000	29
3.43367	29
3.43733	29
3.44100	29
3.44467	29
3.44833	29
3.45200	30
3.45567	30
3.45933	30
3.46300	30
3.46667	30
3.47033	30
3.47400	30
3.47767	30
3.48133	30
3.48500	29
3.48867	29
3.49233	29
3.49600	29
3.49967	29
3.50333	29
3.50700	29
3.51067	29
3.51433	29
3.51800	29
3.52167	29
3.52533	29
3.52900	29
3.53267	29
3.53633	29
3.54000	29
3.54367	29
3.54733	29
3.55100	29
3.55467	29
3.55833	28
3.56200	28
3.56567	28
3.56933	28
3.57300	28
3.57667	28
3.58033	28
3.58400	28
3.58767	28
3.59133	28
3.59500	28
3.59867	27
3.60233	27
3.60600	27
3.60967	27
3.61333	27
3.61700	27
3.62067	27
3.62433	27
3.62800	27
3.63167	27
3.63533	27
3.63900	27
3.64267	27
3.64633	27
3.65000	27
3.65367	27
3.65733	27
3.66100	27
3.66467	26
3.66833	26
3.67200	26
3.67567	26
3.67933	27
3.68300	27
3.68667	27
3.69033	27
3.69400	26
3.69767	27
3.70133	27
3.70500	27
3.70867	27
3.71233	26
3.71600	26
3.71967	26
3.72333	26
3.72700	27
3.73067	27
3.73433	27
3.73800	28
3.74167	28
3.74533	28
3.74900	27
3.75267	27
3.75633	27
3.76000	27
3.76367	28
3.76733	28
3.77100	28
3.77467	28
3.77833	28
3.78200	28
3.78567	28
3.78933	28
3.79300	27
3.79667	27
3.80033	27
3.80400	27
3.80767	27
3.81133	27
3.81500	27
3.81867	27
3.82233	27
3.82600	27
3.82967	27
3.83333	27
3.83700	27
3.84067	27
3.84433	27
3.84800	27
3.85167	27
3.85533	27
3.85900	27
3.86267	27
3.86633	27
3.87000	27
3.87367	27
3.87733	27
3.88100	27
3.88467	27
3.88833	27
3.89200	27
3.89567	27
3.89933	27
3.90300	27
3.90667	26
3.91033	26
3.91400	26
3.91767	26
3.92133	26
3.92500	26
3.92867	26
3.93233	26
3.93600	26
3.93967	26
3.94333	26
3.94700	26
3.95067	27
3.95433	27
3.95800	27
3.96167	27
3.96533	27
3.96900	27
3.97267	27
3.97633	27
3.98000	27
3.98367	27
3.98733	27
3.99100	28
3.99467	28
3.99833	28

[Chromatogram (Ch3)]
Interval(msec)	220
# of Points	1091
Start Time(min)	0.002
End Time(min)	3.998
R.Time (min)	Intensity
0.00167	-1
0.00533	-4
0.00900	-3
0.01267	-0
0.01633	2
0.02000	2
0.02367	2
0.02733	2
0.03100	3
0.03467	4
0.03833	5
0.04200	6
0.04567	4
0.04933	-0
0.05300	-3
0.05667	-3
0.06033	-2
0.06400	-1
0.06767	2
0.07133	2
0.07500	1
0.07867	2
0.08233	1
0.08600	-1
0.08967	-4
0.09333	-2
0.09700	0
0.10067	2
0.10433	1
0.10800	-0
0.11167	-1
0.11533	-1
0.11900	0
0.12267	1
0.12633	3
0.13000	4
0.13367	5
0.13733	3
0.14100	3
0.14467	5
0.14833	7
0.15200	9
0.15567	9
0.15933	7
0.16300	4
0.16667	2
0.17033	2
0.17400	3
0.17767	4
0.18133	1
0.18500	-1
0.18867	-1
0.19233	1
0.19600	1
0.19967	-0
0.20333	-0
0.20700	-0
0.21067	1
0.21433	1
0.21800	3
0.22167	4
0.22533	6
0.22900	6
0.23267	4
0.23633	1
0.24000	-0
0.24367	-1
0.24733	-1
0.25100	0
0.25467	3
0.25833	6
0.26200	8
0.26567	8
0.26933	7
0.27300	3
0.27667	-1
0.28033	-2
0.28400	-3
0.28767	-4
0.29133	-3
0.29500	-3
0.29867	-2
0.30233	-3
0.30600	-2
0.30967	-2
0.31333	-0
0.31700	2
0.32067	4
0.32433	5
0.32800	8
0.33167	8
0.33533	7
0.33900	6
0.34267	4
0.34633	2
0.35000	1
0.35367	0
0.35733	-0
0.36100	-0
0.36467	1
0.36833	2
0.37200	2
0.37567	1
0.37933	-2
0.38300	-3
0.38667	-3
0.39033	1
0.39400	5
0.39767	8
0.40133	5
0.40500	-0
0.40867	-3
0.41233	-3
0.41600	-1
0.41967	1
0.42333	2
0.42700	3
0.43067	4
0.43433	4
0.43800	3
0.44167	1
0.44533	-1
0.44900	-5
0.45267	-7
0.45633	-7
0.46000	-4
0.46367	-1
0.46733	-0
0.47100	1
0.47467	1
0.47833	3
0.48200	3
0.48567	0
0.48933	-3
0.49300	-5
0.49667	-6
0.50033	-5
0.50400	-4
0.50767	-3
0.51133	1
0.51500	4
0.51867	4
0.52233	2
0.52600	3
0.52967	3
0.53333	4
0.53700	4
0.54067	0
0.54433	-2
0.54800	-5
0.55167	-5
0.55533	-6
0.55900	-5
0.56267	-3
0.56633	-4
0.57000	-5
0.57367	-4
0.57733	-4
0.58100	-5
0.58467	-5
0.58833	-5
0.59200	-3
0.59567	-3
0.59933	-4
0.60300	-5
0.60667	-6
0.61033	-7
0.61400	-5
0.61767	-2
0.62133	-2
0.62500	-3
0.62867	-5
0.63233	-7
0.63600	-8
0.63967	-6
0.64333	-6
0.64700	-7
0.65067	-8
0.65433	-6
0.65800	-7
0.66167	-7
0.66533	-6
0.66900	-4
0.67267	-2
0.67633	-0
0.68000	-1
0.68367	-3
0.68733	-4
0.69100	-4
0.69467	-5
0.69833	-6
0.70200	-8
0.70567	-10
0.70933	-6
0.71300	-4
0.71667	-5
0.72033	-6
0.72400	-8
0.72767	-9
0.73133	-8
0.73500	-6
0.73867	-6
0.74233	-3
0.74600	-2
0.74967	-2
0.75333	-2
0.75700	-2
0.76067	-1
0.76433	2
0.76800	1
0.77167	-1
0.77533	-1
0.77900	-1
0.78267	-0
0.78633	1
0.79000	-1
0.79367	-5
0.79733	-6
0.80100	-7
0.80467	-6
0.80833	-6
0.81200	-5
0.81567	-2
0.81933	1
0.82300	1
0.82667	0
0.83033	-1
0.83400	-2
0.83767	-2
0.84133	-4
0.84500	-4
0.84867	-5
0.85233	-4
0.85600	-3
0.85967	-1
0.86333	2
0.86700	1
0.87067	-3
0.87433	-5
0.87800	-8
0.88167	-10
0.88533	-14
0.88900	-14
0.89267	-11
0.89633	-8
0.90000	-4
0.90367	-3
0.90733	-5
0.91100	-5
0.91467	-6
0.91833	-6
0.92200	-5
0.92567	-5
0.92933	-5
0.93300	-6
0.93667	-8
0.94033	-5
0.94400	-4
0.94767	-5
0.95133	-7
0.95500	-6
0.95867	-4
0.96233	-3
0.96600	-3
0.96967	-4
0.97333	-4
0.97700	-3
0.98067	-4
0.98433	-5
0.98800	-4
0.99167	-4
0.99533	-3
0.99900	-2
1.00267	-2
1.00633	-3
1.01000	-5
1.01367	-6
1.01733	-5
1.02100	-5
1.02467	-3
1.02833	-1
1.03200	-1
1.03567	-2
1.03933	-2
1.04300	-2
1.04667	-3
1.05033	-1
1.05400	1
1.05767	-1
1.06133	-4
1.06500	-3
1.06867	-3
1.07233	-4
1.07600	-6
1.07967	-8
1.08333	-9
1.08700	-9
1.09067	-10
1.09433	-10
1.09800	-11
1.10167	-9
1.10533	-7
1.10900	-7
1.11267	-4
1.11633	-1
1.12000	-3
1.12367	-4
1.12733	-5
1.13100	-4
1.13467	-3
1.13833	-2
1.14200	0
1.14567	1
1.14933	0
1.15300	-1
1.15667	-3
1.16033	-3
1.16400	-1
1.16767	-1
1.17133	-1
1.17500	2
1.17867	5
1.18233	4
1.18600	2
1.18967	-1
1.19333	-3
1.19700	-3
1.20067	-1
1.20433	-2
1.20800	0
1.21167	1
1.21533	-2
1.21900	-2
1.22267	-2
1.22633	-1
1.23000	-1
1.23367	-2
1.23733	-4
1.24100	-6
1.24467	-7
1.24833	-8
1.25200	-7
1.25567	-5
1.25933	-5
1.26300	-4
1.26667	-3
1.27033	-2
1.27400	-2
1.27767	-2
1.28133	-3
1.28500	-3
1.28867	-3
1.29233	-3
1.29600	-3
1.29967	-0
1.30333	2
1.30700	4
1.31067	3
1.31433	1
1.31800	-1
1.32167	-2
1.32533	-4
1.32900	-3
1.33267	-0
1.33633	-0
1.34000	-1
1.34367	-1
1.34733	1
1.35100	4
1.35467	3
1.35833	1
1.36200	0
1.36567	-1
1.36933	-3
1.37300	-3
1.37667	-4
1.38033	-3
1.38400	-3
1.38767	-4
1.39133	-4
1.39500	-4
1.39867	-3
1.40233	-3
1.40600	-2
1.40967	-2
1.41333	-3
1.41700	-4
1.42067	-4
1.42433	-3
1.42800	-4
1.43167	-4
1.43533	-4
1.43900	-3
1.44267	-2
1.44633	-1
1.45000	-2
1.45367	-3
1.45733	-3
1.46100	-4
1.46467	-5
1.46833	-7
1.47200	-8
1.47567	-7
1.47933	-6
1.48300	-5
1.48667	-3
1.49033	-3
1.49400	-2
1.49767	-3
1.50133	-4
1.50500	-5
1.50867	-5
1.51233	-5
1.51600	-7
1.51967	-6
1.52333	-3
1.52700	-1
1.53067	-1
1.53433	-3
1.53800	-3
1.54167	-3
1.54533	-4
1.54900	-4
1.55267	-2
1.55633	-1
1.56000	0
1.56367	0
1.56733	-0
1.57100	-1
1.57467	-1
1.57833	-3
1.58200	-4
1.58567	-5
1.58933	-4
1.59300	-5
1.59667	-3
1.60033	-3
1.60400	-2
1.60767	-1
1.61133	0
1.61500	1
1.61867	3
1.62233	5
1.62600	3
1.62967	0
1.63333	-0
1.63700	-0
1.64067	1
1.64433	0
1.64800	1
1.65167	1
1.65533	1
1.65900	4
1.66267	7
1.66633	8
1.67000	7
1.67367	9
1.67733	13
1.68100	14
1.68467	12
1.68833	8
1.69200	9
1.69567	12
1.69933	13
1.70300	15
1.70667	17
1.71033	18
1.71400	17
1.71767	14
1.72133	13
1.72500	14
1.72867	14
1.73233	14
1.73600	13
1.73967	12
1.74333	12
1.74700	13
1.75067	13
1.75433	12
1.75800	12
1.76167	13
1.76533	14
1.76900	16
1.77267	19
1.77633	20
1.78000	20
1.78367	22
1.78733	25
1.79100	24
1.79467	23
1.79833	23
1.80200	22
1.80567	18
1.80933	15
1.81300	16
1.81667	18
1.82033	22
1.82400	26
1.82767	28
1.83133	28
1.83500	26
1.83867	25
1.84233	23
1.84600	21
1.84967	22
1.85333	25
1.85700	25
1.86067	25
1.86433	25
1.86800	27
1.87167	30
1.87533	32
1.87900	32
1.88267	30
1.88633	29
1.89000	32
1.89367	34
1.89733	36
1.90100	36
1.90467	36
1.90833	34
1.91200	34
1.91567	35
1.91933	35
1.92300	34
1.92667	32
1.93033	30
1.93400	32
1.93767	34
1.94133	33
1.94500	31
1.94867	31
1.95233	31
1.95600	30
1.95967	29
1.96333	29
1.96700	31
1.97067	33
1.97433	34
1.97800	36
1.98167	38
1.98533	41
1.98900	40
1.99267	42
1.99633	43
2.00000	44
2.00367	46
2.00733	50
2.01100	51
2.01467	50
2.01833	48
2.02200	48
2.02567	48
2.02933	51
2.03300	54
2.03667	57
2.04033	57
2.04400	56
2.04767	56
2.05133	57
2.05500	59
2.05867	62
2.06233	64
2.06600	67
2.06967	68
2.07333	66
2.07700	68
2.08067	69
2.08433	69
2.08800	68
2.09167	70
2.09533	71
2.09900	73
2.10267	73
2.10633	75
2.11000	75
2.11367	75
2.11733	75
2.12100	74
2.12467	72
2.12833	70
2.13200	71
2.13567	71
2.13933	72
2.14300	74
2.14667	76
2.15033	75
2.15400	73
2.15767	74
2.16133	76
2.16500	78
2.16867	77
2.17233	77
2.17600	78
2.17967	79
2.18333	81
2.18700	85
2.19067	86
2.19433	85
2.19800	84
2.20167	83
2.20533	84
2.20900	89
2.21267	92
2.21633	92
2.22000	93
2.22367	93
2.22733	95
2.23100	97
2.23467	96
2.23833	94
2.24200	94
2.24567	98
2.24933	99
2.25300	100
2.25667	101
2.26033	103
2.26400	103
2.26767	103
2.27133	103
2.27500	105
2.27867	107
2.28233	108
2.28600	108
2.28967	109
2.29333	110
2.29700	111
2.30067	114
2.30433	115
2.30800	115
2.31167	114
2.31533	116
2.31900	117
2.32267	118
2.32633	119
2.33000	122
2.33367	126
2.33733	126
2.34100	126
2.34467	123
2.34833	122
2.35200	125
2.35567	127
2.35933	127
2.36300	129
2.36667	132
2.37033	133
2.37400	133
2.37767	133
2.38133	133
2.38500	131
2.38867	130
2.39233	132
2.39600	137
2.39967	142
2.40333	145
2.40700	147
2.41067	150
2.41433	152
2.41800	154
2.42167	156
2.42533	159
2.42900	159
2.43267	158
2.43633	161
2.44000	167
2.44367	194
2.44733	255
2.45100	319
2.45467	364
2.45833	389
2.46200	406
2.46567	419
2.46933	424
2.47300	423
2.47667	419
2.48033	418
2.48400	427
2.48767	442
2.49133	462
2.49500	483
2.49867	501
2.50233	514
2.50600	522
2.50967	522
2.51333	517
2.51700	513
2.52067	509
2.52433	507
2.52800	510
2.53167	516
2.53533	524
2.53900	536
2.54267	546
2.54633	556
2.55000	567
2.55367	580
2.55733	593
2.56100	603
2.56467	614
2.56833	625
2.57200	630
2.57567	630
2.57933	628
2.58300	624
2.58667	615
2.59033	604
2.59400	593
2.59767	580
2.60133	567
2.60500	557
2.60867	549
2.61233	538
2.61600	522
2.61967	504
2.62333	483
2.62700	458
2.63067	431
2.63433	404
2.63800	379
2.64167	355
2.64533	334
2.64900	317
2.65267	303
2.65633	295
2.66000	289
2.66367	285
2.66733	285
2.67100	288
2.67467	296
2.67833	305
2.68200	315
2.68567	324
2.68933	335
2.69300	346
2.69667	359
2.70033	371
2.70400	384
2.70767	396
2.71133	403
2.71500	407
2.71867	414
2.72233	421
2.72600	429
2.72967	438
2.73333	444
2.73700	446
2.74067	447
2.74433	450
2.74800	453
2.75167	453
2.75533	451
2.75900	450
2.76267	450
2.76633	452
2.77000	453
2.77367	451
2.77733	448
2.78100	444
2.78467	440
2.78833	439
2.79200	439
2.79567	438
2.79933	438
2.80300	437
2.80667	435
2.81033	435
2.81400	437
2.81767	439
2.82133	437
2.82500	437
2.82867	439
2.83233	445
2.83600	455
2.83967	476
2.84333	520
2.84700	605
2.85067	755
2.85433	995
2.85800	1346
2.86167	1811
2.86533	2377
2.86900	3009
2.87267	3663
2.87633	4285
2.88000	4822
2.88367	5237
2.88733	5504
2.89100	5614
2.89467	5574
2.89833	5409
2.90200	5151
2.90567	4826
2.90933	4463
2.91300	4086
2.91667	3712
2.92033	3351
2.92400	3015
2.92767	2707
2.93133	2427
2.93500	2175
2.93867	1952
2.94233	1757
2.94600	1586
2.94967	1434
2.95333	1302
2.95700	1187
2.96067	1087
2.96433	1000
2.96800	928
2.97167	866
2.97533	811
2.97900	762
2.98267	724
2.98633	691
2.99000	660
2.99367	634
2.99733	611
3.00100	590
3.00467	574
3.00833	562
3.01200	551
3.01567	542
3.01933	532
3.02300	523
3.02667	517
3.03033	514
3.03400	510
3.03767	506
3.04133	502
3.04500	497
3.04867	492
3.05233	487
3.05600	483
3.05967	482
3.06333	481
3.06700	481
3.07067	480
3.07433	480
3.07800	479
3.08167	476
3.08533	472
3.08900	469
3.09267	469
3.09633	469
3.10000	466
3.10367	463
3.10733	462
3.11100	462
3.11467	461
3.11833	456
3.12200	452
3.12567	451
3.12933	451
3.13300	450
3.13667	449
3.14033	449
3.14400	445
3.14767	439
3.15133	435
3.15500	431
3.15867	428
3.16233	425
3.16600	422
3.16967	420
3.17333	416
3.17700	413
3.18067	410
3.18433	403
3.18800	398
3.19167	396
3.19533	391
3.19900	388
3.20267	388
3.20633	389
3.21000	390
3.21367	389
3.21733	388
3.22100	387
3.22467	385
3.22833	383
3.23200	380
3.23567	377
3.23933	373
3.24300	373
3.24667	373
3.25033	370
3.25400	365
3.25767	362
3.26133	360
3.26500	357
3.26867	355
3.27233	353
3.27600	348
3.27967	347
3.28333	345
3.28700	342
3.29067	339
3.29433	339
3.29800	338
3.30167	337
3.30533	336
3.30900	334
3.31267	331
3.31633	327
3.32000	320
3.32367	316
3.32733	313
3.33100	308
3.33467	304
3.33833	302
3.34200	303
3.34567	304
3.34933	304
3.35300	302
3.35667	299
3.36033	297
3.36400	293
3.36767	288
3.37133	284
3.37500	281
3.37867	277
3.38233	274
3.38600	273
3.38967	272
3.39333	271
3.39700	270
3.40067	267
3.40433	262
3.40800	258
3.41167	256
3.41533	255
3.41900	255
3.42267	254
3.42633	248
3.43000	245
3.43367	246
3.43733	247
3.44100	247
3.44467	245
3.44833	241
3.45200	237
3.45567	234
3.45933	231
3.46300	229
3.46667	229
3.47033	228
3.47400	228
3.47767	227
3.48133	225
3.48500	224
3.48867	222
3.49233	217
3.49600	215
3.49967	213
3.50333	212
3.50700	210
3.51067	207
3.51433	205
3.51800	205
3.52167	206
3.52533	206
3.52900	205
3.53267	203
3.53633	203
3.54000	205
3.54367	206
3.54733	202
3.55100	199
3.55467	197
3.55833	197
3.56200	196
3.56567	194
3.56933	190
3.57300	185
3.57667	182
3.58033	180
3.58400	180
3.58767	181
3.59133	180
3.59500	178
3.59867	178
3.60233	181
3.60600	183
3.60967	181
3.61333	179
3.61700	179
3.62067	179
3.62433	178
3.62800	177
3.63167	175
3.63533	175
3.63900	173
3.64267	170
3.64633	169
3.65000	165
3.65367	162
3.65733	161
3.66100	160
3.66467	161
3.66833	163
3.67200	162
3.67567	159
3.67933	158
3.68300	159
3.68667	157
3.69033	154
3.69400	151
3.69767	150
3.70133	149
3.70500	150
3.70867	153
3.71233	156
3.71600	157
3.71967	156
3.72333	154
3.72700	153
3.73067	154
3.73433	153
3.73800	153
3.74167	151
3.74533	149
3.74900	147
3.75267	146
3.75633	145
3.76000	145
3.76367	145
3.76733	146
3.77100	145
3.77467	144
3.77833	144
3.78200	143
3.78567	142
3.78933	141
3.79300	139
3.79667	138
3.80033	139
3.80400	140
3.80767	141
3.81133	143
3.81500	143
3.81867	142
3.82233	141
3.82600	140
3.82967	138
3.83333	134
3.83700	129
3.84067	128
3.84433	129
3.84800	130
3.85167	134
3.85533	135
3.85900	134
3.86267	133
3.86633	131
3.87000	131
3.87367	130
3.87733	130
3.88100	129
3.88467	129
3.88833	129
3.89200	129
3.89567	128
3.89933	128
3.90300	128
3.90667	128
3.91033	129
3.91400	129
3.91767	128
3.92133	128
3.92500	129
3.92867	128
3.93233	128
3.93600	128
3.93967	130
3.94333	132
3.94700	134
3.95067	131
3.95433	128
3.95800	128
3.96167	128
3.96533	127
3.96900	127
3.97267	129
3.97633	131
3.98000	128
3.98367	122
3.98733	118
3.99100	119
3.99467	119
3.99833	120

[Status Trace (Column Oven Temperature)]
Interval(msec)	1000
# of Points	240
Start Time(min)	0.010
End Time(min)	3.993
Intensity Units	
Intensity Multiplier	1
R.Time (min)	Intensity
0.00970	35.00
0.02637	34.99
0.04303	34.99
0.05970	34.99
0.07637	34.99
0.09303	34.99
0.10970	34.99
0.12637	35.00
0.14303	35.00
0.15970	35.01
0.17637	35.00
0.19303	35.00
0.20970	35.00
0.22637	35.00
0.24303	34.99
0.25970	34.99
0.27637	34.99
0.29303	34.99
0.30970	35.00
0.32637	35.01
0.34303	35.00
0.35970	35.00
0.37637	35.00
0.39303	35.00
0.40970	35.00
0.42637	34.99
0.44303	34.99
0.45970	35.01
0.47637	35.01
0.49303	35.00
0.50970	35.00
0.52637	35.00
0.54303	35.00
0.55970	35.00
0.57637	35.00
0.59303	35.00
0.60970	35.00
0.62637	35.00
0.64303	35.00
0.65970	35.00
0.67637	35.00
0.69303	35.00
0.70970	35.00
0.72637	34.99
0.74303	35.00
0.75970	35.00
0.77637	35.00
0.79303	35.00
0.80970	34.99
0.82637	34.99
0.84303	34.98
0.85970	34.98
0.87637	34.97
0.89303	34.98
0.90970	34.99
0.92637	34.99
0.94303	34.97
0.95970	34.98
0.97637	34.98
0.99303	35.00
1.00970	35.00
1.02637	35.00
1.04303	35.00
1.05970	35.01
1.07637	35.00
1.09303	34.99
1.10970	34.99
1.12637	34.99
1.14303	34.98
1.15970	34.98
1.17637	34.98
1.19303	34.98
1.20970	34.98
1.22637	34.98
1.24303	35.00
1.25970	35.01
1.27637	35.00
1.29303	35.00
1.30970	35.01
1.32637	35.02
1.34303	35.01
1.35970	35.00
1.37637	35.00
1.39303	35.00
1.40970	35.00
1.42637	35.00
1.44303	34.99
1.45970	34.99
1.47637	34.98
1.49303	34.98
1.50970	34.98
1.52637	34.98
1.54303	34.98
1.55970	34.99
1.57637	35.00
1.59303	35.02
1.60970	35.07
1.62637	35.21
1.64303	35.40
1.65970	35.66
1.67637	36.00
1.69303	36.36
1.70970	36.71
1.72637	37.05
1.74303	37.39
1.75970	37.71
1.77637	38.04
1.79303	38.38
1.80970	38.71
1.82637	39.06
1.84303	39.37
1.85970	39.69
1.87637	40.03
1.89303	40.36
1.90970	40.70
1.92637	41.02
1.94303	41.36
1.95970	41.68
1.97637	42.00
1.99303	42.32
2.00970	42.65
2.02637	42.98
2.04303	43.30
2.05970	43.61
2.07637	43.96
2.09303	44.27
2.10970	44.61
2.12637	44.95
2.14303	45.23
2.15970	45.56
2.17637	45.90
2.19303	46.23
2.20970	46.55
2.22637	46.87
2.24303	47.20
2.25970	47.52
2.27637	47.85
2.29303	48.18
2.30970	48.55
2.32637	48.86
2.34303	49.17
2.35970	49.46
2.37637	49.66
2.39303	49.72
2.40970	49.72
2.42637	49.71
2.44303	49.72
2.45970	49.75
2.47637	49.76
2.49303	49.77
2.50970	49.76
2.52637	49.78
2.54303	49.79
2.55970	49.79
2.57637	49.82
2.59303	49.80
2.60970	49.82
2.62637	49.81
2.64303	49.82
2.65970	49.84
2.67637	49.84
2.69303	49.85
2.70970	49.85
2.72637	49.85
2.74303	49.84
2.75970	49.87
2.77637	49.88
2.79303	49.88
2.80970	49.87
2.82637	49.87
2.84303	49.87
2.85970	49.87
2.87637	49.87
2.89303	49.88
2.90970	49.90
2.92637	49.92
2.94303	49.93
2.95970	49.93
2.97637	49.94
2.99303	49.96
3.00970	49.97
3.02637	49.98
3.04303	49.99
3.05970	49.99
3.07637	49.99
3.09303	50.01
3.10970	50.02
3.12637	50.03
3.14303	50.04
3.15970	50.05
3.17637	50.06
3.19303	50.07
3.20970	50.07
3.22637	50.09
3.24303	50.09
3.25970	50.09
3.27637	50.10
3.29303	50.11
3.30970	50.11
3.32637	50.10
3.34303	50.09
3.35970	50.08
3.37637	50.06
3.39303	50.05
3.40970	50.04
3.42637	50.04
3.44303	50.04
3.45970	50.03
3.47637	50.02
3.49303	50.03
3.50970	50.02
3.52637	50.03
3.54303	50.02
3.55970	50.02
3.57637	50.02
3.59303	50.02
3.60970	50.02
3.62637	50.02
3.64303	50.03
3.65970	50.03
3.67637	50.05
3.69303	50.05
3.70970	50.05
3.72637	50.06
3.74303	50.06
3.75970	50.06
3.77637	50.05
3.79303	50.06
3.80970	50.06
3.82637	50.06
3.84303	50.06
3.85970	50.05
3.87637	50.05
3.89303	50.05
3.90970	50.06
3.92637	50.06
3.94303	50.06
3.95970	50.06
3.97637	50.06
3.99303	50.06

[Status Trace (Injection Unit Temperature)]
Interval(msec)	1000
# of Points	240
Start Time(min)	0.010
End Time(min)	3.993
Intensity Units	
Intensity Multiplier	1
R.Time (min)	Intensity
0.00970	99.99
0.02637	99.99
0.04303	99.99
0.05970	99.99
0.07637	99.99
0.09303	99.99
0.10970	99.99
0.12637	99.99
0.14303	99.99
0.15970	99.99
0.17637	99.99
0.19303	99.99
0.20970	99.99
0.22637	99.99
0.24303	99.99
0.25970	99.99
0.27637	99.99
0.29303	99.99
0.30970	99.99
0.32637	99.99
0.34303	99.99
0.35970	99.99
0.37637	99.99
0.39303	99.99
0.40970	99.99
0.42637	99.99
0.44303	99.99
0.45970	99.99
0.47637	99.99
0.49303	99.99
0.50970	99.99
0.52637	99.99
0.54303	99.99
0.55970	99.99
0.57637	99.99
0.59303	99.99
0.60970	99.99
0.62637	99.99
0.64303	99.99
0.65970	99.98
0.67637	99.99
0.69303	99.98
0.70970	99.98
0.72637	99.99
0.74303	99.98
0.75970	99.98
0.77637	99.99
0.79303	99.99
0.80970	99.99
0.82637	99.99
0.84303	99.98
0.85970	99.98
0.87637	99.98
0.89303	99.98
0.90970	99.98
0.92637	99.99
0.94303	99.98
0.95970	99.98
0.97637	99.98
0.99303	99.98
1.00970	99.98
1.02637	99.98
1.04303	99.98
1.05970	99.98
1.07637	99.98
1.09303	99.98
1.10970	99.98
1.12637	99.98
1.14303	99.99
1.15970	99.98
1.17637	99.98
1.19303	99.98
1.20970	99.98
1.22637	99.98
1.24303	99.99
1.25970	99.98
1.27637	99.98
1.29303	99.99
1.30970	99.99
1.32637	99.99
1.34303	99.98
1.35970	99.99
1.37637	99.99
1.39303	99.99
1.40970	99.99
1.42637	99.98
1.44303	99.99
1.45970	99.99
1.47637	99.99
1.49303	99.99
1.50970	99.99
1.52637	99.99
1.54303	99.99
1.55970	99.99
1.57637	99.99
1.59303	99.99
1.60970	99.99
1.62637	99.99
1.64303	99.99
1.65970	99.99
1.67637	99.99
1.69303	99.99
1.70970	99.99
1.72637	99.99
1.74303	99.99
1.75970	99.99
1.77637	99.99
1.79303	99.99
1.80970	99.99
1.82637	99.99
1.84303	99.99
1.85970	99.99
1.87637	99.99
1.89303	99.99
1.90970	99.99
1.92637	99.99
1.94303	99.99
1.95970	99.99
1.97637	99.99
1.99303	99.99
2.00970	99.98
2.02637	99.99
2.04303	99.99
2.05970	99.98
2.07637	99.98
2.09303	99.98
2.10970	99.98
2.12637	99.98
2.14303	99.98
2.15970	99.98
2.17637	99.98
2.19303	99.98
2.20970	99.98
2.22637	99.98
2.24303	99.98
2.25970	99.98
2.27637	99.98
2.29303	99.98
2.30970	99.98
2.32637	99.98
2.34303	99.98
2.35970	99.97
2.37637	99.98
2.39303	99.98
2.40970	99.98
2.42637	99.98
2.44303	99.97
2.45970	99.98
2.47637	99.98
2.49303	99.98
2.50970	99.97
2.52637	99.98
2.54303	99.98
2.55970	99.97
2.57637	99.98
2.59303	99.98
2.60970	99.98
2.62637	99.98
2.64303	99.98
2.65970	99.98
2.67637	99.99
2.69303	99.98
2.70970	99.99
2.72637	99.99
2.74303	99.99
2.75970	99.99
2.77637	100.00
2.79303	99.99
2.80970	100.00
2.82637	100.00
2.84303	100.00
2.85970	100.00
2.87637	100.00
2.89303	100.00
2.90970	100.00
2.92637	100.00
2.94303	100.01
2.95970	100.01
2.97637	100.01
2.99303	100.01
3.00970	100.01
3.02637	100.01
3.04303	100.01
3.05970	100.01
3.07637	100.02
3.09303	100.02
3.10970	100.02
3.12637	100.02
3.14303	100.02
3.15970	100.02
3.17637	100.03
3.19303	100.03
3.20970	100.03
3.22637	100.03
3.24303	100.02
3.25970	100.03
3.27637	100.03
3.29303	100.03
3.30970	100.04
3.32637	100.03
3.34303	100.04
3.35970	100.04
3.37637	100.04
3.39303	100.04
3.40970	100.04
3.42637	100.04
3.44303	100.04
3.45970	100.04
3.47637	100.04
3.49303	100.05
3.50970	100.05
3.52637	100.04
3.54303	100.05
3.55970	100.05
3.57637	100.05
3.59303	100.05
3.60970	100.05
3.62637	100.05
3.64303	100.05
3.65970	100.05
3.67637	100.05
3.69303	100.05
3.70970	100.05
3.72637	100.05
3.74303	100.05
3.75970	100.05
3.77637	100.05
3.79303	100.05
3.80970	100.05
3.82637	100.05
3.84303	100.05
3.85970	100.05
3.87637	100.05
3.89303	100.05
3.90970	100.05
3.92637	100.05
3.94303	100.05
3.95970	100.05
3.97637	100.05
3.99303	100.05

[Status Trace (Carrier Gas Pressure)]
Interval(msec)	1000
# of Points	240
Start Time(min)	0.010
End Time(min)	3.993
Intensity Units	
Intensity Multiplier	1
R.Time (min)	Intensity
0.00970	58.00
0.02637	55.23
0.04303	57.30
0.05970	59.43
0.07637	59.35
0.09303	58.04
0.10970	57.99
0.12637	58.01
0.14303	58.01
0.15970	58.00
0.17637	58.00
0.19303	58.00
0.20970	58.00
0.22637	58.00
0.24303	58.00
0.25970	58.00
0.27637	58.00
0.29303	58.00
0.30970	58.00
0.32637	58.00
0.34303	58.00
0.35970	58.00
0.37637	58.00
0.39303	58.00
0.40970	58.00
0.42637	58.00
0.44303	58.00
0.45970	58.00
0.47637	58.00
0.49303	58.00
0.50970	58.00
0.52637	58.00
0.54303	58.00
0.55970	58.00
0.57637	58.00
0.59303	58.00
0.60970	58.00
0.62637	58.00
0.64303	58.00
0.65970	58.00
0.67637	58.00
0.69303	58.00
0.70970	58.00
0.72637	58.00
0.74303	58.00
0.75970	58.00
0.77637	58.00
0.79303	58.00
0.80970	58.00
0.82637	58.00
0.84303	58.00
0.85970	58.00
0.87637	58.00
0.89303	58.00
0.90970	58.00
0.92637	58.00
0.94303	58.00
0.95970	58.00
0.97637	58.00
0.99303	58.00
1.00970	58.00
1.02637	58.00
1.04303	58.00
1.05970	58.00
1.07637	58.00
1.09303	58.00
1.10970	58.00
1.12637	58.00
1.14303	58.00
1.15970	58.00
1.17637	58.00
1.19303	58.00
1.20970	58.00
1.22637	58.00
1.24303	58.00
1.25970	58.00
1.27637	58.00
1.29303	58.00
1.30970	58.00
1.32637	58.00
1.34303	58.00
1.35970	58.00
1.37637	58.00
1.39303	58.00
1.40970	58.00
1.42637	58.00
1.44303	58.00
1.45970	58.00
1.47637	58.00
1.49303	58.00
1.50970	58.00
1.52637	58.00
1.54303	58.00
1.55970	58.00
1.57637	58.00
1.59303	58.00
1.60970	58.00
1.62637	58.00
1.64303	58.00
1.65970	58.00
1.67637	58.01
1.69303	58.00
1.70970	58.00
1.72637	58.00
1.74303	58.00
1.75970	58.00
1.77637	58.00
1.79303	58.00
1.80970	58.00
1.82637	58.00
1.84303	58.00
1.85970	58.00
1.87637	58.00
1.89303	58.00
1.90970	58.00
1.92637	58.00
1.94303	58.00
1.95970	58.00
1.97637	58.00
1.99303	58.00
2.00970	58.00
2.02637	58.00
2.04303	58.00
2.05970	58.00
2.07637	58.00
2.09303	58.00
2.10970	58.00
2.12637	58.00
2.14303	58.00
2.15970	58.00
2.17637	58.00
2.19303	58.00
2.20970	58.00
2.22637	58.00
2.24303	58.00
2.25970	58.00
2.27637	58.00
2.29303	58.00
2.30970	58.00
2.32637	58.00
2.34303	58.00
2.35970	58.00
2.37637	58.00
2.39303	57.99
2.40970	57.99
2.42637	58.00
2.44303	58.00
2.45970	58.00
2.47637	58.00
2.49303	58.00
2.50970	57.99
2.52637	57.98
2.54303	58.00
2.55970	58.00
2.57637	58.00
2.59303	58.00
2.60970	58.00
2.62637	58.00
2.64303	58.00
2.65970	58.00
2.67637	58.00
2.69303	58.00
2.70970	58.00
2.72637	58.00
2.74303	58.00
2.75970	58.00
2.77637	58.00
2.79303	58.00
2.80970	58.00
2.82637	58.00
2.84303	58.00
2.85970	58.00
2.87637	58.00
2.89303	58.00
2.90970	58.00
2.92637	58.00
2.94303	58.00
2.95970	58.00
2.97637	58.00
2.99303	58.00
3.00970	58.00
3.02637	58.00
3.04303	58.00
3.05970	58.00
3.07637	58.00
3.09303	58.00
3.10970	58.00
3.12637	58.00
3.14303	58.00
3.15970	58.00
3.17637	58.00
3.19303	58.00
3.20970	58.00
3.22637	58.00
3.24303	58.00
3.25970	58.00
3.27637	58.00
3.29303	58.00
3.30970	58.00
3.32637	58.00
3.34303	58.00
3.35970	58.00
3.37637	58.00
3.39303	58.00
3.40970	58.00
3.42637	58.00
3.44303	58.00
3.45970	58.00
3.47637	58.00
3.49303	58.00
3.50970	58.00
3.52637	58.00
3.54303	58.00
3.55970	58.00
3.57637	58.00
3.59303	58.00
3.60970	58.00
3.62637	58.00
3.64303	58.00
3.65970	58.00
3.67637	58.00
3.69303	58.00
3.70970	58.00
3.72637	58.00
3.74303	58.00
3.75970	58.00
3.77637	58.00
3.79303	58.00
3.80970	58.00
3.82637	58.00
3.84303	58.00
3.85970	58.00
3.87637	58.00
3.89303	58.00
3.90970	58.00
3.92637	58.00
3.94303	58.00
3.95970	58.00
3.97637	58.00
3.99303	58.00

[Status Trace (Carrier Gas Flow)]
Interval(msec)	1000
# of Points	240
Start Time(min)	0.010
End Time(min)	3.993
Intensity Units	
Intensity Multiplier	1
R.Time (min)	Intensity
0.00970	34.52
0.02637	34.53
0.04303	34.55
0.05970	34.56
0.07637	34.50
0.09303	34.52
0.10970	34.52
0.12637	34.52
0.14303	34.52
0.15970	34.52
0.17637	34.52
0.19303	34.52
0.20970	34.52
0.22637	34.52
0.24303	34.52
0.25970	34.52
0.27637	34.52
0.29303	34.52
0.30970	34.52
0.32637	34.52
0.34303	34.52
0.35970	34.52
0.37637	34.52
0.39303	34.52
0.40970	34.52
0.42637	34.52
0.44303	34.52
0.45970	34.52
0.47637	34.52
0.49303	34.52
0.50970	34.52
0.52637	34.52
0.54303	34.52
0.55970	34.52
0.57637	34.52
0.59303	34.52
0.60970	34.52
0.62637	34.52
0.64303	34.52
0.65970	34.52
0.67637	34.52
0.69303	34.52
0.70970	34.52
0.72637	34.52
0.74303	34.52
0.75970	34.52
0.77637	34.52
0.79303	34.52
0.80970	34.52
0.82637	34.52
0.84303	34.52
0.85970	34.52
0.87637	34.52
0.89303	34.52
0.90970	34.52
0.92637	34.52
0.94303	34.52
0.95970	34.52
0.97637	34.52
0.99303	34.52
1.00970	34.52
1.02637	34.52
1.04303	34.52
1.05970	34.52
1.07637	34.52
1.09303	34.52
1.10970	34.52
1.12637	34.52
1.14303	34.52
1.15970	34.52
1.17637	34.52
1.19303	34.52
1.20970	34.52
1.22637	34.52
1.24303	34.52
1.25970	34.52
1.27637	34.52
1.29303	34.52
1.30970	34.52
1.32637	34.52
1.34303	34.52
1.35970	34.52
1.37637	34.52
1.39303	34.52
1.40970	34.52
1.42637	34.52
1.44303	34.52
1.45970	34.52
1.47637	34.52
1.49303	34.52
1.50970	34.52
1.52637	34.52
1.54303	34.52
1.55970	34.52
1.57637	34.52
1.59303	34.52
1.60970	34.52
1.62637	34.52
1.64303	34.52
1.65970	34.52
1.67637	34.52
1.69303	34.52
1.70970	34.52
1.72637	34.52
1.74303	34.52
1.75970	34.53
1.77637	34.52
1.79303	34.52
1.80970	34.52
1.82637	34.52
1.84303	34.52
1.85970	34.52
1.87637	34.52
1.89303	34.52
1.90970	34.52
1.92637	34.52
1.94303	34.52
1.95970	34.52
1.97637	34.52
1.99303	34.52
2.00970	34.52
2.02637	34.52
2.04303	34.52
2.05970	34.52
2.07637	34.52
2.09303	34.52
2.10970	34.52
2.12637	34.52
2.14303	34.52
2.15970	34.52
2.17637	34.52
2.19303	34.52
2.20970	34.52
2.22637	34.52
2.24303	34.52
2.25970	34.52
2.27637	34.52
2.29303	34.52
2.30970	34.52
2.32637	34.52
2.34303	34.52
2.35970	34.52
2.37637	34.52
2.39303	34.52
2.40970	34.52
2.42637	34.52
2.44303	34.52
2.45970	34.52
2.47637	34.52
2.49303	34.52
2.50970	34.50
2.52637	34.52
2.54303	34.52
2.55970	34.52
2.57637	34.52
2.59303	34.52
2.60970	34.52
2.62637	34.52
2.64303	34.52
2.65970	34.52
2.67637	34.52
2.69303	34.52
2.70970	34.52
2.72637	34.52
2.74303	34.52
2.75970	34.52
2.77637	34.52
2.79303	34.52
2.80970	34.51
2.82637	34.52
2.84303	34.51
2.85970	34.52
2.87637	34.52
2.89303	34.52
2.90970	34.52
2.92637	34.52
2.94303	34.52
2.95970	34.52
2.97637	34.54
2.99303	34.52
3.00970	34.52
3.02637	34.52
3.04303	34.52
3.05970	34.52
3.07637	34.52
3.09303	34.52
3.10970	34.52
3.12637	34.52
3.14303	34.52
3.15970	34.52
3.17637	34.51
3.19303	34.52
3.20970	34.52
3.22637	34.52
3.24303	34.52
3.25970	34.52
3.27637	34.52
3.29303	34.52
3.30970	34.52
3.32637	34.52
3.34303	34.52
3.35970	34.52
3.37637	34.52
3.39303	34.52
3.40970	34.52
3.42637	34.52
3.44303	34.52
3.45970	34.52
3.47637	34.52
3.49303	34.52
3.50970	34.52
3.52637	34.52
3.54303	34.52
3.55970	34.52
3.57637	34.52
3.59303	34.52
3.60970	34.52
3.62637	34.52
3.64303	34.52
3.65970	34.52
3.67637	34.52
3.69303	34.52
3.70970	34.52
3.72637	34.52
3.74303	34.52
3.75970	34.52
3.77637	34.52
3.79303	34.52
3.80970	34.52
3.82637	34.52
3.84303	34.52
3.85970	34.52
3.87637	34.52
3.89303	34.52
3.90970	34.52
3.92637	34.52
3.94303	34.52
3.95970	34.52
3.97637	34.52
3.99303	34.52

[Status Trace (Column Flow)]
Interval(msec)	1000
# of Points	240
Start Time(min)	0.010
End Time(min)	3.993
Intensity Units	
Intensity Multiplier	1
R.Time (min)	Intensity
0.00970	5.48
0.02637	5.17
0.04303	5.40
0.05970	5.65
0.07637	5.64
0.09303	5.49
0.10970	5.48
0.12637	5.49
0.14303	5.48
0.15970	5.48
0.17637	5.48
0.19303	5.48
0.20970	5.48
0.22637	5.48
0.24303	5.48
0.25970	5.48
0.27637	5.48
0.29303	5.48
0.30970	5.48
0.32637	5.48
0.34303	5.48
0.35970	5.48
0.37637	5.48
0.39303	5.48
0.40970	5.48
0.42637	5.48
0.44303	5.48
0.45970	5.48
0.47637	5.48
0.49303	5.48
0.50970	5.48
0.52637	5.48
0.54303	5.48
0.55970	5.48
0.57637	5.48
0.59303	5.48
0.60970	5.48
0.62637	5.48
0.64303	5.48
0.65970	5.48
0.67637	5.48
0.69303	5.48
0.70970	5.48
0.72637	5.48
0.74303	5.48
0.75970	5.48
0.77637	5.48
0.79303	5.48
0.80970	5.48
0.82637	5.48
0.84303	5.48
0.85970	5.48
0.87637	5.48
0.89303	5.48
0.90970	5.48
0.92637	5.48
0.94303	5.48
0.95970	5.48
0.97637	5.48
0.99303	5.48
1.00970	5.48
1.02637	5.48
1.04303	5.48
1.05970	5.48
1.07637	5.48
1.09303	5.48
1.10970	5.48
1.12637	5.48
1.14303	5.48
1.15970	5.48
1.17637	5.48
1.19303	5.48
1.20970	5.48
1.22637	5.48
1.24303	5.48
1.25970	5.48
1.27637	5.48
1.29303	5.48
1.30970	5.48
1.32637	5.48
1.34303	5.48
1.35970	5.48
1.37637	5.48
1.39303	5.48
1.40970	5.48
1.42637	5.48
1.44303	5.48
1.45970	5.48
1.47637	5.48
1.49303	5.48
1.50970	5.48
1.52637	5.48
1.54303	5.48
1.55970	5.48
1.57637	5.48
1.59303	5.48
1.60970	5.48
1.62637	5.48
1.64303	5.47
1.65970	5.46
1.67637	5.45
1.69303	5.44
1.70970	5.43
1.72637	5.42
1.74303	5.41
1.75970	5.40
1.77637	5.39
1.79303	5.38
1.80970	5.37
1.82637	5.36
1.84303	5.35
1.85970	5.34
1.87637	5.33
1.89303	5.32
1.90970	5.31
1.92637	5.30
1.94303	5.29
1.95970	5.28
1.97637	5.27
1.99303	5.26
2.00970	5.25
2.02637	5.24
2.04303	5.23
2.05970	5.22
2.07637	5.21
2.09303	5.20
2.10970	5.19
2.12637	5.19
2.14303	5.18
2.15970	5.17
2.17637	5.16
2.19303	5.15
2.20970	5.14
2.22637	5.13
2.24303	5.12
2.25970	5.11
2.27637	5.10
2.29303	5.09
2.30970	5.08
2.32637	5.08
2.34303	5.07
2.35970	5.06
2.37637	5.05
2.39303	5.05
2.40970	5.05
2.42637	5.05
2.44303	5.05
2.45970	5.05
2.47637	5.05
2.49303	5.05
2.50970	5.05
2.52637	5.05
2.54303	5.05
2.55970	5.05
2.57637	5.05
2.59303	5.05
2.60970	5.05
2.62637	5.05
2.64303	5.05
2.65970	5.05
2.67637	5.05
2.69303	5.05
2.70970	5.05
2.72637	5.05
2.74303	5.05
2.75970	5.05
2.77637	5.05
2.79303	5.05
2.80970	5.05
2.82637	5.05
2.84303	5.05
2.85970	5.05
2.87637	5.05
2.89303	5.05
2.90970	5.05
2.92637	5.05
2.94303	5.05
2.95970	5.05
2.97637	5.05
2.99303	5.04
3.00970	5.04
3.02637	5.04
3.04303	5.04
3.05970	5.04
3.07637	5.04
3.09303	5.04
3.10970	5.04
3.12637	5.04
3.14303	5.04
3.15970	5.04
3.17637	5.04
3.19303	5.04
3.20970	5.04
3.22637	5.04
3.24303	5.04
3.25970	5.04
3.27637	5.04
3.29303	5.04
3.30970	5.04
3.32637	5.04
3.34303	5.04
3.35970	5.04
3.37637	5.04
3.39303	5.04
3.40970	5.04
3.42637	5.04
3.44303	5.04
3.45970	5.04
3.47637	5.04
3.49303	5.04
3.50970	5.04
3.52637	5.04
3.54303	5.04
3.55970	5.04
3.57637	5.04
3.59303	5.04
3.60970	5.04
3.62637	5.04
3.64303	5.04
3.65970	5.04
3.67637	5.04
3.69303	5.04
3.70970	5.04
3.72637	5.04
3.74303	5.04
3.75970	5.04
3.77637	5.04
3.79303	5.04
3.80970	5.04
3.82637	5.04
3.84303	5.04
3.85970	5.04
3.87637	5.04
3.89303	5.04
3.90970	5.04
3.92637	5.04
3.94303	5.04
3.95970	5.04
3.97637	5.04
3.99303	5.04

[Status Trace (Linear Velocity)]
Interval(msec)	1000
# of Points	240
Start Time(min)	0.010
End Time(min)	3.993
Intensity Units	
Intensity Multiplier	1
R.Time (min)	Intensity
0.00970	39.01
0.02637	37.19
0.04303	38.55
0.05970	39.94
0.07637	39.89
0.09303	39.03
0.10970	39.00
0.12637	39.01
0.14303	39.01
0.15970	39.01
0.17637	39.01
0.19303	39.01
0.20970	39.01
0.22637	39.01
0.24303	39.01
0.25970	39.01
0.27637	39.01
0.29303	39.01
0.30970	39.01
0.32637	39.01
0.34303	39.01
0.35970	39.01
0.37637	39.01
0.39303	39.01
0.40970	39.01
0.42637	39.01
0.44303	39.01
0.45970	39.01
0.47637	39.01
0.49303	39.01
0.50970	39.01
0.52637	39.01
0.54303	39.01
0.55970	39.01
0.57637	39.01
0.59303	39.01
0.60970	39.01
0.62637	39.01
0.64303	39.01
0.65970	39.01
0.67637	39.01
0.69303	39.01
0.70970	39.01
0.72637	39.01
0.74303	39.01
0.75970	39.01
0.77637	39.01
0.79303	39.01
0.80970	39.01
0.82637	39.01
0.84303	39.01
0.85970	39.01
0.87637	39.01
0.89303	39.01
0.90970	39.01
0.92637	39.01
0.94303	39.01
0.95970	39.01
0.97637	39.01
0.99303	39.01
1.00970	39.01
1.02637	39.01
1.04303	39.01
1.05970	39.01
1.07637	39.01
1.09303	39.01
1.10970	39.01
1.12637	39.01
1.14303	39.01
1.15970	39.01
1.17637	39.01
1.19303	39.01
1.20970	39.01
1.22637	39.01
1.24303	39.01
1.25970	39.01
1.27637	39.01
1.29303	39.01
1.30970	39.01
1.32637	39.01
1.34303	39.01
1.35970	39.01
1.37637	39.01
1.39303	39.01
1.40970	39.01
1.42637	39.01
1.44303	39.01
1.45970	39.01
1.47637	39.01
1.49303	39.01
1.50970	39.01
1.52637	39.01
1.54303	39.01
1.55970	39.01
1.57637	39.01
1.59303	39.01
1.60970	39.00
1.62637	38.99
1.64303	38.97
1.65970	38.95
1.67637	38.92
1.69303	38.88
1.70970	38.85
1.72637	38.82
1.74303	38.78
1.75970	38.75
1.77637	38.72
1.79303	38.69
1.80970	38.65
1.82637	38.63
1.84303	38.59
1.85970	38.56
1.87637	38.53
1.89303	38.50
1.90970	38.47
1.92637	38.44
1.94303	38.41
1.95970	38.38
1.97637	38.35
1.99303	38.32
2.00970	38.29
2.02637	38.26
2.04303	38.23
2.05970	38.20
2.07637	38.17
2.09303	38.14
2.10970	38.11
2.12637	38.08
2.14303	38.05
2.15970	38.02
2.17637	37.99
2.19303	37.96
2.20970	37.93
2.22637	37.91
2.24303	37.87
2.25970	37.84
2.27637	37.82
2.29303	37.79
2.30970	37.75
2.32637	37.73
2.34303	37.70
2.35970	37.67
2.37637	37.65
2.39303	37.64
2.40970	37.64
2.42637	37.65
2.44303	37.65
2.45970	37.65
2.47637	37.64
2.49303	37.64
2.50970	37.64
2.52637	37.63
2.54303	37.64
2.55970	37.64
2.57637	37.64
2.59303	37.64
2.60970	37.64
2.62637	37.64
2.64303	37.64
2.65970	37.64
2.67637	37.64
2.69303	37.64
2.70970	37.64
2.72637	37.64
2.74303	37.64
2.75970	37.64
2.77637	37.63
2.79303	37.63
2.80970	37.64
2.82637	37.64
2.84303	37.64
2.85970	37.64
2.87637	37.64
2.89303	37.64
2.90970	37.63
2.92637	37.63
2.94303	37.63
2.95970	37.63
2.97637	37.63
2.99303	37.63
3.00970	37.63
3.02637	37.63
3.04303	37.62
3.05970	37.63
3.07637	37.62
3.09303	37.62
3.10970	37.62
3.12637	37.62
3.14303	37.62
3.15970	37.62
3.17637	37.62
3.19303	37.62
3.20970	37.62
3.22637	37.62
3.24303	37.62
3.25970	37.62
3.27637	37.62
3.29303	37.61
3.30970	37.61
3.32637	37.61
3.34303	37.62
3.35970	37.62
3.37637	37.62
3.39303	37.62
3.40970	37.62
3.42637	37.62
3.44303	37.62
3.45970	37.62
3.47637	37.62
3.49303	37.62
3.50970	37.62
3.52637	37.62
3.54303	37.62
3.55970	37.62
3.57637	37.62
3.59303	37.62
3.60970	37.62
3.62637	37.62
3.64303	37.62
3.65970	37.62
3.67637	37.62
3.69303	37.62
3.70970	37.62
3.72637	37.62
3.74303	37.62
3.75970	37.62
3.77637	37.62
3.79303	37.62
3.80970	37.62
3.82637	37.62
3.84303	37.62
3.85970	37.62
3.87637	37.62
3.89303	37.62
3.90970	37.62
3.92637	37.62
3.94303	37.62
3.95970	37.62
3.97637	37.62
3.99303	37.62

