[Header]
Application Name	LabSolutions
Version	5.110
Data File Name	C:\Users\User\Desktop\GC Analyses\Jack\UIC Prairie Sampling\10.19.22\221019_061.gcd
Output Date	1/4/2023
Output Time	2:27:24 PM

[File Information]
Type	Data File
Generated	12/7/2022 12:58:47 PM
Generated by	System Administrator
Modified	12/7/2022 1:03:13 PM
Modified by	System Administrator

[Sample Information]
Operator Name	System Administrator
Acquired	12/7/2022 12:59:13 PM
Sample Type	1:Standard
Level	1
Sample Name	221019_UICPrairie
Sample ID	221019_UICPrairie
ISTD Amount1	1
ISTD Amount2	1
ISTD Amount3	1
ISTD Amount4	1
ISTD Amount5	1
ISTD Amount6	1
ISTD Amount7	1
ISTD Amount8	1
ISTD Amount9	1
ISTD Amount10	1
ISTD Amount11	1
ISTD Amount12	1
ISTD Amount13	1
ISTD Amount14	1
ISTD Amount15	1
ISTD Amount16	1
ISTD Amount17	1
ISTD Amount18	1
ISTD Amount19	1
ISTD Amount20	1
ISTD Amount21	1
ISTD Amount22	1
ISTD Amount23	1
ISTD Amount24	1
ISTD Amount25	1
ISTD Amount26	1
ISTD Amount27	1
ISTD Amount28	1
ISTD Amount29	1
ISTD Amount30	1
ISTD Amount31	1
ISTD Amount32	1
Sample Amount	1
Dilution Factor	1
Vial#	1
Injection Volume	1
Injection Count	1
Bar Code	

[Original Files]
Data File	C:\Users\User\Desktop\GC Analyses\Jack\UIC Prairie Sampling\10.19.22\221019_061.gcd
Method File	C:\LabSolutions\Data\GHG_4min_2022\ghg3_togas_w_acet_4 min_new_int.gcm
Batch File	
Report Format File	c:\LabSolutions\System\DEFAULT.lsr

[File Description]


[Configuration]
Instrument Name	C0B7VH3-Instrument1
Instrument #	1
Line #	1
# of Detectors	3
Detector ID	DET#1	DET#2	DET#3
Detector Name	FID	PTCD	ECD
# of Channels	1	1	1

[Peak Table(Ch1)]
# of Peaks	3
Peak#	R.Time	I.Time	F.Time	Area	Height	A/H	Conc.	Mark	ID#	Name	k'	Plate #	Plate Ht.	Tailing	Resolution	Sep.Factor	Area Ratio	Height Ratio	Conc. %	Norm Conc.
1	1.476	1.432	1.534	10060	4339	2.318	100.000	   	1	CO	0.000	7966	18.829	1.292	0.000	0.000	0	0	16.667	16.667
2	1.567	1.534	1.630	4612	2233	2.066	100.000	 V 	2	CH4	0.062	10511	14.271	0.000	1.440	0.000	0	0	16.667	16.667
3	1.996	1.949	2.506	1229964	575499	2.137	400.000	   	3	CO2	0.353	17287	8.677	1.263	7.040	5.680	0	0	66.667	66.667

[Peak Table(Ch2)]
# of Peaks	0

[Peak Table(Ch3)]
# of Peaks	5
Peak#	R.Time	I.Time	F.Time	Area	Height	A/H	Conc.	Mark	ID#	Name	k'	Plate #	Plate Ht.	Tailing	Resolution	Sep.Factor	Area Ratio	Height Ratio	Conc. %	Norm Conc.
1	2.462	2.348	2.499	1453	428	3.392	0.000	   			0.000	9048	16.579	0.000	0.000	0.000	0	0	0.000	0.000
2	2.513	2.499	2.557	858	298	2.881	0.000	 V 			0.021	3377	44.418	0.000	0.371	0.000	0	0	0.000	0.000
3	2.605	2.557	2.653	1087	302	3.603	0.000	 V 			0.058	6620	22.658	0.000	0.609	2.786	0	0	0.000	0.000
4	2.792	2.689	2.825	4876	864	5.645	0.102	   	1	N2O	0.134	328	456.972	0.000	0.502	2.308	0	0	10.246	10.246
5	2.880	2.825	3.760	42716	5872	7.275	0.898	 V 	1	N2O	0.170	10726	13.985	0.000	0.242	1.267	0	0	89.754	89.754

[Compound Results(Ch1)]
# of IDs	6
ID#	Name	R.Time	Area	Height	Conc.	Curve	3rd	2nd	1st	Constant	Area Ratio	Height Ratio	Conc. %	Norm Conc.
1	CO	1.476	10060	4339	100.000	Linear	0.000000e+00	0.000000e+00	1.006002e+002	0.000000e+00	0	0	16.667	16.667
2	CH4	1.567	4612	2233	100.000	Linear	0.000000e+00	0.000000e+00	4.611887e+001	0.000000e+00	0	0	16.667	16.667
3	CO2	1.996	1229964	575499	400.000	Linear	0.000000e+00	0.000000e+00	3.074911e+003	0.000000e+00	0	0	66.667	66.667
4	Ethylene	0.000	0	0	0.000	Linear	0.000000e+00	0.000000e+00	0.000000e+00	0.000000e+00	0	0	0.000	0.000
5	Acetylene	0.000	0	0	0.000	Linear	0.000000e+00	0.000000e+00	0.000000e+00	0.000000e+00	0	0	0.000	0.000
6	Ethane	0.000	0	0	0.000	Linear	0.000000e+00	0.000000e+00	0.000000e+00	0.000000e+00	0	0	0.000	0.000

[Compound Results(Ch2)]
# of IDs	5
ID#	Name	R.Time	Area	Height	Conc.	Curve	3rd	2nd	1st	Constant	Area Ratio	Height Ratio	Conc. %	Norm Conc.
1	Hydrogen	0.000	0	0	0.000	Linear	0.000000e+00	0.000000e+00	0.000000e+00	0.000000e+00	0	0	0.000	0.000
2	Oxygen	0.000	0	0	0.000	Linear	0.000000e+00	0.000000e+00	0.000000e+00	0.000000e+00	0	0	0.000	0.000
3	Nitrogen	0.000	0	0	0.000	Linear	0.000000e+00	0.000000e+00	0.000000e+00	0.000000e+00	0	0	0.000	0.000
4	Methane	0.000	0	0	0.000	Linear	0.000000e+00	0.000000e+00	0.000000e+00	0.000000e+00	0	0	0.000	0.000
5	Carbon Monoxide	0.000	0	0	0.000	Linear	0.000000e+00	0.000000e+00	0.000000e+00	0.000000e+00	0	0	0.000	0.000

[Compound Results(Ch3)]
# of IDs	2
ID#	Name	R.Time	Area	Height	Conc.	Curve	3rd	2nd	1st	Constant	Area Ratio	Height Ratio	Conc. %	Norm Conc.
1	N2O	2.880	47592	6736	1.000	Linear	0.000000e+00	0.000000e+00	4.759221e+004	0.000000e+00	0	0	100.000	100.000
2	SF6	0.000	0	0	0.000	Linear	0.000000e+00	0.000000e+00	0.000000e+00	0.000000e+00	0	0	0.000	0.000

[Group Results(Ch1)]
# of Groups	0

[Group Results(Ch2)]
# of Groups	0

[Group Results(Ch3)]
# of Groups	0

[Chromatogram (Ch1)]
Interval(msec)	220
# of Points	1091
Start Time(min)	0.002
End Time(min)	3.998
R.Time (min)	Intensity
0.00167	16
0.00533	23
0.00900	25
0.01267	22
0.01633	17
0.02000	13
0.02367	7
0.02733	4
0.03100	7
0.03467	13
0.03833	18
0.04200	23
0.04567	25
0.04933	21
0.05300	13
0.05667	6
0.06033	2
0.06400	-1
0.06767	-2
0.07133	-5
0.07500	-8
0.07867	-13
0.08233	-16
0.08600	-14
0.08967	-9
0.09333	-3
0.09700	3
0.10067	7
0.10433	7
0.10800	3
0.11167	-4
0.11533	-10
0.11900	-9
0.12267	-8
0.12633	-10
0.13000	-13
0.13367	-21
0.13733	-27
0.14100	-30
0.14467	-30
0.14833	-28
0.15200	-20
0.15567	-10
0.15933	-3
0.16300	-1
0.16667	-3
0.17033	-8
0.17400	-8
0.17767	-7
0.18133	-10
0.18500	-14
0.18867	-19
0.19233	-21
0.19600	-25
0.19967	-27
0.20333	-30
0.20700	-32
0.21067	-30
0.21433	-25
0.21800	-22
0.22167	-22
0.22533	-21
0.22900	-22
0.23267	-23
0.23633	-24
0.24000	-21
0.24367	-17
0.24733	-12
0.25100	-7
0.25467	-3
0.25833	-2
0.26200	-2
0.26567	-2
0.26933	-1
0.27300	-2
0.27667	-7
0.28033	-15
0.28400	-24
0.28767	-34
0.29133	-45
0.29500	-57
0.29867	-61
0.30233	-57
0.30600	-56
0.30967	-50
0.31333	-44
0.31700	-43
0.32067	-47
0.32433	-52
0.32800	-54
0.33167	-51
0.33533	-44
0.33900	-34
0.34267	-27
0.34633	-28
0.35000	-31
0.35367	-33
0.35733	-36
0.36100	-40
0.36467	-45
0.36833	-48
0.37200	-44
0.37567	-39
0.37933	-37
0.38300	-36
0.38667	-35
0.39033	-33
0.39400	-31
0.39767	-32
0.40133	-40
0.40500	-50
0.40867	-53
0.41233	-53
0.41600	-51
0.41967	-49
0.42333	-52
0.42700	-55
0.43067	-56
0.43433	-54
0.43800	-51
0.44167	-51
0.44533	-54
0.44900	-57
0.45267	-56
0.45633	-56
0.46000	-56
0.46367	-57
0.46733	-55
0.47100	-50
0.47467	-44
0.47833	-39
0.48200	-36
0.48567	-36
0.48933	-41
0.49300	-46
0.49667	-49
0.50033	-48
0.50400	-45
0.50767	-41
0.51133	-39
0.51500	-40
0.51867	-42
0.52233	-44
0.52600	-45
0.52967	-48
0.53333	-51
0.53700	-55
0.54067	-59
0.54433	-60
0.54800	-58
0.55167	-57
0.55533	-59
0.55900	-63
0.56267	-68
0.56633	-69
0.57000	-68
0.57367	-67
0.57733	-63
0.58100	-60
0.58467	-56
0.58833	-53
0.59200	-54
0.59567	-52
0.59933	-50
0.60300	-50
0.60667	-51
0.61033	-52
0.61400	-52
0.61767	-51
0.62133	-51
0.62500	-52
0.62867	-56
0.63233	-60
0.63600	-66
0.63967	-71
0.64333	-75
0.64700	-77
0.65067	-76
0.65433	-74
0.65800	-72
0.66167	-72
0.66533	-74
0.66900	-76
0.67267	-77
0.67633	-76
0.68000	-73
0.68367	-70
0.68733	-65
0.69100	-59
0.69467	-56
0.69833	-56
0.70200	-60
0.70567	-65
0.70933	-69
0.71300	-70
0.71667	-69
0.72033	-66
0.72400	-65
0.72767	-69
0.73133	-75
0.73500	-75
0.73867	-72
0.74233	-71
0.74600	-73
0.74967	-79
0.75333	-85
0.75700	-89
0.76067	-90
0.76433	-91
0.76800	-88
0.77167	-81
0.77533	-72
0.77900	-67
0.78267	-69
0.78633	-76
0.79000	-85
0.79367	-92
0.79733	-96
0.80100	-96
0.80467	-97
0.80833	-96
0.81200	-95
0.81567	-92
0.81933	-87
0.82300	-85
0.82667	-87
0.83033	-90
0.83400	-89
0.83767	-89
0.84133	-90
0.84500	-93
0.84867	-100
0.85233	-106
0.85600	-106
0.85967	-102
0.86333	-97
0.86700	-92
0.87067	-88
0.87433	-89
0.87800	-93
0.88167	-96
0.88533	-98
0.88900	-98
0.89267	-97
0.89633	-94
0.90000	-88
0.90367	-81
0.90733	-77
0.91100	-76
0.91467	-77
0.91833	-79
0.92200	-79
0.92567	-78
0.92933	-80
0.93300	-81
0.93667	-81
0.94033	-84
0.94400	-92
0.94767	-100
0.95133	-102
0.95500	-98
0.95867	-94
0.96233	-90
0.96600	-87
0.96967	-84
0.97333	-84
0.97700	-87
0.98067	-89
0.98433	-90
0.98800	-92
0.99167	-91
0.99533	-86
0.99900	-82
1.00267	-80
1.00633	-80
1.01000	-81
1.01367	-82
1.01733	-88
1.02100	-101
1.02467	-117
1.02833	-128
1.03200	-131
1.03567	-127
1.03933	-121
1.04300	-114
1.04667	-109
1.05033	-105
1.05400	-104
1.05767	-102
1.06133	-98
1.06500	-95
1.06867	-97
1.07233	-104
1.07600	-112
1.07967	-116
1.08333	-119
1.08700	-120
1.09067	-118
1.09433	-113
1.09800	-108
1.10167	-100
1.10533	-91
1.10900	-83
1.11267	-81
1.11633	-81
1.12000	-85
1.12367	-91
1.12733	-96
1.13100	-99
1.13467	-104
1.13833	-110
1.14200	-115
1.14567	-121
1.14933	-123
1.15300	-122
1.15667	-123
1.16033	-125
1.16400	-128
1.16767	-131
1.17133	-134
1.17500	-136
1.17867	-134
1.18233	-129
1.18600	-123
1.18967	-117
1.19333	-116
1.19700	-118
1.20067	-119
1.20433	-116
1.20800	-112
1.21167	-109
1.21533	-107
1.21900	-104
1.22267	-103
1.22633	-105
1.23000	-110
1.23367	-114
1.23733	-120
1.24100	-125
1.24467	-126
1.24833	-126
1.25200	-122
1.25567	-116
1.25933	-113
1.26300	-115
1.26667	-120
1.27033	-126
1.27400	-132
1.27767	-136
1.28133	-139
1.28500	-140
1.28867	-138
1.29233	-134
1.29600	-132
1.29967	-134
1.30333	-137
1.30700	-139
1.31067	-138
1.31433	-136
1.31800	-133
1.32167	-131
1.32533	-133
1.32900	-137
1.33267	-138
1.33633	-135
1.34000	-131
1.34367	-127
1.34733	-123
1.35100	-118
1.35467	-118
1.35833	-122
1.36200	-126
1.36567	-130
1.36933	-132
1.37300	-129
1.37667	-126
1.38033	-123
1.38400	-123
1.38767	-126
1.39133	-126
1.39500	-125
1.39867	-122
1.40233	-116
1.40600	-111
1.40967	-113
1.41333	-120
1.41700	-131
1.42067	-141
1.42433	-146
1.42800	-144
1.43167	-139
1.43533	-128
1.43900	-90
1.44267	34
1.44633	265
1.45000	607
1.45367	1120
1.45733	1807
1.46100	2549
1.46467	3216
1.46833	3735
1.47200	4074
1.47567	4200
1.47933	4080
1.48300	3721
1.48667	3187
1.49033	2579
1.49400	1992
1.49767	1486
1.50133	1084
1.50500	776
1.50867	545
1.51233	376
1.51600	256
1.51967	175
1.52333	117
1.52700	75
1.53067	44
1.53433	21
1.53800	23
1.54167	98
1.54533	302
1.54900	640
1.55267	1050
1.55633	1445
1.56000	1769
1.56367	1993
1.56733	2092
1.57100	2037
1.57467	1827
1.57833	1504
1.58200	1143
1.58567	808
1.58933	537
1.59300	337
1.59667	195
1.60033	92
1.60400	18
1.60767	-31
1.61133	-64
1.61500	-89
1.61867	-109
1.62233	-123
1.62600	-134
1.62967	-142
1.63333	-146
1.63700	-147
1.64067	-145
1.64433	-142
1.64800	-142
1.65167	-140
1.65533	-139
1.65900	-138
1.66267	-136
1.66633	-135
1.67000	-135
1.67367	-136
1.67733	-137
1.68100	-138
1.68467	-142
1.68833	-145
1.69200	-148
1.69567	-152
1.69933	-156
1.70300	-157
1.70667	-158
1.71033	-160
1.71400	-161
1.71767	-160
1.72133	-157
1.72500	-152
1.72867	-147
1.73233	-144
1.73600	-144
1.73967	-147
1.74333	-149
1.74700	-152
1.75067	-156
1.75433	-157
1.75800	-155
1.76167	-152
1.76533	-150
1.76900	-153
1.77267	-157
1.77633	-160
1.78000	-161
1.78367	-161
1.78733	-160
1.79100	-159
1.79467	-156
1.79833	-151
1.80200	-149
1.80567	-150
1.80933	-153
1.81300	-158
1.81667	-162
1.82033	-162
1.82400	-160
1.82767	-160
1.83133	-162
1.83500	-163
1.83867	-162
1.84233	-161
1.84600	-161
1.84967	-162
1.85333	-160
1.85700	-159
1.86067	-158
1.86433	-156
1.86800	-150
1.87167	-147
1.87533	-150
1.87900	-153
1.88267	-153
1.88633	-149
1.89000	-142
1.89367	-138
1.89733	-137
1.90100	-136
1.90467	-133
1.90833	-131
1.91200	-130
1.91567	-134
1.91933	-141
1.92300	-143
1.92667	-142
1.93033	-141
1.93400	-142
1.93767	-143
1.94133	-143
1.94500	-145
1.94867	-142
1.95233	-111
1.95600	88
1.95967	1130
1.96333	5367
1.96700	18458
1.97067	49671
1.97433	107996
1.97800	194791
1.98167	299927
1.98533	405936
1.98900	495235
1.99267	554468
1.99633	575392
2.00000	555930
2.00367	501451
2.00733	424114
2.01100	338781
2.01467	258118
2.01833	189760
2.02200	136225
2.02567	96586
2.02933	68344
2.03300	48704
2.03667	35233
2.04033	26043
2.04400	19757
2.04767	15421
2.05133	12386
2.05500	10221
2.05867	8643
2.06233	7466
2.06600	6569
2.06967	5869
2.07333	5309
2.07700	4844
2.08067	4451
2.08433	4118
2.08800	3829
2.09167	3571
2.09533	3338
2.09900	3135
2.10267	2957
2.10633	2799
2.11000	2660
2.11367	2536
2.11733	2423
2.12100	2319
2.12467	2223
2.12833	2132
2.13200	2042
2.13567	1954
2.13933	1872
2.14300	1801
2.14667	1737
2.15033	1677
2.15400	1621
2.15767	1566
2.16133	1510
2.16500	1459
2.16867	1414
2.17233	1375
2.17600	1338
2.17967	1301
2.18333	1262
2.18700	1223
2.19067	1186
2.19433	1154
2.19800	1124
2.20167	1096
2.20533	1071
2.20900	1046
2.21267	1022
2.21633	1001
2.22000	977
2.22367	954
2.22733	934
2.23100	912
2.23467	888
2.23833	861
2.24200	832
2.24567	805
2.24933	783
2.25300	766
2.25667	753
2.26033	741
2.26400	729
2.26767	718
2.27133	704
2.27500	689
2.27867	675
2.28233	662
2.28600	648
2.28967	636
2.29333	627
2.29700	619
2.30067	607
2.30433	594
2.30800	583
2.31167	573
2.31533	561
2.31900	550
2.32267	540
2.32633	526
2.33000	513
2.33367	506
2.33733	504
2.34100	503
2.34467	498
2.34833	487
2.35200	474
2.35567	461
2.35933	450
2.36300	444
2.36667	439
2.37033	432
2.37400	426
2.37767	422
2.38133	420
2.38500	417
2.38867	412
2.39233	406
2.39600	400
2.39967	393
2.40333	386
2.40700	378
2.41067	372
2.41433	368
2.41800	366
2.42167	365
2.42533	366
2.42900	368
2.43267	365
2.43633	358
2.44000	348
2.44367	335
2.44733	323
2.45100	313
2.45467	307
2.45833	304
2.46200	302
2.46567	304
2.46933	306
2.47300	308
2.47667	307
2.48033	308
2.48400	309
2.48767	307
2.49133	299
2.49500	288
2.49867	277
2.50233	269
2.50600	266
2.50967	264
2.51333	260
2.51700	258
2.52067	256
2.52433	253
2.52800	252
2.53167	255
2.53533	259
2.53900	260
2.54267	254
2.54633	247
2.55000	242
2.55367	236
2.55733	228
2.56100	218
2.56467	209
2.56833	200
2.57200	192
2.57567	188
2.57933	184
2.58300	180
2.58667	179
2.59033	180
2.59400	182
2.59767	183
2.60133	181
2.60500	179
2.60867	177
2.61233	175
2.61600	173
2.61967	173
2.62333	173
2.62700	171
2.63067	174
2.63433	177
2.63800	177
2.64167	175
2.64533	170
2.64900	162
2.65267	158
2.65633	159
2.66000	160
2.66367	161
2.66733	162
2.67100	160
2.67467	155
2.67833	146
2.68200	136
2.68567	127
2.68933	124
2.69300	124
2.69667	123
2.70033	123
2.70400	127
2.70767	128
2.71133	126
2.71500	120
2.71867	113
2.72233	109
2.72600	106
2.72967	107
2.73333	109
2.73700	109
2.74067	105
2.74433	101
2.74800	96
2.75167	92
2.75533	87
2.75900	83
2.76267	77
2.76633	75
2.77000	79
2.77367	81
2.77733	82
2.78100	83
2.78467	82
2.78833	80
2.79200	78
2.79567	77
2.79933	81
2.80300	86
2.80667	88
2.81033	87
2.81400	84
2.81767	83
2.82133	83
2.82500	82
2.82867	80
2.83233	78
2.83600	79
2.83967	75
2.84333	67
2.84700	58
2.85067	57
2.85433	56
2.85800	54
2.86167	52
2.86533	50
2.86900	50
2.87267	48
2.87633	47
2.88000	48
2.88367	49
2.88733	52
2.89100	57
2.89467	59
2.89833	57
2.90200	53
2.90567	46
2.90933	38
2.91300	33
2.91667	27
2.92033	25
2.92400	26
2.92767	28
2.93133	30
2.93500	30
2.93867	32
2.94233	35
2.94600	39
2.94967	45
2.95333	47
2.95700	46
2.96067	44
2.96433	40
2.96800	34
2.97167	28
2.97533	23
2.97900	19
2.98267	18
2.98633	17
2.99000	17
2.99367	17
2.99733	19
3.00100	19
3.00467	20
3.00833	23
3.01200	27
3.01567	34
3.01933	36
3.02300	33
3.02667	27
3.03033	21
3.03400	19
3.03767	19
3.04133	17
3.04500	12
3.04867	7
3.05233	6
3.05600	3
3.05967	-0
3.06333	-3
3.06700	-4
3.07067	1
3.07433	5
3.07800	4
3.08167	1
3.08533	-4
3.08900	-6
3.09267	-2
3.09633	6
3.10000	13
3.10367	16
3.10733	15
3.11100	13
3.11467	10
3.11833	8
3.12200	6
3.12567	4
3.12933	1
3.13300	-4
3.13667	-11
3.14033	-19
3.14400	-26
3.14767	-30
3.15133	-30
3.15500	-30
3.15867	-31
3.16233	-35
3.16600	-39
3.16967	-44
3.17333	-47
3.17700	-46
3.18067	-42
3.18433	-37
3.18800	-35
3.19167	-37
3.19533	-38
3.19900	-37
3.20267	-36
3.20633	-36
3.21000	-39
3.21367	-42
3.21733	-42
3.22100	-42
3.22467	-41
3.22833	-40
3.23200	-39
3.23567	-40
3.23933	-42
3.24300	-43
3.24667	-41
3.25033	-40
3.25400	-43
3.25767	-52
3.26133	-62
3.26500	-69
3.26867	-66
3.27233	-57
3.27600	-49
3.27967	-43
3.28333	-43
3.28700	-46
3.29067	-48
3.29433	-48
3.29800	-44
3.30167	-43
3.30533	-46
3.30900	-49
3.31267	-52
3.31633	-54
3.32000	-54
3.32367	-50
3.32733	-45
3.33100	-42
3.33467	-40
3.33833	-37
3.34200	-35
3.34567	-39
3.34933	-47
3.35300	-55
3.35667	-62
3.36033	-63
3.36400	-62
3.36767	-61
3.37133	-59
3.37500	-53
3.37867	-46
3.38233	-41
3.38600	-42
3.38967	-46
3.39333	-48
3.39700	-54
3.40067	-61
3.40433	-67
3.40800	-69
3.41167	-67
3.41533	-64
3.41900	-60
3.42267	-53
3.42633	-48
3.43000	-46
3.43367	-48
3.43733	-54
3.44100	-60
3.44467	-66
3.44833	-71
3.45200	-75
3.45567	-81
3.45933	-84
3.46300	-84
3.46667	-80
3.47033	-76
3.47400	-75
3.47767	-76
3.48133	-77
3.48500	-78
3.48867	-78
3.49233	-78
3.49600	-78
3.49967	-76
3.50333	-74
3.50700	-76
3.51067	-80
3.51433	-83
3.51800	-80
3.52167	-79
3.52533	-77
3.52900	-74
3.53267	-69
3.53633	-64
3.54000	-61
3.54367	-60
3.54733	-63
3.55100	-67
3.55467	-70
3.55833	-69
3.56200	-65
3.56567	-60
3.56933	-59
3.57300	-58
3.57667	-54
3.58033	-49
3.58400	-45
3.58767	-43
3.59133	-45
3.59500	-52
3.59867	-58
3.60233	-62
3.60600	-65
3.60967	-67
3.61333	-67
3.61700	-70
3.62067	-75
3.62433	-77
3.62800	-76
3.63167	-76
3.63533	-78
3.63900	-84
3.64267	-92
3.64633	-98
3.65000	-97
3.65367	-92
3.65733	-84
3.66100	-75
3.66467	-67
3.66833	-63
3.67200	-62
3.67567	-63
3.67933	-66
3.68300	-67
3.68667	-68
3.69033	-68
3.69400	-69
3.69767	-72
3.70133	-77
3.70500	-84
3.70867	-87
3.71233	-86
3.71600	-85
3.71967	-86
3.72333	-88
3.72700	-92
3.73067	-96
3.73433	-99
3.73800	-98
3.74167	-95
3.74533	-92
3.74900	-94
3.75267	-101
3.75633	-104
3.76000	-103
3.76367	-99
3.76733	-93
3.77100	-90
3.77467	-92
3.77833	-99
3.78200	-103
3.78567	-104
3.78933	-106
3.79300	-105
3.79667	-102
3.80033	-99
3.80400	-96
3.80767	-96
3.81133	-97
3.81500	-96
3.81867	-95
3.82233	-96
3.82600	-99
3.82967	-102
3.83333	-103
3.83700	-100
3.84067	-97
3.84433	-93
3.84800	-88
3.85167	-83
3.85533	-83
3.85900	-88
3.86267	-95
3.86633	-103
3.87000	-109
3.87367	-110
3.87733	-108
3.88100	-105
3.88467	-101
3.88833	-99
3.89200	-98
3.89567	-93
3.89933	-86
3.90300	-83
3.90667	-82
3.91033	-84
3.91400	-88
3.91767	-89
3.92133	-86
3.92500	-82
3.92867	-80
3.93233	-79
3.93600	-78
3.93967	-78
3.94333	-84
3.94700	-90
3.95067	-96
3.95433	-103
3.95800	-109
3.96167	-110
3.96533	-109
3.96900	-105
3.97267	-97
3.97633	-90
3.98000	-87
3.98367	-90
3.98733	-94
3.99100	-96
3.99467	-99
3.99833	-105

[Chromatogram (Ch2)]
Interval(msec)	220
# of Points	1091
Start Time(min)	0.002
End Time(min)	3.998
R.Time (min)	Intensity
0.00167	0
0.00533	0
0.00900	1
0.01267	1
0.01633	1
0.02000	1
0.02367	1
0.02733	1
0.03100	1
0.03467	1
0.03833	1
0.04200	1
0.04567	1
0.04933	1
0.05300	1
0.05667	1
0.06033	1
0.06400	1
0.06767	1
0.07133	1
0.07500	1
0.07867	2
0.08233	2
0.08600	2
0.08967	2
0.09333	2
0.09700	2
0.10067	2
0.10433	2
0.10800	3
0.11167	3
0.11533	3
0.11900	3
0.12267	3
0.12633	3
0.13000	3
0.13367	3
0.13733	3
0.14100	3
0.14467	3
0.14833	3
0.15200	3
0.15567	2
0.15933	2
0.16300	2
0.16667	2
0.17033	2
0.17400	2
0.17767	1
0.18133	1
0.18500	1
0.18867	1
0.19233	1
0.19600	1
0.19967	1
0.20333	1
0.20700	1
0.21067	1
0.21433	1
0.21800	2
0.22167	2
0.22533	1
0.22900	2
0.23267	2
0.23633	2
0.24000	2
0.24367	2
0.24733	2
0.25100	1
0.25467	1
0.25833	1
0.26200	1
0.26567	1
0.26933	1
0.27300	1
0.27667	1
0.28033	1
0.28400	1
0.28767	1
0.29133	1
0.29500	2
0.29867	2
0.30233	2
0.30600	1
0.30967	1
0.31333	1
0.31700	1
0.32067	0
0.32433	-0
0.32800	-0
0.33167	-0
0.33533	-0
0.33900	-0
0.34267	-0
0.34633	-1
0.35000	-1
0.35367	-0
0.35733	-0
0.36100	-1
0.36467	-1
0.36833	-1
0.37200	-1
0.37567	-1
0.37933	-1
0.38300	-1
0.38667	-1
0.39033	-1
0.39400	-1
0.39767	-1
0.40133	-1
0.40500	-0
0.40867	-0
0.41233	-0
0.41600	-0
0.41967	-0
0.42333	0
0.42700	0
0.43067	1
0.43433	1
0.43800	1
0.44167	1
0.44533	2
0.44900	2
0.45267	2
0.45633	2
0.46000	2
0.46367	2
0.46733	2
0.47100	2
0.47467	2
0.47833	2
0.48200	2
0.48567	2
0.48933	1
0.49300	1
0.49667	1
0.50033	1
0.50400	1
0.50767	1
0.51133	1
0.51500	1
0.51867	1
0.52233	1
0.52600	1
0.52967	1
0.53333	1
0.53700	1
0.54067	1
0.54433	1
0.54800	1
0.55167	1
0.55533	1
0.55900	1
0.56267	1
0.56633	1
0.57000	1
0.57367	1
0.57733	1
0.58100	1
0.58467	1
0.58833	1
0.59200	1
0.59567	1
0.59933	1
0.60300	0
0.60667	0
0.61033	-0
0.61400	-0
0.61767	-0
0.62133	-0
0.62500	-0
0.62867	-0
0.63233	-0
0.63600	-0
0.63967	-0
0.64333	-0
0.64700	0
0.65067	0
0.65433	1
0.65800	1
0.66167	1
0.66533	2
0.66900	2
0.67267	3
0.67633	3
0.68000	3
0.68367	3
0.68733	3
0.69100	3
0.69467	2
0.69833	2
0.70200	2
0.70567	2
0.70933	2
0.71300	2
0.71667	2
0.72033	2
0.72400	2
0.72767	1
0.73133	1
0.73500	1
0.73867	0
0.74233	0
0.74600	0
0.74967	0
0.75333	1
0.75700	1
0.76067	1
0.76433	1
0.76800	0
0.77167	0
0.77533	0
0.77900	0
0.78267	0
0.78633	0
0.79000	0
0.79367	0
0.79733	0
0.80100	-0
0.80467	0
0.80833	0
0.81200	0
0.81567	0
0.81933	0
0.82300	0
0.82667	0
0.83033	0
0.83400	0
0.83767	-0
0.84133	-0
0.84500	-1
0.84867	-1
0.85233	-1
0.85600	-1
0.85967	-1
0.86333	-1
0.86700	-1
0.87067	-1
0.87433	-0
0.87800	-0
0.88167	0
0.88533	0
0.88900	1
0.89267	1
0.89633	1
0.90000	1
0.90367	1
0.90733	0
0.91100	0
0.91467	0
0.91833	-0
0.92200	-0
0.92567	-0
0.92933	-0
0.93300	-1
0.93667	-1
0.94033	-1
0.94400	-1
0.94767	-1
0.95133	-0
0.95500	-0
0.95867	-0
0.96233	-0
0.96600	-0
0.96967	-0
0.97333	-0
0.97700	-0
0.98067	-0
0.98433	-1
0.98800	-1
0.99167	-1
0.99533	-1
0.99900	-1
1.00267	-1
1.00633	-1
1.01000	-1
1.01367	-1
1.01733	-1
1.02100	-1
1.02467	-1
1.02833	-1
1.03200	-2
1.03567	-2
1.03933	-2
1.04300	-2
1.04667	-2
1.05033	-2
1.05400	-1
1.05767	-1
1.06133	-1
1.06500	-1
1.06867	-1
1.07233	-1
1.07600	-1
1.07967	-1
1.08333	-1
1.08700	-1
1.09067	-1
1.09433	-1
1.09800	-1
1.10167	-1
1.10533	-1
1.10900	-1
1.11267	-1
1.11633	-1
1.12000	-1
1.12367	-1
1.12733	-1
1.13100	-1
1.13467	-1
1.13833	-1
1.14200	-1
1.14567	-1
1.14933	-1
1.15300	-1
1.15667	-0
1.16033	-0
1.16400	-0
1.16767	0
1.17133	0
1.17500	0
1.17867	0
1.18233	-0
1.18600	-0
1.18967	-1
1.19333	-1
1.19700	-1
1.20067	-1
1.20433	-2
1.20800	-2
1.21167	-2
1.21533	-2
1.21900	-2
1.22267	-1
1.22633	-1
1.23000	-1
1.23367	-1
1.23733	-1
1.24100	-1
1.24467	-1
1.24833	-1
1.25200	-1
1.25567	-1
1.25933	-1
1.26300	-1
1.26667	-1
1.27033	-1
1.27400	-1
1.27767	-1
1.28133	-1
1.28500	-1
1.28867	-1
1.29233	-1
1.29600	-1
1.29967	-1
1.30333	-1
1.30700	-1
1.31067	-2
1.31433	-2
1.31800	-2
1.32167	-2
1.32533	-2
1.32900	-2
1.33267	-2
1.33633	-2
1.34000	-2
1.34367	-2
1.34733	-2
1.35100	-2
1.35467	-2
1.35833	-1
1.36200	-1
1.36567	-1
1.36933	-1
1.37300	-1
1.37667	-1
1.38033	-2
1.38400	-2
1.38767	-2
1.39133	-2
1.39500	-2
1.39867	-2
1.40233	-2
1.40600	-2
1.40967	-2
1.41333	-2
1.41700	-2
1.42067	-2
1.42433	-2
1.42800	-3
1.43167	-3
1.43533	-4
1.43900	-4
1.44267	-4
1.44633	-4
1.45000	-4
1.45367	-5
1.45733	-5
1.46100	-5
1.46467	-5
1.46833	-6
1.47200	-6
1.47567	-6
1.47933	-6
1.48300	-6
1.48667	-6
1.49033	-6
1.49400	-6
1.49767	-6
1.50133	-6
1.50500	-6
1.50867	-5
1.51233	-5
1.51600	-5
1.51967	-5
1.52333	-4
1.52700	-4
1.53067	-4
1.53433	-3
1.53800	-3
1.54167	-2
1.54533	-2
1.54900	-2
1.55267	-2
1.55633	-1
1.56000	-1
1.56367	-1
1.56733	-1
1.57100	-1
1.57467	-0
1.57833	-0
1.58200	-0
1.58567	-0
1.58933	-0
1.59300	-1
1.59667	-1
1.60033	-2
1.60400	-3
1.60767	-4
1.61133	-5
1.61500	-7
1.61867	-10
1.62233	-12
1.62600	-15
1.62967	-18
1.63333	-22
1.63700	-26
1.64067	-29
1.64433	-33
1.64800	-37
1.65167	-41
1.65533	-44
1.65900	-48
1.66267	-51
1.66633	-55
1.67000	-59
1.67367	-63
1.67733	-67
1.68100	-73
1.68467	-78
1.68833	-82
1.69200	-87
1.69567	-90
1.69933	-94
1.70300	-96
1.70667	-99
1.71033	-100
1.71400	-102
1.71767	-103
1.72133	-104
1.72500	-105
1.72867	-106
1.73233	-107
1.73600	-109
1.73967	-110
1.74333	-111
1.74700	-112
1.75067	-112
1.75433	-113
1.75800	-113
1.76167	-114
1.76533	-114
1.76900	-115
1.77267	-116
1.77633	-116
1.78000	-117
1.78367	-118
1.78733	-118
1.79100	-119
1.79467	-119
1.79833	-119
1.80200	-118
1.80567	-117
1.80933	-117
1.81300	-116
1.81667	-116
1.82033	-115
1.82400	-115
1.82767	-115
1.83133	-116
1.83500	-116
1.83867	-117
1.84233	-118
1.84600	-118
1.84967	-119
1.85333	-119
1.85700	-119
1.86067	-119
1.86433	-119
1.86800	-119
1.87167	-119
1.87533	-118
1.87900	-118
1.88267	-118
1.88633	-117
1.89000	-117
1.89367	-117
1.89733	-117
1.90100	-116
1.90467	-116
1.90833	-116
1.91200	-116
1.91567	-116
1.91933	-116
1.92300	-116
1.92667	-116
1.93033	-116
1.93400	-116
1.93767	-116
1.94133	-116
1.94500	-116
1.94867	-116
1.95233	-115
1.95600	-114
1.95967	-114
1.96333	-113
1.96700	-113
1.97067	-112
1.97433	-112
1.97800	-112
1.98167	-112
1.98533	-112
1.98900	-111
1.99267	-111
1.99633	-111
2.00000	-111
2.00367	-111
2.00733	-111
2.01100	-111
2.01467	-110
2.01833	-110
2.02200	-110
2.02567	-110
2.02933	-110
2.03300	-110
2.03667	-109
2.04033	-109
2.04400	-109
2.04767	-109
2.05133	-109
2.05500	-109
2.05867	-109
2.06233	-108
2.06600	-108
2.06967	-108
2.07333	-108
2.07700	-107
2.08067	-107
2.08433	-107
2.08800	-106
2.09167	-106
2.09533	-106
2.09900	-105
2.10267	-104
2.10633	-104
2.11000	-104
2.11367	-104
2.11733	-104
2.12100	-104
2.12467	-104
2.12833	-104
2.13200	-103
2.13567	-102
2.13933	-101
2.14300	-100
2.14667	-100
2.15033	-99
2.15400	-98
2.15767	-98
2.16133	-98
2.16500	-98
2.16867	-98
2.17233	-98
2.17600	-98
2.17967	-97
2.18333	-98
2.18700	-98
2.19067	-98
2.19433	-99
2.19800	-99
2.20167	-100
2.20533	-100
2.20900	-100
2.21267	-100
2.21633	-98
2.22000	-97
2.22367	-96
2.22733	-95
2.23100	-95
2.23467	-94
2.23833	-94
2.24200	-94
2.24567	-94
2.24933	-94
2.25300	-93
2.25667	-93
2.26033	-92
2.26400	-91
2.26767	-91
2.27133	-90
2.27500	-90
2.27867	-90
2.28233	-90
2.28600	-90
2.28967	-90
2.29333	-89
2.29700	-89
2.30067	-89
2.30433	-88
2.30800	-88
2.31167	-87
2.31533	-87
2.31900	-87
2.32267	-87
2.32633	-86
2.33000	-85
2.33367	-85
2.33733	-84
2.34100	-82
2.34467	-81
2.34833	-80
2.35200	-79
2.35567	-78
2.35933	-78
2.36300	-77
2.36667	-76
2.37033	-75
2.37400	-73
2.37767	-71
2.38133	-68
2.38500	-65
2.38867	-62
2.39233	-59
2.39600	-55
2.39967	-51
2.40333	-47
2.40700	-43
2.41067	-38
2.41433	-34
2.41800	-30
2.42167	-27
2.42533	-23
2.42900	-21
2.43267	-18
2.43633	-16
2.44000	-14
2.44367	-12
2.44733	-10
2.45100	-8
2.45467	-6
2.45833	-4
2.46200	-3
2.46567	-2
2.46933	-0
2.47300	1
2.47667	2
2.48033	3
2.48400	4
2.48767	6
2.49133	7
2.49500	8
2.49867	9
2.50233	9
2.50600	10
2.50967	10
2.51333	10
2.51700	11
2.52067	11
2.52433	12
2.52800	13
2.53167	13
2.53533	14
2.53900	15
2.54267	15
2.54633	16
2.55000	16
2.55367	16
2.55733	16
2.56100	17
2.56467	17
2.56833	18
2.57200	18
2.57567	18
2.57933	18
2.58300	18
2.58667	18
2.59033	18
2.59400	17
2.59767	17
2.60133	17
2.60500	18
2.60867	18
2.61233	18
2.61600	19
2.61967	19
2.62333	19
2.62700	20
2.63067	20
2.63433	20
2.63800	20
2.64167	20
2.64533	21
2.64900	21
2.65267	22
2.65633	22
2.66000	22
2.66367	23
2.66733	23
2.67100	23
2.67467	23
2.67833	23
2.68200	23
2.68567	23
2.68933	23
2.69300	23
2.69667	23
2.70033	23
2.70400	24
2.70767	24
2.71133	24
2.71500	25
2.71867	25
2.72233	25
2.72600	25
2.72967	25
2.73333	25
2.73700	25
2.74067	25
2.74433	24
2.74800	25
2.75167	25
2.75533	25
2.75900	25
2.76267	26
2.76633	26
2.77000	27
2.77367	27
2.77733	28
2.78100	28
2.78467	29
2.78833	29
2.79200	29
2.79567	30
2.79933	30
2.80300	29
2.80667	29
2.81033	28
2.81400	28
2.81767	27
2.82133	27
2.82500	26
2.82867	26
2.83233	26
2.83600	26
2.83967	26
2.84333	26
2.84700	26
2.85067	25
2.85433	23
2.85800	20
2.86167	15
2.86533	7
2.86900	-4
2.87267	-18
2.87633	-36
2.88000	-58
2.88367	-84
2.88733	-114
2.89100	-147
2.89467	-184
2.89833	-225
2.90200	-268
2.90567	-313
2.90933	-361
2.91300	-410
2.91667	-460
2.92033	-511
2.92400	-562
2.92767	-613
2.93133	-664
2.93500	-715
2.93867	-764
2.94233	-813
2.94600	-864
2.94967	-919
2.95333	-979
2.95700	-1039
2.96067	-1086
2.96433	-1111
2.96800	-1110
2.97167	-1083
2.97533	-1035
2.97900	-971
2.98267	-896
2.98633	-816
2.99000	-735
2.99367	-655
2.99733	-579
3.00100	-508
3.00467	-443
3.00833	-384
3.01200	-332
3.01567	-285
3.01933	-244
3.02300	-208
3.02667	-177
3.03033	-149
3.03400	-126
3.03767	-106
3.04133	-88
3.04500	-73
3.04867	-61
3.05233	-50
3.05600	-40
3.05967	-32
3.06333	-25
3.06700	-19
3.07067	-14
3.07433	-9
3.07800	-5
3.08167	-2
3.08533	1
3.08900	4
3.09267	6
3.09633	8
3.10000	9
3.10367	11
3.10733	12
3.11100	13
3.11467	13
3.11833	14
3.12200	15
3.12567	15
3.12933	16
3.13300	16
3.13667	17
3.14033	17
3.14400	17
3.14767	18
3.15133	18
3.15500	18
3.15867	19
3.16233	19
3.16600	20
3.16967	20
3.17333	20
3.17700	20
3.18067	21
3.18433	21
3.18800	21
3.19167	21
3.19533	21
3.19900	21
3.20267	21
3.20633	21
3.21000	21
3.21367	21
3.21733	22
3.22100	22
3.22467	22
3.22833	22
3.23200	22
3.23567	22
3.23933	22
3.24300	23
3.24667	23
3.25033	23
3.25400	23
3.25767	23
3.26133	23
3.26500	23
3.26867	23
3.27233	23
3.27600	24
3.27967	24
3.28333	24
3.28700	24
3.29067	24
3.29433	25
3.29800	25
3.30167	25
3.30533	25
3.30900	25
3.31267	25
3.31633	25
3.32000	25
3.32367	25
3.32733	26
3.33100	26
3.33467	26
3.33833	26
3.34200	26
3.34567	26
3.34933	26
3.35300	26
3.35667	26
3.36033	26
3.36400	26
3.36767	26
3.37133	26
3.37500	26
3.37867	26
3.38233	26
3.38600	27
3.38967	27
3.39333	27
3.39700	27
3.40067	27
3.40433	28
3.40800	28
3.41167	28
3.41533	28
3.41900	28
3.42267	28
3.42633	29
3.43000	29
3.43367	29
3.43733	29
3.44100	29
3.44467	30
3.44833	30
3.45200	30
3.45567	30
3.45933	30
3.46300	30
3.46667	30
3.47033	30
3.47400	30
3.47767	30
3.48133	30
3.48500	30
3.48867	30
3.49233	30
3.49600	30
3.49967	30
3.50333	30
3.50700	30
3.51067	30
3.51433	30
3.51800	30
3.52167	30
3.52533	30
3.52900	30
3.53267	30
3.53633	30
3.54000	30
3.54367	30
3.54733	30
3.55100	30
3.55467	30
3.55833	30
3.56200	30
3.56567	30
3.56933	30
3.57300	30
3.57667	30
3.58033	30
3.58400	30
3.58767	29
3.59133	29
3.59500	29
3.59867	29
3.60233	29
3.60600	29
3.60967	28
3.61333	28
3.61700	28
3.62067	28
3.62433	28
3.62800	28
3.63167	28
3.63533	28
3.63900	28
3.64267	28
3.64633	28
3.65000	28
3.65367	29
3.65733	29
3.66100	28
3.66467	28
3.66833	28
3.67200	28
3.67567	28
3.67933	28
3.68300	28
3.68667	28
3.69033	28
3.69400	28
3.69767	28
3.70133	27
3.70500	27
3.70867	27
3.71233	27
3.71600	27
3.71967	27
3.72333	27
3.72700	27
3.73067	27
3.73433	27
3.73800	27
3.74167	27
3.74533	28
3.74900	28
3.75267	28
3.75633	28
3.76000	28
3.76367	28
3.76733	28
3.77100	28
3.77467	28
3.77833	28
3.78200	28
3.78567	28
3.78933	28
3.79300	28
3.79667	28
3.80033	28
3.80400	28
3.80767	28
3.81133	28
3.81500	28
3.81867	28
3.82233	28
3.82600	28
3.82967	28
3.83333	28
3.83700	28
3.84067	28
3.84433	28
3.84800	28
3.85167	28
3.85533	28
3.85900	28
3.86267	28
3.86633	28
3.87000	28
3.87367	28
3.87733	28
3.88100	28
3.88467	28
3.88833	27
3.89200	27
3.89567	27
3.89933	27
3.90300	27
3.90667	27
3.91033	27
3.91400	27
3.91767	27
3.92133	28
3.92500	28
3.92867	28
3.93233	28
3.93600	28
3.93967	28
3.94333	28
3.94700	28
3.95067	28
3.95433	28
3.95800	29
3.96167	29
3.96533	29
3.96900	29
3.97267	29
3.97633	29
3.98000	28
3.98367	28
3.98733	28
3.99100	29
3.99467	29
3.99833	29

[Chromatogram (Ch3)]
Interval(msec)	220
# of Points	1091
Start Time(min)	0.002
End Time(min)	3.998
R.Time (min)	Intensity
0.00167	-1
0.00533	-3
0.00900	-5
0.01267	-4
0.01633	-5
0.02000	-7
0.02367	-8
0.02733	-7
0.03100	-6
0.03467	-5
0.03833	-5
0.04200	-2
0.04567	-0
0.04933	3
0.05300	2
0.05667	-3
0.06033	-8
0.06400	-10
0.06767	-8
0.07133	-7
0.07500	-6
0.07867	-5
0.08233	-1
0.08600	1
0.08967	1
0.09333	-1
0.09700	-4
0.10067	-3
0.10433	-1
0.10800	-0
0.11167	-1
0.11533	-2
0.11900	-3
0.12267	-3
0.12633	-2
0.13000	-1
0.13367	0
0.13733	2
0.14100	1
0.14467	-0
0.14833	-2
0.15200	-1
0.15567	1
0.15933	2
0.16300	3
0.16667	6
0.17033	8
0.17400	8
0.17767	6
0.18133	5
0.18500	3
0.18867	0
0.19233	0
0.19600	1
0.19967	2
0.20333	2
0.20700	2
0.21067	4
0.21433	4
0.21800	4
0.22167	3
0.22533	5
0.22900	6
0.23267	3
0.23633	3
0.24000	5
0.24367	5
0.24733	4
0.25100	3
0.25467	1
0.25833	1
0.26200	1
0.26567	1
0.26933	4
0.27300	5
0.27667	3
0.28033	2
0.28400	0
0.28767	1
0.29133	1
0.29500	2
0.29867	2
0.30233	2
0.30600	2
0.30967	2
0.31333	4
0.31700	5
0.32067	4
0.32433	2
0.32800	1
0.33167	2
0.33533	4
0.33900	4
0.34267	4
0.34633	5
0.35000	6
0.35367	5
0.35733	4
0.36100	4
0.36467	6
0.36833	7
0.37200	9
0.37567	9
0.37933	7
0.38300	5
0.38667	5
0.39033	5
0.39400	5
0.39767	5
0.40133	4
0.40500	6
0.40867	8
0.41233	9
0.41600	9
0.41967	6
0.42333	3
0.42700	0
0.43067	-0
0.43433	1
0.43800	2
0.44167	3
0.44533	3
0.44900	3
0.45267	0
0.45633	-1
0.46000	-0
0.46367	-2
0.46733	-2
0.47100	-1
0.47467	2
0.47833	3
0.48200	4
0.48567	3
0.48933	3
0.49300	2
0.49667	4
0.50033	6
0.50400	7
0.50767	7
0.51133	6
0.51500	4
0.51867	3
0.52233	1
0.52600	-0
0.52967	-0
0.53333	0
0.53700	2
0.54067	7
0.54433	7
0.54800	5
0.55167	3
0.55533	3
0.55900	2
0.56267	3
0.56633	6
0.57000	7
0.57367	7
0.57733	4
0.58100	3
0.58467	3
0.58833	3
0.59200	1
0.59567	-1
0.59933	-1
0.60300	1
0.60667	1
0.61033	-1
0.61400	-1
0.61767	3
0.62133	7
0.62500	8
0.62867	8
0.63233	7
0.63600	4
0.63967	3
0.64333	2
0.64700	4
0.65067	5
0.65433	6
0.65800	4
0.66167	3
0.66533	2
0.66900	1
0.67267	-1
0.67633	-2
0.68000	-3
0.68367	-4
0.68733	-4
0.69100	-3
0.69467	-4
0.69833	-5
0.70200	-4
0.70567	-2
0.70933	-1
0.71300	-1
0.71667	-2
0.72033	0
0.72400	-0
0.72767	-3
0.73133	-3
0.73500	-1
0.73867	1
0.74233	3
0.74600	2
0.74967	1
0.75333	-1
0.75700	-3
0.76067	-5
0.76433	-5
0.76800	-5
0.77167	-3
0.77533	-1
0.77900	-2
0.78267	-2
0.78633	0
0.79000	-0
0.79367	-1
0.79733	-2
0.80100	-3
0.80467	-3
0.80833	-5
0.81200	-6
0.81567	-5
0.81933	-3
0.82300	-0
0.82667	-1
0.83033	-4
0.83400	-3
0.83767	0
0.84133	1
0.84500	-0
0.84867	-2
0.85233	-3
0.85600	-3
0.85967	-3
0.86333	-1
0.86700	-0
0.87067	-1
0.87433	-2
0.87800	-2
0.88167	-4
0.88533	-3
0.88900	-2
0.89267	0
0.89633	2
0.90000	2
0.90367	-0
0.90733	-2
0.91100	-2
0.91467	-3
0.91833	-4
0.92200	-5
0.92567	-4
0.92933	-3
0.93300	-3
0.93667	-2
0.94033	-1
0.94400	0
0.94767	2
0.95133	2
0.95500	2
0.95867	1
0.96233	-0
0.96600	-0
0.96967	1
0.97333	-0
0.97700	-4
0.98067	-6
0.98433	-6
0.98800	-5
0.99167	-7
0.99533	-12
0.99900	-12
1.00267	-10
1.00633	-8
1.01000	-8
1.01367	-9
1.01733	-9
1.02100	-8
1.02467	-8
1.02833	-7
1.03200	-5
1.03567	-5
1.03933	-5
1.04300	-5
1.04667	-5
1.05033	-5
1.05400	-7
1.05767	-7
1.06133	-6
1.06500	-6
1.06867	-5
1.07233	-4
1.07600	-4
1.07967	-3
1.08333	-2
1.08700	-1
1.09067	-2
1.09433	-2
1.09800	-3
1.10167	-3
1.10533	-5
1.10900	-6
1.11267	-6
1.11633	-7
1.12000	-7
1.12367	-7
1.12733	-5
1.13100	-5
1.13467	-6
1.13833	-7
1.14200	-8
1.14567	-10
1.14933	-9
1.15300	-7
1.15667	-6
1.16033	-5
1.16400	-5
1.16767	-3
1.17133	-1
1.17500	-0
1.17867	-1
1.18233	-3
1.18600	-4
1.18967	-6
1.19333	-7
1.19700	-7
1.20067	-6
1.20433	-5
1.20800	-5
1.21167	-5
1.21533	-6
1.21900	-8
1.22267	-11
1.22633	-11
1.23000	-11
1.23367	-12
1.23733	-13
1.24100	-12
1.24467	-11
1.24833	-11
1.25200	-8
1.25567	-6
1.25933	-5
1.26300	-5
1.26667	-7
1.27033	-7
1.27400	-7
1.27767	-9
1.28133	-9
1.28500	-12
1.28867	-14
1.29233	-13
1.29600	-11
1.29967	-11
1.30333	-11
1.30700	-11
1.31067	-12
1.31433	-11
1.31800	-10
1.32167	-10
1.32533	-10
1.32900	-11
1.33267	-10
1.33633	-8
1.34000	-7
1.34367	-7
1.34733	-9
1.35100	-11
1.35467	-12
1.35833	-7
1.36200	-4
1.36567	-5
1.36933	-6
1.37300	-10
1.37667	-13
1.38033	-13
1.38400	-11
1.38767	-11
1.39133	-12
1.39500	-13
1.39867	-14
1.40233	-12
1.40600	-9
1.40967	-8
1.41333	-10
1.41700	-9
1.42067	-5
1.42433	-5
1.42800	-6
1.43167	-5
1.43533	-4
1.43900	-3
1.44267	-3
1.44633	-4
1.45000	-6
1.45367	-8
1.45733	-9
1.46100	-9
1.46467	-9
1.46833	-10
1.47200	-11
1.47567	-13
1.47933	-16
1.48300	-15
1.48667	-16
1.49033	-17
1.49400	-17
1.49767	-13
1.50133	-10
1.50500	-7
1.50867	-7
1.51233	-7
1.51600	-7
1.51967	-8
1.52333	-10
1.52700	-11
1.53067	-9
1.53433	-7
1.53800	-6
1.54167	-7
1.54533	-9
1.54900	-10
1.55267	-11
1.55633	-12
1.56000	-14
1.56367	-16
1.56733	-16
1.57100	-13
1.57467	-11
1.57833	-6
1.58200	-4
1.58567	-6
1.58933	-7
1.59300	-7
1.59667	-9
1.60033	-12
1.60400	-12
1.60767	-10
1.61133	-8
1.61500	-7
1.61867	-7
1.62233	-9
1.62600	-11
1.62967	-11
1.63333	-10
1.63700	-8
1.64067	-9
1.64433	-12
1.64800	-15
1.65167	-17
1.65533	-17
1.65900	-16
1.66267	-15
1.66633	-12
1.67000	-11
1.67367	-12
1.67733	-10
1.68100	-9
1.68467	-9
1.68833	-9
1.69200	-8
1.69567	-5
1.69933	-3
1.70300	-1
1.70667	1
1.71033	3
1.71400	3
1.71767	4
1.72133	4
1.72500	3
1.72867	3
1.73233	5
1.73600	6
1.73967	5
1.74333	6
1.74700	7
1.75067	7
1.75433	5
1.75800	3
1.76167	3
1.76533	1
1.76900	1
1.77267	1
1.77633	2
1.78000	3
1.78367	3
1.78733	3
1.79100	3
1.79467	5
1.79833	7
1.80200	8
1.80567	8
1.80933	4
1.81300	3
1.81667	5
1.82033	7
1.82400	8
1.82767	11
1.83133	10
1.83500	10
1.83867	11
1.84233	13
1.84600	14
1.84967	15
1.85333	16
1.85700	17
1.86067	17
1.86433	16
1.86800	16
1.87167	14
1.87533	13
1.87900	14
1.88267	17
1.88633	19
1.89000	18
1.89367	17
1.89733	17
1.90100	18
1.90467	18
1.90833	19
1.91200	23
1.91567	23
1.91933	25
1.92300	27
1.92667	28
1.93033	29
1.93400	29
1.93767	29
1.94133	28
1.94500	29
1.94867	29
1.95233	30
1.95600	29
1.95967	27
1.96333	28
1.96700	31
1.97067	32
1.97433	33
1.97800	32
1.98167	33
1.98533	33
1.98900	35
1.99267	35
1.99633	34
2.00000	34
2.00367	34
2.00733	33
2.01100	32
2.01467	33
2.01833	37
2.02200	40
2.02567	44
2.02933	46
2.03300	47
2.03667	48
2.04033	48
2.04400	48
2.04767	47
2.05133	47
2.05500	49
2.05867	50
2.06233	51
2.06600	52
2.06967	53
2.07333	53
2.07700	54
2.08067	54
2.08433	52
2.08800	53
2.09167	56
2.09533	58
2.09900	57
2.10267	56
2.10633	55
2.11000	57
2.11367	61
2.11733	63
2.12100	64
2.12467	64
2.12833	65
2.13200	66
2.13567	68
2.13933	69
2.14300	70
2.14667	69
2.15033	69
2.15400	69
2.15767	71
2.16133	72
2.16500	75
2.16867	77
2.17233	77
2.17600	74
2.17967	75
2.18333	76
2.18700	77
2.19067	78
2.19433	81
2.19800	83
2.20167	82
2.20533	80
2.20900	80
2.21267	81
2.21633	82
2.22000	82
2.22367	84
2.22733	85
2.23100	87
2.23467	90
2.23833	91
2.24200	89
2.24567	88
2.24933	89
2.25300	91
2.25667	94
2.26033	93
2.26400	93
2.26767	94
2.27133	96
2.27500	97
2.27867	96
2.28233	95
2.28600	97
2.28967	100
2.29333	101
2.29700	101
2.30067	102
2.30433	104
2.30800	106
2.31167	108
2.31533	110
2.31900	110
2.32267	109
2.32633	111
2.33000	113
2.33367	116
2.33733	115
2.34100	114
2.34467	115
2.34833	118
2.35200	121
2.35567	123
2.35933	124
2.36300	125
2.36667	126
2.37033	128
2.37400	127
2.37767	125
2.38133	126
2.38500	125
2.38867	125
2.39233	127
2.39600	131
2.39967	134
2.40333	135
2.40700	135
2.41067	137
2.41433	138
2.41800	140
2.42167	141
2.42533	143
2.42900	147
2.43267	150
2.43633	154
2.44000	157
2.44367	187
2.44733	268
2.45100	361
2.45467	430
2.45833	453
2.46200	450
2.46567	444
2.46933	434
2.47300	418
2.47667	390
2.48033	356
2.48400	320
2.48767	288
2.49133	264
2.49500	250
2.49867	244
2.50233	250
2.50600	262
2.50967	272
2.51333	276
2.51700	272
2.52067	261
2.52433	245
2.52800	222
2.53167	199
2.53533	179
2.53900	164
2.54267	154
2.54633	146
2.55000	138
2.55367	132
2.55733	129
2.56100	128
2.56467	128
2.56833	129
2.57200	133
2.57567	138
2.57933	141
2.58300	149
2.58667	162
2.59033	173
2.59400	187
2.59767	199
2.60133	205
2.60500	203
2.60867	193
2.61233	173
2.61600	147
2.61967	115
2.62333	77
2.62700	38
2.63067	-0
2.63433	-36
2.63800	-68
2.64167	-96
2.64533	-115
2.64900	-130
2.65267	-139
2.65633	-145
2.66000	-149
2.66367	-146
2.66733	-142
2.67100	-137
2.67467	-129
2.67833	-122
2.68200	-119
2.68567	-126
2.68933	-128
2.69300	-114
2.69667	-84
2.70033	-39
2.70400	10
2.70767	60
2.71133	108
2.71500	156
2.71867	204
2.72233	253
2.72600	302
2.72967	350
2.73333	398
2.73700	440
2.74067	476
2.74433	510
2.74800	544
2.75167	581
2.75533	616
2.75900	644
2.76267	668
2.76633	691
2.77000	711
2.77367	728
2.77733	744
2.78100	758
2.78467	767
2.78833	773
2.79200	776
2.79567	776
2.79933	772
2.80300	768
2.80667	762
2.81033	756
2.81400	752
2.81767	748
2.82133	742
2.82500	741
2.82867	751
2.83233	786
2.83600	860
2.83967	995
2.84333	1215
2.84700	1542
2.85067	1980
2.85433	2519
2.85800	3133
2.86167	3779
2.86533	4403
2.86900	4955
2.87267	5393
2.87633	5685
2.88000	5819
2.88367	5807
2.88733	5667
2.89100	5426
2.89467	5113
2.89833	4757
2.90200	4381
2.90567	4002
2.90933	3638
2.91300	3297
2.91667	2981
2.92033	2696
2.92400	2441
2.92767	2215
2.93133	2013
2.93500	1834
2.93867	1680
2.94233	1546
2.94600	1428
2.94967	1326
2.95333	1238
2.95700	1164
2.96067	1101
2.96433	1049
2.96800	1003
2.97167	960
2.97533	922
2.97900	893
2.98267	869
2.98633	849
2.99000	831
2.99367	816
2.99733	801
3.00100	789
3.00467	778
3.00833	773
3.01200	770
3.01567	769
3.01933	767
3.02300	762
3.02667	758
3.03033	755
3.03400	752
3.03767	749
3.04133	747
3.04500	744
3.04867	741
3.05233	741
3.05600	742
3.05967	741
3.06333	743
3.06700	745
3.07067	746
3.07433	748
3.07800	750
3.08167	748
3.08533	747
3.08900	745
3.09267	740
3.09633	735
3.10000	731
3.10367	728
3.10733	728
3.11100	729
3.11467	728
3.11833	725
3.12200	720
3.12567	718
3.12933	716
3.13300	713
3.13667	711
3.14033	709
3.14400	705
3.14767	702
3.15133	700
3.15500	695
3.15867	689
3.16233	684
3.16600	679
3.16967	675
3.17333	669
3.17700	663
3.18067	658
3.18433	655
3.18800	652
3.19167	648
3.19533	644
3.19900	641
3.20267	635
3.20633	631
3.21000	626
3.21367	622
3.21733	621
3.22100	617
3.22467	612
3.22833	611
3.23200	607
3.23567	602
3.23933	596
3.24300	593
3.24667	589
3.25033	586
3.25400	582
3.25767	578
3.26133	572
3.26500	570
3.26867	569
3.27233	568
3.27600	565
3.27967	559
3.28333	553
3.28700	547
3.29067	544
3.29433	541
3.29800	538
3.30167	532
3.30533	528
3.30900	525
3.31267	521
3.31633	519
3.32000	516
3.32367	512
3.32733	507
3.33100	503
3.33467	499
3.33833	496
3.34200	492
3.34567	489
3.34933	487
3.35300	484
3.35667	481
3.36033	479
3.36400	477
3.36767	473
3.37133	469
3.37500	466
3.37867	462
3.38233	459
3.38600	455
3.38967	451
3.39333	448
3.39700	444
3.40067	437
3.40433	433
3.40800	432
3.41167	430
3.41533	429
3.41900	429
3.42267	427
3.42633	424
3.43000	422
3.43367	418
3.43733	414
3.44100	412
3.44467	410
3.44833	407
3.45200	404
3.45567	402
3.45933	399
3.46300	397
3.46667	395
3.47033	392
3.47400	388
3.47767	385
3.48133	382
3.48500	380
3.48867	380
3.49233	380
3.49600	381
3.49967	381
3.50333	377
3.50700	371
3.51067	367
3.51433	363
3.51800	363
3.52167	365
3.52533	366
3.52900	366
3.53267	362
3.53633	358
3.54000	356
3.54367	355
3.54733	356
3.55100	358
3.55467	359
3.55833	361
3.56200	361
3.56567	358
3.56933	353
3.57300	347
3.57667	344
3.58033	345
3.58400	343
3.58767	340
3.59133	338
3.59500	336
3.59867	336
3.60233	336
3.60600	335
3.60967	333
3.61333	329
3.61700	327
3.62067	327
3.62433	325
3.62800	326
3.63167	328
3.63533	328
3.63900	326
3.64267	323
3.64633	321
3.65000	318
3.65367	317
3.65733	317
3.66100	316
3.66467	314
3.66833	312
3.67200	311
3.67567	309
3.67933	309
3.68300	309
3.68667	309
3.69033	309
3.69400	308
3.69767	307
3.70133	306
3.70500	304
3.70867	303
3.71233	302
3.71600	300
3.71967	299
3.72333	300
3.72700	300
3.73067	298
3.73433	297
3.73800	297
3.74167	298
3.74533	299
3.74900	301
3.75267	301
3.75633	299
3.76000	295
3.76367	293
3.76733	294
3.77100	292
3.77467	291
3.77833	291
3.78200	289
3.78567	288
3.78933	287
3.79300	286
3.79667	285
3.80033	284
3.80400	284
3.80767	284
3.81133	285
3.81500	284
3.81867	283
3.82233	282
3.82600	281
3.82967	279
3.83333	277
3.83700	274
3.84067	274
3.84433	274
3.84800	276
3.85167	277
3.85533	275
3.85900	273
3.86267	272
3.86633	270
3.87000	268
3.87367	266
3.87733	264
3.88100	262
3.88467	260
3.88833	257
3.89200	254
3.89567	256
3.89933	257
3.90300	257
3.90667	256
3.91033	256
3.91400	257
3.91767	258
3.92133	257
3.92500	253
3.92867	248
3.93233	244
3.93600	243
3.93967	244
3.94333	247
3.94700	251
3.95067	253
3.95433	252
3.95800	248
3.96167	245
3.96533	243
3.96900	242
3.97267	239
3.97633	237
3.98000	239
3.98367	240
3.98733	240
3.99100	238
3.99467	237
3.99833	233

[Status Trace (Column Oven Temperature)]
Interval(msec)	1000
# of Points	240
Start Time(min)	0.011
End Time(min)	3.994
Intensity Units	
Intensity Multiplier	1
R.Time (min)	Intensity
0.01103	35.02
0.02770	35.02
0.04437	35.01
0.06103	35.00
0.07770	35.00
0.09437	35.00
0.11103	34.99
0.12770	35.00
0.14437	35.00
0.16103	35.00
0.17770	35.00
0.19437	35.00
0.21103	35.00
0.22770	35.01
0.24437	35.01
0.26103	35.02
0.27770	35.01
0.29437	35.01
0.31103	35.01
0.32770	35.01
0.34437	35.01
0.36103	35.03
0.37770	35.03
0.39437	35.03
0.41103	35.02
0.42770	35.01
0.44437	35.01
0.46103	35.00
0.47770	35.00
0.49437	34.99
0.51103	34.99
0.52770	34.99
0.54437	34.99
0.56103	34.99
0.57770	35.00
0.59437	35.00
0.61103	34.99
0.62770	34.99
0.64437	34.99
0.66103	34.99
0.67770	34.99
0.69437	34.98
0.71103	34.98
0.72770	34.98
0.74437	34.98
0.76103	34.98
0.77770	34.98
0.79437	34.98
0.81103	34.98
0.82770	34.99
0.84437	34.99
0.86103	34.99
0.87770	34.99
0.89437	34.98
0.91103	34.99
0.92770	34.98
0.94437	34.99
0.96103	34.99
0.97770	34.98
0.99437	34.99
1.01103	34.99
1.02770	34.99
1.04437	35.00
1.06103	35.00
1.07770	34.99
1.09437	34.99
1.11103	34.99
1.12770	34.99
1.14437	34.99
1.16103	34.99
1.17770	34.99
1.19437	34.98
1.21103	34.99
1.22770	34.99
1.24437	34.99
1.26103	34.99
1.27770	34.99
1.29437	34.99
1.31103	34.99
1.32770	35.01
1.34437	35.00
1.36103	35.00
1.37770	35.00
1.39437	35.00
1.41103	35.01
1.42770	35.01
1.44437	35.01
1.46103	35.02
1.47770	35.04
1.49437	35.06
1.51103	35.07
1.52770	35.06
1.54437	35.05
1.56103	35.05
1.57770	35.04
1.59437	35.06
1.61103	35.12
1.62770	35.26
1.64437	35.46
1.66103	35.70
1.67770	36.04
1.69437	36.39
1.71103	36.73
1.72770	37.07
1.74437	37.41
1.76103	37.74
1.77770	38.09
1.79437	38.42
1.81103	38.72
1.82770	39.03
1.84437	39.37
1.86103	39.70
1.87770	40.03
1.89437	40.35
1.91103	40.68
1.92770	41.01
1.94437	41.34
1.96103	41.67
1.97770	41.99
1.99437	42.32
2.01103	42.65
2.02770	42.97
2.04437	43.29
2.06103	43.61
2.07770	43.93
2.09437	44.26
2.11103	44.59
2.12770	44.92
2.14437	45.22
2.16103	45.55
2.17770	45.88
2.19437	46.25
2.21103	46.57
2.22770	46.89
2.24437	47.23
2.26103	47.55
2.27770	47.91
2.29437	48.25
2.31103	48.59
2.32770	48.90
2.34437	49.21
2.36103	49.50
2.37770	49.65
2.39437	49.69
2.41103	49.67
2.42770	49.69
2.44437	49.70
2.46103	49.70
2.47770	49.71
2.49437	49.70
2.51103	49.73
2.52770	49.75
2.54437	49.76
2.56103	49.78
2.57770	49.80
2.59437	49.81
2.61103	49.80
2.62770	49.81
2.64437	49.82
2.66103	49.82
2.67770	49.83
2.69437	49.84
2.71103	49.84
2.72770	49.85
2.74437	49.87
2.76103	49.87
2.77770	49.86
2.79437	49.85
2.81103	49.87
2.82770	49.88
2.84437	49.89
2.86103	49.90
2.87770	49.91
2.89437	49.92
2.91103	49.93
2.92770	49.94
2.94437	49.95
2.96103	49.96
2.97770	49.97
2.99437	49.98
3.01103	49.98
3.02770	49.98
3.04437	50.00
3.06103	50.00
3.07770	50.00
3.09437	50.00
3.11103	50.00
3.12770	50.02
3.14437	50.02
3.16103	50.02
3.17770	50.02
3.19437	50.03
3.21103	50.05
3.22770	50.05
3.24437	50.06
3.26103	50.07
3.27770	50.08
3.29437	50.08
3.31103	50.09
3.32770	50.09
3.34437	50.09
3.36103	50.10
3.37770	50.10
3.39437	50.11
3.41103	50.11
3.42770	50.10
3.44437	50.08
3.46103	50.07
3.47770	50.06
3.49437	50.06
3.51103	50.05
3.52770	50.05
3.54437	50.05
3.56103	50.04
3.57770	50.04
3.59437	50.03
3.61103	50.04
3.62770	50.04
3.64437	50.04
3.66103	50.04
3.67770	50.05
3.69437	50.06
3.71103	50.06
3.72770	50.06
3.74437	50.06
3.76103	50.05
3.77770	50.05
3.79437	50.06
3.81103	50.05
3.82770	50.05
3.84437	50.05
3.86103	50.05
3.87770	50.05
3.89437	50.05
3.91103	50.06
3.92770	50.06
3.94437	50.06
3.96103	50.06
3.97770	50.07
3.99437	50.07

[Status Trace (Injection Unit Temperature)]
Interval(msec)	1000
# of Points	240
Start Time(min)	0.011
End Time(min)	3.994
Intensity Units	
Intensity Multiplier	1
R.Time (min)	Intensity
0.01103	99.98
0.02770	99.99
0.04437	99.98
0.06103	99.99
0.07770	99.98
0.09437	99.98
0.11103	99.98
0.12770	99.98
0.14437	99.98
0.16103	99.98
0.17770	99.98
0.19437	99.98
0.21103	99.98
0.22770	99.98
0.24437	99.98
0.26103	99.98
0.27770	99.98
0.29437	99.98
0.31103	99.98
0.32770	99.98
0.34437	99.98
0.36103	99.98
0.37770	99.98
0.39437	99.98
0.41103	99.98
0.42770	99.98
0.44437	99.98
0.46103	99.98
0.47770	99.98
0.49437	99.98
0.51103	99.98
0.52770	99.98
0.54437	99.98
0.56103	99.98
0.57770	99.98
0.59437	99.98
0.61103	99.98
0.62770	99.98
0.64437	99.98
0.66103	99.98
0.67770	99.98
0.69437	99.98
0.71103	99.98
0.72770	99.98
0.74437	99.98
0.76103	99.99
0.77770	99.99
0.79437	99.98
0.81103	99.99
0.82770	99.99
0.84437	99.99
0.86103	99.99
0.87770	99.98
0.89437	99.99
0.91103	99.98
0.92770	99.99
0.94437	99.99
0.96103	99.99
0.97770	99.99
0.99437	99.99
1.01103	99.99
1.02770	99.98
1.04437	99.99
1.06103	99.99
1.07770	99.99
1.09437	99.99
1.11103	99.99
1.12770	99.99
1.14437	99.99
1.16103	99.98
1.17770	99.99
1.19437	99.99
1.21103	99.99
1.22770	99.99
1.24437	99.98
1.26103	99.99
1.27770	99.99
1.29437	99.99
1.31103	99.99
1.32770	99.99
1.34437	99.98
1.36103	99.99
1.37770	99.99
1.39437	99.99
1.41103	99.98
1.42770	99.99
1.44437	99.99
1.46103	99.99
1.47770	99.99
1.49437	99.99
1.51103	99.99
1.52770	99.99
1.54437	99.99
1.56103	99.99
1.57770	99.99
1.59437	99.99
1.61103	99.98
1.62770	99.98
1.64437	99.99
1.66103	99.99
1.67770	99.99
1.69437	99.98
1.71103	99.99
1.72770	99.99
1.74437	99.99
1.76103	99.99
1.77770	99.99
1.79437	99.98
1.81103	99.98
1.82770	99.98
1.84437	99.99
1.86103	99.99
1.87770	99.98
1.89437	99.99
1.91103	99.98
1.92770	99.98
1.94437	99.98
1.96103	99.98
1.97770	99.98
1.99437	99.98
2.01103	99.98
2.02770	99.98
2.04437	99.98
2.06103	99.98
2.07770	99.97
2.09437	99.98
2.11103	99.97
2.12770	99.98
2.14437	99.98
2.16103	99.98
2.17770	99.97
2.19437	99.97
2.21103	99.97
2.22770	99.97
2.24437	99.97
2.26103	99.97
2.27770	99.97
2.29437	99.97
2.31103	99.97
2.32770	99.98
2.34437	99.97
2.36103	99.97
2.37770	99.97
2.39437	99.97
2.41103	99.97
2.42770	99.97
2.44437	99.97
2.46103	99.97
2.47770	99.97
2.49437	99.97
2.51103	99.97
2.52770	99.97
2.54437	99.97
2.56103	99.97
2.57770	99.97
2.59437	99.98
2.61103	99.98
2.62770	99.97
2.64437	99.98
2.66103	99.98
2.67770	99.98
2.69437	99.98
2.71103	99.99
2.72770	99.98
2.74437	99.98
2.76103	99.99
2.77770	99.99
2.79437	99.98
2.81103	99.99
2.82770	99.99
2.84437	99.99
2.86103	99.99
2.87770	99.99
2.89437	100.00
2.91103	100.00
2.92770	100.00
2.94437	100.00
2.96103	100.00
2.97770	100.00
2.99437	100.01
3.01103	100.01
3.02770	100.01
3.04437	100.01
3.06103	100.01
3.07770	100.01
3.09437	100.01
3.11103	100.01
3.12770	100.02
3.14437	100.02
3.16103	100.02
3.17770	100.02
3.19437	100.02
3.21103	100.03
3.22770	100.02
3.24437	100.02
3.26103	100.03
3.27770	100.03
3.29437	100.03
3.31103	100.03
3.32770	100.03
3.34437	100.03
3.36103	100.03
3.37770	100.03
3.39437	100.03
3.41103	100.04
3.42770	100.03
3.44437	100.03
3.46103	100.03
3.47770	100.04
3.49437	100.04
3.51103	100.04
3.52770	100.04
3.54437	100.04
3.56103	100.04
3.57770	100.04
3.59437	100.04
3.61103	100.04
3.62770	100.03
3.64437	100.04
3.66103	100.04
3.67770	100.04
3.69437	100.05
3.71103	100.04
3.72770	100.04
3.74437	100.05
3.76103	100.05
3.77770	100.05
3.79437	100.05
3.81103	100.05
3.82770	100.05
3.84437	100.05
3.86103	100.05
3.87770	100.05
3.89437	100.05
3.91103	100.05
3.92770	100.05
3.94437	100.05
3.96103	100.05
3.97770	100.05
3.99437	100.05

[Status Trace (Carrier Gas Pressure)]
Interval(msec)	1000
# of Points	240
Start Time(min)	0.011
End Time(min)	3.994
Intensity Units	
Intensity Multiplier	1
R.Time (min)	Intensity
0.01103	58.00
0.02770	54.97
0.04437	57.43
0.06103	59.52
0.07770	59.14
0.09437	58.03
0.11103	57.99
0.12770	58.01
0.14437	58.01
0.16103	58.01
0.17770	58.00
0.19437	58.00
0.21103	58.00
0.22770	58.00
0.24437	58.00
0.26103	58.00
0.27770	58.00
0.29437	58.00
0.31103	58.00
0.32770	58.00
0.34437	58.00
0.36103	58.00
0.37770	58.00
0.39437	58.00
0.41103	58.00
0.42770	58.00
0.44437	58.00
0.46103	58.00
0.47770	58.00
0.49437	58.00
0.51103	58.00
0.52770	58.00
0.54437	58.00
0.56103	58.00
0.57770	58.00
0.59437	58.00
0.61103	58.00
0.62770	58.00
0.64437	58.00
0.66103	58.00
0.67770	58.00
0.69437	58.00
0.71103	58.00
0.72770	58.00
0.74437	58.00
0.76103	58.00
0.77770	58.00
0.79437	58.00
0.81103	58.00
0.82770	58.00
0.84437	58.00
0.86103	58.00
0.87770	58.00
0.89437	58.00
0.91103	58.00
0.92770	58.00
0.94437	58.00
0.96103	58.00
0.97770	58.00
0.99437	58.00
1.01103	58.00
1.02770	58.00
1.04437	58.00
1.06103	58.00
1.07770	58.00
1.09437	58.00
1.11103	58.00
1.12770	58.00
1.14437	58.00
1.16103	58.00
1.17770	58.00
1.19437	58.00
1.21103	58.00
1.22770	58.00
1.24437	58.00
1.26103	58.00
1.27770	58.00
1.29437	58.00
1.31103	58.00
1.32770	58.00
1.34437	58.00
1.36103	58.00
1.37770	58.00
1.39437	58.00
1.41103	58.00
1.42770	58.00
1.44437	58.00
1.46103	58.00
1.47770	58.00
1.49437	58.00
1.51103	58.00
1.52770	58.00
1.54437	58.00
1.56103	58.00
1.57770	58.00
1.59437	58.00
1.61103	58.00
1.62770	58.01
1.64437	58.00
1.66103	58.00
1.67770	58.01
1.69437	58.00
1.71103	58.00
1.72770	58.00
1.74437	58.00
1.76103	58.00
1.77770	58.00
1.79437	58.00
1.81103	58.00
1.82770	58.00
1.84437	58.00
1.86103	58.00
1.87770	58.00
1.89437	58.00
1.91103	58.00
1.92770	58.00
1.94437	58.00
1.96103	58.00
1.97770	58.00
1.99437	58.00
2.01103	58.00
2.02770	58.00
2.04437	58.00
2.06103	58.00
2.07770	58.00
2.09437	58.00
2.11103	58.00
2.12770	58.00
2.14437	58.00
2.16103	58.00
2.17770	58.00
2.19437	58.00
2.21103	58.00
2.22770	58.00
2.24437	58.00
2.26103	58.00
2.27770	58.00
2.29437	58.00
2.31103	58.00
2.32770	58.00
2.34437	58.00
2.36103	58.00
2.37770	57.99
2.39437	57.99
2.41103	57.99
2.42770	58.00
2.44437	58.00
2.46103	58.00
2.47770	58.00
2.49437	58.00
2.51103	57.99
2.52770	57.98
2.54437	58.00
2.56103	58.00
2.57770	58.00
2.59437	58.00
2.61103	58.00
2.62770	58.00
2.64437	58.00
2.66103	58.00
2.67770	58.00
2.69437	58.00
2.71103	58.00
2.72770	58.00
2.74437	58.00
2.76103	58.00
2.77770	58.00
2.79437	58.00
2.81103	58.00
2.82770	58.00
2.84437	58.00
2.86103	58.00
2.87770	58.00
2.89437	58.00
2.91103	58.00
2.92770	58.00
2.94437	58.00
2.96103	58.00
2.97770	58.00
2.99437	58.00
3.01103	58.00
3.02770	58.00
3.04437	58.00
3.06103	58.00
3.07770	58.00
3.09437	58.00
3.11103	58.00
3.12770	58.00
3.14437	58.00
3.16103	58.00
3.17770	58.00
3.19437	58.00
3.21103	58.00
3.22770	58.00
3.24437	58.00
3.26103	58.00
3.27770	58.00
3.29437	58.00
3.31103	58.00
3.32770	58.00
3.34437	58.00
3.36103	58.00
3.37770	58.00
3.39437	58.00
3.41103	58.00
3.42770	58.00
3.44437	58.00
3.46103	58.00
3.47770	58.00
3.49437	58.00
3.51103	58.00
3.52770	58.00
3.54437	58.00
3.56103	58.00
3.57770	58.00
3.59437	58.00
3.61103	58.00
3.62770	58.00
3.64437	58.00
3.66103	58.00
3.67770	58.00
3.69437	58.00
3.71103	58.00
3.72770	58.00
3.74437	58.00
3.76103	58.00
3.77770	58.00
3.79437	58.00
3.81103	58.00
3.82770	58.00
3.84437	58.00
3.86103	58.00
3.87770	58.00
3.89437	58.00
3.91103	58.00
3.92770	58.00
3.94437	58.00
3.96103	58.00
3.97770	58.00
3.99437	58.00

[Status Trace (Carrier Gas Flow)]
Interval(msec)	1000
# of Points	240
Start Time(min)	0.011
End Time(min)	3.994
Intensity Units	
Intensity Multiplier	1
R.Time (min)	Intensity
0.01103	34.52
0.02770	34.54
0.04437	34.55
0.06103	34.54
0.07770	34.51
0.09437	34.52
0.11103	34.52
0.12770	34.52
0.14437	34.52
0.16103	34.52
0.17770	34.52
0.19437	34.52
0.21103	34.52
0.22770	34.52
0.24437	34.52
0.26103	34.52
0.27770	34.52
0.29437	34.52
0.31103	34.52
0.32770	34.52
0.34437	34.52
0.36103	34.52
0.37770	34.52
0.39437	34.52
0.41103	34.52
0.42770	34.52
0.44437	34.52
0.46103	34.52
0.47770	34.52
0.49437	34.52
0.51103	34.52
0.52770	34.52
0.54437	34.52
0.56103	34.52
0.57770	34.52
0.59437	34.52
0.61103	34.52
0.62770	34.52
0.64437	34.52
0.66103	34.52
0.67770	34.52
0.69437	34.52
0.71103	34.52
0.72770	34.52
0.74437	34.52
0.76103	34.52
0.77770	34.52
0.79437	34.52
0.81103	34.52
0.82770	34.52
0.84437	34.52
0.86103	34.52
0.87770	34.52
0.89437	34.52
0.91103	34.52
0.92770	34.52
0.94437	34.52
0.96103	34.52
0.97770	34.52
0.99437	34.52
1.01103	34.52
1.02770	34.52
1.04437	34.52
1.06103	34.52
1.07770	34.52
1.09437	34.52
1.11103	34.52
1.12770	34.52
1.14437	34.52
1.16103	34.52
1.17770	34.52
1.19437	34.52
1.21103	34.52
1.22770	34.52
1.24437	34.52
1.26103	34.52
1.27770	34.52
1.29437	34.52
1.31103	34.52
1.32770	34.52
1.34437	34.52
1.36103	34.52
1.37770	34.52
1.39437	34.52
1.41103	34.52
1.42770	34.52
1.44437	34.52
1.46103	34.52
1.47770	34.52
1.49437	34.52
1.51103	34.52
1.52770	34.52
1.54437	34.52
1.56103	34.52
1.57770	34.52
1.59437	34.52
1.61103	34.52
1.62770	34.52
1.64437	34.52
1.66103	34.52
1.67770	34.52
1.69437	34.52
1.71103	34.52
1.72770	34.52
1.74437	34.52
1.76103	34.52
1.77770	34.52
1.79437	34.52
1.81103	34.52
1.82770	34.52
1.84437	34.52
1.86103	34.52
1.87770	34.52
1.89437	34.52
1.91103	34.52
1.92770	34.52
1.94437	34.52
1.96103	34.52
1.97770	34.52
1.99437	34.52
2.01103	34.52
2.02770	34.52
2.04437	34.52
2.06103	34.52
2.07770	34.52
2.09437	34.52
2.11103	34.52
2.12770	34.52
2.14437	34.52
2.16103	34.52
2.17770	34.52
2.19437	34.52
2.21103	34.52
2.22770	34.52
2.24437	34.52
2.26103	34.52
2.27770	34.52
2.29437	34.52
2.31103	34.52
2.32770	34.52
2.34437	34.52
2.36103	34.52
2.37770	34.52
2.39437	34.52
2.41103	34.52
2.42770	34.52
2.44437	34.52
2.46103	34.52
2.47770	34.52
2.49437	34.52
2.51103	34.52
2.52770	34.52
2.54437	34.52
2.56103	34.52
2.57770	34.52
2.59437	34.52
2.61103	34.52
2.62770	34.52
2.64437	34.52
2.66103	34.52
2.67770	34.52
2.69437	34.52
2.71103	34.52
2.72770	34.52
2.74437	34.52
2.76103	34.52
2.77770	34.52
2.79437	34.52
2.81103	34.52
2.82770	34.52
2.84437	34.52
2.86103	34.52
2.87770	34.52
2.89437	34.52
2.91103	34.52
2.92770	34.52
2.94437	34.52
2.96103	34.52
2.97770	34.52
2.99437	34.52
3.01103	34.52
3.02770	34.52
3.04437	34.52
3.06103	34.52
3.07770	34.52
3.09437	34.52
3.11103	34.52
3.12770	34.52
3.14437	34.52
3.16103	34.52
3.17770	34.52
3.19437	34.52
3.21103	34.52
3.22770	34.52
3.24437	34.52
3.26103	34.52
3.27770	34.52
3.29437	34.52
3.31103	34.52
3.32770	34.52
3.34437	34.52
3.36103	34.52
3.37770	34.52
3.39437	34.52
3.41103	34.52
3.42770	34.52
3.44437	34.52
3.46103	34.52
3.47770	34.52
3.49437	34.52
3.51103	34.52
3.52770	34.52
3.54437	34.52
3.56103	34.52
3.57770	34.52
3.59437	34.52
3.61103	34.52
3.62770	34.52
3.64437	34.52
3.66103	34.52
3.67770	34.52
3.69437	34.52
3.71103	34.52
3.72770	34.52
3.74437	34.52
3.76103	34.52
3.77770	34.52
3.79437	34.52
3.81103	34.52
3.82770	34.52
3.84437	34.52
3.86103	34.52
3.87770	34.52
3.89437	34.52
3.91103	34.52
3.92770	34.52
3.94437	34.52
3.96103	34.52
3.97770	34.52
3.99437	34.52

[Status Trace (Column Flow)]
Interval(msec)	1000
# of Points	240
Start Time(min)	0.011
End Time(min)	3.994
Intensity Units	
Intensity Multiplier	1
R.Time (min)	Intensity
0.01103	5.54
0.02770	5.19
0.04437	5.47
0.06103	5.72
0.07770	5.67
0.09437	5.54
0.11103	5.54
0.12770	5.54
0.14437	5.54
0.16103	5.54
0.17770	5.54
0.19437	5.54
0.21103	5.54
0.22770	5.54
0.24437	5.54
0.26103	5.54
0.27770	5.54
0.29437	5.54
0.31103	5.54
0.32770	5.54
0.34437	5.54
0.36103	5.54
0.37770	5.54
0.39437	5.54
0.41103	5.54
0.42770	5.54
0.44437	5.54
0.46103	5.54
0.47770	5.54
0.49437	5.54
0.51103	5.54
0.52770	5.54
0.54437	5.54
0.56103	5.54
0.57770	5.54
0.59437	5.54
0.61103	5.54
0.62770	5.54
0.64437	5.54
0.66103	5.54
0.67770	5.54
0.69437	5.54
0.71103	5.54
0.72770	5.54
0.74437	5.54
0.76103	5.54
0.77770	5.54
0.79437	5.54
0.81103	5.54
0.82770	5.54
0.84437	5.54
0.86103	5.54
0.87770	5.54
0.89437	5.54
0.91103	5.54
0.92770	5.54
0.94437	5.54
0.96103	5.54
0.97770	5.54
0.99437	5.54
1.01103	5.54
1.02770	5.54
1.04437	5.54
1.06103	5.54
1.07770	5.54
1.09437	5.54
1.11103	5.54
1.12770	5.54
1.14437	5.54
1.16103	5.54
1.17770	5.54
1.19437	5.54
1.21103	5.54
1.22770	5.54
1.24437	5.54
1.26103	5.54
1.27770	5.54
1.29437	5.54
1.31103	5.54
1.32770	5.54
1.34437	5.54
1.36103	5.54
1.37770	5.54
1.39437	5.54
1.41103	5.54
1.42770	5.54
1.44437	5.54
1.46103	5.54
1.47770	5.54
1.49437	5.54
1.51103	5.54
1.52770	5.54
1.54437	5.54
1.56103	5.54
1.57770	5.54
1.59437	5.54
1.61103	5.54
1.62770	5.53
1.64437	5.53
1.66103	5.52
1.67770	5.51
1.69437	5.50
1.71103	5.49
1.72770	5.48
1.74437	5.47
1.76103	5.46
1.77770	5.44
1.79437	5.44
1.81103	5.42
1.82770	5.42
1.84437	5.41
1.86103	5.40
1.87770	5.39
1.89437	5.38
1.91103	5.37
1.92770	5.36
1.94437	5.35
1.96103	5.34
1.97770	5.33
1.99437	5.32
2.01103	5.31
2.02770	5.30
2.04437	5.29
2.06103	5.28
2.07770	5.27
2.09437	5.26
2.11103	5.25
2.12770	5.24
2.14437	5.23
2.16103	5.22
2.17770	5.21
2.19437	5.20
2.21103	5.19
2.22770	5.18
2.24437	5.18
2.26103	5.17
2.27770	5.16
2.29437	5.15
2.31103	5.14
2.32770	5.13
2.34437	5.12
2.36103	5.11
2.37770	5.11
2.39437	5.10
2.41103	5.11
2.42770	5.11
2.44437	5.10
2.46103	5.10
2.47770	5.10
2.49437	5.10
2.51103	5.10
2.52770	5.10
2.54437	5.10
2.56103	5.10
2.57770	5.10
2.59437	5.10
2.61103	5.10
2.62770	5.10
2.64437	5.10
2.66103	5.10
2.67770	5.10
2.69437	5.10
2.71103	5.10
2.72770	5.10
2.74437	5.10
2.76103	5.10
2.77770	5.10
2.79437	5.10
2.81103	5.10
2.82770	5.10
2.84437	5.10
2.86103	5.10
2.87770	5.10
2.89437	5.10
2.91103	5.10
2.92770	5.10
2.94437	5.10
2.96103	5.10
2.97770	5.10
2.99437	5.10
3.01103	5.10
3.02770	5.10
3.04437	5.10
3.06103	5.10
3.07770	5.10
3.09437	5.10
3.11103	5.10
3.12770	5.10
3.14437	5.10
3.16103	5.10
3.17770	5.10
3.19437	5.10
3.21103	5.10
3.22770	5.10
3.24437	5.09
3.26103	5.09
3.27770	5.09
3.29437	5.09
3.31103	5.09
3.32770	5.09
3.34437	5.09
3.36103	5.09
3.37770	5.09
3.39437	5.09
3.41103	5.09
3.42770	5.09
3.44437	5.09
3.46103	5.09
3.47770	5.09
3.49437	5.10
3.51103	5.10
3.52770	5.10
3.54437	5.10
3.56103	5.10
3.57770	5.10
3.59437	5.10
3.61103	5.10
3.62770	5.10
3.64437	5.10
3.66103	5.10
3.67770	5.10
3.69437	5.10
3.71103	5.09
3.72770	5.09
3.74437	5.09
3.76103	5.10
3.77770	5.10
3.79437	5.10
3.81103	5.10
3.82770	5.10
3.84437	5.10
3.86103	5.10
3.87770	5.10
3.89437	5.10
3.91103	5.10
3.92770	5.10
3.94437	5.10
3.96103	5.10
3.97770	5.09
3.99437	5.09

[Status Trace (Linear Velocity)]
Interval(msec)	1000
# of Points	240
Start Time(min)	0.011
End Time(min)	3.994
Intensity Units	
Intensity Multiplier	1
R.Time (min)	Intensity
0.01103	39.02
0.02770	37.03
0.04437	38.65
0.06103	40.02
0.07770	39.77
0.09437	39.04
0.11103	39.01
0.12770	39.03
0.14437	39.03
0.16103	39.02
0.17770	39.02
0.19437	39.02
0.21103	39.02
0.22770	39.02
0.24437	39.02
0.26103	39.02
0.27770	39.02
0.29437	39.02
0.31103	39.02
0.32770	39.02
0.34437	39.02
0.36103	39.02
0.37770	39.02
0.39437	39.02
0.41103	39.02
0.42770	39.02
0.44437	39.02
0.46103	39.02
0.47770	39.02
0.49437	39.02
0.51103	39.02
0.52770	39.02
0.54437	39.02
0.56103	39.02
0.57770	39.02
0.59437	39.02
0.61103	39.02
0.62770	39.02
0.64437	39.02
0.66103	39.02
0.67770	39.02
0.69437	39.02
0.71103	39.02
0.72770	39.02
0.74437	39.02
0.76103	39.02
0.77770	39.02
0.79437	39.02
0.81103	39.02
0.82770	39.02
0.84437	39.02
0.86103	39.02
0.87770	39.02
0.89437	39.02
0.91103	39.02
0.92770	39.02
0.94437	39.02
0.96103	39.02
0.97770	39.02
0.99437	39.02
1.01103	39.02
1.02770	39.02
1.04437	39.02
1.06103	39.02
1.07770	39.02
1.09437	39.02
1.11103	39.02
1.12770	39.02
1.14437	39.02
1.16103	39.02
1.17770	39.02
1.19437	39.02
1.21103	39.02
1.22770	39.02
1.24437	39.02
1.26103	39.02
1.27770	39.02
1.29437	39.02
1.31103	39.02
1.32770	39.02
1.34437	39.02
1.36103	39.02
1.37770	39.02
1.39437	39.02
1.41103	39.02
1.42770	39.02
1.44437	39.02
1.46103	39.02
1.47770	39.02
1.49437	39.02
1.51103	39.01
1.52770	39.01
1.54437	39.02
1.56103	39.02
1.57770	39.02
1.59437	39.02
1.61103	39.01
1.62770	39.00
1.64437	38.98
1.66103	38.96
1.67770	38.93
1.69437	38.89
1.71103	38.86
1.72770	38.82
1.74437	38.79
1.76103	38.76
1.77770	38.73
1.79437	38.70
1.81103	38.67
1.82770	38.64
1.84437	38.61
1.86103	38.57
1.87770	38.54
1.89437	38.52
1.91103	38.48
1.92770	38.45
1.94437	38.42
1.96103	38.39
1.97770	38.36
1.99437	38.33
2.01103	38.30
2.02770	38.27
2.04437	38.24
2.06103	38.21
2.07770	38.18
2.09437	38.16
2.11103	38.12
2.12770	38.09
2.14437	38.07
2.16103	38.04
2.17770	38.01
2.19437	37.98
2.21103	37.94
2.22770	37.91
2.24437	37.89
2.26103	37.85
2.27770	37.82
2.29437	37.80
2.31103	37.76
2.32770	37.73
2.34437	37.71
2.36103	37.68
2.37770	37.66
2.39437	37.66
2.41103	37.66
2.42770	37.66
2.44437	37.66
2.46103	37.66
2.47770	37.66
2.49437	37.66
2.51103	37.66
2.52770	37.65
2.54437	37.66
2.56103	37.66
2.57770	37.65
2.59437	37.65
2.61103	37.65
2.62770	37.65
2.64437	37.65
2.66103	37.65
2.67770	37.65
2.69437	37.65
2.71103	37.65
2.72770	37.65
2.74437	37.65
2.76103	37.65
2.77770	37.65
2.79437	37.65
2.81103	37.65
2.82770	37.65
2.84437	37.65
2.86103	37.65
2.87770	37.64
2.89437	37.64
2.91103	37.64
2.92770	37.64
2.94437	37.64
2.96103	37.64
2.97770	37.64
2.99437	37.64
3.01103	37.64
3.02770	37.64
3.04437	37.64
3.06103	37.64
3.07770	37.64
3.09437	37.64
3.11103	37.64
3.12770	37.64
3.14437	37.63
3.16103	37.63
3.17770	37.63
3.19437	37.63
3.21103	37.63
3.22770	37.63
3.24437	37.63
3.26103	37.63
3.27770	37.63
3.29437	37.63
3.31103	37.63
3.32770	37.63
3.34437	37.63
3.36103	37.63
3.37770	37.63
3.39437	37.63
3.41103	37.63
3.42770	37.63
3.44437	37.63
3.46103	37.63
3.47770	37.63
3.49437	37.63
3.51103	37.63
3.52770	37.63
3.54437	37.63
3.56103	37.63
3.57770	37.63
3.59437	37.63
3.61103	37.63
3.62770	37.63
3.64437	37.63
3.66103	37.63
3.67770	37.63
3.69437	37.63
3.71103	37.63
3.72770	37.63
3.74437	37.63
3.76103	37.63
3.77770	37.63
3.79437	37.63
3.81103	37.63
3.82770	37.63
3.84437	37.63
3.86103	37.63
3.87770	37.63
3.89437	37.63
3.91103	37.63
3.92770	37.63
3.94437	37.63
3.96103	37.63
3.97770	37.63
3.99437	37.63

