[Header]
Application Name	LabSolutions
Version	5.110
Data File Name	C:\Users\User\Desktop\GC Analyses\Jack\UIC Prairie Sampling\10.19.22\221019_104.gcd
Output Date	1/4/2023
Output Time	2:27:21 PM

[File Information]
Type	Data File
Generated	12/15/2022 12:01:28 PM
Generated by	System Administrator
Modified	12/15/2022 12:06:08 PM
Modified by	System Administrator

[Sample Information]
Operator Name	System Administrator
Acquired	12/15/2022 12:02:06 PM
Sample Type	1:Standard
Level	1
Sample Name	221019_UICPrairie
Sample ID	221019_UICPrairie
ISTD Amount1	1
ISTD Amount2	1
ISTD Amount3	1
ISTD Amount4	1
ISTD Amount5	1
ISTD Amount6	1
ISTD Amount7	1
ISTD Amount8	1
ISTD Amount9	1
ISTD Amount10	1
ISTD Amount11	1
ISTD Amount12	1
ISTD Amount13	1
ISTD Amount14	1
ISTD Amount15	1
ISTD Amount16	1
ISTD Amount17	1
ISTD Amount18	1
ISTD Amount19	1
ISTD Amount20	1
ISTD Amount21	1
ISTD Amount22	1
ISTD Amount23	1
ISTD Amount24	1
ISTD Amount25	1
ISTD Amount26	1
ISTD Amount27	1
ISTD Amount28	1
ISTD Amount29	1
ISTD Amount30	1
ISTD Amount31	1
ISTD Amount32	1
Sample Amount	1
Dilution Factor	1
Vial#	1
Injection Volume	1
Injection Count	1
Bar Code	

[Original Files]
Data File	C:\Users\User\Desktop\GC Analyses\Jack\UIC Prairie Sampling\10.19.22\221019_104.gcd
Method File	C:\LabSolutions\Data\GHG_4min_2022\ghg3_togas_w_acet_4 min_new_int.gcm
Batch File	
Report Format File	c:\LabSolutions\System\DEFAULT.lsr

[File Description]


[Configuration]
Instrument Name	C0B7VH3-Instrument1
Instrument #	1
Line #	1
# of Detectors	3
Detector ID	DET#1	DET#2	DET#3
Detector Name	FID	PTCD	ECD
# of Channels	1	1	1

[Peak Table(Ch1)]
# of Peaks	3
Peak#	R.Time	I.Time	F.Time	Area	Height	A/H	Conc.	Mark	ID#	Name	k'	Plate #	Plate Ht.	Tailing	Resolution	Sep.Factor	Area Ratio	Height Ratio	Conc. %	Norm Conc.
1	1.476	1.435	1.538	10380	4546	2.283	100.000	   	1	CO	0.000	8154	18.395	1.388	0.000	0.000	0	0	16.667	16.667
2	1.571	1.538	1.641	4802	2374	2.023	100.000	 V 	2	CH4	0.065	11242	13.343	0.000	1.530	0.000	0	0	16.667	16.667
3	2.000	1.952	2.546	1071234	503010	2.130	400.000	   	3	CO2	0.355	17611	8.517	1.242	7.177	5.500	0	0	66.667	66.667

[Peak Table(Ch2)]
# of Peaks	0

[Peak Table(Ch3)]
# of Peaks	4
Peak#	R.Time	I.Time	F.Time	Area	Height	A/H	Conc.	Mark	ID#	Name	k'	Plate #	Plate Ht.	Tailing	Resolution	Sep.Factor	Area Ratio	Height Ratio	Conc. %	Norm Conc.
1	2.466	2.400	2.499	809	310	2.613	0.000	   			0.000	13132	11.423	0.000	0.000	0.000	0	0	0.000	0.000
2	2.590	2.499	2.653	3644	607	6.003	0.000	 V 			0.051	3295	45.521	0.000	0.935	0.000	0	0	0.000	0.000
3	2.733	2.653	2.821	4644	518	8.965	0.119	 V 	1	N2O	0.109	21	7149.751	0.000	0.111	2.147	0	0	11.912	11.912
4	2.884	2.821	3.830	34339	5670	6.056	0.881	 V 	1	N2O	0.170	11767	12.747	0.000	0.121	1.562	0	0	88.088	88.088

[Compound Results(Ch1)]
# of IDs	6
ID#	Name	R.Time	Area	Height	Conc.	Curve	3rd	2nd	1st	Constant	Area Ratio	Height Ratio	Conc. %	Norm Conc.
1	CO	1.476	10380	4546	100.000	Linear	0.000000e+00	0.000000e+00	1.037957e+002	0.000000e+00	0	0	16.667	16.667
2	CH4	1.571	4802	2374	100.000	Linear	0.000000e+00	0.000000e+00	4.801859e+001	0.000000e+00	0	0	16.667	16.667
3	CO2	2.000	1071234	503010	400.000	Linear	0.000000e+00	0.000000e+00	2.678086e+003	0.000000e+00	0	0	66.667	66.667
4	Ethylene	0.000	0	0	0.000	Linear	0.000000e+00	0.000000e+00	0.000000e+00	0.000000e+00	0	0	0.000	0.000
5	Acetylene	0.000	0	0	0.000	Linear	0.000000e+00	0.000000e+00	0.000000e+00	0.000000e+00	0	0	0.000	0.000
6	Ethane	0.000	0	0	0.000	Linear	0.000000e+00	0.000000e+00	0.000000e+00	0.000000e+00	0	0	0.000	0.000

[Compound Results(Ch2)]
# of IDs	5
ID#	Name	R.Time	Area	Height	Conc.	Curve	3rd	2nd	1st	Constant	Area Ratio	Height Ratio	Conc. %	Norm Conc.
1	Hydrogen	0.000	0	0	0.000	Linear	0.000000e+00	0.000000e+00	0.000000e+00	0.000000e+00	0	0	0.000	0.000
2	Oxygen	0.000	0	0	0.000	Linear	0.000000e+00	0.000000e+00	0.000000e+00	0.000000e+00	0	0	0.000	0.000
3	Nitrogen	0.000	0	0	0.000	Linear	0.000000e+00	0.000000e+00	0.000000e+00	0.000000e+00	0	0	0.000	0.000
4	Methane	0.000	0	0	0.000	Linear	0.000000e+00	0.000000e+00	0.000000e+00	0.000000e+00	0	0	0.000	0.000
5	Carbon Monoxide	0.000	0	0	0.000	Linear	0.000000e+00	0.000000e+00	0.000000e+00	0.000000e+00	0	0	0.000	0.000

[Compound Results(Ch3)]
# of IDs	2
ID#	Name	R.Time	Area	Height	Conc.	Curve	3rd	2nd	1st	Constant	Area Ratio	Height Ratio	Conc. %	Norm Conc.
1	N2O	2.884	38982	6188	1.000	Linear	0.000000e+00	0.000000e+00	3.898244e+004	0.000000e+00	0	0	100.000	100.000
2	SF6	0.000	0	0	0.000	Linear	0.000000e+00	0.000000e+00	0.000000e+00	0.000000e+00	0	0	0.000	0.000

[Group Results(Ch1)]
# of Groups	0

[Group Results(Ch2)]
# of Groups	0

[Group Results(Ch3)]
# of Groups	0

[Chromatogram (Ch1)]
Interval(msec)	220
# of Points	1091
Start Time(min)	0.002
End Time(min)	3.998
R.Time (min)	Intensity
0.00167	6
0.00533	4
0.00900	1
0.01267	2
0.01633	7
0.02000	12
0.02367	18
0.02733	23
0.03100	25
0.03467	21
0.03833	13
0.04200	6
0.04567	4
0.04933	6
0.05300	8
0.05667	6
0.06033	2
0.06400	-2
0.06767	-2
0.07133	1
0.07500	3
0.07867	2
0.08233	-2
0.08600	-4
0.08967	-3
0.09333	1
0.09700	4
0.10067	7
0.10433	10
0.10800	12
0.11167	9
0.11533	7
0.11900	3
0.12267	-3
0.12633	-4
0.13000	-3
0.13367	-2
0.13733	-1
0.14100	-2
0.14467	-2
0.14833	-3
0.15200	-5
0.15567	-8
0.15933	-9
0.16300	-9
0.16667	-7
0.17033	-6
0.17400	-8
0.17767	-10
0.18133	-11
0.18500	-9
0.18867	-3
0.19233	4
0.19600	10
0.19967	13
0.20333	9
0.20700	-1
0.21067	-12
0.21433	-21
0.21800	-25
0.22167	-24
0.22533	-19
0.22900	-15
0.23267	-13
0.23633	-16
0.24000	-22
0.24367	-26
0.24733	-28
0.25100	-30
0.25467	-28
0.25833	-19
0.26200	-8
0.26567	2
0.26933	7
0.27300	6
0.27667	3
0.28033	-2
0.28400	-6
0.28767	-8
0.29133	-11
0.29500	-15
0.29867	-20
0.30233	-20
0.30600	-18
0.30967	-14
0.31333	-11
0.31700	-12
0.32067	-14
0.32433	-15
0.32800	-15
0.33167	-15
0.33533	-16
0.33900	-17
0.34267	-16
0.34633	-12
0.35000	-12
0.35367	-19
0.35733	-30
0.36100	-42
0.36467	-47
0.36833	-49
0.37200	-51
0.37567	-50
0.37933	-48
0.38300	-46
0.38667	-47
0.39033	-45
0.39400	-44
0.39767	-45
0.40133	-47
0.40500	-48
0.40867	-46
0.41233	-41
0.41600	-35
0.41967	-29
0.42333	-25
0.42700	-27
0.43067	-37
0.43433	-47
0.43800	-51
0.44167	-47
0.44533	-37
0.44900	-27
0.45267	-22
0.45633	-21
0.46000	-23
0.46367	-26
0.46733	-29
0.47100	-31
0.47467	-33
0.47833	-33
0.48200	-32
0.48567	-34
0.48933	-37
0.49300	-39
0.49667	-43
0.50033	-44
0.50400	-43
0.50767	-44
0.51133	-48
0.51500	-54
0.51867	-58
0.52233	-59
0.52600	-60
0.52967	-62
0.53333	-62
0.53700	-59
0.54067	-54
0.54433	-51
0.54800	-49
0.55167	-49
0.55533	-51
0.55900	-52
0.56267	-52
0.56633	-55
0.57000	-56
0.57367	-56
0.57733	-55
0.58100	-53
0.58467	-50
0.58833	-47
0.59200	-47
0.59567	-45
0.59933	-44
0.60300	-46
0.60667	-50
0.61033	-52
0.61400	-50
0.61767	-42
0.62133	-34
0.62500	-28
0.62867	-25
0.63233	-26
0.63600	-32
0.63967	-43
0.64333	-54
0.64700	-64
0.65067	-70
0.65433	-73
0.65800	-75
0.66167	-73
0.66533	-70
0.66900	-69
0.67267	-68
0.67633	-66
0.68000	-64
0.68367	-64
0.68733	-63
0.69100	-60
0.69467	-55
0.69833	-51
0.70200	-48
0.70567	-46
0.70933	-44
0.71300	-43
0.71667	-43
0.72033	-43
0.72400	-45
0.72767	-48
0.73133	-47
0.73500	-43
0.73867	-40
0.74233	-39
0.74600	-42
0.74967	-52
0.75333	-64
0.75700	-76
0.76067	-83
0.76433	-88
0.76800	-91
0.77167	-90
0.77533	-85
0.77900	-78
0.78267	-70
0.78633	-65
0.79000	-65
0.79367	-66
0.79733	-66
0.80100	-66
0.80467	-66
0.80833	-70
0.81200	-77
0.81567	-81
0.81933	-82
0.82300	-82
0.82667	-78
0.83033	-75
0.83400	-74
0.83767	-75
0.84133	-76
0.84500	-77
0.84867	-75
0.85233	-74
0.85600	-74
0.85967	-74
0.86333	-75
0.86700	-80
0.87067	-86
0.87433	-88
0.87800	-88
0.88167	-86
0.88533	-81
0.88900	-75
0.89267	-72
0.89633	-71
0.90000	-72
0.90367	-75
0.90733	-75
0.91100	-72
0.91467	-66
0.91833	-63
0.92200	-63
0.92567	-64
0.92933	-66
0.93300	-67
0.93667	-64
0.94033	-62
0.94400	-61
0.94767	-63
0.95133	-69
0.95500	-78
0.95867	-85
0.96233	-86
0.96600	-85
0.96967	-85
0.97333	-85
0.97700	-85
0.98067	-85
0.98433	-85
0.98800	-84
0.99167	-81
0.99533	-80
0.99900	-81
1.00267	-80
1.00633	-80
1.01000	-84
1.01367	-92
1.01733	-101
1.02100	-106
1.02467	-108
1.02833	-107
1.03200	-102
1.03567	-95
1.03933	-88
1.04300	-80
1.04667	-76
1.05033	-76
1.05400	-74
1.05767	-73
1.06133	-70
1.06500	-68
1.06867	-67
1.07233	-74
1.07600	-81
1.07967	-86
1.08333	-87
1.08700	-85
1.09067	-82
1.09433	-80
1.09800	-80
1.10167	-84
1.10533	-89
1.10900	-92
1.11267	-93
1.11633	-92
1.12000	-89
1.12367	-85
1.12733	-82
1.13100	-79
1.13467	-78
1.13833	-78
1.14200	-82
1.14567	-85
1.14933	-84
1.15300	-79
1.15667	-75
1.16033	-75
1.16400	-76
1.16767	-81
1.17133	-87
1.17500	-89
1.17867	-89
1.18233	-91
1.18600	-95
1.18967	-96
1.19333	-94
1.19700	-92
1.20067	-89
1.20433	-84
1.20800	-80
1.21167	-77
1.21533	-74
1.21900	-72
1.22267	-78
1.22633	-87
1.23000	-94
1.23367	-98
1.23733	-98
1.24100	-98
1.24467	-98
1.24833	-98
1.25200	-101
1.25567	-103
1.25933	-103
1.26300	-101
1.26667	-97
1.27033	-93
1.27400	-88
1.27767	-87
1.28133	-89
1.28500	-91
1.28867	-94
1.29233	-98
1.29600	-100
1.29967	-101
1.30333	-106
1.30700	-113
1.31067	-116
1.31433	-115
1.31800	-111
1.32167	-108
1.32533	-103
1.32900	-98
1.33267	-94
1.33633	-89
1.34000	-85
1.34367	-85
1.34733	-89
1.35100	-92
1.35467	-97
1.35833	-102
1.36200	-105
1.36567	-105
1.36933	-106
1.37300	-105
1.37667	-103
1.38033	-102
1.38400	-99
1.38767	-94
1.39133	-92
1.39500	-95
1.39867	-96
1.40233	-94
1.40600	-93
1.40967	-92
1.41333	-95
1.41700	-99
1.42067	-102
1.42433	-105
1.42800	-106
1.43167	-105
1.43533	-100
1.43900	-86
1.44267	-22
1.44633	142
1.45000	415
1.45367	849
1.45733	1504
1.46100	2301
1.46467	3081
1.46833	3732
1.47200	4200
1.47567	4448
1.47933	4431
1.48300	4137
1.48667	3615
1.49033	2977
1.49400	2338
1.49767	1772
1.50133	1310
1.50500	954
1.50867	691
1.51233	502
1.51600	368
1.51967	272
1.52333	201
1.52700	146
1.53067	102
1.53433	67
1.53800	49
1.54167	80
1.54533	217
1.54900	505
1.55267	924
1.55633	1379
1.56000	1783
1.56367	2086
1.56733	2261
1.57100	2278
1.57467	2117
1.57833	1804
1.58200	1417
1.58567	1037
1.58933	713
1.59300	464
1.59667	286
1.60033	163
1.60400	82
1.60767	25
1.61133	-13
1.61500	-35
1.61867	-48
1.62233	-56
1.62600	-62
1.62967	-67
1.63333	-75
1.63700	-84
1.64067	-94
1.64433	-100
1.64800	-102
1.65167	-99
1.65533	-94
1.65900	-94
1.66267	-100
1.66633	-106
1.67000	-112
1.67367	-114
1.67733	-110
1.68100	-104
1.68467	-100
1.68833	-98
1.69200	-99
1.69567	-104
1.69933	-110
1.70300	-114
1.70667	-116
1.71033	-116
1.71400	-116
1.71767	-116
1.72133	-114
1.72500	-110
1.72867	-106
1.73233	-106
1.73600	-108
1.73967	-114
1.74333	-118
1.74700	-118
1.75067	-118
1.75433	-119
1.75800	-121
1.76167	-121
1.76533	-120
1.76900	-117
1.77267	-113
1.77633	-109
1.78000	-108
1.78367	-111
1.78733	-113
1.79100	-112
1.79467	-116
1.79833	-125
1.80200	-131
1.80567	-131
1.80933	-127
1.81300	-121
1.81667	-116
1.82033	-113
1.82400	-112
1.82767	-112
1.83133	-111
1.83500	-112
1.83867	-112
1.84233	-115
1.84600	-123
1.84967	-136
1.85333	-147
1.85700	-152
1.86067	-151
1.86433	-147
1.86800	-140
1.87167	-132
1.87533	-123
1.87900	-115
1.88267	-112
1.88633	-111
1.89000	-113
1.89367	-118
1.89733	-122
1.90100	-125
1.90467	-127
1.90833	-129
1.91200	-130
1.91567	-130
1.91933	-130
1.92300	-128
1.92667	-123
1.93033	-118
1.93400	-117
1.93767	-118
1.94133	-119
1.94500	-120
1.94867	-123
1.95233	-122
1.95600	-88
1.95967	132
1.96333	1244
1.96700	5633
1.97067	18816
1.97433	49386
1.97800	104862
1.98167	185158
1.98533	280108
1.98900	373218
1.99267	448357
1.99633	493717
2.00000	502925
2.00367	476087
2.00733	420508
2.01100	348649
2.01467	273806
2.01833	206012
2.02200	150362
2.02567	107765
2.02933	76701
2.03300	54765
2.03667	39575
2.04033	29159
2.04400	22027
2.04767	17112
2.05133	13677
2.05500	11238
2.05867	9469
2.06233	8158
2.06600	7158
2.06967	6377
2.07333	5751
2.07700	5236
2.08067	4806
2.08433	4445
2.08800	4134
2.09167	3865
2.09533	3630
2.09900	3420
2.10267	3236
2.10633	3071
2.11000	2921
2.11367	2785
2.11733	2660
2.12100	2543
2.12467	2431
2.12833	2328
2.13200	2234
2.13567	2147
2.13933	2067
2.14300	1991
2.14667	1917
2.15033	1848
2.15400	1785
2.15767	1726
2.16133	1668
2.16500	1610
2.16867	1552
2.17233	1499
2.17600	1451
2.17967	1408
2.18333	1368
2.18700	1329
2.19067	1295
2.19433	1265
2.19800	1237
2.20167	1210
2.20533	1185
2.20900	1158
2.21267	1130
2.21633	1102
2.22000	1075
2.22367	1050
2.22733	1023
2.23100	997
2.23467	974
2.23833	954
2.24200	933
2.24567	910
2.24933	887
2.25300	867
2.25667	850
2.26033	836
2.26400	821
2.26767	805
2.27133	788
2.27500	774
2.27867	762
2.28233	749
2.28600	735
2.28967	721
2.29333	710
2.29700	704
2.30067	698
2.30433	688
2.30800	676
2.31167	665
2.31533	656
2.31900	648
2.32267	639
2.32633	629
2.33000	617
2.33367	607
2.33733	598
2.34100	591
2.34467	583
2.34833	575
2.35200	565
2.35567	554
2.35933	546
2.36300	540
2.36667	535
2.37033	529
2.37400	526
2.37767	523
2.38133	520
2.38500	517
2.38867	512
2.39233	507
2.39600	500
2.39967	490
2.40333	478
2.40700	466
2.41067	456
2.41433	449
2.41800	447
2.42167	449
2.42533	451
2.42900	453
2.43267	452
2.43633	448
2.44000	441
2.44367	435
2.44733	429
2.45100	420
2.45467	411
2.45833	406
2.46200	401
2.46567	395
2.46933	389
2.47300	382
2.47667	376
2.48033	370
2.48400	367
2.48767	367
2.49133	367
2.49500	365
2.49867	361
2.50233	359
2.50600	359
2.50967	357
2.51333	353
2.51700	351
2.52067	348
2.52433	345
2.52800	340
2.53167	337
2.53533	336
2.53900	339
2.54267	344
2.54633	344
2.55000	339
2.55367	333
2.55733	329
2.56100	327
2.56467	327
2.56833	327
2.57200	327
2.57567	325
2.57933	324
2.58300	321
2.58667	318
2.59033	314
2.59400	311
2.59767	307
2.60133	303
2.60500	296
2.60867	288
2.61233	281
2.61600	278
2.61967	276
2.62333	274
2.62700	272
2.63067	273
2.63433	275
2.63800	276
2.64167	277
2.64533	281
2.64900	287
2.65267	292
2.65633	291
2.66000	287
2.66367	283
2.66733	279
2.67100	280
2.67467	280
2.67833	275
2.68200	268
2.68567	260
2.68933	256
2.69300	253
2.69667	252
2.70033	252
2.70400	249
2.70767	246
2.71133	244
2.71500	243
2.71867	243
2.72233	245
2.72600	248
2.72967	251
2.73333	253
2.73700	253
2.74067	250
2.74433	248
2.74800	245
2.75167	244
2.75533	245
2.75900	250
2.76267	253
2.76633	255
2.77000	252
2.77367	244
2.77733	234
2.78100	230
2.78467	233
2.78833	237
2.79200	241
2.79567	245
2.79933	246
2.80300	246
2.80667	248
2.81033	253
2.81400	258
2.81767	261
2.82133	262
2.82500	260
2.82867	257
2.83233	253
2.83600	246
2.83967	239
2.84333	231
2.84700	224
2.85067	215
2.85433	211
2.85800	210
2.86167	213
2.86533	219
2.86900	225
2.87267	226
2.87633	224
2.88000	221
2.88367	219
2.88733	219
2.89100	221
2.89467	223
2.89833	224
2.90200	226
2.90567	227
2.90933	229
2.91300	227
2.91667	222
2.92033	216
2.92400	210
2.92767	207
2.93133	209
2.93500	212
2.93867	215
2.94233	215
2.94600	215
2.94967	218
2.95333	220
2.95700	221
2.96067	224
2.96433	228
2.96800	232
2.97167	232
2.97533	227
2.97900	223
2.98267	220
2.98633	217
2.99000	216
2.99367	215
2.99733	215
3.00100	218
3.00467	222
3.00833	224
3.01200	225
3.01567	223
3.01933	221
3.02300	220
3.02667	222
3.03033	228
3.03400	234
3.03767	238
3.04133	236
3.04500	231
3.04867	226
3.05233	222
3.05600	216
3.05967	210
3.06333	204
3.06700	201
3.07067	197
3.07433	190
3.07800	187
3.08167	188
3.08533	191
3.08900	190
3.09267	185
3.09633	180
3.10000	175
3.10367	172
3.10733	173
3.11100	177
3.11467	184
3.11833	188
3.12200	186
3.12567	184
3.12933	184
3.13300	185
3.13667	188
3.14033	188
3.14400	188
3.14767	187
3.15133	184
3.15500	181
3.15867	177
3.16233	175
3.16600	174
3.16967	174
3.17333	173
3.17700	171
3.18067	171
3.18433	172
3.18800	172
3.19167	172
3.19533	173
3.19900	172
3.20267	171
3.20633	173
3.21000	177
3.21367	180
3.21733	181
3.22100	183
3.22467	187
3.22833	191
3.23200	192
3.23567	187
3.23933	178
3.24300	169
3.24667	162
3.25033	158
3.25400	154
3.25767	152
3.26133	152
3.26500	153
3.26867	154
3.27233	156
3.27600	156
3.27967	158
3.28333	160
3.28700	163
3.29067	165
3.29433	169
3.29800	170
3.30167	169
3.30533	169
3.30900	172
3.31267	175
3.31633	175
3.32000	170
3.32367	164
3.32733	161
3.33100	158
3.33467	153
3.33833	147
3.34200	143
3.34567	140
3.34933	140
3.35300	144
3.35667	150
3.36033	152
3.36400	153
3.36767	153
3.37133	152
3.37500	151
3.37867	152
3.38233	159
3.38600	167
3.38967	169
3.39333	167
3.39700	162
3.40067	156
3.40433	145
3.40800	135
3.41167	131
3.41533	130
3.41900	132
3.42267	135
3.42633	139
3.43000	142
3.43367	144
3.43733	143
3.44100	138
3.44467	132
3.44833	123
3.45200	117
3.45567	119
3.45933	129
3.46300	138
3.46667	144
3.47033	145
3.47400	143
3.47767	141
3.48133	138
3.48500	131
3.48867	124
3.49233	119
3.49600	116
3.49967	116
3.50333	117
3.50700	119
3.51067	121
3.51433	126
3.51800	129
3.52167	131
3.52533	131
3.52900	129
3.53267	124
3.53633	117
3.54000	110
3.54367	104
3.54733	101
3.55100	99
3.55467	99
3.55833	97
3.56200	97
3.56567	100
3.56933	105
3.57300	110
3.57667	114
3.58033	117
3.58400	118
3.58767	117
3.59133	118
3.59500	121
3.59867	123
3.60233	121
3.60600	120
3.60967	121
3.61333	122
3.61700	123
3.62067	124
3.62433	124
3.62800	121
3.63167	118
3.63533	117
3.63900	119
3.64267	122
3.64633	122
3.65000	120
3.65367	121
3.65733	121
3.66100	122
3.66467	124
3.66833	125
3.67200	127
3.67567	129
3.67933	128
3.68300	122
3.68667	111
3.69033	102
3.69400	98
3.69767	99
3.70133	103
3.70500	106
3.70867	106
3.71233	105
3.71600	103
3.71967	100
3.72333	96
3.72700	94
3.73067	94
3.73433	94
3.73800	95
3.74167	97
3.74533	100
3.74900	103
3.75267	105
3.75633	108
3.76000	111
3.76367	112
3.76733	109
3.77100	103
3.77467	96
3.77833	91
3.78200	88
3.78567	87
3.78933	85
3.79300	87
3.79667	90
3.80033	92
3.80400	95
3.80767	99
3.81133	102
3.81500	103
3.81867	103
3.82233	101
3.82600	99
3.82967	95
3.83333	92
3.83700	90
3.84067	91
3.84433	92
3.84800	91
3.85167	90
3.85533	92
3.85900	94
3.86267	91
3.86633	87
3.87000	85
3.87367	86
3.87733	89
3.88100	91
3.88467	90
3.88833	89
3.89200	84
3.89567	80
3.89933	79
3.90300	81
3.90667	82
3.91033	81
3.91400	81
3.91767	80
3.92133	77
3.92500	74
3.92867	70
3.93233	68
3.93600	68
3.93967	72
3.94333	76
3.94700	77
3.95067	76
3.95433	72
3.95800	67
3.96167	62
3.96533	61
3.96900	61
3.97267	59
3.97633	56
3.98000	53
3.98367	53
3.98733	55
3.99100	57
3.99467	60
3.99833	61

[Chromatogram (Ch2)]
Interval(msec)	220
# of Points	1091
Start Time(min)	0.002
End Time(min)	3.998
R.Time (min)	Intensity
0.00167	0
0.00533	0
0.00900	1
0.01267	1
0.01633	1
0.02000	1
0.02367	1
0.02733	1
0.03100	1
0.03467	1
0.03833	1
0.04200	0
0.04567	0
0.04933	0
0.05300	-0
0.05667	-1
0.06033	-1
0.06400	-1
0.06767	-2
0.07133	-2
0.07500	-2
0.07867	-1
0.08233	-1
0.08600	-1
0.08967	-1
0.09333	-1
0.09700	-1
0.10067	-0
0.10433	-0
0.10800	-0
0.11167	-0
0.11533	-0
0.11900	-0
0.12267	-0
0.12633	-0
0.13000	0
0.13367	0
0.13733	0
0.14100	1
0.14467	1
0.14833	0
0.15200	0
0.15567	-0
0.15933	-0
0.16300	-0
0.16667	0
0.17033	0
0.17400	0
0.17767	0
0.18133	0
0.18500	-0
0.18867	-0
0.19233	0
0.19600	0
0.19967	0
0.20333	0
0.20700	-0
0.21067	-0
0.21433	-0
0.21800	-1
0.22167	-1
0.22533	-1
0.22900	-1
0.23267	-1
0.23633	-1
0.24000	-2
0.24367	-2
0.24733	-2
0.25100	-2
0.25467	-2
0.25833	-2
0.26200	-2
0.26567	-2
0.26933	-2
0.27300	-2
0.27667	-2
0.28033	-1
0.28400	-1
0.28767	-1
0.29133	-1
0.29500	-1
0.29867	-1
0.30233	-1
0.30600	-1
0.30967	-1
0.31333	-1
0.31700	-1
0.32067	-2
0.32433	-2
0.32800	-2
0.33167	-2
0.33533	-2
0.33900	-2
0.34267	-2
0.34633	-2
0.35000	-2
0.35367	-2
0.35733	-2
0.36100	-2
0.36467	-2
0.36833	-2
0.37200	-2
0.37567	-2
0.37933	-2
0.38300	-2
0.38667	-2
0.39033	-2
0.39400	-2
0.39767	-2
0.40133	-2
0.40500	-2
0.40867	-2
0.41233	-2
0.41600	-2
0.41967	-2
0.42333	-3
0.42700	-3
0.43067	-3
0.43433	-3
0.43800	-3
0.44167	-3
0.44533	-3
0.44900	-3
0.45267	-3
0.45633	-3
0.46000	-2
0.46367	-2
0.46733	-2
0.47100	-2
0.47467	-2
0.47833	-2
0.48200	-2
0.48567	-2
0.48933	-2
0.49300	-2
0.49667	-2
0.50033	-2
0.50400	-2
0.50767	-2
0.51133	-2
0.51500	-2
0.51867	-2
0.52233	-2
0.52600	-2
0.52967	-2
0.53333	-2
0.53700	-2
0.54067	-2
0.54433	-2
0.54800	-2
0.55167	-2
0.55533	-2
0.55900	-2
0.56267	-2
0.56633	-1
0.57000	-1
0.57367	-1
0.57733	-1
0.58100	-1
0.58467	-1
0.58833	-1
0.59200	-1
0.59567	-1
0.59933	-1
0.60300	-1
0.60667	-1
0.61033	-1
0.61400	-1
0.61767	-2
0.62133	-2
0.62500	-2
0.62867	-2
0.63233	-1
0.63600	-1
0.63967	-1
0.64333	-1
0.64700	-1
0.65067	-1
0.65433	-1
0.65800	-1
0.66167	-1
0.66533	-1
0.66900	-1
0.67267	-1
0.67633	-1
0.68000	-1
0.68367	-2
0.68733	-2
0.69100	-2
0.69467	-2
0.69833	-2
0.70200	-2
0.70567	-2
0.70933	-3
0.71300	-3
0.71667	-3
0.72033	-3
0.72400	-3
0.72767	-3
0.73133	-2
0.73500	-2
0.73867	-2
0.74233	-2
0.74600	-2
0.74967	-2
0.75333	-2
0.75700	-2
0.76067	-2
0.76433	-2
0.76800	-1
0.77167	-1
0.77533	-2
0.77900	-2
0.78267	-2
0.78633	-2
0.79000	-2
0.79367	-2
0.79733	-2
0.80100	-2
0.80467	-2
0.80833	-2
0.81200	-2
0.81567	-2
0.81933	-2
0.82300	-2
0.82667	-2
0.83033	-2
0.83400	-2
0.83767	-2
0.84133	-2
0.84500	-2
0.84867	-2
0.85233	-2
0.85600	-3
0.85967	-3
0.86333	-3
0.86700	-3
0.87067	-3
0.87433	-3
0.87800	-3
0.88167	-3
0.88533	-3
0.88900	-4
0.89267	-4
0.89633	-5
0.90000	-5
0.90367	-6
0.90733	-7
0.91100	-7
0.91467	-7
0.91833	-8
0.92200	-8
0.92567	-8
0.92933	-8
0.93300	-8
0.93667	-8
0.94033	-8
0.94400	-8
0.94767	-8
0.95133	-8
0.95500	-7
0.95867	-7
0.96233	-7
0.96600	-7
0.96967	-6
0.97333	-6
0.97700	-5
0.98067	-5
0.98433	-4
0.98800	-4
0.99167	-3
0.99533	-3
0.99900	-2
1.00267	-2
1.00633	-1
1.01000	-1
1.01367	-1
1.01733	-1
1.02100	-0
1.02467	0
1.02833	0
1.03200	0
1.03567	0
1.03933	0
1.04300	0
1.04667	-0
1.05033	-1
1.05400	-1
1.05767	-1
1.06133	-1
1.06500	-1
1.06867	-1
1.07233	-1
1.07600	-1
1.07967	-1
1.08333	-1
1.08700	-1
1.09067	-1
1.09433	-1
1.09800	-1
1.10167	-1
1.10533	-1
1.10900	-1
1.11267	-1
1.11633	-2
1.12000	-2
1.12367	-2
1.12733	-2
1.13100	-2
1.13467	-2
1.13833	-2
1.14200	-2
1.14567	-2
1.14933	-2
1.15300	-3
1.15667	-3
1.16033	-3
1.16400	-4
1.16767	-4
1.17133	-4
1.17500	-4
1.17867	-5
1.18233	-5
1.18600	-5
1.18967	-5
1.19333	-5
1.19700	-5
1.20067	-4
1.20433	-4
1.20800	-4
1.21167	-4
1.21533	-3
1.21900	-3
1.22267	-3
1.22633	-2
1.23000	-2
1.23367	-2
1.23733	-2
1.24100	-2
1.24467	-2
1.24833	-2
1.25200	-2
1.25567	-2
1.25933	-2
1.26300	-3
1.26667	-3
1.27033	-3
1.27400	-3
1.27767	-3
1.28133	-3
1.28500	-3
1.28867	-3
1.29233	-3
1.29600	-3
1.29967	-3
1.30333	-3
1.30700	-3
1.31067	-3
1.31433	-3
1.31800	-3
1.32167	-3
1.32533	-4
1.32900	-4
1.33267	-4
1.33633	-4
1.34000	-4
1.34367	-4
1.34733	-4
1.35100	-4
1.35467	-4
1.35833	-4
1.36200	-4
1.36567	-4
1.36933	-4
1.37300	-4
1.37667	-4
1.38033	-5
1.38400	-5
1.38767	-5
1.39133	-5
1.39500	-5
1.39867	-5
1.40233	-5
1.40600	-5
1.40967	-5
1.41333	-4
1.41700	-4
1.42067	-4
1.42433	-4
1.42800	-4
1.43167	-4
1.43533	-4
1.43900	-4
1.44267	-4
1.44633	-4
1.45000	-4
1.45367	-4
1.45733	-4
1.46100	-4
1.46467	-4
1.46833	-4
1.47200	-4
1.47567	-4
1.47933	-4
1.48300	-4
1.48667	-4
1.49033	-4
1.49400	-4
1.49767	-4
1.50133	-4
1.50500	-3
1.50867	-3
1.51233	-3
1.51600	-3
1.51967	-3
1.52333	-3
1.52700	-3
1.53067	-3
1.53433	-3
1.53800	-3
1.54167	-3
1.54533	-3
1.54900	-3
1.55267	-3
1.55633	-3
1.56000	-3
1.56367	-3
1.56733	-3
1.57100	-3
1.57467	-3
1.57833	-3
1.58200	-4
1.58567	-4
1.58933	-4
1.59300	-4
1.59667	-5
1.60033	-5
1.60400	-6
1.60767	-7
1.61133	-9
1.61500	-11
1.61867	-13
1.62233	-15
1.62600	-18
1.62967	-20
1.63333	-23
1.63700	-26
1.64067	-30
1.64433	-33
1.64800	-37
1.65167	-40
1.65533	-44
1.65900	-48
1.66267	-52
1.66633	-57
1.67000	-61
1.67367	-66
1.67733	-71
1.68100	-77
1.68467	-82
1.68833	-86
1.69200	-90
1.69567	-94
1.69933	-97
1.70300	-100
1.70667	-102
1.71033	-103
1.71400	-105
1.71767	-106
1.72133	-107
1.72500	-108
1.72867	-108
1.73233	-109
1.73600	-109
1.73967	-109
1.74333	-109
1.74700	-109
1.75067	-109
1.75433	-109
1.75800	-109
1.76167	-110
1.76533	-110
1.76900	-111
1.77267	-112
1.77633	-113
1.78000	-113
1.78367	-113
1.78733	-113
1.79100	-113
1.79467	-114
1.79833	-114
1.80200	-114
1.80567	-115
1.80933	-116
1.81300	-116
1.81667	-116
1.82033	-117
1.82400	-117
1.82767	-116
1.83133	-116
1.83500	-117
1.83867	-117
1.84233	-117
1.84600	-117
1.84967	-117
1.85333	-117
1.85700	-117
1.86067	-117
1.86433	-117
1.86800	-117
1.87167	-117
1.87533	-117
1.87900	-117
1.88267	-117
1.88633	-117
1.89000	-117
1.89367	-117
1.89733	-117
1.90100	-116
1.90467	-115
1.90833	-114
1.91200	-113
1.91567	-113
1.91933	-113
1.92300	-113
1.92667	-113
1.93033	-113
1.93400	-113
1.93767	-113
1.94133	-113
1.94500	-114
1.94867	-114
1.95233	-114
1.95600	-114
1.95967	-113
1.96333	-113
1.96700	-112
1.97067	-111
1.97433	-111
1.97800	-110
1.98167	-110
1.98533	-110
1.98900	-110
1.99267	-110
1.99633	-110
2.00000	-109
2.00367	-109
2.00733	-109
2.01100	-109
2.01467	-109
2.01833	-109
2.02200	-109
2.02567	-108
2.02933	-108
2.03300	-107
2.03667	-107
2.04033	-107
2.04400	-107
2.04767	-106
2.05133	-106
2.05500	-106
2.05867	-105
2.06233	-105
2.06600	-104
2.06967	-104
2.07333	-105
2.07700	-104
2.08067	-104
2.08433	-105
2.08800	-105
2.09167	-104
2.09533	-104
2.09900	-104
2.10267	-103
2.10633	-103
2.11000	-102
2.11367	-102
2.11733	-101
2.12100	-101
2.12467	-101
2.12833	-101
2.13200	-101
2.13567	-100
2.13933	-100
2.14300	-100
2.14667	-99
2.15033	-99
2.15400	-98
2.15767	-98
2.16133	-97
2.16500	-97
2.16867	-96
2.17233	-96
2.17600	-96
2.17967	-96
2.18333	-96
2.18700	-96
2.19067	-96
2.19433	-96
2.19800	-96
2.20167	-96
2.20533	-95
2.20900	-95
2.21267	-94
2.21633	-94
2.22000	-93
2.22367	-93
2.22733	-92
2.23100	-92
2.23467	-92
2.23833	-92
2.24200	-93
2.24567	-94
2.24933	-95
2.25300	-95
2.25667	-95
2.26033	-95
2.26400	-94
2.26767	-93
2.27133	-92
2.27500	-91
2.27867	-90
2.28233	-89
2.28600	-88
2.28967	-88
2.29333	-88
2.29700	-88
2.30067	-88
2.30433	-88
2.30800	-88
2.31167	-87
2.31533	-87
2.31900	-86
2.32267	-85
2.32633	-84
2.33000	-83
2.33367	-82
2.33733	-81
2.34100	-80
2.34467	-80
2.34833	-79
2.35200	-79
2.35567	-79
2.35933	-78
2.36300	-78
2.36667	-77
2.37033	-76
2.37400	-75
2.37767	-73
2.38133	-70
2.38500	-67
2.38867	-64
2.39233	-60
2.39600	-56
2.39967	-52
2.40333	-48
2.40700	-45
2.41067	-41
2.41433	-37
2.41800	-34
2.42167	-30
2.42533	-27
2.42900	-24
2.43267	-22
2.43633	-20
2.44000	-18
2.44367	-16
2.44733	-14
2.45100	-12
2.45467	-10
2.45833	-8
2.46200	-6
2.46567	-5
2.46933	-4
2.47300	-3
2.47667	-1
2.48033	-0
2.48400	1
2.48767	2
2.49133	3
2.49500	4
2.49867	5
2.50233	6
2.50600	7
2.50967	8
2.51333	9
2.51700	9
2.52067	10
2.52433	11
2.52800	12
2.53167	12
2.53533	13
2.53900	13
2.54267	14
2.54633	14
2.55000	14
2.55367	15
2.55733	15
2.56100	16
2.56467	16
2.56833	17
2.57200	17
2.57567	17
2.57933	17
2.58300	17
2.58667	16
2.59033	15
2.59400	15
2.59767	14
2.60133	14
2.60500	14
2.60867	15
2.61233	15
2.61600	16
2.61967	16
2.62333	17
2.62700	18
2.63067	18
2.63433	18
2.63800	19
2.64167	19
2.64533	19
2.64900	19
2.65267	20
2.65633	20
2.66000	20
2.66367	20
2.66733	21
2.67100	21
2.67467	21
2.67833	21
2.68200	21
2.68567	20
2.68933	20
2.69300	20
2.69667	20
2.70033	21
2.70400	21
2.70767	21
2.71133	22
2.71500	22
2.71867	23
2.72233	24
2.72600	24
2.72967	25
2.73333	25
2.73700	25
2.74067	24
2.74433	24
2.74800	24
2.75167	23
2.75533	23
2.75900	23
2.76267	23
2.76633	23
2.77000	23
2.77367	23
2.77733	24
2.78100	24
2.78467	24
2.78833	25
2.79200	25
2.79567	25
2.79933	25
2.80300	26
2.80667	26
2.81033	26
2.81400	26
2.81767	26
2.82133	26
2.82500	26
2.82867	26
2.83233	26
2.83600	26
2.83967	26
2.84333	25
2.84700	25
2.85067	24
2.85433	22
2.85800	19
2.86167	14
2.86533	7
2.86900	-4
2.87267	-18
2.87633	-35
2.88000	-57
2.88367	-83
2.88733	-113
2.89100	-146
2.89467	-183
2.89833	-224
2.90200	-267
2.90567	-313
2.90933	-361
2.91300	-411
2.91667	-462
2.92033	-513
2.92400	-565
2.92767	-617
2.93133	-669
2.93500	-720
2.93867	-770
2.94233	-821
2.94600	-874
2.94967	-933
2.95333	-994
2.95700	-1047
2.96067	-1081
2.96433	-1091
2.96800	-1074
2.97167	-1034
2.97533	-976
2.97900	-906
2.98267	-828
2.98633	-748
2.99000	-668
2.99367	-592
2.99733	-521
3.00100	-455
3.00467	-395
3.00833	-342
3.01200	-294
3.01567	-253
3.01933	-216
3.02300	-184
3.02667	-156
3.03033	-132
3.03400	-112
3.03767	-94
3.04133	-79
3.04500	-65
3.04867	-54
3.05233	-45
3.05600	-36
3.05967	-29
3.06333	-23
3.06700	-18
3.07067	-14
3.07433	-10
3.07800	-7
3.08167	-4
3.08533	-1
3.08900	1
3.09267	3
3.09633	4
3.10000	6
3.10367	7
3.10733	8
3.11100	9
3.11467	10
3.11833	11
3.12200	11
3.12567	12
3.12933	13
3.13300	13
3.13667	14
3.14033	14
3.14400	14
3.14767	15
3.15133	15
3.15500	15
3.15867	15
3.16233	16
3.16600	16
3.16967	16
3.17333	17
3.17700	17
3.18067	17
3.18433	17
3.18800	18
3.19167	18
3.19533	18
3.19900	19
3.20267	19
3.20633	19
3.21000	19
3.21367	20
3.21733	20
3.22100	20
3.22467	20
3.22833	20
3.23200	20
3.23567	20
3.23933	20
3.24300	19
3.24667	20
3.25033	20
3.25400	20
3.25767	20
3.26133	20
3.26500	20
3.26867	21
3.27233	21
3.27600	21
3.27967	21
3.28333	21
3.28700	22
3.29067	22
3.29433	22
3.29800	22
3.30167	22
3.30533	23
3.30900	23
3.31267	23
3.31633	23
3.32000	24
3.32367	24
3.32733	25
3.33100	25
3.33467	25
3.33833	25
3.34200	26
3.34567	26
3.34933	26
3.35300	26
3.35667	26
3.36033	26
3.36400	26
3.36767	26
3.37133	26
3.37500	26
3.37867	26
3.38233	26
3.38600	26
3.38967	26
3.39333	26
3.39700	27
3.40067	27
3.40433	27
3.40800	26
3.41167	26
3.41533	26
3.41900	26
3.42267	26
3.42633	26
3.43000	26
3.43367	26
3.43733	26
3.44100	26
3.44467	26
3.44833	26
3.45200	26
3.45567	26
3.45933	26
3.46300	26
3.46667	26
3.47033	26
3.47400	26
3.47767	25
3.48133	25
3.48500	25
3.48867	25
3.49233	26
3.49600	26
3.49967	26
3.50333	25
3.50700	25
3.51067	25
3.51433	26
3.51800	26
3.52167	26
3.52533	25
3.52900	25
3.53267	25
3.53633	25
3.54000	25
3.54367	25
3.54733	25
3.55100	25
3.55467	26
3.55833	26
3.56200	26
3.56567	26
3.56933	26
3.57300	26
3.57667	25
3.58033	25
3.58400	25
3.58767	25
3.59133	25
3.59500	25
3.59867	25
3.60233	24
3.60600	24
3.60967	24
3.61333	24
3.61700	24
3.62067	24
3.62433	24
3.62800	24
3.63167	24
3.63533	24
3.63900	24
3.64267	24
3.64633	24
3.65000	24
3.65367	24
3.65733	24
3.66100	24
3.66467	24
3.66833	24
3.67200	24
3.67567	24
3.67933	24
3.68300	24
3.68667	24
3.69033	24
3.69400	24
3.69767	24
3.70133	24
3.70500	24
3.70867	24
3.71233	24
3.71600	24
3.71967	24
3.72333	24
3.72700	24
3.73067	24
3.73433	24
3.73800	24
3.74167	24
3.74533	24
3.74900	24
3.75267	24
3.75633	24
3.76000	24
3.76367	23
3.76733	23
3.77100	23
3.77467	24
3.77833	24
3.78200	24
3.78567	24
3.78933	25
3.79300	25
3.79667	25
3.80033	25
3.80400	25
3.80767	25
3.81133	25
3.81500	24
3.81867	24
3.82233	24
3.82600	24
3.82967	24
3.83333	24
3.83700	24
3.84067	24
3.84433	24
3.84800	24
3.85167	24
3.85533	24
3.85900	24
3.86267	24
3.86633	25
3.87000	25
3.87367	25
3.87733	25
3.88100	25
3.88467	24
3.88833	24
3.89200	24
3.89567	24
3.89933	24
3.90300	24
3.90667	24
3.91033	24
3.91400	24
3.91767	24
3.92133	24
3.92500	24
3.92867	24
3.93233	24
3.93600	24
3.93967	24
3.94333	24
3.94700	24
3.95067	24
3.95433	24
3.95800	24
3.96167	24
3.96533	24
3.96900	24
3.97267	24
3.97633	24
3.98000	24
3.98367	24
3.98733	23
3.99100	23
3.99467	23
3.99833	23

[Chromatogram (Ch3)]
Interval(msec)	220
# of Points	1091
Start Time(min)	0.002
End Time(min)	3.998
R.Time (min)	Intensity
0.00167	0
0.00533	3
0.00900	5
0.01267	3
0.01633	0
0.02000	-1
0.02367	-3
0.02733	-4
0.03100	-3
0.03467	-2
0.03833	-1
0.04200	2
0.04567	1
0.04933	0
0.05300	-0
0.05667	-1
0.06033	-2
0.06400	-1
0.06767	-1
0.07133	-1
0.07500	-1
0.07867	-0
0.08233	0
0.08600	-1
0.08967	-1
0.09333	-1
0.09700	-2
0.10067	-4
0.10433	-4
0.10800	-3
0.11167	-1
0.11533	1
0.11900	1
0.12267	0
0.12633	-1
0.13000	-1
0.13367	-1
0.13733	-3
0.14100	-4
0.14467	-5
0.14833	-6
0.15200	-8
0.15567	-6
0.15933	-6
0.16300	-6
0.16667	-6
0.17033	-5
0.17400	-4
0.17767	-3
0.18133	-2
0.18500	-3
0.18867	-6
0.19233	-4
0.19600	-1
0.19967	0
0.20333	-3
0.20700	-5
0.21067	-5
0.21433	-3
0.21800	-3
0.22167	-4
0.22533	-4
0.22900	-3
0.23267	-4
0.23633	-5
0.24000	-5
0.24367	-5
0.24733	-5
0.25100	-7
0.25467	-8
0.25833	-8
0.26200	-7
0.26567	-5
0.26933	-5
0.27300	-4
0.27667	-5
0.28033	-6
0.28400	-6
0.28767	-7
0.29133	-8
0.29500	-9
0.29867	-6
0.30233	-3
0.30600	-2
0.30967	-3
0.31333	-4
0.31700	-5
0.32067	-5
0.32433	-5
0.32800	-6
0.33167	-6
0.33533	-5
0.33900	-7
0.34267	-8
0.34633	-7
0.35000	-6
0.35367	-3
0.35733	-0
0.36100	0
0.36467	1
0.36833	-1
0.37200	-5
0.37567	-8
0.37933	-8
0.38300	-7
0.38667	-6
0.39033	-7
0.39400	-7
0.39767	-8
0.40133	-9
0.40500	-11
0.40867	-12
0.41233	-14
0.41600	-14
0.41967	-14
0.42333	-15
0.42700	-14
0.43067	-12
0.43433	-13
0.43800	-14
0.44167	-13
0.44533	-11
0.44900	-10
0.45267	-9
0.45633	-10
0.46000	-11
0.46367	-12
0.46733	-15
0.47100	-16
0.47467	-12
0.47833	-9
0.48200	-8
0.48567	-9
0.48933	-7
0.49300	-6
0.49667	-8
0.50033	-7
0.50400	-5
0.50767	-4
0.51133	-4
0.51500	-6
0.51867	-5
0.52233	-3
0.52600	-4
0.52967	-3
0.53333	-3
0.53700	-5
0.54067	-8
0.54433	-11
0.54800	-12
0.55167	-13
0.55533	-12
0.55900	-11
0.56267	-11
0.56633	-12
0.57000	-11
0.57367	-9
0.57733	-8
0.58100	-10
0.58467	-10
0.58833	-11
0.59200	-11
0.59567	-13
0.59933	-17
0.60300	-17
0.60667	-17
0.61033	-14
0.61400	-13
0.61767	-11
0.62133	-10
0.62500	-10
0.62867	-10
0.63233	-12
0.63600	-12
0.63967	-14
0.64333	-16
0.64700	-16
0.65067	-15
0.65433	-13
0.65800	-13
0.66167	-13
0.66533	-11
0.66900	-10
0.67267	-10
0.67633	-8
0.68000	-8
0.68367	-7
0.68733	-8
0.69100	-9
0.69467	-9
0.69833	-7
0.70200	-6
0.70567	-6
0.70933	-5
0.71300	-6
0.71667	-6
0.72033	-7
0.72400	-8
0.72767	-10
0.73133	-13
0.73500	-14
0.73867	-12
0.74233	-7
0.74600	-5
0.74967	-4
0.75333	-3
0.75700	-3
0.76067	-4
0.76433	-4
0.76800	-8
0.77167	-12
0.77533	-12
0.77900	-10
0.78267	-7
0.78633	-6
0.79000	-7
0.79367	-6
0.79733	-6
0.80100	-8
0.80467	-10
0.80833	-9
0.81200	-9
0.81567	-8
0.81933	-8
0.82300	-8
0.82667	-9
0.83033	-10
0.83400	-8
0.83767	-9
0.84133	-10
0.84500	-13
0.84867	-13
0.85233	-12
0.85600	-12
0.85967	-14
0.86333	-17
0.86700	-19
0.87067	-20
0.87433	-18
0.87800	-15
0.88167	-14
0.88533	-14
0.88900	-14
0.89267	-14
0.89633	-16
0.90000	-15
0.90367	-13
0.90733	-12
0.91100	-12
0.91467	-12
0.91833	-13
0.92200	-12
0.92567	-11
0.92933	-14
0.93300	-16
0.93667	-16
0.94033	-15
0.94400	-14
0.94767	-13
0.95133	-13
0.95500	-13
0.95867	-14
0.96233	-15
0.96600	-16
0.96967	-16
0.97333	-13
0.97700	-12
0.98067	-11
0.98433	-11
0.98800	-12
0.99167	-13
0.99533	-13
0.99900	-13
1.00267	-10
1.00633	-9
1.01000	-10
1.01367	-11
1.01733	-10
1.02100	-10
1.02467	-12
1.02833	-12
1.03200	-11
1.03567	-11
1.03933	-11
1.04300	-12
1.04667	-15
1.05033	-15
1.05400	-11
1.05767	-10
1.06133	-11
1.06500	-13
1.06867	-13
1.07233	-12
1.07600	-13
1.07967	-13
1.08333	-13
1.08700	-13
1.09067	-12
1.09433	-12
1.09800	-13
1.10167	-9
1.10533	-7
1.10900	-7
1.11267	-7
1.11633	-6
1.12000	-6
1.12367	-8
1.12733	-9
1.13100	-11
1.13467	-12
1.13833	-9
1.14200	-5
1.14567	-4
1.14933	-6
1.15300	-9
1.15667	-11
1.16033	-11
1.16400	-12
1.16767	-11
1.17133	-10
1.17500	-10
1.17867	-8
1.18233	-7
1.18600	-7
1.18967	-10
1.19333	-11
1.19700	-11
1.20067	-9
1.20433	-8
1.20800	-6
1.21167	-7
1.21533	-10
1.21900	-12
1.22267	-13
1.22633	-14
1.23000	-15
1.23367	-17
1.23733	-17
1.24100	-16
1.24467	-16
1.24833	-16
1.25200	-15
1.25567	-15
1.25933	-14
1.26300	-15
1.26667	-16
1.27033	-13
1.27400	-11
1.27767	-12
1.28133	-12
1.28500	-12
1.28867	-13
1.29233	-14
1.29600	-15
1.29967	-17
1.30333	-16
1.30700	-11
1.31067	-9
1.31433	-11
1.31800	-14
1.32167	-18
1.32533	-17
1.32900	-16
1.33267	-15
1.33633	-14
1.34000	-13
1.34367	-13
1.34733	-13
1.35100	-13
1.35467	-16
1.35833	-19
1.36200	-19
1.36567	-17
1.36933	-13
1.37300	-10
1.37667	-10
1.38033	-11
1.38400	-13
1.38767	-12
1.39133	-12
1.39500	-12
1.39867	-13
1.40233	-13
1.40600	-11
1.40967	-9
1.41333	-6
1.41700	-6
1.42067	-6
1.42433	-8
1.42800	-11
1.43167	-11
1.43533	-10
1.43900	-10
1.44267	-13
1.44633	-13
1.45000	-13
1.45367	-13
1.45733	-11
1.46100	-10
1.46467	-11
1.46833	-12
1.47200	-11
1.47567	-12
1.47933	-14
1.48300	-17
1.48667	-18
1.49033	-16
1.49400	-13
1.49767	-11
1.50133	-8
1.50500	-9
1.50867	-9
1.51233	-8
1.51600	-7
1.51967	-6
1.52333	-5
1.52700	-6
1.53067	-8
1.53433	-8
1.53800	-6
1.54167	-7
1.54533	-9
1.54900	-9
1.55267	-8
1.55633	-10
1.56000	-11
1.56367	-12
1.56733	-14
1.57100	-13
1.57467	-9
1.57833	-7
1.58200	-8
1.58567	-10
1.58933	-9
1.59300	-7
1.59667	-6
1.60033	-4
1.60400	-4
1.60767	-4
1.61133	-5
1.61500	-6
1.61867	-7
1.62233	-8
1.62600	-8
1.62967	-6
1.63333	-8
1.63700	-9
1.64067	-10
1.64433	-9
1.64800	-7
1.65167	-7
1.65533	-6
1.65900	-7
1.66267	-8
1.66633	-8
1.67000	-9
1.67367	-7
1.67733	-4
1.68100	-2
1.68467	-1
1.68833	-1
1.69200	-2
1.69567	-4
1.69933	-4
1.70300	-3
1.70667	-1
1.71033	1
1.71400	3
1.71767	5
1.72133	7
1.72500	7
1.72867	8
1.73233	6
1.73600	4
1.73967	3
1.74333	2
1.74700	3
1.75067	3
1.75433	4
1.75800	7
1.76167	8
1.76533	9
1.76900	10
1.77267	11
1.77633	10
1.78000	10
1.78367	10
1.78733	9
1.79100	9
1.79467	11
1.79833	11
1.80200	10
1.80567	9
1.80933	8
1.81300	9
1.81667	12
1.82033	14
1.82400	16
1.82767	17
1.83133	17
1.83500	16
1.83867	14
1.84233	14
1.84600	13
1.84967	16
1.85333	16
1.85700	16
1.86067	16
1.86433	18
1.86800	20
1.87167	19
1.87533	16
1.87900	14
1.88267	14
1.88633	16
1.89000	17
1.89367	15
1.89733	16
1.90100	18
1.90467	17
1.90833	15
1.91200	15
1.91567	16
1.91933	18
1.92300	20
1.92667	22
1.93033	23
1.93400	23
1.93767	24
1.94133	25
1.94500	27
1.94867	28
1.95233	27
1.95600	27
1.95967	27
1.96333	29
1.96700	30
1.97067	30
1.97433	30
1.97800	32
1.98167	32
1.98533	32
1.98900	34
1.99267	36
1.99633	36
2.00000	36
2.00367	36
2.00733	36
2.01100	37
2.01467	39
2.01833	40
2.02200	41
2.02567	41
2.02933	41
2.03300	42
2.03667	42
2.04033	42
2.04400	43
2.04767	43
2.05133	45
2.05500	44
2.05867	41
2.06233	42
2.06600	45
2.06967	46
2.07333	46
2.07700	48
2.08067	49
2.08433	51
2.08800	54
2.09167	56
2.09533	57
2.09900	57
2.10267	56
2.10633	54
2.11000	53
2.11367	55
2.11733	56
2.12100	57
2.12467	58
2.12833	59
2.13200	60
2.13567	62
2.13933	64
2.14300	65
2.14667	68
2.15033	70
2.15400	72
2.15767	73
2.16133	72
2.16500	72
2.16867	73
2.17233	74
2.17600	74
2.17967	74
2.18333	73
2.18700	72
2.19067	73
2.19433	73
2.19800	73
2.20167	74
2.20533	75
2.20900	78
2.21267	82
2.21633	84
2.22000	83
2.22367	82
2.22733	82
2.23100	83
2.23467	84
2.23833	84
2.24200	85
2.24567	86
2.24933	86
2.25300	86
2.25667	87
2.26033	91
2.26400	94
2.26767	96
2.27133	97
2.27500	96
2.27867	96
2.28233	98
2.28600	100
2.28967	101
2.29333	100
2.29700	99
2.30067	99
2.30433	100
2.30800	102
2.31167	105
2.31533	107
2.31900	109
2.32267	112
2.32633	113
2.33000	114
2.33367	114
2.33733	112
2.34100	113
2.34467	114
2.34833	116
2.35200	119
2.35567	120
2.35933	120
2.36300	122
2.36667	122
2.37033	123
2.37400	125
2.37767	124
2.38133	125
2.38500	123
2.38867	119
2.39233	117
2.39600	119
2.39967	121
2.40333	123
2.40700	125
2.41067	127
2.41433	128
2.41800	131
2.42167	135
2.42533	138
2.42900	137
2.43267	137
2.43633	142
2.44000	149
2.44367	183
2.44733	258
2.45100	343
2.45467	406
2.45833	433
2.46200	438
2.46567	440
2.46933	440
2.47300	432
2.47667	413
2.48033	383
2.48400	351
2.48767	327
2.49133	311
2.49500	303
2.49867	302
2.50233	305
2.50600	310
2.50967	314
2.51333	322
2.51700	333
2.52067	339
2.52433	345
2.52800	354
2.53167	367
2.53533	383
2.53900	402
2.54267	421
2.54633	444
2.55000	472
2.55367	503
2.55733	538
2.56100	575
2.56467	611
2.56833	645
2.57200	674
2.57567	699
2.57933	722
2.58300	741
2.58667	752
2.59033	755
2.59400	752
2.59767	745
2.60133	736
2.60500	724
2.60867	710
2.61233	690
2.61600	668
2.61967	643
2.62333	617
2.62700	590
2.63067	565
2.63433	543
2.63800	522
2.64167	505
2.64533	493
2.64900	486
2.65267	485
2.65633	489
2.66000	496
2.66367	505
2.66733	513
2.67100	521
2.67467	532
2.67833	547
2.68200	560
2.68567	568
2.68933	578
2.69300	591
2.69667	605
2.70033	616
2.70400	627
2.70767	637
2.71133	648
2.71500	660
2.71867	669
2.72233	674
2.72600	679
2.72967	685
2.73333	687
2.73700	687
2.74067	687
2.74433	686
2.74800	682
2.75167	678
2.75533	675
2.75900	674
2.76267	672
2.76633	669
2.77000	664
2.77367	662
2.77733	658
2.78100	655
2.78467	654
2.78833	651
2.79200	648
2.79567	648
2.79933	649
2.80300	650
2.80667	648
2.81033	648
2.81400	648
2.81767	648
2.82133	648
2.82500	650
2.82867	660
2.83233	682
2.83600	727
2.83967	809
2.84333	956
2.84700	1193
2.85067	1538
2.85433	1997
2.85800	2563
2.86167	3204
2.86533	3872
2.86900	4505
2.87267	5056
2.87633	5480
2.88000	5750
2.88367	5860
2.88733	5821
2.89100	5655
2.89467	5395
2.89833	5066
2.90200	4699
2.90567	4318
2.90933	3941
2.91300	3581
2.91667	3243
2.92033	2932
2.92400	2650
2.92767	2398
2.93133	2175
2.93500	1977
2.93867	1803
2.94233	1651
2.94600	1520
2.94967	1407
2.95333	1305
2.95700	1221
2.96067	1149
2.96433	1086
2.96800	1029
2.97167	978
2.97533	935
2.97900	901
2.98267	872
2.98633	846
2.99000	823
2.99367	803
2.99733	787
3.00100	774
3.00467	761
3.00833	750
3.01200	742
3.01567	736
3.01933	731
3.02300	728
3.02667	725
3.03033	722
3.03400	720
3.03767	718
3.04133	714
3.04500	709
3.04867	709
3.05233	709
3.05600	709
3.05967	706
3.06333	699
3.06700	693
3.07067	691
3.07433	689
3.07800	687
3.08167	687
3.08533	683
3.08900	676
3.09267	674
3.09633	671
3.10000	666
3.10367	661
3.10733	657
3.11100	653
3.11467	650
3.11833	645
3.12200	642
3.12567	639
3.12933	638
3.13300	636
3.13667	631
3.14033	625
3.14400	621
3.14767	619
3.15133	615
3.15500	609
3.15867	605
3.16233	603
3.16600	599
3.16967	595
3.17333	592
3.17700	589
3.18067	586
3.18433	582
3.18800	579
3.19167	577
3.19533	575
3.19900	570
3.20267	567
3.20633	566
3.21000	566
3.21367	564
3.21733	561
3.22100	559
3.22467	557
3.22833	553
3.23200	548
3.23567	546
3.23933	544
3.24300	544
3.24667	542
3.25033	538
3.25400	533
3.25767	531
3.26133	528
3.26500	527
3.26867	525
3.27233	526
3.27600	524
3.27967	520
3.28333	516
3.28700	512
3.29067	508
3.29433	507
3.29800	506
3.30167	505
3.30533	505
3.30900	500
3.31267	497
3.31633	496
3.32000	494
3.32367	492
3.32733	489
3.33100	484
3.33467	480
3.33833	478
3.34200	474
3.34567	471
3.34933	469
3.35300	468
3.35667	467
3.36033	465
3.36400	463
3.36767	461
3.37133	458
3.37500	454
3.37867	451
3.38233	449
3.38600	451
3.38967	452
3.39333	452
3.39700	451
3.40067	448
3.40433	444
3.40800	441
3.41167	438
3.41533	435
3.41900	433
3.42267	432
3.42633	430
3.43000	429
3.43367	427
3.43733	425
3.44100	426
3.44467	425
3.44833	423
3.45200	418
3.45567	413
3.45933	412
3.46300	409
3.46667	405
3.47033	404
3.47400	406
3.47767	408
3.48133	407
3.48500	403
3.48867	400
3.49233	399
3.49600	399
3.49967	400
3.50333	398
3.50700	395
3.51067	393
3.51433	391
3.51800	388
3.52167	387
3.52533	388
3.52900	386
3.53267	385
3.53633	382
3.54000	380
3.54367	379
3.54733	377
3.55100	378
3.55467	379
3.55833	379
3.56200	375
3.56567	370
3.56933	369
3.57300	368
3.57667	369
3.58033	370
3.58400	369
3.58767	368
3.59133	366
3.59500	364
3.59867	361
3.60233	363
3.60600	363
3.60967	363
3.61333	361
3.61700	360
3.62067	358
3.62433	356
3.62800	352
3.63167	350
3.63533	350
3.63900	353
3.64267	354
3.64633	351
3.65000	349
3.65367	347
3.65733	344
3.66100	343
3.66467	344
3.66833	345
3.67200	346
3.67567	347
3.67933	348
3.68300	345
3.68667	342
3.69033	340
3.69400	340
3.69767	340
3.70133	337
3.70500	336
3.70867	335
3.71233	335
3.71600	332
3.71967	329
3.72333	330
3.72700	331
3.73067	333
3.73433	336
3.73800	338
3.74167	336
3.74533	334
3.74900	334
3.75267	332
3.75633	330
3.76000	329
3.76367	327
3.76733	326
3.77100	325
3.77467	326
3.77833	325
3.78200	324
3.78567	322
3.78933	321
3.79300	320
3.79667	320
3.80033	321
3.80400	321
3.80767	323
3.81133	324
3.81500	324
3.81867	324
3.82233	324
3.82600	325
3.82967	324
3.83333	323
3.83700	322
3.84067	321
3.84433	319
3.84800	317
3.85167	316
3.85533	316
3.85900	316
3.86267	316
3.86633	318
3.87000	319
3.87367	318
3.87733	316
3.88100	315
3.88467	314
3.88833	315
3.89200	314
3.89567	310
3.89933	310
3.90300	310
3.90667	310
3.91033	310
3.91400	310
3.91767	309
3.92133	309
3.92500	309
3.92867	308
3.93233	306
3.93600	304
3.93967	301
3.94333	299
3.94700	300
3.95067	302
3.95433	302
3.95800	301
3.96167	298
3.96533	297
3.96900	298
3.97267	296
3.97633	296
3.98000	298
3.98367	301
3.98733	300
3.99100	299
3.99467	298
3.99833	294

[Status Trace (Column Oven Temperature)]
Interval(msec)	1000
# of Points	240
Start Time(min)	0.013
End Time(min)	3.996
Intensity Units	
Intensity Multiplier	1
R.Time (min)	Intensity
0.01272	35.01
0.02938	35.00
0.04605	35.00
0.06272	35.00
0.07938	35.00
0.09605	35.00
0.11272	35.00
0.12938	35.00
0.14605	35.00
0.16272	35.00
0.17938	34.99
0.19605	34.99
0.21272	34.99
0.22938	34.99
0.24605	34.99
0.26272	34.99
0.27938	34.99
0.29605	34.99
0.31272	34.99
0.32938	34.99
0.34605	34.99
0.36272	34.99
0.37938	35.00
0.39605	35.00
0.41272	35.01
0.42938	35.01
0.44605	35.01
0.46272	35.00
0.47938	34.99
0.49605	34.99
0.51272	34.98
0.52938	34.99
0.54605	34.99
0.56272	35.00
0.57938	34.99
0.59605	34.99
0.61272	34.99
0.62938	34.99
0.64605	34.98
0.66272	34.99
0.67938	34.99
0.69605	35.00
0.71272	35.01
0.72938	35.00
0.74605	34.99
0.76272	34.99
0.77938	34.99
0.79605	34.98
0.81272	34.99
0.82938	34.99
0.84605	35.00
0.86272	35.00
0.87938	35.00
0.89605	35.02
0.91272	35.04
0.92938	35.05
0.94605	35.06
0.96272	35.05
0.97938	35.05
0.99605	35.04
1.01272	35.03
1.02938	35.02
1.04605	35.01
1.06272	35.01
1.07938	35.00
1.09605	34.99
1.11272	35.00
1.12938	34.99
1.14605	35.00
1.16272	35.00
1.17938	35.00
1.19605	35.01
1.21272	35.00
1.22938	35.00
1.24605	34.99
1.26272	34.98
1.27938	34.98
1.29605	34.98
1.31272	34.98
1.32938	34.98
1.34605	34.98
1.36272	34.98
1.37938	34.99
1.39605	35.00
1.41272	35.00
1.42938	35.00
1.44605	35.00
1.46272	35.00
1.47938	34.99
1.49605	34.99
1.51272	34.99
1.52938	34.98
1.54605	34.98
1.56272	34.98
1.57938	34.99
1.59605	35.01
1.61272	35.08
1.62938	35.22
1.64605	35.43
1.66272	35.70
1.67938	36.07
1.69605	36.44
1.71272	36.78
1.72938	37.12
1.74605	37.44
1.76272	37.78
1.77938	38.12
1.79605	38.44
1.81272	38.78
1.82938	39.10
1.84605	39.42
1.86272	39.76
1.87938	40.08
1.89605	40.41
1.91272	40.72
1.92938	41.04
1.94605	41.39
1.96272	41.70
1.97938	42.02
1.99605	42.35
2.01272	42.68
2.02938	42.99
2.04605	43.33
2.06272	43.65
2.07938	43.98
2.09605	44.30
2.11272	44.61
2.12938	44.94
2.14605	45.27
2.16272	45.58
2.17938	45.93
2.19605	46.27
2.21272	46.59
2.22938	46.91
2.24605	47.29
2.26272	47.62
2.27938	47.93
2.29605	48.29
2.31272	48.63
2.32938	48.92
2.34605	49.24
2.36272	49.56
2.37938	49.74
2.39605	49.77
2.41272	49.76
2.42938	49.77
2.44605	49.76
2.46272	49.77
2.47938	49.78
2.49605	49.79
2.51272	49.79
2.52938	49.79
2.54605	49.80
2.56272	49.80
2.57938	49.82
2.59605	49.84
2.61272	49.84
2.62938	49.84
2.64605	49.84
2.66272	49.84
2.67938	49.86
2.69605	49.87
2.71272	49.85
2.72938	49.85
2.74605	49.86
2.76272	49.86
2.77938	49.86
2.79605	49.86
2.81272	49.86
2.82938	49.86
2.84605	49.86
2.86272	49.88
2.87938	49.88
2.89605	49.89
2.91272	49.91
2.92938	49.93
2.94605	49.94
2.96272	49.96
2.97938	49.97
2.99605	49.99
3.01272	50.01
3.02938	50.02
3.04605	50.02
3.06272	50.03
3.07938	50.03
3.09605	50.03
3.11272	50.04
3.12938	50.05
3.14605	50.06
3.16272	50.07
3.17938	50.08
3.19605	50.08
3.21272	50.08
3.22938	50.10
3.24605	50.10
3.26272	50.11
3.27938	50.10
3.29605	50.10
3.31272	50.09
3.32938	50.09
3.34605	50.08
3.36272	50.07
3.37938	50.05
3.39605	50.05
3.41272	50.04
3.42938	50.04
3.44605	50.04
3.46272	50.03
3.47938	50.03
3.49605	50.03
3.51272	50.03
3.52938	50.03
3.54605	50.03
3.56272	50.03
3.57938	50.03
3.59605	50.04
3.61272	50.04
3.62938	50.03
3.64605	50.04
3.66272	50.04
3.67938	50.04
3.69605	50.05
3.71272	50.05
3.72938	50.05
3.74605	50.06
3.76272	50.06
3.77938	50.06
3.79605	50.05
3.81272	50.06
3.82938	50.06
3.84605	50.06
3.86272	50.07
3.87938	50.07
3.89605	50.07
3.91272	50.07
3.92938	50.07
3.94605	50.08
3.96272	50.08
3.97938	50.07
3.99605	50.08

[Status Trace (Injection Unit Temperature)]
Interval(msec)	1000
# of Points	240
Start Time(min)	0.013
End Time(min)	3.996
Intensity Units	
Intensity Multiplier	1
R.Time (min)	Intensity
0.01272	99.98
0.02938	99.98
0.04605	99.98
0.06272	99.98
0.07938	99.99
0.09605	99.99
0.11272	99.99
0.12938	99.99
0.14605	99.99
0.16272	99.99
0.17938	99.99
0.19605	99.99
0.21272	99.99
0.22938	99.99
0.24605	99.99
0.26272	99.99
0.27938	99.99
0.29605	100.00
0.31272	100.00
0.32938	100.00
0.34605	99.99
0.36272	99.99
0.37938	99.99
0.39605	99.99
0.41272	99.99
0.42938	100.00
0.44605	99.99
0.46272	100.00
0.47938	100.00
0.49605	99.99
0.51272	99.99
0.52938	100.00
0.54605	99.99
0.56272	99.99
0.57938	100.00
0.59605	100.00
0.61272	100.00
0.62938	99.99
0.64605	100.00
0.66272	100.00
0.67938	99.99
0.69605	100.00
0.71272	100.00
0.72938	99.99
0.74605	99.99
0.76272	99.99
0.77938	99.99
0.79605	99.99
0.81272	99.99
0.82938	99.99
0.84605	99.99
0.86272	99.99
0.87938	100.00
0.89605	99.99
0.91272	99.99
0.92938	99.99
0.94605	99.98
0.96272	99.99
0.97938	99.99
0.99605	99.99
1.01272	99.99
1.02938	99.99
1.04605	99.98
1.06272	99.99
1.07938	99.98
1.09605	99.98
1.11272	99.98
1.12938	99.98
1.14605	99.98
1.16272	99.98
1.17938	99.98
1.19605	99.98
1.21272	99.98
1.22938	99.98
1.24605	99.98
1.26272	99.98
1.27938	99.98
1.29605	99.98
1.31272	99.98
1.32938	99.98
1.34605	99.98
1.36272	99.98
1.37938	99.98
1.39605	99.98
1.41272	99.98
1.42938	99.98
1.44605	99.98
1.46272	99.98
1.47938	99.98
1.49605	99.98
1.51272	99.99
1.52938	99.98
1.54605	99.99
1.56272	99.98
1.57938	99.98
1.59605	99.98
1.61272	99.99
1.62938	99.98
1.64605	99.99
1.66272	99.98
1.67938	99.98
1.69605	99.98
1.71272	99.99
1.72938	99.99
1.74605	99.98
1.76272	99.99
1.77938	99.98
1.79605	99.99
1.81272	99.98
1.82938	99.99
1.84605	99.98
1.86272	99.98
1.87938	99.98
1.89605	99.98
1.91272	99.98
1.92938	99.98
1.94605	99.98
1.96272	99.98
1.97938	99.98
1.99605	99.98
2.01272	99.98
2.02938	99.98
2.04605	99.98
2.06272	99.97
2.07938	99.97
2.09605	99.97
2.11272	99.97
2.12938	99.97
2.14605	99.97
2.16272	99.97
2.17938	99.97
2.19605	99.97
2.21272	99.97
2.22938	99.97
2.24605	99.97
2.26272	99.97
2.27938	99.97
2.29605	99.97
2.31272	99.97
2.32938	99.97
2.34605	99.97
2.36272	99.97
2.37938	99.97
2.39605	99.97
2.41272	99.97
2.42938	99.97
2.44605	99.98
2.46272	99.98
2.47938	99.98
2.49605	99.98
2.51272	99.98
2.52938	99.98
2.54605	99.98
2.56272	99.98
2.57938	99.98
2.59605	99.98
2.61272	99.99
2.62938	99.99
2.64605	99.99
2.66272	99.99
2.67938	99.99
2.69605	99.99
2.71272	99.99
2.72938	99.99
2.74605	100.00
2.76272	100.00
2.77938	100.00
2.79605	100.00
2.81272	100.00
2.82938	100.00
2.84605	100.00
2.86272	100.01
2.87938	100.00
2.89605	100.01
2.91272	100.01
2.92938	100.00
2.94605	100.01
2.96272	100.01
2.97938	100.01
2.99605	100.01
3.01272	100.01
3.02938	100.01
3.04605	100.02
3.06272	100.02
3.07938	100.02
3.09605	100.02
3.11272	100.02
3.12938	100.03
3.14605	100.03
3.16272	100.02
3.17938	100.03
3.19605	100.03
3.21272	100.03
3.22938	100.03
3.24605	100.03
3.26272	100.03
3.27938	100.03
3.29605	100.03
3.31272	100.04
3.32938	100.03
3.34605	100.03
3.36272	100.04
3.37938	100.04
3.39605	100.04
3.41272	100.04
3.42938	100.04
3.44605	100.04
3.46272	100.04
3.47938	100.04
3.49605	100.04
3.51272	100.04
3.52938	100.04
3.54605	100.04
3.56272	100.04
3.57938	100.04
3.59605	100.04
3.61272	100.04
3.62938	100.04
3.64605	100.04
3.66272	100.05
3.67938	100.05
3.69605	100.05
3.71272	100.04
3.72938	100.05
3.74605	100.05
3.76272	100.05
3.77938	100.04
3.79605	100.05
3.81272	100.05
3.82938	100.05
3.84605	100.04
3.86272	100.05
3.87938	100.05
3.89605	100.05
3.91272	100.05
3.92938	100.04
3.94605	100.04
3.96272	100.05
3.97938	100.05
3.99605	100.04

[Status Trace (Carrier Gas Pressure)]
Interval(msec)	1000
# of Points	240
Start Time(min)	0.013
End Time(min)	3.996
Intensity Units	
Intensity Multiplier	1
R.Time (min)	Intensity
0.01272	57.95
0.02938	54.94
0.04605	57.79
0.06272	59.80
0.07938	58.82
0.09605	57.98
0.11272	58.00
0.12938	58.01
0.14605	58.01
0.16272	58.00
0.17938	58.00
0.19605	58.00
0.21272	58.00
0.22938	58.00
0.24605	58.00
0.26272	58.00
0.27938	58.00
0.29605	58.00
0.31272	58.00
0.32938	58.00
0.34605	58.00
0.36272	58.00
0.37938	58.00
0.39605	58.00
0.41272	58.00
0.42938	58.00
0.44605	58.00
0.46272	58.00
0.47938	58.00
0.49605	58.00
0.51272	58.00
0.52938	58.00
0.54605	58.00
0.56272	58.00
0.57938	58.00
0.59605	58.00
0.61272	58.00
0.62938	58.00
0.64605	58.00
0.66272	58.00
0.67938	58.00
0.69605	58.00
0.71272	58.00
0.72938	58.00
0.74605	58.00
0.76272	58.00
0.77938	58.00
0.79605	58.00
0.81272	58.00
0.82938	58.00
0.84605	58.00
0.86272	58.00
0.87938	58.00
0.89605	58.00
0.91272	58.00
0.92938	58.00
0.94605	58.00
0.96272	58.00
0.97938	58.00
0.99605	58.00
1.01272	58.00
1.02938	58.00
1.04605	58.00
1.06272	58.00
1.07938	58.00
1.09605	58.00
1.11272	58.00
1.12938	58.00
1.14605	58.00
1.16272	58.00
1.17938	58.00
1.19605	58.00
1.21272	58.00
1.22938	58.00
1.24605	58.00
1.26272	58.00
1.27938	58.00
1.29605	58.00
1.31272	58.00
1.32938	58.00
1.34605	58.00
1.36272	58.00
1.37938	58.00
1.39605	58.00
1.41272	58.00
1.42938	58.00
1.44605	58.00
1.46272	58.00
1.47938	58.00
1.49605	58.00
1.51272	58.00
1.52938	58.00
1.54605	58.00
1.56272	58.00
1.57938	58.00
1.59605	58.00
1.61272	58.00
1.62938	58.00
1.64605	58.01
1.66272	58.01
1.67938	58.01
1.69605	58.00
1.71272	58.00
1.72938	58.00
1.74605	58.00
1.76272	58.00
1.77938	58.00
1.79605	58.00
1.81272	58.00
1.82938	58.00
1.84605	58.00
1.86272	58.00
1.87938	58.00
1.89605	58.00
1.91272	58.00
1.92938	58.00
1.94605	58.00
1.96272	58.00
1.97938	58.00
1.99605	58.00
2.01272	58.00
2.02938	58.00
2.04605	58.00
2.06272	58.00
2.07938	58.00
2.09605	58.00
2.11272	58.00
2.12938	58.00
2.14605	58.00
2.16272	58.00
2.17938	58.00
2.19605	58.00
2.21272	58.00
2.22938	58.00
2.24605	58.00
2.26272	58.00
2.27938	58.00
2.29605	58.00
2.31272	58.00
2.32938	58.00
2.34605	58.00
2.36272	58.00
2.37938	57.99
2.39605	57.99
2.41272	57.99
2.42938	58.00
2.44605	58.00
2.46272	58.00
2.47938	58.00
2.49605	58.00
2.51272	57.99
2.52938	57.98
2.54605	58.00
2.56272	58.00
2.57938	58.00
2.59605	58.00
2.61272	58.00
2.62938	58.00
2.64605	58.00
2.66272	58.00
2.67938	58.00
2.69605	58.00
2.71272	58.00
2.72938	58.00
2.74605	58.00
2.76272	58.00
2.77938	58.00
2.79605	58.00
2.81272	58.00
2.82938	58.00
2.84605	58.00
2.86272	58.00
2.87938	58.00
2.89605	58.00
2.91272	58.00
2.92938	58.00
2.94605	58.00
2.96272	58.00
2.97938	58.00
2.99605	58.00
3.01272	58.00
3.02938	58.00
3.04605	58.00
3.06272	58.00
3.07938	58.00
3.09605	58.00
3.11272	58.00
3.12938	58.00
3.14605	58.00
3.16272	58.00
3.17938	58.00
3.19605	58.00
3.21272	58.00
3.22938	58.00
3.24605	58.00
3.26272	58.00
3.27938	58.00
3.29605	58.00
3.31272	58.00
3.32938	58.00
3.34605	58.00
3.36272	58.00
3.37938	58.00
3.39605	58.00
3.41272	58.00
3.42938	58.00
3.44605	58.00
3.46272	58.00
3.47938	58.00
3.49605	58.00
3.51272	58.00
3.52938	58.00
3.54605	58.00
3.56272	58.00
3.57938	58.00
3.59605	58.00
3.61272	58.00
3.62938	58.00
3.64605	58.00
3.66272	58.00
3.67938	58.00
3.69605	58.00
3.71272	58.00
3.72938	58.00
3.74605	58.00
3.76272	58.00
3.77938	58.00
3.79605	58.00
3.81272	58.00
3.82938	58.00
3.84605	58.00
3.86272	58.00
3.87938	58.00
3.89605	58.00
3.91272	58.00
3.92938	58.00
3.94605	58.00
3.96272	58.00
3.97938	58.00
3.99605	58.00

[Status Trace (Carrier Gas Flow)]
Interval(msec)	1000
# of Points	240
Start Time(min)	0.013
End Time(min)	3.996
Intensity Units	
Intensity Multiplier	1
R.Time (min)	Intensity
0.01272	34.69
0.02938	34.54
0.04605	34.55
0.06272	34.54
0.07938	34.52
0.09605	34.52
0.11272	34.52
0.12938	34.52
0.14605	34.52
0.16272	34.52
0.17938	34.52
0.19605	34.52
0.21272	34.52
0.22938	34.52
0.24605	34.52
0.26272	34.52
0.27938	34.52
0.29605	34.52
0.31272	34.52
0.32938	34.52
0.34605	34.52
0.36272	34.52
0.37938	34.52
0.39605	34.52
0.41272	34.52
0.42938	34.52
0.44605	34.52
0.46272	34.52
0.47938	34.52
0.49605	34.52
0.51272	34.52
0.52938	34.52
0.54605	34.52
0.56272	34.52
0.57938	34.52
0.59605	34.52
0.61272	34.52
0.62938	34.52
0.64605	34.52
0.66272	34.52
0.67938	34.52
0.69605	34.52
0.71272	34.52
0.72938	34.52
0.74605	34.51
0.76272	34.52
0.77938	34.52
0.79605	34.52
0.81272	34.52
0.82938	34.52
0.84605	34.52
0.86272	34.52
0.87938	34.52
0.89605	34.52
0.91272	34.52
0.92938	34.52
0.94605	34.52
0.96272	34.52
0.97938	34.52
0.99605	34.52
1.01272	34.52
1.02938	34.52
1.04605	34.52
1.06272	34.52
1.07938	34.52
1.09605	34.52
1.11272	34.52
1.12938	34.52
1.14605	34.52
1.16272	34.52
1.17938	34.52
1.19605	34.52
1.21272	34.52
1.22938	34.52
1.24605	34.52
1.26272	34.52
1.27938	34.52
1.29605	34.52
1.31272	34.52
1.32938	34.52
1.34605	34.52
1.36272	34.52
1.37938	34.52
1.39605	34.52
1.41272	34.52
1.42938	34.52
1.44605	34.52
1.46272	34.52
1.47938	34.52
1.49605	34.52
1.51272	34.52
1.52938	34.52
1.54605	34.52
1.56272	34.52
1.57938	34.52
1.59605	34.52
1.61272	34.52
1.62938	34.52
1.64605	34.52
1.66272	34.52
1.67938	34.52
1.69605	34.52
1.71272	34.52
1.72938	34.52
1.74605	34.52
1.76272	34.52
1.77938	34.52
1.79605	34.52
1.81272	34.52
1.82938	34.52
1.84605	34.52
1.86272	34.52
1.87938	34.52
1.89605	34.52
1.91272	34.52
1.92938	34.52
1.94605	34.52
1.96272	34.52
1.97938	34.52
1.99605	34.52
2.01272	34.52
2.02938	34.52
2.04605	34.52
2.06272	34.52
2.07938	34.52
2.09605	34.52
2.11272	34.52
2.12938	34.52
2.14605	34.52
2.16272	34.52
2.17938	34.52
2.19605	34.52
2.21272	34.52
2.22938	34.52
2.24605	34.52
2.26272	34.52
2.27938	34.52
2.29605	34.52
2.31272	34.52
2.32938	34.52
2.34605	34.52
2.36272	34.52
2.37938	34.52
2.39605	34.52
2.41272	34.52
2.42938	34.52
2.44605	34.52
2.46272	34.52
2.47938	34.52
2.49605	34.52
2.51272	34.51
2.52938	34.52
2.54605	34.52
2.56272	34.52
2.57938	34.52
2.59605	34.52
2.61272	34.52
2.62938	34.52
2.64605	34.52
2.66272	34.52
2.67938	34.52
2.69605	34.52
2.71272	34.52
2.72938	34.52
2.74605	34.52
2.76272	34.52
2.77938	34.52
2.79605	34.52
2.81272	34.52
2.82938	34.52
2.84605	34.52
2.86272	34.52
2.87938	34.52
2.89605	34.52
2.91272	34.52
2.92938	34.52
2.94605	34.52
2.96272	34.52
2.97938	34.52
2.99605	34.52
3.01272	34.52
3.02938	34.52
3.04605	34.52
3.06272	34.52
3.07938	34.52
3.09605	34.52
3.11272	34.52
3.12938	34.52
3.14605	34.52
3.16272	34.52
3.17938	34.52
3.19605	34.52
3.21272	34.52
3.22938	34.52
3.24605	34.52
3.26272	34.52
3.27938	34.52
3.29605	34.52
3.31272	34.52
3.32938	34.52
3.34605	34.52
3.36272	34.52
3.37938	34.52
3.39605	34.52
3.41272	34.52
3.42938	34.52
3.44605	34.52
3.46272	34.52
3.47938	34.52
3.49605	34.52
3.51272	34.52
3.52938	34.52
3.54605	34.52
3.56272	34.52
3.57938	34.52
3.59605	34.52
3.61272	34.52
3.62938	34.52
3.64605	34.52
3.66272	34.52
3.67938	34.52
3.69605	34.52
3.71272	34.52
3.72938	34.52
3.74605	34.52
3.76272	34.52
3.77938	34.52
3.79605	34.52
3.81272	34.52
3.82938	34.52
3.84605	34.52
3.86272	34.52
3.87938	34.51
3.89605	34.52
3.91272	34.52
3.92938	34.52
3.94605	34.53
3.96272	34.52
3.97938	34.52
3.99605	34.53

[Status Trace (Column Flow)]
Interval(msec)	1000
# of Points	240
Start Time(min)	0.013
End Time(min)	3.996
Intensity Units	
Intensity Multiplier	1
R.Time (min)	Intensity
0.01272	5.44
0.02938	5.10
0.04605	5.42
0.06272	5.65
0.07938	5.54
0.09605	5.44
0.11272	5.45
0.12938	5.45
0.14605	5.45
0.16272	5.45
0.17938	5.45
0.19605	5.45
0.21272	5.45
0.22938	5.45
0.24605	5.45
0.26272	5.45
0.27938	5.45
0.29605	5.45
0.31272	5.45
0.32938	5.45
0.34605	5.45
0.36272	5.45
0.37938	5.45
0.39605	5.45
0.41272	5.45
0.42938	5.45
0.44605	5.45
0.46272	5.45
0.47938	5.45
0.49605	5.45
0.51272	5.45
0.52938	5.45
0.54605	5.45
0.56272	5.45
0.57938	5.45
0.59605	5.45
0.61272	5.45
0.62938	5.45
0.64605	5.45
0.66272	5.45
0.67938	5.45
0.69605	5.45
0.71272	5.45
0.72938	5.45
0.74605	5.45
0.76272	5.45
0.77938	5.45
0.79605	5.45
0.81272	5.45
0.82938	5.45
0.84605	5.45
0.86272	5.45
0.87938	5.45
0.89605	5.45
0.91272	5.44
0.92938	5.44
0.94605	5.44
0.96272	5.44
0.97938	5.44
0.99605	5.44
1.01272	5.44
1.02938	5.44
1.04605	5.45
1.06272	5.45
1.07938	5.45
1.09605	5.45
1.11272	5.45
1.12938	5.45
1.14605	5.45
1.16272	5.45
1.17938	5.45
1.19605	5.45
1.21272	5.45
1.22938	5.45
1.24605	5.45
1.26272	5.45
1.27938	5.45
1.29605	5.45
1.31272	5.45
1.32938	5.45
1.34605	5.45
1.36272	5.45
1.37938	5.45
1.39605	5.45
1.41272	5.45
1.42938	5.45
1.44605	5.45
1.46272	5.45
1.47938	5.45
1.49605	5.45
1.51272	5.45
1.52938	5.45
1.54605	5.45
1.56272	5.45
1.57938	5.45
1.59605	5.45
1.61272	5.44
1.62938	5.44
1.64605	5.43
1.66272	5.42
1.67938	5.41
1.69605	5.40
1.71272	5.39
1.72938	5.38
1.74605	5.37
1.76272	5.36
1.77938	5.35
1.79605	5.34
1.81272	5.33
1.82938	5.32
1.84605	5.31
1.86272	5.30
1.87938	5.29
1.89605	5.28
1.91272	5.27
1.92938	5.26
1.94605	5.25
1.96272	5.24
1.97938	5.23
1.99605	5.22
2.01272	5.21
2.02938	5.21
2.04605	5.20
2.06272	5.19
2.07938	5.18
2.09605	5.17
2.11272	5.16
2.12938	5.15
2.14605	5.14
2.16272	5.13
2.17938	5.12
2.19605	5.11
2.21272	5.10
2.22938	5.10
2.24605	5.08
2.26272	5.07
2.27938	5.07
2.29605	5.06
2.31272	5.05
2.32938	5.04
2.34605	5.03
2.36272	5.02
2.37938	5.02
2.39605	5.01
2.41272	5.01
2.42938	5.01
2.44605	5.01
2.46272	5.01
2.47938	5.01
2.49605	5.01
2.51272	5.01
2.52938	5.01
2.54605	5.01
2.56272	5.01
2.57938	5.01
2.59605	5.01
2.61272	5.01
2.62938	5.01
2.64605	5.01
2.66272	5.01
2.67938	5.01
2.69605	5.01
2.71272	5.01
2.72938	5.01
2.74605	5.01
2.76272	5.01
2.77938	5.01
2.79605	5.01
2.81272	5.01
2.82938	5.01
2.84605	5.01
2.86272	5.01
2.87938	5.01
2.89605	5.01
2.91272	5.01
2.92938	5.01
2.94605	5.01
2.96272	5.01
2.97938	5.01
2.99605	5.01
3.01272	5.01
3.02938	5.01
3.04605	5.01
3.06272	5.01
3.07938	5.01
3.09605	5.01
3.11272	5.01
3.12938	5.01
3.14605	5.01
3.16272	5.01
3.17938	5.01
3.19605	5.01
3.21272	5.01
3.22938	5.01
3.24605	5.01
3.26272	5.01
3.27938	5.01
3.29605	5.01
3.31272	5.01
3.32938	5.01
3.34605	5.01
3.36272	5.01
3.37938	5.01
3.39605	5.01
3.41272	5.01
3.42938	5.01
3.44605	5.01
3.46272	5.01
3.47938	5.01
3.49605	5.01
3.51272	5.01
3.52938	5.01
3.54605	5.01
3.56272	5.01
3.57938	5.01
3.59605	5.01
3.61272	5.01
3.62938	5.01
3.64605	5.01
3.66272	5.01
3.67938	5.01
3.69605	5.01
3.71272	5.01
3.72938	5.01
3.74605	5.01
3.76272	5.01
3.77938	5.01
3.79605	5.01
3.81272	5.01
3.82938	5.01
3.84605	5.01
3.86272	5.01
3.87938	5.01
3.89605	5.01
3.91272	5.01
3.92938	5.01
3.94605	5.01
3.96272	5.01
3.97938	5.01
3.99605	5.01

[Status Trace (Linear Velocity)]
Interval(msec)	1000
# of Points	240
Start Time(min)	0.013
End Time(min)	3.996
Intensity Units	
Intensity Multiplier	1
R.Time (min)	Intensity
0.01272	38.97
0.02938	36.99
0.04605	38.86
0.06272	40.17
0.07938	39.54
0.09605	38.99
0.11272	39.00
0.12938	39.01
0.14605	39.00
0.16272	39.00
0.17938	39.00
0.19605	39.00
0.21272	39.00
0.22938	39.00
0.24605	39.00
0.26272	39.00
0.27938	39.00
0.29605	39.00
0.31272	39.00
0.32938	39.00
0.34605	39.00
0.36272	39.00
0.37938	39.00
0.39605	39.00
0.41272	39.00
0.42938	39.00
0.44605	39.00
0.46272	39.00
0.47938	39.00
0.49605	39.00
0.51272	39.00
0.52938	39.00
0.54605	39.00
0.56272	39.00
0.57938	39.00
0.59605	39.00
0.61272	39.00
0.62938	39.00
0.64605	39.00
0.66272	39.00
0.67938	39.00
0.69605	39.00
0.71272	39.00
0.72938	39.00
0.74605	39.00
0.76272	39.00
0.77938	39.00
0.79605	39.00
0.81272	39.00
0.82938	39.00
0.84605	39.00
0.86272	39.00
0.87938	39.00
0.89605	39.00
0.91272	39.00
0.92938	38.99
0.94605	38.99
0.96272	38.99
0.97938	38.99
0.99605	38.99
1.01272	39.00
1.02938	39.00
1.04605	39.00
1.06272	39.00
1.07938	39.00
1.09605	39.00
1.11272	39.00
1.12938	39.00
1.14605	39.00
1.16272	39.00
1.17938	39.00
1.19605	39.00
1.21272	39.00
1.22938	39.00
1.24605	39.00
1.26272	39.00
1.27938	39.00
1.29605	39.00
1.31272	39.00
1.32938	39.00
1.34605	39.00
1.36272	39.00
1.37938	39.00
1.39605	39.00
1.41272	39.00
1.42938	39.00
1.44605	39.00
1.46272	39.00
1.47938	39.00
1.49605	39.00
1.51272	39.00
1.52938	39.00
1.54605	39.00
1.56272	39.00
1.57938	39.00
1.59605	39.00
1.61272	38.99
1.62938	38.98
1.64605	38.96
1.66272	38.93
1.67938	38.90
1.69605	38.86
1.71272	38.83
1.72938	38.80
1.74605	38.77
1.76272	38.73
1.77938	38.71
1.79605	38.67
1.81272	38.64
1.82938	38.61
1.84605	38.58
1.86272	38.55
1.87938	38.52
1.89605	38.49
1.91272	38.46
1.92938	38.43
1.94605	38.40
1.96272	38.37
1.97938	38.34
1.99605	38.31
2.01272	38.28
2.02938	38.25
2.04605	38.22
2.06272	38.19
2.07938	38.16
2.09605	38.13
2.11272	38.10
2.12938	38.07
2.14605	38.04
2.16272	38.01
2.17938	37.98
2.19605	37.95
2.21272	37.92
2.22938	37.89
2.24605	37.86
2.26272	37.83
2.27938	37.80
2.29605	37.77
2.31272	37.74
2.32938	37.71
2.34605	37.68
2.36272	37.65
2.37938	37.64
2.39605	37.63
2.41272	37.63
2.42938	37.64
2.44605	37.64
2.46272	37.63
2.47938	37.63
2.49605	37.63
2.51272	37.63
2.52938	37.62
2.54605	37.63
2.56272	37.63
2.57938	37.63
2.59605	37.63
2.61272	37.63
2.62938	37.63
2.64605	37.63
2.66272	37.63
2.67938	37.63
2.69605	37.63
2.71272	37.63
2.72938	37.63
2.74605	37.63
2.76272	37.63
2.77938	37.63
2.79605	37.63
2.81272	37.63
2.82938	37.63
2.84605	37.63
2.86272	37.63
2.87938	37.63
2.89605	37.63
2.91272	37.62
2.92938	37.62
2.94605	37.62
2.96272	37.62
2.97938	37.62
2.99605	37.62
3.01272	37.61
3.02938	37.61
3.04605	37.61
3.06272	37.61
3.07938	37.61
3.09605	37.61
3.11272	37.61
3.12938	37.61
3.14605	37.61
3.16272	37.61
3.17938	37.61
3.19605	37.61
3.21272	37.61
3.22938	37.61
3.24605	37.61
3.26272	37.61
3.27938	37.61
3.29605	37.61
3.31272	37.61
3.32938	37.61
3.34605	37.61
3.36272	37.61
3.37938	37.61
3.39605	37.61
3.41272	37.61
3.42938	37.61
3.44605	37.61
3.46272	37.61
3.47938	37.61
3.49605	37.61
3.51272	37.61
3.52938	37.61
3.54605	37.61
3.56272	37.61
3.57938	37.61
3.59605	37.61
3.61272	37.61
3.62938	37.61
3.64605	37.61
3.66272	37.61
3.67938	37.61
3.69605	37.61
3.71272	37.61
3.72938	37.61
3.74605	37.61
3.76272	37.61
3.77938	37.61
3.79605	37.61
3.81272	37.61
3.82938	37.61
3.84605	37.61
3.86272	37.61
3.87938	37.61
3.89605	37.61
3.91272	37.61
3.92938	37.61
3.94605	37.61
3.96272	37.61
3.97938	37.61
3.99605	37.61

