[Header]
Application Name	LabSolutions
Version	5.110
Data File Name	C:\Users\User\Desktop\GC Analyses\Jack\UIC Prairie Sampling\10.19.22\221019_115.gcd
Output Date	1/4/2023
Output Time	2:27:20 PM

[File Information]
Type	Data File
Generated	12/19/2022 11:29:13 AM
Generated by	System Administrator
Modified	12/19/2022 11:33:45 AM
Modified by	System Administrator

[Sample Information]
Operator Name	System Administrator
Acquired	12/19/2022 11:29:44 AM
Sample Type	1:Standard
Level	1
Sample Name	221019_UICPrairie
Sample ID	221019_UICPrairie
ISTD Amount1	1
ISTD Amount2	1
ISTD Amount3	1
ISTD Amount4	1
ISTD Amount5	1
ISTD Amount6	1
ISTD Amount7	1
ISTD Amount8	1
ISTD Amount9	1
ISTD Amount10	1
ISTD Amount11	1
ISTD Amount12	1
ISTD Amount13	1
ISTD Amount14	1
ISTD Amount15	1
ISTD Amount16	1
ISTD Amount17	1
ISTD Amount18	1
ISTD Amount19	1
ISTD Amount20	1
ISTD Amount21	1
ISTD Amount22	1
ISTD Amount23	1
ISTD Amount24	1
ISTD Amount25	1
ISTD Amount26	1
ISTD Amount27	1
ISTD Amount28	1
ISTD Amount29	1
ISTD Amount30	1
ISTD Amount31	1
ISTD Amount32	1
Sample Amount	1
Dilution Factor	1
Vial#	1
Injection Volume	1
Injection Count	1
Bar Code	

[Original Files]
Data File	C:\Users\User\Desktop\GC Analyses\Jack\UIC Prairie Sampling\10.19.22\221019_115.gcd
Method File	C:\LabSolutions\Data\GHG_4min_2022\ghg3_togas_w_acet_4 min_new_int.gcm
Batch File	
Report Format File	c:\LabSolutions\System\DEFAULT.lsr

[File Description]


[Configuration]
Instrument Name	C0B7VH3-Instrument1
Instrument #	1
Line #	1
# of Detectors	3
Detector ID	DET#1	DET#2	DET#3
Detector Name	FID	PTCD	ECD
# of Channels	1	1	1

[Peak Table(Ch1)]
# of Peaks	3
Peak#	R.Time	I.Time	F.Time	Area	Height	A/H	Conc.	Mark	ID#	Name	k'	Plate #	Plate Ht.	Tailing	Resolution	Sep.Factor	Area Ratio	Height Ratio	Conc. %	Norm Conc.
1	1.465	1.439	1.534	2519	754	3.343	100.000	   	1	CO	0.000	4727	31.735	0.000	0.000	0.000	0	0	16.667	16.667
2	1.571	1.534	1.648	21171	10607	1.996	100.000	 V 	2	CH4	0.073	11299	13.275	1.186	1.473	0.000	0	0	16.667	16.667
3	2.000	1.952	2.697	2143252	980012	2.187	400.000	   	3	CO2	0.365	17050	8.798	1.286	7.127	5.034	0	0	66.667	66.667

[Peak Table(Ch2)]
# of Peaks	0

[Peak Table(Ch3)]
# of Peaks	4
Peak#	R.Time	I.Time	F.Time	Area	Height	A/H	Conc.	Mark	ID#	Name	k'	Plate #	Plate Ht.	Tailing	Resolution	Sep.Factor	Area Ratio	Height Ratio	Conc. %	Norm Conc.
1	2.458	2.293	2.554	2969	398	7.461	0.000	   			0.000	1352	110.948	0.000	0.000	0.000	0	0	0.000	0.000
2	2.605	2.554	2.649	1131	290	3.905	0.000	 V 			0.060	3904	38.422	0.000	0.676	0.000	0	0	0.000	0.000
3	2.884	2.667	3.133	60622	15580	3.891	1.000	   	1	N2O	0.173	12966	11.569	1.543	2.079	2.900	0	0	50.000	50.000
4	3.415	3.298	3.965	8681	411	21.139	1.000	   	2	SF6	0.389	582	257.917	2.780	1.592	2.250	0	0	50.000	50.000

[Compound Results(Ch1)]
# of IDs	6
ID#	Name	R.Time	Area	Height	Conc.	Curve	3rd	2nd	1st	Constant	Area Ratio	Height Ratio	Conc. %	Norm Conc.
1	CO	1.465	2519	754	100.000	Linear	0.000000e+00	0.000000e+00	2.519107e+001	0.000000e+00	0	0	16.667	16.667
2	CH4	1.571	21171	10607	100.000	Linear	0.000000e+00	0.000000e+00	2.117091e+002	0.000000e+00	0	0	16.667	16.667
3	CO2	2.000	2143252	980012	400.000	Linear	0.000000e+00	0.000000e+00	5.358131e+003	0.000000e+00	0	0	66.667	66.667
4	Ethylene	0.000	0	0	0.000	Linear	0.000000e+00	0.000000e+00	0.000000e+00	0.000000e+00	0	0	0.000	0.000
5	Acetylene	0.000	0	0	0.000	Linear	0.000000e+00	0.000000e+00	0.000000e+00	0.000000e+00	0	0	0.000	0.000
6	Ethane	0.000	0	0	0.000	Linear	0.000000e+00	0.000000e+00	0.000000e+00	0.000000e+00	0	0	0.000	0.000

[Compound Results(Ch2)]
# of IDs	5
ID#	Name	R.Time	Area	Height	Conc.	Curve	3rd	2nd	1st	Constant	Area Ratio	Height Ratio	Conc. %	Norm Conc.
1	Hydrogen	0.000	0	0	0.000	Linear	0.000000e+00	0.000000e+00	0.000000e+00	0.000000e+00	0	0	0.000	0.000
2	Oxygen	0.000	0	0	0.000	Linear	0.000000e+00	0.000000e+00	0.000000e+00	0.000000e+00	0	0	0.000	0.000
3	Nitrogen	0.000	0	0	0.000	Linear	0.000000e+00	0.000000e+00	0.000000e+00	0.000000e+00	0	0	0.000	0.000
4	Methane	0.000	0	0	0.000	Linear	0.000000e+00	0.000000e+00	0.000000e+00	0.000000e+00	0	0	0.000	0.000
5	Carbon Monoxide	0.000	0	0	0.000	Linear	0.000000e+00	0.000000e+00	0.000000e+00	0.000000e+00	0	0	0.000	0.000

[Compound Results(Ch3)]
# of IDs	2
ID#	Name	R.Time	Area	Height	Conc.	Curve	3rd	2nd	1st	Constant	Area Ratio	Height Ratio	Conc. %	Norm Conc.
1	N2O	2.884	60622	15580	1.000	Linear	0.000000e+00	0.000000e+00	6.062153e+004	0.000000e+00	0	0	50.000	50.000
2	SF6	3.415	8681	411	1.000	Linear	0.000000e+00	0.000000e+00	8.680940e+003	0.000000e+00	0	0	50.000	50.000

[Group Results(Ch1)]
# of Groups	0

[Group Results(Ch2)]
# of Groups	0

[Group Results(Ch3)]
# of Groups	0

[Chromatogram (Ch1)]
Interval(msec)	220
# of Points	1091
Start Time(min)	0.002
End Time(min)	3.998
R.Time (min)	Intensity
0.00167	-12
0.00533	-24
0.00900	-32
0.01267	-35
0.01633	-33
0.02000	-27
0.02367	-20
0.02733	-17
0.03100	-15
0.03467	-14
0.03833	-13
0.04200	-14
0.04567	-13
0.04933	-9
0.05300	-6
0.05667	-3
0.06033	-3
0.06400	-5
0.06767	-13
0.07133	-23
0.07500	-26
0.07867	-24
0.08233	-18
0.08600	-14
0.08967	-14
0.09333	-20
0.09700	-24
0.10067	-29
0.10433	-34
0.10800	-39
0.11167	-43
0.11533	-42
0.11900	-34
0.12267	-22
0.12633	-13
0.13000	-13
0.13367	-17
0.13733	-23
0.14100	-23
0.14467	-21
0.14833	-22
0.15200	-23
0.15567	-23
0.15933	-22
0.16300	-22
0.16667	-19
0.17033	-19
0.17400	-25
0.17767	-35
0.18133	-45
0.18500	-52
0.18867	-55
0.19233	-53
0.19600	-50
0.19967	-45
0.20333	-40
0.20700	-36
0.21067	-35
0.21433	-38
0.21800	-41
0.22167	-45
0.22533	-49
0.22900	-54
0.23267	-57
0.23633	-55
0.24000	-50
0.24367	-43
0.24733	-35
0.25100	-29
0.25467	-27
0.25833	-30
0.26200	-35
0.26567	-38
0.26933	-41
0.27300	-45
0.27667	-46
0.28033	-44
0.28400	-42
0.28767	-41
0.29133	-44
0.29500	-50
0.29867	-55
0.30233	-55
0.30600	-52
0.30967	-47
0.31333	-44
0.31700	-45
0.32067	-47
0.32433	-47
0.32800	-45
0.33167	-39
0.33533	-32
0.33900	-27
0.34267	-26
0.34633	-32
0.35000	-39
0.35367	-46
0.35733	-50
0.36100	-54
0.36467	-57
0.36833	-54
0.37200	-50
0.37567	-47
0.37933	-44
0.38300	-41
0.38667	-38
0.39033	-40
0.39400	-44
0.39767	-49
0.40133	-54
0.40500	-58
0.40867	-59
0.41233	-60
0.41600	-61
0.41967	-61
0.42333	-56
0.42700	-52
0.43067	-51
0.43433	-53
0.43800	-58
0.44167	-63
0.44533	-66
0.44900	-67
0.45267	-68
0.45633	-69
0.46000	-72
0.46367	-71
0.46733	-65
0.47100	-58
0.47467	-51
0.47833	-48
0.48200	-46
0.48567	-46
0.48933	-49
0.49300	-52
0.49667	-51
0.50033	-47
0.50400	-46
0.50767	-52
0.51133	-63
0.51500	-70
0.51867	-70
0.52233	-65
0.52600	-58
0.52967	-54
0.53333	-56
0.53700	-62
0.54067	-66
0.54433	-69
0.54800	-73
0.55167	-76
0.55533	-78
0.55900	-79
0.56267	-81
0.56633	-81
0.57000	-78
0.57367	-72
0.57733	-68
0.58100	-63
0.58467	-58
0.58833	-53
0.59200	-48
0.59567	-46
0.59933	-49
0.60300	-56
0.60667	-64
0.61033	-71
0.61400	-72
0.61767	-72
0.62133	-73
0.62500	-72
0.62867	-71
0.63233	-70
0.63600	-70
0.63967	-72
0.64333	-75
0.64700	-74
0.65067	-69
0.65433	-65
0.65800	-65
0.66167	-66
0.66533	-67
0.66900	-67
0.67267	-66
0.67633	-67
0.68000	-72
0.68367	-76
0.68733	-78
0.69100	-78
0.69467	-75
0.69833	-71
0.70200	-67
0.70567	-65
0.70933	-64
0.71300	-62
0.71667	-60
0.72033	-61
0.72400	-64
0.72767	-66
0.73133	-66
0.73500	-65
0.73867	-64
0.74233	-62
0.74600	-62
0.74967	-62
0.75333	-63
0.75700	-64
0.76067	-67
0.76433	-71
0.76800	-76
0.77167	-80
0.77533	-84
0.77900	-87
0.78267	-87
0.78633	-86
0.79000	-85
0.79367	-83
0.79733	-80
0.80100	-80
0.80467	-83
0.80833	-85
0.81200	-86
0.81567	-85
0.81933	-85
0.82300	-88
0.82667	-90
0.83033	-93
0.83400	-94
0.83767	-93
0.84133	-92
0.84500	-93
0.84867	-95
0.85233	-96
0.85600	-94
0.85967	-92
0.86333	-91
0.86700	-93
0.87067	-94
0.87433	-92
0.87800	-92
0.88167	-93
0.88533	-95
0.88900	-96
0.89267	-95
0.89633	-93
0.90000	-93
0.90367	-98
0.90733	-105
0.91100	-108
0.91467	-108
0.91833	-106
0.92200	-104
0.92567	-102
0.92933	-103
0.93300	-103
0.93667	-103
0.94033	-100
0.94400	-94
0.94767	-88
0.95133	-83
0.95500	-77
0.95867	-72
0.96233	-73
0.96600	-75
0.96967	-79
0.97333	-84
0.97700	-90
0.98067	-95
0.98433	-100
0.98800	-105
0.99167	-111
0.99533	-118
0.99900	-124
1.00267	-128
1.00633	-130
1.01000	-130
1.01367	-127
1.01733	-122
1.02100	-114
1.02467	-105
1.02833	-97
1.03200	-92
1.03567	-91
1.03933	-95
1.04300	-101
1.04667	-106
1.05033	-110
1.05400	-108
1.05767	-105
1.06133	-101
1.06500	-100
1.06867	-103
1.07233	-106
1.07600	-107
1.07967	-104
1.08333	-100
1.08700	-96
1.09067	-94
1.09433	-97
1.09800	-101
1.10167	-109
1.10533	-117
1.10900	-121
1.11267	-118
1.11633	-111
1.12000	-107
1.12367	-105
1.12733	-107
1.13100	-108
1.13467	-109
1.13833	-109
1.14200	-108
1.14567	-105
1.14933	-102
1.15300	-100
1.15667	-100
1.16033	-100
1.16400	-99
1.16767	-101
1.17133	-104
1.17500	-108
1.17867	-114
1.18233	-119
1.18600	-122
1.18967	-124
1.19333	-127
1.19700	-132
1.20067	-136
1.20433	-139
1.20800	-139
1.21167	-136
1.21533	-133
1.21900	-132
1.22267	-130
1.22633	-127
1.23000	-124
1.23367	-120
1.23733	-117
1.24100	-117
1.24467	-118
1.24833	-120
1.25200	-122
1.25567	-125
1.25933	-127
1.26300	-126
1.26667	-123
1.27033	-121
1.27400	-122
1.27767	-122
1.28133	-123
1.28500	-122
1.28867	-122
1.29233	-124
1.29600	-124
1.29967	-123
1.30333	-120
1.30700	-118
1.31067	-118
1.31433	-119
1.31800	-122
1.32167	-127
1.32533	-130
1.32900	-132
1.33267	-134
1.33633	-139
1.34000	-146
1.34367	-151
1.34733	-150
1.35100	-149
1.35467	-145
1.35833	-141
1.36200	-135
1.36567	-129
1.36933	-126
1.37300	-126
1.37667	-126
1.38033	-122
1.38400	-118
1.38767	-118
1.39133	-121
1.39500	-129
1.39867	-135
1.40233	-137
1.40600	-136
1.40967	-134
1.41333	-135
1.41700	-139
1.42067	-144
1.42433	-149
1.42800	-152
1.43167	-154
1.43533	-154
1.43900	-145
1.44267	-96
1.44633	48
1.45000	256
1.45367	436
1.45733	549
1.46100	603
1.46467	612
1.46833	596
1.47200	574
1.47567	558
1.47933	552
1.48300	548
1.48667	530
1.49033	489
1.49400	428
1.49767	356
1.50133	285
1.50500	221
1.50867	165
1.51233	117
1.51600	79
1.51967	50
1.52333	24
1.52700	1
1.53067	-19
1.53433	-33
1.53800	-19
1.54167	131
1.54533	673
1.54900	1873
1.55267	3692
1.55633	5755
1.56000	7650
1.56367	9142
1.56733	10124
1.57100	10483
1.57467	10089
1.57833	8957
1.58200	7340
1.58567	5606
1.58933	4047
1.59300	2799
1.59667	1874
1.60033	1220
1.60400	771
1.60767	470
1.61133	271
1.61500	137
1.61867	46
1.62233	-15
1.62600	-53
1.62967	-78
1.63333	-92
1.63700	-100
1.64067	-105
1.64433	-109
1.64800	-111
1.65167	-113
1.65533	-112
1.65900	-110
1.66267	-110
1.66633	-117
1.67000	-127
1.67367	-138
1.67733	-143
1.68100	-146
1.68467	-148
1.68833	-153
1.69200	-159
1.69567	-164
1.69933	-162
1.70300	-155
1.70667	-149
1.71033	-144
1.71400	-143
1.71767	-145
1.72133	-147
1.72500	-147
1.72867	-144
1.73233	-141
1.73600	-139
1.73967	-138
1.74333	-140
1.74700	-145
1.75067	-151
1.75433	-156
1.75800	-157
1.76167	-156
1.76533	-158
1.76900	-163
1.77267	-167
1.77633	-170
1.78000	-171
1.78367	-170
1.78733	-165
1.79100	-158
1.79467	-150
1.79833	-143
1.80200	-137
1.80567	-136
1.80933	-141
1.81300	-145
1.81667	-148
1.82033	-149
1.82400	-153
1.82767	-159
1.83133	-164
1.83500	-168
1.83867	-169
1.84233	-168
1.84600	-167
1.84967	-166
1.85333	-161
1.85700	-157
1.86067	-154
1.86433	-154
1.86800	-153
1.87167	-152
1.87533	-149
1.87900	-145
1.88267	-142
1.88633	-139
1.89000	-133
1.89367	-126
1.89733	-121
1.90100	-116
1.90467	-111
1.90833	-108
1.91200	-105
1.91567	-100
1.91933	-98
1.92300	-98
1.92667	-99
1.93033	-101
1.93400	-102
1.93767	-102
1.94133	-104
1.94500	-108
1.94867	-112
1.95233	-109
1.95600	-63
1.95967	247
1.96333	1902
1.96700	8777
1.97067	30581
1.97433	83745
1.97800	184522
1.98167	334894
1.98533	515737
1.98900	696442
1.99267	847045
1.99633	945727
2.00000	979947
2.00367	947499
2.00733	857670
2.01100	729682
2.01467	587179
2.01833	451044
2.02200	334464
2.02567	242296
2.02933	173479
2.03300	124077
2.03667	89498
2.04033	65641
2.04400	49271
2.04767	38008
2.05133	30183
2.05500	24663
2.05867	20688
2.06233	17756
2.06600	15540
2.06967	13824
2.07333	12457
2.07700	11341
2.08067	10416
2.08433	9636
2.08800	8965
2.09167	8383
2.09533	7868
2.09900	7413
2.10267	7008
2.10633	6643
2.11000	6313
2.11367	6010
2.11733	5732
2.12100	5480
2.12467	5250
2.12833	5041
2.13200	4849
2.13567	4668
2.13933	4497
2.14300	4333
2.14667	4176
2.15033	4030
2.15400	3892
2.15767	3763
2.16133	3646
2.16500	3538
2.16867	3435
2.17233	3336
2.17600	3241
2.17967	3149
2.18333	3062
2.18700	2981
2.19067	2904
2.19433	2829
2.19800	2757
2.20167	2687
2.20533	2624
2.20900	2568
2.21267	2515
2.21633	2462
2.22000	2406
2.22367	2347
2.22733	2288
2.23100	2234
2.23467	2185
2.23833	2143
2.24200	2103
2.24567	2064
2.24933	2028
2.25300	1991
2.25667	1952
2.26033	1911
2.26400	1872
2.26767	1837
2.27133	1801
2.27500	1768
2.27867	1738
2.28233	1710
2.28600	1684
2.28967	1664
2.29333	1644
2.29700	1617
2.30067	1588
2.30433	1560
2.30800	1533
2.31167	1507
2.31533	1483
2.31900	1461
2.32267	1440
2.32633	1420
2.33000	1401
2.33367	1382
2.33733	1366
2.34100	1350
2.34467	1334
2.34833	1319
2.35200	1307
2.35567	1295
2.35933	1281
2.36300	1264
2.36667	1241
2.37033	1215
2.37400	1188
2.37767	1167
2.38133	1150
2.38500	1134
2.38867	1118
2.39233	1103
2.39600	1093
2.39967	1087
2.40333	1081
2.40700	1074
2.41067	1067
2.41433	1063
2.41800	1057
2.42167	1047
2.42533	1031
2.42900	1013
2.43267	994
2.43633	981
2.44000	974
2.44367	969
2.44733	964
2.45100	959
2.45467	953
2.45833	945
2.46200	936
2.46567	926
2.46933	914
2.47300	902
2.47667	891
2.48033	881
2.48400	874
2.48767	868
2.49133	864
2.49500	858
2.49867	851
2.50233	842
2.50600	832
2.50967	823
2.51333	816
2.51700	812
2.52067	809
2.52433	806
2.52800	800
2.53167	789
2.53533	775
2.53900	765
2.54267	760
2.54633	760
2.55000	758
2.55367	755
2.55733	747
2.56100	737
2.56467	726
2.56833	715
2.57200	707
2.57567	702
2.57933	699
2.58300	700
2.58667	703
2.59033	705
2.59400	705
2.59767	701
2.60133	694
2.60500	687
2.60867	681
2.61233	679
2.61600	679
2.61967	677
2.62333	668
2.62700	656
2.63067	644
2.63433	635
2.63800	628
2.64167	625
2.64533	623
2.64900	621
2.65267	615
2.65633	608
2.66000	602
2.66367	598
2.66733	599
2.67100	602
2.67467	603
2.67833	600
2.68200	594
2.68567	587
2.68933	584
2.69300	586
2.69667	588
2.70033	590
2.70400	590
2.70767	592
2.71133	592
2.71500	589
2.71867	582
2.72233	575
2.72600	566
2.72967	559
2.73333	553
2.73700	547
2.74067	542
2.74433	538
2.74800	536
2.75167	532
2.75533	526
2.75900	521
2.76267	519
2.76633	521
2.77000	522
2.77367	524
2.77733	530
2.78100	535
2.78467	538
2.78833	540
2.79200	538
2.79567	529
2.79933	520
2.80300	513
2.80667	508
2.81033	503
2.81400	500
2.81767	501
2.82133	504
2.82500	506
2.82867	505
2.83233	506
2.83600	508
2.83967	513
2.84333	513
2.84700	509
2.85067	505
2.85433	503
2.85800	502
2.86167	501
2.86533	501
2.86900	503
2.87267	505
2.87633	505
2.88000	501
2.88367	494
2.88733	485
2.89100	475
2.89467	467
2.89833	462
2.90200	456
2.90567	452
2.90933	452
2.91300	454
2.91667	458
2.92033	462
2.92400	463
2.92767	458
2.93133	449
2.93500	439
2.93867	435
2.94233	433
2.94600	435
2.94967	442
2.95333	451
2.95700	458
2.96067	462
2.96433	462
2.96800	459
2.97167	458
2.97533	456
2.97900	454
2.98267	453
2.98633	449
2.99000	444
2.99367	441
2.99733	435
3.00100	431
3.00467	430
3.00833	430
3.01200	432
3.01567	435
3.01933	440
3.02300	444
3.02667	443
3.03033	440
3.03400	438
3.03767	438
3.04133	439
3.04500	437
3.04867	433
3.05233	429
3.05600	427
3.05967	423
3.06333	417
3.06700	409
3.07067	402
3.07433	401
3.07800	401
3.08167	400
3.08533	398
3.08900	397
3.09267	396
3.09633	395
3.10000	397
3.10367	399
3.10733	398
3.11100	398
3.11467	400
3.11833	401
3.12200	401
3.12567	397
3.12933	394
3.13300	394
3.13667	398
3.14033	401
3.14400	401
3.14767	398
3.15133	395
3.15500	392
3.15867	390
3.16233	388
3.16600	390
3.16967	395
3.17333	398
3.17700	394
3.18067	387
3.18433	383
3.18800	384
3.19167	388
3.19533	393
3.19900	400
3.20267	405
3.20633	404
3.21000	398
3.21367	389
3.21733	383
3.22100	380
3.22467	378
3.22833	374
3.23200	370
3.23567	367
3.23933	363
3.24300	360
3.24667	361
3.25033	364
3.25400	369
3.25767	373
3.26133	374
3.26500	369
3.26867	362
3.27233	355
3.27600	349
3.27967	351
3.28333	357
3.28700	362
3.29067	362
3.29433	363
3.29800	366
3.30167	365
3.30533	362
3.30900	357
3.31267	354
3.31633	352
3.32000	350
3.32367	349
3.32733	347
3.33100	347
3.33467	345
3.33833	340
3.34200	332
3.34567	325
3.34933	320
3.35300	317
3.35667	315
3.36033	315
3.36400	317
3.36767	320
3.37133	324
3.37500	329
3.37867	332
3.38233	334
3.38600	332
3.38967	329
3.39333	325
3.39700	324
3.40067	324
3.40433	328
3.40800	334
3.41167	339
3.41533	344
3.41900	343
3.42267	339
3.42633	333
3.43000	325
3.43367	315
3.43733	307
3.44100	302
3.44467	299
3.44833	297
3.45200	297
3.45567	301
3.45933	307
3.46300	311
3.46667	311
3.47033	304
3.47400	296
3.47767	290
3.48133	287
3.48500	286
3.48867	290
3.49233	298
3.49600	306
3.49967	312
3.50333	317
3.50700	321
3.51067	322
3.51433	322
3.51800	320
3.52167	316
3.52533	315
3.52900	318
3.53267	321
3.53633	320
3.54000	318
3.54367	316
3.54733	313
3.55100	308
3.55467	300
3.55833	294
3.56200	293
3.56567	296
3.56933	298
3.57300	297
3.57667	294
3.58033	294
3.58400	297
3.58767	301
3.59133	307
3.59500	311
3.59867	309
3.60233	306
3.60600	304
3.60967	303
3.61333	301
3.61700	294
3.62067	284
3.62433	273
3.62800	268
3.63167	271
3.63533	276
3.63900	283
3.64267	291
3.64633	296
3.65000	294
3.65367	287
3.65733	278
3.66100	271
3.66467	268
3.66833	271
3.67200	281
3.67567	287
3.67933	283
3.68300	274
3.68667	268
3.69033	269
3.69400	272
3.69767	275
3.70133	277
3.70500	278
3.70867	278
3.71233	276
3.71600	273
3.71967	272
3.72333	271
3.72700	270
3.73067	268
3.73433	262
3.73800	254
3.74167	246
3.74533	241
3.74900	240
3.75267	242
3.75633	247
3.76000	254
3.76367	262
3.76733	267
3.77100	269
3.77467	271
3.77833	274
3.78200	275
3.78567	276
3.78933	279
3.79300	281
3.79667	285
3.80033	286
3.80400	286
3.80767	283
3.81133	277
3.81500	267
3.81867	257
3.82233	252
3.82600	250
3.82967	253
3.83333	258
3.83700	264
3.84067	267
3.84433	270
3.84800	273
3.85167	274
3.85533	274
3.85900	273
3.86267	269
3.86633	266
3.87000	265
3.87367	263
3.87733	261
3.88100	255
3.88467	248
3.88833	240
3.89200	233
3.89567	228
3.89933	227
3.90300	230
3.90667	235
3.91033	243
3.91400	251
3.91767	256
3.92133	257
3.92500	255
3.92867	250
3.93233	250
3.93600	252
3.93967	253
3.94333	252
3.94700	251
3.95067	250
3.95433	249
3.95800	247
3.96167	245
3.96533	243
3.96900	241
3.97267	238
3.97633	236
3.98000	234
3.98367	236
3.98733	239
3.99100	242
3.99467	246
3.99833	248

[Chromatogram (Ch2)]
Interval(msec)	220
# of Points	1091
Start Time(min)	0.002
End Time(min)	3.998
R.Time (min)	Intensity
0.00167	-0
0.00533	-0
0.00900	-0
0.01267	-0
0.01633	-0
0.02000	-0
0.02367	-0
0.02733	-1
0.03100	-1
0.03467	-1
0.03833	-1
0.04200	-1
0.04567	-1
0.04933	-1
0.05300	-1
0.05667	-1
0.06033	-1
0.06400	-1
0.06767	-1
0.07133	-1
0.07500	-1
0.07867	-1
0.08233	-1
0.08600	-1
0.08967	-1
0.09333	-0
0.09700	-0
0.10067	-0
0.10433	0
0.10800	0
0.11167	0
0.11533	1
0.11900	1
0.12267	1
0.12633	1
0.13000	1
0.13367	1
0.13733	1
0.14100	1
0.14467	1
0.14833	1
0.15200	1
0.15567	1
0.15933	1
0.16300	1
0.16667	1
0.17033	0
0.17400	0
0.17767	0
0.18133	-0
0.18500	-0
0.18867	-0
0.19233	-0
0.19600	-0
0.19967	-0
0.20333	-0
0.20700	-0
0.21067	-1
0.21433	-1
0.21800	-1
0.22167	-1
0.22533	-1
0.22900	-1
0.23267	-1
0.23633	-1
0.24000	-1
0.24367	-1
0.24733	-1
0.25100	-1
0.25467	-1
0.25833	-1
0.26200	-0
0.26567	-0
0.26933	-0
0.27300	-0
0.27667	-0
0.28033	-0
0.28400	-0
0.28767	-0
0.29133	-0
0.29500	0
0.29867	0
0.30233	1
0.30600	1
0.30967	1
0.31333	1
0.31700	1
0.32067	0
0.32433	0
0.32800	0
0.33167	0
0.33533	-0
0.33900	-0
0.34267	0
0.34633	0
0.35000	0
0.35367	0
0.35733	0
0.36100	-0
0.36467	-0
0.36833	-1
0.37200	-1
0.37567	-1
0.37933	-1
0.38300	-1
0.38667	-1
0.39033	-1
0.39400	-1
0.39767	-1
0.40133	-1
0.40500	-1
0.40867	-1
0.41233	-1
0.41600	-1
0.41967	-1
0.42333	-1
0.42700	-1
0.43067	-1
0.43433	-2
0.43800	-2
0.44167	-2
0.44533	-1
0.44900	-1
0.45267	-1
0.45633	-1
0.46000	-1
0.46367	-1
0.46733	-1
0.47100	-1
0.47467	-1
0.47833	-1
0.48200	-2
0.48567	-2
0.48933	-2
0.49300	-2
0.49667	-2
0.50033	-2
0.50400	-2
0.50767	-1
0.51133	-1
0.51500	-1
0.51867	-1
0.52233	-1
0.52600	-1
0.52967	-1
0.53333	-0
0.53700	-0
0.54067	-0
0.54433	-0
0.54800	-0
0.55167	-0
0.55533	-0
0.55900	-0
0.56267	-0
0.56633	-0
0.57000	-1
0.57367	-1
0.57733	-1
0.58100	-1
0.58467	-1
0.58833	-2
0.59200	-2
0.59567	-2
0.59933	-2
0.60300	-3
0.60667	-3
0.61033	-3
0.61400	-3
0.61767	-3
0.62133	-3
0.62500	-3
0.62867	-3
0.63233	-3
0.63600	-2
0.63967	-2
0.64333	-2
0.64700	-2
0.65067	-2
0.65433	-2
0.65800	-2
0.66167	-1
0.66533	-1
0.66900	-1
0.67267	-1
0.67633	-1
0.68000	-1
0.68367	-1
0.68733	-0
0.69100	-0
0.69467	-0
0.69833	-1
0.70200	-1
0.70567	-1
0.70933	-1
0.71300	-1
0.71667	-1
0.72033	-1
0.72400	-1
0.72767	-1
0.73133	-1
0.73500	-1
0.73867	-1
0.74233	-1
0.74600	-1
0.74967	-1
0.75333	-1
0.75700	-1
0.76067	-1
0.76433	-1
0.76800	-1
0.77167	-1
0.77533	-1
0.77900	-2
0.78267	-2
0.78633	-2
0.79000	-2
0.79367	-2
0.79733	-2
0.80100	-2
0.80467	-2
0.80833	-2
0.81200	-2
0.81567	-2
0.81933	-2
0.82300	-2
0.82667	-2
0.83033	-2
0.83400	-2
0.83767	-2
0.84133	-2
0.84500	-2
0.84867	-3
0.85233	-3
0.85600	-3
0.85967	-3
0.86333	-3
0.86700	-3
0.87067	-3
0.87433	-4
0.87800	-4
0.88167	-4
0.88533	-4
0.88900	-4
0.89267	-3
0.89633	-3
0.90000	-3
0.90367	-3
0.90733	-2
0.91100	-2
0.91467	-2
0.91833	-2
0.92200	-2
0.92567	-2
0.92933	-2
0.93300	-2
0.93667	-2
0.94033	-2
0.94400	-3
0.94767	-3
0.95133	-3
0.95500	-3
0.95867	-3
0.96233	-3
0.96600	-3
0.96967	-3
0.97333	-4
0.97700	-4
0.98067	-4
0.98433	-4
0.98800	-4
0.99167	-4
0.99533	-4
0.99900	-4
1.00267	-4
1.00633	-4
1.01000	-4
1.01367	-4
1.01733	-4
1.02100	-4
1.02467	-3
1.02833	-3
1.03200	-3
1.03567	-3
1.03933	-3
1.04300	-3
1.04667	-3
1.05033	-3
1.05400	-3
1.05767	-3
1.06133	-3
1.06500	-4
1.06867	-4
1.07233	-4
1.07600	-4
1.07967	-4
1.08333	-4
1.08700	-4
1.09067	-3
1.09433	-3
1.09800	-3
1.10167	-3
1.10533	-2
1.10900	-2
1.11267	-2
1.11633	-2
1.12000	-2
1.12367	-3
1.12733	-3
1.13100	-2
1.13467	-2
1.13833	-2
1.14200	-2
1.14567	-1
1.14933	-1
1.15300	-1
1.15667	-1
1.16033	-2
1.16400	-2
1.16767	-2
1.17133	-2
1.17500	-3
1.17867	-3
1.18233	-3
1.18600	-3
1.18967	-4
1.19333	-4
1.19700	-4
1.20067	-4
1.20433	-4
1.20800	-4
1.21167	-4
1.21533	-3
1.21900	-3
1.22267	-3
1.22633	-3
1.23000	-3
1.23367	-3
1.23733	-2
1.24100	-2
1.24467	-2
1.24833	-2
1.25200	-2
1.25567	-2
1.25933	-2
1.26300	-2
1.26667	-2
1.27033	-2
1.27400	-3
1.27767	-3
1.28133	-3
1.28500	-3
1.28867	-3
1.29233	-3
1.29600	-3
1.29967	-3
1.30333	-3
1.30700	-3
1.31067	-3
1.31433	-3
1.31800	-2
1.32167	-2
1.32533	-3
1.32900	-3
1.33267	-3
1.33633	-3
1.34000	-2
1.34367	-2
1.34733	-2
1.35100	-2
1.35467	-3
1.35833	-3
1.36200	-3
1.36567	-2
1.36933	-2
1.37300	-2
1.37667	-2
1.38033	-3
1.38400	-3
1.38767	-3
1.39133	-3
1.39500	-3
1.39867	-4
1.40233	-4
1.40600	-4
1.40967	-4
1.41333	-4
1.41700	-4
1.42067	-4
1.42433	-4
1.42800	-4
1.43167	-4
1.43533	-4
1.43900	-4
1.44267	-4
1.44633	-4
1.45000	-3
1.45367	-3
1.45733	-3
1.46100	-4
1.46467	-4
1.46833	-4
1.47200	-4
1.47567	-4
1.47933	-4
1.48300	-4
1.48667	-4
1.49033	-4
1.49400	-4
1.49767	-4
1.50133	-4
1.50500	-4
1.50867	-4
1.51233	-4
1.51600	-4
1.51967	-4
1.52333	-3
1.52700	-3
1.53067	-3
1.53433	-3
1.53800	-3
1.54167	-3
1.54533	-3
1.54900	-2
1.55267	-2
1.55633	-2
1.56000	-2
1.56367	-2
1.56733	-2
1.57100	-2
1.57467	-2
1.57833	-1
1.58200	-1
1.58567	-2
1.58933	-2
1.59300	-2
1.59667	-3
1.60033	-4
1.60400	-5
1.60767	-6
1.61133	-8
1.61500	-10
1.61867	-13
1.62233	-16
1.62600	-19
1.62967	-22
1.63333	-25
1.63700	-28
1.64067	-32
1.64433	-36
1.64800	-39
1.65167	-43
1.65533	-46
1.65900	-50
1.66267	-54
1.66633	-58
1.67000	-63
1.67367	-68
1.67733	-74
1.68100	-79
1.68467	-84
1.68833	-89
1.69200	-93
1.69567	-97
1.69933	-100
1.70300	-103
1.70667	-105
1.71033	-107
1.71400	-109
1.71767	-110
1.72133	-111
1.72500	-112
1.72867	-113
1.73233	-114
1.73600	-115
1.73967	-116
1.74333	-117
1.74700	-117
1.75067	-117
1.75433	-117
1.75800	-117
1.76167	-117
1.76533	-117
1.76900	-117
1.77267	-117
1.77633	-117
1.78000	-117
1.78367	-118
1.78733	-118
1.79100	-119
1.79467	-120
1.79833	-120
1.80200	-121
1.80567	-121
1.80933	-121
1.81300	-121
1.81667	-122
1.82033	-122
1.82400	-122
1.82767	-122
1.83133	-122
1.83500	-122
1.83867	-122
1.84233	-122
1.84600	-122
1.84967	-122
1.85333	-123
1.85700	-123
1.86067	-123
1.86433	-124
1.86800	-124
1.87167	-124
1.87533	-123
1.87900	-123
1.88267	-123
1.88633	-122
1.89000	-122
1.89367	-121
1.89733	-121
1.90100	-121
1.90467	-121
1.90833	-121
1.91200	-121
1.91567	-121
1.91933	-121
1.92300	-121
1.92667	-120
1.93033	-120
1.93400	-119
1.93767	-119
1.94133	-119
1.94500	-118
1.94867	-118
1.95233	-118
1.95600	-117
1.95967	-117
1.96333	-116
1.96700	-116
1.97067	-116
1.97433	-116
1.97800	-116
1.98167	-116
1.98533	-116
1.98900	-116
1.99267	-116
1.99633	-116
2.00000	-116
2.00367	-116
2.00733	-116
2.01100	-115
2.01467	-115
2.01833	-115
2.02200	-114
2.02567	-114
2.02933	-113
2.03300	-113
2.03667	-113
2.04033	-113
2.04400	-113
2.04767	-112
2.05133	-112
2.05500	-112
2.05867	-112
2.06233	-111
2.06600	-111
2.06967	-110
2.07333	-110
2.07700	-109
2.08067	-108
2.08433	-107
2.08800	-106
2.09167	-106
2.09533	-106
2.09900	-106
2.10267	-106
2.10633	-106
2.11000	-106
2.11367	-105
2.11733	-105
2.12100	-104
2.12467	-104
2.12833	-103
2.13200	-102
2.13567	-102
2.13933	-101
2.14300	-101
2.14667	-102
2.15033	-102
2.15400	-102
2.15767	-103
2.16133	-103
2.16500	-103
2.16867	-102
2.17233	-102
2.17600	-102
2.17967	-101
2.18333	-101
2.18700	-100
2.19067	-99
2.19433	-98
2.19800	-97
2.20167	-97
2.20533	-96
2.20900	-96
2.21267	-95
2.21633	-95
2.22000	-95
2.22367	-94
2.22733	-94
2.23100	-94
2.23467	-95
2.23833	-95
2.24200	-95
2.24567	-95
2.24933	-95
2.25300	-94
2.25667	-94
2.26033	-93
2.26400	-92
2.26767	-92
2.27133	-91
2.27500	-91
2.27867	-91
2.28233	-91
2.28600	-91
2.28967	-91
2.29333	-91
2.29700	-90
2.30067	-90
2.30433	-90
2.30800	-89
2.31167	-89
2.31533	-88
2.31900	-88
2.32267	-87
2.32633	-86
2.33000	-87
2.33367	-87
2.33733	-88
2.34100	-89
2.34467	-89
2.34833	-89
2.35200	-88
2.35567	-87
2.35933	-85
2.36300	-83
2.36667	-80
2.37033	-77
2.37400	-74
2.37767	-71
2.38133	-67
2.38500	-63
2.38867	-59
2.39233	-55
2.39600	-51
2.39967	-47
2.40333	-43
2.40700	-39
2.41067	-35
2.41433	-32
2.41800	-28
2.42167	-25
2.42533	-23
2.42900	-20
2.43267	-19
2.43633	-17
2.44000	-16
2.44367	-14
2.44733	-13
2.45100	-11
2.45467	-10
2.45833	-8
2.46200	-6
2.46567	-5
2.46933	-4
2.47300	-2
2.47667	-2
2.48033	-1
2.48400	-1
2.48767	0
2.49133	1
2.49500	2
2.49867	3
2.50233	4
2.50600	5
2.50967	5
2.51333	5
2.51700	6
2.52067	6
2.52433	6
2.52800	7
2.53167	8
2.53533	9
2.53900	10
2.54267	10
2.54633	11
2.55000	12
2.55367	12
2.55733	13
2.56100	13
2.56467	13
2.56833	13
2.57200	13
2.57567	13
2.57933	13
2.58300	14
2.58667	14
2.59033	15
2.59400	15
2.59767	16
2.60133	16
2.60500	16
2.60867	16
2.61233	16
2.61600	17
2.61967	17
2.62333	18
2.62700	18
2.63067	18
2.63433	18
2.63800	18
2.64167	18
2.64533	18
2.64900	18
2.65267	18
2.65633	18
2.66000	19
2.66367	19
2.66733	19
2.67100	19
2.67467	19
2.67833	19
2.68200	19
2.68567	19
2.68933	19
2.69300	20
2.69667	20
2.70033	20
2.70400	20
2.70767	20
2.71133	20
2.71500	20
2.71867	20
2.72233	20
2.72600	21
2.72967	21
2.73333	21
2.73700	21
2.74067	22
2.74433	22
2.74800	22
2.75167	23
2.75533	23
2.75900	23
2.76267	23
2.76633	23
2.77000	23
2.77367	22
2.77733	22
2.78100	21
2.78467	21
2.78833	20
2.79200	20
2.79567	20
2.79933	20
2.80300	19
2.80667	19
2.81033	19
2.81400	20
2.81767	20
2.82133	21
2.82500	21
2.82867	22
2.83233	22
2.83600	23
2.83967	23
2.84333	23
2.84700	23
2.85067	23
2.85433	21
2.85800	17
2.86167	11
2.86533	2
2.86900	-10
2.87267	-27
2.87633	-48
2.88000	-74
2.88367	-106
2.88733	-142
2.89100	-184
2.89467	-230
2.89833	-282
2.90200	-338
2.90567	-399
2.90933	-463
2.91300	-531
2.91667	-603
2.92033	-677
2.92400	-754
2.92767	-834
2.93133	-916
2.93500	-1000
2.93867	-1086
2.94233	-1173
2.94600	-1262
2.94967	-1352
2.95333	-1438
2.95700	-1508
2.96067	-1549
2.96433	-1555
2.96800	-1526
2.97167	-1465
2.97533	-1381
2.97900	-1282
2.98267	-1173
2.98633	-1061
2.99000	-950
2.99367	-844
2.99733	-745
3.00100	-653
3.00467	-570
3.00833	-495
3.01200	-429
3.01567	-371
3.01933	-319
3.02300	-274
3.02667	-235
3.03033	-201
3.03400	-172
3.03767	-147
3.04133	-125
3.04500	-107
3.04867	-90
3.05233	-77
3.05600	-65
3.05967	-55
3.06333	-46
3.06700	-39
3.07067	-32
3.07433	-27
3.07800	-23
3.08167	-19
3.08533	-15
3.08900	-12
3.09267	-9
3.09633	-7
3.10000	-5
3.10367	-3
3.10733	-1
3.11100	0
3.11467	1
3.11833	2
3.12200	3
3.12567	4
3.12933	5
3.13300	6
3.13667	6
3.14033	7
3.14400	8
3.14767	8
3.15133	9
3.15500	9
3.15867	10
3.16233	10
3.16600	10
3.16967	11
3.17333	11
3.17700	11
3.18067	11
3.18433	12
3.18800	12
3.19167	13
3.19533	13
3.19900	14
3.20267	14
3.20633	15
3.21000	15
3.21367	15
3.21733	15
3.22100	16
3.22467	16
3.22833	16
3.23200	16
3.23567	16
3.23933	17
3.24300	17
3.24667	17
3.25033	17
3.25400	17
3.25767	17
3.26133	18
3.26500	18
3.26867	18
3.27233	18
3.27600	18
3.27967	18
3.28333	19
3.28700	19
3.29067	19
3.29433	20
3.29800	20
3.30167	20
3.30533	20
3.30900	21
3.31267	21
3.31633	21
3.32000	21
3.32367	22
3.32733	22
3.33100	22
3.33467	22
3.33833	22
3.34200	22
3.34567	22
3.34933	22
3.35300	22
3.35667	22
3.36033	22
3.36400	22
3.36767	22
3.37133	22
3.37500	22
3.37867	22
3.38233	22
3.38600	22
3.38967	22
3.39333	23
3.39700	23
3.40067	23
3.40433	23
3.40800	23
3.41167	23
3.41533	23
3.41900	23
3.42267	23
3.42633	23
3.43000	23
3.43367	23
3.43733	23
3.44100	23
3.44467	23
3.44833	23
3.45200	23
3.45567	23
3.45933	24
3.46300	24
3.46667	24
3.47033	24
3.47400	24
3.47767	24
3.48133	23
3.48500	23
3.48867	23
3.49233	23
3.49600	23
3.49967	23
3.50333	23
3.50700	23
3.51067	23
3.51433	23
3.51800	23
3.52167	23
3.52533	23
3.52900	23
3.53267	23
3.53633	23
3.54000	24
3.54367	24
3.54733	24
3.55100	24
3.55467	23
3.55833	23
3.56200	23
3.56567	23
3.56933	23
3.57300	23
3.57667	23
3.58033	23
3.58400	23
3.58767	23
3.59133	24
3.59500	24
3.59867	24
3.60233	25
3.60600	25
3.60967	25
3.61333	25
3.61700	25
3.62067	25
3.62433	25
3.62800	24
3.63167	24
3.63533	24
3.63900	24
3.64267	24
3.64633	24
3.65000	24
3.65367	24
3.65733	24
3.66100	24
3.66467	25
3.66833	25
3.67200	25
3.67567	25
3.67933	25
3.68300	25
3.68667	25
3.69033	25
3.69400	25
3.69767	25
3.70133	25
3.70500	25
3.70867	25
3.71233	25
3.71600	25
3.71967	25
3.72333	25
3.72700	25
3.73067	24
3.73433	24
3.73800	24
3.74167	24
3.74533	24
3.74900	24
3.75267	24
3.75633	24
3.76000	24
3.76367	24
3.76733	24
3.77100	24
3.77467	24
3.77833	24
3.78200	24
3.78567	24
3.78933	24
3.79300	24
3.79667	24
3.80033	24
3.80400	24
3.80767	24
3.81133	24
3.81500	24
3.81867	24
3.82233	24
3.82600	24
3.82967	24
3.83333	24
3.83700	24
3.84067	24
3.84433	24
3.84800	23
3.85167	24
3.85533	24
3.85900	24
3.86267	24
3.86633	24
3.87000	24
3.87367	23
3.87733	23
3.88100	23
3.88467	23
3.88833	23
3.89200	23
3.89567	23
3.89933	23
3.90300	24
3.90667	24
3.91033	24
3.91400	24
3.91767	24
3.92133	24
3.92500	24
3.92867	23
3.93233	23
3.93600	23
3.93967	23
3.94333	23
3.94700	23
3.95067	23
3.95433	23
3.95800	23
3.96167	23
3.96533	23
3.96900	23
3.97267	23
3.97633	23
3.98000	23
3.98367	23
3.98733	23
3.99100	23
3.99467	23
3.99833	23

[Chromatogram (Ch3)]
Interval(msec)	220
# of Points	1091
Start Time(min)	0.002
End Time(min)	3.998
R.Time (min)	Intensity
0.00167	1
0.00533	3
0.00900	2
0.01267	1
0.01633	-0
0.02000	-1
0.02367	-0
0.02733	-2
0.03100	-5
0.03467	-6
0.03833	-7
0.04200	-4
0.04567	-2
0.04933	-3
0.05300	-2
0.05667	1
0.06033	2
0.06400	3
0.06767	3
0.07133	1
0.07500	-2
0.07867	-4
0.08233	-2
0.08600	-4
0.08967	-5
0.09333	-4
0.09700	-1
0.10067	-1
0.10433	-2
0.10800	-3
0.11167	-5
0.11533	-5
0.11900	-5
0.12267	-7
0.12633	-8
0.13000	-6
0.13367	-6
0.13733	-6
0.14100	-4
0.14467	-1
0.14833	1
0.15200	-2
0.15567	-8
0.15933	-11
0.16300	-10
0.16667	-8
0.17033	-8
0.17400	-7
0.17767	-5
0.18133	-4
0.18500	-3
0.18867	-2
0.19233	-2
0.19600	-0
0.19967	1
0.20333	0
0.20700	-3
0.21067	-5
0.21433	-7
0.21800	-10
0.22167	-11
0.22533	-11
0.22900	-10
0.23267	-5
0.23633	-2
0.24000	-4
0.24367	-4
0.24733	-3
0.25100	-2
0.25467	-4
0.25833	-6
0.26200	-7
0.26567	-5
0.26933	-2
0.27300	-3
0.27667	-3
0.28033	-1
0.28400	-0
0.28767	-3
0.29133	-6
0.29500	-4
0.29867	-4
0.30233	-4
0.30600	-6
0.30967	-8
0.31333	-7
0.31700	-8
0.32067	-11
0.32433	-12
0.32800	-12
0.33167	-11
0.33533	-10
0.33900	-8
0.34267	-8
0.34633	-10
0.35000	-11
0.35367	-7
0.35733	-7
0.36100	-9
0.36467	-8
0.36833	-8
0.37200	-10
0.37567	-7
0.37933	-7
0.38300	-7
0.38667	-6
0.39033	-4
0.39400	-4
0.39767	-3
0.40133	-2
0.40500	-1
0.40867	-3
0.41233	-4
0.41600	-7
0.41967	-8
0.42333	-7
0.42700	-8
0.43067	-9
0.43433	-8
0.43800	-8
0.44167	-8
0.44533	-7
0.44900	-5
0.45267	-6
0.45633	-8
0.46000	-8
0.46367	-9
0.46733	-11
0.47100	-13
0.47467	-14
0.47833	-11
0.48200	-6
0.48567	-5
0.48933	-4
0.49300	-3
0.49667	-7
0.50033	-8
0.50400	-8
0.50767	-8
0.51133	-9
0.51500	-9
0.51867	-7
0.52233	-6
0.52600	-6
0.52967	-6
0.53333	-8
0.53700	-9
0.54067	-10
0.54433	-10
0.54800	-8
0.55167	-6
0.55533	-8
0.55900	-10
0.56267	-14
0.56633	-16
0.57000	-15
0.57367	-15
0.57733	-13
0.58100	-12
0.58467	-11
0.58833	-11
0.59200	-11
0.59567	-12
0.59933	-12
0.60300	-14
0.60667	-17
0.61033	-19
0.61400	-18
0.61767	-16
0.62133	-16
0.62500	-16
0.62867	-15
0.63233	-15
0.63600	-16
0.63967	-17
0.64333	-18
0.64700	-17
0.65067	-19
0.65433	-22
0.65800	-23
0.66167	-22
0.66533	-23
0.66900	-25
0.67267	-28
0.67633	-29
0.68000	-31
0.68367	-32
0.68733	-32
0.69100	-31
0.69467	-27
0.69833	-23
0.70200	-19
0.70567	-19
0.70933	-19
0.71300	-20
0.71667	-24
0.72033	-28
0.72400	-28
0.72767	-27
0.73133	-27
0.73500	-27
0.73867	-26
0.74233	-27
0.74600	-29
0.74967	-29
0.75333	-28
0.75700	-26
0.76067	-27
0.76433	-30
0.76800	-31
0.77167	-32
0.77533	-32
0.77900	-33
0.78267	-34
0.78633	-35
0.79000	-34
0.79367	-31
0.79733	-30
0.80100	-32
0.80467	-33
0.80833	-35
0.81200	-36
0.81567	-37
0.81933	-36
0.82300	-34
0.82667	-37
0.83033	-37
0.83400	-37
0.83767	-37
0.84133	-36
0.84500	-35
0.84867	-33
0.85233	-32
0.85600	-32
0.85967	-34
0.86333	-36
0.86700	-36
0.87067	-34
0.87433	-34
0.87800	-34
0.88167	-33
0.88533	-31
0.88900	-29
0.89267	-31
0.89633	-32
0.90000	-30
0.90367	-28
0.90733	-29
0.91100	-29
0.91467	-29
0.91833	-30
0.92200	-30
0.92567	-29
0.92933	-28
0.93300	-27
0.93667	-26
0.94033	-25
0.94400	-26
0.94767	-29
0.95133	-31
0.95500	-31
0.95867	-29
0.96233	-29
0.96600	-28
0.96967	-26
0.97333	-24
0.97700	-24
0.98067	-29
0.98433	-32
0.98800	-31
0.99167	-27
0.99533	-26
0.99900	-28
1.00267	-29
1.00633	-27
1.01000	-23
1.01367	-21
1.01733	-17
1.02100	-18
1.02467	-19
1.02833	-23
1.03200	-26
1.03567	-26
1.03933	-24
1.04300	-25
1.04667	-27
1.05033	-26
1.05400	-24
1.05767	-25
1.06133	-28
1.06500	-29
1.06867	-28
1.07233	-30
1.07600	-29
1.07967	-30
1.08333	-28
1.08700	-26
1.09067	-24
1.09433	-21
1.09800	-18
1.10167	-18
1.10533	-20
1.10900	-19
1.11267	-18
1.11633	-21
1.12000	-25
1.12367	-28
1.12733	-29
1.13100	-28
1.13467	-26
1.13833	-25
1.14200	-27
1.14567	-29
1.14933	-29
1.15300	-28
1.15667	-28
1.16033	-26
1.16400	-25
1.16767	-23
1.17133	-23
1.17500	-25
1.17867	-28
1.18233	-31
1.18600	-30
1.18967	-28
1.19333	-26
1.19700	-28
1.20067	-28
1.20433	-27
1.20800	-27
1.21167	-27
1.21533	-28
1.21900	-27
1.22267	-27
1.22633	-28
1.23000	-29
1.23367	-27
1.23733	-26
1.24100	-27
1.24467	-24
1.24833	-20
1.25200	-19
1.25567	-22
1.25933	-22
1.26300	-22
1.26667	-23
1.27033	-24
1.27400	-22
1.27767	-20
1.28133	-18
1.28500	-18
1.28867	-19
1.29233	-20
1.29600	-22
1.29967	-26
1.30333	-27
1.30700	-26
1.31067	-25
1.31433	-23
1.31800	-20
1.32167	-20
1.32533	-19
1.32900	-19
1.33267	-19
1.33633	-21
1.34000	-22
1.34367	-21
1.34733	-22
1.35100	-23
1.35467	-25
1.35833	-26
1.36200	-28
1.36567	-25
1.36933	-23
1.37300	-20
1.37667	-21
1.38033	-21
1.38400	-20
1.38767	-20
1.39133	-23
1.39500	-26
1.39867	-26
1.40233	-24
1.40600	-23
1.40967	-23
1.41333	-24
1.41700	-25
1.42067	-27
1.42433	-28
1.42800	-28
1.43167	-27
1.43533	-26
1.43900	-27
1.44267	-24
1.44633	-25
1.45000	-27
1.45367	-28
1.45733	-27
1.46100	-26
1.46467	-24
1.46833	-24
1.47200	-22
1.47567	-21
1.47933	-22
1.48300	-23
1.48667	-25
1.49033	-25
1.49400	-25
1.49767	-27
1.50133	-28
1.50500	-30
1.50867	-32
1.51233	-32
1.51600	-31
1.51967	-32
1.52333	-32
1.52700	-31
1.53067	-31
1.53433	-32
1.53800	-32
1.54167	-30
1.54533	-30
1.54900	-32
1.55267	-33
1.55633	-34
1.56000	-32
1.56367	-32
1.56733	-32
1.57100	-31
1.57467	-31
1.57833	-33
1.58200	-35
1.58567	-36
1.58933	-38
1.59300	-38
1.59667	-37
1.60033	-35
1.60400	-33
1.60767	-34
1.61133	-32
1.61500	-30
1.61867	-31
1.62233	-33
1.62600	-33
1.62967	-31
1.63333	-29
1.63700	-29
1.64067	-29
1.64433	-27
1.64800	-28
1.65167	-28
1.65533	-27
1.65900	-27
1.66267	-29
1.66633	-30
1.67000	-30
1.67367	-32
1.67733	-30
1.68100	-26
1.68467	-26
1.68833	-26
1.69200	-25
1.69567	-23
1.69933	-22
1.70300	-26
1.70667	-29
1.71033	-27
1.71400	-27
1.71767	-27
1.72133	-23
1.72500	-19
1.72867	-16
1.73233	-15
1.73600	-16
1.73967	-17
1.74333	-19
1.74700	-21
1.75067	-24
1.75433	-25
1.75800	-23
1.76167	-21
1.76533	-21
1.76900	-21
1.77267	-19
1.77633	-16
1.78000	-11
1.78367	-7
1.78733	-7
1.79100	-5
1.79467	-6
1.79833	-8
1.80200	-11
1.80567	-12
1.80933	-12
1.81300	-14
1.81667	-13
1.82033	-11
1.82400	-9
1.82767	-6
1.83133	-4
1.83500	-4
1.83867	-3
1.84233	-3
1.84600	-5
1.84967	-5
1.85333	-2
1.85700	0
1.86067	2
1.86433	4
1.86800	8
1.87167	10
1.87533	12
1.87900	12
1.88267	11
1.88633	9
1.89000	8
1.89367	8
1.89733	6
1.90100	6
1.90467	8
1.90833	10
1.91200	11
1.91567	12
1.91933	15
1.92300	15
1.92667	16
1.93033	20
1.93400	24
1.93767	26
1.94133	27
1.94500	28
1.94867	27
1.95233	26
1.95600	23
1.95967	23
1.96333	26
1.96700	27
1.97067	28
1.97433	32
1.97800	34
1.98167	34
1.98533	36
1.98900	35
1.99267	33
1.99633	34
2.00000	37
2.00367	42
2.00733	47
2.01100	49
2.01467	50
2.01833	49
2.02200	50
2.02567	51
2.02933	51
2.03300	51
2.03667	50
2.04033	50
2.04400	52
2.04767	55
2.05133	55
2.05500	54
2.05867	57
2.06233	59
2.06600	59
2.06967	61
2.07333	62
2.07700	58
2.08067	57
2.08433	55
2.08800	60
2.09167	69
2.09533	73
2.09900	73
2.10267	73
2.10633	74
2.11000	73
2.11367	72
2.11733	72
2.12100	73
2.12467	77
2.12833	80
2.13200	79
2.13567	78
2.13933	80
2.14300	83
2.14667	86
2.15033	91
2.15400	94
2.15767	94
2.16133	94
2.16500	93
2.16867	93
2.17233	95
2.17600	95
2.17967	97
2.18333	99
2.18700	99
2.19067	97
2.19433	95
2.19800	97
2.20167	99
2.20533	102
2.20900	104
2.21267	107
2.21633	104
2.22000	104
2.22367	105
2.22733	105
2.23100	108
2.23467	111
2.23833	112
2.24200	111
2.24567	112
2.24933	115
2.25300	117
2.25667	118
2.26033	121
2.26400	125
2.26767	129
2.27133	132
2.27500	133
2.27867	133
2.28233	130
2.28600	131
2.28967	133
2.29333	134
2.29700	134
2.30067	133
2.30433	134
2.30800	135
2.31167	138
2.31533	140
2.31900	144
2.32267	146
2.32633	151
2.33000	154
2.33367	154
2.33733	153
2.34100	154
2.34467	153
2.34833	150
2.35200	151
2.35567	153
2.35933	157
2.36300	158
2.36667	160
2.37033	163
2.37400	167
2.37767	171
2.38133	177
2.38500	178
2.38867	176
2.39233	174
2.39600	173
2.39967	175
2.40333	176
2.40700	179
2.41067	180
2.41433	179
2.41800	178
2.42167	179
2.42533	179
2.42900	178
2.43267	177
2.43633	180
2.44000	185
2.44367	207
2.44733	250
2.45100	296
2.45467	323
2.45833	326
2.46200	311
2.46567	298
2.46933	287
2.47300	274
2.47667	251
2.48033	221
2.48400	191
2.48767	164
2.49133	145
2.49500	131
2.49867	122
2.50233	121
2.50600	120
2.50967	118
2.51333	115
2.51700	109
2.52067	102
2.52433	90
2.52800	78
2.53167	65
2.53533	54
2.53900	46
2.54267	38
2.54633	30
2.55000	23
2.55367	17
2.55733	14
2.56100	12
2.56467	13
2.56833	11
2.57200	13
2.57567	15
2.57933	17
2.58300	22
2.58667	29
2.59033	35
2.59400	38
2.59767	39
2.60133	37
2.60500	34
2.60867	21
2.61233	-2
2.61600	-32
2.61967	-69
2.62333	-109
2.62700	-149
2.63067	-186
2.63433	-221
2.63800	-253
2.64167	-278
2.64533	-298
2.64900	-311
2.65267	-323
2.65633	-328
2.66000	-328
2.66367	-325
2.66733	-321
2.67100	-312
2.67467	-299
2.67833	-285
2.68200	-275
2.68567	-265
2.68933	-251
2.69300	-237
2.69667	-227
2.70033	-217
2.70400	-211
2.70767	-202
2.71133	-192
2.71500	-186
2.71867	-181
2.72233	-173
2.72600	-165
2.72967	-158
2.73333	-154
2.73700	-151
2.74067	-145
2.74433	-144
2.74800	-139
2.75167	-135
2.75533	-132
2.75900	-129
2.76267	-128
2.76633	-126
2.77000	-121
2.77367	-117
2.77733	-115
2.78100	-112
2.78467	-109
2.78833	-107
2.79200	-105
2.79567	-98
2.79933	-93
2.80300	-92
2.80667	-90
2.81033	-86
2.81400	-80
2.81767	-78
2.82133	-75
2.82500	-61
2.82867	-22
2.83233	71
2.83600	259
2.83967	605
2.84333	1182
2.84700	2052
2.85067	3246
2.85433	4751
2.85800	6506
2.86167	8397
2.86533	10291
2.86900	12035
2.87267	13492
2.87633	14563
2.88000	15187
2.88367	15356
2.88733	15119
2.89100	14548
2.89467	13726
2.89833	12736
2.90200	11657
2.90567	10549
2.90933	9456
2.91300	8409
2.91667	7429
2.92033	6527
2.92400	5708
2.92767	4974
2.93133	4324
2.93500	3746
2.93867	3233
2.94233	2782
2.94600	2391
2.94967	2052
2.95333	1755
2.95700	1496
2.96067	1273
2.96433	1081
2.96800	915
2.97167	770
2.97533	646
2.97900	539
2.98267	447
2.98633	366
2.99000	294
2.99367	234
2.99733	183
3.00100	141
3.00467	104
3.00833	71
3.01200	44
3.01567	24
3.01933	8
3.02300	-8
3.02667	-22
3.03033	-37
3.03400	-51
3.03767	-62
3.04133	-71
3.04500	-77
3.04867	-82
3.05233	-85
3.05600	-86
3.05967	-88
3.06333	-94
3.06700	-100
3.07067	-102
3.07433	-103
3.07800	-104
3.08167	-106
3.08533	-107
3.08900	-104
3.09267	-104
3.09633	-105
3.10000	-106
3.10367	-106
3.10733	-105
3.11100	-103
3.11467	-102
3.11833	-105
3.12200	-106
3.12567	-108
3.12933	-109
3.13300	-111
3.13667	-112
3.14033	-111
3.14400	-110
3.14767	-108
3.15133	-105
3.15500	-103
3.15867	-99
3.16233	-96
3.16600	-93
3.16967	-90
3.17333	-92
3.17700	-97
3.18067	-101
3.18433	-100
3.18800	-98
3.19167	-95
3.19533	-94
3.19900	-94
3.20267	-92
3.20633	-87
3.21000	-85
3.21367	-86
3.21733	-88
3.22100	-90
3.22467	-90
3.22833	-90
3.23200	-88
3.23567	-87
3.23933	-84
3.24300	-79
3.24667	-74
3.25033	-75
3.25400	-77
3.25767	-79
3.26133	-80
3.26500	-80
3.26867	-80
3.27233	-80
3.27600	-85
3.27967	-100
3.28333	-121
3.28700	-135
3.29067	-142
3.29433	-142
3.29800	-131
3.30167	-113
3.30533	-91
3.30900	-67
3.31267	-41
3.31633	-14
3.32000	14
3.32367	42
3.32733	68
3.33100	91
3.33467	113
3.33833	135
3.34200	155
3.34567	175
3.34933	194
3.35300	212
3.35667	228
3.36033	244
3.36400	258
3.36767	267
3.37133	275
3.37500	282
3.37867	288
3.38233	294
3.38600	299
3.38967	302
3.39333	310
3.39700	316
3.40067	318
3.40433	322
3.40800	323
3.41167	325
3.41533	328
3.41900	329
3.42267	329
3.42633	326
3.43000	321
3.43367	318
3.43733	318
3.44100	318
3.44467	316
3.44833	316
3.45200	318
3.45567	319
3.45933	318
3.46300	317
3.46667	314
3.47033	310
3.47400	308
3.47767	307
3.48133	304
3.48500	304
3.48867	305
3.49233	304
3.49600	303
3.49967	301
3.50333	301
3.50700	300
3.51067	301
3.51433	301
3.51800	299
3.52167	298
3.52533	297
3.52900	296
3.53267	296
3.53633	295
3.54000	292
3.54367	294
3.54733	295
3.55100	294
3.55467	294
3.55833	292
3.56200	291
3.56567	289
3.56933	289
3.57300	289
3.57667	289
3.58033	286
3.58400	282
3.58767	279
3.59133	277
3.59500	274
3.59867	269
3.60233	268
3.60600	268
3.60967	265
3.61333	262
3.61700	260
3.62067	259
3.62433	259
3.62800	261
3.63167	258
3.63533	258
3.63900	258
3.64267	256
3.64633	252
3.65000	248
3.65367	245
3.65733	244
3.66100	242
3.66467	240
3.66833	238
3.67200	235
3.67567	236
3.67933	238
3.68300	237
3.68667	232
3.69033	226
3.69400	224
3.69767	225
3.70133	223
3.70500	221
3.70867	219
3.71233	217
3.71600	213
3.71967	208
3.72333	202
3.72700	202
3.73067	205
3.73433	207
3.73800	207
3.74167	204
3.74533	202
3.74900	201
3.75267	197
3.75633	194
3.76000	190
3.76367	189
3.76733	188
3.77100	189
3.77467	187
3.77833	184
3.78200	181
3.78567	177
3.78933	176
3.79300	176
3.79667	180
3.80033	183
3.80400	184
3.80767	183
3.81133	181
3.81500	178
3.81867	178
3.82233	178
3.82600	178
3.82967	177
3.83333	175
3.83700	173
3.84067	173
3.84433	173
3.84800	172
3.85167	172
3.85533	171
3.85900	169
3.86267	169
3.86633	168
3.87000	166
3.87367	166
3.87733	167
3.88100	166
3.88467	163
3.88833	163
3.89200	163
3.89567	163
3.89933	163
3.90300	163
3.90667	163
3.91033	162
3.91400	162
3.91767	160
3.92133	156
3.92500	152
3.92867	148
3.93233	145
3.93600	145
3.93967	144
3.94333	146
3.94700	147
3.95067	146
3.95433	145
3.95800	143
3.96167	142
3.96533	141
3.96900	141
3.97267	139
3.97633	135
3.98000	133
3.98367	135
3.98733	139
3.99100	144
3.99467	143
3.99833	139

[Status Trace (Column Oven Temperature)]
Interval(msec)	1000
# of Points	240
Start Time(min)	0.008
End Time(min)	3.991
Intensity Units	
Intensity Multiplier	1
R.Time (min)	Intensity
0.00793	35.01
0.02460	35.01
0.04127	35.01
0.05793	35.01
0.07460	35.01
0.09127	35.01
0.10793	35.01
0.12460	35.00
0.14127	35.00
0.15793	35.01
0.17460	35.01
0.19127	35.00
0.20793	35.00
0.22460	35.00
0.24127	34.99
0.25793	34.99
0.27460	34.98
0.29127	34.98
0.30793	34.99
0.32460	34.99
0.34127	34.99
0.35793	34.98
0.37460	34.98
0.39127	34.97
0.40793	34.99
0.42460	34.99
0.44127	35.00
0.45793	35.00
0.47460	35.00
0.49127	34.99
0.50793	34.99
0.52460	34.99
0.54127	34.99
0.55793	34.98
0.57460	34.99
0.59127	34.99
0.60793	34.99
0.62460	34.99
0.64127	35.00
0.65793	35.01
0.67460	35.01
0.69127	35.00
0.70793	35.00
0.72460	34.98
0.74127	34.98
0.75793	34.99
0.77460	34.99
0.79127	34.98
0.80793	34.98
0.82460	34.99
0.84127	34.99
0.85793	34.99
0.87460	34.99
0.89127	34.99
0.90793	34.98
0.92460	34.99
0.94127	34.99
0.95793	34.99
0.97460	35.00
0.99127	35.00
1.00793	35.00
1.02460	35.01
1.04127	35.01
1.05793	35.00
1.07460	35.01
1.09127	35.00
1.10793	35.00
1.12460	35.00
1.14127	35.00
1.15793	34.99
1.17460	34.99
1.19127	34.99
1.20793	34.99
1.22460	34.99
1.24127	34.99
1.25793	34.99
1.27460	34.99
1.29127	34.99
1.30793	35.00
1.32460	35.00
1.34127	35.00
1.35793	35.00
1.37460	34.99
1.39127	34.99
1.40793	34.99
1.42460	35.00
1.44127	35.00
1.45793	35.01
1.47460	35.01
1.49127	35.01
1.50793	35.01
1.52460	35.01
1.54127	35.01
1.55793	35.01
1.57460	35.00
1.59127	35.00
1.60793	35.06
1.62460	35.19
1.64127	35.37
1.65793	35.61
1.67460	35.95
1.69127	36.32
1.70793	36.68
1.72460	37.02
1.74127	37.35
1.75793	37.67
1.77460	38.00
1.79127	38.34
1.80793	38.67
1.82460	39.00
1.84127	39.34
1.85793	39.68
1.87460	40.00
1.89127	40.33
1.90793	40.64
1.92460	40.98
1.94127	41.32
1.95793	41.63
1.97460	41.97
1.99127	42.29
2.00793	42.62
2.02460	42.93
2.04127	43.26
2.05793	43.60
2.07460	43.92
2.09127	44.23
2.10793	44.58
2.12460	44.88
2.14127	45.21
2.15793	45.53
2.17460	45.87
2.19127	46.19
2.20793	46.51
2.22460	46.83
2.24127	47.17
2.25793	47.49
2.27460	47.83
2.29127	48.17
2.30793	48.49
2.32460	48.83
2.34127	49.20
2.35793	49.46
2.37460	49.61
2.39127	49.66
2.40793	49.64
2.42460	49.64
2.44127	49.66
2.45793	49.66
2.47460	49.68
2.49127	49.68
2.50793	49.71
2.52460	49.72
2.54127	49.74
2.55793	49.75
2.57460	49.77
2.59127	49.79
2.60793	49.80
2.62460	49.81
2.64127	49.83
2.65793	49.83
2.67460	49.84
2.69127	49.85
2.70793	49.86
2.72460	49.86
2.74127	49.85
2.75793	49.84
2.77460	49.87
2.79127	49.89
2.80793	49.91
2.82460	49.91
2.84127	49.90
2.85793	49.90
2.87460	49.90
2.89127	49.90
2.90793	49.91
2.92460	49.91
2.94127	49.93
2.95793	49.95
2.97460	49.96
2.99127	49.97
3.00793	49.98
3.02460	49.99
3.04127	49.99
3.05793	50.00
3.07460	50.01
3.09127	50.01
3.10793	50.02
3.12460	50.03
3.14127	50.03
3.15793	50.05
3.17460	50.06
3.19127	50.06
3.20793	50.07
3.22460	50.08
3.24127	50.09
3.25793	50.10
3.27460	50.10
3.29127	50.10
3.30793	50.10
3.32460	50.09
3.34127	50.09
3.35793	50.09
3.37460	50.09
3.39127	50.09
3.40793	50.08
3.42460	50.08
3.44127	50.08
3.45793	50.08
3.47460	50.08
3.49127	50.09
3.50793	50.09
3.52460	50.09
3.54127	50.10
3.55793	50.10
3.57460	50.09
3.59127	50.08
3.60793	50.08
3.62460	50.08
3.64127	50.08
3.65793	50.08
3.67460	50.07
3.69127	50.07
3.70793	50.07
3.72460	50.08
3.74127	50.08
3.75793	50.08
3.77460	50.08
3.79127	50.07
3.80793	50.07
3.82460	50.07
3.84127	50.07
3.85793	50.06
3.87460	50.06
3.89127	50.06
3.90793	50.06
3.92460	50.06
3.94127	50.06
3.95793	50.06
3.97460	50.05
3.99127	50.06

[Status Trace (Injection Unit Temperature)]
Interval(msec)	1000
# of Points	240
Start Time(min)	0.008
End Time(min)	3.991
Intensity Units	
Intensity Multiplier	1
R.Time (min)	Intensity
0.00793	99.98
0.02460	99.98
0.04127	99.98
0.05793	99.98
0.07460	99.98
0.09127	99.98
0.10793	99.98
0.12460	99.98
0.14127	99.98
0.15793	99.98
0.17460	99.97
0.19127	99.97
0.20793	99.98
0.22460	99.97
0.24127	99.98
0.25793	99.97
0.27460	99.98
0.29127	99.98
0.30793	99.98
0.32460	99.97
0.34127	99.98
0.35793	99.97
0.37460	99.97
0.39127	99.97
0.40793	99.98
0.42460	99.98
0.44127	99.98
0.45793	99.98
0.47460	99.98
0.49127	99.98
0.50793	99.98
0.52460	99.98
0.54127	99.98
0.55793	99.98
0.57460	99.98
0.59127	99.98
0.60793	99.98
0.62460	99.98
0.64127	99.98
0.65793	99.98
0.67460	99.98
0.69127	99.98
0.70793	99.98
0.72460	99.98
0.74127	99.98
0.75793	99.98
0.77460	99.98
0.79127	99.98
0.80793	99.98
0.82460	99.98
0.84127	99.99
0.85793	99.98
0.87460	99.98
0.89127	99.98
0.90793	99.99
0.92460	99.98
0.94127	99.98
0.95793	99.98
0.97460	99.98
0.99127	99.98
1.00793	99.98
1.02460	99.98
1.04127	99.99
1.05793	99.99
1.07460	99.99
1.09127	99.99
1.10793	99.98
1.12460	99.99
1.14127	99.99
1.15793	99.99
1.17460	99.99
1.19127	99.98
1.20793	99.99
1.22460	99.99
1.24127	99.99
1.25793	99.99
1.27460	99.99
1.29127	99.99
1.30793	99.99
1.32460	99.98
1.34127	99.99
1.35793	99.99
1.37460	99.99
1.39127	99.99
1.40793	99.99
1.42460	99.99
1.44127	99.99
1.45793	99.99
1.47460	99.99
1.49127	99.99
1.50793	99.99
1.52460	99.98
1.54127	99.98
1.55793	99.98
1.57460	99.99
1.59127	99.98
1.60793	99.99
1.62460	99.98
1.64127	99.99
1.65793	99.99
1.67460	99.98
1.69127	99.98
1.70793	99.99
1.72460	99.98
1.74127	99.98
1.75793	99.99
1.77460	99.98
1.79127	99.99
1.80793	99.99
1.82460	99.98
1.84127	99.98
1.85793	99.98
1.87460	99.98
1.89127	99.98
1.90793	99.98
1.92460	99.98
1.94127	99.98
1.95793	99.98
1.97460	99.98
1.99127	99.98
2.00793	99.98
2.02460	99.98
2.04127	99.98
2.05793	99.98
2.07460	99.98
2.09127	99.97
2.10793	99.97
2.12460	99.97
2.14127	99.98
2.15793	99.97
2.17460	99.97
2.19127	99.97
2.20793	99.97
2.22460	99.97
2.24127	99.97
2.25793	99.97
2.27460	99.97
2.29127	99.97
2.30793	99.97
2.32460	99.97
2.34127	99.97
2.35793	99.97
2.37460	99.97
2.39127	99.97
2.40793	99.97
2.42460	99.97
2.44127	99.97
2.45793	99.97
2.47460	99.97
2.49127	99.97
2.50793	99.97
2.52460	99.97
2.54127	99.97
2.55793	99.97
2.57460	99.97
2.59127	99.98
2.60793	99.98
2.62460	99.98
2.64127	99.98
2.65793	99.98
2.67460	99.98
2.69127	99.98
2.70793	99.98
2.72460	99.98
2.74127	99.99
2.75793	99.98
2.77460	99.99
2.79127	99.99
2.80793	99.99
2.82460	99.99
2.84127	99.99
2.85793	100.00
2.87460	100.00
2.89127	100.00
2.90793	100.00
2.92460	100.00
2.94127	100.00
2.95793	100.01
2.97460	100.01
2.99127	100.00
3.00793	100.01
3.02460	100.01
3.04127	100.01
3.05793	100.01
3.07460	100.01
3.09127	100.02
3.10793	100.02
3.12460	100.02
3.14127	100.02
3.15793	100.02
3.17460	100.02
3.19127	100.02
3.20793	100.02
3.22460	100.02
3.24127	100.03
3.25793	100.03
3.27460	100.03
3.29127	100.03
3.30793	100.03
3.32460	100.03
3.34127	100.03
3.35793	100.03
3.37460	100.03
3.39127	100.04
3.40793	100.04
3.42460	100.03
3.44127	100.04
3.45793	100.04
3.47460	100.04
3.49127	100.04
3.50793	100.04
3.52460	100.04
3.54127	100.04
3.55793	100.05
3.57460	100.05
3.59127	100.05
3.60793	100.04
3.62460	100.05
3.64127	100.05
3.65793	100.05
3.67460	100.05
3.69127	100.05
3.70793	100.05
3.72460	100.05
3.74127	100.05
3.75793	100.05
3.77460	100.05
3.79127	100.05
3.80793	100.05
3.82460	100.05
3.84127	100.05
3.85793	100.05
3.87460	100.05
3.89127	100.05
3.90793	100.05
3.92460	100.05
3.94127	100.05
3.95793	100.06
3.97460	100.06
3.99127	100.05

[Status Trace (Carrier Gas Pressure)]
Interval(msec)	1000
# of Points	240
Start Time(min)	0.008
End Time(min)	3.991
Intensity Units	
Intensity Multiplier	1
R.Time (min)	Intensity
0.00793	58.00
0.02460	55.43
0.04127	57.15
0.05793	59.22
0.07460	59.39
0.09127	58.05
0.10793	57.98
0.12460	58.01
0.14127	58.01
0.15793	58.00
0.17460	58.00
0.19127	58.00
0.20793	58.00
0.22460	58.00
0.24127	58.00
0.25793	58.00
0.27460	58.00
0.29127	58.00
0.30793	58.00
0.32460	58.00
0.34127	58.00
0.35793	58.00
0.37460	58.00
0.39127	58.00
0.40793	58.00
0.42460	58.00
0.44127	58.00
0.45793	58.00
0.47460	58.00
0.49127	58.00
0.50793	58.00
0.52460	58.00
0.54127	58.00
0.55793	58.00
0.57460	58.00
0.59127	58.00
0.60793	58.00
0.62460	58.00
0.64127	58.00
0.65793	58.00
0.67460	58.00
0.69127	58.00
0.70793	58.00
0.72460	58.00
0.74127	58.00
0.75793	58.00
0.77460	58.00
0.79127	58.00
0.80793	58.00
0.82460	58.00
0.84127	58.00
0.85793	58.00
0.87460	58.00
0.89127	58.00
0.90793	58.00
0.92460	58.00
0.94127	58.00
0.95793	58.00
0.97460	58.00
0.99127	58.00
1.00793	58.00
1.02460	58.00
1.04127	58.00
1.05793	58.00
1.07460	58.00
1.09127	58.00
1.10793	58.00
1.12460	58.00
1.14127	58.00
1.15793	58.00
1.17460	58.00
1.19127	58.00
1.20793	58.00
1.22460	58.00
1.24127	58.00
1.25793	58.00
1.27460	58.00
1.29127	58.00
1.30793	58.00
1.32460	58.00
1.34127	58.00
1.35793	58.00
1.37460	58.00
1.39127	58.00
1.40793	58.00
1.42460	58.00
1.44127	58.00
1.45793	58.00
1.47460	58.00
1.49127	58.00
1.50793	58.00
1.52460	58.00
1.54127	58.00
1.55793	58.00
1.57460	58.00
1.59127	58.00
1.60793	58.00
1.62460	58.00
1.64127	58.00
1.65793	58.00
1.67460	58.01
1.69127	58.00
1.70793	58.00
1.72460	58.00
1.74127	58.00
1.75793	58.00
1.77460	58.00
1.79127	58.00
1.80793	58.00
1.82460	58.00
1.84127	58.00
1.85793	58.00
1.87460	58.00
1.89127	58.00
1.90793	58.00
1.92460	58.00
1.94127	58.00
1.95793	58.00
1.97460	58.00
1.99127	58.00
2.00793	58.00
2.02460	58.00
2.04127	58.00
2.05793	58.00
2.07460	58.00
2.09127	58.00
2.10793	58.00
2.12460	58.00
2.14127	58.00
2.15793	58.00
2.17460	58.00
2.19127	58.00
2.20793	58.00
2.22460	58.00
2.24127	58.00
2.25793	58.00
2.27460	58.00
2.29127	58.00
2.30793	58.00
2.32460	58.00
2.34127	58.00
2.35793	58.00
2.37460	57.99
2.39127	57.99
2.40793	57.99
2.42460	58.00
2.44127	58.00
2.45793	58.00
2.47460	58.00
2.49127	58.00
2.50793	57.99
2.52460	57.98
2.54127	58.00
2.55793	58.00
2.57460	58.00
2.59127	58.00
2.60793	58.00
2.62460	58.00
2.64127	58.00
2.65793	58.00
2.67460	58.00
2.69127	58.00
2.70793	58.00
2.72460	58.00
2.74127	58.00
2.75793	58.00
2.77460	58.00
2.79127	58.00
2.80793	58.00
2.82460	58.00
2.84127	58.00
2.85793	58.00
2.87460	58.00
2.89127	58.00
2.90793	58.00
2.92460	58.00
2.94127	58.00
2.95793	58.00
2.97460	58.00
2.99127	58.00
3.00793	58.00
3.02460	58.00
3.04127	58.00
3.05793	58.00
3.07460	58.00
3.09127	58.00
3.10793	58.00
3.12460	58.00
3.14127	58.00
3.15793	58.00
3.17460	58.00
3.19127	58.00
3.20793	58.00
3.22460	58.00
3.24127	58.00
3.25793	58.00
3.27460	58.00
3.29127	58.00
3.30793	58.00
3.32460	58.00
3.34127	58.00
3.35793	58.00
3.37460	58.00
3.39127	58.00
3.40793	58.00
3.42460	58.00
3.44127	58.00
3.45793	58.00
3.47460	58.00
3.49127	58.00
3.50793	58.00
3.52460	58.00
3.54127	58.00
3.55793	58.00
3.57460	58.00
3.59127	58.00
3.60793	58.00
3.62460	58.00
3.64127	58.00
3.65793	58.00
3.67460	58.00
3.69127	58.00
3.70793	58.00
3.72460	58.00
3.74127	58.00
3.75793	58.00
3.77460	58.00
3.79127	58.00
3.80793	58.00
3.82460	58.00
3.84127	58.00
3.85793	58.00
3.87460	58.00
3.89127	58.00
3.90793	58.00
3.92460	58.00
3.94127	58.00
3.95793	58.00
3.97460	58.00
3.99127	58.00

[Status Trace (Carrier Gas Flow)]
Interval(msec)	1000
# of Points	240
Start Time(min)	0.008
End Time(min)	3.991
Intensity Units	
Intensity Multiplier	1
R.Time (min)	Intensity
0.00793	34.52
0.02460	34.55
0.04127	34.54
0.05793	34.55
0.07460	34.51
0.09127	34.52
0.10793	34.52
0.12460	34.52
0.14127	34.52
0.15793	34.51
0.17460	34.52
0.19127	34.52
0.20793	34.52
0.22460	34.52
0.24127	34.52
0.25793	34.52
0.27460	34.52
0.29127	34.52
0.30793	34.52
0.32460	34.52
0.34127	34.52
0.35793	34.52
0.37460	34.52
0.39127	34.52
0.40793	34.52
0.42460	34.52
0.44127	34.52
0.45793	34.52
0.47460	34.52
0.49127	34.52
0.50793	34.52
0.52460	34.52
0.54127	34.52
0.55793	34.52
0.57460	34.52
0.59127	34.52
0.60793	34.52
0.62460	34.52
0.64127	34.52
0.65793	34.52
0.67460	34.52
0.69127	34.52
0.70793	34.52
0.72460	34.52
0.74127	34.52
0.75793	34.52
0.77460	34.52
0.79127	34.52
0.80793	34.52
0.82460	34.52
0.84127	34.52
0.85793	34.52
0.87460	34.52
0.89127	34.52
0.90793	34.52
0.92460	34.52
0.94127	34.52
0.95793	34.52
0.97460	34.52
0.99127	34.52
1.00793	34.52
1.02460	34.52
1.04127	34.52
1.05793	34.52
1.07460	34.52
1.09127	34.52
1.10793	34.52
1.12460	34.52
1.14127	34.52
1.15793	34.52
1.17460	34.52
1.19127	34.52
1.20793	34.52
1.22460	34.52
1.24127	34.52
1.25793	34.52
1.27460	34.52
1.29127	34.52
1.30793	34.52
1.32460	34.52
1.34127	34.52
1.35793	34.52
1.37460	34.52
1.39127	34.52
1.40793	34.52
1.42460	34.52
1.44127	34.52
1.45793	34.52
1.47460	34.52
1.49127	34.52
1.50793	34.52
1.52460	34.52
1.54127	34.51
1.55793	34.52
1.57460	34.52
1.59127	34.52
1.60793	34.52
1.62460	34.52
1.64127	34.52
1.65793	34.53
1.67460	34.53
1.69127	34.52
1.70793	34.52
1.72460	34.52
1.74127	34.52
1.75793	34.51
1.77460	34.52
1.79127	34.51
1.80793	34.52
1.82460	34.51
1.84127	34.52
1.85793	34.52
1.87460	34.52
1.89127	34.52
1.90793	34.52
1.92460	34.52
1.94127	34.52
1.95793	34.52
1.97460	34.52
1.99127	34.52
2.00793	34.52
2.02460	34.52
2.04127	34.52
2.05793	34.52
2.07460	34.52
2.09127	34.52
2.10793	34.52
2.12460	34.52
2.14127	34.52
2.15793	34.52
2.17460	34.52
2.19127	34.52
2.20793	34.52
2.22460	34.52
2.24127	34.52
2.25793	34.52
2.27460	34.52
2.29127	34.52
2.30793	34.52
2.32460	34.52
2.34127	34.52
2.35793	34.52
2.37460	34.52
2.39127	34.52
2.40793	34.52
2.42460	34.52
2.44127	34.52
2.45793	34.52
2.47460	34.52
2.49127	34.52
2.50793	34.33
2.52460	34.52
2.54127	34.52
2.55793	34.52
2.57460	34.52
2.59127	34.52
2.60793	34.52
2.62460	34.52
2.64127	34.52
2.65793	34.52
2.67460	34.52
2.69127	34.52
2.70793	34.52
2.72460	34.52
2.74127	34.52
2.75793	34.52
2.77460	34.52
2.79127	34.52
2.80793	34.52
2.82460	34.52
2.84127	34.52
2.85793	34.52
2.87460	34.52
2.89127	34.52
2.90793	34.52
2.92460	34.52
2.94127	34.52
2.95793	34.52
2.97460	34.52
2.99127	34.52
3.00793	34.52
3.02460	34.52
3.04127	34.52
3.05793	34.52
3.07460	34.52
3.09127	34.52
3.10793	34.52
3.12460	34.53
3.14127	34.52
3.15793	34.53
3.17460	34.51
3.19127	34.52
3.20793	34.51
3.22460	34.52
3.24127	34.52
3.25793	34.51
3.27460	34.52
3.29127	34.52
3.30793	34.52
3.32460	34.52
3.34127	34.52
3.35793	34.52
3.37460	34.52
3.39127	34.52
3.40793	34.52
3.42460	34.52
3.44127	34.52
3.45793	34.52
3.47460	34.52
3.49127	34.52
3.50793	34.52
3.52460	34.52
3.54127	34.52
3.55793	34.52
3.57460	34.52
3.59127	34.52
3.60793	34.52
3.62460	34.52
3.64127	34.52
3.65793	34.52
3.67460	34.52
3.69127	34.52
3.70793	34.52
3.72460	34.52
3.74127	34.52
3.75793	34.52
3.77460	34.52
3.79127	34.52
3.80793	34.52
3.82460	34.52
3.84127	34.52
3.85793	34.52
3.87460	34.51
3.89127	34.51
3.90793	34.52
3.92460	34.52
3.94127	34.52
3.95793	34.52
3.97460	34.52
3.99127	34.53

[Status Trace (Column Flow)]
Interval(msec)	1000
# of Points	240
Start Time(min)	0.008
End Time(min)	3.991
Intensity Units	
Intensity Multiplier	1
R.Time (min)	Intensity
0.00793	5.57
0.02460	5.27
0.04127	5.47
0.05793	5.71
0.07460	5.73
0.09127	5.57
0.10793	5.56
0.12460	5.57
0.14127	5.57
0.15793	5.57
0.17460	5.57
0.19127	5.57
0.20793	5.57
0.22460	5.57
0.24127	5.57
0.25793	5.57
0.27460	5.57
0.29127	5.57
0.30793	5.57
0.32460	5.57
0.34127	5.57
0.35793	5.57
0.37460	5.57
0.39127	5.57
0.40793	5.57
0.42460	5.57
0.44127	5.57
0.45793	5.57
0.47460	5.57
0.49127	5.57
0.50793	5.57
0.52460	5.57
0.54127	5.57
0.55793	5.57
0.57460	5.57
0.59127	5.57
0.60793	5.57
0.62460	5.57
0.64127	5.57
0.65793	5.57
0.67460	5.57
0.69127	5.57
0.70793	5.57
0.72460	5.57
0.74127	5.57
0.75793	5.57
0.77460	5.57
0.79127	5.57
0.80793	5.57
0.82460	5.57
0.84127	5.57
0.85793	5.57
0.87460	5.57
0.89127	5.57
0.90793	5.57
0.92460	5.57
0.94127	5.57
0.95793	5.57
0.97460	5.57
0.99127	5.57
1.00793	5.57
1.02460	5.57
1.04127	5.57
1.05793	5.57
1.07460	5.57
1.09127	5.57
1.10793	5.57
1.12460	5.57
1.14127	5.57
1.15793	5.57
1.17460	5.57
1.19127	5.57
1.20793	5.57
1.22460	5.57
1.24127	5.57
1.25793	5.57
1.27460	5.57
1.29127	5.57
1.30793	5.57
1.32460	5.57
1.34127	5.57
1.35793	5.57
1.37460	5.57
1.39127	5.57
1.40793	5.57
1.42460	5.57
1.44127	5.57
1.45793	5.57
1.47460	5.57
1.49127	5.57
1.50793	5.57
1.52460	5.57
1.54127	5.57
1.55793	5.57
1.57460	5.57
1.59127	5.57
1.60793	5.57
1.62460	5.56
1.64127	5.56
1.65793	5.55
1.67460	5.54
1.69127	5.53
1.70793	5.52
1.72460	5.50
1.74127	5.49
1.75793	5.48
1.77460	5.47
1.79127	5.46
1.80793	5.45
1.82460	5.44
1.84127	5.43
1.85793	5.42
1.87460	5.41
1.89127	5.40
1.90793	5.39
1.92460	5.38
1.94127	5.37
1.95793	5.36
1.97460	5.35
1.99127	5.34
2.00793	5.33
2.02460	5.32
2.04127	5.31
2.05793	5.30
2.07460	5.29
2.09127	5.28
2.10793	5.28
2.12460	5.27
2.14127	5.26
2.15793	5.25
2.17460	5.24
2.19127	5.23
2.20793	5.22
2.22460	5.21
2.24127	5.20
2.25793	5.19
2.27460	5.18
2.29127	5.17
2.30793	5.16
2.32460	5.15
2.34127	5.14
2.35793	5.13
2.37460	5.13
2.39127	5.13
2.40793	5.13
2.42460	5.13
2.44127	5.13
2.45793	5.13
2.47460	5.13
2.49127	5.13
2.50793	5.13
2.52460	5.13
2.54127	5.13
2.55793	5.13
2.57460	5.13
2.59127	5.13
2.60793	5.13
2.62460	5.13
2.64127	5.12
2.65793	5.12
2.67460	5.12
2.69127	5.12
2.70793	5.12
2.72460	5.12
2.74127	5.12
2.75793	5.12
2.77460	5.12
2.79127	5.12
2.80793	5.12
2.82460	5.12
2.84127	5.12
2.85793	5.12
2.87460	5.12
2.89127	5.12
2.90793	5.12
2.92460	5.12
2.94127	5.12
2.95793	5.12
2.97460	5.12
2.99127	5.12
3.00793	5.12
3.02460	5.12
3.04127	5.12
3.05793	5.12
3.07460	5.12
3.09127	5.12
3.10793	5.12
3.12460	5.12
3.14127	5.12
3.15793	5.12
3.17460	5.12
3.19127	5.12
3.20793	5.12
3.22460	5.12
3.24127	5.12
3.25793	5.12
3.27460	5.12
3.29127	5.12
3.30793	5.12
3.32460	5.12
3.34127	5.12
3.35793	5.12
3.37460	5.12
3.39127	5.12
3.40793	5.12
3.42460	5.12
3.44127	5.12
3.45793	5.12
3.47460	5.12
3.49127	5.12
3.50793	5.12
3.52460	5.12
3.54127	5.12
3.55793	5.12
3.57460	5.12
3.59127	5.12
3.60793	5.12
3.62460	5.12
3.64127	5.12
3.65793	5.12
3.67460	5.12
3.69127	5.12
3.70793	5.12
3.72460	5.12
3.74127	5.12
3.75793	5.12
3.77460	5.12
3.79127	5.12
3.80793	5.12
3.82460	5.12
3.84127	5.12
3.85793	5.12
3.87460	5.12
3.89127	5.12
3.90793	5.12
3.92460	5.12
3.94127	5.12
3.95793	5.12
3.97460	5.12
3.99127	5.12

[Status Trace (Linear Velocity)]
Interval(msec)	1000
# of Points	240
Start Time(min)	0.008
End Time(min)	3.991
Intensity Units	
Intensity Multiplier	1
R.Time (min)	Intensity
0.00793	39.03
0.02460	37.34
0.04127	38.47
0.05793	39.83
0.07460	39.94
0.09127	39.06
0.10793	39.01
0.12460	39.03
0.14127	39.03
0.15793	39.03
0.17460	39.03
0.19127	39.03
0.20793	39.03
0.22460	39.03
0.24127	39.03
0.25793	39.03
0.27460	39.03
0.29127	39.03
0.30793	39.03
0.32460	39.03
0.34127	39.03
0.35793	39.03
0.37460	39.03
0.39127	39.03
0.40793	39.03
0.42460	39.03
0.44127	39.03
0.45793	39.03
0.47460	39.03
0.49127	39.03
0.50793	39.03
0.52460	39.03
0.54127	39.03
0.55793	39.03
0.57460	39.03
0.59127	39.03
0.60793	39.03
0.62460	39.03
0.64127	39.03
0.65793	39.03
0.67460	39.03
0.69127	39.03
0.70793	39.03
0.72460	39.03
0.74127	39.03
0.75793	39.03
0.77460	39.03
0.79127	39.03
0.80793	39.03
0.82460	39.03
0.84127	39.03
0.85793	39.03
0.87460	39.03
0.89127	39.03
0.90793	39.03
0.92460	39.03
0.94127	39.03
0.95793	39.03
0.97460	39.03
0.99127	39.03
1.00793	39.03
1.02460	39.03
1.04127	39.03
1.05793	39.03
1.07460	39.03
1.09127	39.03
1.10793	39.03
1.12460	39.03
1.14127	39.03
1.15793	39.03
1.17460	39.03
1.19127	39.03
1.20793	39.03
1.22460	39.03
1.24127	39.03
1.25793	39.03
1.27460	39.03
1.29127	39.03
1.30793	39.03
1.32460	39.03
1.34127	39.03
1.35793	39.03
1.37460	39.03
1.39127	39.03
1.40793	39.03
1.42460	39.03
1.44127	39.03
1.45793	39.03
1.47460	39.03
1.49127	39.03
1.50793	39.03
1.52460	39.03
1.54127	39.03
1.55793	39.03
1.57460	39.03
1.59127	39.03
1.60793	39.02
1.62460	39.01
1.64127	39.00
1.65793	38.97
1.67460	38.94
1.69127	38.90
1.70793	38.87
1.72460	38.84
1.74127	38.80
1.75793	38.78
1.77460	38.74
1.79127	38.71
1.80793	38.68
1.82460	38.65
1.84127	38.61
1.85793	38.59
1.87460	38.55
1.89127	38.52
1.90793	38.49
1.92460	38.46
1.94127	38.43
1.95793	38.40
1.97460	38.37
1.99127	38.34
2.00793	38.31
2.02460	38.28
2.04127	38.25
2.05793	38.22
2.07460	38.19
2.09127	38.16
2.10793	38.13
2.12460	38.10
2.14127	38.07
2.15793	38.05
2.17460	38.01
2.19127	37.98
2.20793	37.96
2.22460	37.93
2.24127	37.89
2.25793	37.87
2.27460	37.84
2.29127	37.81
2.30793	37.78
2.32460	37.75
2.34127	37.72
2.35793	37.69
2.37460	37.67
2.39127	37.67
2.40793	37.67
2.42460	37.67
2.44127	37.67
2.45793	37.67
2.47460	37.67
2.49127	37.67
2.50793	37.66
2.52460	37.65
2.54127	37.67
2.55793	37.67
2.57460	37.66
2.59127	37.66
2.60793	37.66
2.62460	37.66
2.64127	37.66
2.65793	37.66
2.67460	37.66
2.69127	37.66
2.70793	37.66
2.72460	37.66
2.74127	37.66
2.75793	37.66
2.77460	37.66
2.79127	37.65
2.80793	37.65
2.82460	37.65
2.84127	37.65
2.85793	37.65
2.87460	37.65
2.89127	37.65
2.90793	37.65
2.92460	37.65
2.94127	37.65
2.95793	37.65
2.97460	37.65
2.99127	37.65
3.00793	37.64
3.02460	37.64
3.04127	37.64
3.05793	37.64
3.07460	37.64
3.09127	37.64
3.10793	37.64
3.12460	37.64
3.14127	37.64
3.15793	37.64
3.17460	37.64
3.19127	37.64
3.20793	37.64
3.22460	37.64
3.24127	37.63
3.25793	37.63
3.27460	37.63
3.29127	37.63
3.30793	37.63
3.32460	37.63
3.34127	37.63
3.35793	37.63
3.37460	37.64
3.39127	37.63
3.40793	37.64
3.42460	37.64
3.44127	37.64
3.45793	37.64
3.47460	37.64
3.49127	37.64
3.50793	37.63
3.52460	37.64
3.54127	37.63
3.55793	37.63
3.57460	37.63
3.59127	37.63
3.60793	37.64
3.62460	37.64
3.64127	37.64
3.65793	37.64
3.67460	37.64
3.69127	37.64
3.70793	37.64
3.72460	37.64
3.74127	37.64
3.75793	37.64
3.77460	37.64
3.79127	37.64
3.80793	37.64
3.82460	37.64
3.84127	37.64
3.85793	37.64
3.87460	37.64
3.89127	37.64
3.90793	37.64
3.92460	37.64
3.94127	37.64
3.95793	37.64
3.97460	37.64
3.99127	37.64

