[Header]
Application Name	LabSolutions
Version	5.110
Data File Name	C:\Users\User\Desktop\GC Analyses\Jack\UIC Prairie Sampling\8.12.22\220812_084.gcd
Output Date	10/14/2022
Output Time	2:33:55 PM

[File Information]
Type	Data File
Generated	10/12/2022 1:56:05 PM
Generated by	System Administrator
Modified	10/12/2022 2:00:11 PM
Modified by	System Administrator

[Sample Information]
Operator Name	System Administrator
Acquired	10/12/2022 1:56:11 PM
Sample Type	1:Standard
Level	1
Sample Name	220812_UICPrairie
Sample ID	220812_UICPrairie
ISTD Amount1	1
ISTD Amount2	1
ISTD Amount3	1
ISTD Amount4	1
ISTD Amount5	1
ISTD Amount6	1
ISTD Amount7	1
ISTD Amount8	1
ISTD Amount9	1
ISTD Amount10	1
ISTD Amount11	1
ISTD Amount12	1
ISTD Amount13	1
ISTD Amount14	1
ISTD Amount15	1
ISTD Amount16	1
ISTD Amount17	1
ISTD Amount18	1
ISTD Amount19	1
ISTD Amount20	1
ISTD Amount21	1
ISTD Amount22	1
ISTD Amount23	1
ISTD Amount24	1
ISTD Amount25	1
ISTD Amount26	1
ISTD Amount27	1
ISTD Amount28	1
ISTD Amount29	1
ISTD Amount30	1
ISTD Amount31	1
ISTD Amount32	1
Sample Amount	1
Dilution Factor	1
Vial#	1
Injection Volume	1
Injection Count	1
Bar Code	

[Original Files]
Data File	C:\Users\User\Desktop\GC Analyses\Jack\UIC Prairie Sampling\8.12.22\220812_084.gcd
Method File	C:\LabSolutions\Data\GHG_4min_2022\ghg3_togas_w_acet_4 min_new_int.gcm
Batch File	
Report Format File	c:\LabSolutions\System\DEFAULT.lsr

[File Description]


[Configuration]
Instrument Name	C0B7VH3-Instrument1
Instrument #	1
Line #	1
# of Detectors	3
Detector ID	DET#1	DET#2	DET#3
Detector Name	FID	PTCD	ECD
# of Channels	1	1	1

[Peak Table(Ch1)]
# of Peaks	3
Peak#	R.Time	I.Time	F.Time	Area	Height	A/H	Conc.	Mark	ID#	Name	k'	Plate #	Plate Ht.	Tailing	Resolution	Sep.Factor	Area Ratio	Height Ratio	Conc. %	Norm Conc.
1	1.476	1.432	1.538	12070	5180	2.330	100.000	   	1	CO	0.000	7934	18.905	1.178	0.000	0.000	0	0	16.667	16.667
2	1.567	1.538	1.619	4060	2073	1.958	100.000	 V 	2	CH4	0.062	11375	13.187	1.156	1.466	0.000	0	0	16.667	16.667
3	1.996	1.949	2.381	2889506	1423845	2.029	400.000	   	3	CO2	0.353	17961	8.351	1.224	7.249	5.680	0	0	66.667	66.667

[Peak Table(Ch2)]
# of Peaks	0

[Peak Table(Ch3)]
# of Peaks	2
Peak#	R.Time	I.Time	F.Time	Area	Height	A/H	Conc.	Mark	ID#	Name	k'	Plate #	Plate Ht.	Tailing	Resolution	Sep.Factor	Area Ratio	Height Ratio	Conc. %	Norm Conc.
1	2.458	1.098	2.645	19304	557	34.650	0.000	   			0.000	92	1626.845	0.575	0.000	0.000	0	0	0.000	0.000
2	2.880	2.653	3.819	38130	5525	6.901	1.000	   	1	N2O	0.172	11737	12.780	2.455	0.746	0.000	0	0	100.000	100.000

[Compound Results(Ch1)]
# of IDs	6
ID#	Name	R.Time	Area	Height	Conc.	Curve	3rd	2nd	1st	Constant	Area Ratio	Height Ratio	Conc. %	Norm Conc.
1	CO	1.476	12070	5180	100.000	Linear	0.000000e+00	0.000000e+00	1.206968e+002	0.000000e+00	0	0	16.667	16.667
2	CH4	1.567	4060	2073	100.000	Linear	0.000000e+00	0.000000e+00	4.059784e+001	0.000000e+00	0	0	16.667	16.667
3	CO2	1.996	2889506	1423845	400.000	Linear	0.000000e+00	0.000000e+00	7.223765e+003	0.000000e+00	0	0	66.667	66.667
4	Ethylene	0.000	0	0	0.000	Linear	0.000000e+00	0.000000e+00	0.000000e+00	0.000000e+00	0	0	0.000	0.000
5	Acetylene	0.000	0	0	0.000	Linear	0.000000e+00	0.000000e+00	0.000000e+00	0.000000e+00	0	0	0.000	0.000
6	Ethane	0.000	0	0	0.000	Linear	0.000000e+00	0.000000e+00	0.000000e+00	0.000000e+00	0	0	0.000	0.000

[Compound Results(Ch2)]
# of IDs	5
ID#	Name	R.Time	Area	Height	Conc.	Curve	3rd	2nd	1st	Constant	Area Ratio	Height Ratio	Conc. %	Norm Conc.
1	Hydrogen	0.000	0	0	0.000	Linear	0.000000e+00	0.000000e+00	0.000000e+00	0.000000e+00	0	0	0.000	0.000
2	Oxygen	0.000	0	0	0.000	Linear	0.000000e+00	0.000000e+00	0.000000e+00	0.000000e+00	0	0	0.000	0.000
3	Nitrogen	0.000	0	0	0.000	Linear	0.000000e+00	0.000000e+00	0.000000e+00	0.000000e+00	0	0	0.000	0.000
4	Methane	0.000	0	0	0.000	Linear	0.000000e+00	0.000000e+00	0.000000e+00	0.000000e+00	0	0	0.000	0.000
5	Carbon Monoxide	0.000	0	0	0.000	Linear	0.000000e+00	0.000000e+00	0.000000e+00	0.000000e+00	0	0	0.000	0.000

[Compound Results(Ch3)]
# of IDs	2
ID#	Name	R.Time	Area	Height	Conc.	Curve	3rd	2nd	1st	Constant	Area Ratio	Height Ratio	Conc. %	Norm Conc.
1	N2O	2.880	38130	5525	1.000	Linear	0.000000e+00	0.000000e+00	3.812951e+004	0.000000e+00	0	0	100.000	100.000
2	SF6	0.000	0	0	0.000	Linear	0.000000e+00	0.000000e+00	0.000000e+00	0.000000e+00	0	0	0.000	0.000

[Group Results(Ch1)]
# of Groups	0

[Group Results(Ch2)]
# of Groups	0

[Group Results(Ch3)]
# of Groups	0

[Chromatogram (Ch1)]
Interval(msec)	220
# of Points	1091
Start Time(min)	0.002
End Time(min)	3.998
R.Time (min)	Intensity
0.00167	12
0.00533	9
0.00900	9
0.01267	11
0.01633	16
0.02000	22
0.02367	25
0.02733	24
0.03100	19
0.03467	13
0.03833	10
0.04200	7
0.04567	1
0.04933	-4
0.05300	-5
0.05667	-3
0.06033	-1
0.06400	-2
0.06767	-2
0.07133	-2
0.07500	-1
0.07867	1
0.08233	0
0.08600	-5
0.08967	-14
0.09333	-19
0.09700	-18
0.10067	-11
0.10433	-4
0.10800	1
0.11167	-0
0.11533	-2
0.11900	-1
0.12267	2
0.12633	1
0.13000	-6
0.13367	-11
0.13733	-10
0.14100	-4
0.14467	1
0.14833	3
0.15200	4
0.15567	2
0.15933	-2
0.16300	-5
0.16667	-7
0.17033	-8
0.17400	-6
0.17767	0
0.18133	4
0.18500	3
0.18867	0
0.19233	-2
0.19600	-4
0.19967	-5
0.20333	-4
0.20700	-4
0.21067	-4
0.21433	-1
0.21800	1
0.22167	2
0.22533	0
0.22900	-3
0.23267	-5
0.23633	-6
0.24000	-4
0.24367	-3
0.24733	1
0.25100	7
0.25467	13
0.25833	17
0.26200	19
0.26567	16
0.26933	9
0.27300	1
0.27667	-7
0.28033	-9
0.28400	-7
0.28767	-1
0.29133	5
0.29500	12
0.29867	15
0.30233	16
0.30600	14
0.30967	10
0.31333	4
0.31700	1
0.32067	-2
0.32433	-6
0.32800	-10
0.33167	-11
0.33533	-9
0.33900	-6
0.34267	-4
0.34633	-4
0.35000	-5
0.35367	-3
0.35733	3
0.36100	9
0.36467	14
0.36833	21
0.37200	25
0.37567	25
0.37933	23
0.38300	18
0.38667	11
0.39033	5
0.39400	2
0.39767	0
0.40133	1
0.40500	2
0.40867	4
0.41233	6
0.41600	7
0.41967	8
0.42333	3
0.42700	-4
0.43067	-9
0.43433	-14
0.43800	-18
0.44167	-17
0.44533	-11
0.44900	-4
0.45267	0
0.45633	3
0.46000	6
0.46367	13
0.46733	21
0.47100	24
0.47467	21
0.47833	15
0.48200	8
0.48567	0
0.48933	-5
0.49300	-4
0.49667	-0
0.50033	-0
0.50400	-3
0.50767	-5
0.51133	-3
0.51500	-0
0.51867	5
0.52233	11
0.52600	15
0.52967	17
0.53333	18
0.53700	19
0.54067	19
0.54433	17
0.54800	14
0.55167	13
0.55533	15
0.55900	17
0.56267	16
0.56633	15
0.57000	11
0.57367	4
0.57733	3
0.58100	2
0.58467	2
0.58833	3
0.59200	3
0.59567	3
0.59933	1
0.60300	-1
0.60667	3
0.61033	6
0.61400	6
0.61767	4
0.62133	-0
0.62500	-6
0.62867	-8
0.63233	-6
0.63600	-1
0.63967	2
0.64333	2
0.64700	-2
0.65067	-5
0.65433	-7
0.65800	-10
0.66167	-11
0.66533	-8
0.66900	-2
0.67267	3
0.67633	6
0.68000	7
0.68367	6
0.68733	4
0.69100	4
0.69467	3
0.69833	4
0.70200	2
0.70567	-2
0.70933	-7
0.71300	-10
0.71667	-10
0.72033	-8
0.72400	-4
0.72767	2
0.73133	4
0.73500	3
0.73867	1
0.74233	-1
0.74600	-2
0.74967	-2
0.75333	4
0.75700	8
0.76067	4
0.76433	-2
0.76800	-5
0.77167	-6
0.77533	-5
0.77900	-3
0.78267	-1
0.78633	-1
0.79000	-1
0.79367	-2
0.79733	-3
0.80100	-5
0.80467	-8
0.80833	-8
0.81200	-5
0.81567	-1
0.81933	-0
0.82300	-16
0.82667	-24
0.83033	-9
0.83400	-1
0.83767	1
0.84133	1
0.84500	0
0.84867	-4
0.85233	-7
0.85600	-10
0.85967	-13
0.86333	-13
0.86700	-9
0.87067	-2
0.87433	2
0.87800	6
0.88167	9
0.88533	10
0.88900	11
0.89267	11
0.89633	8
0.90000	4
0.90367	2
0.90733	0
0.91100	-2
0.91467	-4
0.91833	-5
0.92200	1
0.92567	11
0.92933	19
0.93300	18
0.93667	13
0.94033	9
0.94400	7
0.94767	5
0.95133	1
0.95500	-5
0.95867	-8
0.96233	-11
0.96600	-15
0.96967	-16
0.97333	-11
0.97700	-4
0.98067	3
0.98433	5
0.98800	4
0.99167	1
0.99533	-3
0.99900	-4
1.00267	-6
1.00633	-8
1.01000	-6
1.01367	-1
1.01733	4
1.02100	7
1.02467	7
1.02833	3
1.03200	-2
1.03567	-4
1.03933	-1
1.04300	2
1.04667	2
1.05033	1
1.05400	-1
1.05767	-2
1.06133	-3
1.06500	-1
1.06867	3
1.07233	6
1.07600	8
1.07967	11
1.08333	16
1.08700	20
1.09067	20
1.09433	15
1.09800	5
1.10167	-5
1.10533	-10
1.10900	-13
1.11267	-15
1.11633	-17
1.12000	-18
1.12367	-18
1.12733	-18
1.13100	-17
1.13467	-17
1.13833	-15
1.14200	-9
1.14567	-1
1.14933	4
1.15300	5
1.15667	2
1.16033	-1
1.16400	-3
1.16767	-3
1.17133	-7
1.17500	-12
1.17867	-15
1.18233	-17
1.18600	-15
1.18967	-9
1.19333	-5
1.19700	-7
1.20067	-11
1.20433	-14
1.20800	-15
1.21167	-11
1.21533	-6
1.21900	-5
1.22267	-8
1.22633	-12
1.23000	-13
1.23367	-12
1.23733	-9
1.24100	-6
1.24467	-5
1.24833	-8
1.25200	-13
1.25567	-15
1.25933	-16
1.26300	-15
1.26667	-13
1.27033	-10
1.27400	-7
1.27767	-2
1.28133	5
1.28500	12
1.28867	13
1.29233	12
1.29600	10
1.29967	8
1.30333	4
1.30700	-1
1.31067	-7
1.31433	-12
1.31800	-14
1.32167	-10
1.32533	-0
1.32900	8
1.33267	12
1.33633	12
1.34000	11
1.34367	11
1.34733	12
1.35100	11
1.35467	6
1.35833	1
1.36200	-2
1.36567	-3
1.36933	-7
1.37300	-13
1.37667	-18
1.38033	-19
1.38400	-17
1.38767	-14
1.39133	-10
1.39500	-8
1.39867	-5
1.40233	-2
1.40600	-2
1.40967	-7
1.41333	-14
1.41700	-21
1.42067	-24
1.42433	-26
1.42800	-21
1.43167	-14
1.43533	-1
1.43900	47
1.44267	229
1.44633	631
1.45000	1211
1.45367	1952
1.45733	2817
1.46100	3678
1.46467	4397
1.46833	4901
1.47200	5165
1.47567	5171
1.47933	4902
1.48300	4381
1.48667	3691
1.49033	2953
1.49400	2270
1.49767	1697
1.50133	1248
1.50500	911
1.50867	666
1.51233	487
1.51600	357
1.51967	264
1.52333	200
1.52700	155
1.53067	120
1.53433	94
1.53800	91
1.54167	144
1.54533	310
1.54900	612
1.55267	1002
1.55633	1395
1.56000	1725
1.56367	1961
1.56733	2075
1.57100	2039
1.57467	1846
1.57833	1540
1.58200	1194
1.58567	873
1.58933	612
1.59300	418
1.59667	281
1.60033	186
1.60400	120
1.60767	73
1.61133	40
1.61500	19
1.61867	7
1.62233	3
1.62600	4
1.62967	6
1.63333	5
1.63700	4
1.64067	2
1.64433	0
1.64800	-3
1.65167	-7
1.65533	-10
1.65900	-12
1.66267	-14
1.66633	-15
1.67000	-16
1.67367	-14
1.67733	-12
1.68100	-13
1.68467	-13
1.68833	-9
1.69200	-1
1.69567	9
1.69933	16
1.70300	18
1.70667	16
1.71033	11
1.71400	4
1.71767	-4
1.72133	-17
1.72500	-26
1.72867	-31
1.73233	-34
1.73600	-32
1.73967	-26
1.74333	-20
1.74700	-17
1.75067	-17
1.75433	-16
1.75800	-14
1.76167	-12
1.76533	-14
1.76900	-18
1.77267	-18
1.77633	-13
1.78000	-7
1.78367	-3
1.78733	1
1.79100	1
1.79467	0
1.79833	-0
1.80200	1
1.80567	4
1.80933	10
1.81300	15
1.81667	16
1.82033	11
1.82400	3
1.82767	-7
1.83133	-18
1.83500	-27
1.83867	-31
1.84233	-28
1.84600	-21
1.84967	-14
1.85333	-8
1.85700	-4
1.86067	-2
1.86433	-4
1.86800	-3
1.87167	2
1.87533	8
1.87900	12
1.88267	13
1.88633	14
1.89000	13
1.89367	10
1.89733	7
1.90100	1
1.90467	-5
1.90833	-8
1.91200	-8
1.91567	-7
1.91933	-4
1.92300	-2
1.92667	-3
1.93033	-5
1.93400	-4
1.93767	-2
1.94133	0
1.94500	3
1.94867	12
1.95233	51
1.95600	323
1.95967	1945
1.96333	9411
1.96700	35427
1.97067	104574
1.97433	245071
1.97800	465491
1.98167	739107
1.98533	1014908
1.98900	1242287
1.99267	1384559
1.99633	1423889
2.00000	1361222
2.00367	1214712
2.00733	1016133
2.01100	801917
2.01467	602180
2.01833	434637
2.02200	304724
2.02567	209593
2.02933	142701
2.03300	96948
2.03667	66201
2.04033	45733
2.04400	32146
2.04767	23098
2.05133	17017
2.05500	12873
2.05867	10004
2.06233	7978
2.06600	6516
2.06967	5439
2.07333	4627
2.07700	3999
2.08067	3502
2.08433	3102
2.08800	2778
2.09167	2515
2.09533	2298
2.09900	2113
2.10267	1954
2.10633	1819
2.11000	1698
2.11367	1587
2.11733	1490
2.12100	1409
2.12467	1337
2.12833	1270
2.13200	1210
2.13567	1153
2.13933	1104
2.14300	1060
2.14667	1015
2.15033	970
2.15400	926
2.15767	883
2.16133	845
2.16500	812
2.16867	783
2.17233	757
2.17600	732
2.17967	712
2.18333	694
2.18700	674
2.19067	654
2.19433	635
2.19800	617
2.20167	599
2.20533	582
2.20900	567
2.21267	556
2.21633	552
2.22000	548
2.22367	540
2.22733	529
2.23100	519
2.23467	509
2.23833	498
2.24200	486
2.24567	473
2.24933	463
2.25300	456
2.25667	450
2.26033	447
2.26400	445
2.26767	440
2.27133	430
2.27500	421
2.27867	416
2.28233	412
2.28600	407
2.28967	401
2.29333	392
2.29700	381
2.30067	373
2.30433	368
2.30800	363
2.31167	359
2.31533	356
2.31900	354
2.32267	353
2.32633	348
2.33000	342
2.33367	339
2.33733	337
2.34100	334
2.34467	331
2.34833	327
2.35200	322
2.35567	315
2.35933	308
2.36300	303
2.36667	301
2.37033	303
2.37400	305
2.37767	308
2.38133	308
2.38500	308
2.38867	308
2.39233	306
2.39600	305
2.39967	304
2.40333	304
2.40700	304
2.41067	302
2.41433	302
2.41800	307
2.42167	312
2.42533	316
2.42900	319
2.43267	318
2.43633	310
2.44000	303
2.44367	297
2.44733	292
2.45100	290
2.45467	289
2.45833	290
2.46200	290
2.46567	286
2.46933	281
2.47300	276
2.47667	271
2.48033	268
2.48400	266
2.48767	266
2.49133	267
2.49500	269
2.49867	268
2.50233	264
2.50600	262
2.50967	264
2.51333	268
2.51700	272
2.52067	273
2.52433	269
2.52800	264
2.53167	258
2.53533	253
2.53900	250
2.54267	249
2.54633	249
2.55000	249
2.55367	251
2.55733	257
2.56100	264
2.56467	267
2.56833	263
2.57200	258
2.57567	258
2.57933	256
2.58300	248
2.58667	241
2.59033	237
2.59400	234
2.59767	235
2.60133	239
2.60500	244
2.60867	247
2.61233	246
2.61600	242
2.61967	238
2.62333	237
2.62700	238
2.63067	238
2.63433	236
2.63800	234
2.64167	234
2.64533	232
2.64900	232
2.65267	233
2.65633	235
2.66000	237
2.66367	237
2.66733	236
2.67100	237
2.67467	240
2.67833	242
2.68200	246
2.68567	248
2.68933	246
2.69300	242
2.69667	239
2.70033	234
2.70400	229
2.70767	221
2.71133	211
2.71500	201
2.71867	192
2.72233	186
2.72600	184
2.72967	185
2.73333	188
2.73700	191
2.74067	193
2.74433	192
2.74800	192
2.75167	195
2.75533	201
2.75900	204
2.76267	203
2.76633	201
2.77000	203
2.77367	207
2.77733	211
2.78100	215
2.78467	218
2.78833	221
2.79200	226
2.79567	230
2.79933	236
2.80300	243
2.80667	246
2.81033	242
2.81400	234
2.81767	226
2.82133	221
2.82500	217
2.82867	215
2.83233	217
2.83600	219
2.83967	219
2.84333	217
2.84700	215
2.85067	214
2.85433	214
2.85800	214
2.86167	215
2.86533	218
2.86900	222
2.87267	224
2.87633	224
2.88000	221
2.88367	221
2.88733	221
2.89100	221
2.89467	219
2.89833	215
2.90200	211
2.90567	208
2.90933	206
2.91300	206
2.91667	208
2.92033	215
2.92400	227
2.92767	238
2.93133	242
2.93500	242
2.93867	237
2.94233	227
2.94600	216
2.94967	210
2.95333	210
2.95700	213
2.96067	218
2.96433	217
2.96800	212
2.97167	207
2.97533	204
2.97900	207
2.98267	213
2.98633	220
2.99000	228
2.99367	231
2.99733	228
3.00100	227
3.00467	234
3.00833	242
3.01200	243
3.01567	240
3.01933	238
3.02300	235
3.02667	232
3.03033	231
3.03400	232
3.03767	232
3.04133	230
3.04500	227
3.04867	223
3.05233	223
3.05600	221
3.05967	217
3.06333	214
3.06700	212
3.07067	208
3.07433	203
3.07800	200
3.08167	198
3.08533	200
3.08900	204
3.09267	205
3.09633	207
3.10000	208
3.10367	209
3.10733	211
3.11100	215
3.11467	219
3.11833	223
3.12200	224
3.12567	221
3.12933	216
3.13300	212
3.13667	207
3.14033	203
3.14400	203
3.14767	207
3.15133	212
3.15500	217
3.15867	223
3.16233	231
3.16600	236
3.16967	236
3.17333	233
3.17700	230
3.18067	229
3.18433	226
3.18800	220
3.19167	217
3.19533	220
3.19900	228
3.20267	237
3.20633	246
3.21000	250
3.21367	249
3.21733	239
3.22100	223
3.22467	207
3.22833	200
3.23200	199
3.23567	203
3.23933	210
3.24300	221
3.24667	229
3.25033	232
3.25400	229
3.25767	225
3.26133	222
3.26500	222
3.26867	225
3.27233	229
3.27600	234
3.27967	238
3.28333	238
3.28700	237
3.29067	234
3.29433	230
3.29800	226
3.30167	222
3.30533	217
3.30900	210
3.31267	204
3.31633	203
3.32000	206
3.32367	213
3.32733	223
3.33100	234
3.33467	241
3.33833	241
3.34200	235
3.34567	228
3.34933	224
3.35300	224
3.35667	224
3.36033	220
3.36400	216
3.36767	213
3.37133	209
3.37500	204
3.37867	201
3.38233	202
3.38600	205
3.38967	207
3.39333	208
3.39700	215
3.40067	221
3.40433	223
3.40800	224
3.41167	226
3.41533	229
3.41900	229
3.42267	225
3.42633	222
3.43000	220
3.43367	219
3.43733	218
3.44100	218
3.44467	216
3.44833	214
3.45200	216
3.45567	221
3.45933	227
3.46300	230
3.46667	232
3.47033	235
3.47400	236
3.47767	237
3.48133	241
3.48500	246
3.48867	250
3.49233	252
3.49600	256
3.49967	261
3.50333	264
3.50700	262
3.51067	255
3.51433	247
3.51800	242
3.52167	243
3.52533	246
3.52900	247
3.53267	246
3.53633	243
3.54000	240
3.54367	236
3.54733	230
3.55100	228
3.55467	227
3.55833	223
3.56200	220
3.56567	223
3.56933	229
3.57300	235
3.57667	237
3.58033	238
3.58400	237
3.58767	236
3.59133	233
3.59500	229
3.59867	226
3.60233	227
3.60600	230
3.60967	232
3.61333	232
3.61700	231
3.62067	228
3.62433	223
3.62800	220
3.63167	219
3.63533	219
3.63900	222
3.64267	224
3.64633	225
3.65000	222
3.65367	219
3.65733	220
3.66100	224
3.66467	229
3.66833	231
3.67200	229
3.67567	224
3.67933	217
3.68300	210
3.68667	206
3.69033	207
3.69400	211
3.69767	213
3.70133	210
3.70500	208
3.70867	208
3.71233	210
3.71600	213
3.71967	218
3.72333	223
3.72700	225
3.73067	229
3.73433	232
3.73800	232
3.74167	230
3.74533	226
3.74900	225
3.75267	224
3.75633	222
3.76000	220
3.76367	224
3.76733	227
3.77100	231
3.77467	230
3.77833	227
3.78200	221
3.78567	218
3.78933	218
3.79300	220
3.79667	219
3.80033	220
3.80400	222
3.80767	224
3.81133	224
3.81500	222
3.81867	221
3.82233	221
3.82600	220
3.82967	218
3.83333	219
3.83700	223
3.84067	230
3.84433	235
3.84800	236
3.85167	230
3.85533	223
3.85900	216
3.86267	211
3.86633	207
3.87000	208
3.87367	209
3.87733	211
3.88100	215
3.88467	221
3.88833	227
3.89200	234
3.89567	237
3.89933	239
3.90300	239
3.90667	237
3.91033	234
3.91400	232
3.91767	233
3.92133	232
3.92500	228
3.92867	222
3.93233	221
3.93600	225
3.93967	235
3.94333	246
3.94700	253
3.95067	258
3.95433	260
3.95800	256
3.96167	251
3.96533	245
3.96900	239
3.97267	233
3.97633	228
3.98000	227
3.98367	234
3.98733	240
3.99100	241
3.99467	240
3.99833	242

[Chromatogram (Ch2)]
Interval(msec)	220
# of Points	1091
Start Time(min)	0.002
End Time(min)	3.998
R.Time (min)	Intensity
0.00167	-0
0.00533	-0
0.00900	-1
0.01267	-1
0.01633	-1
0.02000	-1
0.02367	-1
0.02733	-2
0.03100	-2
0.03467	-2
0.03833	-2
0.04200	-2
0.04567	-3
0.04933	-3
0.05300	-3
0.05667	-3
0.06033	-2
0.06400	-2
0.06767	-2
0.07133	-2
0.07500	-2
0.07867	-2
0.08233	-2
0.08600	-2
0.08967	-1
0.09333	-1
0.09700	-1
0.10067	-1
0.10433	-1
0.10800	-1
0.11167	-1
0.11533	-1
0.11900	-1
0.12267	-1
0.12633	-1
0.13000	-1
0.13367	-1
0.13733	-1
0.14100	-1
0.14467	-1
0.14833	-1
0.15200	-1
0.15567	-1
0.15933	-1
0.16300	-1
0.16667	-1
0.17033	-1
0.17400	-1
0.17767	-1
0.18133	-1
0.18500	-1
0.18867	-0
0.19233	-0
0.19600	-0
0.19967	-0
0.20333	-0
0.20700	-0
0.21067	-0
0.21433	-0
0.21800	-0
0.22167	-1
0.22533	-1
0.22900	-1
0.23267	-1
0.23633	-1
0.24000	-1
0.24367	-2
0.24733	-2
0.25100	-2
0.25467	-2
0.25833	-2
0.26200	-2
0.26567	-3
0.26933	-3
0.27300	-3
0.27667	-3
0.28033	-4
0.28400	-4
0.28767	-4
0.29133	-4
0.29500	-4
0.29867	-5
0.30233	-5
0.30600	-5
0.30967	-5
0.31333	-5
0.31700	-5
0.32067	-4
0.32433	-4
0.32800	-4
0.33167	-4
0.33533	-4
0.33900	-4
0.34267	-3
0.34633	-3
0.35000	-3
0.35367	-3
0.35733	-3
0.36100	-3
0.36467	-2
0.36833	-2
0.37200	-2
0.37567	-1
0.37933	-1
0.38300	-1
0.38667	-1
0.39033	-1
0.39400	-1
0.39767	-1
0.40133	-1
0.40500	-1
0.40867	-1
0.41233	-1
0.41600	-1
0.41967	-1
0.42333	-2
0.42700	-2
0.43067	-2
0.43433	-1
0.43800	-1
0.44167	-1
0.44533	-1
0.44900	-1
0.45267	-1
0.45633	-1
0.46000	-1
0.46367	-1
0.46733	-1
0.47100	-1
0.47467	-1
0.47833	-1
0.48200	-0
0.48567	-0
0.48933	-0
0.49300	-0
0.49667	-0
0.50033	-1
0.50400	-1
0.50767	-1
0.51133	-1
0.51500	-1
0.51867	-1
0.52233	-1
0.52600	-1
0.52967	-0
0.53333	-0
0.53700	-0
0.54067	-0
0.54433	-0
0.54800	-0
0.55167	-0
0.55533	-0
0.55900	-1
0.56267	-1
0.56633	-1
0.57000	-2
0.57367	-2
0.57733	-2
0.58100	-2
0.58467	-2
0.58833	-2
0.59200	-2
0.59567	-3
0.59933	-3
0.60300	-3
0.60667	-3
0.61033	-3
0.61400	-3
0.61767	-3
0.62133	-3
0.62500	-3
0.62867	-3
0.63233	-3
0.63600	-3
0.63967	-3
0.64333	-3
0.64700	-3
0.65067	-3
0.65433	-3
0.65800	-3
0.66167	-3
0.66533	-3
0.66900	-3
0.67267	-3
0.67633	-3
0.68000	-3
0.68367	-2
0.68733	-2
0.69100	-2
0.69467	-3
0.69833	-3
0.70200	-3
0.70567	-3
0.70933	-3
0.71300	-3
0.71667	-3
0.72033	-2
0.72400	-2
0.72767	-2
0.73133	-2
0.73500	-2
0.73867	-3
0.74233	-3
0.74600	-3
0.74967	-3
0.75333	-4
0.75700	-4
0.76067	-4
0.76433	-4
0.76800	-4
0.77167	-4
0.77533	-3
0.77900	-3
0.78267	-3
0.78633	-2
0.79000	-2
0.79367	-2
0.79733	-1
0.80100	-1
0.80467	-1
0.80833	-1
0.81200	-1
0.81567	-1
0.81933	-1
0.82300	-1
0.82667	-2
0.83033	-2
0.83400	-2
0.83767	-2
0.84133	-2
0.84500	-2
0.84867	-3
0.85233	-3
0.85600	-3
0.85967	-3
0.86333	-3
0.86700	-3
0.87067	-3
0.87433	-3
0.87800	-3
0.88167	-3
0.88533	-3
0.88900	-2
0.89267	-2
0.89633	-2
0.90000	-2
0.90367	-2
0.90733	-2
0.91100	-2
0.91467	-2
0.91833	-2
0.92200	-2
0.92567	-2
0.92933	-2
0.93300	-2
0.93667	-2
0.94033	-2
0.94400	-2
0.94767	-2
0.95133	-1
0.95500	-1
0.95867	-1
0.96233	-1
0.96600	-1
0.96967	-1
0.97333	-2
0.97700	-2
0.98067	-2
0.98433	-2
0.98800	-2
0.99167	-2
0.99533	-2
0.99900	-1
1.00267	-1
1.00633	-1
1.01000	-1
1.01367	-1
1.01733	-1
1.02100	-1
1.02467	-1
1.02833	-1
1.03200	-1
1.03567	-1
1.03933	-1
1.04300	-1
1.04667	-1
1.05033	-1
1.05400	-2
1.05767	-2
1.06133	-2
1.06500	-2
1.06867	-2
1.07233	-2
1.07600	-2
1.07967	-2
1.08333	-2
1.08700	-3
1.09067	-3
1.09433	-3
1.09800	-4
1.10167	-4
1.10533	-5
1.10900	-5
1.11267	-5
1.11633	-5
1.12000	-5
1.12367	-5
1.12733	-4
1.13100	-4
1.13467	-4
1.13833	-3
1.14200	-3
1.14567	-3
1.14933	-3
1.15300	-3
1.15667	-3
1.16033	-3
1.16400	-3
1.16767	-3
1.17133	-2
1.17500	-2
1.17867	-2
1.18233	-1
1.18600	-1
1.18967	-1
1.19333	-1
1.19700	-0
1.20067	-0
1.20433	-0
1.20800	-0
1.21167	-0
1.21533	-0
1.21900	-1
1.22267	-1
1.22633	-1
1.23000	-1
1.23367	-1
1.23733	-1
1.24100	-1
1.24467	-2
1.24833	-2
1.25200	-2
1.25567	-2
1.25933	-2
1.26300	-2
1.26667	-2
1.27033	-2
1.27400	-2
1.27767	-3
1.28133	-3
1.28500	-3
1.28867	-4
1.29233	-4
1.29600	-4
1.29967	-5
1.30333	-5
1.30700	-5
1.31067	-5
1.31433	-5
1.31800	-5
1.32167	-5
1.32533	-4
1.32900	-4
1.33267	-4
1.33633	-3
1.34000	-3
1.34367	-3
1.34733	-3
1.35100	-2
1.35467	-2
1.35833	-2
1.36200	-2
1.36567	-2
1.36933	-2
1.37300	-2
1.37667	-2
1.38033	-2
1.38400	-2
1.38767	-2
1.39133	-2
1.39500	-2
1.39867	-2
1.40233	-2
1.40600	-1
1.40967	-1
1.41333	-1
1.41700	-1
1.42067	-1
1.42433	-1
1.42800	-1
1.43167	-1
1.43533	-2
1.43900	-2
1.44267	-3
1.44633	-3
1.45000	-4
1.45367	-4
1.45733	-4
1.46100	-3
1.46467	-3
1.46833	-3
1.47200	-2
1.47567	-2
1.47933	-2
1.48300	-2
1.48667	-2
1.49033	-2
1.49400	-3
1.49767	-3
1.50133	-3
1.50500	-3
1.50867	-3
1.51233	-3
1.51600	-3
1.51967	-3
1.52333	-3
1.52700	-3
1.53067	-3
1.53433	-3
1.53800	-3
1.54167	-2
1.54533	-2
1.54900	-2
1.55267	-2
1.55633	-2
1.56000	-2
1.56367	-2
1.56733	-2
1.57100	-2
1.57467	-2
1.57833	-1
1.58200	-1
1.58567	-1
1.58933	-1
1.59300	-1
1.59667	-2
1.60033	-2
1.60400	-3
1.60767	-5
1.61133	-6
1.61500	-8
1.61867	-10
1.62233	-12
1.62600	-15
1.62967	-18
1.63333	-20
1.63700	-23
1.64067	-27
1.64433	-30
1.64800	-33
1.65167	-37
1.65533	-40
1.65900	-43
1.66267	-47
1.66633	-50
1.67000	-54
1.67367	-59
1.67733	-63
1.68100	-68
1.68467	-73
1.68833	-77
1.69200	-82
1.69567	-86
1.69933	-89
1.70300	-92
1.70667	-95
1.71033	-98
1.71400	-100
1.71767	-103
1.72133	-104
1.72500	-106
1.72867	-107
1.73233	-108
1.73600	-109
1.73967	-110
1.74333	-111
1.74700	-112
1.75067	-113
1.75433	-114
1.75800	-115
1.76167	-115
1.76533	-116
1.76900	-116
1.77267	-116
1.77633	-117
1.78000	-117
1.78367	-117
1.78733	-117
1.79100	-116
1.79467	-116
1.79833	-115
1.80200	-115
1.80567	-115
1.80933	-115
1.81300	-115
1.81667	-116
1.82033	-116
1.82400	-117
1.82767	-117
1.83133	-118
1.83500	-118
1.83867	-119
1.84233	-119
1.84600	-119
1.84967	-119
1.85333	-119
1.85700	-119
1.86067	-119
1.86433	-119
1.86800	-120
1.87167	-120
1.87533	-119
1.87900	-119
1.88267	-118
1.88633	-118
1.89000	-117
1.89367	-116
1.89733	-116
1.90100	-116
1.90467	-116
1.90833	-116
1.91200	-116
1.91567	-116
1.91933	-116
1.92300	-116
1.92667	-116
1.93033	-115
1.93400	-115
1.93767	-115
1.94133	-115
1.94500	-115
1.94867	-115
1.95233	-116
1.95600	-117
1.95967	-117
1.96333	-117
1.96700	-116
1.97067	-116
1.97433	-115
1.97800	-115
1.98167	-114
1.98533	-114
1.98900	-114
1.99267	-114
1.99633	-113
2.00000	-113
2.00367	-112
2.00733	-111
2.01100	-110
2.01467	-109
2.01833	-109
2.02200	-108
2.02567	-107
2.02933	-107
2.03300	-107
2.03667	-107
2.04033	-106
2.04400	-106
2.04767	-106
2.05133	-106
2.05500	-106
2.05867	-107
2.06233	-107
2.06600	-107
2.06967	-108
2.07333	-108
2.07700	-108
2.08067	-107
2.08433	-106
2.08800	-105
2.09167	-104
2.09533	-103
2.09900	-103
2.10267	-102
2.10633	-101
2.11000	-101
2.11367	-100
2.11733	-100
2.12100	-100
2.12467	-100
2.12833	-100
2.13200	-100
2.13567	-101
2.13933	-101
2.14300	-100
2.14667	-100
2.15033	-100
2.15400	-99
2.15767	-98
2.16133	-98
2.16500	-98
2.16867	-97
2.17233	-97
2.17600	-97
2.17967	-96
2.18333	-96
2.18700	-96
2.19067	-96
2.19433	-95
2.19800	-95
2.20167	-95
2.20533	-95
2.20900	-94
2.21267	-94
2.21633	-94
2.22000	-93
2.22367	-93
2.22733	-93
2.23100	-92
2.23467	-92
2.23833	-92
2.24200	-92
2.24567	-92
2.24933	-92
2.25300	-92
2.25667	-91
2.26033	-91
2.26400	-90
2.26767	-90
2.27133	-90
2.27500	-89
2.27867	-89
2.28233	-89
2.28600	-88
2.28967	-88
2.29333	-87
2.29700	-87
2.30067	-86
2.30433	-85
2.30800	-85
2.31167	-84
2.31533	-84
2.31900	-83
2.32267	-83
2.32633	-83
2.33000	-82
2.33367	-82
2.33733	-82
2.34100	-82
2.34467	-82
2.34833	-81
2.35200	-81
2.35567	-80
2.35933	-80
2.36300	-80
2.36667	-79
2.37033	-78
2.37400	-77
2.37767	-75
2.38133	-72
2.38500	-69
2.38867	-65
2.39233	-61
2.39600	-56
2.39967	-52
2.40333	-47
2.40700	-42
2.41067	-38
2.41433	-34
2.41800	-31
2.42167	-28
2.42533	-25
2.42900	-23
2.43267	-21
2.43633	-18
2.44000	-16
2.44367	-14
2.44733	-12
2.45100	-10
2.45467	-8
2.45833	-6
2.46200	-4
2.46567	-2
2.46933	-0
2.47300	1
2.47667	3
2.48033	4
2.48400	5
2.48767	6
2.49133	6
2.49500	7
2.49867	8
2.50233	8
2.50600	9
2.50967	9
2.51333	10
2.51700	10
2.52067	11
2.52433	12
2.52800	12
2.53167	13
2.53533	14
2.53900	14
2.54267	15
2.54633	15
2.55000	15
2.55367	15
2.55733	15
2.56100	15
2.56467	15
2.56833	15
2.57200	15
2.57567	16
2.57933	16
2.58300	16
2.58667	17
2.59033	17
2.59400	17
2.59767	18
2.60133	18
2.60500	19
2.60867	19
2.61233	20
2.61600	20
2.61967	21
2.62333	21
2.62700	21
2.63067	21
2.63433	21
2.63800	21
2.64167	21
2.64533	21
2.64900	21
2.65267	21
2.65633	21
2.66000	22
2.66367	22
2.66733	23
2.67100	23
2.67467	23
2.67833	24
2.68200	24
2.68567	24
2.68933	24
2.69300	24
2.69667	25
2.70033	25
2.70400	26
2.70767	26
2.71133	26
2.71500	26
2.71867	25
2.72233	25
2.72600	24
2.72967	24
2.73333	24
2.73700	24
2.74067	24
2.74433	24
2.74800	25
2.75167	25
2.75533	25
2.75900	26
2.76267	26
2.76633	27
2.77000	27
2.77367	28
2.77733	28
2.78100	28
2.78467	28
2.78833	29
2.79200	29
2.79567	29
2.79933	29
2.80300	29
2.80667	29
2.81033	29
2.81400	29
2.81767	30
2.82133	30
2.82500	30
2.82867	29
2.83233	29
2.83600	28
2.83967	27
2.84333	25
2.84700	23
2.85067	19
2.85433	12
2.85800	3
2.86167	-10
2.86533	-26
2.86900	-46
2.87267	-70
2.87633	-98
2.88000	-130
2.88367	-165
2.88733	-204
2.89100	-245
2.89467	-289
2.89833	-335
2.90200	-383
2.90567	-432
2.90933	-481
2.91300	-531
2.91667	-580
2.92033	-630
2.92400	-679
2.92767	-727
2.93133	-775
2.93500	-825
2.93867	-880
2.94233	-941
2.94600	-1001
2.94967	-1049
2.95333	-1076
2.95700	-1077
2.96067	-1052
2.96433	-1005
2.96800	-942
2.97167	-869
2.97533	-790
2.97900	-710
2.98267	-632
2.98633	-557
2.99000	-488
2.99367	-424
2.99733	-367
3.00100	-315
3.00467	-270
3.00833	-230
3.01200	-195
3.01567	-165
3.01933	-139
3.02300	-117
3.02667	-97
3.03033	-80
3.03400	-66
3.03767	-54
3.04133	-44
3.04500	-35
3.04867	-28
3.05233	-21
3.05600	-16
3.05967	-11
3.06333	-7
3.06700	-4
3.07067	-1
3.07433	2
3.07800	4
3.08167	6
3.08533	8
3.08900	10
3.09267	11
3.09633	12
3.10000	13
3.10367	14
3.10733	15
3.11100	15
3.11467	16
3.11833	16
3.12200	17
3.12567	18
3.12933	18
3.13300	19
3.13667	19
3.14033	19
3.14400	20
3.14767	20
3.15133	20
3.15500	20
3.15867	21
3.16233	21
3.16600	21
3.16967	21
3.17333	21
3.17700	21
3.18067	22
3.18433	22
3.18800	22
3.19167	22
3.19533	22
3.19900	22
3.20267	23
3.20633	23
3.21000	23
3.21367	23
3.21733	24
3.22100	24
3.22467	24
3.22833	24
3.23200	24
3.23567	25
3.23933	25
3.24300	25
3.24667	25
3.25033	25
3.25400	26
3.25767	26
3.26133	26
3.26500	26
3.26867	27
3.27233	27
3.27600	27
3.27967	28
3.28333	28
3.28700	28
3.29067	27
3.29433	27
3.29800	27
3.30167	27
3.30533	27
3.30900	27
3.31267	27
3.31633	28
3.32000	28
3.32367	28
3.32733	28
3.33100	28
3.33467	28
3.33833	28
3.34200	28
3.34567	28
3.34933	28
3.35300	28
3.35667	28
3.36033	28
3.36400	28
3.36767	28
3.37133	28
3.37500	29
3.37867	29
3.38233	29
3.38600	29
3.38967	29
3.39333	29
3.39700	29
3.40067	29
3.40433	29
3.40800	29
3.41167	29
3.41533	29
3.41900	29
3.42267	30
3.42633	30
3.43000	30
3.43367	30
3.43733	30
3.44100	31
3.44467	31
3.44833	31
3.45200	32
3.45567	32
3.45933	32
3.46300	32
3.46667	32
3.47033	32
3.47400	32
3.47767	32
3.48133	32
3.48500	32
3.48867	32
3.49233	32
3.49600	32
3.49967	32
3.50333	32
3.50700	32
3.51067	32
3.51433	32
3.51800	32
3.52167	32
3.52533	32
3.52900	32
3.53267	32
3.53633	32
3.54000	32
3.54367	31
3.54733	31
3.55100	31
3.55467	31
3.55833	31
3.56200	30
3.56567	30
3.56933	30
3.57300	30
3.57667	30
3.58033	30
3.58400	30
3.58767	30
3.59133	29
3.59500	29
3.59867	29
3.60233	29
3.60600	29
3.60967	29
3.61333	29
3.61700	29
3.62067	29
3.62433	29
3.62800	29
3.63167	29
3.63533	29
3.63900	29
3.64267	29
3.64633	29
3.65000	29
3.65367	29
3.65733	29
3.66100	29
3.66467	30
3.66833	30
3.67200	30
3.67567	30
3.67933	30
3.68300	29
3.68667	29
3.69033	29
3.69400	29
3.69767	29
3.70133	29
3.70500	29
3.70867	29
3.71233	29
3.71600	29
3.71967	29
3.72333	29
3.72700	29
3.73067	30
3.73433	30
3.73800	30
3.74167	31
3.74533	31
3.74900	31
3.75267	31
3.75633	31
3.76000	31
3.76367	32
3.76733	32
3.77100	32
3.77467	31
3.77833	31
3.78200	31
3.78567	31
3.78933	31
3.79300	31
3.79667	31
3.80033	31
3.80400	31
3.80767	31
3.81133	31
3.81500	31
3.81867	31
3.82233	31
3.82600	31
3.82967	31
3.83333	30
3.83700	30
3.84067	30
3.84433	30
3.84800	30
3.85167	30
3.85533	30
3.85900	30
3.86267	31
3.86633	31
3.87000	31
3.87367	31
3.87733	31
3.88100	32
3.88467	32
3.88833	32
3.89200	32
3.89567	32
3.89933	31
3.90300	31
3.90667	31
3.91033	31
3.91400	31
3.91767	31
3.92133	31
3.92500	31
3.92867	31
3.93233	30
3.93600	30
3.93967	30
3.94333	30
3.94700	30
3.95067	30
3.95433	30
3.95800	30
3.96167	30
3.96533	30
3.96900	30
3.97267	30
3.97633	30
3.98000	30
3.98367	30
3.98733	30
3.99100	30
3.99467	30
3.99833	30

[Chromatogram (Ch3)]
Interval(msec)	220
# of Points	1091
Start Time(min)	0.002
End Time(min)	3.998
R.Time (min)	Intensity
0.00167	-0
0.00533	0
0.00900	1
0.01267	1
0.01633	-1
0.02000	-1
0.02367	-0
0.02733	2
0.03100	4
0.03467	4
0.03833	5
0.04200	5
0.04567	5
0.04933	6
0.05300	5
0.05667	7
0.06033	8
0.06400	8
0.06767	8
0.07133	7
0.07500	4
0.07867	1
0.08233	-1
0.08600	-2
0.08967	-2
0.09333	-0
0.09700	2
0.10067	1
0.10433	0
0.10800	2
0.11167	3
0.11533	4
0.11900	5
0.12267	6
0.12633	8
0.13000	8
0.13367	7
0.13733	6
0.14100	4
0.14467	3
0.14833	3
0.15200	4
0.15567	6
0.15933	8
0.16300	8
0.16667	8
0.17033	8
0.17400	6
0.17767	5
0.18133	5
0.18500	5
0.18867	4
0.19233	4
0.19600	2
0.19967	2
0.20333	2
0.20700	0
0.21067	0
0.21433	-0
0.21800	2
0.22167	2
0.22533	4
0.22900	4
0.23267	3
0.23633	4
0.24000	4
0.24367	3
0.24733	4
0.25100	4
0.25467	3
0.25833	3
0.26200	3
0.26567	4
0.26933	5
0.27300	6
0.27667	5
0.28033	3
0.28400	3
0.28767	4
0.29133	4
0.29500	3
0.29867	4
0.30233	6
0.30600	7
0.30967	6
0.31333	5
0.31700	4
0.32067	5
0.32433	6
0.32800	6
0.33167	5
0.33533	4
0.33900	3
0.34267	2
0.34633	1
0.35000	0
0.35367	-0
0.35733	3
0.36100	4
0.36467	6
0.36833	9
0.37200	9
0.37567	10
0.37933	9
0.38300	8
0.38667	7
0.39033	6
0.39400	5
0.39767	4
0.40133	6
0.40500	8
0.40867	11
0.41233	12
0.41600	9
0.41967	6
0.42333	6
0.42700	6
0.43067	5
0.43433	6
0.43800	6
0.44167	6
0.44533	7
0.44900	6
0.45267	7
0.45633	6
0.46000	7
0.46367	9
0.46733	8
0.47100	8
0.47467	11
0.47833	12
0.48200	11
0.48567	10
0.48933	9
0.49300	7
0.49667	7
0.50033	8
0.50400	6
0.50767	4
0.51133	2
0.51500	0
0.51867	-0
0.52233	0
0.52600	2
0.52967	2
0.53333	2
0.53700	2
0.54067	4
0.54433	7
0.54800	8
0.55167	8
0.55533	7
0.55900	6
0.56267	6
0.56633	8
0.57000	9
0.57367	9
0.57733	9
0.58100	9
0.58467	9
0.58833	8
0.59200	7
0.59567	8
0.59933	8
0.60300	8
0.60667	9
0.61033	9
0.61400	10
0.61767	10
0.62133	9
0.62500	9
0.62867	8
0.63233	10
0.63600	11
0.63967	10
0.64333	9
0.64700	9
0.65067	10
0.65433	8
0.65800	6
0.66167	4
0.66533	1
0.66900	2
0.67267	6
0.67633	8
0.68000	7
0.68367	5
0.68733	5
0.69100	4
0.69467	6
0.69833	7
0.70200	6
0.70567	7
0.70933	10
0.71300	9
0.71667	8
0.72033	6
0.72400	4
0.72767	2
0.73133	1
0.73500	2
0.73867	5
0.74233	6
0.74600	8
0.74967	8
0.75333	8
0.75700	6
0.76067	5
0.76433	6
0.76800	7
0.77167	8
0.77533	7
0.77900	6
0.78267	6
0.78633	7
0.79000	9
0.79367	8
0.79733	8
0.80100	8
0.80467	6
0.80833	4
0.81200	3
0.81567	4
0.81933	4
0.82300	4
0.82667	5
0.83033	6
0.83400	6
0.83767	5
0.84133	2
0.84500	1
0.84867	3
0.85233	3
0.85600	3
0.85967	3
0.86333	5
0.86700	7
0.87067	6
0.87433	5
0.87800	5
0.88167	8
0.88533	12
0.88900	13
0.89267	13
0.89633	13
0.90000	12
0.90367	10
0.90733	9
0.91100	10
0.91467	10
0.91833	11
0.92200	12
0.92567	13
0.92933	13
0.93300	12
0.93667	10
0.94033	8
0.94400	8
0.94767	8
0.95133	10
0.95500	11
0.95867	9
0.96233	7
0.96600	7
0.96967	5
0.97333	5
0.97700	4
0.98067	5
0.98433	7
0.98800	9
0.99167	10
0.99533	9
0.99900	10
1.00267	10
1.00633	10
1.01000	10
1.01367	10
1.01733	8
1.02100	9
1.02467	11
1.02833	10
1.03200	8
1.03567	7
1.03933	8
1.04300	10
1.04667	11
1.05033	12
1.05400	10
1.05767	11
1.06133	9
1.06500	5
1.06867	4
1.07233	6
1.07600	7
1.07967	9
1.08333	8
1.08700	6
1.09067	4
1.09433	6
1.09800	8
1.10167	11
1.10533	15
1.10900	18
1.11267	18
1.11633	15
1.12000	12
1.12367	10
1.12733	9
1.13100	6
1.13467	5
1.13833	7
1.14200	6
1.14567	5
1.14933	4
1.15300	5
1.15667	7
1.16033	8
1.16400	9
1.16767	9
1.17133	9
1.17500	9
1.17867	6
1.18233	3
1.18600	2
1.18967	5
1.19333	6
1.19700	6
1.20067	6
1.20433	5
1.20800	5
1.21167	5
1.21533	5
1.21900	6
1.22267	6
1.22633	8
1.23000	7
1.23367	5
1.23733	5
1.24100	7
1.24467	6
1.24833	6
1.25200	7
1.25567	6
1.25933	6
1.26300	7
1.26667	5
1.27033	5
1.27400	6
1.27767	6
1.28133	5
1.28500	5
1.28867	7
1.29233	10
1.29600	11
1.29967	10
1.30333	8
1.30700	10
1.31067	13
1.31433	11
1.31800	6
1.32167	6
1.32533	6
1.32900	6
1.33267	8
1.33633	8
1.34000	8
1.34367	8
1.34733	8
1.35100	6
1.35467	4
1.35833	3
1.36200	6
1.36567	9
1.36933	10
1.37300	10
1.37667	9
1.38033	7
1.38400	5
1.38767	3
1.39133	4
1.39500	4
1.39867	3
1.40233	1
1.40600	2
1.40967	3
1.41333	5
1.41700	7
1.42067	6
1.42433	5
1.42800	6
1.43167	7
1.43533	7
1.43900	7
1.44267	6
1.44633	3
1.45000	5
1.45367	8
1.45733	9
1.46100	9
1.46467	9
1.46833	9
1.47200	9
1.47567	9
1.47933	8
1.48300	8
1.48667	7
1.49033	6
1.49400	8
1.49767	10
1.50133	11
1.50500	11
1.50867	11
1.51233	9
1.51600	7
1.51967	3
1.52333	-0
1.52700	-2
1.53067	-2
1.53433	0
1.53800	3
1.54167	4
1.54533	4
1.54900	4
1.55267	5
1.55633	5
1.56000	8
1.56367	9
1.56733	9
1.57100	8
1.57467	7
1.57833	7
1.58200	7
1.58567	7
1.58933	7
1.59300	7
1.59667	6
1.60033	5
1.60400	4
1.60767	4
1.61133	4
1.61500	4
1.61867	8
1.62233	10
1.62600	9
1.62967	8
1.63333	6
1.63700	7
1.64067	7
1.64433	7
1.64800	10
1.65167	12
1.65533	12
1.65900	11
1.66267	13
1.66633	15
1.67000	17
1.67367	20
1.67733	20
1.68100	20
1.68467	19
1.68833	19
1.69200	20
1.69567	20
1.69933	21
1.70300	24
1.70667	25
1.71033	28
1.71400	32
1.71767	34
1.72133	35
1.72500	33
1.72867	30
1.73233	29
1.73600	29
1.73967	30
1.74333	34
1.74700	36
1.75067	38
1.75433	37
1.75800	37
1.76167	39
1.76533	41
1.76900	41
1.77267	42
1.77633	44
1.78000	44
1.78367	41
1.78733	41
1.79100	43
1.79467	45
1.79833	46
1.80200	47
1.80567	48
1.80933	49
1.81300	51
1.81667	53
1.82033	54
1.82400	53
1.82767	53
1.83133	52
1.83500	49
1.83867	45
1.84233	46
1.84600	47
1.84967	48
1.85333	51
1.85700	52
1.86067	54
1.86433	56
1.86800	55
1.87167	52
1.87533	50
1.87900	49
1.88267	49
1.88633	50
1.89000	51
1.89367	52
1.89733	52
1.90100	52
1.90467	51
1.90833	51
1.91200	51
1.91567	52
1.91933	53
1.92300	54
1.92667	54
1.93033	52
1.93400	52
1.93767	54
1.94133	57
1.94500	59
1.94867	60
1.95233	59
1.95600	60
1.95967	58
1.96333	58
1.96700	59
1.97067	60
1.97433	62
1.97800	64
1.98167	64
1.98533	67
1.98900	72
1.99267	74
1.99633	75
2.00000	75
2.00367	75
2.00733	74
2.01100	72
2.01467	73
2.01833	76
2.02200	78
2.02567	79
2.02933	81
2.03300	84
2.03667	88
2.04033	89
2.04400	90
2.04767	92
2.05133	93
2.05500	92
2.05867	92
2.06233	91
2.06600	92
2.06967	96
2.07333	98
2.07700	99
2.08067	102
2.08433	105
2.08800	107
2.09167	108
2.09533	109
2.09900	108
2.10267	109
2.10633	111
2.11000	112
2.11367	113
2.11733	113
2.12100	115
2.12467	119
2.12833	125
2.13200	130
2.13567	132
2.13933	132
2.14300	132
2.14667	131
2.15033	131
2.15400	131
2.15767	130
2.16133	132
2.16500	135
2.16867	138
2.17233	142
2.17600	146
2.17967	148
2.18333	148
2.18700	150
2.19067	154
2.19433	158
2.19800	157
2.20167	155
2.20533	159
2.20900	162
2.21267	163
2.21633	164
2.22000	166
2.22367	168
2.22733	168
2.23100	168
2.23467	167
2.23833	170
2.24200	174
2.24567	175
2.24933	175
2.25300	173
2.25667	174
2.26033	176
2.26400	178
2.26767	179
2.27133	182
2.27500	183
2.27867	183
2.28233	183
2.28600	185
2.28967	187
2.29333	188
2.29700	190
2.30067	193
2.30433	196
2.30800	198
2.31167	199
2.31533	200
2.31900	200
2.32267	199
2.32633	200
2.33000	203
2.33367	206
2.33733	210
2.34100	213
2.34467	215
2.34833	216
2.35200	217
2.35567	219
2.35933	222
2.36300	221
2.36667	222
2.37033	225
2.37400	227
2.37767	228
2.38133	230
2.38500	231
2.38867	231
2.39233	231
2.39600	230
2.39967	230
2.40333	231
2.40700	232
2.41067	234
2.41433	236
2.41800	240
2.42167	244
2.42533	248
2.42900	251
2.43267	253
2.43633	253
2.44000	254
2.44367	262
2.44733	282
2.45100	304
2.45467	321
2.45833	326
2.46200	319
2.46567	307
2.46933	296
2.47300	286
2.47667	278
2.48033	274
2.48400	267
2.48767	259
2.49133	251
2.49500	245
2.49867	238
2.50233	232
2.50600	229
2.50967	225
2.51333	221
2.51700	217
2.52067	215
2.52433	215
2.52800	214
2.53167	214
2.53533	209
2.53900	205
2.54267	204
2.54633	202
2.55000	200
2.55367	196
2.55733	190
2.56100	187
2.56467	185
2.56833	184
2.57200	183
2.57567	182
2.57933	182
2.58300	181
2.58667	177
2.59033	172
2.59400	167
2.59767	158
2.60133	141
2.60500	114
2.60867	78
2.61233	35
2.61600	-13
2.61967	-62
2.62333	-110
2.62700	-152
2.63067	-187
2.63433	-216
2.63800	-239
2.64167	-255
2.64533	-264
2.64900	-268
2.65267	-265
2.65633	-258
2.66000	-251
2.66367	-243
2.66733	-231
2.67100	-220
2.67467	-209
2.67833	-199
2.68200	-188
2.68567	-176
2.68933	-165
2.69300	-155
2.69667	-144
2.70033	-132
2.70400	-118
2.70767	-104
2.71133	-91
2.71500	-78
2.71867	-65
2.72233	-51
2.72600	-38
2.72967	-28
2.73333	-20
2.73700	-12
2.74067	-4
2.74433	5
2.74800	15
2.75167	25
2.75533	34
2.75900	40
2.76267	47
2.76633	55
2.77000	61
2.77367	64
2.77733	66
2.78100	71
2.78467	79
2.78833	86
2.79200	92
2.79567	98
2.79933	103
2.80300	107
2.80667	108
2.81033	108
2.81400	111
2.81767	117
2.82133	126
2.82500	139
2.82867	163
2.83233	214
2.83600	307
2.83967	468
2.84333	724
2.84700	1088
2.85067	1559
2.85433	2125
2.85800	2753
2.86167	3396
2.86533	3998
2.86900	4518
2.87267	4917
2.87633	5167
2.88000	5261
2.88367	5212
2.88733	5040
2.89100	4780
2.89467	4457
2.89833	4099
2.90200	3726
2.90567	3358
2.90933	3001
2.91300	2667
2.91667	2365
2.92033	2095
2.92400	1851
2.92767	1634
2.93133	1442
2.93500	1275
2.93867	1126
2.94233	995
2.94600	881
2.94967	782
2.95333	699
2.95700	629
2.96067	569
2.96433	515
2.96800	471
2.97167	432
2.97533	400
2.97900	370
2.98267	343
2.98633	317
2.99000	299
2.99367	286
2.99733	276
3.00100	264
3.00467	253
3.00833	244
3.01200	234
3.01567	227
3.01933	221
3.02300	215
3.02667	211
3.03033	208
3.03400	203
3.03767	199
3.04133	194
3.04500	191
3.04867	188
3.05233	188
3.05600	191
3.05967	192
3.06333	192
3.06700	190
3.07067	189
3.07433	188
3.07800	189
3.08167	188
3.08533	185
3.08900	180
3.09267	176
3.09633	175
3.10000	177
3.10367	178
3.10733	178
3.11100	177
3.11467	174
3.11833	171
3.12200	166
3.12567	162
3.12933	161
3.13300	161
3.13667	159
3.14033	158
3.14400	156
3.14767	155
3.15133	156
3.15500	155
3.15867	154
3.16233	155
3.16600	155
3.16967	152
3.17333	151
3.17700	151
3.18067	149
3.18433	149
3.18800	149
3.19167	148
3.19533	146
3.19900	144
3.20267	145
3.20633	144
3.21000	143
3.21367	143
3.21733	144
3.22100	146
3.22467	146
3.22833	143
3.23200	142
3.23567	140
3.23933	137
3.24300	133
3.24667	131
3.25033	128
3.25400	124
3.25767	121
3.26133	120
3.26500	116
3.26867	112
3.27233	108
3.27600	106
3.27967	105
3.28333	105
3.28700	105
3.29067	104
3.29433	101
3.29800	99
3.30167	97
3.30533	94
3.30900	93
3.31267	91
3.31633	87
3.32000	81
3.32367	76
3.32733	73
3.33100	70
3.33467	66
3.33833	64
3.34200	64
3.34567	65
3.34933	65
3.35300	65
3.35667	63
3.36033	59
3.36400	55
3.36767	52
3.37133	48
3.37500	44
3.37867	41
3.38233	37
3.38600	31
3.38967	27
3.39333	23
3.39700	20
3.40067	14
3.40433	11
3.40800	8
3.41167	8
3.41533	8
3.41900	7
3.42267	5
3.42633	-1
3.43000	-7
3.43367	-14
3.43733	-20
3.44100	-21
3.44467	-21
3.44833	-25
3.45200	-31
3.45567	-35
3.45933	-35
3.46300	-36
3.46667	-38
3.47033	-39
3.47400	-42
3.47767	-49
3.48133	-54
3.48500	-57
3.48867	-62
3.49233	-66
3.49600	-69
3.49967	-72
3.50333	-75
3.50700	-78
3.51067	-80
3.51433	-82
3.51800	-86
3.52167	-95
3.52533	-102
3.52900	-105
3.53267	-105
3.53633	-105
3.54000	-106
3.54367	-110
3.54733	-114
3.55100	-116
3.55467	-118
3.55833	-119
3.56200	-122
3.56567	-126
3.56933	-131
3.57300	-135
3.57667	-140
3.58033	-144
3.58400	-146
3.58767	-147
3.59133	-150
3.59500	-152
3.59867	-155
3.60233	-158
3.60600	-160
3.60967	-161
3.61333	-166
3.61700	-172
3.62067	-175
3.62433	-177
3.62800	-180
3.63167	-181
3.63533	-182
3.63900	-181
3.64267	-181
3.64633	-184
3.65000	-190
3.65367	-194
3.65733	-195
3.66100	-196
3.66467	-197
3.66833	-198
3.67200	-199
3.67567	-202
3.67933	-204
3.68300	-204
3.68667	-204
3.69033	-206
3.69400	-208
3.69767	-212
3.70133	-216
3.70500	-218
3.70867	-219
3.71233	-219
3.71600	-219
3.71967	-220
3.72333	-221
3.72700	-222
3.73067	-224
3.73433	-225
3.73800	-229
3.74167	-233
3.74533	-236
3.74900	-236
3.75267	-236
3.75633	-237
3.76000	-240
3.76367	-242
3.76733	-242
3.77100	-242
3.77467	-245
3.77833	-244
3.78200	-245
3.78567	-246
3.78933	-247
3.79300	-247
3.79667	-248
3.80033	-248
3.80400	-249
3.80767	-251
3.81133	-252
3.81500	-257
3.81867	-260
3.82233	-260
3.82600	-260
3.82967	-260
3.83333	-259
3.83700	-259
3.84067	-260
3.84433	-260
3.84800	-260
3.85167	-260
3.85533	-260
3.85900	-260
3.86267	-261
3.86633	-260
3.87000	-258
3.87367	-257
3.87733	-255
3.88100	-255
3.88467	-255
3.88833	-257
3.89200	-256
3.89567	-257
3.89933	-259
3.90300	-258
3.90667	-257
3.91033	-255
3.91400	-255
3.91767	-255
3.92133	-255
3.92500	-254
3.92867	-252
3.93233	-251
3.93600	-252
3.93967	-252
3.94333	-251
3.94700	-250
3.95067	-251
3.95433	-251
3.95800	-251
3.96167	-251
3.96533	-252
3.96900	-255
3.97267	-254
3.97633	-253
3.98000	-251
3.98367	-252
3.98733	-252
3.99100	-250
3.99467	-248
3.99833	-245

[Status Trace (Column Oven Temperature)]
Interval(msec)	1000
# of Points	240
Start Time(min)	0.007
End Time(min)	3.991
Intensity Units	
Intensity Multiplier	1
R.Time (min)	Intensity
0.00748	34.98
0.02415	34.97
0.04082	34.98
0.05748	34.97
0.07415	34.96
0.09082	34.96
0.10748	34.97
0.12415	34.97
0.14082	34.98
0.15748	34.97
0.17415	34.97
0.19082	34.96
0.20748	34.96
0.22415	34.96
0.24082	34.96
0.25748	34.96
0.27415	34.98
0.29082	35.00
0.30748	35.01
0.32415	35.01
0.34082	35.02
0.35748	35.01
0.37415	35.00
0.39082	35.01
0.40748	35.00
0.42415	35.00
0.44082	34.99
0.45748	34.99
0.47415	34.99
0.49082	34.98
0.50748	34.98
0.52415	34.97
0.54082	34.97
0.55748	34.98
0.57415	34.98
0.59082	34.98
0.60748	34.98
0.62415	34.99
0.64082	34.99
0.65748	35.00
0.67415	35.00
0.69082	35.00
0.70748	35.00
0.72415	35.00
0.74082	35.01
0.75748	35.02
0.77415	35.02
0.79082	35.00
0.80748	35.00
0.82415	35.00
0.84082	34.99
0.85748	34.99
0.87415	35.00
0.89082	35.00
0.90748	34.99
0.92415	35.00
0.94082	34.99
0.95748	34.98
0.97415	34.99
0.99082	34.98
1.00748	34.98
1.02415	34.98
1.04082	34.99
1.05748	34.99
1.07415	34.99
1.09082	35.01
1.10748	35.02
1.12415	35.02
1.14082	35.01
1.15748	35.01
1.17415	35.01
1.19082	34.99
1.20748	34.99
1.22415	34.99
1.24082	34.99
1.25748	34.99
1.27415	34.99
1.29082	35.00
1.30748	35.01
1.32415	35.01
1.34082	35.01
1.35748	35.02
1.37415	35.02
1.39082	35.02
1.40748	35.02
1.42415	35.02
1.44082	35.03
1.45748	35.02
1.47415	35.02
1.49082	35.03
1.50748	35.04
1.52415	35.04
1.54082	35.04
1.55748	35.04
1.57415	35.03
1.59082	35.04
1.60748	35.10
1.62415	35.21
1.64082	35.38
1.65748	35.61
1.67415	35.92
1.69082	36.27
1.70748	36.62
1.72415	36.97
1.74082	37.31
1.75748	37.66
1.77415	38.00
1.79082	38.31
1.80748	38.64
1.82415	38.98
1.84082	39.32
1.85748	39.65
1.87415	39.99
1.89082	40.30
1.90748	40.64
1.92415	40.95
1.94082	41.28
1.95748	41.62
1.97415	41.95
1.99082	42.29
2.00748	42.60
2.02415	42.91
2.04082	43.22
2.05748	43.56
2.07415	43.89
2.09082	44.21
2.10748	44.51
2.12415	44.84
2.14082	45.18
2.15748	45.50
2.17415	45.83
2.19082	46.17
2.20748	46.50
2.22415	46.82
2.24082	47.18
2.25748	47.50
2.27415	47.83
2.29082	48.16
2.30748	48.49
2.32415	48.81
2.34082	49.13
2.35748	49.43
2.37415	49.64
2.39082	49.71
2.40748	49.70
2.42415	49.71
2.44082	49.74
2.45748	49.74
2.47415	49.74
2.49082	49.77
2.50748	49.78
2.52415	49.80
2.54082	49.80
2.55748	49.83
2.57415	49.83
2.59082	49.83
2.60748	49.82
2.62415	49.84
2.64082	49.85
2.65748	49.85
2.67415	49.86
2.69082	49.85
2.70748	49.84
2.72415	49.88
2.74082	49.88
2.75748	49.87
2.77415	49.86
2.79082	49.86
2.80748	49.85
2.82415	49.86
2.84082	49.90
2.85748	49.92
2.87415	49.93
2.89082	49.92
2.90748	49.93
2.92415	49.95
2.94082	49.95
2.95748	49.97
2.97415	49.98
2.99082	49.98
3.00748	49.98
3.02415	49.99
3.04082	50.01
3.05748	50.02
3.07415	50.03
3.09082	50.03
3.10748	50.04
3.12415	50.04
3.14082	50.05
3.15748	50.06
3.17415	50.07
3.19082	50.08
3.20748	50.08
3.22415	50.09
3.24082	50.09
3.25748	50.09
3.27415	50.09
3.29082	50.09
3.30748	50.09
3.32415	50.10
3.34082	50.10
3.35748	50.10
3.37415	50.10
3.39082	50.10
3.40748	50.10
3.42415	50.10
3.44082	50.09
3.45748	50.07
3.47415	50.06
3.49082	50.06
3.50748	50.05
3.52415	50.05
3.54082	50.05
3.55748	50.06
3.57415	50.06
3.59082	50.07
3.60748	50.08
3.62415	50.08
3.64082	50.08
3.65748	50.08
3.67415	50.09
3.69082	50.10
3.70748	50.10
3.72415	50.09
3.74082	50.08
3.75748	50.08
3.77415	50.08
3.79082	50.07
3.80748	50.06
3.82415	50.07
3.84082	50.07
3.85748	50.06
3.87415	50.05
3.89082	50.06
3.90748	50.06
3.92415	50.06
3.94082	50.06
3.95748	50.06
3.97415	50.07
3.99082	50.06

[Status Trace (Injection Unit Temperature)]
Interval(msec)	1000
# of Points	240
Start Time(min)	0.007
End Time(min)	3.991
Intensity Units	
Intensity Multiplier	1
R.Time (min)	Intensity
0.00748	100.00
0.02415	100.00
0.04082	100.00
0.05748	99.99
0.07415	100.00
0.09082	100.00
0.10748	100.00
0.12415	100.00
0.14082	100.00
0.15748	100.00
0.17415	100.00
0.19082	100.00
0.20748	100.00
0.22415	100.00
0.24082	100.00
0.25748	99.99
0.27415	100.00
0.29082	100.00
0.30748	100.00
0.32415	100.00
0.34082	100.00
0.35748	100.00
0.37415	100.00
0.39082	100.00
0.40748	100.00
0.42415	100.00
0.44082	99.99
0.45748	100.00
0.47415	99.99
0.49082	100.00
0.50748	99.99
0.52415	100.00
0.54082	100.00
0.55748	99.99
0.57415	99.99
0.59082	100.00
0.60748	99.99
0.62415	100.00
0.64082	100.00
0.65748	99.99
0.67415	100.00
0.69082	100.00
0.70748	99.99
0.72415	100.00
0.74082	99.99
0.75748	99.99
0.77415	100.00
0.79082	100.00
0.80748	99.99
0.82415	100.00
0.84082	99.99
0.85748	100.00
0.87415	100.00
0.89082	100.00
0.90748	100.00
0.92415	100.00
0.94082	99.99
0.95748	100.00
0.97415	99.99
0.99082	100.00
1.00748	100.00
1.02415	99.99
1.04082	100.00
1.05748	100.00
1.07415	100.00
1.09082	100.00
1.10748	99.99
1.12415	99.99
1.14082	100.00
1.15748	100.00
1.17415	100.00
1.19082	100.00
1.20748	100.00
1.22415	99.99
1.24082	100.00
1.25748	100.00
1.27415	100.00
1.29082	100.00
1.30748	100.00
1.32415	100.00
1.34082	100.00
1.35748	100.00
1.37415	100.00
1.39082	99.99
1.40748	100.00
1.42415	100.00
1.44082	100.00
1.45748	100.00
1.47415	100.00
1.49082	100.00
1.50748	100.00
1.52415	100.00
1.54082	99.99
1.55748	100.00
1.57415	99.99
1.59082	100.00
1.60748	100.00
1.62415	100.00
1.64082	99.99
1.65748	100.00
1.67415	100.00
1.69082	100.00
1.70748	100.00
1.72415	100.00
1.74082	100.00
1.75748	100.00
1.77415	100.00
1.79082	100.00
1.80748	100.00
1.82415	100.00
1.84082	100.00
1.85748	100.00
1.87415	100.00
1.89082	100.00
1.90748	100.00
1.92415	100.00
1.94082	99.99
1.95748	100.00
1.97415	100.00
1.99082	99.99
2.00748	99.99
2.02415	99.99
2.04082	99.99
2.05748	99.99
2.07415	99.99
2.09082	99.99
2.10748	99.99
2.12415	99.98
2.14082	99.99
2.15748	99.98
2.17415	99.98
2.19082	99.98
2.20748	99.98
2.22415	99.98
2.24082	99.98
2.25748	99.98
2.27415	99.98
2.29082	99.98
2.30748	99.98
2.32415	99.98
2.34082	99.98
2.35748	99.98
2.37415	99.98
2.39082	99.98
2.40748	99.98
2.42415	99.98
2.44082	99.98
2.45748	99.98
2.47415	99.98
2.49082	99.99
2.50748	99.98
2.52415	99.98
2.54082	99.99
2.55748	99.98
2.57415	99.98
2.59082	99.98
2.60748	99.99
2.62415	99.99
2.64082	99.99
2.65748	99.99
2.67415	99.99
2.69082	99.99
2.70748	99.99
2.72415	99.99
2.74082	100.00
2.75748	99.99
2.77415	100.00
2.79082	100.00
2.80748	100.00
2.82415	100.00
2.84082	100.00
2.85748	100.01
2.87415	100.01
2.89082	100.01
2.90748	100.01
2.92415	100.02
2.94082	100.02
2.95748	100.01
2.97415	100.02
2.99082	100.02
3.00748	100.02
3.02415	100.02
3.04082	100.03
3.05748	100.03
3.07415	100.02
3.09082	100.02
3.10748	100.03
3.12415	100.03
3.14082	100.03
3.15748	100.03
3.17415	100.04
3.19082	100.04
3.20748	100.04
3.22415	100.04
3.24082	100.04
3.25748	100.04
3.27415	100.04
3.29082	100.04
3.30748	100.04
3.32415	100.05
3.34082	100.05
3.35748	100.05
3.37415	100.05
3.39082	100.05
3.40748	100.04
3.42415	100.05
3.44082	100.05
3.45748	100.05
3.47415	100.06
3.49082	100.05
3.50748	100.05
3.52415	100.06
3.54082	100.05
3.55748	100.05
3.57415	100.05
3.59082	100.06
3.60748	100.05
3.62415	100.06
3.64082	100.05
3.65748	100.05
3.67415	100.06
3.69082	100.05
3.70748	100.06
3.72415	100.05
3.74082	100.06
3.75748	100.06
3.77415	100.06
3.79082	100.05
3.80748	100.06
3.82415	100.06
3.84082	100.06
3.85748	100.05
3.87415	100.06
3.89082	100.06
3.90748	100.06
3.92415	100.06
3.94082	100.06
3.95748	100.06
3.97415	100.06
3.99082	100.06

[Status Trace (Carrier Gas Pressure)]
Interval(msec)	1000
# of Points	240
Start Time(min)	0.007
End Time(min)	3.991
Intensity Units	
Intensity Multiplier	1
R.Time (min)	Intensity
0.00748	58.00
0.02415	55.40
0.04082	56.95
0.05748	59.14
0.07415	59.54
0.09082	58.11
0.10748	57.98
0.12415	58.01
0.14082	58.01
0.15748	58.01
0.17415	58.00
0.19082	58.00
0.20748	58.00
0.22415	58.00
0.24082	58.00
0.25748	58.00
0.27415	58.00
0.29082	58.00
0.30748	58.00
0.32415	58.00
0.34082	58.00
0.35748	58.00
0.37415	58.00
0.39082	58.00
0.40748	58.00
0.42415	58.00
0.44082	58.00
0.45748	58.00
0.47415	58.00
0.49082	58.00
0.50748	58.00
0.52415	58.00
0.54082	58.00
0.55748	58.00
0.57415	58.00
0.59082	58.00
0.60748	58.00
0.62415	58.00
0.64082	58.00
0.65748	58.00
0.67415	58.00
0.69082	58.00
0.70748	58.00
0.72415	58.00
0.74082	58.00
0.75748	58.00
0.77415	58.00
0.79082	58.00
0.80748	58.00
0.82415	58.00
0.84082	58.00
0.85748	58.00
0.87415	58.00
0.89082	58.00
0.90748	58.00
0.92415	58.00
0.94082	58.00
0.95748	58.00
0.97415	58.00
0.99082	58.00
1.00748	58.00
1.02415	58.00
1.04082	58.00
1.05748	58.00
1.07415	58.00
1.09082	58.00
1.10748	58.00
1.12415	58.00
1.14082	58.00
1.15748	58.00
1.17415	58.00
1.19082	58.00
1.20748	58.00
1.22415	58.00
1.24082	58.00
1.25748	58.00
1.27415	58.00
1.29082	58.00
1.30748	58.00
1.32415	58.00
1.34082	58.00
1.35748	58.00
1.37415	58.00
1.39082	58.00
1.40748	58.00
1.42415	58.00
1.44082	58.00
1.45748	58.00
1.47415	58.00
1.49082	58.00
1.50748	58.00
1.52415	58.00
1.54082	58.00
1.55748	58.00
1.57415	58.00
1.59082	58.00
1.60748	58.00
1.62415	58.00
1.64082	58.00
1.65748	58.00
1.67415	58.01
1.69082	58.01
1.70748	58.00
1.72415	58.00
1.74082	58.00
1.75748	58.00
1.77415	58.00
1.79082	58.00
1.80748	58.00
1.82415	58.00
1.84082	58.00
1.85748	58.00
1.87415	58.00
1.89082	58.00
1.90748	58.00
1.92415	58.00
1.94082	58.00
1.95748	58.00
1.97415	58.00
1.99082	58.00
2.00748	58.00
2.02415	58.00
2.04082	58.00
2.05748	58.00
2.07415	58.00
2.09082	58.00
2.10748	58.00
2.12415	58.00
2.14082	58.00
2.15748	58.00
2.17415	58.00
2.19082	58.00
2.20748	58.00
2.22415	58.00
2.24082	58.00
2.25748	58.00
2.27415	58.00
2.29082	58.00
2.30748	58.00
2.32415	58.00
2.34082	58.00
2.35748	58.00
2.37415	58.00
2.39082	57.99
2.40748	57.99
2.42415	58.00
2.44082	58.00
2.45748	58.00
2.47415	58.00
2.49082	58.00
2.50748	58.00
2.52415	57.98
2.54082	58.00
2.55748	58.00
2.57415	58.00
2.59082	58.00
2.60748	58.00
2.62415	58.00
2.64082	58.00
2.65748	58.00
2.67415	58.00
2.69082	58.00
2.70748	58.00
2.72415	58.00
2.74082	58.00
2.75748	58.00
2.77415	58.00
2.79082	58.00
2.80748	58.00
2.82415	58.00
2.84082	58.00
2.85748	58.00
2.87415	58.00
2.89082	58.00
2.90748	58.00
2.92415	58.00
2.94082	58.00
2.95748	58.00
2.97415	58.00
2.99082	58.00
3.00748	58.00
3.02415	58.00
3.04082	58.00
3.05748	58.00
3.07415	58.00
3.09082	58.00
3.10748	58.00
3.12415	58.00
3.14082	58.00
3.15748	58.00
3.17415	58.00
3.19082	58.00
3.20748	58.00
3.22415	58.00
3.24082	58.00
3.25748	58.00
3.27415	58.00
3.29082	58.00
3.30748	58.00
3.32415	58.00
3.34082	58.00
3.35748	58.00
3.37415	58.00
3.39082	58.00
3.40748	58.00
3.42415	58.00
3.44082	58.00
3.45748	58.00
3.47415	58.00
3.49082	58.00
3.50748	58.00
3.52415	58.00
3.54082	58.00
3.55748	58.00
3.57415	58.00
3.59082	58.00
3.60748	58.00
3.62415	58.00
3.64082	58.00
3.65748	58.00
3.67415	58.00
3.69082	58.00
3.70748	58.00
3.72415	58.00
3.74082	58.00
3.75748	58.00
3.77415	58.00
3.79082	58.00
3.80748	58.00
3.82415	58.00
3.84082	58.00
3.85748	58.00
3.87415	58.00
3.89082	58.00
3.90748	58.00
3.92415	58.00
3.94082	58.00
3.95748	58.00
3.97415	58.00
3.99082	58.00

[Status Trace (Carrier Gas Flow)]
Interval(msec)	1000
# of Points	240
Start Time(min)	0.007
End Time(min)	3.991
Intensity Units	
Intensity Multiplier	1
R.Time (min)	Intensity
0.00748	34.52
0.02415	34.52
0.04082	34.54
0.05748	34.54
0.07415	34.49
0.09082	34.52
0.10748	34.52
0.12415	34.52
0.14082	34.52
0.15748	34.52
0.17415	34.52
0.19082	34.52
0.20748	34.52
0.22415	34.52
0.24082	34.52
0.25748	34.52
0.27415	34.52
0.29082	34.52
0.30748	34.52
0.32415	34.52
0.34082	34.52
0.35748	34.52
0.37415	34.52
0.39082	34.52
0.40748	34.52
0.42415	34.52
0.44082	34.52
0.45748	34.52
0.47415	34.52
0.49082	34.52
0.50748	34.52
0.52415	34.52
0.54082	34.52
0.55748	34.52
0.57415	34.52
0.59082	34.52
0.60748	34.52
0.62415	34.52
0.64082	34.52
0.65748	34.52
0.67415	34.52
0.69082	34.52
0.70748	34.52
0.72415	34.52
0.74082	34.52
0.75748	34.52
0.77415	34.52
0.79082	34.52
0.80748	34.52
0.82415	34.52
0.84082	34.52
0.85748	34.52
0.87415	34.52
0.89082	34.52
0.90748	34.52
0.92415	34.52
0.94082	34.52
0.95748	34.52
0.97415	34.52
0.99082	34.52
1.00748	34.52
1.02415	34.52
1.04082	34.52
1.05748	34.52
1.07415	34.52
1.09082	34.52
1.10748	34.52
1.12415	34.52
1.14082	34.52
1.15748	34.52
1.17415	34.52
1.19082	34.52
1.20748	34.52
1.22415	34.52
1.24082	34.52
1.25748	34.52
1.27415	34.52
1.29082	34.52
1.30748	34.52
1.32415	34.52
1.34082	34.52
1.35748	34.52
1.37415	34.52
1.39082	34.52
1.40748	34.52
1.42415	34.52
1.44082	34.52
1.45748	34.52
1.47415	34.52
1.49082	34.52
1.50748	34.52
1.52415	34.52
1.54082	34.52
1.55748	34.52
1.57415	34.52
1.59082	34.52
1.60748	34.52
1.62415	34.52
1.64082	34.52
1.65748	34.52
1.67415	34.52
1.69082	34.52
1.70748	34.52
1.72415	34.52
1.74082	34.52
1.75748	34.52
1.77415	34.52
1.79082	34.52
1.80748	34.52
1.82415	34.52
1.84082	34.52
1.85748	34.52
1.87415	34.52
1.89082	34.52
1.90748	34.52
1.92415	34.52
1.94082	34.52
1.95748	34.52
1.97415	34.52
1.99082	34.52
2.00748	34.52
2.02415	34.52
2.04082	34.52
2.05748	34.52
2.07415	34.52
2.09082	34.52
2.10748	34.52
2.12415	34.52
2.14082	34.52
2.15748	34.52
2.17415	34.52
2.19082	34.52
2.20748	34.52
2.22415	34.52
2.24082	34.52
2.25748	34.52
2.27415	34.52
2.29082	34.52
2.30748	34.52
2.32415	34.52
2.34082	34.52
2.35748	34.52
2.37415	34.52
2.39082	34.52
2.40748	34.52
2.42415	34.52
2.44082	34.52
2.45748	34.52
2.47415	34.52
2.49082	34.52
2.50748	34.35
2.52415	34.50
2.54082	34.52
2.55748	34.52
2.57415	34.52
2.59082	34.52
2.60748	34.52
2.62415	34.51
2.64082	34.52
2.65748	34.52
2.67415	34.50
2.69082	34.52
2.70748	34.52
2.72415	34.51
2.74082	34.52
2.75748	34.52
2.77415	34.52
2.79082	34.52
2.80748	34.52
2.82415	34.52
2.84082	34.51
2.85748	34.52
2.87415	34.52
2.89082	34.52
2.90748	34.52
2.92415	34.52
2.94082	34.52
2.95748	34.52
2.97415	34.52
2.99082	34.52
3.00748	34.52
3.02415	34.52
3.04082	34.52
3.05748	34.52
3.07415	34.52
3.09082	34.52
3.10748	34.52
3.12415	34.52
3.14082	34.52
3.15748	34.52
3.17415	34.52
3.19082	34.52
3.20748	34.52
3.22415	34.52
3.24082	34.52
3.25748	34.52
3.27415	34.52
3.29082	34.52
3.30748	34.52
3.32415	34.52
3.34082	34.52
3.35748	34.52
3.37415	34.52
3.39082	34.52
3.40748	34.52
3.42415	34.52
3.44082	34.52
3.45748	34.52
3.47415	34.52
3.49082	34.52
3.50748	34.52
3.52415	34.52
3.54082	34.52
3.55748	34.52
3.57415	34.52
3.59082	34.52
3.60748	34.52
3.62415	34.52
3.64082	34.52
3.65748	34.52
3.67415	34.52
3.69082	34.52
3.70748	34.52
3.72415	34.52
3.74082	34.52
3.75748	34.52
3.77415	34.52
3.79082	34.52
3.80748	34.52
3.82415	34.52
3.84082	34.52
3.85748	34.52
3.87415	34.52
3.89082	34.52
3.90748	34.52
3.92415	34.52
3.94082	34.52
3.95748	34.52
3.97415	34.52
3.99082	34.52

[Status Trace (Column Flow)]
Interval(msec)	1000
# of Points	240
Start Time(min)	0.007
End Time(min)	3.991
Intensity Units	
Intensity Multiplier	1
R.Time (min)	Intensity
0.00748	5.45
0.02415	5.16
0.04082	5.33
0.05748	5.59
0.07415	5.63
0.09082	5.47
0.10748	5.45
0.12415	5.46
0.14082	5.46
0.15748	5.46
0.17415	5.46
0.19082	5.46
0.20748	5.46
0.22415	5.46
0.24082	5.46
0.25748	5.46
0.27415	5.45
0.29082	5.45
0.30748	5.45
0.32415	5.45
0.34082	5.45
0.35748	5.45
0.37415	5.45
0.39082	5.45
0.40748	5.45
0.42415	5.45
0.44082	5.45
0.45748	5.45
0.47415	5.45
0.49082	5.45
0.50748	5.45
0.52415	5.45
0.54082	5.46
0.55748	5.45
0.57415	5.45
0.59082	5.45
0.60748	5.45
0.62415	5.45
0.64082	5.45
0.65748	5.45
0.67415	5.45
0.69082	5.45
0.70748	5.45
0.72415	5.45
0.74082	5.45
0.75748	5.45
0.77415	5.45
0.79082	5.45
0.80748	5.45
0.82415	5.45
0.84082	5.45
0.85748	5.45
0.87415	5.45
0.89082	5.45
0.90748	5.45
0.92415	5.45
0.94082	5.45
0.95748	5.45
0.97415	5.45
0.99082	5.45
1.00748	5.45
1.02415	5.45
1.04082	5.45
1.05748	5.45
1.07415	5.45
1.09082	5.45
1.10748	5.45
1.12415	5.45
1.14082	5.45
1.15748	5.45
1.17415	5.45
1.19082	5.45
1.20748	5.45
1.22415	5.45
1.24082	5.45
1.25748	5.45
1.27415	5.45
1.29082	5.45
1.30748	5.45
1.32415	5.45
1.34082	5.45
1.35748	5.45
1.37415	5.45
1.39082	5.45
1.40748	5.45
1.42415	5.45
1.44082	5.45
1.45748	5.45
1.47415	5.45
1.49082	5.45
1.50748	5.45
1.52415	5.45
1.54082	5.45
1.55748	5.45
1.57415	5.45
1.59082	5.45
1.60748	5.45
1.62415	5.45
1.64082	5.44
1.65748	5.44
1.67415	5.43
1.69082	5.42
1.70748	5.40
1.72415	5.39
1.74082	5.38
1.75748	5.37
1.77415	5.36
1.79082	5.35
1.80748	5.34
1.82415	5.33
1.84082	5.32
1.85748	5.31
1.87415	5.30
1.89082	5.29
1.90748	5.28
1.92415	5.27
1.94082	5.26
1.95748	5.25
1.97415	5.24
1.99082	5.23
2.00748	5.23
2.02415	5.22
2.04082	5.21
2.05748	5.20
2.07415	5.19
2.09082	5.18
2.10748	5.17
2.12415	5.16
2.14082	5.15
2.15748	5.14
2.17415	5.13
2.19082	5.12
2.20748	5.11
2.22415	5.11
2.24082	5.09
2.25748	5.09
2.27415	5.08
2.29082	5.07
2.30748	5.06
2.32415	5.05
2.34082	5.04
2.35748	5.03
2.37415	5.03
2.39082	5.02
2.40748	5.02
2.42415	5.03
2.44082	5.02
2.45748	5.02
2.47415	5.02
2.49082	5.02
2.50748	5.02
2.52415	5.02
2.54082	5.02
2.55748	5.02
2.57415	5.02
2.59082	5.02
2.60748	5.02
2.62415	5.02
2.64082	5.02
2.65748	5.02
2.67415	5.02
2.69082	5.02
2.70748	5.02
2.72415	5.02
2.74082	5.02
2.75748	5.02
2.77415	5.02
2.79082	5.02
2.80748	5.02
2.82415	5.02
2.84082	5.02
2.85748	5.02
2.87415	5.02
2.89082	5.02
2.90748	5.02
2.92415	5.02
2.94082	5.02
2.95748	5.02
2.97415	5.02
2.99082	5.02
3.00748	5.02
3.02415	5.02
3.04082	5.02
3.05748	5.02
3.07415	5.02
3.09082	5.02
3.10748	5.02
3.12415	5.02
3.14082	5.02
3.15748	5.02
3.17415	5.02
3.19082	5.02
3.20748	5.02
3.22415	5.02
3.24082	5.02
3.25748	5.02
3.27415	5.02
3.29082	5.02
3.30748	5.02
3.32415	5.02
3.34082	5.02
3.35748	5.02
3.37415	5.02
3.39082	5.02
3.40748	5.02
3.42415	5.02
3.44082	5.02
3.45748	5.02
3.47415	5.02
3.49082	5.02
3.50748	5.02
3.52415	5.02
3.54082	5.02
3.55748	5.02
3.57415	5.02
3.59082	5.02
3.60748	5.02
3.62415	5.02
3.64082	5.02
3.65748	5.02
3.67415	5.02
3.69082	5.02
3.70748	5.02
3.72415	5.02
3.74082	5.02
3.75748	5.02
3.77415	5.02
3.79082	5.02
3.80748	5.02
3.82415	5.02
3.84082	5.02
3.85748	5.02
3.87415	5.02
3.89082	5.02
3.90748	5.02
3.92415	5.02
3.94082	5.02
3.95748	5.02
3.97415	5.02
3.99082	5.02

[Status Trace (Linear Velocity)]
Interval(msec)	1000
# of Points	240
Start Time(min)	0.007
End Time(min)	3.991
Intensity Units	
Intensity Multiplier	1
R.Time (min)	Intensity
0.00748	39.00
0.02415	37.30
0.04082	38.32
0.05748	39.75
0.07415	40.01
0.09082	39.08
0.10748	38.99
0.12415	39.01
0.14082	39.01
0.15748	39.01
0.17415	39.01
0.19082	39.01
0.20748	39.01
0.22415	39.01
0.24082	39.01
0.25748	39.01
0.27415	39.00
0.29082	39.00
0.30748	39.00
0.32415	39.00
0.34082	39.00
0.35748	39.00
0.37415	39.00
0.39082	39.00
0.40748	39.00
0.42415	39.00
0.44082	39.00
0.45748	39.00
0.47415	39.00
0.49082	39.00
0.50748	39.00
0.52415	39.00
0.54082	39.00
0.55748	39.00
0.57415	39.00
0.59082	39.00
0.60748	39.00
0.62415	39.00
0.64082	39.00
0.65748	39.00
0.67415	39.00
0.69082	39.00
0.70748	39.00
0.72415	39.00
0.74082	39.00
0.75748	39.00
0.77415	39.00
0.79082	39.00
0.80748	39.00
0.82415	39.00
0.84082	39.00
0.85748	39.00
0.87415	39.00
0.89082	39.00
0.90748	39.00
0.92415	39.00
0.94082	39.00
0.95748	39.00
0.97415	39.00
0.99082	39.00
1.00748	39.00
1.02415	39.00
1.04082	39.00
1.05748	39.00
1.07415	39.00
1.09082	39.00
1.10748	39.00
1.12415	39.00
1.14082	39.00
1.15748	39.00
1.17415	39.00
1.19082	39.00
1.20748	39.00
1.22415	39.00
1.24082	39.00
1.25748	39.00
1.27415	39.00
1.29082	39.00
1.30748	39.00
1.32415	39.00
1.34082	39.00
1.35748	39.00
1.37415	39.00
1.39082	39.00
1.40748	39.00
1.42415	39.00
1.44082	39.00
1.45748	39.00
1.47415	39.00
1.49082	39.00
1.50748	39.00
1.52415	39.00
1.54082	39.00
1.55748	39.00
1.57415	39.00
1.59082	39.00
1.60748	38.99
1.62415	38.98
1.64082	38.97
1.65748	38.94
1.67415	38.92
1.69082	38.88
1.70748	38.85
1.72415	38.81
1.74082	38.78
1.75748	38.75
1.77415	38.71
1.79082	38.68
1.80748	38.65
1.82415	38.62
1.84082	38.59
1.85748	38.56
1.87415	38.53
1.89082	38.50
1.90748	38.47
1.92415	38.44
1.94082	38.41
1.95748	38.38
1.97415	38.34
1.99082	38.31
2.00748	38.28
2.02415	38.26
2.04082	38.23
2.05748	38.20
2.07415	38.17
2.09082	38.14
2.10748	38.11
2.12415	38.08
2.14082	38.05
2.15748	38.02
2.17415	37.99
2.19082	37.96
2.20748	37.93
2.22415	37.90
2.24082	37.87
2.25748	37.84
2.27415	37.81
2.29082	37.78
2.30748	37.75
2.32415	37.72
2.34082	37.69
2.35748	37.67
2.37415	37.65
2.39082	37.64
2.40748	37.64
2.42415	37.64
2.44082	37.64
2.45748	37.64
2.47415	37.64
2.49082	37.64
2.50748	37.63
2.52415	37.62
2.54082	37.63
2.55748	37.63
2.57415	37.63
2.59082	37.63
2.60748	37.63
2.62415	37.63
2.64082	37.63
2.65748	37.63
2.67415	37.63
2.69082	37.63
2.70748	37.63
2.72415	37.63
2.74082	37.63
2.75748	37.63
2.77415	37.63
2.79082	37.63
2.80748	37.63
2.82415	37.63
2.84082	37.63
2.85748	37.62
2.87415	37.62
2.89082	37.62
2.90748	37.62
2.92415	37.62
2.94082	37.62
2.95748	37.62
2.97415	37.62
2.99082	37.62
3.00748	37.62
3.02415	37.62
3.04082	37.62
3.05748	37.62
3.07415	37.62
3.09082	37.61
3.10748	37.61
3.12415	37.61
3.14082	37.61
3.15748	37.61
3.17415	37.61
3.19082	37.61
3.20748	37.61
3.22415	37.61
3.24082	37.61
3.25748	37.61
3.27415	37.61
3.29082	37.61
3.30748	37.61
3.32415	37.61
3.34082	37.61
3.35748	37.61
3.37415	37.61
3.39082	37.61
3.40748	37.61
3.42415	37.61
3.44082	37.61
3.45748	37.61
3.47415	37.61
3.49082	37.61
3.50748	37.61
3.52415	37.61
3.54082	37.61
3.55748	37.61
3.57415	37.61
3.59082	37.61
3.60748	37.61
3.62415	37.61
3.64082	37.61
3.65748	37.61
3.67415	37.61
3.69082	37.61
3.70748	37.61
3.72415	37.61
3.74082	37.61
3.75748	37.61
3.77415	37.61
3.79082	37.61
3.80748	37.61
3.82415	37.61
3.84082	37.61
3.85748	37.61
3.87415	37.61
3.89082	37.61
3.90748	37.61
3.92415	37.61
3.94082	37.61
3.95748	37.61
3.97415	37.61
3.99082	37.61

