[Header]
Application Name	LabSolutions
Version	5.110
Data File Name	C:\Users\User\Desktop\GC Analyses\Jack\UIC Prairie Sampling\8.12.22\220812_007.gcd
Output Date	10/14/2022
Output Time	2:33:50 PM

[File Information]
Type	Data File
Generated	10/6/2022 1:16:42 PM
Generated by	System Administrator
Modified	10/6/2022 1:21:09 PM
Modified by	System Administrator

[Sample Information]
Operator Name	System Administrator
Acquired	10/6/2022 1:17:07 PM
Sample Type	1:Standard
Level	1
Sample Name	220812_UICPrairie
Sample ID	220812_UICPrairie
ISTD Amount1	1
ISTD Amount2	1
ISTD Amount3	1
ISTD Amount4	1
ISTD Amount5	1
ISTD Amount6	1
ISTD Amount7	1
ISTD Amount8	1
ISTD Amount9	1
ISTD Amount10	1
ISTD Amount11	1
ISTD Amount12	1
ISTD Amount13	1
ISTD Amount14	1
ISTD Amount15	1
ISTD Amount16	1
ISTD Amount17	1
ISTD Amount18	1
ISTD Amount19	1
ISTD Amount20	1
ISTD Amount21	1
ISTD Amount22	1
ISTD Amount23	1
ISTD Amount24	1
ISTD Amount25	1
ISTD Amount26	1
ISTD Amount27	1
ISTD Amount28	1
ISTD Amount29	1
ISTD Amount30	1
ISTD Amount31	1
ISTD Amount32	1
Sample Amount	1
Dilution Factor	1
Vial#	1
Injection Volume	1
Injection Count	1
Bar Code	

[Original Files]
Data File	C:\Users\User\Desktop\GC Analyses\Jack\UIC Prairie Sampling\8.12.22\220812_007.gcd
Method File	C:\LabSolutions\Data\GHG_4min_2022\ghg3_togas_w_acet_4 min_new_int.gcm
Batch File	
Report Format File	c:\LabSolutions\System\DEFAULT.lsr

[File Description]


[Configuration]
Instrument Name	C0B7VH3-Instrument1
Instrument #	1
Line #	1
# of Detectors	3
Detector ID	DET#1	DET#2	DET#3
Detector Name	FID	PTCD	ECD
# of Channels	1	1	1

[Peak Table(Ch1)]
# of Peaks	3
Peak#	R.Time	I.Time	F.Time	Area	Height	A/H	Conc.	Mark	ID#	Name	k'	Plate #	Plate Ht.	Tailing	Resolution	Sep.Factor	Area Ratio	Height Ratio	Conc. %	Norm Conc.
1	1.476	1.439	1.538	11720	5178	2.264	100.000	   	1	CO	0.000	8247	18.190	1.274	0.000	0.000	0	0	16.667	16.667
2	1.571	1.538	1.626	4401	2269	1.939	100.000	 V 	2	CH4	0.065	11779	12.734	1.122	1.551	0.000	0	0	16.667	16.667
3	2.000	1.949	2.315	1440162	705660	2.041	400.000	   	3	CO2	0.355	17927	8.367	1.180	7.293	5.500	0	0	66.667	66.667

[Peak Table(Ch2)]
# of Peaks	0

[Peak Table(Ch3)]
# of Peaks	3
Peak#	R.Time	I.Time	F.Time	Area	Height	A/H	Conc.	Mark	ID#	Name	k'	Plate #	Plate Ht.	Tailing	Resolution	Sep.Factor	Area Ratio	Height Ratio	Conc. %	Norm Conc.
1	2.455	0.856	2.645	25406	551	46.138	0.000	   			0.000	55	2747.296	0.561	0.000	0.000	0	0	0.000	0.000
2	2.880	2.664	2.986	21148	5363	3.943	1.000	   	1	N2O	0.173	13057	11.488	1.537	0.595	0.000	0	0	100.000	100.000
3	3.093	2.986	3.995	26925	882	30.532	0.000	 V 			0.260	195	769.754	0.000	0.431	1.500	0	0	0.000	0.000

[Compound Results(Ch1)]
# of IDs	6
ID#	Name	R.Time	Area	Height	Conc.	Curve	3rd	2nd	1st	Constant	Area Ratio	Height Ratio	Conc. %	Norm Conc.
1	CO	1.476	11720	5178	100.000	Linear	0.000000e+00	0.000000e+00	1.172046e+002	0.000000e+00	0	0	16.667	16.667
2	CH4	1.571	4401	2269	100.000	Linear	0.000000e+00	0.000000e+00	4.400510e+001	0.000000e+00	0	0	16.667	16.667
3	CO2	2.000	1440162	705660	400.000	Linear	0.000000e+00	0.000000e+00	3.600405e+003	0.000000e+00	0	0	66.667	66.667
4	Ethylene	0.000	0	0	0.000	Linear	0.000000e+00	0.000000e+00	0.000000e+00	0.000000e+00	0	0	0.000	0.000
5	Acetylene	0.000	0	0	0.000	Linear	0.000000e+00	0.000000e+00	0.000000e+00	0.000000e+00	0	0	0.000	0.000
6	Ethane	0.000	0	0	0.000	Linear	0.000000e+00	0.000000e+00	0.000000e+00	0.000000e+00	0	0	0.000	0.000

[Compound Results(Ch2)]
# of IDs	5
ID#	Name	R.Time	Area	Height	Conc.	Curve	3rd	2nd	1st	Constant	Area Ratio	Height Ratio	Conc. %	Norm Conc.
1	Hydrogen	0.000	0	0	0.000	Linear	0.000000e+00	0.000000e+00	0.000000e+00	0.000000e+00	0	0	0.000	0.000
2	Oxygen	0.000	0	0	0.000	Linear	0.000000e+00	0.000000e+00	0.000000e+00	0.000000e+00	0	0	0.000	0.000
3	Nitrogen	0.000	0	0	0.000	Linear	0.000000e+00	0.000000e+00	0.000000e+00	0.000000e+00	0	0	0.000	0.000
4	Methane	0.000	0	0	0.000	Linear	0.000000e+00	0.000000e+00	0.000000e+00	0.000000e+00	0	0	0.000	0.000
5	Carbon Monoxide	0.000	0	0	0.000	Linear	0.000000e+00	0.000000e+00	0.000000e+00	0.000000e+00	0	0	0.000	0.000

[Compound Results(Ch3)]
# of IDs	2
ID#	Name	R.Time	Area	Height	Conc.	Curve	3rd	2nd	1st	Constant	Area Ratio	Height Ratio	Conc. %	Norm Conc.
1	N2O	2.880	21148	5363	1.000	Linear	0.000000e+00	0.000000e+00	2.114820e+004	0.000000e+00	0	0	100.000	100.000
2	SF6	0.000	0	0	0.000	Linear	0.000000e+00	0.000000e+00	0.000000e+00	0.000000e+00	0	0	0.000	0.000

[Group Results(Ch1)]
# of Groups	0

[Group Results(Ch2)]
# of Groups	0

[Group Results(Ch3)]
# of Groups	0

[Chromatogram (Ch1)]
Interval(msec)	220
# of Points	1091
Start Time(min)	0.002
End Time(min)	3.998
R.Time (min)	Intensity
0.00167	19
0.00533	24
0.00900	25
0.01267	19
0.01633	8
0.02000	-6
0.02367	-18
0.02733	-26
0.03100	-33
0.03467	-37
0.03833	-39
0.04200	-39
0.04567	-35
0.04933	-30
0.05300	-19
0.05667	-6
0.06033	3
0.06400	8
0.06767	12
0.07133	15
0.07500	18
0.07867	21
0.08233	29
0.08600	36
0.08967	35
0.09333	25
0.09700	11
0.10067	-2
0.10433	-11
0.10800	-15
0.11167	-20
0.11533	-24
0.11900	-26
0.12267	-24
0.12633	-22
0.13000	-16
0.13367	-11
0.13733	-7
0.14100	-4
0.14467	-3
0.14833	-3
0.15200	-6
0.15567	-6
0.15933	-4
0.16300	-5
0.16667	-11
0.17033	-15
0.17400	-15
0.17767	-11
0.18133	-7
0.18500	-6
0.18867	-2
0.19233	2
0.19600	7
0.19967	10
0.20333	12
0.20700	12
0.21067	12
0.21433	10
0.21800	6
0.22167	3
0.22533	0
0.22900	-4
0.23267	-10
0.23633	-18
0.24000	-23
0.24367	-25
0.24733	-22
0.25100	-18
0.25467	-15
0.25833	-15
0.26200	-18
0.26567	-23
0.26933	-32
0.27300	-38
0.27667	-42
0.28033	-40
0.28400	-36
0.28767	-29
0.29133	-23
0.29500	-19
0.29867	-12
0.30233	-6
0.30600	-5
0.30967	-10
0.31333	-19
0.31700	-29
0.32067	-35
0.32433	-36
0.32800	-34
0.33167	-26
0.33533	-21
0.33900	-25
0.34267	-32
0.34633	-39
0.35000	-42
0.35367	-39
0.35733	-35
0.36100	-34
0.36467	-33
0.36833	-27
0.37200	-23
0.37567	-24
0.37933	-29
0.38300	-34
0.38667	-41
0.39033	-46
0.39400	-49
0.39767	-50
0.40133	-47
0.40500	-43
0.40867	-42
0.41233	-44
0.41600	-44
0.41967	-47
0.42333	-50
0.42700	-46
0.43067	-42
0.43433	-40
0.43800	-39
0.44167	-46
0.44533	-52
0.44900	-52
0.45267	-53
0.45633	-55
0.46000	-53
0.46367	-49
0.46733	-41
0.47100	-35
0.47467	-30
0.47833	-29
0.48200	-27
0.48567	-28
0.48933	-34
0.49300	-42
0.49667	-47
0.50033	-48
0.50400	-51
0.50767	-60
0.51133	-69
0.51500	-72
0.51867	-73
0.52233	-77
0.52600	-81
0.52967	-77
0.53333	-70
0.53700	-64
0.54067	-60
0.54433	-58
0.54800	-56
0.55167	-53
0.55533	-47
0.55900	-39
0.56267	-33
0.56633	-35
0.57000	-42
0.57367	-51
0.57733	-55
0.58100	-54
0.58467	-49
0.58833	-47
0.59200	-44
0.59567	-43
0.59933	-49
0.60300	-53
0.60667	-55
0.61033	-56
0.61400	-54
0.61767	-50
0.62133	-50
0.62500	-54
0.62867	-55
0.63233	-55
0.63600	-54
0.63967	-50
0.64333	-51
0.64700	-57
0.65067	-60
0.65433	-58
0.65800	-51
0.66167	-48
0.66533	-48
0.66900	-47
0.67267	-48
0.67633	-49
0.68000	-43
0.68367	-35
0.68733	-32
0.69100	-35
0.69467	-40
0.69833	-42
0.70200	-42
0.70567	-45
0.70933	-51
0.71300	-66
0.71667	-72
0.72033	-72
0.72400	-69
0.72767	-70
0.73133	-74
0.73500	-75
0.73867	-72
0.74233	-66
0.74600	-60
0.74967	-54
0.75333	-53
0.75700	-56
0.76067	-58
0.76433	-61
0.76800	-59
0.77167	-56
0.77533	-56
0.77900	-55
0.78267	-50
0.78633	-41
0.79000	-36
0.79367	-37
0.79733	-44
0.80100	-50
0.80467	-55
0.80833	-62
0.81200	-69
0.81567	-70
0.81933	-70
0.82300	-77
0.82667	-81
0.83033	-83
0.83400	-82
0.83767	-78
0.84133	-76
0.84500	-73
0.84867	-69
0.85233	-67
0.85600	-67
0.85967	-66
0.86333	-64
0.86700	-60
0.87067	-59
0.87433	-63
0.87800	-70
0.88167	-81
0.88533	-92
0.88900	-96
0.89267	-95
0.89633	-89
0.90000	-81
0.90367	-76
0.90733	-74
0.91100	-75
0.91467	-71
0.91833	-70
0.92200	-69
0.92567	-70
0.92933	-73
0.93300	-75
0.93667	-69
0.94033	-59
0.94400	-57
0.94767	-62
0.95133	-70
0.95500	-78
0.95867	-87
0.96233	-90
0.96600	-88
0.96967	-88
0.97333	-97
0.97700	-99
0.98067	-94
0.98433	-86
0.98800	-79
0.99167	-75
0.99533	-72
0.99900	-66
1.00267	-57
1.00633	-56
1.01000	-58
1.01367	-60
1.01733	-64
1.02100	-67
1.02467	-70
1.02833	-74
1.03200	-80
1.03567	-82
1.03933	-81
1.04300	-81
1.04667	-84
1.05033	-90
1.05400	-94
1.05767	-95
1.06133	-98
1.06500	-100
1.06867	-99
1.07233	-95
1.07600	-91
1.07967	-89
1.08333	-89
1.08700	-89
1.09067	-90
1.09433	-91
1.09800	-91
1.10167	-89
1.10533	-87
1.10900	-85
1.11267	-87
1.11633	-92
1.12000	-96
1.12367	-96
1.12733	-92
1.13100	-90
1.13467	-92
1.13833	-97
1.14200	-95
1.14567	-93
1.14933	-91
1.15300	-89
1.15667	-88
1.16033	-89
1.16400	-92
1.16767	-94
1.17133	-95
1.17500	-92
1.17867	-88
1.18233	-85
1.18600	-82
1.18967	-82
1.19333	-86
1.19700	-91
1.20067	-95
1.20433	-96
1.20800	-96
1.21167	-100
1.21533	-104
1.21900	-107
1.22267	-106
1.22633	-103
1.23000	-105
1.23367	-108
1.23733	-110
1.24100	-107
1.24467	-104
1.24833	-104
1.25200	-105
1.25567	-105
1.25933	-101
1.26300	-95
1.26667	-90
1.27033	-84
1.27400	-82
1.27767	-85
1.28133	-91
1.28500	-102
1.28867	-107
1.29233	-107
1.29600	-105
1.29967	-103
1.30333	-101
1.30700	-98
1.31067	-97
1.31433	-95
1.31800	-92
1.32167	-89
1.32533	-88
1.32900	-88
1.33267	-90
1.33633	-96
1.34000	-106
1.34367	-114
1.34733	-120
1.35100	-125
1.35467	-131
1.35833	-137
1.36200	-139
1.36567	-135
1.36933	-125
1.37300	-118
1.37667	-117
1.38033	-120
1.38400	-125
1.38767	-129
1.39133	-131
1.39500	-131
1.39867	-128
1.40233	-122
1.40600	-116
1.40967	-112
1.41333	-109
1.41700	-104
1.42067	-98
1.42433	-96
1.42800	-99
1.43167	-103
1.43533	-107
1.43900	-99
1.44267	-38
1.44633	165
1.45000	560
1.45367	1166
1.45733	1983
1.46100	2903
1.46467	3760
1.46833	4437
1.47200	4884
1.47567	5075
1.47933	4991
1.48300	4628
1.48667	4032
1.49033	3311
1.49400	2586
1.49767	1939
1.50133	1408
1.50500	997
1.50867	691
1.51233	467
1.51600	305
1.51967	189
1.52333	105
1.52700	46
1.53067	-1
1.53433	-34
1.53800	-50
1.54167	-33
1.54533	75
1.54900	331
1.55267	722
1.55633	1166
1.56000	1578
1.56367	1900
1.56733	2102
1.57100	2159
1.57467	2047
1.57833	1777
1.58200	1409
1.58567	1033
1.58933	705
1.59300	444
1.59667	250
1.60033	118
1.60400	30
1.60767	-29
1.61133	-66
1.61500	-93
1.61867	-107
1.62233	-111
1.62600	-115
1.62967	-120
1.63333	-120
1.63700	-121
1.64067	-123
1.64433	-126
1.64800	-129
1.65167	-123
1.65533	-117
1.65900	-110
1.66267	-115
1.66633	-126
1.67000	-139
1.67367	-147
1.67733	-145
1.68100	-144
1.68467	-136
1.68833	-126
1.69200	-124
1.69567	-132
1.69933	-139
1.70300	-148
1.70667	-147
1.71033	-148
1.71400	-155
1.71767	-157
1.72133	-153
1.72500	-148
1.72867	-143
1.73233	-138
1.73600	-135
1.73967	-131
1.74333	-130
1.74700	-129
1.75067	-127
1.75433	-126
1.75800	-123
1.76167	-122
1.76533	-126
1.76900	-130
1.77267	-132
1.77633	-135
1.78000	-137
1.78367	-134
1.78733	-126
1.79100	-120
1.79467	-116
1.79833	-114
1.80200	-114
1.80567	-116
1.80933	-114
1.81300	-109
1.81667	-107
1.82033	-109
1.82400	-109
1.82767	-107
1.83133	-104
1.83500	-103
1.83867	-102
1.84233	-103
1.84600	-101
1.84967	-99
1.85333	-95
1.85700	-90
1.86067	-86
1.86433	-85
1.86800	-87
1.87167	-92
1.87533	-93
1.87900	-93
1.88267	-89
1.88633	-84
1.89000	-81
1.89367	-82
1.89733	-85
1.90100	-87
1.90467	-91
1.90833	-95
1.91200	-99
1.91567	-108
1.91933	-111
1.92300	-108
1.92667	-105
1.93033	-101
1.93400	-94
1.93767	-89
1.94133	-85
1.94500	-83
1.94867	-79
1.95233	-72
1.95600	-21
1.95967	289
1.96333	1844
1.96700	8002
1.97067	26611
1.97433	70042
1.97800	149235
1.98167	263713
1.98533	397771
1.98900	527724
1.99267	631608
1.99633	693797
2.00000	705606
2.00367	667031
2.00733	587864
2.01100	485126
2.01467	377601
2.01833	279968
2.02200	199929
2.02567	139018
2.02933	95065
2.03300	64496
2.03667	43750
2.04033	29881
2.04400	20680
2.04767	14578
2.05133	10511
2.05500	7776
2.05867	5910
2.06233	4612
2.06600	3689
2.06967	3018
2.07333	2522
2.07700	2146
2.08067	1859
2.08433	1641
2.08800	1469
2.09167	1324
2.09533	1191
2.09900	1069
2.10267	966
2.10633	876
2.11000	796
2.11367	726
2.11733	668
2.12100	623
2.12467	583
2.12833	547
2.13200	514
2.13567	484
2.13933	460
2.14300	441
2.14667	423
2.15033	407
2.15400	394
2.15767	381
2.16133	370
2.16500	356
2.16867	339
2.17233	322
2.17600	307
2.17967	295
2.18333	286
2.18700	276
2.19067	259
2.19433	248
2.19800	241
2.20167	241
2.20533	233
2.20900	219
2.21267	207
2.21633	203
2.22000	204
2.22367	204
2.22733	203
2.23100	195
2.23467	187
2.23833	177
2.24200	167
2.24567	161
2.24933	166
2.25300	166
2.25667	162
2.26033	156
2.26400	151
2.26767	147
2.27133	143
2.27500	141
2.27867	138
2.28233	135
2.28600	132
2.28967	125
2.29333	121
2.29700	122
2.30067	125
2.30433	124
2.30800	118
2.31167	112
2.31533	107
2.31900	104
2.32267	100
2.32633	96
2.33000	92
2.33367	96
2.33733	98
2.34100	97
2.34467	96
2.34833	97
2.35200	99
2.35567	99
2.35933	94
2.36300	88
2.36667	85
2.37033	81
2.37400	79
2.37767	79
2.38133	80
2.38500	79
2.38867	81
2.39233	87
2.39600	91
2.39967	88
2.40333	83
2.40700	75
2.41067	69
2.41433	65
2.41800	61
2.42167	56
2.42533	53
2.42900	60
2.43267	68
2.43633	69
2.44000	65
2.44367	60
2.44733	57
2.45100	58
2.45467	62
2.45833	65
2.46200	68
2.46567	68
2.46933	67
2.47300	65
2.47667	63
2.48033	62
2.48400	64
2.48767	70
2.49133	78
2.49500	85
2.49867	84
2.50233	76
2.50600	64
2.50967	53
2.51333	42
2.51700	37
2.52067	34
2.52433	34
2.52800	39
2.53167	48
2.53533	59
2.53900	65
2.54267	65
2.54633	62
2.55000	56
2.55367	50
2.55733	43
2.56100	36
2.56467	31
2.56833	31
2.57200	32
2.57567	33
2.57933	29
2.58300	26
2.58667	26
2.59033	27
2.59400	31
2.59767	36
2.60133	37
2.60500	38
2.60867	40
2.61233	42
2.61600	43
2.61967	37
2.62333	29
2.62700	28
2.63067	25
2.63433	24
2.63800	25
2.64167	27
2.64533	23
2.64900	18
2.65267	12
2.65633	9
2.66000	6
2.66367	4
2.66733	6
2.67100	9
2.67467	18
2.67833	25
2.68200	26
2.68567	24
2.68933	20
2.69300	12
2.69667	3
2.70033	-3
2.70400	-8
2.70767	-12
2.71133	-11
2.71500	-8
2.71867	-2
2.72233	2
2.72600	2
2.72967	-0
2.73333	-1
2.73700	0
2.74067	2
2.74433	7
2.74800	9
2.75167	5
2.75533	-2
2.75900	-8
2.76267	-15
2.76633	-16
2.77000	-6
2.77367	5
2.77733	10
2.78100	8
2.78467	2
2.78833	-7
2.79200	-16
2.79567	-22
2.79933	-25
2.80300	-26
2.80667	-23
2.81033	-17
2.81400	-16
2.81767	-16
2.82133	-17
2.82500	-19
2.82867	-20
2.83233	-21
2.83600	-19
2.83967	-17
2.84333	-17
2.84700	-20
2.85067	-24
2.85433	-26
2.85800	-27
2.86167	-26
2.86533	-25
2.86900	-23
2.87267	-19
2.87633	-13
2.88000	-9
2.88367	-12
2.88733	-18
2.89100	-25
2.89467	-30
2.89833	-38
2.90200	-43
2.90567	-43
2.90933	-35
2.91300	-22
2.91667	-10
2.92033	-3
2.92400	-3
2.92767	-10
2.93133	-22
2.93500	-32
2.93867	-39
2.94233	-43
2.94600	-48
2.94967	-56
2.95333	-61
2.95700	-60
2.96067	-59
2.96433	-54
2.96800	-46
2.97167	-40
2.97533	-37
2.97900	-33
2.98267	-36
2.98633	-36
2.99000	-30
2.99367	-31
2.99733	-28
3.00100	-22
3.00467	-13
3.00833	-5
3.01200	-2
3.01567	-7
3.01933	-13
3.02300	-17
3.02667	-18
3.03033	-17
3.03400	-21
3.03767	-26
3.04133	-30
3.04500	-30
3.04867	-31
3.05233	-31
3.05600	-30
3.05967	-32
3.06333	-33
3.06700	-38
3.07067	-40
3.07433	-45
3.07800	-49
3.08167	-48
3.08533	-42
3.08900	-36
3.09267	-37
3.09633	-40
3.10000	-41
3.10367	-48
3.10733	-55
3.11100	-60
3.11467	-64
3.11833	-66
3.12200	-63
3.12567	-57
3.12933	-51
3.13300	-43
3.13667	-36
3.14033	-34
3.14400	-36
3.14767	-39
3.15133	-41
3.15500	-45
3.15867	-47
3.16233	-47
3.16600	-49
3.16967	-51
3.17333	-50
3.17700	-48
3.18067	-53
3.18433	-60
3.18800	-64
3.19167	-66
3.19533	-70
3.19900	-72
3.20267	-65
3.20633	-53
3.21000	-48
3.21367	-49
3.21733	-53
3.22100	-57
3.22467	-58
3.22833	-59
3.23200	-57
3.23567	-57
3.23933	-55
3.24300	-52
3.24667	-54
3.25033	-55
3.25400	-51
3.25767	-48
3.26133	-48
3.26500	-52
3.26867	-58
3.27233	-60
3.27600	-60
3.27967	-57
3.28333	-52
3.28700	-47
3.29067	-44
3.29433	-45
3.29800	-47
3.30167	-52
3.30533	-57
3.30900	-61
3.31267	-64
3.31633	-63
3.32000	-59
3.32367	-52
3.32733	-45
3.33100	-46
3.33467	-53
3.33833	-58
3.34200	-61
3.34567	-65
3.34933	-71
3.35300	-75
3.35667	-75
3.36033	-70
3.36400	-65
3.36767	-60
3.37133	-58
3.37500	-61
3.37867	-65
3.38233	-68
3.38600	-71
3.38967	-70
3.39333	-67
3.39700	-64
3.40067	-62
3.40433	-62
3.40800	-63
3.41167	-62
3.41533	-60
3.41900	-58
3.42267	-55
3.42633	-49
3.43000	-44
3.43367	-45
3.43733	-48
3.44100	-49
3.44467	-48
3.44833	-46
3.45200	-45
3.45567	-49
3.45933	-58
3.46300	-68
3.46667	-77
3.47033	-83
3.47400	-86
3.47767	-85
3.48133	-82
3.48500	-80
3.48867	-80
3.49233	-81
3.49600	-83
3.49967	-85
3.50333	-81
3.50700	-77
3.51067	-75
3.51433	-72
3.51800	-70
3.52167	-71
3.52533	-71
3.52900	-68
3.53267	-64
3.53633	-63
3.54000	-63
3.54367	-63
3.54733	-65
3.55100	-70
3.55467	-72
3.55833	-72
3.56200	-71
3.56567	-69
3.56933	-69
3.57300	-70
3.57667	-71
3.58033	-71
3.58400	-73
3.58767	-75
3.59133	-76
3.59500	-74
3.59867	-69
3.60233	-62
3.60600	-55
3.60967	-57
3.61333	-64
3.61700	-71
3.62067	-74
3.62433	-74
3.62800	-70
3.63167	-71
3.63533	-74
3.63900	-78
3.64267	-81
3.64633	-80
3.65000	-75
3.65367	-68
3.65733	-64
3.66100	-62
3.66467	-59
3.66833	-56
3.67200	-61
3.67567	-67
3.67933	-72
3.68300	-75
3.68667	-79
3.69033	-79
3.69400	-77
3.69767	-73
3.70133	-71
3.70500	-73
3.70867	-73
3.71233	-75
3.71600	-77
3.71967	-80
3.72333	-82
3.72700	-81
3.73067	-74
3.73433	-71
3.73800	-70
3.74167	-67
3.74533	-58
3.74900	-48
3.75267	-44
3.75633	-45
3.76000	-48
3.76367	-54
3.76733	-61
3.77100	-67
3.77467	-68
3.77833	-66
3.78200	-65
3.78567	-67
3.78933	-69
3.79300	-66
3.79667	-62
3.80033	-65
3.80400	-68
3.80767	-68
3.81133	-70
3.81500	-76
3.81867	-83
3.82233	-86
3.82600	-84
3.82967	-79
3.83333	-76
3.83700	-76
3.84067	-76
3.84433	-73
3.84800	-71
3.85167	-74
3.85533	-77
3.85900	-79
3.86267	-84
3.86633	-86
3.87000	-85
3.87367	-82
3.87733	-76
3.88100	-70
3.88467	-64
3.88833	-66
3.89200	-69
3.89567	-76
3.89933	-82
3.90300	-79
3.90667	-76
3.91033	-74
3.91400	-74
3.91767	-74
3.92133	-80
3.92500	-86
3.92867	-95
3.93233	-94
3.93600	-92
3.93967	-91
3.94333	-91
3.94700	-91
3.95067	-89
3.95433	-88
3.95800	-86
3.96167	-82
3.96533	-78
3.96900	-70
3.97267	-62
3.97633	-57
3.98000	-55
3.98367	-58
3.98733	-57
3.99100	-58
3.99467	-63
3.99833	-71

[Chromatogram (Ch2)]
Interval(msec)	220
# of Points	1091
Start Time(min)	0.002
End Time(min)	3.998
R.Time (min)	Intensity
0.00167	0
0.00533	1
0.00900	1
0.01267	1
0.01633	1
0.02000	1
0.02367	1
0.02733	1
0.03100	1
0.03467	1
0.03833	1
0.04200	1
0.04567	1
0.04933	1
0.05300	1
0.05667	1
0.06033	1
0.06400	0
0.06767	0
0.07133	-0
0.07500	-1
0.07867	-1
0.08233	-1
0.08600	-1
0.08967	-1
0.09333	-1
0.09700	-1
0.10067	-1
0.10433	-0
0.10800	0
0.11167	0
0.11533	1
0.11900	1
0.12267	1
0.12633	1
0.13000	1
0.13367	1
0.13733	1
0.14100	1
0.14467	2
0.14833	2
0.15200	2
0.15567	3
0.15933	3
0.16300	3
0.16667	3
0.17033	3
0.17400	3
0.17767	2
0.18133	2
0.18500	2
0.18867	2
0.19233	2
0.19600	2
0.19967	1
0.20333	1
0.20700	2
0.21067	2
0.21433	2
0.21800	2
0.22167	2
0.22533	2
0.22900	2
0.23267	1
0.23633	1
0.24000	1
0.24367	1
0.24733	2
0.25100	2
0.25467	2
0.25833	2
0.26200	2
0.26567	3
0.26933	3
0.27300	4
0.27667	4
0.28033	4
0.28400	4
0.28767	4
0.29133	4
0.29500	4
0.29867	4
0.30233	4
0.30600	4
0.30967	3
0.31333	3
0.31700	3
0.32067	3
0.32433	3
0.32800	3
0.33167	3
0.33533	3
0.33900	2
0.34267	2
0.34633	2
0.35000	2
0.35367	2
0.35733	2
0.36100	2
0.36467	2
0.36833	3
0.37200	3
0.37567	3
0.37933	3
0.38300	3
0.38667	3
0.39033	3
0.39400	3
0.39767	3
0.40133	3
0.40500	3
0.40867	3
0.41233	3
0.41600	3
0.41967	3
0.42333	3
0.42700	3
0.43067	3
0.43433	3
0.43800	3
0.44167	3
0.44533	3
0.44900	3
0.45267	2
0.45633	2
0.46000	2
0.46367	2
0.46733	2
0.47100	3
0.47467	3
0.47833	3
0.48200	3
0.48567	3
0.48933	3
0.49300	3
0.49667	3
0.50033	3
0.50400	3
0.50767	3
0.51133	3
0.51500	3
0.51867	2
0.52233	2
0.52600	2
0.52967	1
0.53333	1
0.53700	0
0.54067	-0
0.54433	-1
0.54800	-1
0.55167	-1
0.55533	-1
0.55900	-1
0.56267	-1
0.56633	-1
0.57000	-1
0.57367	-0
0.57733	0
0.58100	0
0.58467	1
0.58833	1
0.59200	1
0.59567	1
0.59933	1
0.60300	1
0.60667	1
0.61033	2
0.61400	2
0.61767	2
0.62133	3
0.62500	3
0.62867	3
0.63233	2
0.63600	2
0.63967	2
0.64333	2
0.64700	2
0.65067	2
0.65433	2
0.65800	2
0.66167	1
0.66533	1
0.66900	1
0.67267	1
0.67633	1
0.68000	1
0.68367	1
0.68733	2
0.69100	2
0.69467	2
0.69833	2
0.70200	2
0.70567	2
0.70933	2
0.71300	1
0.71667	1
0.72033	1
0.72400	1
0.72767	1
0.73133	1
0.73500	1
0.73867	1
0.74233	1
0.74600	1
0.74967	1
0.75333	1
0.75700	1
0.76067	1
0.76433	1
0.76800	1
0.77167	1
0.77533	1
0.77900	1
0.78267	1
0.78633	1
0.79000	0
0.79367	0
0.79733	-0
0.80100	-0
0.80467	-1
0.80833	-1
0.81200	-1
0.81567	-1
0.81933	-2
0.82300	-2
0.82667	-1
0.83033	-1
0.83400	-1
0.83767	-1
0.84133	-0
0.84500	0
0.84867	0
0.85233	0
0.85600	0
0.85967	1
0.86333	1
0.86700	1
0.87067	1
0.87433	1
0.87800	2
0.88167	2
0.88533	2
0.88900	2
0.89267	2
0.89633	2
0.90000	2
0.90367	2
0.90733	2
0.91100	2
0.91467	2
0.91833	2
0.92200	2
0.92567	2
0.92933	2
0.93300	2
0.93667	2
0.94033	2
0.94400	2
0.94767	2
0.95133	2
0.95500	2
0.95867	2
0.96233	2
0.96600	2
0.96967	1
0.97333	1
0.97700	1
0.98067	1
0.98433	1
0.98800	1
0.99167	0
0.99533	0
0.99900	0
1.00267	-0
1.00633	-0
1.01000	-0
1.01367	-0
1.01733	-0
1.02100	-0
1.02467	-0
1.02833	-0
1.03200	-0
1.03567	-0
1.03933	-0
1.04300	-0
1.04667	-0
1.05033	-0
1.05400	-0
1.05767	-1
1.06133	-1
1.06500	-1
1.06867	-1
1.07233	-1
1.07600	-1
1.07967	-1
1.08333	-1
1.08700	-1
1.09067	-1
1.09433	-1
1.09800	-1
1.10167	-1
1.10533	-1
1.10900	-1
1.11267	-1
1.11633	-1
1.12000	-1
1.12367	-1
1.12733	-1
1.13100	-1
1.13467	-1
1.13833	-0
1.14200	0
1.14567	0
1.14933	1
1.15300	1
1.15667	1
1.16033	1
1.16400	1
1.16767	1
1.17133	1
1.17500	1
1.17867	1
1.18233	2
1.18600	2
1.18967	2
1.19333	1
1.19700	1
1.20067	1
1.20433	1
1.20800	0
1.21167	0
1.21533	0
1.21900	0
1.22267	0
1.22633	0
1.23000	0
1.23367	0
1.23733	0
1.24100	0
1.24467	0
1.24833	0
1.25200	0
1.25567	-0
1.25933	-0
1.26300	-0
1.26667	-0
1.27033	-0
1.27400	-0
1.27767	-0
1.28133	-0
1.28500	-1
1.28867	-1
1.29233	-2
1.29600	-2
1.29967	-2
1.30333	-3
1.30700	-3
1.31067	-3
1.31433	-3
1.31800	-3
1.32167	-3
1.32533	-4
1.32900	-4
1.33267	-4
1.33633	-4
1.34000	-4
1.34367	-4
1.34733	-4
1.35100	-5
1.35467	-5
1.35833	-4
1.36200	-4
1.36567	-4
1.36933	-4
1.37300	-4
1.37667	-3
1.38033	-3
1.38400	-3
1.38767	-2
1.39133	-2
1.39500	-2
1.39867	-2
1.40233	-1
1.40600	-1
1.40967	-1
1.41333	-0
1.41700	0
1.42067	1
1.42433	1
1.42800	1
1.43167	2
1.43533	2
1.43900	2
1.44267	3
1.44633	3
1.45000	3
1.45367	3
1.45733	3
1.46100	3
1.46467	3
1.46833	3
1.47200	3
1.47567	4
1.47933	4
1.48300	4
1.48667	3
1.49033	3
1.49400	2
1.49767	2
1.50133	2
1.50500	2
1.50867	2
1.51233	2
1.51600	1
1.51967	1
1.52333	1
1.52700	1
1.53067	1
1.53433	0
1.53800	0
1.54167	0
1.54533	0
1.54900	0
1.55267	0
1.55633	0
1.56000	0
1.56367	0
1.56733	0
1.57100	0
1.57467	0
1.57833	-0
1.58200	-0
1.58567	-1
1.58933	-1
1.59300	-1
1.59667	-2
1.60033	-2
1.60400	-3
1.60767	-5
1.61133	-6
1.61500	-8
1.61867	-10
1.62233	-12
1.62600	-15
1.62967	-18
1.63333	-21
1.63700	-24
1.64067	-28
1.64433	-31
1.64800	-35
1.65167	-38
1.65533	-42
1.65900	-46
1.66267	-51
1.66633	-55
1.67000	-60
1.67367	-65
1.67733	-71
1.68100	-76
1.68467	-80
1.68833	-85
1.69200	-88
1.69567	-92
1.69933	-94
1.70300	-97
1.70667	-100
1.71033	-102
1.71400	-103
1.71767	-105
1.72133	-106
1.72500	-107
1.72867	-108
1.73233	-109
1.73600	-110
1.73967	-111
1.74333	-112
1.74700	-113
1.75067	-114
1.75433	-115
1.75800	-116
1.76167	-116
1.76533	-117
1.76900	-117
1.77267	-117
1.77633	-118
1.78000	-118
1.78367	-119
1.78733	-119
1.79100	-119
1.79467	-120
1.79833	-120
1.80200	-120
1.80567	-120
1.80933	-120
1.81300	-120
1.81667	-120
1.82033	-120
1.82400	-121
1.82767	-121
1.83133	-122
1.83500	-122
1.83867	-123
1.84233	-123
1.84600	-122
1.84967	-121
1.85333	-120
1.85700	-120
1.86067	-119
1.86433	-118
1.86800	-118
1.87167	-118
1.87533	-118
1.87900	-118
1.88267	-118
1.88633	-118
1.89000	-118
1.89367	-117
1.89733	-117
1.90100	-117
1.90467	-116
1.90833	-116
1.91200	-116
1.91567	-116
1.91933	-116
1.92300	-116
1.92667	-117
1.93033	-117
1.93400	-117
1.93767	-116
1.94133	-116
1.94500	-116
1.94867	-115
1.95233	-115
1.95600	-115
1.95967	-115
1.96333	-115
1.96700	-115
1.97067	-115
1.97433	-115
1.97800	-115
1.98167	-114
1.98533	-114
1.98900	-114
1.99267	-114
1.99633	-114
2.00000	-114
2.00367	-113
2.00733	-113
2.01100	-114
2.01467	-114
2.01833	-113
2.02200	-113
2.02567	-112
2.02933	-112
2.03300	-111
2.03667	-110
2.04033	-110
2.04400	-109
2.04767	-108
2.05133	-108
2.05500	-107
2.05867	-107
2.06233	-107
2.06600	-107
2.06967	-107
2.07333	-108
2.07700	-108
2.08067	-108
2.08433	-108
2.08800	-107
2.09167	-107
2.09533	-106
2.09900	-106
2.10267	-105
2.10633	-104
2.11000	-104
2.11367	-104
2.11733	-104
2.12100	-104
2.12467	-104
2.12833	-104
2.13200	-104
2.13567	-103
2.13933	-103
2.14300	-102
2.14667	-102
2.15033	-101
2.15400	-100
2.15767	-99
2.16133	-99
2.16500	-98
2.16867	-98
2.17233	-98
2.17600	-98
2.17967	-99
2.18333	-98
2.18700	-98
2.19067	-98
2.19433	-97
2.19800	-97
2.20167	-96
2.20533	-96
2.20900	-95
2.21267	-95
2.21633	-94
2.22000	-93
2.22367	-93
2.22733	-92
2.23100	-93
2.23467	-94
2.23833	-94
2.24200	-95
2.24567	-95
2.24933	-96
2.25300	-96
2.25667	-95
2.26033	-95
2.26400	-95
2.26767	-94
2.27133	-93
2.27500	-93
2.27867	-93
2.28233	-92
2.28600	-92
2.28967	-92
2.29333	-92
2.29700	-92
2.30067	-92
2.30433	-92
2.30800	-92
2.31167	-91
2.31533	-90
2.31900	-89
2.32267	-88
2.32633	-87
2.33000	-87
2.33367	-87
2.33733	-87
2.34100	-87
2.34467	-86
2.34833	-86
2.35200	-85
2.35567	-85
2.35933	-84
2.36300	-84
2.36667	-83
2.37033	-82
2.37400	-81
2.37767	-79
2.38133	-76
2.38500	-73
2.38867	-69
2.39233	-65
2.39600	-61
2.39967	-56
2.40333	-51
2.40700	-46
2.41067	-42
2.41433	-37
2.41800	-33
2.42167	-30
2.42533	-27
2.42900	-24
2.43267	-22
2.43633	-20
2.44000	-17
2.44367	-15
2.44733	-13
2.45100	-11
2.45467	-9
2.45833	-8
2.46200	-6
2.46567	-5
2.46933	-3
2.47300	-3
2.47667	-2
2.48033	-2
2.48400	-1
2.48767	-0
2.49133	1
2.49500	2
2.49867	3
2.50233	4
2.50600	5
2.50967	6
2.51333	7
2.51700	8
2.52067	8
2.52433	9
2.52800	9
2.53167	10
2.53533	10
2.53900	10
2.54267	10
2.54633	11
2.55000	11
2.55367	12
2.55733	12
2.56100	13
2.56467	14
2.56833	15
2.57200	15
2.57567	15
2.57933	15
2.58300	15
2.58667	15
2.59033	15
2.59400	15
2.59767	15
2.60133	15
2.60500	16
2.60867	16
2.61233	16
2.61600	17
2.61967	17
2.62333	17
2.62700	17
2.63067	18
2.63433	18
2.63800	18
2.64167	18
2.64533	18
2.64900	18
2.65267	18
2.65633	18
2.66000	18
2.66367	18
2.66733	18
2.67100	18
2.67467	18
2.67833	18
2.68200	18
2.68567	19
2.68933	19
2.69300	20
2.69667	20
2.70033	21
2.70400	22
2.70767	22
2.71133	23
2.71500	23
2.71867	24
2.72233	24
2.72600	24
2.72967	24
2.73333	24
2.73700	23
2.74067	23
2.74433	23
2.74800	23
2.75167	23
2.75533	23
2.75900	23
2.76267	23
2.76633	24
2.77000	24
2.77367	24
2.77733	24
2.78100	25
2.78467	25
2.78833	25
2.79200	25
2.79567	25
2.79933	25
2.80300	25
2.80667	25
2.81033	24
2.81400	24
2.81767	25
2.82133	25
2.82500	25
2.82867	25
2.83233	25
2.83600	25
2.83967	25
2.84333	24
2.84700	22
2.85067	19
2.85433	14
2.85800	6
2.86167	-4
2.86533	-19
2.86900	-37
2.87267	-59
2.87633	-85
2.88000	-116
2.88367	-150
2.88733	-188
2.89100	-229
2.89467	-273
2.89833	-319
2.90200	-367
2.90567	-416
2.90933	-467
2.91300	-518
2.91667	-568
2.92033	-619
2.92400	-669
2.92767	-719
2.93133	-768
2.93500	-817
2.93867	-870
2.94233	-929
2.94600	-992
2.94967	-1048
2.95333	-1087
2.95700	-1102
2.96067	-1090
2.96433	-1053
2.96800	-997
2.97167	-927
2.97533	-850
2.97900	-769
2.98267	-689
2.98633	-611
2.99000	-538
2.99367	-471
2.99733	-409
3.00100	-354
3.00467	-305
3.00833	-261
3.01200	-223
3.01567	-189
3.01933	-160
3.02300	-135
3.02667	-114
3.03033	-95
3.03400	-80
3.03767	-66
3.04133	-55
3.04500	-45
3.04867	-37
3.05233	-29
3.05600	-23
3.05967	-18
3.06333	-14
3.06700	-10
3.07067	-6
3.07433	-3
3.07800	-1
3.08167	2
3.08533	4
3.08900	5
3.09267	7
3.09633	8
3.10000	9
3.10367	10
3.10733	11
3.11100	12
3.11467	13
3.11833	13
3.12200	14
3.12567	14
3.12933	15
3.13300	15
3.13667	16
3.14033	16
3.14400	16
3.14767	17
3.15133	18
3.15500	18
3.15867	18
3.16233	18
3.16600	18
3.16967	18
3.17333	19
3.17700	19
3.18067	19
3.18433	19
3.18800	19
3.19167	19
3.19533	19
3.19900	19
3.20267	19
3.20633	19
3.21000	19
3.21367	20
3.21733	20
3.22100	21
3.22467	21
3.22833	22
3.23200	22
3.23567	22
3.23933	22
3.24300	23
3.24667	23
3.25033	23
3.25400	23
3.25767	24
3.26133	24
3.26500	24
3.26867	24
3.27233	24
3.27600	24
3.27967	24
3.28333	24
3.28700	24
3.29067	24
3.29433	24
3.29800	23
3.30167	23
3.30533	23
3.30900	23
3.31267	23
3.31633	23
3.32000	23
3.32367	24
3.32733	24
3.33100	24
3.33467	24
3.33833	24
3.34200	24
3.34567	24
3.34933	24
3.35300	24
3.35667	24
3.36033	24
3.36400	24
3.36767	24
3.37133	24
3.37500	25
3.37867	25
3.38233	25
3.38600	25
3.38967	25
3.39333	25
3.39700	25
3.40067	25
3.40433	25
3.40800	25
3.41167	25
3.41533	25
3.41900	25
3.42267	25
3.42633	25
3.43000	25
3.43367	25
3.43733	25
3.44100	25
3.44467	25
3.44833	25
3.45200	25
3.45567	25
3.45933	25
3.46300	25
3.46667	26
3.47033	26
3.47400	26
3.47767	26
3.48133	26
3.48500	26
3.48867	26
3.49233	26
3.49600	25
3.49967	25
3.50333	25
3.50700	25
3.51067	25
3.51433	24
3.51800	24
3.52167	25
3.52533	25
3.52900	25
3.53267	25
3.53633	25
3.54000	25
3.54367	25
3.54733	25
3.55100	26
3.55467	26
3.55833	26
3.56200	26
3.56567	26
3.56933	27
3.57300	27
3.57667	27
3.58033	27
3.58400	27
3.58767	28
3.59133	28
3.59500	28
3.59867	28
3.60233	28
3.60600	28
3.60967	29
3.61333	28
3.61700	28
3.62067	28
3.62433	28
3.62800	28
3.63167	27
3.63533	27
3.63900	27
3.64267	27
3.64633	27
3.65000	27
3.65367	27
3.65733	27
3.66100	26
3.66467	26
3.66833	26
3.67200	26
3.67567	26
3.67933	26
3.68300	26
3.68667	26
3.69033	26
3.69400	26
3.69767	26
3.70133	26
3.70500	26
3.70867	25
3.71233	25
3.71600	25
3.71967	25
3.72333	25
3.72700	25
3.73067	25
3.73433	25
3.73800	25
3.74167	25
3.74533	25
3.74900	25
3.75267	25
3.75633	25
3.76000	25
3.76367	25
3.76733	25
3.77100	26
3.77467	26
3.77833	26
3.78200	26
3.78567	26
3.78933	26
3.79300	26
3.79667	26
3.80033	26
3.80400	26
3.80767	26
3.81133	26
3.81500	26
3.81867	26
3.82233	26
3.82600	26
3.82967	26
3.83333	26
3.83700	26
3.84067	25
3.84433	25
3.84800	25
3.85167	25
3.85533	25
3.85900	25
3.86267	25
3.86633	25
3.87000	25
3.87367	25
3.87733	26
3.88100	26
3.88467	26
3.88833	26
3.89200	26
3.89567	26
3.89933	26
3.90300	26
3.90667	26
3.91033	25
3.91400	25
3.91767	24
3.92133	24
3.92500	24
3.92867	23
3.93233	23
3.93600	23
3.93967	23
3.94333	23
3.94700	23
3.95067	24
3.95433	24
3.95800	24
3.96167	24
3.96533	24
3.96900	24
3.97267	24
3.97633	24
3.98000	24
3.98367	24
3.98733	24
3.99100	24
3.99467	24
3.99833	24

[Chromatogram (Ch3)]
Interval(msec)	220
# of Points	1091
Start Time(min)	0.002
End Time(min)	3.998
R.Time (min)	Intensity
0.00167	1
0.00533	2
0.00900	1
0.01267	2
0.01633	3
0.02000	3
0.02367	3
0.02733	4
0.03100	2
0.03467	2
0.03833	1
0.04200	-0
0.04567	0
0.04933	1
0.05300	2
0.05667	2
0.06033	2
0.06400	1
0.06767	0
0.07133	1
0.07500	1
0.07867	1
0.08233	3
0.08600	6
0.08967	7
0.09333	6
0.09700	3
0.10067	3
0.10433	3
0.10800	4
0.11167	3
0.11533	3
0.11900	1
0.12267	-2
0.12633	-3
0.13000	-0
0.13367	1
0.13733	1
0.14100	2
0.14467	3
0.14833	3
0.15200	3
0.15567	3
0.15933	3
0.16300	3
0.16667	2
0.17033	3
0.17400	4
0.17767	3
0.18133	2
0.18500	2
0.18867	2
0.19233	3
0.19600	4
0.19967	7
0.20333	7
0.20700	7
0.21067	6
0.21433	3
0.21800	1
0.22167	2
0.22533	4
0.22900	3
0.23267	4
0.23633	6
0.24000	7
0.24367	8
0.24733	8
0.25100	5
0.25467	4
0.25833	5
0.26200	6
0.26567	4
0.26933	4
0.27300	3
0.27667	3
0.28033	5
0.28400	7
0.28767	9
0.29133	9
0.29500	10
0.29867	9
0.30233	7
0.30600	7
0.30967	7
0.31333	7
0.31700	6
0.32067	6
0.32433	6
0.32800	6
0.33167	7
0.33533	8
0.33900	10
0.34267	13
0.34633	15
0.35000	14
0.35367	10
0.35733	7
0.36100	4
0.36467	4
0.36833	4
0.37200	6
0.37567	7
0.37933	6
0.38300	6
0.38667	8
0.39033	9
0.39400	10
0.39767	10
0.40133	11
0.40500	12
0.40867	11
0.41233	11
0.41600	8
0.41967	6
0.42333	6
0.42700	8
0.43067	7
0.43433	8
0.43800	7
0.44167	6
0.44533	7
0.44900	6
0.45267	5
0.45633	6
0.46000	8
0.46367	9
0.46733	10
0.47100	12
0.47467	13
0.47833	12
0.48200	11
0.48567	11
0.48933	10
0.49300	8
0.49667	8
0.50033	9
0.50400	9
0.50767	11
0.51133	12
0.51500	13
0.51867	12
0.52233	11
0.52600	10
0.52967	8
0.53333	8
0.53700	9
0.54067	11
0.54433	9
0.54800	7
0.55167	8
0.55533	10
0.55900	13
0.56267	12
0.56633	11
0.57000	11
0.57367	11
0.57733	10
0.58100	10
0.58467	13
0.58833	15
0.59200	16
0.59567	15
0.59933	16
0.60300	19
0.60667	19
0.61033	17
0.61400	16
0.61767	16
0.62133	15
0.62500	13
0.62867	13
0.63233	13
0.63600	12
0.63967	12
0.64333	12
0.64700	12
0.65067	11
0.65433	11
0.65800	11
0.66167	10
0.66533	11
0.66900	12
0.67267	11
0.67633	9
0.68000	10
0.68367	12
0.68733	13
0.69100	15
0.69467	17
0.69833	17
0.70200	18
0.70567	19
0.70933	19
0.71300	18
0.71667	19
0.72033	19
0.72400	18
0.72767	18
0.73133	18
0.73500	18
0.73867	17
0.74233	15
0.74600	13
0.74967	13
0.75333	14
0.75700	14
0.76067	14
0.76433	14
0.76800	16
0.77167	18
0.77533	19
0.77900	20
0.78267	23
0.78633	23
0.79000	21
0.79367	21
0.79733	22
0.80100	22
0.80467	22
0.80833	23
0.81200	23
0.81567	23
0.81933	21
0.82300	20
0.82667	20
0.83033	20
0.83400	21
0.83767	22
0.84133	22
0.84500	20
0.84867	19
0.85233	20
0.85600	21
0.85967	22
0.86333	22
0.86700	22
0.87067	20
0.87433	18
0.87800	18
0.88167	18
0.88533	18
0.88900	20
0.89267	23
0.89633	25
0.90000	26
0.90367	24
0.90733	22
0.91100	18
0.91467	17
0.91833	20
0.92200	22
0.92567	22
0.92933	23
0.93300	24
0.93667	25
0.94033	26
0.94400	26
0.94767	25
0.95133	25
0.95500	25
0.95867	26
0.96233	27
0.96600	25
0.96967	25
0.97333	27
0.97700	28
0.98067	27
0.98433	24
0.98800	21
0.99167	20
0.99533	21
0.99900	23
1.00267	23
1.00633	24
1.01000	26
1.01367	26
1.01733	26
1.02100	25
1.02467	25
1.02833	28
1.03200	29
1.03567	29
1.03933	29
1.04300	30
1.04667	30
1.05033	28
1.05400	26
1.05767	27
1.06133	27
1.06500	27
1.06867	26
1.07233	25
1.07600	23
1.07967	21
1.08333	20
1.08700	21
1.09067	21
1.09433	20
1.09800	23
1.10167	26
1.10533	30
1.10900	31
1.11267	31
1.11633	31
1.12000	29
1.12367	30
1.12733	29
1.13100	27
1.13467	27
1.13833	27
1.14200	27
1.14567	27
1.14933	28
1.15300	26
1.15667	26
1.16033	27
1.16400	25
1.16767	23
1.17133	23
1.17500	23
1.17867	23
1.18233	23
1.18600	24
1.18967	26
1.19333	27
1.19700	26
1.20067	24
1.20433	23
1.20800	21
1.21167	21
1.21533	24
1.21900	26
1.22267	28
1.22633	27
1.23000	26
1.23367	28
1.23733	28
1.24100	26
1.24467	24
1.24833	24
1.25200	24
1.25567	25
1.25933	24
1.26300	24
1.26667	23
1.27033	22
1.27400	24
1.27767	26
1.28133	25
1.28500	25
1.28867	26
1.29233	28
1.29600	30
1.29967	30
1.30333	29
1.30700	30
1.31067	31
1.31433	30
1.31800	30
1.32167	29
1.32533	28
1.32900	28
1.33267	28
1.33633	27
1.34000	28
1.34367	28
1.34733	28
1.35100	27
1.35467	28
1.35833	30
1.36200	31
1.36567	32
1.36933	31
1.37300	30
1.37667	30
1.38033	31
1.38400	31
1.38767	31
1.39133	33
1.39500	35
1.39867	34
1.40233	33
1.40600	32
1.40967	32
1.41333	33
1.41700	34
1.42067	34
1.42433	34
1.42800	35
1.43167	36
1.43533	35
1.43900	35
1.44267	34
1.44633	34
1.45000	33
1.45367	32
1.45733	31
1.46100	30
1.46467	28
1.46833	30
1.47200	30
1.47567	30
1.47933	31
1.48300	33
1.48667	34
1.49033	33
1.49400	33
1.49767	33
1.50133	32
1.50500	33
1.50867	33
1.51233	32
1.51600	31
1.51967	31
1.52333	32
1.52700	34
1.53067	36
1.53433	38
1.53800	40
1.54167	39
1.54533	38
1.54900	39
1.55267	40
1.55633	37
1.56000	34
1.56367	34
1.56733	33
1.57100	33
1.57467	33
1.57833	35
1.58200	35
1.58567	34
1.58933	35
1.59300	35
1.59667	36
1.60033	37
1.60400	37
1.60767	38
1.61133	39
1.61500	41
1.61867	41
1.62233	39
1.62600	38
1.62967	38
1.63333	38
1.63700	38
1.64067	38
1.64433	37
1.64800	38
1.65167	39
1.65533	41
1.65900	42
1.66267	42
1.66633	43
1.67000	44
1.67367	45
1.67733	45
1.68100	46
1.68467	49
1.68833	50
1.69200	50
1.69567	47
1.69933	44
1.70300	44
1.70667	43
1.71033	41
1.71400	41
1.71767	44
1.72133	47
1.72500	49
1.72867	51
1.73233	52
1.73600	54
1.73967	55
1.74333	54
1.74700	53
1.75067	53
1.75433	53
1.75800	53
1.76167	53
1.76533	52
1.76900	51
1.77267	53
1.77633	56
1.78000	59
1.78367	62
1.78733	60
1.79100	60
1.79467	62
1.79833	63
1.80200	65
1.80567	67
1.80933	66
1.81300	64
1.81667	62
1.82033	61
1.82400	62
1.82767	65
1.83133	67
1.83500	69
1.83867	69
1.84233	68
1.84600	66
1.84967	66
1.85333	66
1.85700	65
1.86067	68
1.86433	71
1.86800	72
1.87167	72
1.87533	73
1.87900	75
1.88267	76
1.88633	77
1.89000	76
1.89367	77
1.89733	76
1.90100	76
1.90467	77
1.90833	78
1.91200	78
1.91567	77
1.91933	78
1.92300	80
1.92667	80
1.93033	81
1.93400	83
1.93767	84
1.94133	84
1.94500	85
1.94867	86
1.95233	85
1.95600	86
1.95967	88
1.96333	90
1.96700	91
1.97067	90
1.97433	92
1.97800	93
1.98167	94
1.98533	95
1.98900	96
1.99267	95
1.99633	96
2.00000	97
2.00367	98
2.00733	101
2.01100	104
2.01467	106
2.01833	107
2.02200	109
2.02567	108
2.02933	108
2.03300	107
2.03667	109
2.04033	110
2.04400	111
2.04767	113
2.05133	115
2.05500	118
2.05867	122
2.06233	123
2.06600	124
2.06967	125
2.07333	125
2.07700	125
2.08067	125
2.08433	126
2.08800	126
2.09167	126
2.09533	126
2.09900	127
2.10267	129
2.10633	132
2.11000	135
2.11367	136
2.11733	136
2.12100	137
2.12467	138
2.12833	140
2.13200	140
2.13567	140
2.13933	140
2.14300	140
2.14667	141
2.15033	141
2.15400	141
2.15767	142
2.16133	143
2.16500	143
2.16867	142
2.17233	145
2.17600	147
2.17967	148
2.18333	148
2.18700	150
2.19067	151
2.19433	153
2.19800	156
2.20167	158
2.20533	159
2.20900	160
2.21267	161
2.21633	162
2.22000	161
2.22367	162
2.22733	163
2.23100	164
2.23467	163
2.23833	162
2.24200	162
2.24567	164
2.24933	168
2.25300	172
2.25667	173
2.26033	172
2.26400	172
2.26767	170
2.27133	171
2.27500	173
2.27867	175
2.28233	179
2.28600	183
2.28967	183
2.29333	181
2.29700	181
2.30067	183
2.30433	184
2.30800	184
2.31167	186
2.31533	188
2.31900	187
2.32267	186
2.32633	185
2.33000	187
2.33367	187
2.33733	188
2.34100	189
2.34467	192
2.34833	194
2.35200	194
2.35567	195
2.35933	196
2.36300	196
2.36667	198
2.37033	201
2.37400	204
2.37767	206
2.38133	208
2.38500	207
2.38867	205
2.39233	204
2.39600	202
2.39967	199
2.40333	199
2.40700	200
2.41067	202
2.41433	205
2.41800	208
2.42167	211
2.42533	214
2.42900	214
2.43267	215
2.43633	216
2.44000	217
2.44367	219
2.44733	224
2.45100	229
2.45467	229
2.45833	221
2.46200	207
2.46567	191
2.46933	180
2.47300	171
2.47667	163
2.48033	155
2.48400	146
2.48767	135
2.49133	125
2.49500	114
2.49867	101
2.50233	89
2.50600	80
2.50967	71
2.51333	62
2.51700	54
2.52067	45
2.52433	38
2.52800	30
2.53167	24
2.53533	18
2.53900	13
2.54267	9
2.54633	6
2.55000	1
2.55367	-3
2.55733	-8
2.56100	-12
2.56467	-18
2.56833	-23
2.57200	-27
2.57567	-30
2.57933	-32
2.58300	-32
2.58667	-33
2.59033	-35
2.59400	-40
2.59767	-49
2.60133	-59
2.60500	-75
2.60867	-96
2.61233	-123
2.61600	-153
2.61967	-187
2.62333	-223
2.62700	-259
2.63067	-289
2.63433	-315
2.63800	-337
2.64167	-353
2.64533	-363
2.64900	-368
2.65267	-369
2.65633	-367
2.66000	-364
2.66367	-359
2.66733	-354
2.67100	-345
2.67467	-335
2.67833	-324
2.68200	-315
2.68567	-306
2.68933	-296
2.69300	-286
2.69667	-279
2.70033	-271
2.70400	-263
2.70767	-255
2.71133	-247
2.71500	-241
2.71867	-237
2.72233	-232
2.72600	-226
2.72967	-222
2.73333	-221
2.73700	-218
2.74067	-213
2.74433	-207
2.74800	-204
2.75167	-198
2.75533	-195
2.75900	-193
2.76267	-188
2.76633	-183
2.77000	-180
2.77367	-175
2.77733	-173
2.78100	-171
2.78467	-171
2.78833	-170
2.79200	-166
2.79567	-161
2.79933	-160
2.80300	-159
2.80667	-158
2.81033	-157
2.81400	-158
2.81767	-159
2.82133	-157
2.82500	-149
2.82867	-131
2.83233	-89
2.83600	-4
2.83967	147
2.84333	387
2.84700	734
2.85067	1193
2.85433	1749
2.85800	2379
2.86167	3037
2.86533	3672
2.86900	4230
2.87267	4668
2.87633	4960
2.88000	5095
2.88367	5080
2.88733	4935
2.89100	4686
2.89467	4363
2.89833	3996
2.90200	3613
2.90567	3232
2.90933	2865
2.91300	2517
2.91667	2196
2.92033	1904
2.92400	1641
2.92767	1407
2.93133	1199
2.93500	1016
2.93867	858
2.94233	719
2.94600	596
2.94967	490
2.95333	398
2.95700	319
2.96067	249
2.96433	188
2.96800	137
2.97167	64
2.97533	-34
2.97900	-113
2.98267	-160
2.98633	-171
2.99000	-150
2.99367	-102
2.99733	-37
3.00100	38
3.00467	112
3.00833	180
3.01200	240
3.01567	296
3.01933	348
3.02300	394
3.02667	436
3.03033	473
3.03400	508
3.03767	539
3.04133	565
3.04500	588
3.04867	608
3.05233	625
3.05600	642
3.05967	655
3.06333	666
3.06700	675
3.07067	681
3.07433	684
3.07800	685
3.08167	687
3.08533	692
3.08900	698
3.09267	702
3.09633	703
3.10000	703
3.10367	701
3.10733	699
3.11100	697
3.11467	695
3.11833	690
3.12200	687
3.12567	684
3.12933	684
3.13300	684
3.13667	682
3.14033	677
3.14400	675
3.14767	672
3.15133	669
3.15500	666
3.15867	662
3.16233	659
3.16600	657
3.16967	655
3.17333	653
3.17700	650
3.18067	650
3.18433	652
3.18800	652
3.19167	650
3.19533	648
3.19900	646
3.20267	644
3.20633	641
3.21000	639
3.21367	638
3.21733	638
3.22100	639
3.22467	637
3.22833	634
3.23200	631
3.23567	629
3.23933	628
3.24300	626
3.24667	624
3.25033	623
3.25400	620
3.25767	618
3.26133	616
3.26500	614
3.26867	611
3.27233	611
3.27600	611
3.27967	611
3.28333	608
3.28700	605
3.29067	600
3.29433	596
3.29800	594
3.30167	592
3.30533	588
3.30900	584
3.31267	581
3.31633	577
3.32000	574
3.32367	572
3.32733	570
3.33100	567
3.33467	564
3.33833	565
3.34200	560
3.34567	554
3.34933	551
3.35300	550
3.35667	546
3.36033	543
3.36400	540
3.36767	536
3.37133	532
3.37500	528
3.37867	522
3.38233	518
3.38600	515
3.38967	512
3.39333	508
3.39700	504
3.40067	500
3.40433	498
3.40800	497
3.41167	492
3.41533	489
3.41900	487
3.42267	485
3.42633	483
3.43000	479
3.43367	475
3.43733	473
3.44100	471
3.44467	469
3.44833	466
3.45200	463
3.45567	460
3.45933	459
3.46300	455
3.46667	453
3.47033	452
3.47400	451
3.47767	448
3.48133	444
3.48500	441
3.48867	440
3.49233	437
3.49600	433
3.49967	429
3.50333	427
3.50700	426
3.51067	425
3.51433	423
3.51800	421
3.52167	419
3.52533	418
3.52900	417
3.53267	414
3.53633	412
3.54000	410
3.54367	409
3.54733	408
3.55100	406
3.55467	403
3.55833	399
3.56200	398
3.56567	397
3.56933	395
3.57300	393
3.57667	390
3.58033	388
3.58400	386
3.58767	384
3.59133	381
3.59500	379
3.59867	374
3.60233	370
3.60600	368
3.60967	368
3.61333	367
3.61700	364
3.62067	362
3.62433	362
3.62800	360
3.63167	357
3.63533	355
3.63900	352
3.64267	350
3.64633	350
3.65000	349
3.65367	348
3.65733	348
3.66100	346
3.66467	343
3.66833	340
3.67200	335
3.67567	332
3.67933	332
3.68300	333
3.68667	336
3.69033	336
3.69400	336
3.69767	335
3.70133	332
3.70500	328
3.70867	324
3.71233	320
3.71600	317
3.71967	317
3.72333	316
3.72700	316
3.73067	314
3.73433	311
3.73800	307
3.74167	304
3.74533	304
3.74900	306
3.75267	306
3.75633	306
3.76000	305
3.76367	305
3.76733	302
3.77100	300
3.77467	298
3.77833	295
3.78200	293
3.78567	292
3.78933	290
3.79300	287
3.79667	285
3.80033	284
3.80400	282
3.80767	280
3.81133	279
3.81500	280
3.81867	280
3.82233	278
3.82600	278
3.82967	273
3.83333	267
3.83700	264
3.84067	260
3.84433	256
3.84800	252
3.85167	252
3.85533	251
3.85900	250
3.86267	250
3.86633	250
3.87000	248
3.87367	247
3.87733	246
3.88100	245
3.88467	243
3.88833	240
3.89200	237
3.89567	235
3.89933	234
3.90300	233
3.90667	231
3.91033	231
3.91400	232
3.91767	231
3.92133	229
3.92500	228
3.92867	226
3.93233	222
3.93600	218
3.93967	216
3.94333	215
3.94700	215
3.95067	212
3.95433	209
3.95800	208
3.96167	208
3.96533	209
3.96900	209
3.97267	208
3.97633	208
3.98000	208
3.98367	206
3.98733	203
3.99100	199
3.99467	197
3.99833	196

[Status Trace (Column Oven Temperature)]
Interval(msec)	1000
# of Points	240
Start Time(min)	0.010
End Time(min)	3.994
Intensity Units	
Intensity Multiplier	1
R.Time (min)	Intensity
0.01030	35.02
0.02697	35.01
0.04363	35.01
0.06030	35.02
0.07697	35.04
0.09363	35.05
0.11030	35.05
0.12697	35.04
0.14363	35.03
0.16030	35.03
0.17697	35.03
0.19363	35.04
0.21030	35.02
0.22697	35.03
0.24363	35.03
0.26030	35.02
0.27697	35.01
0.29363	35.01
0.31030	35.00
0.32697	35.00
0.34363	35.00
0.36030	35.01
0.37697	34.99
0.39363	34.99
0.41030	34.99
0.42697	34.99
0.44363	34.98
0.46030	34.98
0.47697	34.97
0.49363	34.97
0.51030	34.97
0.52697	34.97
0.54363	34.99
0.56030	34.99
0.57697	34.99
0.59363	34.99
0.61030	34.98
0.62697	34.99
0.64363	34.99
0.66030	34.99
0.67697	34.98
0.69363	34.98
0.71030	34.97
0.72697	34.97
0.74363	34.97
0.76030	34.97
0.77697	34.98
0.79363	34.99
0.81030	35.02
0.82697	35.01
0.84363	35.00
0.86030	34.99
0.87697	34.98
0.89363	34.97
0.91030	34.97
0.92697	34.96
0.94363	34.96
0.96030	34.97
0.97697	34.96
0.99363	34.97
1.01030	34.97
1.02697	34.97
1.04363	34.97
1.06030	34.98
1.07697	34.99
1.09363	34.98
1.11030	34.99
1.12697	34.98
1.14363	34.98
1.16030	34.97
1.17697	34.97
1.19363	34.98
1.21030	34.98
1.22697	34.97
1.24363	34.98
1.26030	34.98
1.27697	34.98
1.29363	34.99
1.31030	35.00
1.32697	35.02
1.34363	35.03
1.36030	35.04
1.37697	35.04
1.39363	35.04
1.41030	35.03
1.42697	35.02
1.44363	35.00
1.46030	34.98
1.47697	34.98
1.49363	34.97
1.51030	34.97
1.52697	34.96
1.54363	34.97
1.56030	34.98
1.57697	34.98
1.59363	34.99
1.61030	35.05
1.62697	35.18
1.64363	35.38
1.66030	35.64
1.67697	36.00
1.69363	36.35
1.71030	36.69
1.72697	37.04
1.74363	37.38
1.76030	37.71
1.77697	38.05
1.79363	38.38
1.81030	38.71
1.82697	39.06
1.84363	39.38
1.86030	39.70
1.87697	40.04
1.89363	40.35
1.91030	40.67
1.92697	41.00
1.94363	41.32
1.96030	41.65
1.97697	41.98
1.99363	42.30
2.01030	42.63
2.02697	42.96
2.04363	43.27
2.06030	43.60
2.07697	43.95
2.09363	44.26
2.11030	44.58
2.12697	44.93
2.14363	45.22
2.16030	45.55
2.17697	45.89
2.19363	46.21
2.21030	46.53
2.22697	46.87
2.24363	47.21
2.26030	47.53
2.27697	47.87
2.29363	48.21
2.31030	48.53
2.32697	48.86
2.34363	49.17
2.36030	49.48
2.37697	49.64
2.39363	49.69
2.41030	49.69
2.42697	49.71
2.44363	49.73
2.46030	49.73
2.47697	49.76
2.49363	49.76
2.51030	49.77
2.52697	49.79
2.54363	49.82
2.56030	49.81
2.57697	49.81
2.59363	49.82
2.61030	49.82
2.62697	49.83
2.64363	49.84
2.66030	49.85
2.67697	49.87
2.69363	49.86
2.71030	49.85
2.72697	49.85
2.74363	49.86
2.76030	49.87
2.77697	49.87
2.79363	49.88
2.81030	49.87
2.82697	49.87
2.84363	49.88
2.86030	49.90
2.87697	49.94
2.89363	49.96
2.91030	49.98
2.92697	49.99
2.94363	50.02
2.96030	50.03
2.97697	50.04
2.99363	50.04
3.01030	50.04
3.02697	50.04
3.04363	50.05
3.06030	50.06
3.07697	50.08
3.09363	50.08
3.11030	50.07
3.12697	50.08
3.14363	50.08
3.16030	50.08
3.17697	50.09
3.19363	50.10
3.21030	50.10
3.22697	50.09
3.24363	50.09
3.26030	50.08
3.27697	50.08
3.29363	50.09
3.31030	50.10
3.32697	50.09
3.34363	50.09
3.36030	50.10
3.37697	50.09
3.39363	50.09
3.41030	50.09
3.42697	50.09
3.44363	50.09
3.46030	50.09
3.47697	50.09
3.49363	50.09
3.51030	50.10
3.52697	50.11
3.54363	50.10
3.56030	50.09
3.57697	50.08
3.59363	50.07
3.61030	50.05
3.62697	50.04
3.64363	50.03
3.66030	50.02
3.67697	50.02
3.69363	50.01
3.71030	50.01
3.72697	50.02
3.74363	50.01
3.76030	50.01
3.77697	50.01
3.79363	50.01
3.81030	50.01
3.82697	50.01
3.84363	50.01
3.86030	50.01
3.87697	50.01
3.89363	50.02
3.91030	50.03
3.92697	50.05
3.94363	50.05
3.96030	50.06
3.97697	50.07
3.99363	50.06

[Status Trace (Injection Unit Temperature)]
Interval(msec)	1000
# of Points	240
Start Time(min)	0.010
End Time(min)	3.994
Intensity Units	
Intensity Multiplier	1
R.Time (min)	Intensity
0.01030	99.98
0.02697	99.98
0.04363	99.99
0.06030	99.99
0.07697	99.98
0.09363	99.98
0.11030	99.98
0.12697	99.98
0.14363	99.98
0.16030	99.98
0.17697	99.98
0.19363	99.98
0.21030	99.98
0.22697	99.98
0.24363	99.98
0.26030	99.98
0.27697	99.98
0.29363	99.98
0.31030	99.98
0.32697	99.98
0.34363	99.98
0.36030	99.98
0.37697	99.98
0.39363	99.98
0.41030	99.98
0.42697	99.98
0.44363	99.98
0.46030	99.98
0.47697	99.98
0.49363	99.98
0.51030	99.98
0.52697	99.98
0.54363	99.98
0.56030	99.98
0.57697	99.99
0.59363	99.98
0.61030	99.98
0.62697	99.98
0.64363	99.98
0.66030	99.99
0.67697	99.98
0.69363	99.98
0.71030	99.98
0.72697	99.98
0.74363	99.97
0.76030	99.98
0.77697	99.98
0.79363	99.98
0.81030	99.98
0.82697	99.98
0.84363	99.98
0.86030	99.97
0.87697	99.98
0.89363	99.97
0.91030	99.98
0.92697	99.98
0.94363	99.98
0.96030	99.98
0.97697	99.98
0.99363	99.98
1.01030	99.98
1.02697	99.97
1.04363	99.98
1.06030	99.97
1.07697	99.98
1.09363	99.98
1.11030	99.98
1.12697	99.98
1.14363	99.98
1.16030	99.97
1.17697	99.98
1.19363	99.98
1.21030	99.98
1.22697	99.97
1.24363	99.98
1.26030	99.98
1.27697	99.98
1.29363	99.98
1.31030	99.98
1.32697	99.98
1.34363	99.98
1.36030	99.98
1.37697	99.98
1.39363	99.99
1.41030	99.98
1.42697	99.98
1.44363	99.97
1.46030	99.98
1.47697	99.98
1.49363	99.97
1.51030	99.98
1.52697	99.98
1.54363	99.98
1.56030	99.98
1.57697	99.98
1.59363	99.99
1.61030	99.98
1.62697	99.98
1.64363	99.98
1.66030	99.98
1.67697	99.98
1.69363	99.98
1.71030	99.98
1.72697	99.97
1.74363	99.98
1.76030	99.99
1.77697	99.98
1.79363	99.98
1.81030	99.98
1.82697	99.98
1.84363	99.98
1.86030	99.98
1.87697	99.98
1.89363	99.98
1.91030	99.98
1.92697	99.98
1.94363	99.98
1.96030	99.98
1.97697	99.98
1.99363	99.98
2.01030	99.98
2.02697	99.97
2.04363	99.98
2.06030	99.97
2.07697	99.98
2.09363	99.97
2.11030	99.97
2.12697	99.97
2.14363	99.97
2.16030	99.97
2.17697	99.97
2.19363	99.97
2.21030	99.97
2.22697	99.96
2.24363	99.97
2.26030	99.96
2.27697	99.97
2.29363	99.96
2.31030	99.96
2.32697	99.97
2.34363	99.97
2.36030	99.97
2.37697	99.97
2.39363	99.96
2.41030	99.96
2.42697	99.96
2.44363	99.96
2.46030	99.97
2.47697	99.97
2.49363	99.97
2.51030	99.97
2.52697	99.97
2.54363	99.97
2.56030	99.97
2.57697	99.98
2.59363	99.97
2.61030	99.97
2.62697	99.98
2.64363	99.97
2.66030	99.98
2.67697	99.98
2.69363	99.98
2.71030	99.98
2.72697	99.98
2.74363	99.98
2.76030	99.99
2.77697	99.99
2.79363	99.99
2.81030	99.99
2.82697	99.99
2.84363	100.00
2.86030	100.00
2.87697	100.00
2.89363	100.00
2.91030	100.00
2.92697	100.00
2.94363	100.01
2.96030	100.01
2.97697	100.00
2.99363	100.01
3.01030	100.01
3.02697	100.01
3.04363	100.01
3.06030	100.01
3.07697	100.02
3.09363	100.02
3.11030	100.02
3.12697	100.02
3.14363	100.02
3.16030	100.02
3.17697	100.02
3.19363	100.02
3.21030	100.02
3.22697	100.03
3.24363	100.03
3.26030	100.03
3.27697	100.02
3.29363	100.03
3.31030	100.03
3.32697	100.03
3.34363	100.03
3.36030	100.03
3.37697	100.03
3.39363	100.03
3.41030	100.04
3.42697	100.04
3.44363	100.04
3.46030	100.04
3.47697	100.04
3.49363	100.04
3.51030	100.04
3.52697	100.03
3.54363	100.04
3.56030	100.04
3.57697	100.04
3.59363	100.04
3.61030	100.04
3.62697	100.05
3.64363	100.05
3.66030	100.04
3.67697	100.05
3.69363	100.04
3.71030	100.05
3.72697	100.05
3.74363	100.05
3.76030	100.05
3.77697	100.04
3.79363	100.05
3.81030	100.05
3.82697	100.05
3.84363	100.05
3.86030	100.05
3.87697	100.04
3.89363	100.05
3.91030	100.05
3.92697	100.05
3.94363	100.05
3.96030	100.05
3.97697	100.05
3.99363	100.04

[Status Trace (Carrier Gas Pressure)]
Interval(msec)	1000
# of Points	240
Start Time(min)	0.010
End Time(min)	3.994
Intensity Units	
Intensity Multiplier	1
R.Time (min)	Intensity
0.01030	58.00
0.02697	55.14
0.04363	57.37
0.06030	59.48
0.07697	59.29
0.09363	58.03
0.11030	57.99
0.12697	58.01
0.14363	58.01
0.16030	58.00
0.17697	58.00
0.19363	58.00
0.21030	58.00
0.22697	58.00
0.24363	58.00
0.26030	58.00
0.27697	58.00
0.29363	58.00
0.31030	58.00
0.32697	58.00
0.34363	58.00
0.36030	58.00
0.37697	58.00
0.39363	58.00
0.41030	58.00
0.42697	58.00
0.44363	58.00
0.46030	58.00
0.47697	58.00
0.49363	58.00
0.51030	58.00
0.52697	58.00
0.54363	58.00
0.56030	58.00
0.57697	58.00
0.59363	58.00
0.61030	58.00
0.62697	58.00
0.64363	58.00
0.66030	58.00
0.67697	58.00
0.69363	58.00
0.71030	58.00
0.72697	58.00
0.74363	58.00
0.76030	58.00
0.77697	58.00
0.79363	58.00
0.81030	58.00
0.82697	58.00
0.84363	58.00
0.86030	58.00
0.87697	58.00
0.89363	58.00
0.91030	58.00
0.92697	58.00
0.94363	58.00
0.96030	58.00
0.97697	58.00
0.99363	58.00
1.01030	58.00
1.02697	58.00
1.04363	58.00
1.06030	58.00
1.07697	58.00
1.09363	58.00
1.11030	58.00
1.12697	58.00
1.14363	58.00
1.16030	58.00
1.17697	58.00
1.19363	58.00
1.21030	58.00
1.22697	58.00
1.24363	58.00
1.26030	58.00
1.27697	58.00
1.29363	58.00
1.31030	58.00
1.32697	58.00
1.34363	58.00
1.36030	58.00
1.37697	58.00
1.39363	58.00
1.41030	58.00
1.42697	58.00
1.44363	58.00
1.46030	58.00
1.47697	58.00
1.49363	58.00
1.51030	58.00
1.52697	58.00
1.54363	58.00
1.56030	58.00
1.57697	58.00
1.59363	58.00
1.61030	58.00
1.62697	58.00
1.64363	58.00
1.66030	58.00
1.67697	58.01
1.69363	58.00
1.71030	58.00
1.72697	58.00
1.74363	58.00
1.76030	58.00
1.77697	58.00
1.79363	58.00
1.81030	58.00
1.82697	58.00
1.84363	58.00
1.86030	58.00
1.87697	58.00
1.89363	58.00
1.91030	58.00
1.92697	58.00
1.94363	58.00
1.96030	58.00
1.97697	58.00
1.99363	58.00
2.01030	58.00
2.02697	58.00
2.04363	58.00
2.06030	58.00
2.07697	58.00
2.09363	58.00
2.11030	58.00
2.12697	58.00
2.14363	58.00
2.16030	58.00
2.17697	58.00
2.19363	58.00
2.21030	58.00
2.22697	58.00
2.24363	58.00
2.26030	58.00
2.27697	58.00
2.29363	58.00
2.31030	58.00
2.32697	58.00
2.34363	58.00
2.36030	58.00
2.37697	58.00
2.39363	57.99
2.41030	57.99
2.42697	58.00
2.44363	58.00
2.46030	58.00
2.47697	58.00
2.49363	58.00
2.51030	57.99
2.52697	57.98
2.54363	58.00
2.56030	58.00
2.57697	58.00
2.59363	58.00
2.61030	58.00
2.62697	58.00
2.64363	58.00
2.66030	58.00
2.67697	58.00
2.69363	58.00
2.71030	58.00
2.72697	58.00
2.74363	58.00
2.76030	58.00
2.77697	58.00
2.79363	58.00
2.81030	58.00
2.82697	58.00
2.84363	58.00
2.86030	58.00
2.87697	58.00
2.89363	58.00
2.91030	58.00
2.92697	58.00
2.94363	58.00
2.96030	58.00
2.97697	58.00
2.99363	58.00
3.01030	58.00
3.02697	58.00
3.04363	58.00
3.06030	58.00
3.07697	58.00
3.09363	58.00
3.11030	58.00
3.12697	58.00
3.14363	58.00
3.16030	58.00
3.17697	58.00
3.19363	58.00
3.21030	58.00
3.22697	58.00
3.24363	58.00
3.26030	58.00
3.27697	58.00
3.29363	58.00
3.31030	58.00
3.32697	58.00
3.34363	58.00
3.36030	58.00
3.37697	58.00
3.39363	58.00
3.41030	58.00
3.42697	58.00
3.44363	58.00
3.46030	58.00
3.47697	58.00
3.49363	58.00
3.51030	58.00
3.52697	58.00
3.54363	58.00
3.56030	58.00
3.57697	58.00
3.59363	58.00
3.61030	58.00
3.62697	58.00
3.64363	58.00
3.66030	58.00
3.67697	58.00
3.69363	58.00
3.71030	58.00
3.72697	58.00
3.74363	58.00
3.76030	58.00
3.77697	58.00
3.79363	58.00
3.81030	58.00
3.82697	58.00
3.84363	58.00
3.86030	58.00
3.87697	58.00
3.89363	58.00
3.91030	58.00
3.92697	58.00
3.94363	58.00
3.96030	58.00
3.97697	58.00
3.99363	58.00

[Status Trace (Carrier Gas Flow)]
Interval(msec)	1000
# of Points	240
Start Time(min)	0.010
End Time(min)	3.994
Intensity Units	
Intensity Multiplier	1
R.Time (min)	Intensity
0.01030	34.52
0.02697	34.54
0.04363	34.55
0.06030	34.55
0.07697	34.51
0.09363	34.52
0.11030	34.52
0.12697	34.52
0.14363	34.52
0.16030	34.52
0.17697	34.52
0.19363	34.52
0.21030	34.52
0.22697	34.52
0.24363	34.52
0.26030	34.52
0.27697	34.52
0.29363	34.52
0.31030	34.52
0.32697	34.52
0.34363	34.52
0.36030	34.52
0.37697	34.52
0.39363	34.52
0.41030	34.52
0.42697	34.52
0.44363	34.52
0.46030	34.52
0.47697	34.52
0.49363	34.52
0.51030	34.52
0.52697	34.52
0.54363	34.52
0.56030	34.52
0.57697	34.52
0.59363	34.52
0.61030	34.52
0.62697	34.52
0.64363	34.52
0.66030	34.52
0.67697	34.52
0.69363	34.52
0.71030	34.52
0.72697	34.52
0.74363	34.52
0.76030	34.52
0.77697	34.52
0.79363	34.52
0.81030	34.52
0.82697	34.52
0.84363	34.52
0.86030	34.52
0.87697	34.52
0.89363	34.52
0.91030	34.52
0.92697	34.52
0.94363	34.52
0.96030	34.52
0.97697	34.52
0.99363	34.52
1.01030	34.52
1.02697	34.52
1.04363	34.52
1.06030	34.52
1.07697	34.52
1.09363	34.52
1.11030	34.52
1.12697	34.52
1.14363	34.52
1.16030	34.52
1.17697	34.52
1.19363	34.52
1.21030	34.52
1.22697	34.52
1.24363	34.52
1.26030	34.52
1.27697	34.52
1.29363	34.52
1.31030	34.52
1.32697	34.52
1.34363	34.52
1.36030	34.52
1.37697	34.52
1.39363	34.52
1.41030	34.52
1.42697	34.52
1.44363	34.52
1.46030	34.52
1.47697	34.52
1.49363	34.52
1.51030	34.52
1.52697	34.52
1.54363	34.52
1.56030	34.52
1.57697	34.52
1.59363	34.52
1.61030	34.52
1.62697	34.52
1.64363	34.52
1.66030	34.52
1.67697	34.52
1.69363	34.52
1.71030	34.52
1.72697	34.52
1.74363	34.52
1.76030	34.52
1.77697	34.52
1.79363	34.52
1.81030	34.52
1.82697	34.51
1.84363	34.51
1.86030	34.52
1.87697	34.52
1.89363	34.53
1.91030	34.51
1.92697	34.50
1.94363	34.54
1.96030	34.52
1.97697	34.52
1.99363	34.51
2.01030	34.52
2.02697	34.52
2.04363	34.52
2.06030	34.52
2.07697	34.52
2.09363	34.52
2.11030	34.51
2.12697	34.52
2.14363	34.52
2.16030	34.53
2.17697	34.52
2.19363	34.52
2.21030	34.52
2.22697	34.52
2.24363	34.52
2.26030	34.52
2.27697	34.52
2.29363	34.52
2.31030	34.52
2.32697	34.52
2.34363	34.52
2.36030	34.52
2.37697	34.52
2.39363	34.51
2.41030	34.51
2.42697	34.52
2.44363	34.52
2.46030	34.52
2.47697	34.52
2.49363	34.53
2.51030	34.52
2.52697	34.52
2.54363	34.52
2.56030	34.52
2.57697	34.52
2.59363	34.52
2.61030	34.52
2.62697	34.52
2.64363	34.52
2.66030	34.52
2.67697	34.52
2.69363	34.52
2.71030	34.52
2.72697	34.52
2.74363	34.52
2.76030	34.52
2.77697	34.52
2.79363	34.52
2.81030	34.52
2.82697	34.52
2.84363	34.52
2.86030	34.51
2.87697	34.52
2.89363	34.52
2.91030	34.52
2.92697	34.51
2.94363	34.52
2.96030	34.53
2.97697	34.50
2.99363	34.52
3.01030	34.52
3.02697	34.52
3.04363	34.52
3.06030	34.52
3.07697	34.52
3.09363	34.51
3.11030	34.52
3.12697	34.52
3.14363	34.52
3.16030	34.52
3.17697	34.52
3.19363	34.52
3.21030	34.52
3.22697	34.52
3.24363	34.52
3.26030	34.52
3.27697	34.52
3.29363	34.52
3.31030	34.52
3.32697	34.52
3.34363	34.52
3.36030	34.52
3.37697	34.52
3.39363	34.52
3.41030	34.52
3.42697	34.52
3.44363	34.52
3.46030	34.52
3.47697	34.52
3.49363	34.52
3.51030	34.52
3.52697	34.52
3.54363	34.52
3.56030	34.52
3.57697	34.52
3.59363	34.52
3.61030	34.52
3.62697	34.52
3.64363	34.52
3.66030	34.52
3.67697	34.52
3.69363	34.52
3.71030	34.52
3.72697	34.52
3.74363	34.52
3.76030	34.52
3.77697	34.52
3.79363	34.52
3.81030	34.52
3.82697	34.52
3.84363	34.50
3.86030	34.52
3.87697	34.52
3.89363	34.52
3.91030	34.52
3.92697	34.52
3.94363	34.52
3.96030	34.52
3.97697	34.52
3.99363	34.52

[Status Trace (Column Flow)]
Interval(msec)	1000
# of Points	240
Start Time(min)	0.010
End Time(min)	3.994
Intensity Units	
Intensity Multiplier	1
R.Time (min)	Intensity
0.01030	5.50
0.02697	5.18
0.04363	5.43
0.06030	5.68
0.07697	5.66
0.09363	5.51
0.11030	5.50
0.12697	5.51
0.14363	5.51
0.16030	5.50
0.17697	5.50
0.19363	5.50
0.21030	5.50
0.22697	5.50
0.24363	5.50
0.26030	5.50
0.27697	5.51
0.29363	5.51
0.31030	5.51
0.32697	5.51
0.34363	5.51
0.36030	5.50
0.37697	5.51
0.39363	5.51
0.41030	5.51
0.42697	5.51
0.44363	5.51
0.46030	5.51
0.47697	5.51
0.49363	5.51
0.51030	5.51
0.52697	5.51
0.54363	5.51
0.56030	5.51
0.57697	5.51
0.59363	5.51
0.61030	5.51
0.62697	5.51
0.64363	5.51
0.66030	5.51
0.67697	5.51
0.69363	5.51
0.71030	5.51
0.72697	5.51
0.74363	5.51
0.76030	5.51
0.77697	5.51
0.79363	5.51
0.81030	5.50
0.82697	5.50
0.84363	5.51
0.86030	5.51
0.87697	5.51
0.89363	5.51
0.91030	5.51
0.92697	5.51
0.94363	5.51
0.96030	5.51
0.97697	5.51
0.99363	5.51
1.01030	5.51
1.02697	5.51
1.04363	5.51
1.06030	5.51
1.07697	5.51
1.09363	5.51
1.11030	5.51
1.12697	5.51
1.14363	5.51
1.16030	5.51
1.17697	5.51
1.19363	5.51
1.21030	5.51
1.22697	5.51
1.24363	5.51
1.26030	5.51
1.27697	5.51
1.29363	5.51
1.31030	5.51
1.32697	5.50
1.34363	5.50
1.36030	5.50
1.37697	5.50
1.39363	5.50
1.41030	5.50
1.42697	5.50
1.44363	5.51
1.46030	5.51
1.47697	5.51
1.49363	5.51
1.51030	5.51
1.52697	5.51
1.54363	5.51
1.56030	5.51
1.57697	5.51
1.59363	5.51
1.61030	5.50
1.62697	5.50
1.64363	5.49
1.66030	5.49
1.67697	5.48
1.69363	5.46
1.71030	5.45
1.72697	5.44
1.74363	5.43
1.76030	5.42
1.77697	5.41
1.79363	5.40
1.81030	5.39
1.82697	5.38
1.84363	5.37
1.86030	5.36
1.87697	5.35
1.89363	5.34
1.91030	5.33
1.92697	5.32
1.94363	5.31
1.96030	5.30
1.97697	5.29
1.99363	5.28
2.01030	5.27
2.02697	5.26
2.04363	5.25
2.06030	5.25
2.07697	5.24
2.09363	5.23
2.11030	5.22
2.12697	5.21
2.14363	5.20
2.16030	5.19
2.17697	5.18
2.19363	5.17
2.21030	5.16
2.22697	5.15
2.24363	5.14
2.26030	5.13
2.27697	5.12
2.29363	5.11
2.31030	5.10
2.32697	5.10
2.34363	5.09
2.36030	5.08
2.37697	5.07
2.39363	5.07
2.41030	5.07
2.42697	5.07
2.44363	5.07
2.46030	5.07
2.47697	5.07
2.49363	5.07
2.51030	5.07
2.52697	5.07
2.54363	5.07
2.56030	5.07
2.57697	5.07
2.59363	5.07
2.61030	5.07
2.62697	5.07
2.64363	5.07
2.66030	5.07
2.67697	5.07
2.69363	5.07
2.71030	5.07
2.72697	5.07
2.74363	5.07
2.76030	5.07
2.77697	5.07
2.79363	5.07
2.81030	5.07
2.82697	5.07
2.84363	5.07
2.86030	5.07
2.87697	5.07
2.89363	5.06
2.91030	5.06
2.92697	5.06
2.94363	5.06
2.96030	5.06
2.97697	5.06
2.99363	5.06
3.01030	5.06
3.02697	5.06
3.04363	5.06
3.06030	5.06
3.07697	5.06
3.09363	5.06
3.11030	5.06
3.12697	5.06
3.14363	5.06
3.16030	5.06
3.17697	5.06
3.19363	5.06
3.21030	5.06
3.22697	5.06
3.24363	5.06
3.26030	5.06
3.27697	5.06
3.29363	5.06
3.31030	5.06
3.32697	5.06
3.34363	5.06
3.36030	5.06
3.37697	5.06
3.39363	5.06
3.41030	5.06
3.42697	5.06
3.44363	5.06
3.46030	5.06
3.47697	5.06
3.49363	5.06
3.51030	5.06
3.52697	5.06
3.54363	5.06
3.56030	5.06
3.57697	5.06
3.59363	5.06
3.61030	5.06
3.62697	5.06
3.64363	5.06
3.66030	5.06
3.67697	5.06
3.69363	5.06
3.71030	5.06
3.72697	5.06
3.74363	5.06
3.76030	5.06
3.77697	5.06
3.79363	5.06
3.81030	5.06
3.82697	5.06
3.84363	5.06
3.86030	5.06
3.87697	5.06
3.89363	5.06
3.91030	5.06
3.92697	5.06
3.94363	5.06
3.96030	5.06
3.97697	5.06
3.99363	5.06

[Status Trace (Linear Velocity)]
Interval(msec)	1000
# of Points	240
Start Time(min)	0.010
End Time(min)	3.994
Intensity Units	
Intensity Multiplier	1
R.Time (min)	Intensity
0.01030	39.01
0.02697	37.14
0.04363	38.60
0.06030	39.98
0.07697	39.86
0.09363	39.03
0.11030	39.00
0.12697	39.02
0.14363	39.02
0.16030	39.01
0.17697	39.01
0.19363	39.01
0.21030	39.01
0.22697	39.01
0.24363	39.01
0.26030	39.01
0.27697	39.01
0.29363	39.01
0.31030	39.01
0.32697	39.01
0.34363	39.01
0.36030	39.01
0.37697	39.01
0.39363	39.01
0.41030	39.01
0.42697	39.01
0.44363	39.01
0.46030	39.02
0.47697	39.02
0.49363	39.02
0.51030	39.02
0.52697	39.02
0.54363	39.01
0.56030	39.01
0.57697	39.01
0.59363	39.01
0.61030	39.01
0.62697	39.01
0.64363	39.01
0.66030	39.01
0.67697	39.01
0.69363	39.01
0.71030	39.02
0.72697	39.02
0.74363	39.02
0.76030	39.02
0.77697	39.01
0.79363	39.01
0.81030	39.01
0.82697	39.01
0.84363	39.01
0.86030	39.01
0.87697	39.01
0.89363	39.02
0.91030	39.02
0.92697	39.02
0.94363	39.02
0.96030	39.02
0.97697	39.02
0.99363	39.02
1.01030	39.02
1.02697	39.02
1.04363	39.02
1.06030	39.02
1.07697	39.01
1.09363	39.01
1.11030	39.01
1.12697	39.01
1.14363	39.01
1.16030	39.01
1.17697	39.02
1.19363	39.02
1.21030	39.02
1.22697	39.02
1.24363	39.01
1.26030	39.02
1.27697	39.01
1.29363	39.01
1.31030	39.01
1.32697	39.01
1.34363	39.01
1.36030	39.01
1.37697	39.01
1.39363	39.01
1.41030	39.01
1.42697	39.01
1.44363	39.01
1.46030	39.01
1.47697	39.01
1.49363	39.02
1.51030	39.02
1.52697	39.02
1.54363	39.02
1.56030	39.01
1.57697	39.02
1.59363	39.01
1.61030	39.01
1.62697	39.00
1.64363	38.98
1.66030	38.95
1.67697	38.93
1.69363	38.89
1.71030	38.85
1.72697	38.82
1.74363	38.79
1.76030	38.75
1.77697	38.73
1.79363	38.69
1.81030	38.66
1.82697	38.63
1.84363	38.60
1.86030	38.57
1.87697	38.54
1.89363	38.51
1.91030	38.48
1.92697	38.45
1.94363	38.41
1.96030	38.38
1.97697	38.36
1.99363	38.32
2.01030	38.29
2.02697	38.27
2.04363	38.23
2.06030	38.21
2.07697	38.18
2.09363	38.14
2.11030	38.12
2.12697	38.09
2.14363	38.06
2.16030	38.03
2.17697	38.00
2.19363	37.97
2.21030	37.94
2.22697	37.91
2.24363	37.88
2.26030	37.85
2.27697	37.82
2.29363	37.79
2.31030	37.76
2.32697	37.73
2.34363	37.70
2.36030	37.67
2.37697	37.66
2.39363	37.65
2.41030	37.65
2.42697	37.65
2.44363	37.65
2.46030	37.65
2.47697	37.65
2.49363	37.65
2.51030	37.64
2.52697	37.64
2.54363	37.64
2.56030	37.65
2.57697	37.65
2.59363	37.65
2.61030	37.64
2.62697	37.64
2.64363	37.64
2.66030	37.64
2.67697	37.64
2.69363	37.64
2.71030	37.64
2.72697	37.64
2.74363	37.64
2.76030	37.64
2.77697	37.64
2.79363	37.64
2.81030	37.64
2.82697	37.64
2.84363	37.64
2.86030	37.64
2.87697	37.64
2.89363	37.63
2.91030	37.63
2.92697	37.63
2.94363	37.63
2.96030	37.63
2.97697	37.63
2.99363	37.63
3.01030	37.63
3.02697	37.62
3.04363	37.62
3.06030	37.62
3.07697	37.62
3.09363	37.62
3.11030	37.62
3.12697	37.62
3.14363	37.62
3.16030	37.62
3.17697	37.62
3.19363	37.62
3.21030	37.62
3.22697	37.62
3.24363	37.62
3.26030	37.62
3.27697	37.62
3.29363	37.62
3.31030	37.62
3.32697	37.62
3.34363	37.62
3.36030	37.62
3.37697	37.62
3.39363	37.62
3.41030	37.62
3.42697	37.62
3.44363	37.62
3.46030	37.62
3.47697	37.62
3.49363	37.62
3.51030	37.62
3.52697	37.62
3.54363	37.62
3.56030	37.62
3.57697	37.62
3.59363	37.62
3.61030	37.62
3.62697	37.63
3.64363	37.63
3.66030	37.63
3.67697	37.63
3.69363	37.63
3.71030	37.63
3.72697	37.63
3.74363	37.63
3.76030	37.63
3.77697	37.63
3.79363	37.63
3.81030	37.63
3.82697	37.63
3.84363	37.63
3.86030	37.63
3.87697	37.63
3.89363	37.63
3.91030	37.63
3.92697	37.63
3.94363	37.62
3.96030	37.62
3.97697	37.62
3.99363	37.62

