[Header]
Application Name	LabSolutions
Version	5.110
Data File Name	C:\Users\User\Desktop\GC Analyses\Jack\UIC Prairie Sampling\8.12.22\220812_059.gcd
Output Date	10/14/2022
Output Time	2:33:53 PM

[File Information]
Type	Data File
Generated	10/11/2022 11:47:40 AM
Generated by	System Administrator
Modified	10/11/2022 11:52:03 AM
Modified by	System Administrator

[Sample Information]
Operator Name	System Administrator
Acquired	10/11/2022 11:48:02 AM
Sample Type	1:Standard
Level	1
Sample Name	220812_UICPrairie
Sample ID	220812_UICPrairie
ISTD Amount1	1
ISTD Amount2	1
ISTD Amount3	1
ISTD Amount4	1
ISTD Amount5	1
ISTD Amount6	1
ISTD Amount7	1
ISTD Amount8	1
ISTD Amount9	1
ISTD Amount10	1
ISTD Amount11	1
ISTD Amount12	1
ISTD Amount13	1
ISTD Amount14	1
ISTD Amount15	1
ISTD Amount16	1
ISTD Amount17	1
ISTD Amount18	1
ISTD Amount19	1
ISTD Amount20	1
ISTD Amount21	1
ISTD Amount22	1
ISTD Amount23	1
ISTD Amount24	1
ISTD Amount25	1
ISTD Amount26	1
ISTD Amount27	1
ISTD Amount28	1
ISTD Amount29	1
ISTD Amount30	1
ISTD Amount31	1
ISTD Amount32	1
Sample Amount	1
Dilution Factor	1
Vial#	1
Injection Volume	1
Injection Count	1
Bar Code	

[Original Files]
Data File	C:\Users\User\Desktop\GC Analyses\Jack\UIC Prairie Sampling\8.12.22\220812_059.gcd
Method File	C:\LabSolutions\Data\GHG_4min_2022\ghg3_togas_w_acet_4 min_new_int.gcm
Batch File	
Report Format File	c:\LabSolutions\System\DEFAULT.lsr

[File Description]


[Configuration]
Instrument Name	C0B7VH3-Instrument1
Instrument #	1
Line #	1
# of Detectors	3
Detector ID	DET#1	DET#2	DET#3
Detector Name	FID	PTCD	ECD
# of Channels	1	1	1

[Peak Table(Ch1)]
# of Peaks	3
Peak#	R.Time	I.Time	F.Time	Area	Height	A/H	Conc.	Mark	ID#	Name	k'	Plate #	Plate Ht.	Tailing	Resolution	Sep.Factor	Area Ratio	Height Ratio	Conc. %	Norm Conc.
1	1.476	1.428	1.538	11852	5203	2.278	100.000	   	1	CO	0.000	8204	18.283	1.259	0.000	0.000	0	0	16.667	16.667
2	1.571	1.538	1.626	5476	2790	1.962	100.000	 V 	2	CH4	0.065	11559	12.977	1.121	1.542	0.000	0	0	16.667	16.667
3	2.000	1.952	2.246	1233967	602301	2.049	400.000	   	3	CO2	0.355	17917	8.372	1.168	7.258	5.500	0	0	66.667	66.667

[Peak Table(Ch2)]
# of Peaks	0

[Peak Table(Ch3)]
# of Peaks	2
Peak#	R.Time	I.Time	F.Time	Area	Height	A/H	Conc.	Mark	ID#	Name	k'	Plate #	Plate Ht.	Tailing	Resolution	Sep.Factor	Area Ratio	Height Ratio	Conc. %	Norm Conc.
1	2.458	1.322	2.645	15928	449	35.466	0.000	   			0.000	130	1154.139	0.587	0.000	0.000	0	0	0.000	0.000
2	2.880	2.660	3.962	48325	5924	8.157	1.000	   	1	N2O	0.172	12980	11.557	7.799	0.875	0.000	0	0	100.000	100.000

[Compound Results(Ch1)]
# of IDs	6
ID#	Name	R.Time	Area	Height	Conc.	Curve	3rd	2nd	1st	Constant	Area Ratio	Height Ratio	Conc. %	Norm Conc.
1	CO	1.476	11852	5203	100.000	Linear	0.000000e+00	0.000000e+00	1.185158e+002	0.000000e+00	0	0	16.667	16.667
2	CH4	1.571	5476	2790	100.000	Linear	0.000000e+00	0.000000e+00	5.475733e+001	0.000000e+00	0	0	16.667	16.667
3	CO2	2.000	1233967	602301	400.000	Linear	0.000000e+00	0.000000e+00	3.084917e+003	0.000000e+00	0	0	66.667	66.667
4	Ethylene	0.000	0	0	0.000	Linear	0.000000e+00	0.000000e+00	0.000000e+00	0.000000e+00	0	0	0.000	0.000
5	Acetylene	0.000	0	0	0.000	Linear	0.000000e+00	0.000000e+00	0.000000e+00	0.000000e+00	0	0	0.000	0.000
6	Ethane	0.000	0	0	0.000	Linear	0.000000e+00	0.000000e+00	0.000000e+00	0.000000e+00	0	0	0.000	0.000

[Compound Results(Ch2)]
# of IDs	5
ID#	Name	R.Time	Area	Height	Conc.	Curve	3rd	2nd	1st	Constant	Area Ratio	Height Ratio	Conc. %	Norm Conc.
1	Hydrogen	0.000	0	0	0.000	Linear	0.000000e+00	0.000000e+00	0.000000e+00	0.000000e+00	0	0	0.000	0.000
2	Oxygen	0.000	0	0	0.000	Linear	0.000000e+00	0.000000e+00	0.000000e+00	0.000000e+00	0	0	0.000	0.000
3	Nitrogen	0.000	0	0	0.000	Linear	0.000000e+00	0.000000e+00	0.000000e+00	0.000000e+00	0	0	0.000	0.000
4	Methane	0.000	0	0	0.000	Linear	0.000000e+00	0.000000e+00	0.000000e+00	0.000000e+00	0	0	0.000	0.000
5	Carbon Monoxide	0.000	0	0	0.000	Linear	0.000000e+00	0.000000e+00	0.000000e+00	0.000000e+00	0	0	0.000	0.000

[Compound Results(Ch3)]
# of IDs	2
ID#	Name	R.Time	Area	Height	Conc.	Curve	3rd	2nd	1st	Constant	Area Ratio	Height Ratio	Conc. %	Norm Conc.
1	N2O	2.880	48325	5924	1.000	Linear	0.000000e+00	0.000000e+00	4.832462e+004	0.000000e+00	0	0	100.000	100.000
2	SF6	0.000	0	0	0.000	Linear	0.000000e+00	0.000000e+00	0.000000e+00	0.000000e+00	0	0	0.000	0.000

[Group Results(Ch1)]
# of Groups	0

[Group Results(Ch2)]
# of Groups	0

[Group Results(Ch3)]
# of Groups	0

[Chromatogram (Ch1)]
Interval(msec)	220
# of Points	1091
Start Time(min)	0.002
End Time(min)	3.998
R.Time (min)	Intensity
0.00167	-8
0.00533	-1
0.00900	10
0.01267	23
0.01633	33
0.02000	33
0.02367	26
0.02733	15
0.03100	7
0.03467	5
0.03833	8
0.04200	11
0.04567	11
0.04933	8
0.05300	5
0.05667	2
0.06033	4
0.06400	9
0.06767	15
0.07133	18
0.07500	19
0.07867	20
0.08233	21
0.08600	21
0.08967	19
0.09333	17
0.09700	16
0.10067	18
0.10433	20
0.10800	19
0.11167	17
0.11533	16
0.11900	16
0.12267	15
0.12633	13
0.13000	11
0.13367	7
0.13733	3
0.14100	-2
0.14467	-8
0.14833	-15
0.15200	-20
0.15567	-21
0.15933	-18
0.16300	-11
0.16667	-4
0.17033	4
0.17400	12
0.17767	18
0.18133	20
0.18500	18
0.18867	17
0.19233	12
0.19600	5
0.19967	-5
0.20333	-14
0.20700	-21
0.21067	-25
0.21433	-30
0.21800	-32
0.22167	-30
0.22533	-22
0.22900	-10
0.23267	0
0.23633	6
0.24000	7
0.24367	6
0.24733	5
0.25100	6
0.25467	7
0.25833	4
0.26200	0
0.26567	-0
0.26933	3
0.27300	7
0.27667	8
0.28033	6
0.28400	2
0.28767	-2
0.29133	-8
0.29500	-11
0.29867	-11
0.30233	-10
0.30600	-10
0.30967	-8
0.31333	-6
0.31700	-6
0.32067	-10
0.32433	-14
0.32800	-20
0.33167	-27
0.33533	-28
0.33900	-27
0.34267	-25
0.34633	-23
0.35000	-21
0.35367	-18
0.35733	-10
0.36100	2
0.36467	13
0.36833	17
0.37200	15
0.37567	7
0.37933	-1
0.38300	-7
0.38667	-10
0.39033	-12
0.39400	-10
0.39767	-2
0.40133	6
0.40500	9
0.40867	1
0.41233	-12
0.41600	-22
0.41967	-30
0.42333	-34
0.42700	-35
0.43067	-35
0.43433	-33
0.43800	-28
0.44167	-21
0.44533	-15
0.44900	-10
0.45267	-5
0.45633	-1
0.46000	0
0.46367	-8
0.46733	-19
0.47100	-20
0.47467	-17
0.47833	-16
0.48200	-15
0.48567	-13
0.48933	-9
0.49300	-3
0.49667	-0
0.50033	-2
0.50400	-3
0.50767	-5
0.51133	-12
0.51500	-14
0.51867	-15
0.52233	-19
0.52600	-23
0.52967	-27
0.53333	-32
0.53700	-34
0.54067	-32
0.54433	-30
0.54800	-29
0.55167	-25
0.55533	-16
0.55900	-9
0.56267	-5
0.56633	-6
0.57000	-8
0.57367	-11
0.57733	-17
0.58100	-24
0.58467	-27
0.58833	-28
0.59200	-28
0.59567	-26
0.59933	-26
0.60300	-26
0.60667	-27
0.61033	-23
0.61400	-22
0.61767	-23
0.62133	-20
0.62500	-15
0.62867	-12
0.63233	-12
0.63600	-12
0.63967	-14
0.64333	-17
0.64700	-24
0.65067	-33
0.65433	-36
0.65800	-35
0.66167	-32
0.66533	-25
0.66900	-21
0.67267	-21
0.67633	-25
0.68000	-26
0.68367	-24
0.68733	-24
0.69100	-29
0.69467	-35
0.69833	-40
0.70200	-44
0.70567	-45
0.70933	-47
0.71300	-48
0.71667	-48
0.72033	-48
0.72400	-44
0.72767	-38
0.73133	-33
0.73500	-31
0.73867	-29
0.74233	-29
0.74600	-33
0.74967	-39
0.75333	-42
0.75700	-42
0.76067	-40
0.76433	-39
0.76800	-38
0.77167	-37
0.77533	-40
0.77900	-47
0.78267	-57
0.78633	-64
0.79000	-67
0.79367	-68
0.79733	-69
0.80100	-68
0.80467	-64
0.80833	-56
0.81200	-48
0.81567	-40
0.81933	-34
0.82300	-32
0.82667	-30
0.83033	-29
0.83400	-26
0.83767	-23
0.84133	-19
0.84500	-16
0.84867	-17
0.85233	-24
0.85600	-34
0.85967	-44
0.86333	-51
0.86700	-55
0.87067	-55
0.87433	-57
0.87800	-62
0.88167	-63
0.88533	-60
0.88900	-53
0.89267	-43
0.89633	-36
0.90000	-31
0.90367	-31
0.90733	-37
0.91100	-44
0.91467	-50
0.91833	-54
0.92200	-56
0.92567	-55
0.92933	-55
0.93300	-55
0.93667	-55
0.94033	-54
0.94400	-51
0.94767	-49
0.95133	-46
0.95500	-43
0.95867	-42
0.96233	-44
0.96600	-47
0.96967	-50
0.97333	-52
0.97700	-52
0.98067	-51
0.98433	-49
0.98800	-47
0.99167	-49
0.99533	-54
0.99900	-58
1.00267	-59
1.00633	-58
1.01000	-56
1.01367	-54
1.01733	-50
1.02100	-44
1.02467	-39
1.02833	-37
1.03200	-38
1.03567	-41
1.03933	-47
1.04300	-54
1.04667	-59
1.05033	-66
1.05400	-71
1.05767	-70
1.06133	-66
1.06500	-61
1.06867	-54
1.07233	-52
1.07600	-54
1.07967	-54
1.08333	-53
1.08700	-51
1.09067	-50
1.09433	-50
1.09800	-49
1.10167	-51
1.10533	-54
1.10900	-58
1.11267	-60
1.11633	-57
1.12000	-55
1.12367	-53
1.12733	-53
1.13100	-57
1.13467	-63
1.13833	-70
1.14200	-72
1.14567	-72
1.14933	-70
1.15300	-66
1.15667	-61
1.16033	-55
1.16400	-49
1.16767	-40
1.17133	-35
1.17500	-36
1.17867	-41
1.18233	-47
1.18600	-53
1.18967	-57
1.19333	-59
1.19700	-62
1.20067	-66
1.20433	-69
1.20800	-68
1.21167	-64
1.21533	-59
1.21900	-54
1.22267	-50
1.22633	-51
1.23000	-54
1.23367	-56
1.23733	-60
1.24100	-69
1.24467	-80
1.24833	-87
1.25200	-89
1.25567	-89
1.25933	-84
1.26300	-79
1.26667	-74
1.27033	-73
1.27400	-74
1.27767	-76
1.28133	-77
1.28500	-78
1.28867	-80
1.29233	-83
1.29600	-85
1.29967	-83
1.30333	-77
1.30700	-69
1.31067	-63
1.31433	-63
1.31800	-66
1.32167	-72
1.32533	-77
1.32900	-75
1.33267	-72
1.33633	-69
1.34000	-67
1.34367	-66
1.34733	-65
1.35100	-64
1.35467	-64
1.35833	-66
1.36200	-69
1.36567	-73
1.36933	-76
1.37300	-76
1.37667	-73
1.38033	-67
1.38400	-59
1.38767	-51
1.39133	-51
1.39500	-55
1.39867	-63
1.40233	-69
1.40600	-72
1.40967	-76
1.41333	-84
1.41700	-90
1.42067	-89
1.42433	-83
1.42800	-78
1.43167	-74
1.43533	-71
1.43900	-52
1.44267	31
1.44633	258
1.45000	659
1.45367	1265
1.45733	2084
1.46100	3002
1.46467	3845
1.46833	4505
1.47200	4941
1.47567	5125
1.47933	5031
1.48300	4654
1.48667	4044
1.49033	3310
1.49400	2574
1.49767	1927
1.50133	1407
1.50500	1013
1.50867	721
1.51233	508
1.51600	354
1.51967	239
1.52333	153
1.52700	90
1.53067	43
1.53433	9
1.53800	-7
1.54167	24
1.54533	175
1.54900	509
1.55267	1004
1.55633	1550
1.56000	2043
1.56367	2422
1.56733	2657
1.57100	2714
1.57467	2562
1.57833	2222
1.58200	1777
1.58567	1324
1.58933	926
1.59300	611
1.59667	380
1.60033	218
1.60400	108
1.60767	36
1.61133	-7
1.61500	-35
1.61867	-54
1.62233	-68
1.62600	-76
1.62967	-82
1.63333	-83
1.63700	-78
1.64067	-71
1.64433	-66
1.64800	-64
1.65167	-66
1.65533	-72
1.65900	-82
1.66267	-94
1.66633	-106
1.67000	-117
1.67367	-124
1.67733	-124
1.68100	-122
1.68467	-117
1.68833	-109
1.69200	-100
1.69567	-93
1.69933	-93
1.70300	-97
1.70667	-102
1.71033	-102
1.71400	-101
1.71767	-101
1.72133	-102
1.72500	-105
1.72867	-110
1.73233	-112
1.73600	-112
1.73967	-107
1.74333	-101
1.74700	-95
1.75067	-92
1.75433	-93
1.75800	-93
1.76167	-89
1.76533	-81
1.76900	-75
1.77267	-72
1.77633	-74
1.78000	-76
1.78367	-81
1.78733	-88
1.79100	-95
1.79467	-105
1.79833	-112
1.80200	-113
1.80567	-109
1.80933	-106
1.81300	-104
1.81667	-101
1.82033	-96
1.82400	-89
1.82767	-84
1.83133	-79
1.83500	-75
1.83867	-73
1.84233	-76
1.84600	-84
1.84967	-96
1.85333	-102
1.85700	-102
1.86067	-101
1.86433	-99
1.86800	-96
1.87167	-96
1.87533	-96
1.87900	-93
1.88267	-93
1.88633	-93
1.89000	-92
1.89367	-92
1.89733	-94
1.90100	-96
1.90467	-96
1.90833	-95
1.91200	-95
1.91567	-97
1.91933	-99
1.92300	-98
1.92667	-93
1.93033	-88
1.93400	-85
1.93767	-84
1.94133	-83
1.94500	-83
1.94867	-82
1.95233	-76
1.95600	-24
1.95967	307
1.96333	1952
1.96700	8185
1.97067	26170
1.97433	66394
1.97800	137148
1.98167	236760
1.98533	351366
1.98900	461004
1.99267	547132
1.99633	596437
2.00000	602260
2.00367	565410
2.00733	494945
2.01100	405967
2.01467	314456
2.01833	232351
2.02200	165623
2.02567	115141
2.02933	78844
2.03300	53655
2.03667	36576
2.04033	25152
2.04400	17556
2.04767	12502
2.05133	9116
2.05500	6821
2.05867	5245
2.06233	4143
2.06600	3353
2.06967	2771
2.07333	2336
2.07700	2005
2.08067	1743
2.08433	1535
2.08800	1367
2.09167	1228
2.09533	1107
2.09900	1003
2.10267	913
2.10633	834
2.11000	766
2.11367	709
2.11733	663
2.12100	621
2.12467	583
2.12833	547
2.13200	517
2.13567	490
2.13933	465
2.14300	439
2.14667	414
2.15033	391
2.15400	373
2.15767	358
2.16133	346
2.16500	332
2.16867	317
2.17233	303
2.17600	293
2.17967	282
2.18333	269
2.18700	255
2.19067	243
2.19433	234
2.19800	225
2.20167	217
2.20533	213
2.20900	214
2.21267	215
2.21633	208
2.22000	197
2.22367	183
2.22733	170
2.23100	160
2.23467	153
2.23833	148
2.24200	144
2.24567	139
2.24933	134
2.25300	131
2.25667	132
2.26033	135
2.26400	140
2.26767	140
2.27133	137
2.27500	136
2.27867	138
2.28233	140
2.28600	140
2.28967	137
2.29333	129
2.29700	118
2.30067	109
2.30433	104
2.30800	99
2.31167	91
2.31533	83
2.31900	76
2.32267	71
2.32633	68
2.33000	66
2.33367	65
2.33733	66
2.34100	69
2.34467	75
2.34833	82
2.35200	86
2.35567	87
2.35933	87
2.36300	88
2.36667	88
2.37033	86
2.37400	82
2.37767	79
2.38133	78
2.38500	79
2.38867	81
2.39233	81
2.39600	82
2.39967	80
2.40333	73
2.40700	65
2.41067	57
2.41433	50
2.41800	45
2.42167	42
2.42533	43
2.42900	47
2.43267	51
2.43633	52
2.44000	54
2.44367	57
2.44733	59
2.45100	61
2.45467	61
2.45833	56
2.46200	51
2.46567	47
2.46933	48
2.47300	53
2.47667	60
2.48033	64
2.48400	65
2.48767	63
2.49133	59
2.49500	55
2.49867	49
2.50233	46
2.50600	43
2.50967	40
2.51333	37
2.51700	34
2.52067	32
2.52433	31
2.52800	34
2.53167	37
2.53533	39
2.53900	39
2.54267	39
2.54633	38
2.55000	37
2.55367	39
2.55733	42
2.56100	41
2.56467	36
2.56833	30
2.57200	26
2.57567	23
2.57933	21
2.58300	22
2.58667	25
2.59033	24
2.59400	21
2.59767	19
2.60133	18
2.60500	16
2.60867	18
2.61233	20
2.61600	21
2.61967	20
2.62333	19
2.62700	21
2.63067	25
2.63433	26
2.63800	23
2.64167	18
2.64533	12
2.64900	4
2.65267	-1
2.65633	-1
2.66000	1
2.66367	7
2.66733	14
2.67100	21
2.67467	26
2.67833	27
2.68200	24
2.68567	22
2.68933	19
2.69300	18
2.69667	21
2.70033	24
2.70400	23
2.70767	21
2.71133	17
2.71500	16
2.71867	16
2.72233	14
2.72600	8
2.72967	-1
2.73333	-11
2.73700	-17
2.74067	-15
2.74433	-8
2.74800	-4
2.75167	-5
2.75533	-9
2.75900	-14
2.76267	-15
2.76633	-9
2.77000	-2
2.77367	0
2.77733	-4
2.78100	-10
2.78467	-12
2.78833	-10
2.79200	-6
2.79567	-2
2.79933	-4
2.80300	-10
2.80667	-15
2.81033	-17
2.81400	-12
2.81767	-3
2.82133	8
2.82500	13
2.82867	12
2.83233	7
2.83600	4
2.83967	5
2.84333	6
2.84700	7
2.85067	8
2.85433	5
2.85800	-1
2.86167	-9
2.86533	-14
2.86900	-16
2.87267	-16
2.87633	-15
2.88000	-12
2.88367	-10
2.88733	-6
2.89100	-2
2.89467	-1
2.89833	-2
2.90200	-4
2.90567	-8
2.90933	-11
2.91300	-13
2.91667	-14
2.92033	-15
2.92400	-15
2.92767	-15
2.93133	-14
2.93500	-13
2.93867	-13
2.94233	-16
2.94600	-18
2.94967	-15
2.95333	-9
2.95700	-0
2.96067	6
2.96433	7
2.96800	3
2.97167	-0
2.97533	-3
2.97900	-8
2.98267	-12
2.98633	-13
2.99000	-11
2.99367	-6
2.99733	1
3.00100	7
3.00467	10
3.00833	10
3.01200	8
3.01567	6
3.01933	1
3.02300	-5
3.02667	-11
3.03033	-16
3.03400	-20
3.03767	-24
3.04133	-25
3.04500	-24
3.04867	-21
3.05233	-20
3.05600	-19
3.05967	-15
3.06333	-10
3.06700	-7
3.07067	-4
3.07433	-5
3.07800	-9
3.08167	-13
3.08533	-14
3.08900	-13
3.09267	-10
3.09633	-6
3.10000	-6
3.10367	-12
3.10733	-19
3.11100	-22
3.11467	-23
3.11833	-26
3.12200	-26
3.12567	-26
3.12933	-27
3.13300	-27
3.13667	-29
3.14033	-34
3.14400	-37
3.14767	-36
3.15133	-30
3.15500	-22
3.15867	-19
3.16233	-18
3.16600	-11
3.16967	-10
3.17333	-11
3.17700	-9
3.18067	-5
3.18433	-1
3.18800	-1
3.19167	-7
3.19533	-15
3.19900	-19
3.20267	-19
3.20633	-19
3.21000	-23
3.21367	-26
3.21733	-27
3.22100	-26
3.22467	-23
3.22833	-20
3.23200	-16
3.23567	-13
3.23933	-15
3.24300	-19
3.24667	-21
3.25033	-20
3.25400	-17
3.25767	-16
3.26133	-18
3.26500	-21
3.26867	-24
3.27233	-25
3.27600	-26
3.27967	-25
3.28333	-25
3.28700	-24
3.29067	-20
3.29433	-14
3.29800	-11
3.30167	-12
3.30533	-13
3.30900	-14
3.31267	-16
3.31633	-18
3.32000	-20
3.32367	-19
3.32733	-17
3.33100	-18
3.33467	-22
3.33833	-24
3.34200	-22
3.34567	-21
3.34933	-23
3.35300	-25
3.35667	-28
3.36033	-31
3.36400	-34
3.36767	-35
3.37133	-34
3.37500	-35
3.37867	-37
3.38233	-39
3.38600	-41
3.38967	-43
3.39333	-45
3.39700	-43
3.40067	-37
3.40433	-27
3.40800	-17
3.41167	-9
3.41533	-3
3.41900	-2
3.42267	-3
3.42633	-5
3.43000	-11
3.43367	-17
3.43733	-21
3.44100	-23
3.44467	-22
3.44833	-19
3.45200	-18
3.45567	-19
3.45933	-21
3.46300	-23
3.46667	-23
3.47033	-23
3.47400	-25
3.47767	-27
3.48133	-28
3.48500	-31
3.48867	-34
3.49233	-36
3.49600	-37
3.49967	-35
3.50333	-33
3.50700	-32
3.51067	-33
3.51433	-33
3.51800	-31
3.52167	-25
3.52533	-19
3.52900	-16
3.53267	-17
3.53633	-20
3.54000	-23
3.54367	-25
3.54733	-24
3.55100	-18
3.55467	-14
3.55833	-15
3.56200	-13
3.56567	-11
3.56933	-9
3.57300	-7
3.57667	-4
3.58033	-0
3.58400	1
3.58767	-1
3.59133	-7
3.59500	-12
3.59867	-18
3.60233	-21
3.60600	-18
3.60967	-13
3.61333	-10
3.61700	-11
3.62067	-16
3.62433	-21
3.62800	-23
3.63167	-20
3.63533	-19
3.63900	-19
3.64267	-16
3.64633	-10
3.65000	-0
3.65367	13
3.65733	23
3.66100	27
3.66467	23
3.66833	14
3.67200	2
3.67567	-12
3.67933	-24
3.68300	-33
3.68667	-41
3.69033	-49
3.69400	-54
3.69767	-52
3.70133	-44
3.70500	-37
3.70867	-33
3.71233	-26
3.71600	-18
3.71967	-12
3.72333	-10
3.72700	-11
3.73067	-13
3.73433	-15
3.73800	-19
3.74167	-22
3.74533	-23
3.74900	-23
3.75267	-23
3.75633	-25
3.76000	-24
3.76367	-21
3.76733	-18
3.77100	-15
3.77467	-12
3.77833	-8
3.78200	1
3.78567	10
3.78933	16
3.79300	14
3.79667	9
3.80033	5
3.80400	3
3.80767	-2
3.81133	-5
3.81500	-6
3.81867	-6
3.82233	-7
3.82600	-5
3.82967	-1
3.83333	1
3.83700	1
3.84067	-2
3.84433	-4
3.84800	-4
3.85167	-3
3.85533	-3
3.85900	-2
3.86267	-4
3.86633	-11
3.87000	-18
3.87367	-24
3.87733	-31
3.88100	-36
3.88467	-36
3.88833	-33
3.89200	-24
3.89567	-14
3.89933	-9
3.90300	-10
3.90667	-12
3.91033	-11
3.91400	-5
3.91767	2
3.92133	7
3.92500	10
3.92867	12
3.93233	14
3.93600	13
3.93967	8
3.94333	1
3.94700	-7
3.95067	-17
3.95433	-21
3.95800	-20
3.96167	-15
3.96533	-10
3.96900	-5
3.97267	-4
3.97633	-7
3.98000	-9
3.98367	-9
3.98733	-7
3.99100	-2
3.99467	5
3.99833	6

[Chromatogram (Ch2)]
Interval(msec)	220
# of Points	1091
Start Time(min)	0.002
End Time(min)	3.998
R.Time (min)	Intensity
0.00167	-1
0.00533	-1
0.00900	-1
0.01267	-1
0.01633	-1
0.02000	-1
0.02367	-2
0.02733	-2
0.03100	-1
0.03467	-1
0.03833	-1
0.04200	-0
0.04567	-0
0.04933	0
0.05300	0
0.05667	1
0.06033	1
0.06400	1
0.06767	1
0.07133	1
0.07500	1
0.07867	1
0.08233	1
0.08600	1
0.08967	1
0.09333	1
0.09700	1
0.10067	1
0.10433	0
0.10800	-0
0.11167	-0
0.11533	-1
0.11900	-1
0.12267	-1
0.12633	-1
0.13000	-1
0.13367	-0
0.13733	-0
0.14100	-0
0.14467	0
0.14833	0
0.15200	1
0.15567	1
0.15933	2
0.16300	2
0.16667	2
0.17033	2
0.17400	3
0.17767	3
0.18133	3
0.18500	3
0.18867	3
0.19233	3
0.19600	3
0.19967	3
0.20333	3
0.20700	3
0.21067	3
0.21433	3
0.21800	3
0.22167	3
0.22533	3
0.22900	3
0.23267	3
0.23633	3
0.24000	3
0.24367	3
0.24733	3
0.25100	3
0.25467	3
0.25833	3
0.26200	3
0.26567	3
0.26933	3
0.27300	3
0.27667	3
0.28033	3
0.28400	3
0.28767	3
0.29133	3
0.29500	3
0.29867	3
0.30233	3
0.30600	3
0.30967	3
0.31333	3
0.31700	3
0.32067	3
0.32433	3
0.32800	2
0.33167	2
0.33533	2
0.33900	2
0.34267	2
0.34633	2
0.35000	2
0.35367	2
0.35733	2
0.36100	2
0.36467	2
0.36833	2
0.37200	2
0.37567	2
0.37933	2
0.38300	2
0.38667	2
0.39033	2
0.39400	2
0.39767	2
0.40133	2
0.40500	2
0.40867	2
0.41233	2
0.41600	2
0.41967	2
0.42333	2
0.42700	2
0.43067	2
0.43433	1
0.43800	1
0.44167	0
0.44533	0
0.44900	-0
0.45267	-0
0.45633	-0
0.46000	0
0.46367	0
0.46733	0
0.47100	0
0.47467	0
0.47833	0
0.48200	0
0.48567	1
0.48933	1
0.49300	1
0.49667	1
0.50033	1
0.50400	1
0.50767	1
0.51133	1
0.51500	1
0.51867	1
0.52233	1
0.52600	1
0.52967	1
0.53333	1
0.53700	1
0.54067	2
0.54433	1
0.54800	1
0.55167	1
0.55533	0
0.55900	-0
0.56267	-1
0.56633	-1
0.57000	-1
0.57367	-1
0.57733	-1
0.58100	-2
0.58467	-2
0.58833	-2
0.59200	-2
0.59567	-2
0.59933	-2
0.60300	-2
0.60667	-2
0.61033	-2
0.61400	-2
0.61767	-2
0.62133	-1
0.62500	-1
0.62867	-1
0.63233	-1
0.63600	-1
0.63967	-0
0.64333	-0
0.64700	-0
0.65067	-0
0.65433	-0
0.65800	-1
0.66167	-1
0.66533	-1
0.66900	-1
0.67267	-1
0.67633	-1
0.68000	-1
0.68367	-1
0.68733	-1
0.69100	-1
0.69467	-1
0.69833	-1
0.70200	-0
0.70567	0
0.70933	0
0.71300	0
0.71667	0
0.72033	0
0.72400	-0
0.72767	-0
0.73133	-0
0.73500	-0
0.73867	0
0.74233	0
0.74600	1
0.74967	1
0.75333	1
0.75700	1
0.76067	1
0.76433	1
0.76800	1
0.77167	1
0.77533	1
0.77900	0
0.78267	-0
0.78633	-0
0.79000	-1
0.79367	-1
0.79733	-1
0.80100	-1
0.80467	-1
0.80833	-1
0.81200	-1
0.81567	-1
0.81933	-1
0.82300	-1
0.82667	-1
0.83033	-0
0.83400	-0
0.83767	-0
0.84133	-0
0.84500	-0
0.84867	-0
0.85233	-0
0.85600	-0
0.85967	-0
0.86333	-0
0.86700	-0
0.87067	-0
0.87433	-0
0.87800	-0
0.88167	0
0.88533	0
0.88900	0
0.89267	0
0.89633	0
0.90000	0
0.90367	0
0.90733	-0
0.91100	-0
0.91467	-0
0.91833	-1
0.92200	-0
0.92567	-0
0.92933	-0
0.93300	-0
0.93667	-0
0.94033	0
0.94400	0
0.94767	0
0.95133	0
0.95500	0
0.95867	1
0.96233	1
0.96600	1
0.96967	1
0.97333	2
0.97700	2
0.98067	2
0.98433	2
0.98800	2
0.99167	2
0.99533	2
0.99900	2
1.00267	2
1.00633	2
1.01000	1
1.01367	1
1.01733	1
1.02100	1
1.02467	1
1.02833	1
1.03200	1
1.03567	1
1.03933	1
1.04300	0
1.04667	0
1.05033	-0
1.05400	-0
1.05767	-1
1.06133	-1
1.06500	-1
1.06867	-1
1.07233	-1
1.07600	-2
1.07967	-2
1.08333	-2
1.08700	-2
1.09067	-2
1.09433	-1
1.09800	-1
1.10167	-1
1.10533	-1
1.10900	-1
1.11267	-1
1.11633	-1
1.12000	-1
1.12367	-1
1.12733	-1
1.13100	-1
1.13467	-1
1.13833	-2
1.14200	-2
1.14567	-2
1.14933	-2
1.15300	-2
1.15667	-1
1.16033	-2
1.16400	-2
1.16767	-2
1.17133	-2
1.17500	-2
1.17867	-2
1.18233	-2
1.18600	-2
1.18967	-2
1.19333	-2
1.19700	-2
1.20067	-2
1.20433	-2
1.20800	-2
1.21167	-2
1.21533	-2
1.21900	-3
1.22267	-3
1.22633	-2
1.23000	-2
1.23367	-2
1.23733	-2
1.24100	-1
1.24467	-1
1.24833	-1
1.25200	-1
1.25567	-1
1.25933	-1
1.26300	-1
1.26667	-1
1.27033	-2
1.27400	-2
1.27767	-1
1.28133	-2
1.28500	-2
1.28867	-1
1.29233	-1
1.29600	-1
1.29967	-1
1.30333	-1
1.30700	-0
1.31067	-0
1.31433	-0
1.31800	0
1.32167	0
1.32533	0
1.32900	-0
1.33267	-0
1.33633	-0
1.34000	-0
1.34367	0
1.34733	0
1.35100	0
1.35467	0
1.35833	1
1.36200	1
1.36567	1
1.36933	0
1.37300	0
1.37667	-0
1.38033	-0
1.38400	-0
1.38767	-0
1.39133	-0
1.39500	-0
1.39867	-1
1.40233	-1
1.40600	-1
1.40967	-2
1.41333	-2
1.41700	-2
1.42067	-2
1.42433	-2
1.42800	-2
1.43167	-2
1.43533	-2
1.43900	-2
1.44267	-1
1.44633	-1
1.45000	-1
1.45367	-0
1.45733	-0
1.46100	0
1.46467	0
1.46833	0
1.47200	1
1.47567	1
1.47933	1
1.48300	1
1.48667	1
1.49033	1
1.49400	0
1.49767	0
1.50133	0
1.50500	-0
1.50867	-0
1.51233	-1
1.51600	-1
1.51967	-1
1.52333	-2
1.52700	-2
1.53067	-2
1.53433	-2
1.53800	-2
1.54167	-2
1.54533	-2
1.54900	-2
1.55267	-2
1.55633	-2
1.56000	-2
1.56367	-2
1.56733	-2
1.57100	-3
1.57467	-3
1.57833	-3
1.58200	-3
1.58567	-3
1.58933	-3
1.59300	-3
1.59667	-4
1.60033	-4
1.60400	-5
1.60767	-6
1.61133	-7
1.61500	-9
1.61867	-11
1.62233	-14
1.62600	-16
1.62967	-19
1.63333	-22
1.63700	-26
1.64067	-29
1.64433	-33
1.64800	-37
1.65167	-40
1.65533	-44
1.65900	-48
1.66267	-52
1.66633	-56
1.67000	-61
1.67367	-66
1.67733	-71
1.68100	-76
1.68467	-82
1.68833	-86
1.69200	-91
1.69567	-95
1.69933	-98
1.70300	-102
1.70667	-104
1.71033	-106
1.71400	-108
1.71767	-110
1.72133	-111
1.72500	-112
1.72867	-112
1.73233	-113
1.73600	-113
1.73967	-113
1.74333	-113
1.74700	-114
1.75067	-114
1.75433	-115
1.75800	-115
1.76167	-116
1.76533	-117
1.76900	-118
1.77267	-118
1.77633	-119
1.78000	-120
1.78367	-120
1.78733	-120
1.79100	-121
1.79467	-122
1.79833	-122
1.80200	-122
1.80567	-123
1.80933	-123
1.81300	-123
1.81667	-122
1.82033	-122
1.82400	-121
1.82767	-121
1.83133	-121
1.83500	-120
1.83867	-120
1.84233	-121
1.84600	-121
1.84967	-122
1.85333	-122
1.85700	-122
1.86067	-122
1.86433	-122
1.86800	-122
1.87167	-122
1.87533	-122
1.87900	-122
1.88267	-122
1.88633	-122
1.89000	-122
1.89367	-122
1.89733	-121
1.90100	-121
1.90467	-121
1.90833	-121
1.91200	-120
1.91567	-120
1.91933	-120
1.92300	-120
1.92667	-120
1.93033	-120
1.93400	-120
1.93767	-120
1.94133	-119
1.94500	-119
1.94867	-119
1.95233	-118
1.95600	-118
1.95967	-118
1.96333	-119
1.96700	-119
1.97067	-119
1.97433	-119
1.97800	-118
1.98167	-118
1.98533	-117
1.98900	-117
1.99267	-116
1.99633	-116
2.00000	-115
2.00367	-115
2.00733	-114
2.01100	-114
2.01467	-113
2.01833	-113
2.02200	-113
2.02567	-113
2.02933	-113
2.03300	-113
2.03667	-113
2.04033	-113
2.04400	-112
2.04767	-112
2.05133	-112
2.05500	-111
2.05867	-110
2.06233	-110
2.06600	-109
2.06967	-109
2.07333	-108
2.07700	-108
2.08067	-108
2.08433	-108
2.08800	-108
2.09167	-107
2.09533	-107
2.09900	-106
2.10267	-106
2.10633	-105
2.11000	-105
2.11367	-105
2.11733	-104
2.12100	-104
2.12467	-104
2.12833	-104
2.13200	-104
2.13567	-103
2.13933	-103
2.14300	-102
2.14667	-101
2.15033	-101
2.15400	-101
2.15767	-100
2.16133	-100
2.16500	-100
2.16867	-99
2.17233	-99
2.17600	-99
2.17967	-99
2.18333	-98
2.18700	-98
2.19067	-98
2.19433	-97
2.19800	-97
2.20167	-96
2.20533	-96
2.20900	-96
2.21267	-96
2.21633	-96
2.22000	-96
2.22367	-96
2.22733	-96
2.23100	-95
2.23467	-95
2.23833	-95
2.24200	-95
2.24567	-95
2.24933	-95
2.25300	-95
2.25667	-94
2.26033	-94
2.26400	-94
2.26767	-94
2.27133	-94
2.27500	-94
2.27867	-93
2.28233	-93
2.28600	-92
2.28967	-92
2.29333	-92
2.29700	-91
2.30067	-91
2.30433	-91
2.30800	-91
2.31167	-90
2.31533	-90
2.31900	-89
2.32267	-89
2.32633	-89
2.33000	-89
2.33367	-88
2.33733	-88
2.34100	-88
2.34467	-88
2.34833	-87
2.35200	-86
2.35567	-85
2.35933	-85
2.36300	-84
2.36667	-83
2.37033	-82
2.37400	-81
2.37767	-78
2.38133	-76
2.38500	-72
2.38867	-69
2.39233	-64
2.39600	-60
2.39967	-55
2.40333	-50
2.40700	-45
2.41067	-40
2.41433	-35
2.41800	-31
2.42167	-27
2.42533	-24
2.42900	-21
2.43267	-18
2.43633	-15
2.44000	-13
2.44367	-11
2.44733	-9
2.45100	-8
2.45467	-7
2.45833	-6
2.46200	-5
2.46567	-4
2.46933	-3
2.47300	-1
2.47667	0
2.48033	2
2.48400	3
2.48767	4
2.49133	4
2.49500	5
2.49867	5
2.50233	6
2.50600	7
2.50967	8
2.51333	9
2.51700	10
2.52067	11
2.52433	11
2.52800	12
2.53167	12
2.53533	12
2.53900	12
2.54267	13
2.54633	13
2.55000	13
2.55367	14
2.55733	14
2.56100	15
2.56467	16
2.56833	16
2.57200	17
2.57567	17
2.57933	17
2.58300	17
2.58667	17
2.59033	17
2.59400	18
2.59767	18
2.60133	18
2.60500	19
2.60867	19
2.61233	19
2.61600	19
2.61967	20
2.62333	20
2.62700	20
2.63067	20
2.63433	20
2.63800	20
2.64167	20
2.64533	20
2.64900	21
2.65267	21
2.65633	22
2.66000	22
2.66367	22
2.66733	22
2.67100	22
2.67467	22
2.67833	22
2.68200	22
2.68567	22
2.68933	22
2.69300	22
2.69667	22
2.70033	22
2.70400	22
2.70767	22
2.71133	22
2.71500	22
2.71867	22
2.72233	22
2.72600	23
2.72967	23
2.73333	24
2.73700	24
2.74067	24
2.74433	25
2.74800	25
2.75167	26
2.75533	26
2.75900	26
2.76267	27
2.76633	27
2.77000	27
2.77367	28
2.77733	28
2.78100	27
2.78467	27
2.78833	27
2.79200	26
2.79567	26
2.79933	25
2.80300	25
2.80667	25
2.81033	24
2.81400	24
2.81767	24
2.82133	24
2.82500	24
2.82867	25
2.83233	25
2.83600	25
2.83967	25
2.84333	24
2.84700	23
2.85067	20
2.85433	15
2.85800	8
2.86167	-3
2.86533	-18
2.86900	-36
2.87267	-58
2.87633	-85
2.88000	-115
2.88367	-150
2.88733	-187
2.89100	-228
2.89467	-272
2.89833	-318
2.90200	-366
2.90567	-416
2.90933	-467
2.91300	-519
2.91667	-571
2.92033	-623
2.92400	-675
2.92767	-726
2.93133	-777
2.93500	-829
2.93867	-883
2.94233	-943
2.94600	-1006
2.94967	-1065
2.95333	-1108
2.95700	-1126
2.96067	-1117
2.96433	-1082
2.96800	-1027
2.97167	-957
2.97533	-879
2.97900	-797
2.98267	-714
2.98633	-634
2.99000	-559
2.99367	-489
2.99733	-425
3.00100	-368
3.00467	-317
3.00833	-272
3.01200	-232
3.01567	-197
3.01933	-167
3.02300	-141
3.02667	-119
3.03033	-99
3.03400	-83
3.03767	-68
3.04133	-56
3.04500	-46
3.04867	-37
3.05233	-29
3.05600	-23
3.05967	-17
3.06333	-12
3.06700	-8
3.07067	-5
3.07433	-2
3.07800	1
3.08167	3
3.08533	5
3.08900	6
3.09267	7
3.09633	9
3.10000	10
3.10367	11
3.10733	12
3.11100	12
3.11467	13
3.11833	14
3.12200	14
3.12567	15
3.12933	15
3.13300	15
3.13667	16
3.14033	16
3.14400	17
3.14767	17
3.15133	17
3.15500	18
3.15867	18
3.16233	19
3.16600	19
3.16967	19
3.17333	20
3.17700	20
3.18067	20
3.18433	20
3.18800	21
3.19167	21
3.19533	21
3.19900	22
3.20267	22
3.20633	22
3.21000	22
3.21367	22
3.21733	22
3.22100	22
3.22467	23
3.22833	23
3.23200	23
3.23567	23
3.23933	23
3.24300	24
3.24667	24
3.25033	24
3.25400	24
3.25767	24
3.26133	24
3.26500	25
3.26867	25
3.27233	25
3.27600	26
3.27967	26
3.28333	27
3.28700	27
3.29067	27
3.29433	27
3.29800	27
3.30167	28
3.30533	28
3.30900	28
3.31267	28
3.31633	28
3.32000	28
3.32367	29
3.32733	29
3.33100	29
3.33467	29
3.33833	29
3.34200	30
3.34567	30
3.34933	30
3.35300	30
3.35667	30
3.36033	30
3.36400	30
3.36767	30
3.37133	30
3.37500	30
3.37867	30
3.38233	30
3.38600	30
3.38967	30
3.39333	30
3.39700	30
3.40067	29
3.40433	29
3.40800	29
3.41167	29
3.41533	29
3.41900	28
3.42267	28
3.42633	28
3.43000	28
3.43367	28
3.43733	29
3.44100	29
3.44467	29
3.44833	29
3.45200	29
3.45567	29
3.45933	29
3.46300	29
3.46667	29
3.47033	29
3.47400	29
3.47767	29
3.48133	28
3.48500	28
3.48867	28
3.49233	28
3.49600	28
3.49967	27
3.50333	27
3.50700	27
3.51067	27
3.51433	27
3.51800	27
3.52167	27
3.52533	28
3.52900	28
3.53267	28
3.53633	28
3.54000	28
3.54367	28
3.54733	28
3.55100	28
3.55467	28
3.55833	28
3.56200	28
3.56567	27
3.56933	27
3.57300	27
3.57667	27
3.58033	27
3.58400	26
3.58767	26
3.59133	26
3.59500	26
3.59867	26
3.60233	26
3.60600	26
3.60967	26
3.61333	26
3.61700	26
3.62067	26
3.62433	26
3.62800	26
3.63167	26
3.63533	25
3.63900	25
3.64267	26
3.64633	26
3.65000	26
3.65367	27
3.65733	27
3.66100	27
3.66467	28
3.66833	28
3.67200	28
3.67567	29
3.67933	29
3.68300	29
3.68667	29
3.69033	29
3.69400	30
3.69767	30
3.70133	30
3.70500	31
3.70867	31
3.71233	31
3.71600	31
3.71967	31
3.72333	31
3.72700	31
3.73067	31
3.73433	31
3.73800	31
3.74167	31
3.74533	31
3.74900	32
3.75267	32
3.75633	32
3.76000	32
3.76367	32
3.76733	32
3.77100	32
3.77467	32
3.77833	31
3.78200	31
3.78567	31
3.78933	31
3.79300	30
3.79667	30
3.80033	30
3.80400	29
3.80767	29
3.81133	29
3.81500	29
3.81867	29
3.82233	29
3.82600	29
3.82967	29
3.83333	29
3.83700	29
3.84067	29
3.84433	28
3.84800	28
3.85167	28
3.85533	28
3.85900	28
3.86267	28
3.86633	28
3.87000	28
3.87367	28
3.87733	28
3.88100	28
3.88467	28
3.88833	28
3.89200	28
3.89567	28
3.89933	28
3.90300	28
3.90667	28
3.91033	28
3.91400	29
3.91767	29
3.92133	29
3.92500	29
3.92867	28
3.93233	28
3.93600	28
3.93967	28
3.94333	28
3.94700	28
3.95067	27
3.95433	27
3.95800	27
3.96167	27
3.96533	27
3.96900	27
3.97267	28
3.97633	28
3.98000	28
3.98367	28
3.98733	28
3.99100	28
3.99467	28
3.99833	28

[Chromatogram (Ch3)]
Interval(msec)	220
# of Points	1091
Start Time(min)	0.002
End Time(min)	3.998
R.Time (min)	Intensity
0.00167	0
0.00533	-1
0.00900	-1
0.01267	0
0.01633	2
0.02000	2
0.02367	1
0.02733	0
0.03100	-0
0.03467	2
0.03833	3
0.04200	3
0.04567	4
0.04933	3
0.05300	3
0.05667	4
0.06033	5
0.06400	6
0.06767	7
0.07133	8
0.07500	9
0.07867	9
0.08233	8
0.08600	8
0.08967	9
0.09333	8
0.09700	8
0.10067	10
0.10433	13
0.10800	12
0.11167	11
0.11533	11
0.11900	11
0.12267	9
0.12633	9
0.13000	9
0.13367	8
0.13733	9
0.14100	9
0.14467	9
0.14833	8
0.15200	10
0.15567	10
0.15933	10
0.16300	11
0.16667	10
0.17033	11
0.17400	12
0.17767	14
0.18133	18
0.18500	18
0.18867	18
0.19233	17
0.19600	18
0.19967	17
0.20333	16
0.20700	16
0.21067	18
0.21433	20
0.21800	20
0.22167	20
0.22533	21
0.22900	20
0.23267	20
0.23633	20
0.24000	21
0.24367	22
0.24733	21
0.25100	21
0.25467	21
0.25833	20
0.26200	18
0.26567	18
0.26933	19
0.27300	19
0.27667	21
0.28033	20
0.28400	18
0.28767	18
0.29133	19
0.29500	20
0.29867	23
0.30233	22
0.30600	19
0.30967	17
0.31333	14
0.31700	12
0.32067	12
0.32433	15
0.32800	17
0.33167	16
0.33533	14
0.33900	14
0.34267	14
0.34633	13
0.35000	12
0.35367	15
0.35733	20
0.36100	22
0.36467	24
0.36833	25
0.37200	24
0.37567	24
0.37933	24
0.38300	23
0.38667	23
0.39033	23
0.39400	21
0.39767	19
0.40133	17
0.40500	20
0.40867	22
0.41233	23
0.41600	25
0.41967	26
0.42333	25
0.42700	25
0.43067	24
0.43433	24
0.43800	27
0.44167	29
0.44533	29
0.44900	28
0.45267	26
0.45633	26
0.46000	25
0.46367	25
0.46733	24
0.47100	22
0.47467	20
0.47833	20
0.48200	21
0.48567	23
0.48933	25
0.49300	25
0.49667	24
0.50033	24
0.50400	26
0.50767	26
0.51133	25
0.51500	27
0.51867	28
0.52233	29
0.52600	31
0.52967	31
0.53333	32
0.53700	32
0.54067	33
0.54433	34
0.54800	35
0.55167	37
0.55533	38
0.55900	39
0.56267	38
0.56633	36
0.57000	35
0.57367	34
0.57733	34
0.58100	35
0.58467	35
0.58833	35
0.59200	33
0.59567	32
0.59933	32
0.60300	34
0.60667	35
0.61033	34
0.61400	37
0.61767	39
0.62133	39
0.62500	38
0.62867	37
0.63233	36
0.63600	36
0.63967	36
0.64333	36
0.64700	35
0.65067	34
0.65433	34
0.65800	33
0.66167	33
0.66533	34
0.66900	37
0.67267	39
0.67633	41
0.68000	44
0.68367	46
0.68733	48
0.69100	48
0.69467	46
0.69833	47
0.70200	47
0.70567	46
0.70933	45
0.71300	46
0.71667	46
0.72033	46
0.72400	44
0.72767	43
0.73133	44
0.73500	44
0.73867	41
0.74233	40
0.74600	40
0.74967	40
0.75333	42
0.75700	44
0.76067	44
0.76433	43
0.76800	45
0.77167	46
0.77533	45
0.77900	43
0.78267	44
0.78633	43
0.79000	42
0.79367	41
0.79733	41
0.80100	42
0.80467	43
0.80833	41
0.81200	41
0.81567	43
0.81933	46
0.82300	46
0.82667	44
0.83033	42
0.83400	42
0.83767	45
0.84133	47
0.84500	48
0.84867	47
0.85233	46
0.85600	45
0.85967	44
0.86333	44
0.86700	46
0.87067	48
0.87433	49
0.87800	50
0.88167	51
0.88533	49
0.88900	47
0.89267	47
0.89633	49
0.90000	48
0.90367	47
0.90733	48
0.91100	50
0.91467	50
0.91833	48
0.92200	47
0.92567	47
0.92933	50
0.93300	52
0.93667	51
0.94033	51
0.94400	50
0.94767	50
0.95133	49
0.95500	47
0.95867	47
0.96233	48
0.96600	51
0.96967	53
0.97333	52
0.97700	53
0.98067	54
0.98433	54
0.98800	55
0.99167	55
0.99533	53
0.99900	52
1.00267	52
1.00633	53
1.01000	55
1.01367	56
1.01733	60
1.02100	62
1.02467	61
1.02833	62
1.03200	64
1.03567	62
1.03933	62
1.04300	62
1.04667	61
1.05033	61
1.05400	62
1.05767	63
1.06133	64
1.06500	65
1.06867	66
1.07233	64
1.07600	64
1.07967	64
1.08333	64
1.08700	64
1.09067	64
1.09433	63
1.09800	60
1.10167	57
1.10533	57
1.10900	59
1.11267	60
1.11633	62
1.12000	65
1.12367	66
1.12733	66
1.13100	65
1.13467	64
1.13833	63
1.14200	65
1.14567	66
1.14933	67
1.15300	69
1.15667	68
1.16033	68
1.16400	68
1.16767	69
1.17133	69
1.17500	68
1.17867	68
1.18233	69
1.18600	71
1.18967	74
1.19333	74
1.19700	75
1.20067	74
1.20433	72
1.20800	70
1.21167	72
1.21533	73
1.21900	73
1.22267	72
1.22633	71
1.23000	70
1.23367	70
1.23733	72
1.24100	76
1.24467	78
1.24833	78
1.25200	77
1.25567	78
1.25933	77
1.26300	74
1.26667	72
1.27033	72
1.27400	72
1.27767	73
1.28133	73
1.28500	74
1.28867	73
1.29233	72
1.29600	72
1.29967	73
1.30333	72
1.30700	70
1.31067	70
1.31433	71
1.31800	72
1.32167	75
1.32533	77
1.32900	78
1.33267	77
1.33633	74
1.34000	73
1.34367	72
1.34733	71
1.35100	73
1.35467	74
1.35833	73
1.36200	72
1.36567	73
1.36933	75
1.37300	74
1.37667	73
1.38033	73
1.38400	74
1.38767	76
1.39133	75
1.39500	74
1.39867	73
1.40233	74
1.40600	75
1.40967	74
1.41333	75
1.41700	76
1.42067	75
1.42433	76
1.42800	77
1.43167	78
1.43533	79
1.43900	81
1.44267	81
1.44633	80
1.45000	80
1.45367	82
1.45733	83
1.46100	81
1.46467	80
1.46833	81
1.47200	80
1.47567	79
1.47933	77
1.48300	75
1.48667	75
1.49033	75
1.49400	74
1.49767	76
1.50133	76
1.50500	75
1.50867	75
1.51233	73
1.51600	74
1.51967	74
1.52333	75
1.52700	76
1.53067	77
1.53433	79
1.53800	78
1.54167	78
1.54533	79
1.54900	79
1.55267	81
1.55633	83
1.56000	85
1.56367	84
1.56733	80
1.57100	77
1.57467	75
1.57833	75
1.58200	78
1.58567	80
1.58933	82
1.59300	83
1.59667	84
1.60033	87
1.60400	87
1.60767	87
1.61133	86
1.61500	88
1.61867	89
1.62233	88
1.62600	87
1.62967	87
1.63333	86
1.63700	88
1.64067	90
1.64433	90
1.64800	90
1.65167	92
1.65533	94
1.65900	95
1.66267	95
1.66633	97
1.67000	97
1.67367	96
1.67733	94
1.68100	94
1.68467	97
1.68833	98
1.69200	98
1.69567	99
1.69933	101
1.70300	103
1.70667	103
1.71033	101
1.71400	103
1.71767	103
1.72133	104
1.72500	105
1.72867	104
1.73233	104
1.73600	102
1.73967	103
1.74333	106
1.74700	109
1.75067	112
1.75433	113
1.75800	114
1.76167	113
1.76533	115
1.76900	118
1.77267	118
1.77633	118
1.78000	118
1.78367	119
1.78733	119
1.79100	122
1.79467	124
1.79833	125
1.80200	125
1.80567	125
1.80933	124
1.81300	123
1.81667	124
1.82033	125
1.82400	125
1.82767	125
1.83133	127
1.83500	127
1.83867	127
1.84233	130
1.84600	131
1.84967	132
1.85333	132
1.85700	130
1.86067	129
1.86433	129
1.86800	130
1.87167	130
1.87533	131
1.87900	131
1.88267	129
1.88633	130
1.89000	132
1.89367	132
1.89733	135
1.90100	138
1.90467	140
1.90833	140
1.91200	140
1.91567	140
1.91933	140
1.92300	140
1.92667	139
1.93033	139
1.93400	141
1.93767	142
1.94133	144
1.94500	146
1.94867	150
1.95233	150
1.95600	148
1.95967	146
1.96333	146
1.96700	145
1.97067	145
1.97433	147
1.97800	148
1.98167	150
1.98533	151
1.98900	151
1.99267	153
1.99633	154
2.00000	155
2.00367	157
2.00733	159
2.01100	161
2.01467	161
2.01833	159
2.02200	159
2.02567	156
2.02933	155
2.03300	157
2.03667	160
2.04033	164
2.04400	165
2.04767	166
2.05133	165
2.05500	165
2.05867	165
2.06233	169
2.06600	172
2.06967	174
2.07333	175
2.07700	176
2.08067	177
2.08433	177
2.08800	180
2.09167	182
2.09533	182
2.09900	182
2.10267	185
2.10633	188
2.11000	192
2.11367	195
2.11733	196
2.12100	196
2.12467	197
2.12833	198
2.13200	199
2.13567	201
2.13933	202
2.14300	202
2.14667	203
2.15033	204
2.15400	204
2.15767	205
2.16133	208
2.16500	209
2.16867	209
2.17233	211
2.17600	213
2.17967	214
2.18333	216
2.18700	217
2.19067	219
2.19433	220
2.19800	222
2.20167	222
2.20533	221
2.20900	221
2.21267	220
2.21633	220
2.22000	220
2.22367	221
2.22733	222
2.23100	222
2.23467	223
2.23833	224
2.24200	226
2.24567	227
2.24933	230
2.25300	231
2.25667	230
2.26033	231
2.26400	232
2.26767	233
2.27133	234
2.27500	234
2.27867	233
2.28233	233
2.28600	233
2.28967	231
2.29333	232
2.29700	236
2.30067	239
2.30433	242
2.30800	245
2.31167	245
2.31533	242
2.31900	240
2.32267	239
2.32633	241
2.33000	243
2.33367	245
2.33733	248
2.34100	251
2.34467	252
2.34833	251
2.35200	250
2.35567	252
2.35933	255
2.36300	256
2.36667	255
2.37033	254
2.37400	254
2.37767	251
2.38133	250
2.38500	251
2.38867	253
2.39233	253
2.39600	252
2.39967	252
2.40333	252
2.40700	252
2.41067	254
2.41433	255
2.41800	254
2.42167	254
2.42533	256
2.42900	258
2.43267	259
2.43633	260
2.44000	262
2.44367	267
2.44733	279
2.45100	295
2.45467	304
2.45833	305
2.46200	300
2.46567	292
2.46933	283
2.47300	276
2.47667	269
2.48033	264
2.48400	258
2.48767	251
2.49133	245
2.49500	238
2.49867	232
2.50233	226
2.50600	220
2.50967	215
2.51333	212
2.51700	207
2.52067	205
2.52433	204
2.52800	203
2.53167	201
2.53533	198
2.53900	195
2.54267	189
2.54633	183
2.55000	177
2.55367	172
2.55733	166
2.56100	160
2.56467	154
2.56833	150
2.57200	146
2.57567	144
2.57933	142
2.58300	138
2.58667	135
2.59033	132
2.59400	127
2.59767	121
2.60133	111
2.60500	99
2.60867	79
2.61233	49
2.61600	17
2.61967	-17
2.62333	-51
2.62700	-84
2.63067	-115
2.63433	-138
2.63800	-157
2.64167	-171
2.64533	-180
2.64900	-184
2.65267	-184
2.65633	-181
2.66000	-179
2.66367	-175
2.66733	-167
2.67100	-159
2.67467	-154
2.67833	-148
2.68200	-142
2.68567	-135
2.68933	-128
2.69300	-120
2.69667	-109
2.70033	-100
2.70400	-93
2.70767	-86
2.71133	-77
2.71500	-68
2.71867	-60
2.72233	-54
2.72600	-48
2.72967	-43
2.73333	-39
2.73700	-37
2.74067	-32
2.74433	-26
2.74800	-22
2.75167	-20
2.75533	-17
2.75900	-12
2.76267	-10
2.76633	-5
2.77000	-3
2.77367	1
2.77733	5
2.78100	9
2.78467	12
2.78833	13
2.79200	13
2.79567	13
2.79933	16
2.80300	19
2.80667	22
2.81033	24
2.81400	27
2.81767	31
2.82133	37
2.82500	49
2.82867	75
2.83233	130
2.83600	235
2.83967	416
2.84333	700
2.84700	1106
2.85067	1634
2.85433	2265
2.85800	2966
2.86167	3683
2.86533	4363
2.86900	4951
2.87267	5401
2.87633	5688
2.88000	5807
2.88367	5764
2.88733	5583
2.89100	5297
2.89467	4940
2.89833	4539
2.90200	4122
2.90567	3704
2.90933	3290
2.91300	2880
2.91667	2512
2.92033	2202
2.92400	1946
2.92767	1732
2.93133	1553
2.93500	1402
2.93867	1276
2.94233	1171
2.94600	1079
2.94967	998
2.95333	931
2.95700	878
2.96067	835
2.96433	801
2.96800	775
2.97167	754
2.97533	740
2.97900	731
2.98267	725
2.98633	722
2.99000	722
2.99367	724
2.99733	726
3.00100	729
3.00467	734
3.00833	735
3.01200	735
3.01567	734
3.01933	733
3.02300	733
3.02667	731
3.03033	730
3.03400	730
3.03767	731
3.04133	732
3.04500	730
3.04867	727
3.05233	725
3.05600	725
3.05967	725
3.06333	724
3.06700	722
3.07067	722
3.07433	721
3.07800	719
3.08167	717
3.08533	714
3.08900	711
3.09267	706
3.09633	702
3.10000	699
3.10367	698
3.10733	696
3.11100	693
3.11467	690
3.11833	686
3.12200	684
3.12567	682
3.12933	680
3.13300	679
3.13667	679
3.14033	680
3.14400	679
3.14767	676
3.15133	675
3.15500	672
3.15867	669
3.16233	667
3.16600	665
3.16967	664
3.17333	666
3.17700	665
3.18067	664
3.18433	662
3.18800	659
3.19167	656
3.19533	655
3.19900	654
3.20267	655
3.20633	655
3.21000	653
3.21367	653
3.21733	652
3.22100	654
3.22467	653
3.22833	650
3.23200	650
3.23567	652
3.23933	652
3.24300	651
3.24667	649
3.25033	646
3.25400	642
3.25767	639
3.26133	637
3.26500	637
3.26867	633
3.27233	629
3.27600	626
3.27967	623
3.28333	622
3.28700	620
3.29067	619
3.29433	616
3.29800	611
3.30167	606
3.30533	601
3.30900	597
3.31267	594
3.31633	591
3.32000	587
3.32367	585
3.32733	584
3.33100	582
3.33467	577
3.33833	573
3.34200	569
3.34567	564
3.34933	560
3.35300	558
3.35667	555
3.36033	554
3.36400	552
3.36767	550
3.37133	547
3.37500	542
3.37867	536
3.38233	530
3.38600	524
3.38967	518
3.39333	514
3.39700	511
3.40067	505
3.40433	501
3.40800	497
3.41167	493
3.41533	490
3.41900	487
3.42267	484
3.42633	481
3.43000	479
3.43367	475
3.43733	470
3.44100	466
3.44467	463
3.44833	459
3.45200	455
3.45567	450
3.45933	446
3.46300	443
3.46667	442
3.47033	441
3.47400	438
3.47767	436
3.48133	434
3.48500	432
3.48867	429
3.49233	425
3.49600	422
3.49967	421
3.50333	418
3.50700	414
3.51067	410
3.51433	408
3.51800	405
3.52167	401
3.52533	400
3.52900	397
3.53267	394
3.53633	388
3.54000	381
3.54367	377
3.54733	374
3.55100	371
3.55467	369
3.55833	367
3.56200	366
3.56567	364
3.56933	360
3.57300	357
3.57667	355
3.58033	354
3.58400	352
3.58767	348
3.59133	345
3.59500	342
3.59867	336
3.60233	331
3.60600	328
3.60967	326
3.61333	323
3.61700	319
3.62067	317
3.62433	315
3.62800	313
3.63167	312
3.63533	309
3.63900	306
3.64267	304
3.64633	302
3.65000	299
3.65367	297
3.65733	295
3.66100	293
3.66467	292
3.66833	289
3.67200	284
3.67567	281
3.67933	278
3.68300	277
3.68667	277
3.69033	276
3.69400	274
3.69767	273
3.70133	272
3.70500	269
3.70867	264
3.71233	260
3.71600	257
3.71967	255
3.72333	254
3.72700	254
3.73067	252
3.73433	248
3.73800	247
3.74167	248
3.74533	248
3.74900	243
3.75267	238
3.75633	235
3.76000	231
3.76367	227
3.76733	225
3.77100	223
3.77467	224
3.77833	224
3.78200	226
3.78567	228
3.78933	228
3.79300	224
3.79667	222
3.80033	220
3.80400	217
3.80767	215
3.81133	211
3.81500	209
3.81867	208
3.82233	208
3.82600	210
3.82967	209
3.83333	206
3.83700	206
3.84067	205
3.84433	204
3.84800	202
3.85167	197
3.85533	193
3.85900	192
3.86267	192
3.86633	192
3.87000	193
3.87367	195
3.87733	196
3.88100	195
3.88467	193
3.88833	191
3.89200	191
3.89567	188
3.89933	186
3.90300	185
3.90667	186
3.91033	186
3.91400	187
3.91767	189
3.92133	189
3.92500	188
3.92867	186
3.93233	186
3.93600	186
3.93967	186
3.94333	187
3.94700	186
3.95067	186
3.95433	184
3.95800	185
3.96167	184
3.96533	184
3.96900	184
3.97267	184
3.97633	185
3.98000	185
3.98367	186
3.98733	186
3.99100	186
3.99467	183
3.99833	182

[Status Trace (Column Oven Temperature)]
Interval(msec)	1000
# of Points	240
Start Time(min)	0.016
End Time(min)	4.000
Intensity Units	
Intensity Multiplier	1
R.Time (min)	Intensity
0.01623	35.06
0.03290	35.06
0.04957	35.06
0.06623	35.04
0.08290	35.04
0.09957	35.04
0.11623	35.06
0.13290	35.07
0.14957	35.07
0.16623	35.06
0.18290	35.04
0.19957	35.03
0.21623	35.03
0.23290	35.03
0.24957	35.02
0.26623	35.02
0.28290	35.01
0.29957	34.99
0.31623	34.98
0.33290	34.97
0.34957	34.97
0.36623	34.97
0.38290	34.97
0.39957	34.97
0.41623	34.98
0.43290	34.98
0.44957	34.99
0.46623	34.99
0.48290	34.98
0.49957	34.98
0.51623	34.98
0.53290	34.98
0.54957	34.98
0.56623	34.98
0.58290	34.99
0.59957	34.99
0.61623	34.99
0.63290	35.00
0.64957	34.99
0.66623	35.00
0.68290	35.00
0.69957	34.99
0.71623	35.00
0.73290	35.00
0.74957	34.99
0.76623	34.99
0.78290	35.00
0.79957	35.00
0.81623	35.01
0.83290	35.01
0.84957	35.01
0.86623	35.01
0.88290	35.00
0.89957	35.01
0.91623	35.01
0.93290	35.00
0.94957	34.99
0.96623	34.98
0.98290	34.98
0.99957	34.97
1.01623	34.97
1.03290	34.96
1.04957	34.96
1.06623	34.96
1.08290	34.96
1.09957	34.96
1.11623	34.97
1.13290	34.98
1.14957	34.99
1.16623	34.99
1.18290	34.99
1.19957	35.00
1.21623	35.00
1.23290	34.99
1.24957	35.00
1.26623	35.00
1.28290	35.00
1.29957	34.99
1.31623	34.99
1.33290	34.99
1.34957	34.98
1.36623	34.98
1.38290	34.98
1.39957	34.99
1.41623	34.99
1.43290	34.98
1.44957	34.98
1.46623	34.98
1.48290	34.97
1.49957	34.98
1.51623	34.98
1.53290	34.98
1.54957	34.98
1.56623	34.99
1.58290	34.99
1.59957	35.03
1.61623	35.12
1.63290	35.27
1.64957	35.47
1.66623	35.77
1.68290	36.13
1.69957	36.50
1.71623	36.84
1.73290	37.18
1.74957	37.51
1.76623	37.84
1.78290	38.17
1.79957	38.52
1.81623	38.84
1.83290	39.15
1.84957	39.49
1.86623	39.82
1.88290	40.15
1.89957	40.48
1.91623	40.80
1.93290	41.13
1.94957	41.45
1.96623	41.79
1.98290	42.11
1.99957	42.44
2.01623	42.77
2.03290	43.10
2.04957	43.42
2.06623	43.74
2.08290	44.06
2.09957	44.39
2.11623	44.73
2.13290	45.06
2.14957	45.38
2.16623	45.71
2.18290	46.04
2.19957	46.35
2.21623	46.68
2.23290	47.01
2.24957	47.34
2.26623	47.68
2.28290	48.01
2.29957	48.35
2.31623	48.66
2.33290	49.01
2.34957	49.30
2.36623	49.57
2.38290	49.69
2.39957	49.70
2.41623	49.70
2.43290	49.71
2.44957	49.72
2.46623	49.74
2.48290	49.77
2.49957	49.78
2.51623	49.78
2.53290	49.79
2.54957	49.82
2.56623	49.81
2.58290	49.81
2.59957	49.81
2.61623	49.81
2.63290	49.83
2.64957	49.83
2.66623	49.84
2.68290	49.86
2.69957	49.86
2.71623	49.87
2.73290	49.87
2.74957	49.86
2.76623	49.84
2.78290	49.86
2.79957	49.87
2.81623	49.89
2.83290	49.91
2.84957	49.90
2.86623	49.91
2.88290	49.91
2.89957	49.93
2.91623	49.95
2.93290	49.97
2.94957	49.98
2.96623	49.98
2.98290	49.99
2.99957	50.00
3.01623	50.01
3.03290	50.02
3.04957	50.03
3.06623	50.03
3.08290	50.05
3.09957	50.06
3.11623	50.06
3.13290	50.08
3.14957	50.09
3.16623	50.09
3.18290	50.09
3.19957	50.09
3.21623	50.10
3.23290	50.10
3.24957	50.11
3.26623	50.10
3.28290	50.09
3.29957	50.08
3.31623	50.07
3.33290	50.06
3.34957	50.04
3.36623	50.02
3.38290	50.01
3.39957	50.01
3.41623	50.02
3.43290	50.02
3.44957	50.01
3.46623	50.02
3.48290	50.03
3.49957	50.03
3.51623	50.03
3.53290	50.04
3.54957	50.04
3.56623	50.05
3.58290	50.07
3.59957	50.08
3.61623	50.09
3.63290	50.11
3.64957	50.11
3.66623	50.09
3.68290	50.08
3.69957	50.06
3.71623	50.05
3.73290	50.03
3.74957	50.01
3.76623	50.00
3.78290	50.00
3.79957	50.00
3.81623	50.00
3.83290	50.00
3.84957	50.00
3.86623	50.00
3.88290	50.01
3.89957	50.00
3.91623	50.01
3.93290	50.02
3.94957	50.02
3.96623	50.02
3.98290	50.01
3.99957	50.00

[Status Trace (Injection Unit Temperature)]
Interval(msec)	1000
# of Points	240
Start Time(min)	0.016
End Time(min)	4.000
Intensity Units	
Intensity Multiplier	1
R.Time (min)	Intensity
0.01623	99.98
0.03290	99.98
0.04957	99.98
0.06623	99.98
0.08290	99.98
0.09957	99.98
0.11623	99.98
0.13290	99.98
0.14957	99.98
0.16623	99.98
0.18290	99.98
0.19957	99.98
0.21623	99.98
0.23290	99.98
0.24957	99.98
0.26623	99.98
0.28290	99.98
0.29957	99.98
0.31623	99.98
0.33290	99.98
0.34957	99.98
0.36623	99.98
0.38290	99.98
0.39957	99.98
0.41623	99.98
0.43290	99.98
0.44957	99.98
0.46623	99.98
0.48290	99.98
0.49957	99.98
0.51623	99.98
0.53290	99.98
0.54957	99.98
0.56623	99.98
0.58290	99.98
0.59957	99.98
0.61623	99.98
0.63290	99.98
0.64957	99.98
0.66623	99.98
0.68290	99.98
0.69957	99.98
0.71623	99.98
0.73290	99.98
0.74957	99.98
0.76623	99.98
0.78290	99.98
0.79957	99.98
0.81623	99.98
0.83290	99.98
0.84957	99.98
0.86623	99.98
0.88290	99.98
0.89957	99.98
0.91623	99.98
0.93290	99.98
0.94957	99.98
0.96623	99.98
0.98290	99.98
0.99957	99.98
1.01623	99.98
1.03290	99.98
1.04957	99.98
1.06623	99.98
1.08290	99.98
1.09957	99.98
1.11623	99.99
1.13290	99.98
1.14957	99.99
1.16623	99.99
1.18290	99.98
1.19957	99.98
1.21623	99.99
1.23290	99.98
1.24957	99.99
1.26623	99.99
1.28290	99.98
1.29957	99.99
1.31623	99.99
1.33290	99.99
1.34957	99.99
1.36623	99.99
1.38290	99.99
1.39957	99.99
1.41623	99.98
1.43290	99.98
1.44957	99.98
1.46623	99.99
1.48290	99.98
1.49957	99.99
1.51623	99.98
1.53290	99.99
1.54957	99.99
1.56623	99.99
1.58290	99.99
1.59957	99.99
1.61623	99.99
1.63290	99.98
1.64957	99.99
1.66623	99.99
1.68290	99.99
1.69957	99.99
1.71623	99.98
1.73290	99.99
1.74957	99.99
1.76623	99.98
1.78290	99.98
1.79957	99.99
1.81623	99.99
1.83290	99.98
1.84957	99.98
1.86623	99.99
1.88290	99.98
1.89957	99.98
1.91623	99.98
1.93290	99.98
1.94957	99.98
1.96623	99.98
1.98290	99.98
1.99957	99.98
2.01623	99.98
2.03290	99.98
2.04957	99.98
2.06623	99.97
2.08290	99.97
2.09957	99.98
2.11623	99.97
2.13290	99.97
2.14957	99.97
2.16623	99.97
2.18290	99.97
2.19957	99.97
2.21623	99.97
2.23290	99.97
2.24957	99.97
2.26623	99.97
2.28290	99.97
2.29957	99.97
2.31623	99.96
2.33290	99.97
2.34957	99.96
2.36623	99.96
2.38290	99.97
2.39957	99.97
2.41623	99.97
2.43290	99.97
2.44957	99.96
2.46623	99.97
2.48290	99.97
2.49957	99.97
2.51623	99.97
2.53290	99.97
2.54957	99.97
2.56623	99.97
2.58290	99.98
2.59957	99.97
2.61623	99.98
2.63290	99.98
2.64957	99.98
2.66623	99.98
2.68290	99.98
2.69957	99.98
2.71623	99.99
2.73290	99.98
2.74957	99.99
2.76623	99.99
2.78290	99.99
2.79957	99.99
2.81623	100.00
2.83290	99.99
2.84957	100.00
2.86623	100.00
2.88290	100.00
2.89957	100.00
2.91623	100.00
2.93290	100.00
2.94957	100.01
2.96623	100.01
2.98290	100.01
2.99957	100.01
3.01623	100.01
3.03290	100.02
3.04957	100.01
3.06623	100.01
3.08290	100.01
3.09957	100.02
3.11623	100.02
3.13290	100.02
3.14957	100.03
3.16623	100.02
3.18290	100.02
3.19957	100.03
3.21623	100.02
3.23290	100.03
3.24957	100.03
3.26623	100.03
3.28290	100.03
3.29957	100.04
3.31623	100.04
3.33290	100.03
3.34957	100.03
3.36623	100.03
3.38290	100.04
3.39957	100.04
3.41623	100.05
3.43290	100.04
3.44957	100.04
3.46623	100.04
3.48290	100.04
3.49957	100.04
3.51623	100.04
3.53290	100.05
3.54957	100.05
3.56623	100.05
3.58290	100.05
3.59957	100.05
3.61623	100.05
3.63290	100.05
3.64957	100.05
3.66623	100.05
3.68290	100.05
3.69957	100.05
3.71623	100.05
3.73290	100.05
3.74957	100.05
3.76623	100.05
3.78290	100.05
3.79957	100.05
3.81623	100.06
3.83290	100.05
3.84957	100.06
3.86623	100.05
3.88290	100.05
3.89957	100.05
3.91623	100.05
3.93290	100.05
3.94957	100.06
3.96623	100.05
3.98290	100.05
3.99957	100.05

[Status Trace (Carrier Gas Pressure)]
Interval(msec)	1000
# of Points	240
Start Time(min)	0.016
End Time(min)	4.000
Intensity Units	
Intensity Multiplier	1
R.Time (min)	Intensity
0.01623	56.93
0.03290	55.86
0.04957	58.09
0.06623	59.90
0.08290	58.56
0.09957	57.97
0.11623	58.00
0.13290	58.01
0.14957	58.01
0.16623	58.00
0.18290	58.00
0.19957	58.00
0.21623	58.00
0.23290	58.00
0.24957	58.00
0.26623	58.00
0.28290	58.00
0.29957	58.00
0.31623	58.00
0.33290	58.00
0.34957	58.00
0.36623	58.00
0.38290	58.00
0.39957	58.00
0.41623	58.00
0.43290	58.00
0.44957	58.00
0.46623	58.00
0.48290	58.00
0.49957	58.00
0.51623	58.00
0.53290	58.00
0.54957	58.00
0.56623	58.00
0.58290	58.00
0.59957	58.00
0.61623	58.00
0.63290	58.00
0.64957	58.00
0.66623	58.00
0.68290	58.00
0.69957	58.00
0.71623	58.00
0.73290	58.00
0.74957	58.00
0.76623	58.00
0.78290	58.00
0.79957	58.00
0.81623	58.00
0.83290	58.00
0.84957	58.00
0.86623	58.00
0.88290	58.00
0.89957	58.00
0.91623	58.00
0.93290	58.00
0.94957	58.00
0.96623	58.00
0.98290	58.00
0.99957	58.00
1.01623	58.00
1.03290	58.00
1.04957	58.00
1.06623	58.00
1.08290	58.00
1.09957	58.00
1.11623	58.00
1.13290	58.00
1.14957	58.00
1.16623	58.00
1.18290	58.00
1.19957	58.00
1.21623	58.00
1.23290	58.00
1.24957	58.00
1.26623	58.00
1.28290	58.00
1.29957	58.00
1.31623	58.00
1.33290	58.00
1.34957	58.00
1.36623	58.00
1.38290	58.00
1.39957	58.00
1.41623	58.00
1.43290	58.00
1.44957	58.00
1.46623	58.00
1.48290	58.00
1.49957	58.00
1.51623	58.00
1.53290	58.00
1.54957	58.00
1.56623	58.00
1.58290	58.00
1.59957	58.00
1.61623	58.00
1.63290	58.00
1.64957	58.00
1.66623	58.01
1.68290	58.01
1.69957	58.00
1.71623	58.00
1.73290	58.00
1.74957	58.00
1.76623	58.00
1.78290	58.00
1.79957	58.00
1.81623	58.00
1.83290	58.00
1.84957	58.00
1.86623	58.00
1.88290	58.00
1.89957	58.00
1.91623	58.00
1.93290	58.00
1.94957	58.00
1.96623	58.00
1.98290	58.00
1.99957	58.00
2.01623	58.00
2.03290	58.00
2.04957	58.00
2.06623	58.00
2.08290	58.00
2.09957	58.00
2.11623	58.00
2.13290	58.00
2.14957	58.00
2.16623	58.00
2.18290	58.00
2.19957	58.00
2.21623	58.00
2.23290	58.00
2.24957	58.00
2.26623	58.00
2.28290	58.00
2.29957	58.00
2.31623	58.00
2.33290	58.00
2.34957	58.00
2.36623	58.00
2.38290	57.99
2.39957	57.99
2.41623	58.00
2.43290	58.00
2.44957	58.00
2.46623	58.00
2.48290	58.00
2.49957	58.00
2.51623	57.99
2.53290	57.99
2.54957	58.00
2.56623	58.00
2.58290	58.00
2.59957	58.00
2.61623	58.00
2.63290	58.00
2.64957	58.00
2.66623	58.00
2.68290	58.00
2.69957	58.00
2.71623	58.00
2.73290	58.00
2.74957	58.00
2.76623	58.00
2.78290	58.00
2.79957	58.00
2.81623	58.00
2.83290	58.00
2.84957	58.00
2.86623	58.00
2.88290	58.00
2.89957	58.00
2.91623	58.00
2.93290	58.00
2.94957	58.00
2.96623	58.00
2.98290	58.00
2.99957	58.00
3.01623	58.00
3.03290	58.00
3.04957	58.00
3.06623	58.00
3.08290	58.00
3.09957	58.00
3.11623	58.00
3.13290	58.00
3.14957	58.00
3.16623	58.00
3.18290	58.00
3.19957	58.00
3.21623	58.00
3.23290	58.00
3.24957	58.00
3.26623	58.00
3.28290	58.00
3.29957	58.00
3.31623	58.00
3.33290	58.00
3.34957	58.00
3.36623	58.00
3.38290	58.00
3.39957	58.00
3.41623	58.00
3.43290	58.00
3.44957	58.00
3.46623	58.00
3.48290	58.00
3.49957	58.00
3.51623	58.00
3.53290	58.00
3.54957	58.00
3.56623	58.00
3.58290	58.00
3.59957	58.00
3.61623	58.00
3.63290	58.00
3.64957	58.00
3.66623	58.00
3.68290	58.00
3.69957	58.00
3.71623	58.00
3.73290	58.00
3.74957	58.00
3.76623	58.00
3.78290	58.00
3.79957	58.00
3.81623	58.00
3.83290	58.00
3.84957	58.00
3.86623	58.00
3.88290	58.00
3.89957	58.00
3.91623	58.00
3.93290	58.00
3.94957	58.00
3.96623	58.00
3.98290	58.00
3.99957	58.00

[Status Trace (Carrier Gas Flow)]
Interval(msec)	1000
# of Points	240
Start Time(min)	0.016
End Time(min)	4.000
Intensity Units	
Intensity Multiplier	1
R.Time (min)	Intensity
0.01623	33.86
0.03290	34.54
0.04957	34.54
0.06623	34.51
0.08290	34.51
0.09957	34.52
0.11623	34.52
0.13290	34.52
0.14957	34.52
0.16623	34.53
0.18290	34.52
0.19957	34.52
0.21623	34.52
0.23290	34.52
0.24957	34.52
0.26623	34.52
0.28290	34.52
0.29957	34.52
0.31623	34.52
0.33290	34.52
0.34957	34.52
0.36623	34.51
0.38290	34.52
0.39957	34.51
0.41623	34.53
0.43290	34.52
0.44957	34.51
0.46623	34.52
0.48290	34.52
0.49957	34.52
0.51623	34.52
0.53290	34.52
0.54957	34.52
0.56623	34.52
0.58290	34.51
0.59957	34.52
0.61623	34.52
0.63290	34.52
0.64957	34.52
0.66623	34.52
0.68290	34.52
0.69957	34.52
0.71623	34.52
0.73290	34.52
0.74957	34.52
0.76623	34.52
0.78290	34.52
0.79957	34.52
0.81623	34.52
0.83290	34.52
0.84957	34.52
0.86623	34.52
0.88290	34.52
0.89957	34.52
0.91623	34.52
0.93290	34.52
0.94957	34.52
0.96623	34.52
0.98290	34.52
0.99957	34.52
1.01623	34.52
1.03290	34.52
1.04957	34.52
1.06623	34.52
1.08290	34.52
1.09957	34.52
1.11623	34.52
1.13290	34.52
1.14957	34.52
1.16623	34.52
1.18290	34.52
1.19957	34.52
1.21623	34.52
1.23290	34.52
1.24957	34.52
1.26623	34.52
1.28290	34.52
1.29957	34.52
1.31623	34.52
1.33290	34.52
1.34957	34.52
1.36623	34.52
1.38290	34.52
1.39957	34.52
1.41623	34.52
1.43290	34.52
1.44957	34.52
1.46623	34.52
1.48290	34.52
1.49957	34.52
1.51623	34.52
1.53290	34.52
1.54957	34.52
1.56623	34.52
1.58290	34.52
1.59957	34.52
1.61623	34.52
1.63290	34.52
1.64957	34.52
1.66623	34.52
1.68290	34.52
1.69957	34.52
1.71623	34.52
1.73290	34.52
1.74957	34.52
1.76623	34.52
1.78290	34.52
1.79957	34.52
1.81623	34.52
1.83290	34.52
1.84957	34.52
1.86623	34.52
1.88290	34.52
1.89957	34.52
1.91623	34.52
1.93290	34.52
1.94957	34.52
1.96623	34.52
1.98290	34.52
1.99957	34.52
2.01623	34.52
2.03290	34.52
2.04957	34.52
2.06623	34.52
2.08290	34.52
2.09957	34.52
2.11623	34.52
2.13290	34.52
2.14957	34.52
2.16623	34.52
2.18290	34.52
2.19957	34.52
2.21623	34.52
2.23290	34.52
2.24957	34.52
2.26623	34.52
2.28290	34.52
2.29957	34.52
2.31623	34.52
2.33290	34.52
2.34957	34.52
2.36623	34.52
2.38290	34.52
2.39957	34.52
2.41623	34.52
2.43290	34.52
2.44957	34.52
2.46623	34.52
2.48290	34.52
2.49957	34.52
2.51623	34.52
2.53290	34.52
2.54957	34.52
2.56623	34.53
2.58290	34.51
2.59957	34.52
2.61623	34.52
2.63290	34.52
2.64957	34.52
2.66623	34.52
2.68290	34.52
2.69957	34.52
2.71623	34.52
2.73290	34.52
2.74957	34.52
2.76623	34.52
2.78290	34.52
2.79957	34.52
2.81623	34.52
2.83290	34.52
2.84957	34.53
2.86623	34.52
2.88290	34.52
2.89957	34.52
2.91623	34.52
2.93290	34.52
2.94957	34.52
2.96623	34.52
2.98290	34.52
2.99957	34.52
3.01623	34.52
3.03290	34.52
3.04957	34.52
3.06623	34.52
3.08290	34.52
3.09957	34.52
3.11623	34.52
3.13290	34.52
3.14957	34.52
3.16623	34.52
3.18290	34.52
3.19957	34.52
3.21623	34.52
3.23290	34.52
3.24957	34.52
3.26623	34.52
3.28290	34.52
3.29957	34.52
3.31623	34.52
3.33290	34.52
3.34957	34.52
3.36623	34.52
3.38290	34.52
3.39957	34.52
3.41623	34.52
3.43290	34.52
3.44957	34.52
3.46623	34.52
3.48290	34.52
3.49957	34.52
3.51623	34.52
3.53290	34.52
3.54957	34.52
3.56623	34.52
3.58290	34.52
3.59957	34.52
3.61623	34.52
3.63290	34.52
3.64957	34.52
3.66623	34.52
3.68290	34.52
3.69957	34.52
3.71623	34.52
3.73290	34.52
3.74957	34.52
3.76623	34.52
3.78290	34.52
3.79957	34.52
3.81623	34.52
3.83290	34.52
3.84957	34.52
3.86623	34.52
3.88290	34.52
3.89957	34.52
3.91623	34.52
3.93290	34.52
3.94957	34.52
3.96623	34.52
3.98290	34.52
3.99957	34.52

[Status Trace (Column Flow)]
Interval(msec)	1000
# of Points	240
Start Time(min)	0.016
End Time(min)	4.000
Intensity Units	
Intensity Multiplier	1
R.Time (min)	Intensity
0.01623	5.39
0.03290	5.27
0.04957	5.53
0.06623	5.74
0.08290	5.58
0.09957	5.51
0.11623	5.52
0.13290	5.52
0.14957	5.52
0.16623	5.52
0.18290	5.52
0.19957	5.52
0.21623	5.52
0.23290	5.52
0.24957	5.52
0.26623	5.52
0.28290	5.52
0.29957	5.52
0.31623	5.52
0.33290	5.52
0.34957	5.52
0.36623	5.52
0.38290	5.52
0.39957	5.52
0.41623	5.52
0.43290	5.52
0.44957	5.52
0.46623	5.52
0.48290	5.52
0.49957	5.52
0.51623	5.52
0.53290	5.52
0.54957	5.52
0.56623	5.52
0.58290	5.52
0.59957	5.52
0.61623	5.52
0.63290	5.52
0.64957	5.52
0.66623	5.52
0.68290	5.52
0.69957	5.52
0.71623	5.52
0.73290	5.52
0.74957	5.52
0.76623	5.52
0.78290	5.52
0.79957	5.52
0.81623	5.52
0.83290	5.52
0.84957	5.52
0.86623	5.52
0.88290	5.52
0.89957	5.52
0.91623	5.52
0.93290	5.52
0.94957	5.52
0.96623	5.52
0.98290	5.52
0.99957	5.52
1.01623	5.52
1.03290	5.52
1.04957	5.52
1.06623	5.52
1.08290	5.52
1.09957	5.52
1.11623	5.52
1.13290	5.52
1.14957	5.52
1.16623	5.52
1.18290	5.52
1.19957	5.52
1.21623	5.52
1.23290	5.52
1.24957	5.52
1.26623	5.52
1.28290	5.52
1.29957	5.52
1.31623	5.52
1.33290	5.52
1.34957	5.52
1.36623	5.52
1.38290	5.52
1.39957	5.52
1.41623	5.52
1.43290	5.52
1.44957	5.52
1.46623	5.52
1.48290	5.52
1.49957	5.52
1.51623	5.52
1.53290	5.52
1.54957	5.52
1.56623	5.52
1.58290	5.52
1.59957	5.52
1.61623	5.51
1.63290	5.51
1.64957	5.50
1.66623	5.49
1.68290	5.48
1.69957	5.47
1.71623	5.46
1.73290	5.45
1.74957	5.44
1.76623	5.43
1.78290	5.42
1.79957	5.41
1.81623	5.40
1.83290	5.39
1.84957	5.38
1.86623	5.37
1.88290	5.36
1.89957	5.35
1.91623	5.34
1.93290	5.33
1.94957	5.32
1.96623	5.31
1.98290	5.30
1.99957	5.29
2.01623	5.28
2.03290	5.27
2.04957	5.26
2.06623	5.25
2.08290	5.24
2.09957	5.23
2.11623	5.22
2.13290	5.21
2.14957	5.21
2.16623	5.20
2.18290	5.19
2.19957	5.18
2.21623	5.17
2.23290	5.16
2.24957	5.15
2.26623	5.14
2.28290	5.13
2.29957	5.12
2.31623	5.11
2.33290	5.10
2.34957	5.09
2.36623	5.09
2.38290	5.08
2.39957	5.08
2.41623	5.08
2.43290	5.08
2.44957	5.08
2.46623	5.08
2.48290	5.08
2.49957	5.08
2.51623	5.08
2.53290	5.08
2.54957	5.08
2.56623	5.08
2.58290	5.08
2.59957	5.08
2.61623	5.08
2.63290	5.08
2.64957	5.08
2.66623	5.08
2.68290	5.08
2.69957	5.08
2.71623	5.08
2.73290	5.08
2.74957	5.08
2.76623	5.08
2.78290	5.08
2.79957	5.08
2.81623	5.08
2.83290	5.08
2.84957	5.08
2.86623	5.08
2.88290	5.08
2.89957	5.08
2.91623	5.08
2.93290	5.08
2.94957	5.08
2.96623	5.08
2.98290	5.08
2.99957	5.08
3.01623	5.07
3.03290	5.07
3.04957	5.07
3.06623	5.07
3.08290	5.07
3.09957	5.07
3.11623	5.07
3.13290	5.07
3.14957	5.07
3.16623	5.07
3.18290	5.07
3.19957	5.07
3.21623	5.07
3.23290	5.07
3.24957	5.07
3.26623	5.07
3.28290	5.07
3.29957	5.07
3.31623	5.07
3.33290	5.07
3.34957	5.07
3.36623	5.07
3.38290	5.08
3.39957	5.08
3.41623	5.07
3.43290	5.07
3.44957	5.07
3.46623	5.07
3.48290	5.07
3.49957	5.07
3.51623	5.07
3.53290	5.07
3.54957	5.07
3.56623	5.07
3.58290	5.07
3.59957	5.07
3.61623	5.07
3.63290	5.07
3.64957	5.07
3.66623	5.07
3.68290	5.07
3.69957	5.07
3.71623	5.07
3.73290	5.07
3.74957	5.07
3.76623	5.07
3.78290	5.08
3.79957	5.08
3.81623	5.08
3.83290	5.08
3.84957	5.08
3.86623	5.08
3.88290	5.07
3.89957	5.08
3.91623	5.08
3.93290	5.08
3.94957	5.08
3.96623	5.07
3.98290	5.07
3.99957	5.08

[Status Trace (Linear Velocity)]
Interval(msec)	1000
# of Points	240
Start Time(min)	0.016
End Time(min)	4.000
Intensity Units	
Intensity Multiplier	1
R.Time (min)	Intensity
0.01623	38.31
0.03290	37.60
0.04957	39.07
0.06623	40.25
0.08290	39.38
0.09957	38.99
0.11623	39.01
0.13290	39.02
0.14957	39.01
0.16623	39.01
0.18290	39.01
0.19957	39.01
0.21623	39.01
0.23290	39.01
0.24957	39.02
0.26623	39.02
0.28290	39.02
0.29957	39.02
0.31623	39.02
0.33290	39.02
0.34957	39.02
0.36623	39.02
0.38290	39.02
0.39957	39.02
0.41623	39.02
0.43290	39.02
0.44957	39.02
0.46623	39.02
0.48290	39.02
0.49957	39.02
0.51623	39.02
0.53290	39.02
0.54957	39.02
0.56623	39.02
0.58290	39.02
0.59957	39.02
0.61623	39.02
0.63290	39.02
0.64957	39.02
0.66623	39.02
0.68290	39.02
0.69957	39.02
0.71623	39.02
0.73290	39.02
0.74957	39.02
0.76623	39.02
0.78290	39.02
0.79957	39.02
0.81623	39.02
0.83290	39.01
0.84957	39.02
0.86623	39.02
0.88290	39.01
0.89957	39.02
0.91623	39.01
0.93290	39.02
0.94957	39.02
0.96623	39.02
0.98290	39.02
0.99957	39.02
1.01623	39.02
1.03290	39.02
1.04957	39.02
1.06623	39.02
1.08290	39.02
1.09957	39.02
1.11623	39.02
1.13290	39.02
1.14957	39.02
1.16623	39.02
1.18290	39.02
1.19957	39.02
1.21623	39.02
1.23290	39.02
1.24957	39.02
1.26623	39.02
1.28290	39.02
1.29957	39.02
1.31623	39.02
1.33290	39.02
1.34957	39.02
1.36623	39.02
1.38290	39.02
1.39957	39.02
1.41623	39.02
1.43290	39.02
1.44957	39.02
1.46623	39.02
1.48290	39.02
1.49957	39.02
1.51623	39.02
1.53290	39.02
1.54957	39.02
1.56623	39.02
1.58290	39.02
1.59957	39.01
1.61623	39.01
1.63290	38.99
1.64957	38.98
1.66623	38.95
1.68290	38.91
1.69957	38.88
1.71623	38.84
1.73290	38.81
1.74957	38.78
1.76623	38.75
1.78290	38.71
1.79957	38.68
1.81623	38.65
1.83290	38.62
1.84957	38.59
1.86623	38.56
1.88290	38.53
1.89957	38.50
1.91623	38.47
1.93290	38.44
1.94957	38.41
1.96623	38.38
1.98290	38.34
1.99957	38.32
2.01623	38.29
2.03290	38.25
2.04957	38.23
2.06623	38.20
2.08290	38.17
2.09957	38.14
2.11623	38.11
2.13290	38.07
2.14957	38.05
2.16623	38.02
2.18290	37.99
2.19957	37.96
2.21623	37.93
2.23290	37.90
2.24957	37.87
2.26623	37.84
2.28290	37.81
2.29957	37.78
2.31623	37.75
2.33290	37.72
2.34957	37.69
2.36623	37.67
2.38290	37.66
2.39957	37.65
2.41623	37.65
2.43290	37.66
2.44957	37.66
2.46623	37.65
2.48290	37.65
2.49957	37.65
2.51623	37.64
2.53290	37.64
2.54957	37.65
2.56623	37.65
2.58290	37.65
2.59957	37.65
2.61623	37.65
2.63290	37.65
2.64957	37.65
2.66623	37.65
2.68290	37.64
2.69957	37.64
2.71623	37.64
2.73290	37.64
2.74957	37.64
2.76623	37.64
2.78290	37.64
2.79957	37.64
2.81623	37.64
2.83290	37.64
2.84957	37.64
2.86623	37.64
2.88290	37.64
2.89957	37.64
2.91623	37.64
2.93290	37.63
2.94957	37.63
2.96623	37.63
2.98290	37.63
2.99957	37.63
3.01623	37.63
3.03290	37.63
3.04957	37.63
3.06623	37.63
3.08290	37.63
3.09957	37.63
3.11623	37.63
3.13290	37.62
3.14957	37.62
3.16623	37.62
3.18290	37.62
3.19957	37.62
3.21623	37.62
3.23290	37.62
3.24957	37.62
3.26623	37.62
3.28290	37.62
3.29957	37.62
3.31623	37.63
3.33290	37.63
3.34957	37.63
3.36623	37.63
3.38290	37.63
3.39957	37.63
3.41623	37.63
3.43290	37.63
3.44957	37.63
3.46623	37.63
3.48290	37.63
3.49957	37.63
3.51623	37.63
3.53290	37.63
3.54957	37.63
3.56623	37.63
3.58290	37.63
3.59957	37.63
3.61623	37.62
3.63290	37.62
3.64957	37.62
3.66623	37.62
3.68290	37.62
3.69957	37.63
3.71623	37.63
3.73290	37.63
3.74957	37.63
3.76623	37.63
3.78290	37.63
3.79957	37.63
3.81623	37.63
3.83290	37.63
3.84957	37.63
3.86623	37.63
3.88290	37.63
3.89957	37.63
3.91623	37.63
3.93290	37.63
3.94957	37.63
3.96623	37.63
3.98290	37.63
3.99957	37.63

