[Header]
Application Name	LabSolutions
Version	5.110
Data File Name	C:\Users\User\Desktop\GC Analyses\Jack\UIC Prairie Sampling\8.12.22\220812_094.gcd
Output Date	10/14/2022
Output Time	2:33:56 PM

[File Information]
Type	Data File
Generated	10/13/2022 3:10:41 PM
Generated by	System Administrator
Modified	10/13/2022 3:15:03 PM
Modified by	System Administrator

[Sample Information]
Operator Name	System Administrator
Acquired	10/13/2022 3:11:02 PM
Sample Type	1:Standard
Level	1
Sample Name	220812_UICPrairie
Sample ID	220812_UICPrairie
ISTD Amount1	1
ISTD Amount2	1
ISTD Amount3	1
ISTD Amount4	1
ISTD Amount5	1
ISTD Amount6	1
ISTD Amount7	1
ISTD Amount8	1
ISTD Amount9	1
ISTD Amount10	1
ISTD Amount11	1
ISTD Amount12	1
ISTD Amount13	1
ISTD Amount14	1
ISTD Amount15	1
ISTD Amount16	1
ISTD Amount17	1
ISTD Amount18	1
ISTD Amount19	1
ISTD Amount20	1
ISTD Amount21	1
ISTD Amount22	1
ISTD Amount23	1
ISTD Amount24	1
ISTD Amount25	1
ISTD Amount26	1
ISTD Amount27	1
ISTD Amount28	1
ISTD Amount29	1
ISTD Amount30	1
ISTD Amount31	1
ISTD Amount32	1
Sample Amount	1
Dilution Factor	1
Vial#	1
Injection Volume	1
Injection Count	1
Bar Code	

[Original Files]
Data File	C:\Users\User\Desktop\GC Analyses\Jack\UIC Prairie Sampling\8.12.22\220812_094.gcd
Method File	C:\LabSolutions\Data\GHG_4min_2022\ghg3_togas_w_acet_4 min_new_int.gcm
Batch File	
Report Format File	c:\LabSolutions\System\DEFAULT.lsr

[File Description]


[Configuration]
Instrument Name	C0B7VH3-Instrument1
Instrument #	1
Line #	1
# of Detectors	3
Detector ID	DET#1	DET#2	DET#3
Detector Name	FID	PTCD	ECD
# of Channels	1	1	1

[Peak Table(Ch1)]
# of Peaks	3
Peak#	R.Time	I.Time	F.Time	Area	Height	A/H	Conc.	Mark	ID#	Name	k'	Plate #	Plate Ht.	Tailing	Resolution	Sep.Factor	Area Ratio	Height Ratio	Conc. %	Norm Conc.
1	1.479	1.432	1.542	17715	8174	2.167	100.000	   	1	CO	0.000	8845	16.958	1.186	0.000	0.000	0	0	16.667	16.667
2	1.571	1.542	1.630	4315	2189	1.971	100.000	 V 	2	CH4	0.062	11370	13.193	1.172	1.505	0.000	0	0	16.667	16.667
3	2.000	1.952	2.341	2282403	1119936	2.038	400.000	   	3	CO2	0.352	17699	8.475	1.248	7.206	5.680	0	0	66.667	66.667

[Peak Table(Ch2)]
# of Peaks	0

[Peak Table(Ch3)]
# of Peaks	3
Peak#	R.Time	I.Time	F.Time	Area	Height	A/H	Conc.	Mark	ID#	Name	k'	Plate #	Plate Ht.	Tailing	Resolution	Sep.Factor	Area Ratio	Height Ratio	Conc. %	Norm Conc.
1	2.455	2.370	2.473	353	140	2.514	0.000	   			0.000	14682	10.217	0.000	0.000	0.000	0	0	0.000	0.000
2	2.601	2.473	2.649	2098	337	6.225	0.000	 V 			0.060	3205	46.803	0.000	1.108	0.000	0	0	0.000	0.000
3	2.887	2.664	3.918	31739	5486	5.785	1.000	   	1	N2O	0.176	12273	12.222	1.574	1.986	2.950	0	0	100.000	100.000

[Compound Results(Ch1)]
# of IDs	6
ID#	Name	R.Time	Area	Height	Conc.	Curve	3rd	2nd	1st	Constant	Area Ratio	Height Ratio	Conc. %	Norm Conc.
1	CO	1.479	17715	8174	100.000	Linear	0.000000e+00	0.000000e+00	1.771493e+002	0.000000e+00	0	0	16.667	16.667
2	CH4	1.571	4315	2189	100.000	Linear	0.000000e+00	0.000000e+00	4.315073e+001	0.000000e+00	0	0	16.667	16.667
3	CO2	2.000	2282403	1119936	400.000	Linear	0.000000e+00	0.000000e+00	5.706008e+003	0.000000e+00	0	0	66.667	66.667
4	Ethylene	0.000	0	0	0.000	Linear	0.000000e+00	0.000000e+00	0.000000e+00	0.000000e+00	0	0	0.000	0.000
5	Acetylene	0.000	0	0	0.000	Linear	0.000000e+00	0.000000e+00	0.000000e+00	0.000000e+00	0	0	0.000	0.000
6	Ethane	0.000	0	0	0.000	Linear	0.000000e+00	0.000000e+00	0.000000e+00	0.000000e+00	0	0	0.000	0.000

[Compound Results(Ch2)]
# of IDs	5
ID#	Name	R.Time	Area	Height	Conc.	Curve	3rd	2nd	1st	Constant	Area Ratio	Height Ratio	Conc. %	Norm Conc.
1	Hydrogen	0.000	0	0	0.000	Linear	0.000000e+00	0.000000e+00	0.000000e+00	0.000000e+00	0	0	0.000	0.000
2	Oxygen	0.000	0	0	0.000	Linear	0.000000e+00	0.000000e+00	0.000000e+00	0.000000e+00	0	0	0.000	0.000
3	Nitrogen	0.000	0	0	0.000	Linear	0.000000e+00	0.000000e+00	0.000000e+00	0.000000e+00	0	0	0.000	0.000
4	Methane	0.000	0	0	0.000	Linear	0.000000e+00	0.000000e+00	0.000000e+00	0.000000e+00	0	0	0.000	0.000
5	Carbon Monoxide	0.000	0	0	0.000	Linear	0.000000e+00	0.000000e+00	0.000000e+00	0.000000e+00	0	0	0.000	0.000

[Compound Results(Ch3)]
# of IDs	2
ID#	Name	R.Time	Area	Height	Conc.	Curve	3rd	2nd	1st	Constant	Area Ratio	Height Ratio	Conc. %	Norm Conc.
1	N2O	2.887	31739	5486	1.000	Linear	0.000000e+00	0.000000e+00	3.173862e+004	0.000000e+00	0	0	100.000	100.000
2	SF6	0.000	0	0	0.000	Linear	0.000000e+00	0.000000e+00	0.000000e+00	0.000000e+00	0	0	0.000	0.000

[Group Results(Ch1)]
# of Groups	0

[Group Results(Ch2)]
# of Groups	0

[Group Results(Ch3)]
# of Groups	0

[Chromatogram (Ch1)]
Interval(msec)	220
# of Points	1091
Start Time(min)	0.002
End Time(min)	3.998
R.Time (min)	Intensity
0.00167	-6
0.00533	-3
0.00900	-1
0.01267	0
0.01633	1
0.02000	0
0.02367	0
0.02733	4
0.03100	12
0.03467	22
0.03833	29
0.04200	30
0.04567	25
0.04933	14
0.05300	-0
0.05667	-14
0.06033	-22
0.06400	-23
0.06767	-21
0.07133	-16
0.07500	-9
0.07867	-3
0.08233	3
0.08600	5
0.08967	4
0.09333	4
0.09700	2
0.10067	-3
0.10433	-10
0.10800	-16
0.11167	-21
0.11533	-24
0.11900	-22
0.12267	-20
0.12633	-19
0.13000	-18
0.13367	-17
0.13733	-15
0.14100	-13
0.14467	-11
0.14833	-10
0.15200	-11
0.15567	-9
0.15933	-7
0.16300	-8
0.16667	-13
0.17033	-19
0.17400	-23
0.17767	-23
0.18133	-20
0.18500	-14
0.18867	-9
0.19233	-5
0.19600	-2
0.19967	2
0.20333	7
0.20700	8
0.21067	3
0.21433	-6
0.21800	-15
0.22167	-19
0.22533	-21
0.22900	-23
0.23267	-24
0.23633	-26
0.24000	-28
0.24367	-27
0.24733	-21
0.25100	-10
0.25467	-0
0.25833	4
0.26200	4
0.26567	0
0.26933	-2
0.27300	-3
0.27667	-9
0.28033	-19
0.28400	-33
0.28767	-45
0.29133	-54
0.29500	-59
0.29867	-58
0.30233	-53
0.30600	-49
0.30967	-45
0.31333	-43
0.31700	-42
0.32067	-42
0.32433	-40
0.32800	-36
0.33167	-33
0.33533	-29
0.33900	-23
0.34267	-20
0.34633	-20
0.35000	-22
0.35367	-25
0.35733	-31
0.36100	-36
0.36467	-36
0.36833	-32
0.37200	-25
0.37567	-19
0.37933	-17
0.38300	-19
0.38667	-24
0.39033	-29
0.39400	-31
0.39767	-32
0.40133	-31
0.40500	-30
0.40867	-32
0.41233	-36
0.41600	-40
0.41967	-42
0.42333	-41
0.42700	-37
0.43067	-35
0.43433	-35
0.43800	-37
0.44167	-38
0.44533	-39
0.44900	-39
0.45267	-36
0.45633	-30
0.46000	-25
0.46367	-23
0.46733	-22
0.47100	-21
0.47467	-23
0.47833	-28
0.48200	-36
0.48567	-41
0.48933	-44
0.49300	-46
0.49667	-50
0.50033	-50
0.50400	-49
0.50767	-48
0.51133	-47
0.51500	-45
0.51867	-42
0.52233	-37
0.52600	-35
0.52967	-35
0.53333	-35
0.53700	-35
0.54067	-32
0.54433	-28
0.54800	-23
0.55167	-19
0.55533	-19
0.55900	-24
0.56267	-33
0.56633	-42
0.57000	-51
0.57367	-54
0.57733	-50
0.58100	-44
0.58467	-39
0.58833	-35
0.59200	-34
0.59567	-33
0.59933	-32
0.60300	-29
0.60667	-25
0.61033	-27
0.61400	-33
0.61767	-42
0.62133	-47
0.62500	-46
0.62867	-44
0.63233	-44
0.63600	-45
0.63967	-45
0.64333	-44
0.64700	-43
0.65067	-43
0.65433	-43
0.65800	-46
0.66167	-48
0.66533	-42
0.66900	-33
0.67267	-27
0.67633	-26
0.68000	-31
0.68367	-41
0.68733	-53
0.69100	-65
0.69467	-74
0.69833	-79
0.70200	-80
0.70567	-78
0.70933	-73
0.71300	-71
0.71667	-71
0.72033	-70
0.72400	-69
0.72767	-66
0.73133	-65
0.73500	-65
0.73867	-62
0.74233	-58
0.74600	-56
0.74967	-54
0.75333	-53
0.75700	-55
0.76067	-60
0.76433	-65
0.76800	-66
0.77167	-63
0.77533	-58
0.77900	-54
0.78267	-50
0.78633	-48
0.79000	-49
0.79367	-51
0.79733	-52
0.80100	-52
0.80467	-54
0.80833	-57
0.81200	-58
0.81567	-57
0.81933	-58
0.82300	-56
0.82667	-53
0.83033	-50
0.83400	-48
0.83767	-46
0.84133	-47
0.84500	-50
0.84867	-53
0.85233	-55
0.85600	-58
0.85967	-62
0.86333	-65
0.86700	-68
0.87067	-69
0.87433	-66
0.87800	-63
0.88167	-57
0.88533	-52
0.88900	-51
0.89267	-53
0.89633	-55
0.90000	-58
0.90367	-59
0.90733	-58
0.91100	-57
0.91467	-56
0.91833	-56
0.92200	-55
0.92567	-55
0.92933	-55
0.93300	-56
0.93667	-57
0.94033	-56
0.94400	-54
0.94767	-55
0.95133	-61
0.95500	-69
0.95867	-76
0.96233	-77
0.96600	-76
0.96967	-77
0.97333	-77
0.97700	-75
0.98067	-72
0.98433	-70
0.98800	-68
0.99167	-68
0.99533	-70
0.99900	-74
1.00267	-76
1.00633	-75
1.01000	-69
1.01367	-62
1.01733	-57
1.02100	-54
1.02467	-53
1.02833	-56
1.03200	-63
1.03567	-71
1.03933	-76
1.04300	-77
1.04667	-76
1.05033	-74
1.05400	-73
1.05767	-72
1.06133	-70
1.06500	-69
1.06867	-66
1.07233	-64
1.07600	-62
1.07967	-62
1.08333	-61
1.08700	-61
1.09067	-62
1.09433	-63
1.09800	-62
1.10167	-60
1.10533	-59
1.10900	-58
1.11267	-60
1.11633	-66
1.12000	-71
1.12367	-74
1.12733	-77
1.13100	-79
1.13467	-81
1.13833	-85
1.14200	-87
1.14567	-84
1.14933	-77
1.15300	-69
1.15667	-64
1.16033	-65
1.16400	-67
1.16767	-67
1.17133	-63
1.17500	-60
1.17867	-61
1.18233	-66
1.18600	-75
1.18967	-84
1.19333	-90
1.19700	-92
1.20067	-94
1.20433	-94
1.20800	-89
1.21167	-80
1.21533	-75
1.21900	-76
1.22267	-77
1.22633	-76
1.23000	-74
1.23367	-74
1.23733	-77
1.24100	-78
1.24467	-77
1.24833	-73
1.25200	-71
1.25567	-73
1.25933	-77
1.26300	-82
1.26667	-90
1.27033	-97
1.27400	-103
1.27767	-107
1.28133	-105
1.28500	-100
1.28867	-94
1.29233	-89
1.29600	-87
1.29967	-88
1.30333	-88
1.30700	-87
1.31067	-88
1.31433	-88
1.31800	-87
1.32167	-84
1.32533	-83
1.32900	-85
1.33267	-89
1.33633	-90
1.34000	-86
1.34367	-79
1.34733	-72
1.35100	-68
1.35467	-67
1.35833	-71
1.36200	-77
1.36567	-83
1.36933	-89
1.37300	-94
1.37667	-97
1.38033	-94
1.38400	-89
1.38767	-88
1.39133	-92
1.39500	-98
1.39867	-101
1.40233	-99
1.40600	-93
1.40967	-88
1.41333	-85
1.41700	-87
1.42067	-89
1.42433	-88
1.42800	-85
1.43167	-83
1.43533	-81
1.43900	-76
1.44267	-38
1.44633	115
1.45000	461
1.45367	1090
1.45733	2145
1.46100	3576
1.46467	5096
1.46833	6424
1.47200	7410
1.47567	7982
1.47933	8087
1.48300	7691
1.48667	6839
1.49033	5692
1.49400	4468
1.49767	3348
1.50133	2427
1.50500	1721
1.50867	1202
1.51233	832
1.51600	571
1.51967	386
1.52333	256
1.52700	161
1.53067	93
1.53433	44
1.53800	13
1.54167	8
1.54533	63
1.54900	241
1.55267	564
1.55633	975
1.56000	1386
1.56367	1731
1.56733	1976
1.57100	2095
1.57467	2055
1.57833	1848
1.58200	1525
1.58567	1161
1.58933	823
1.59300	548
1.59667	341
1.60033	195
1.60400	97
1.60767	34
1.61133	-7
1.61500	-37
1.61867	-60
1.62233	-77
1.62600	-90
1.62967	-98
1.63333	-102
1.63700	-104
1.64067	-107
1.64433	-110
1.64800	-114
1.65167	-116
1.65533	-114
1.65900	-109
1.66267	-101
1.66633	-97
1.67000	-100
1.67367	-108
1.67733	-119
1.68100	-127
1.68467	-132
1.68833	-134
1.69200	-137
1.69567	-140
1.69933	-140
1.70300	-137
1.70667	-133
1.71033	-126
1.71400	-120
1.71767	-118
1.72133	-118
1.72500	-121
1.72867	-125
1.73233	-127
1.73600	-127
1.73967	-126
1.74333	-124
1.74700	-120
1.75067	-115
1.75433	-110
1.75800	-107
1.76167	-102
1.76533	-95
1.76900	-94
1.77267	-98
1.77633	-102
1.78000	-104
1.78367	-106
1.78733	-110
1.79100	-114
1.79467	-117
1.79833	-116
1.80200	-113
1.80567	-110
1.80933	-109
1.81300	-112
1.81667	-117
1.82033	-122
1.82400	-125
1.82767	-125
1.83133	-121
1.83500	-117
1.83867	-115
1.84233	-118
1.84600	-123
1.84967	-128
1.85333	-130
1.85700	-130
1.86067	-127
1.86433	-120
1.86800	-113
1.87167	-107
1.87533	-105
1.87900	-105
1.88267	-107
1.88633	-110
1.89000	-113
1.89367	-113
1.89733	-108
1.90100	-103
1.90467	-101
1.90833	-99
1.91200	-101
1.91567	-104
1.91933	-103
1.92300	-98
1.92667	-96
1.93033	-97
1.93400	-98
1.93767	-96
1.94133	-92
1.94500	-90
1.94867	-90
1.95233	-89
1.95600	-62
1.95967	126
1.96333	1235
1.96700	6403
1.97067	24606
1.97433	73538
1.97800	174714
1.98167	337330
1.98533	545090
1.98900	761353
1.99267	946659
1.99633	1071808
2.00000	1119887
2.00367	1086904
2.00733	983580
2.01100	833010
2.01467	664082
2.01833	502568
2.02200	364817
2.02567	256799
2.02933	177105
2.03300	120786
2.03667	82140
2.04033	56112
2.04400	38763
2.04767	27239
2.05133	19561
2.05500	14410
2.05867	10909
2.06233	8487
2.06600	6777
2.06967	5546
2.07333	4640
2.07700	3951
2.08067	3412
2.08433	2985
2.08800	2643
2.09167	2365
2.09533	2132
2.09900	1936
2.10267	1766
2.10633	1619
2.11000	1491
2.11367	1380
2.11733	1288
2.12100	1208
2.12467	1138
2.12833	1073
2.13200	1011
2.13567	953
2.13933	903
2.14300	861
2.14667	823
2.15033	788
2.15400	754
2.15767	723
2.16133	695
2.16500	670
2.16867	645
2.17233	617
2.17600	590
2.17967	569
2.18333	550
2.18700	530
2.19067	510
2.19433	492
2.19800	479
2.20167	470
2.20533	459
2.20900	447
2.21267	434
2.21633	419
2.22000	402
2.22367	384
2.22733	369
2.23100	358
2.23467	349
2.23833	340
2.24200	330
2.24567	320
2.24933	310
2.25300	300
2.25667	293
2.26033	289
2.26400	285
2.26767	282
2.27133	280
2.27500	281
2.27867	281
2.28233	276
2.28600	267
2.28967	256
2.29333	247
2.29700	244
2.30067	240
2.30433	235
2.30800	232
2.31167	228
2.31533	225
2.31900	223
2.32267	220
2.32633	219
2.33000	222
2.33367	224
2.33733	227
2.34100	229
2.34467	226
2.34833	221
2.35200	214
2.35567	207
2.35933	201
2.36300	201
2.36667	204
2.37033	206
2.37400	203
2.37767	196
2.38133	187
2.38500	177
2.38867	167
2.39233	157
2.39600	152
2.39967	148
2.40333	147
2.40700	149
2.41067	150
2.41433	153
2.41800	157
2.42167	157
2.42533	154
2.42900	156
2.43267	159
2.43633	158
2.44000	155
2.44367	153
2.44733	151
2.45100	152
2.45467	153
2.45833	154
2.46200	156
2.46567	154
2.46933	153
2.47300	152
2.47667	148
2.48033	142
2.48400	138
2.48767	138
2.49133	140
2.49500	140
2.49867	138
2.50233	136
2.50600	136
2.50967	134
2.51333	131
2.51700	129
2.52067	129
2.52433	128
2.52800	125
2.53167	121
2.53533	117
2.53900	115
2.54267	113
2.54633	111
2.55000	112
2.55367	113
2.55733	113
2.56100	114
2.56467	119
2.56833	125
2.57200	130
2.57567	130
2.57933	126
2.58300	123
2.58667	119
2.59033	116
2.59400	112
2.59767	107
2.60133	103
2.60500	104
2.60867	104
2.61233	101
2.61600	98
2.61967	95
2.62333	94
2.62700	94
2.63067	94
2.63433	93
2.63800	91
2.64167	89
2.64533	88
2.64900	85
2.65267	80
2.65633	77
2.66000	78
2.66367	82
2.66733	86
2.67100	87
2.67467	88
2.67833	90
2.68200	90
2.68567	91
2.68933	93
2.69300	97
2.69667	101
2.70033	102
2.70400	100
2.70767	92
2.71133	83
2.71500	77
2.71867	76
2.72233	79
2.72600	81
2.72967	82
2.73333	81
2.73700	77
2.74067	76
2.74433	75
2.74800	74
2.75167	78
2.75533	85
2.75900	89
2.76267	91
2.76633	91
2.77000	88
2.77367	80
2.77733	68
2.78100	57
2.78467	53
2.78833	53
2.79200	56
2.79567	59
2.79933	58
2.80300	56
2.80667	52
2.81033	47
2.81400	42
2.81767	39
2.82133	41
2.82500	44
2.82867	48
2.83233	51
2.83600	55
2.83967	62
2.84333	66
2.84700	65
2.85067	65
2.85433	64
2.85800	64
2.86167	62
2.86533	59
2.86900	58
2.87267	59
2.87633	59
2.88000	55
2.88367	50
2.88733	45
2.89100	43
2.89467	45
2.89833	49
2.90200	54
2.90567	56
2.90933	58
2.91300	59
2.91667	60
2.92033	62
2.92400	63
2.92767	64
2.93133	64
2.93500	66
2.93867	66
2.94233	62
2.94600	54
2.94967	48
2.95333	42
2.95700	38
2.96067	34
2.96433	32
2.96800	31
2.97167	30
2.97533	31
2.97900	36
2.98267	42
2.98633	49
2.99000	54
2.99367	57
2.99733	63
3.00100	65
3.00467	65
3.00833	68
3.01200	74
3.01567	78
3.01933	79
3.02300	76
3.02667	72
3.03033	69
3.03400	67
3.03767	64
3.04133	56
3.04500	50
3.04867	45
3.05233	39
3.05600	34
3.05967	32
3.06333	35
3.06700	40
3.07067	40
3.07433	34
3.07800	25
3.08167	21
3.08533	21
3.08900	25
3.09267	32
3.09633	37
3.10000	39
3.10367	37
3.10733	32
3.11100	26
3.11467	21
3.11833	20
3.12200	25
3.12567	34
3.12933	43
3.13300	50
3.13667	53
3.14033	57
3.14400	61
3.14767	58
3.15133	50
3.15500	43
3.15867	37
3.16233	34
3.16600	34
3.16967	33
3.17333	32
3.17700	30
3.18067	26
3.18433	20
3.18800	18
3.19167	19
3.19533	23
3.19900	27
3.20267	30
3.20633	34
3.21000	39
3.21367	45
3.21733	50
3.22100	51
3.22467	48
3.22833	39
3.23200	30
3.23567	24
3.23933	20
3.24300	18
3.24667	17
3.25033	18
3.25400	19
3.25767	19
3.26133	18
3.26500	19
3.26867	23
3.27233	29
3.27600	33
3.27967	35
3.28333	39
3.28700	43
3.29067	45
3.29433	45
3.29800	41
3.30167	35
3.30533	34
3.30900	38
3.31267	43
3.31633	42
3.32000	33
3.32367	24
3.32733	21
3.33100	23
3.33467	27
3.33833	29
3.34200	27
3.34567	21
3.34933	15
3.35300	11
3.35667	9
3.36033	11
3.36400	17
3.36767	24
3.37133	28
3.37500	31
3.37867	30
3.38233	34
3.38600	40
3.38967	45
3.39333	49
3.39700	50
3.40067	46
3.40433	41
3.40800	35
3.41167	30
3.41533	27
3.41900	27
3.42267	30
3.42633	32
3.43000	32
3.43367	31
3.43733	31
3.44100	31
3.44467	32
3.44833	32
3.45200	33
3.45567	34
3.45933	34
3.46300	28
3.46667	19
3.47033	12
3.47400	11
3.47767	12
3.48133	12
3.48500	15
3.48867	23
3.49233	29
3.49600	30
3.49967	26
3.50333	23
3.50700	23
3.51067	27
3.51433	34
3.51800	38
3.52167	35
3.52533	28
3.52900	22
3.53267	18
3.53633	17
3.54000	15
3.54367	14
3.54733	18
3.55100	22
3.55467	22
3.55833	22
3.56200	23
3.56567	26
3.56933	28
3.57300	24
3.57667	18
3.58033	13
3.58400	10
3.58767	9
3.59133	12
3.59500	16
3.59867	20
3.60233	23
3.60600	24
3.60967	24
3.61333	20
3.61700	15
3.62067	9
3.62433	3
3.62800	5
3.63167	11
3.63533	13
3.63900	10
3.64267	5
3.64633	2
3.65000	-0
3.65367	3
3.65733	8
3.66100	14
3.66467	16
3.66833	14
3.67200	9
3.67567	7
3.67933	9
3.68300	8
3.68667	7
3.69033	9
3.69400	16
3.69767	22
3.70133	28
3.70500	35
3.70867	39
3.71233	35
3.71600	27
3.71967	15
3.72333	3
3.72700	-9
3.73067	-15
3.73433	-16
3.73800	-13
3.74167	-7
3.74533	3
3.74900	9
3.75267	9
3.75633	6
3.76000	6
3.76367	6
3.76733	5
3.77100	8
3.77467	15
3.77833	22
3.78200	30
3.78567	36
3.78933	39
3.79300	37
3.79667	32
3.80033	27
3.80400	22
3.80767	18
3.81133	17
3.81500	17
3.81867	14
3.82233	9
3.82600	0
3.82967	-6
3.83333	-8
3.83700	-5
3.84067	1
3.84433	4
3.84800	2
3.85167	-1
3.85533	-6
3.85900	-7
3.86267	-4
3.86633	-3
3.87000	-3
3.87367	-0
3.87733	1
3.88100	3
3.88467	9
3.88833	19
3.89200	28
3.89567	29
3.89933	26
3.90300	19
3.90667	10
3.91033	5
3.91400	6
3.91767	10
3.92133	15
3.92500	17
3.92867	16
3.93233	13
3.93600	11
3.93967	12
3.94333	16
3.94700	20
3.95067	23
3.95433	24
3.95800	24
3.96167	22
3.96533	20
3.96900	16
3.97267	10
3.97633	8
3.98000	9
3.98367	8
3.98733	7
3.99100	8
3.99467	10
3.99833	12

[Chromatogram (Ch2)]
Interval(msec)	220
# of Points	1091
Start Time(min)	0.002
End Time(min)	3.998
R.Time (min)	Intensity
0.00167	-1
0.00533	-1
0.00900	-1
0.01267	-1
0.01633	-1
0.02000	-2
0.02367	-2
0.02733	-2
0.03100	-2
0.03467	-2
0.03833	-3
0.04200	-3
0.04567	-3
0.04933	-3
0.05300	-4
0.05667	-4
0.06033	-4
0.06400	-4
0.06767	-4
0.07133	-4
0.07500	-4
0.07867	-4
0.08233	-4
0.08600	-3
0.08967	-3
0.09333	-3
0.09700	-2
0.10067	-2
0.10433	-2
0.10800	-1
0.11167	-1
0.11533	-1
0.11900	-2
0.12267	-2
0.12633	-2
0.13000	-3
0.13367	-3
0.13733	-3
0.14100	-3
0.14467	-2
0.14833	-2
0.15200	-1
0.15567	-1
0.15933	-1
0.16300	-0
0.16667	0
0.17033	1
0.17400	1
0.17767	1
0.18133	1
0.18500	1
0.18867	1
0.19233	1
0.19600	1
0.19967	1
0.20333	1
0.20700	0
0.21067	0
0.21433	0
0.21800	0
0.22167	1
0.22533	0
0.22900	0
0.23267	0
0.23633	0
0.24000	0
0.24367	0
0.24733	-0
0.25100	-0
0.25467	-0
0.25833	-0
0.26200	0
0.26567	1
0.26933	1
0.27300	1
0.27667	1
0.28033	1
0.28400	1
0.28767	1
0.29133	0
0.29500	0
0.29867	-0
0.30233	-1
0.30600	-1
0.30967	-1
0.31333	-1
0.31700	-1
0.32067	-1
0.32433	-0
0.32800	-0
0.33167	-0
0.33533	-0
0.33900	-0
0.34267	0
0.34633	0
0.35000	1
0.35367	1
0.35733	1
0.36100	2
0.36467	2
0.36833	2
0.37200	2
0.37567	3
0.37933	3
0.38300	3
0.38667	3
0.39033	2
0.39400	2
0.39767	2
0.40133	2
0.40500	2
0.40867	2
0.41233	2
0.41600	2
0.41967	1
0.42333	1
0.42700	1
0.43067	1
0.43433	1
0.43800	0
0.44167	0
0.44533	0
0.44900	0
0.45267	1
0.45633	1
0.46000	1
0.46367	1
0.46733	1
0.47100	1
0.47467	1
0.47833	0
0.48200	0
0.48567	0
0.48933	0
0.49300	0
0.49667	1
0.50033	1
0.50400	1
0.50767	1
0.51133	1
0.51500	1
0.51867	1
0.52233	1
0.52600	1
0.52967	1
0.53333	1
0.53700	1
0.54067	1
0.54433	1
0.54800	0
0.55167	0
0.55533	0
0.55900	0
0.56267	-0
0.56633	-0
0.57000	-1
0.57367	-1
0.57733	-1
0.58100	-1
0.58467	-1
0.58833	-2
0.59200	-2
0.59567	-2
0.59933	-2
0.60300	-2
0.60667	-2
0.61033	-2
0.61400	-2
0.61767	-2
0.62133	-3
0.62500	-3
0.62867	-3
0.63233	-3
0.63600	-3
0.63967	-3
0.64333	-3
0.64700	-3
0.65067	-3
0.65433	-3
0.65800	-3
0.66167	-3
0.66533	-2
0.66900	-2
0.67267	-2
0.67633	-2
0.68000	-2
0.68367	-2
0.68733	-2
0.69100	-2
0.69467	-2
0.69833	-2
0.70200	-2
0.70567	-2
0.70933	-3
0.71300	-3
0.71667	-2
0.72033	-2
0.72400	-2
0.72767	-2
0.73133	-1
0.73500	-1
0.73867	-0
0.74233	0
0.74600	1
0.74967	1
0.75333	1
0.75700	2
0.76067	2
0.76433	2
0.76800	2
0.77167	1
0.77533	1
0.77900	1
0.78267	1
0.78633	1
0.79000	1
0.79367	1
0.79733	0
0.80100	0
0.80467	-0
0.80833	-0
0.81200	-0
0.81567	-0
0.81933	-0
0.82300	-1
0.82667	-1
0.83033	-1
0.83400	-2
0.83767	-2
0.84133	-2
0.84500	-2
0.84867	-2
0.85233	-2
0.85600	-2
0.85967	-2
0.86333	-2
0.86700	-2
0.87067	-2
0.87433	-2
0.87800	-2
0.88167	-2
0.88533	-2
0.88900	-2
0.89267	-2
0.89633	-2
0.90000	-2
0.90367	-2
0.90733	-2
0.91100	-2
0.91467	-2
0.91833	-2
0.92200	-3
0.92567	-3
0.92933	-3
0.93300	-3
0.93667	-3
0.94033	-3
0.94400	-3
0.94767	-3
0.95133	-3
0.95500	-3
0.95867	-2
0.96233	-2
0.96600	-3
0.96967	-3
0.97333	-3
0.97700	-3
0.98067	-3
0.98433	-3
0.98800	-3
0.99167	-2
0.99533	-2
0.99900	-2
1.00267	-2
1.00633	-2
1.01000	-2
1.01367	-2
1.01733	-2
1.02100	-2
1.02467	-2
1.02833	-3
1.03200	-3
1.03567	-3
1.03933	-3
1.04300	-3
1.04667	-3
1.05033	-3
1.05400	-3
1.05767	-3
1.06133	-3
1.06500	-3
1.06867	-3
1.07233	-3
1.07600	-3
1.07967	-3
1.08333	-2
1.08700	-2
1.09067	-2
1.09433	-2
1.09800	-2
1.10167	-1
1.10533	-1
1.10900	-1
1.11267	-1
1.11633	-2
1.12000	-2
1.12367	-2
1.12733	-2
1.13100	-2
1.13467	-2
1.13833	-2
1.14200	-2
1.14567	-2
1.14933	-2
1.15300	-2
1.15667	-2
1.16033	-2
1.16400	-2
1.16767	-2
1.17133	-3
1.17500	-3
1.17867	-3
1.18233	-3
1.18600	-3
1.18967	-3
1.19333	-3
1.19700	-3
1.20067	-4
1.20433	-4
1.20800	-4
1.21167	-4
1.21533	-4
1.21900	-4
1.22267	-4
1.22633	-3
1.23000	-3
1.23367	-3
1.23733	-3
1.24100	-2
1.24467	-2
1.24833	-2
1.25200	-1
1.25567	-1
1.25933	-1
1.26300	-1
1.26667	-1
1.27033	-1
1.27400	-1
1.27767	-2
1.28133	-2
1.28500	-2
1.28867	-2
1.29233	-2
1.29600	-2
1.29967	-2
1.30333	-2
1.30700	-2
1.31067	-2
1.31433	-2
1.31800	-2
1.32167	-2
1.32533	-2
1.32900	-2
1.33267	-2
1.33633	-2
1.34000	-2
1.34367	-2
1.34733	-2
1.35100	-2
1.35467	-2
1.35833	-2
1.36200	-2
1.36567	-3
1.36933	-3
1.37300	-3
1.37667	-3
1.38033	-3
1.38400	-3
1.38767	-3
1.39133	-3
1.39500	-3
1.39867	-3
1.40233	-3
1.40600	-3
1.40967	-4
1.41333	-4
1.41700	-4
1.42067	-4
1.42433	-4
1.42800	-4
1.43167	-4
1.43533	-4
1.43900	-4
1.44267	-4
1.44633	-4
1.45000	-4
1.45367	-4
1.45733	-4
1.46100	-4
1.46467	-4
1.46833	-4
1.47200	-4
1.47567	-4
1.47933	-4
1.48300	-4
1.48667	-4
1.49033	-4
1.49400	-4
1.49767	-4
1.50133	-4
1.50500	-4
1.50867	-4
1.51233	-4
1.51600	-4
1.51967	-4
1.52333	-4
1.52700	-4
1.53067	-4
1.53433	-4
1.53800	-4
1.54167	-4
1.54533	-4
1.54900	-3
1.55267	-3
1.55633	-3
1.56000	-3
1.56367	-3
1.56733	-3
1.57100	-3
1.57467	-3
1.57833	-3
1.58200	-3
1.58567	-4
1.58933	-4
1.59300	-5
1.59667	-6
1.60033	-6
1.60400	-7
1.60767	-9
1.61133	-10
1.61500	-12
1.61867	-14
1.62233	-16
1.62600	-19
1.62967	-22
1.63333	-25
1.63700	-28
1.64067	-31
1.64433	-35
1.64800	-38
1.65167	-41
1.65533	-45
1.65900	-48
1.66267	-52
1.66633	-55
1.67000	-59
1.67367	-64
1.67733	-69
1.68100	-74
1.68467	-79
1.68833	-84
1.69200	-89
1.69567	-93
1.69933	-97
1.70300	-100
1.70667	-103
1.71033	-105
1.71400	-107
1.71767	-108
1.72133	-109
1.72500	-110
1.72867	-111
1.73233	-112
1.73600	-112
1.73967	-113
1.74333	-113
1.74700	-113
1.75067	-114
1.75433	-114
1.75800	-114
1.76167	-114
1.76533	-115
1.76900	-116
1.77267	-117
1.77633	-118
1.78000	-119
1.78367	-119
1.78733	-120
1.79100	-120
1.79467	-120
1.79833	-120
1.80200	-119
1.80567	-119
1.80933	-118
1.81300	-117
1.81667	-117
1.82033	-117
1.82400	-117
1.82767	-118
1.83133	-118
1.83500	-118
1.83867	-118
1.84233	-118
1.84600	-118
1.84967	-118
1.85333	-119
1.85700	-119
1.86067	-120
1.86433	-121
1.86800	-122
1.87167	-122
1.87533	-123
1.87900	-123
1.88267	-123
1.88633	-123
1.89000	-123
1.89367	-122
1.89733	-121
1.90100	-120
1.90467	-120
1.90833	-119
1.91200	-119
1.91567	-119
1.91933	-119
1.92300	-119
1.92667	-119
1.93033	-119
1.93400	-119
1.93767	-119
1.94133	-119
1.94500	-118
1.94867	-118
1.95233	-117
1.95600	-117
1.95967	-116
1.96333	-116
1.96700	-116
1.97067	-116
1.97433	-116
1.97800	-116
1.98167	-116
1.98533	-115
1.98900	-115
1.99267	-114
1.99633	-114
2.00000	-113
2.00367	-112
2.00733	-112
2.01100	-111
2.01467	-111
2.01833	-110
2.02200	-110
2.02567	-110
2.02933	-110
2.03300	-110
2.03667	-110
2.04033	-110
2.04400	-110
2.04767	-109
2.05133	-109
2.05500	-109
2.05867	-108
2.06233	-108
2.06600	-108
2.06967	-107
2.07333	-107
2.07700	-107
2.08067	-107
2.08433	-107
2.08800	-108
2.09167	-107
2.09533	-107
2.09900	-107
2.10267	-107
2.10633	-106
2.11000	-106
2.11367	-106
2.11733	-105
2.12100	-105
2.12467	-104
2.12833	-104
2.13200	-103
2.13567	-102
2.13933	-102
2.14300	-101
2.14667	-101
2.15033	-101
2.15400	-101
2.15767	-101
2.16133	-100
2.16500	-100
2.16867	-99
2.17233	-98
2.17600	-98
2.17967	-97
2.18333	-97
2.18700	-97
2.19067	-96
2.19433	-96
2.19800	-96
2.20167	-96
2.20533	-96
2.20900	-96
2.21267	-96
2.21633	-95
2.22000	-95
2.22367	-94
2.22733	-93
2.23100	-93
2.23467	-93
2.23833	-93
2.24200	-93
2.24567	-93
2.24933	-93
2.25300	-92
2.25667	-92
2.26033	-91
2.26400	-90
2.26767	-90
2.27133	-89
2.27500	-89
2.27867	-89
2.28233	-88
2.28600	-88
2.28967	-89
2.29333	-89
2.29700	-89
2.30067	-88
2.30433	-88
2.30800	-87
2.31167	-86
2.31533	-85
2.31900	-84
2.32267	-84
2.32633	-84
2.33000	-85
2.33367	-86
2.33733	-86
2.34100	-87
2.34467	-88
2.34833	-88
2.35200	-87
2.35567	-87
2.35933	-86
2.36300	-85
2.36667	-83
2.37033	-81
2.37400	-79
2.37767	-76
2.38133	-72
2.38500	-68
2.38867	-64
2.39233	-60
2.39600	-55
2.39967	-51
2.40333	-47
2.40700	-42
2.41067	-38
2.41433	-35
2.41800	-31
2.42167	-28
2.42533	-25
2.42900	-22
2.43267	-19
2.43633	-17
2.44000	-15
2.44367	-13
2.44733	-12
2.45100	-10
2.45467	-9
2.45833	-7
2.46200	-6
2.46567	-4
2.46933	-3
2.47300	-2
2.47667	-1
2.48033	0
2.48400	2
2.48767	3
2.49133	4
2.49500	5
2.49867	6
2.50233	7
2.50600	7
2.50967	8
2.51333	9
2.51700	9
2.52067	9
2.52433	9
2.52800	9
2.53167	10
2.53533	10
2.53900	11
2.54267	12
2.54633	12
2.55000	13
2.55367	13
2.55733	13
2.56100	13
2.56467	13
2.56833	13
2.57200	13
2.57567	14
2.57933	14
2.58300	14
2.58667	14
2.59033	14
2.59400	14
2.59767	14
2.60133	13
2.60500	13
2.60867	13
2.61233	13
2.61600	13
2.61967	14
2.62333	14
2.62700	15
2.63067	16
2.63433	16
2.63800	16
2.64167	17
2.64533	17
2.64900	17
2.65267	17
2.65633	17
2.66000	18
2.66367	18
2.66733	18
2.67100	19
2.67467	19
2.67833	19
2.68200	19
2.68567	19
2.68933	19
2.69300	20
2.69667	20
2.70033	20
2.70400	21
2.70767	21
2.71133	22
2.71500	23
2.71867	23
2.72233	23
2.72600	24
2.72967	24
2.73333	24
2.73700	23
2.74067	23
2.74433	23
2.74800	23
2.75167	23
2.75533	23
2.75900	23
2.76267	23
2.76633	24
2.77000	24
2.77367	24
2.77733	24
2.78100	25
2.78467	25
2.78833	25
2.79200	25
2.79567	25
2.79933	26
2.80300	26
2.80667	25
2.81033	25
2.81400	25
2.81767	25
2.82133	25
2.82500	25
2.82867	25
2.83233	25
2.83600	25
2.83967	25
2.84333	25
2.84700	24
2.85067	23
2.85433	21
2.85800	17
2.86167	11
2.86533	2
2.86900	-10
2.87267	-26
2.87633	-46
2.88000	-70
2.88367	-98
2.88733	-130
2.89100	-165
2.89467	-204
2.89833	-246
2.90200	-290
2.90567	-336
2.90933	-384
2.91300	-433
2.91667	-483
2.92033	-533
2.92400	-583
2.92767	-633
2.93133	-682
2.93500	-731
2.93867	-780
2.94233	-831
2.94600	-886
2.94967	-947
2.95333	-1008
2.95700	-1056
2.96067	-1082
2.96433	-1082
2.96800	-1056
2.97167	-1009
2.97533	-946
2.97900	-872
2.98267	-794
2.98633	-714
2.99000	-636
2.99367	-562
2.99733	-493
3.00100	-429
3.00467	-372
3.00833	-321
3.01200	-276
3.01567	-237
3.01933	-202
3.02300	-172
3.02667	-146
3.03033	-123
3.03400	-104
3.03767	-87
3.04133	-73
3.04500	-61
3.04867	-50
3.05233	-41
3.05600	-34
3.05967	-27
3.06333	-21
3.06700	-16
3.07067	-12
3.07433	-9
3.07800	-5
3.08167	-3
3.08533	0
3.08900	2
3.09267	4
3.09633	6
3.10000	8
3.10367	9
3.10733	10
3.11100	11
3.11467	12
3.11833	13
3.12200	14
3.12567	15
3.12933	16
3.13300	16
3.13667	17
3.14033	17
3.14400	18
3.14767	18
3.15133	18
3.15500	19
3.15867	19
3.16233	19
3.16600	20
3.16967	20
3.17333	20
3.17700	20
3.18067	20
3.18433	20
3.18800	20
3.19167	20
3.19533	21
3.19900	21
3.20267	21
3.20633	21
3.21000	21
3.21367	21
3.21733	21
3.22100	21
3.22467	21
3.22833	21
3.23200	21
3.23567	21
3.23933	21
3.24300	21
3.24667	21
3.25033	21
3.25400	21
3.25767	21
3.26133	21
3.26500	22
3.26867	22
3.27233	22
3.27600	22
3.27967	22
3.28333	23
3.28700	23
3.29067	23
3.29433	23
3.29800	23
3.30167	23
3.30533	23
3.30900	23
3.31267	23
3.31633	23
3.32000	23
3.32367	23
3.32733	24
3.33100	24
3.33467	24
3.33833	24
3.34200	24
3.34567	24
3.34933	24
3.35300	24
3.35667	24
3.36033	24
3.36400	24
3.36767	24
3.37133	24
3.37500	24
3.37867	24
3.38233	24
3.38600	24
3.38967	24
3.39333	24
3.39700	24
3.40067	24
3.40433	25
3.40800	25
3.41167	25
3.41533	25
3.41900	25
3.42267	25
3.42633	25
3.43000	25
3.43367	25
3.43733	25
3.44100	25
3.44467	25
3.44833	25
3.45200	26
3.45567	26
3.45933	26
3.46300	25
3.46667	25
3.47033	25
3.47400	25
3.47767	25
3.48133	25
3.48500	25
3.48867	25
3.49233	26
3.49600	26
3.49967	27
3.50333	27
3.50700	27
3.51067	28
3.51433	28
3.51800	28
3.52167	29
3.52533	29
3.52900	29
3.53267	29
3.53633	29
3.54000	29
3.54367	29
3.54733	29
3.55100	29
3.55467	29
3.55833	29
3.56200	29
3.56567	29
3.56933	28
3.57300	28
3.57667	28
3.58033	28
3.58400	28
3.58767	28
3.59133	28
3.59500	28
3.59867	27
3.60233	27
3.60600	27
3.60967	27
3.61333	27
3.61700	27
3.62067	27
3.62433	27
3.62800	27
3.63167	27
3.63533	27
3.63900	27
3.64267	27
3.64633	27
3.65000	27
3.65367	27
3.65733	27
3.66100	27
3.66467	27
3.66833	27
3.67200	27
3.67567	27
3.67933	27
3.68300	27
3.68667	27
3.69033	27
3.69400	27
3.69767	27
3.70133	27
3.70500	27
3.70867	27
3.71233	27
3.71600	27
3.71967	27
3.72333	27
3.72700	26
3.73067	26
3.73433	26
3.73800	26
3.74167	26
3.74533	26
3.74900	26
3.75267	26
3.75633	26
3.76000	26
3.76367	26
3.76733	26
3.77100	26
3.77467	26
3.77833	26
3.78200	26
3.78567	26
3.78933	26
3.79300	26
3.79667	26
3.80033	26
3.80400	26
3.80767	26
3.81133	26
3.81500	26
3.81867	26
3.82233	26
3.82600	26
3.82967	25
3.83333	25
3.83700	25
3.84067	25
3.84433	25
3.84800	24
3.85167	24
3.85533	24
3.85900	24
3.86267	24
3.86633	24
3.87000	24
3.87367	24
3.87733	24
3.88100	24
3.88467	24
3.88833	24
3.89200	24
3.89567	24
3.89933	25
3.90300	25
3.90667	25
3.91033	25
3.91400	25
3.91767	25
3.92133	25
3.92500	25
3.92867	25
3.93233	25
3.93600	25
3.93967	25
3.94333	25
3.94700	25
3.95067	25
3.95433	26
3.95800	26
3.96167	26
3.96533	26
3.96900	26
3.97267	26
3.97633	26
3.98000	26
3.98367	25
3.98733	25
3.99100	25
3.99467	25
3.99833	25

[Chromatogram (Ch3)]
Interval(msec)	220
# of Points	1091
Start Time(min)	0.002
End Time(min)	3.998
R.Time (min)	Intensity
0.00167	0
0.00533	0
0.00900	2
0.01267	2
0.01633	1
0.02000	1
0.02367	-0
0.02733	0
0.03100	0
0.03467	2
0.03833	-0
0.04200	-2
0.04567	-4
0.04933	-4
0.05300	-2
0.05667	-0
0.06033	-1
0.06400	-2
0.06767	-2
0.07133	-3
0.07500	-4
0.07867	-5
0.08233	-4
0.08600	-3
0.08967	-3
0.09333	0
0.09700	1
0.10067	-1
0.10433	-2
0.10800	-3
0.11167	-4
0.11533	-4
0.11900	-4
0.12267	-3
0.12633	-1
0.13000	1
0.13367	2
0.13733	2
0.14100	0
0.14467	-0
0.14833	-1
0.15200	-3
0.15567	-3
0.15933	-2
0.16300	-0
0.16667	0
0.17033	-3
0.17400	-3
0.17767	-4
0.18133	-5
0.18500	-5
0.18867	-6
0.19233	-6
0.19600	-5
0.19967	-3
0.20333	-4
0.20700	-7
0.21067	-8
0.21433	-8
0.21800	-7
0.22167	-7
0.22533	-5
0.22900	-5
0.23267	-5
0.23633	-6
0.24000	-7
0.24367	-5
0.24733	-5
0.25100	-5
0.25467	-7
0.25833	-10
0.26200	-11
0.26567	-10
0.26933	-8
0.27300	-6
0.27667	-5
0.28033	-5
0.28400	-6
0.28767	-7
0.29133	-10
0.29500	-12
0.29867	-11
0.30233	-10
0.30600	-11
0.30967	-12
0.31333	-11
0.31700	-10
0.32067	-11
0.32433	-10
0.32800	-9
0.33167	-7
0.33533	-8
0.33900	-11
0.34267	-13
0.34633	-12
0.35000	-13
0.35367	-13
0.35733	-13
0.36100	-12
0.36467	-11
0.36833	-10
0.37200	-9
0.37567	-7
0.37933	-9
0.38300	-12
0.38667	-13
0.39033	-12
0.39400	-12
0.39767	-13
0.40133	-12
0.40500	-11
0.40867	-11
0.41233	-10
0.41600	-11
0.41967	-13
0.42333	-13
0.42700	-13
0.43067	-13
0.43433	-13
0.43800	-13
0.44167	-14
0.44533	-13
0.44900	-13
0.45267	-12
0.45633	-12
0.46000	-15
0.46367	-16
0.46733	-17
0.47100	-15
0.47467	-13
0.47833	-13
0.48200	-10
0.48567	-9
0.48933	-10
0.49300	-10
0.49667	-11
0.50033	-10
0.50400	-9
0.50767	-10
0.51133	-10
0.51500	-13
0.51867	-13
0.52233	-14
0.52600	-15
0.52967	-14
0.53333	-11
0.53700	-10
0.54067	-9
0.54433	-8
0.54800	-9
0.55167	-11
0.55533	-14
0.55900	-15
0.56267	-18
0.56633	-17
0.57000	-16
0.57367	-16
0.57733	-16
0.58100	-16
0.58467	-15
0.58833	-15
0.59200	-16
0.59567	-14
0.59933	-12
0.60300	-10
0.60667	-8
0.61033	-11
0.61400	-14
0.61767	-17
0.62133	-18
0.62500	-16
0.62867	-15
0.63233	-14
0.63600	-14
0.63967	-15
0.64333	-14
0.64700	-14
0.65067	-14
0.65433	-13
0.65800	-12
0.66167	-14
0.66533	-16
0.66900	-16
0.67267	-17
0.67633	-16
0.68000	-16
0.68367	-16
0.68733	-16
0.69100	-17
0.69467	-19
0.69833	-19
0.70200	-17
0.70567	-17
0.70933	-18
0.71300	-18
0.71667	-17
0.72033	-17
0.72400	-15
0.72767	-14
0.73133	-13
0.73500	-14
0.73867	-16
0.74233	-19
0.74600	-20
0.74967	-19
0.75333	-19
0.75700	-18
0.76067	-17
0.76433	-16
0.76800	-17
0.77167	-19
0.77533	-21
0.77900	-20
0.78267	-20
0.78633	-20
0.79000	-21
0.79367	-21
0.79733	-22
0.80100	-21
0.80467	-20
0.80833	-18
0.81200	-17
0.81567	-17
0.81933	-18
0.82300	-20
0.82667	-22
0.83033	-23
0.83400	-23
0.83767	-22
0.84133	-21
0.84500	-22
0.84867	-22
0.85233	-21
0.85600	-19
0.85967	-20
0.86333	-16
0.86700	-14
0.87067	-13
0.87433	-14
0.87800	-16
0.88167	-19
0.88533	-22
0.88900	-23
0.89267	-23
0.89633	-21
0.90000	-19
0.90367	-20
0.90733	-19
0.91100	-20
0.91467	-22
0.91833	-22
0.92200	-21
0.92567	-20
0.92933	-20
0.93300	-19
0.93667	-18
0.94033	-17
0.94400	-17
0.94767	-17
0.95133	-15
0.95500	-15
0.95867	-18
0.96233	-23
0.96600	-25
0.96967	-24
0.97333	-24
0.97700	-24
0.98067	-21
0.98433	-19
0.98800	-18
0.99167	-17
0.99533	-17
0.99900	-18
1.00267	-20
1.00633	-20
1.01000	-19
1.01367	-19
1.01733	-19
1.02100	-20
1.02467	-19
1.02833	-19
1.03200	-20
1.03567	-21
1.03933	-20
1.04300	-19
1.04667	-18
1.05033	-21
1.05400	-22
1.05767	-22
1.06133	-21
1.06500	-21
1.06867	-20
1.07233	-19
1.07600	-18
1.07967	-17
1.08333	-18
1.08700	-19
1.09067	-20
1.09433	-21
1.09800	-22
1.10167	-23
1.10533	-24
1.10900	-24
1.11267	-25
1.11633	-25
1.12000	-23
1.12367	-25
1.12733	-27
1.13100	-26
1.13467	-25
1.13833	-25
1.14200	-24
1.14567	-23
1.14933	-22
1.15300	-22
1.15667	-23
1.16033	-23
1.16400	-26
1.16767	-26
1.17133	-27
1.17500	-29
1.17867	-30
1.18233	-28
1.18600	-28
1.18967	-27
1.19333	-25
1.19700	-23
1.20067	-19
1.20433	-16
1.20800	-17
1.21167	-18
1.21533	-19
1.21900	-20
1.22267	-18
1.22633	-17
1.23000	-18
1.23367	-20
1.23733	-22
1.24100	-22
1.24467	-24
1.24833	-25
1.25200	-23
1.25567	-24
1.25933	-25
1.26300	-28
1.26667	-29
1.27033	-28
1.27400	-26
1.27767	-23
1.28133	-23
1.28500	-24
1.28867	-25
1.29233	-24
1.29600	-23
1.29967	-23
1.30333	-25
1.30700	-27
1.31067	-27
1.31433	-27
1.31800	-26
1.32167	-26
1.32533	-26
1.32900	-27
1.33267	-30
1.33633	-30
1.34000	-30
1.34367	-28
1.34733	-26
1.35100	-25
1.35467	-25
1.35833	-24
1.36200	-25
1.36567	-25
1.36933	-22
1.37300	-22
1.37667	-24
1.38033	-25
1.38400	-25
1.38767	-23
1.39133	-26
1.39500	-27
1.39867	-26
1.40233	-25
1.40600	-24
1.40967	-24
1.41333	-26
1.41700	-28
1.42067	-28
1.42433	-27
1.42800	-25
1.43167	-24
1.43533	-25
1.43900	-25
1.44267	-23
1.44633	-25
1.45000	-29
1.45367	-31
1.45733	-32
1.46100	-31
1.46467	-30
1.46833	-29
1.47200	-27
1.47567	-23
1.47933	-20
1.48300	-19
1.48667	-19
1.49033	-21
1.49400	-22
1.49767	-21
1.50133	-20
1.50500	-17
1.50867	-16
1.51233	-17
1.51600	-20
1.51967	-23
1.52333	-23
1.52700	-23
1.53067	-24
1.53433	-23
1.53800	-22
1.54167	-21
1.54533	-22
1.54900	-21
1.55267	-22
1.55633	-23
1.56000	-23
1.56367	-24
1.56733	-24
1.57100	-23
1.57467	-22
1.57833	-22
1.58200	-23
1.58567	-26
1.58933	-25
1.59300	-25
1.59667	-26
1.60033	-27
1.60400	-27
1.60767	-27
1.61133	-27
1.61500	-26
1.61867	-25
1.62233	-25
1.62600	-25
1.62967	-26
1.63333	-25
1.63700	-25
1.64067	-24
1.64433	-25
1.64800	-25
1.65167	-26
1.65533	-25
1.65900	-22
1.66267	-20
1.66633	-20
1.67000	-21
1.67367	-20
1.67733	-17
1.68100	-15
1.68467	-12
1.68833	-13
1.69200	-15
1.69567	-15
1.69933	-15
1.70300	-16
1.70667	-18
1.71033	-17
1.71400	-16
1.71767	-15
1.72133	-13
1.72500	-11
1.72867	-10
1.73233	-9
1.73600	-7
1.73967	-7
1.74333	-7
1.74700	-8
1.75067	-8
1.75433	-10
1.75800	-11
1.76167	-11
1.76533	-7
1.76900	-5
1.77267	-3
1.77633	-4
1.78000	-6
1.78367	-7
1.78733	-8
1.79100	-8
1.79467	-7
1.79833	-5
1.80200	-6
1.80567	-5
1.80933	-2
1.81300	-2
1.81667	-2
1.82033	-3
1.82400	-4
1.82767	-4
1.83133	-4
1.83500	-5
1.83867	-6
1.84233	-5
1.84600	-5
1.84967	-4
1.85333	-2
1.85700	0
1.86067	0
1.86433	-0
1.86800	1
1.87167	4
1.87533	5
1.87900	6
1.88267	6
1.88633	6
1.89000	8
1.89367	8
1.89733	9
1.90100	7
1.90467	8
1.90833	11
1.91200	12
1.91567	14
1.91933	13
1.92300	11
1.92667	12
1.93033	14
1.93400	15
1.93767	14
1.94133	13
1.94500	12
1.94867	11
1.95233	11
1.95600	13
1.95967	12
1.96333	12
1.96700	12
1.97067	14
1.97433	16
1.97800	17
1.98167	19
1.98533	21
1.98900	22
1.99267	23
1.99633	25
2.00000	26
2.00367	27
2.00733	27
2.01100	26
2.01467	26
2.01833	29
2.02200	30
2.02567	30
2.02933	29
2.03300	29
2.03667	30
2.04033	31
2.04400	31
2.04767	31
2.05133	32
2.05500	31
2.05867	31
2.06233	32
2.06600	33
2.06967	34
2.07333	35
2.07700	37
2.08067	40
2.08433	42
2.08800	44
2.09167	45
2.09533	45
2.09900	46
2.10267	47
2.10633	47
2.11000	48
2.11367	51
2.11733	55
2.12100	59
2.12467	58
2.12833	56
2.13200	57
2.13567	61
2.13933	63
2.14300	61
2.14667	60
2.15033	61
2.15400	61
2.15767	62
2.16133	63
2.16500	63
2.16867	63
2.17233	62
2.17600	62
2.17967	62
2.18333	62
2.18700	62
2.19067	64
2.19433	66
2.19800	69
2.20167	70
2.20533	72
2.20900	72
2.21267	75
2.21633	78
2.22000	79
2.22367	80
2.22733	78
2.23100	78
2.23467	78
2.23833	78
2.24200	79
2.24567	81
2.24933	84
2.25300	85
2.25667	85
2.26033	85
2.26400	89
2.26767	91
2.27133	92
2.27500	95
2.27867	97
2.28233	97
2.28600	97
2.28967	97
2.29333	99
2.29700	98
2.30067	98
2.30433	97
2.30800	99
2.31167	104
2.31533	107
2.31900	108
2.32267	110
2.32633	111
2.33000	112
2.33367	113
2.33733	116
2.34100	118
2.34467	117
2.34833	117
2.35200	119
2.35567	122
2.35933	125
2.36300	126
2.36667	125
2.37033	124
2.37400	123
2.37767	122
2.38133	120
2.38500	120
2.38867	120
2.39233	121
2.39600	120
2.39967	121
2.40333	120
2.40700	118
2.41067	119
2.41433	120
2.41800	122
2.42167	124
2.42533	127
2.42900	133
2.43267	139
2.43633	141
2.44000	142
2.44367	148
2.44733	166
2.45100	185
2.45467	191
2.45833	181
2.46200	164
2.46567	148
2.46933	136
2.47300	128
2.47667	125
2.48033	122
2.48400	120
2.48767	119
2.49133	119
2.49500	121
2.49867	126
2.50233	133
2.50600	138
2.50967	145
2.51333	155
2.51700	164
2.52067	171
2.52433	178
2.52800	183
2.53167	188
2.53533	191
2.53900	193
2.54267	192
2.54633	194
2.55000	198
2.55367	203
2.55733	210
2.56100	215
2.56467	220
2.56833	223
2.57200	227
2.57567	229
2.57933	232
2.58300	234
2.58667	241
2.59033	249
2.59400	255
2.59767	259
2.60133	260
2.60500	254
2.60867	241
2.61233	220
2.61600	189
2.61967	151
2.62333	109
2.62700	63
2.63067	19
2.63433	-20
2.63800	-55
2.64167	-83
2.64533	-105
2.64900	-119
2.65267	-127
2.65633	-129
2.66000	-126
2.66367	-124
2.66733	-121
2.67100	-114
2.67467	-101
2.67833	-87
2.68200	-75
2.68567	-64
2.68933	-54
2.69300	-42
2.69667	-30
2.70033	-18
2.70400	-9
2.70767	-0
2.71133	9
2.71500	19
2.71867	30
2.72233	41
2.72600	48
2.72967	56
2.73333	66
2.73700	75
2.74067	82
2.74433	88
2.74800	94
2.75167	100
2.75533	110
2.75900	118
2.76267	124
2.76633	129
2.77000	132
2.77367	137
2.77733	141
2.78100	146
2.78467	150
2.78833	153
2.79200	155
2.79567	157
2.79933	160
2.80300	161
2.80667	163
2.81033	166
2.81400	170
2.81767	173
2.82133	175
2.82500	179
2.82867	185
2.83233	199
2.83600	229
2.83967	289
2.84333	399
2.84700	586
2.85067	871
2.85433	1268
2.85800	1771
2.86167	2362
2.86533	3008
2.86900	3653
2.87267	4247
2.87633	4743
2.88000	5108
2.88367	5321
2.88733	5380
2.89100	5299
2.89467	5102
2.89833	4819
2.90200	4478
2.90567	4108
2.90933	3728
2.91300	3356
2.91667	3003
2.92033	2672
2.92400	2370
2.92767	2099
2.93133	1856
2.93500	1639
2.93867	1448
2.94233	1280
2.94600	1132
2.94967	1002
2.95333	891
2.95700	794
2.96067	710
2.96433	637
2.96800	571
2.97167	516
2.97533	470
2.97900	433
2.98267	399
2.98633	371
2.99000	346
2.99367	325
2.99733	306
3.00100	288
3.00467	274
3.00833	262
3.01200	251
3.01567	238
3.01933	228
3.02300	223
3.02667	218
3.03033	214
3.03400	210
3.03767	207
3.04133	203
3.04500	202
3.04867	199
3.05233	195
3.05600	192
3.05967	188
3.06333	185
3.06700	183
3.07067	180
3.07433	177
3.07800	175
3.08167	176
3.08533	177
3.08900	177
3.09267	176
3.09633	176
3.10000	176
3.10367	172
3.10733	170
3.11100	168
3.11467	167
3.11833	166
3.12200	164
3.12567	164
3.12933	163
3.13300	161
3.13667	158
3.14033	155
3.14400	156
3.14767	157
3.15133	155
3.15500	151
3.15867	152
3.16233	152
3.16600	153
3.16967	153
3.17333	153
3.17700	150
3.18067	149
3.18433	151
3.18800	152
3.19167	152
3.19533	152
3.19900	152
3.20267	152
3.20633	153
3.21000	152
3.21367	152
3.21733	152
3.22100	153
3.22467	154
3.22833	153
3.23200	149
3.23567	144
3.23933	141
3.24300	141
3.24667	142
3.25033	143
3.25400	144
3.25767	144
3.26133	144
3.26500	144
3.26867	144
3.27233	143
3.27600	142
3.27967	141
3.28333	142
3.28700	144
3.29067	146
3.29433	144
3.29800	140
3.30167	137
3.30533	134
3.30900	131
3.31267	131
3.31633	127
3.32000	123
3.32367	121
3.32733	123
3.33100	122
3.33467	122
3.33833	121
3.34200	119
3.34567	118
3.34933	117
3.35300	115
3.35667	110
3.36033	106
3.36400	105
3.36767	107
3.37133	108
3.37500	108
3.37867	107
3.38233	103
3.38600	100
3.38967	100
3.39333	98
3.39700	96
3.40067	93
3.40433	91
3.40800	88
3.41167	86
3.41533	84
3.41900	84
3.42267	84
3.42633	84
3.43000	84
3.43367	84
3.43733	81
3.44100	78
3.44467	77
3.44833	75
3.45200	72
3.45567	69
3.45933	67
3.46300	68
3.46667	69
3.47033	70
3.47400	66
3.47767	60
3.48133	56
3.48500	55
3.48867	55
3.49233	55
3.49600	54
3.49967	53
3.50333	52
3.50700	51
3.51067	49
3.51433	48
3.51800	48
3.52167	49
3.52533	50
3.52900	48
3.53267	46
3.53633	44
3.54000	43
3.54367	41
3.54733	40
3.55100	38
3.55467	36
3.55833	35
3.56200	36
3.56567	34
3.56933	32
3.57300	31
3.57667	31
3.58033	28
3.58400	27
3.58767	25
3.59133	26
3.59500	29
3.59867	29
3.60233	27
3.60600	24
3.60967	23
3.61333	23
3.61700	22
3.62067	22
3.62433	21
3.62800	19
3.63167	19
3.63533	19
3.63900	20
3.64267	20
3.64633	18
3.65000	15
3.65367	14
3.65733	14
3.66100	14
3.66467	11
3.66833	10
3.67200	9
3.67567	8
3.67933	8
3.68300	10
3.68667	10
3.69033	8
3.69400	7
3.69767	9
3.70133	9
3.70500	8
3.70867	7
3.71233	7
3.71600	6
3.71967	5
3.72333	3
3.72700	4
3.73067	5
3.73433	7
3.73800	7
3.74167	5
3.74533	3
3.74900	2
3.75267	3
3.75633	3
3.76000	3
3.76367	1
3.76733	-3
3.77100	-3
3.77467	-4
3.77833	-5
3.78200	-5
3.78567	-4
3.78933	-4
3.79300	-4
3.79667	-4
3.80033	-4
3.80400	-4
3.80767	-6
3.81133	-6
3.81500	-8
3.81867	-7
3.82233	-5
3.82600	-4
3.82967	-5
3.83333	-5
3.83700	-5
3.84067	-5
3.84433	-5
3.84800	-5
3.85167	-4
3.85533	-2
3.85900	-2
3.86267	-3
3.86633	-3
3.87000	-2
3.87367	-2
3.87733	-4
3.88100	-4
3.88467	-4
3.88833	-6
3.89200	-9
3.89567	-12
3.89933	-13
3.90300	-16
3.90667	-17
3.91033	-20
3.91400	-23
3.91767	-23
3.92133	-21
3.92500	-20
3.92867	-19
3.93233	-16
3.93600	-17
3.93967	-19
3.94333	-21
3.94700	-23
3.95067	-23
3.95433	-23
3.95800	-24
3.96167	-23
3.96533	-22
3.96900	-22
3.97267	-21
3.97633	-20
3.98000	-19
3.98367	-19
3.98733	-21
3.99100	-22
3.99467	-25
3.99833	-26

[Status Trace (Column Oven Temperature)]
Interval(msec)	1000
# of Points	240
Start Time(min)	0.014
End Time(min)	3.997
Intensity Units	
Intensity Multiplier	1
R.Time (min)	Intensity
0.01380	35.01
0.03047	35.02
0.04713	35.05
0.06380	35.05
0.08047	35.05
0.09713	35.06
0.11380	35.06
0.13047	35.06
0.14713	35.05
0.16380	35.05
0.18047	35.04
0.19713	35.03
0.21380	35.03
0.23047	35.03
0.24713	35.03
0.26380	35.02
0.28047	35.02
0.29713	35.01
0.31380	35.01
0.33047	35.01
0.34713	35.00
0.36380	34.99
0.38047	34.98
0.39713	34.97
0.41380	34.97
0.43047	34.97
0.44713	34.97
0.46380	34.97
0.48047	34.96
0.49713	34.97
0.51380	34.96
0.53047	34.96
0.54713	34.97
0.56380	34.97
0.58047	34.98
0.59713	34.99
0.61380	35.00
0.63047	35.01
0.64713	35.01
0.66380	35.01
0.68047	35.02
0.69713	35.02
0.71380	35.01
0.73047	34.99
0.74713	34.99
0.76380	34.98
0.78047	34.97
0.79713	34.97
0.81380	34.96
0.83047	34.97
0.84713	34.96
0.86380	34.97
0.88047	34.98
0.89713	34.98
0.91380	34.98
0.93047	34.99
0.94713	34.99
0.96380	34.99
0.98047	34.99
0.99713	34.98
1.01380	34.98
1.03047	34.98
1.04713	34.99
1.06380	35.00
1.08047	35.00
1.09713	35.00
1.11380	35.01
1.13047	35.01
1.14713	35.01
1.16380	35.00
1.18047	34.99
1.19713	35.00
1.21380	35.00
1.23047	34.99
1.24713	34.98
1.26380	34.98
1.28047	34.98
1.29713	34.98
1.31380	34.98
1.33047	34.98
1.34713	34.98
1.36380	34.98
1.38047	34.99
1.39713	34.99
1.41380	34.99
1.43047	35.00
1.44713	35.01
1.46380	35.00
1.48047	35.01
1.49713	35.01
1.51380	35.01
1.53047	35.01
1.54713	35.01
1.56380	35.01
1.58047	35.02
1.59713	35.05
1.61380	35.14
1.63047	35.29
1.64713	35.49
1.66380	35.75
1.68047	36.10
1.69713	36.46
1.71380	36.81
1.73047	37.15
1.74713	37.46
1.76380	37.80
1.78047	38.15
1.79713	38.47
1.81380	38.78
1.83047	39.12
1.84713	39.45
1.86380	39.79
1.88047	40.12
1.89713	40.44
1.91380	40.77
1.93047	41.11
1.94713	41.42
1.96380	41.75
1.98047	42.09
1.99713	42.39
2.01380	42.72
2.03047	43.05
2.04713	43.39
2.06380	43.71
2.08047	44.04
2.09713	44.37
2.11380	44.69
2.13047	45.02
2.14713	45.34
2.16380	45.67
2.18047	45.99
2.19713	46.32
2.21380	46.66
2.23047	46.97
2.24713	47.31
2.26380	47.63
2.28047	47.96
2.29713	48.29
2.31380	48.59
2.33047	48.96
2.34713	49.28
2.36380	49.52
2.38047	49.62
2.39713	49.64
2.41380	49.64
2.43047	49.65
2.44713	49.67
2.46380	49.68
2.48047	49.69
2.49713	49.70
2.51380	49.71
2.53047	49.73
2.54713	49.74
2.56380	49.77
2.58047	49.78
2.59713	49.80
2.61380	49.82
2.63047	49.82
2.64713	49.84
2.66380	49.84
2.68047	49.86
2.69713	49.86
2.71380	49.85
2.73047	49.87
2.74713	49.88
2.76380	49.87
2.78047	49.87
2.79713	49.86
2.81380	49.87
2.83047	49.87
2.84713	49.88
2.86380	49.89
2.88047	49.91
2.89713	49.92
2.91380	49.93
2.93047	49.95
2.94713	49.96
2.96380	49.98
2.98047	50.01
2.99713	50.03
3.01380	50.05
3.03047	50.08
3.04713	50.10
3.06380	50.10
3.08047	50.10
3.09713	50.09
3.11380	50.08
3.13047	50.07
3.14713	50.06
3.16380	50.06
3.18047	50.06
3.19713	50.07
3.21380	50.07
3.23047	50.08
3.24713	50.07
3.26380	50.08
3.28047	50.08
3.29713	50.07
3.31380	50.08
3.33047	50.08
3.34713	50.08
3.36380	50.08
3.38047	50.09
3.39713	50.10
3.41380	50.10
3.43047	50.10
3.44713	50.10
3.46380	50.11
3.48047	50.11
3.49713	50.08
3.51380	50.07
3.53047	50.06
3.54713	50.05
3.56380	50.04
3.58047	50.04
3.59713	50.03
3.61380	50.02
3.63047	50.01
3.64713	50.01
3.66380	50.01
3.68047	50.01
3.69713	50.01
3.71380	50.02
3.73047	50.02
3.74713	50.02
3.76380	50.03
3.78047	50.03
3.79713	50.02
3.81380	50.03
3.83047	50.03
3.84713	50.03
3.86380	50.03
3.88047	50.04
3.89713	50.05
3.91380	50.05
3.93047	50.05
3.94713	50.05
3.96380	50.05
3.98047	50.07
3.99713	50.07

[Status Trace (Injection Unit Temperature)]
Interval(msec)	1000
# of Points	240
Start Time(min)	0.014
End Time(min)	3.997
Intensity Units	
Intensity Multiplier	1
R.Time (min)	Intensity
0.01380	99.99
0.03047	99.99
0.04713	99.98
0.06380	99.99
0.08047	99.99
0.09713	99.99
0.11380	99.99
0.13047	99.99
0.14713	99.99
0.16380	99.99
0.18047	99.99
0.19713	99.99
0.21380	99.99
0.23047	99.99
0.24713	99.99
0.26380	99.99
0.28047	99.99
0.29713	99.99
0.31380	99.99
0.33047	99.99
0.34713	99.99
0.36380	99.99
0.38047	99.99
0.39713	99.99
0.41380	99.99
0.43047	100.00
0.44713	99.99
0.46380	100.00
0.48047	99.99
0.49713	100.00
0.51380	99.99
0.53047	99.99
0.54713	99.99
0.56380	100.00
0.58047	99.99
0.59713	99.99
0.61380	100.00
0.63047	99.99
0.64713	99.99
0.66380	99.99
0.68047	99.99
0.69713	99.99
0.71380	99.99
0.73047	99.99
0.74713	99.99
0.76380	99.99
0.78047	99.99
0.79713	99.99
0.81380	99.99
0.83047	99.99
0.84713	99.99
0.86380	99.99
0.88047	99.99
0.89713	99.99
0.91380	99.99
0.93047	99.98
0.94713	99.98
0.96380	99.99
0.98047	99.99
0.99713	99.99
1.01380	99.99
1.03047	99.99
1.04713	99.99
1.06380	99.99
1.08047	99.99
1.09713	99.99
1.11380	99.99
1.13047	99.99
1.14713	99.99
1.16380	99.99
1.18047	99.99
1.19713	99.99
1.21380	99.99
1.23047	99.99
1.24713	99.99
1.26380	99.99
1.28047	99.99
1.29713	99.99
1.31380	99.99
1.33047	99.99
1.34713	99.99
1.36380	99.99
1.38047	99.99
1.39713	99.99
1.41380	99.99
1.43047	99.99
1.44713	100.00
1.46380	99.99
1.48047	99.99
1.49713	99.99
1.51380	99.99
1.53047	99.99
1.54713	99.99
1.56380	99.99
1.58047	99.99
1.59713	99.98
1.61380	99.99
1.63047	99.99
1.64713	99.99
1.66380	99.99
1.68047	99.98
1.69713	99.99
1.71380	99.99
1.73047	99.99
1.74713	99.99
1.76380	99.99
1.78047	99.99
1.79713	99.99
1.81380	99.99
1.83047	99.99
1.84713	99.99
1.86380	99.99
1.88047	99.99
1.89713	99.99
1.91380	99.98
1.93047	99.99
1.94713	99.99
1.96380	99.99
1.98047	99.98
1.99713	99.99
2.01380	99.98
2.03047	99.98
2.04713	99.98
2.06380	99.98
2.08047	99.98
2.09713	99.98
2.11380	99.98
2.13047	99.98
2.14713	99.98
2.16380	99.98
2.18047	99.98
2.19713	99.98
2.21380	99.98
2.23047	99.98
2.24713	99.97
2.26380	99.98
2.28047	99.97
2.29713	99.97
2.31380	99.97
2.33047	99.98
2.34713	99.98
2.36380	99.97
2.38047	99.98
2.39713	99.98
2.41380	99.97
2.43047	99.98
2.44713	99.98
2.46380	99.98
2.48047	99.98
2.49713	99.98
2.51380	99.98
2.53047	99.99
2.54713	99.98
2.56380	99.99
2.58047	99.99
2.59713	99.98
2.61380	99.99
2.63047	99.99
2.64713	99.99
2.66380	99.99
2.68047	99.99
2.69713	99.99
2.71380	99.99
2.73047	100.00
2.74713	100.00
2.76380	100.01
2.78047	100.00
2.79713	100.00
2.81380	100.00
2.83047	100.01
2.84713	100.01
2.86380	100.01
2.88047	100.01
2.89713	100.01
2.91380	100.01
2.93047	100.02
2.94713	100.01
2.96380	100.02
2.98047	100.02
2.99713	100.02
3.01380	100.02
3.03047	100.02
3.04713	100.02
3.06380	100.03
3.08047	100.02
3.09713	100.02
3.11380	100.02
3.13047	100.03
3.14713	100.03
3.16380	100.03
3.18047	100.03
3.19713	100.03
3.21380	100.03
3.23047	100.03
3.24713	100.03
3.26380	100.03
3.28047	100.04
3.29713	100.03
3.31380	100.03
3.33047	100.04
3.34713	100.04
3.36380	100.04
3.38047	100.04
3.39713	100.04
3.41380	100.04
3.43047	100.04
3.44713	100.04
3.46380	100.04
3.48047	100.04
3.49713	100.05
3.51380	100.04
3.53047	100.04
3.54713	100.05
3.56380	100.05
3.58047	100.05
3.59713	100.05
3.61380	100.05
3.63047	100.05
3.64713	100.05
3.66380	100.05
3.68047	100.05
3.69713	100.05
3.71380	100.05
3.73047	100.05
3.74713	100.05
3.76380	100.05
3.78047	100.05
3.79713	100.05
3.81380	100.05
3.83047	100.05
3.84713	100.05
3.86380	100.06
3.88047	100.05
3.89713	100.05
3.91380	100.06
3.93047	100.06
3.94713	100.06
3.96380	100.05
3.98047	100.05
3.99713	100.06

[Status Trace (Carrier Gas Pressure)]
Interval(msec)	1000
# of Points	240
Start Time(min)	0.014
End Time(min)	3.997
Intensity Units	
Intensity Multiplier	1
R.Time (min)	Intensity
0.01380	57.83
0.03047	55.36
0.04713	57.92
0.06380	59.79
0.08047	58.76
0.09713	57.98
0.11380	57.99
0.13047	58.01
0.14713	58.01
0.16380	58.00
0.18047	58.00
0.19713	58.00
0.21380	58.00
0.23047	58.00
0.24713	58.00
0.26380	58.00
0.28047	58.00
0.29713	58.00
0.31380	58.00
0.33047	58.00
0.34713	58.00
0.36380	58.00
0.38047	58.00
0.39713	58.00
0.41380	58.00
0.43047	58.00
0.44713	58.00
0.46380	58.00
0.48047	58.00
0.49713	58.00
0.51380	58.00
0.53047	58.00
0.54713	58.00
0.56380	58.00
0.58047	58.00
0.59713	58.00
0.61380	58.00
0.63047	58.00
0.64713	58.00
0.66380	58.00
0.68047	58.00
0.69713	58.00
0.71380	58.00
0.73047	58.00
0.74713	58.00
0.76380	58.00
0.78047	58.00
0.79713	58.00
0.81380	58.00
0.83047	58.00
0.84713	58.00
0.86380	58.00
0.88047	58.00
0.89713	58.00
0.91380	58.00
0.93047	58.00
0.94713	58.00
0.96380	58.00
0.98047	58.00
0.99713	58.00
1.01380	58.00
1.03047	58.00
1.04713	58.00
1.06380	58.00
1.08047	58.00
1.09713	58.00
1.11380	58.00
1.13047	58.00
1.14713	58.00
1.16380	58.00
1.18047	58.00
1.19713	58.00
1.21380	58.00
1.23047	58.00
1.24713	58.00
1.26380	58.00
1.28047	58.00
1.29713	58.00
1.31380	58.00
1.33047	58.00
1.34713	58.00
1.36380	58.00
1.38047	58.00
1.39713	58.00
1.41380	58.00
1.43047	58.00
1.44713	58.00
1.46380	58.00
1.48047	58.00
1.49713	58.00
1.51380	58.00
1.53047	58.00
1.54713	58.00
1.56380	58.00
1.58047	58.00
1.59713	58.00
1.61380	58.00
1.63047	58.00
1.64713	58.00
1.66380	58.00
1.68047	58.01
1.69713	58.00
1.71380	58.00
1.73047	58.00
1.74713	58.00
1.76380	58.00
1.78047	58.00
1.79713	58.00
1.81380	58.00
1.83047	58.00
1.84713	58.00
1.86380	58.00
1.88047	58.00
1.89713	58.00
1.91380	58.00
1.93047	58.00
1.94713	58.00
1.96380	58.00
1.98047	58.00
1.99713	58.00
2.01380	58.00
2.03047	58.00
2.04713	58.00
2.06380	58.00
2.08047	58.00
2.09713	58.00
2.11380	58.00
2.13047	58.00
2.14713	58.00
2.16380	58.00
2.18047	58.00
2.19713	58.00
2.21380	58.00
2.23047	58.00
2.24713	58.00
2.26380	58.00
2.28047	58.00
2.29713	58.00
2.31380	58.00
2.33047	58.00
2.34713	58.00
2.36380	58.00
2.38047	57.99
2.39713	57.99
2.41380	58.00
2.43047	58.00
2.44713	58.00
2.46380	58.00
2.48047	58.00
2.49713	58.00
2.51380	57.99
2.53047	57.99
2.54713	58.00
2.56380	58.00
2.58047	58.00
2.59713	58.00
2.61380	58.00
2.63047	58.00
2.64713	58.00
2.66380	58.00
2.68047	58.00
2.69713	58.00
2.71380	58.00
2.73047	58.00
2.74713	58.00
2.76380	58.00
2.78047	58.00
2.79713	58.00
2.81380	58.00
2.83047	58.00
2.84713	58.00
2.86380	58.00
2.88047	58.00
2.89713	58.00
2.91380	58.00
2.93047	58.00
2.94713	58.00
2.96380	58.00
2.98047	58.00
2.99713	58.00
3.01380	58.00
3.03047	58.00
3.04713	58.00
3.06380	58.00
3.08047	58.00
3.09713	58.00
3.11380	58.00
3.13047	58.00
3.14713	58.00
3.16380	58.00
3.18047	58.00
3.19713	58.00
3.21380	58.00
3.23047	58.00
3.24713	58.00
3.26380	58.00
3.28047	58.00
3.29713	58.00
3.31380	58.00
3.33047	58.00
3.34713	58.00
3.36380	58.00
3.38047	58.00
3.39713	58.00
3.41380	58.00
3.43047	58.00
3.44713	58.00
3.46380	58.00
3.48047	58.00
3.49713	58.00
3.51380	58.00
3.53047	58.00
3.54713	58.00
3.56380	58.00
3.58047	58.00
3.59713	58.00
3.61380	58.00
3.63047	58.00
3.64713	58.00
3.66380	58.00
3.68047	58.00
3.69713	58.00
3.71380	58.00
3.73047	58.00
3.74713	58.00
3.76380	58.00
3.78047	58.00
3.79713	58.00
3.81380	58.00
3.83047	58.00
3.84713	58.00
3.86380	58.00
3.88047	58.00
3.89713	58.00
3.91380	58.00
3.93047	58.00
3.94713	58.00
3.96380	58.00
3.98047	58.00
3.99713	58.00

[Status Trace (Carrier Gas Flow)]
Interval(msec)	1000
# of Points	240
Start Time(min)	0.014
End Time(min)	3.997
Intensity Units	
Intensity Multiplier	1
R.Time (min)	Intensity
0.01380	34.57
0.03047	34.54
0.04713	34.55
0.06380	34.54
0.08047	34.51
0.09713	34.52
0.11380	34.52
0.13047	34.52
0.14713	34.51
0.16380	34.52
0.18047	34.52
0.19713	34.52
0.21380	34.53
0.23047	34.51
0.24713	34.50
0.26380	34.53
0.28047	34.52
0.29713	34.52
0.31380	34.51
0.33047	34.52
0.34713	34.52
0.36380	34.52
0.38047	34.52
0.39713	34.53
0.41380	34.52
0.43047	34.53
0.44713	34.52
0.46380	34.51
0.48047	34.52
0.49713	34.52
0.51380	34.52
0.53047	34.53
0.54713	34.52
0.56380	34.51
0.58047	34.52
0.59713	34.52
0.61380	34.52
0.63047	34.52
0.64713	34.51
0.66380	34.53
0.68047	34.52
0.69713	34.52
0.71380	34.51
0.73047	34.52
0.74713	34.51
0.76380	34.52
0.78047	34.51
0.79713	34.53
0.81380	34.52
0.83047	34.51
0.84713	34.51
0.86380	34.52
0.88047	34.52
0.89713	34.52
0.91380	34.52
0.93047	34.52
0.94713	34.52
0.96380	34.52
0.98047	34.52
0.99713	34.52
1.01380	34.52
1.03047	34.52
1.04713	34.52
1.06380	34.52
1.08047	34.52
1.09713	34.52
1.11380	34.52
1.13047	34.52
1.14713	34.52
1.16380	34.52
1.18047	34.52
1.19713	34.52
1.21380	34.52
1.23047	34.52
1.24713	34.52
1.26380	34.52
1.28047	34.52
1.29713	34.52
1.31380	34.52
1.33047	34.52
1.34713	34.52
1.36380	34.52
1.38047	34.52
1.39713	34.52
1.41380	34.52
1.43047	34.52
1.44713	34.52
1.46380	34.52
1.48047	34.52
1.49713	34.52
1.51380	34.52
1.53047	34.52
1.54713	34.52
1.56380	34.52
1.58047	34.52
1.59713	34.52
1.61380	34.52
1.63047	34.52
1.64713	34.51
1.66380	34.52
1.68047	34.52
1.69713	34.51
1.71380	34.52
1.73047	34.52
1.74713	34.53
1.76380	34.53
1.78047	34.51
1.79713	34.52
1.81380	34.52
1.83047	34.52
1.84713	34.52
1.86380	34.51
1.88047	34.52
1.89713	34.52
1.91380	34.52
1.93047	34.52
1.94713	34.52
1.96380	34.52
1.98047	34.53
1.99713	34.52
2.01380	34.52
2.03047	34.53
2.04713	34.51
2.06380	34.52
2.08047	34.53
2.09713	34.51
2.11380	34.52
2.13047	34.51
2.14713	34.51
2.16380	34.53
2.18047	34.52
2.19713	34.52
2.21380	34.52
2.23047	34.52
2.24713	34.52
2.26380	34.53
2.28047	34.52
2.29713	34.52
2.31380	34.52
2.33047	34.51
2.34713	34.52
2.36380	34.52
2.38047	34.52
2.39713	34.52
2.41380	34.52
2.43047	34.51
2.44713	34.52
2.46380	34.52
2.48047	34.52
2.49713	34.52
2.51380	34.52
2.53047	34.52
2.54713	34.52
2.56380	34.52
2.58047	34.52
2.59713	34.52
2.61380	34.52
2.63047	34.52
2.64713	34.52
2.66380	34.52
2.68047	34.52
2.69713	34.52
2.71380	34.52
2.73047	34.52
2.74713	34.52
2.76380	34.52
2.78047	34.52
2.79713	34.52
2.81380	34.52
2.83047	34.52
2.84713	34.52
2.86380	34.52
2.88047	34.52
2.89713	34.52
2.91380	34.52
2.93047	34.52
2.94713	34.52
2.96380	34.52
2.98047	34.52
2.99713	34.52
3.01380	34.52
3.03047	34.52
3.04713	34.52
3.06380	34.52
3.08047	34.52
3.09713	34.52
3.11380	34.52
3.13047	34.52
3.14713	34.52
3.16380	34.52
3.18047	34.52
3.19713	34.52
3.21380	34.52
3.23047	34.52
3.24713	34.52
3.26380	34.52
3.28047	34.52
3.29713	34.52
3.31380	34.52
3.33047	34.52
3.34713	34.52
3.36380	34.52
3.38047	34.53
3.39713	34.52
3.41380	34.52
3.43047	34.51
3.44713	34.52
3.46380	34.52
3.48047	34.53
3.49713	34.51
3.51380	34.53
3.53047	34.51
3.54713	34.52
3.56380	34.52
3.58047	34.52
3.59713	34.52
3.61380	34.51
3.63047	34.52
3.64713	34.52
3.66380	34.52
3.68047	34.52
3.69713	34.52
3.71380	34.52
3.73047	34.52
3.74713	34.52
3.76380	34.52
3.78047	34.52
3.79713	34.52
3.81380	34.52
3.83047	34.52
3.84713	34.52
3.86380	34.52
3.88047	34.52
3.89713	34.52
3.91380	34.52
3.93047	34.52
3.94713	34.52
3.96380	34.52
3.98047	34.52
3.99713	34.52

[Status Trace (Column Flow)]
Interval(msec)	1000
# of Points	240
Start Time(min)	0.014
End Time(min)	3.997
Intensity Units	
Intensity Multiplier	1
R.Time (min)	Intensity
0.01380	5.44
0.03047	5.16
0.04713	5.45
0.06380	5.67
0.08047	5.55
0.09713	5.45
0.11380	5.46
0.13047	5.46
0.14713	5.46
0.16380	5.46
0.18047	5.46
0.19713	5.46
0.21380	5.46
0.23047	5.46
0.24713	5.46
0.26380	5.46
0.28047	5.46
0.29713	5.46
0.31380	5.46
0.33047	5.46
0.34713	5.46
0.36380	5.46
0.38047	5.46
0.39713	5.46
0.41380	5.46
0.43047	5.46
0.44713	5.46
0.46380	5.46
0.48047	5.46
0.49713	5.46
0.51380	5.46
0.53047	5.46
0.54713	5.46
0.56380	5.46
0.58047	5.46
0.59713	5.46
0.61380	5.46
0.63047	5.46
0.64713	5.46
0.66380	5.46
0.68047	5.46
0.69713	5.46
0.71380	5.46
0.73047	5.46
0.74713	5.46
0.76380	5.46
0.78047	5.46
0.79713	5.46
0.81380	5.46
0.83047	5.46
0.84713	5.46
0.86380	5.46
0.88047	5.46
0.89713	5.46
0.91380	5.46
0.93047	5.46
0.94713	5.46
0.96380	5.46
0.98047	5.46
0.99713	5.46
1.01380	5.46
1.03047	5.46
1.04713	5.46
1.06380	5.46
1.08047	5.46
1.09713	5.46
1.11380	5.46
1.13047	5.46
1.14713	5.46
1.16380	5.46
1.18047	5.46
1.19713	5.46
1.21380	5.46
1.23047	5.46
1.24713	5.46
1.26380	5.46
1.28047	5.46
1.29713	5.46
1.31380	5.46
1.33047	5.46
1.34713	5.46
1.36380	5.46
1.38047	5.46
1.39713	5.46
1.41380	5.46
1.43047	5.46
1.44713	5.46
1.46380	5.46
1.48047	5.46
1.49713	5.46
1.51380	5.46
1.53047	5.46
1.54713	5.46
1.56380	5.46
1.58047	5.46
1.59713	5.46
1.61380	5.46
1.63047	5.45
1.64713	5.44
1.66380	5.44
1.68047	5.43
1.69713	5.41
1.71380	5.40
1.73047	5.39
1.74713	5.38
1.76380	5.37
1.78047	5.36
1.79713	5.35
1.81380	5.34
1.83047	5.33
1.84713	5.32
1.86380	5.31
1.88047	5.30
1.89713	5.29
1.91380	5.28
1.93047	5.27
1.94713	5.26
1.96380	5.26
1.98047	5.25
1.99713	5.24
2.01380	5.23
2.03047	5.22
2.04713	5.21
2.06380	5.20
2.08047	5.19
2.09713	5.18
2.11380	5.17
2.13047	5.16
2.14713	5.15
2.16380	5.14
2.18047	5.13
2.19713	5.12
2.21380	5.11
2.23047	5.11
2.24713	5.10
2.26380	5.09
2.28047	5.08
2.29713	5.07
2.31380	5.06
2.33047	5.05
2.34713	5.04
2.36380	5.03
2.38047	5.03
2.39713	5.03
2.41380	5.03
2.43047	5.03
2.44713	5.03
2.46380	5.03
2.48047	5.03
2.49713	5.03
2.51380	5.03
2.53047	5.03
2.54713	5.03
2.56380	5.03
2.58047	5.03
2.59713	5.03
2.61380	5.03
2.63047	5.03
2.64713	5.03
2.66380	5.03
2.68047	5.02
2.69713	5.02
2.71380	5.02
2.73047	5.02
2.74713	5.02
2.76380	5.02
2.78047	5.02
2.79713	5.02
2.81380	5.02
2.83047	5.02
2.84713	5.02
2.86380	5.02
2.88047	5.02
2.89713	5.02
2.91380	5.02
2.93047	5.02
2.94713	5.02
2.96380	5.02
2.98047	5.02
2.99713	5.02
3.01380	5.02
3.03047	5.02
3.04713	5.02
3.06380	5.02
3.08047	5.02
3.09713	5.02
3.11380	5.02
3.13047	5.02
3.14713	5.02
3.16380	5.02
3.18047	5.02
3.19713	5.02
3.21380	5.02
3.23047	5.02
3.24713	5.02
3.26380	5.02
3.28047	5.02
3.29713	5.02
3.31380	5.02
3.33047	5.02
3.34713	5.02
3.36380	5.02
3.38047	5.02
3.39713	5.02
3.41380	5.02
3.43047	5.02
3.44713	5.02
3.46380	5.02
3.48047	5.02
3.49713	5.02
3.51380	5.02
3.53047	5.02
3.54713	5.02
3.56380	5.02
3.58047	5.02
3.59713	5.02
3.61380	5.02
3.63047	5.02
3.64713	5.02
3.66380	5.02
3.68047	5.02
3.69713	5.02
3.71380	5.02
3.73047	5.02
3.74713	5.02
3.76380	5.02
3.78047	5.02
3.79713	5.02
3.81380	5.02
3.83047	5.02
3.84713	5.02
3.86380	5.02
3.88047	5.02
3.89713	5.02
3.91380	5.02
3.93047	5.02
3.94713	5.02
3.96380	5.02
3.98047	5.02
3.99713	5.02

[Status Trace (Linear Velocity)]
Interval(msec)	1000
# of Points	240
Start Time(min)	0.014
End Time(min)	3.997
Intensity Units	
Intensity Multiplier	1
R.Time (min)	Intensity
0.01380	38.89
0.03047	37.27
0.04713	38.94
0.06380	40.16
0.08047	39.49
0.09713	38.98
0.11380	38.99
0.13047	39.01
0.14713	39.00
0.16380	39.00
0.18047	39.00
0.19713	39.00
0.21380	39.00
0.23047	39.00
0.24713	39.00
0.26380	39.00
0.28047	39.00
0.29713	39.00
0.31380	39.00
0.33047	39.00
0.34713	39.00
0.36380	39.00
0.38047	39.00
0.39713	39.01
0.41380	39.01
0.43047	39.01
0.44713	39.00
0.46380	39.00
0.48047	39.01
0.49713	39.01
0.51380	39.01
0.53047	39.01
0.54713	39.01
0.56380	39.00
0.58047	39.00
0.59713	39.00
0.61380	39.00
0.63047	39.00
0.64713	39.00
0.66380	39.00
0.68047	39.00
0.69713	39.00
0.71380	39.00
0.73047	39.00
0.74713	39.00
0.76380	39.00
0.78047	39.01
0.79713	39.01
0.81380	39.01
0.83047	39.00
0.84713	39.01
0.86380	39.01
0.88047	39.00
0.89713	39.00
0.91380	39.00
0.93047	39.00
0.94713	39.00
0.96380	39.00
0.98047	39.00
0.99713	39.00
1.01380	39.00
1.03047	39.00
1.04713	39.00
1.06380	39.00
1.08047	39.00
1.09713	39.00
1.11380	39.00
1.13047	39.00
1.14713	39.00
1.16380	39.00
1.18047	39.00
1.19713	39.00
1.21380	39.00
1.23047	39.00
1.24713	39.00
1.26380	39.00
1.28047	39.00
1.29713	39.00
1.31380	39.00
1.33047	39.00
1.34713	39.00
1.36380	39.00
1.38047	39.00
1.39713	39.00
1.41380	39.00
1.43047	39.00
1.44713	39.00
1.46380	39.00
1.48047	39.00
1.49713	39.00
1.51380	39.00
1.53047	39.00
1.54713	39.00
1.56380	39.00
1.58047	39.00
1.59713	39.00
1.61380	38.99
1.63047	38.98
1.64713	38.96
1.66380	38.94
1.68047	38.90
1.69713	38.86
1.71380	38.83
1.73047	38.80
1.74713	38.77
1.76380	38.74
1.78047	38.71
1.79713	38.67
1.81380	38.64
1.83047	38.61
1.84713	38.58
1.86380	38.55
1.88047	38.52
1.89713	38.48
1.91380	38.46
1.93047	38.43
1.94713	38.39
1.96380	38.37
1.98047	38.34
1.99713	38.30
2.01380	38.28
2.03047	38.25
2.04713	38.21
2.06380	38.19
2.08047	38.16
2.09713	38.12
2.11380	38.10
2.13047	38.07
2.14713	38.04
2.16380	38.01
2.18047	37.98
2.19713	37.95
2.21380	37.92
2.23047	37.89
2.24713	37.86
2.26380	37.83
2.28047	37.80
2.29713	37.77
2.31380	37.75
2.33047	37.71
2.34713	37.68
2.36380	37.66
2.38047	37.65
2.39713	37.64
2.41380	37.65
2.43047	37.65
2.44713	37.65
2.46380	37.65
2.48047	37.64
2.49713	37.64
2.51380	37.64
2.53047	37.63
2.54713	37.64
2.56380	37.64
2.58047	37.64
2.59713	37.64
2.61380	37.63
2.63047	37.63
2.64713	37.63
2.66380	37.63
2.68047	37.63
2.69713	37.63
2.71380	37.63
2.73047	37.63
2.74713	37.63
2.76380	37.63
2.78047	37.63
2.79713	37.63
2.81380	37.63
2.83047	37.63
2.84713	37.63
2.86380	37.63
2.88047	37.63
2.89713	37.63
2.91380	37.62
2.93047	37.62
2.94713	37.62
2.96380	37.62
2.98047	37.62
2.99713	37.62
3.01380	37.61
3.03047	37.61
3.04713	37.61
3.06380	37.61
3.08047	37.61
3.09713	37.61
3.11380	37.61
3.13047	37.61
3.14713	37.61
3.16380	37.61
3.18047	37.61
3.19713	37.61
3.21380	37.61
3.23047	37.61
3.24713	37.61
3.26380	37.61
3.28047	37.61
3.29713	37.61
3.31380	37.61
3.33047	37.61
3.34713	37.61
3.36380	37.61
3.38047	37.61
3.39713	37.61
3.41380	37.61
3.43047	37.61
3.44713	37.61
3.46380	37.61
3.48047	37.61
3.49713	37.61
3.51380	37.61
3.53047	37.61
3.54713	37.61
3.56380	37.61
3.58047	37.62
3.59713	37.62
3.61380	37.62
3.63047	37.62
3.64713	37.62
3.66380	37.62
3.68047	37.62
3.69713	37.62
3.71380	37.62
3.73047	37.62
3.74713	37.62
3.76380	37.62
3.78047	37.62
3.79713	37.62
3.81380	37.62
3.83047	37.62
3.84713	37.62
3.86380	37.62
3.88047	37.61
3.89713	37.61
3.91380	37.61
3.93047	37.61
3.94713	37.61
3.96380	37.61
3.98047	37.61
3.99713	37.61

