[Header]
Application Name	LabSolutions
Version	5.110
Data File Name	C:\Users\User\Desktop\GC Analyses\Jack\UIC Prairie Sampling\8.12.22\220812_098.gcd
Output Date	10/14/2022
Output Time	2:33:56 PM

[File Information]
Type	Data File
Generated	10/13/2022 3:50:12 PM
Generated by	System Administrator
Modified	10/13/2022 3:54:41 PM
Modified by	System Administrator

[Sample Information]
Operator Name	System Administrator
Acquired	10/13/2022 3:50:41 PM
Sample Type	1:Standard
Level	1
Sample Name	220812_UICPrairie
Sample ID	220812_UICPrairie
ISTD Amount1	1
ISTD Amount2	1
ISTD Amount3	1
ISTD Amount4	1
ISTD Amount5	1
ISTD Amount6	1
ISTD Amount7	1
ISTD Amount8	1
ISTD Amount9	1
ISTD Amount10	1
ISTD Amount11	1
ISTD Amount12	1
ISTD Amount13	1
ISTD Amount14	1
ISTD Amount15	1
ISTD Amount16	1
ISTD Amount17	1
ISTD Amount18	1
ISTD Amount19	1
ISTD Amount20	1
ISTD Amount21	1
ISTD Amount22	1
ISTD Amount23	1
ISTD Amount24	1
ISTD Amount25	1
ISTD Amount26	1
ISTD Amount27	1
ISTD Amount28	1
ISTD Amount29	1
ISTD Amount30	1
ISTD Amount31	1
ISTD Amount32	1
Sample Amount	1
Dilution Factor	1
Vial#	1
Injection Volume	1
Injection Count	1
Bar Code	

[Original Files]
Data File	C:\Users\User\Desktop\GC Analyses\Jack\UIC Prairie Sampling\8.12.22\220812_098.gcd
Method File	C:\LabSolutions\Data\GHG_4min_2022\ghg3_togas_w_acet_4 min_new_int.gcm
Batch File	
Report Format File	c:\LabSolutions\System\DEFAULT.lsr

[File Description]


[Configuration]
Instrument Name	C0B7VH3-Instrument1
Instrument #	1
Line #	1
# of Detectors	3
Detector ID	DET#1	DET#2	DET#3
Detector Name	FID	PTCD	ECD
# of Channels	1	1	1

[Peak Table(Ch1)]
# of Peaks	3
Peak#	R.Time	I.Time	F.Time	Area	Height	A/H	Conc.	Mark	ID#	Name	k'	Plate #	Plate Ht.	Tailing	Resolution	Sep.Factor	Area Ratio	Height Ratio	Conc. %	Norm Conc.
1	1.479	1.439	1.538	12265	5448	2.251	100.000	   	1	CO	0.000	8220	18.248	1.189	0.000	0.000	0	0	16.667	16.667
2	1.571	1.538	1.630	4539	2244	2.023	100.000	 V 	2	CH4	0.062	11080	13.538	1.234	1.467	0.000	0	0	16.667	16.667
3	2.000	1.952	2.323	1879365	922205	2.038	400.000	   	3	CO2	0.352	17867	8.395	1.271	7.177	5.680	0	0	66.667	66.667

[Peak Table(Ch2)]
# of Peaks	0

[Peak Table(Ch3)]
# of Peaks	3
Peak#	R.Time	I.Time	F.Time	Area	Height	A/H	Conc.	Mark	ID#	Name	k'	Plate #	Plate Ht.	Tailing	Resolution	Sep.Factor	Area Ratio	Height Ratio	Conc. %	Norm Conc.
1	2.458	1.241	2.656	24092	622	38.722	0.000	   			0.000	94	1594.599	0.585	0.000	0.000	0	0	0.000	0.000
2	2.763	2.660	2.829	8367	1023	8.175	0.209	   	1	N2O	0.124	229	654.785	0.000	0.349	0.000	0	0	20.900	20.900
3	2.887	2.829	3.261	31665	6015	5.265	0.791	 V 	1	N2O	0.175	10521	14.258	0.000	0.296	1.410	0	0	79.100	79.100

[Compound Results(Ch1)]
# of IDs	6
ID#	Name	R.Time	Area	Height	Conc.	Curve	3rd	2nd	1st	Constant	Area Ratio	Height Ratio	Conc. %	Norm Conc.
1	CO	1.479	12265	5448	100.000	Linear	0.000000e+00	0.000000e+00	1.226480e+002	0.000000e+00	0	0	16.667	16.667
2	CH4	1.571	4539	2244	100.000	Linear	0.000000e+00	0.000000e+00	4.538930e+001	0.000000e+00	0	0	16.667	16.667
3	CO2	2.000	1879365	922205	400.000	Linear	0.000000e+00	0.000000e+00	4.698412e+003	0.000000e+00	0	0	66.667	66.667
4	Ethylene	0.000	0	0	0.000	Linear	0.000000e+00	0.000000e+00	0.000000e+00	0.000000e+00	0	0	0.000	0.000
5	Acetylene	0.000	0	0	0.000	Linear	0.000000e+00	0.000000e+00	0.000000e+00	0.000000e+00	0	0	0.000	0.000
6	Ethane	0.000	0	0	0.000	Linear	0.000000e+00	0.000000e+00	0.000000e+00	0.000000e+00	0	0	0.000	0.000

[Compound Results(Ch2)]
# of IDs	5
ID#	Name	R.Time	Area	Height	Conc.	Curve	3rd	2nd	1st	Constant	Area Ratio	Height Ratio	Conc. %	Norm Conc.
1	Hydrogen	0.000	0	0	0.000	Linear	0.000000e+00	0.000000e+00	0.000000e+00	0.000000e+00	0	0	0.000	0.000
2	Oxygen	0.000	0	0	0.000	Linear	0.000000e+00	0.000000e+00	0.000000e+00	0.000000e+00	0	0	0.000	0.000
3	Nitrogen	0.000	0	0	0.000	Linear	0.000000e+00	0.000000e+00	0.000000e+00	0.000000e+00	0	0	0.000	0.000
4	Methane	0.000	0	0	0.000	Linear	0.000000e+00	0.000000e+00	0.000000e+00	0.000000e+00	0	0	0.000	0.000
5	Carbon Monoxide	0.000	0	0	0.000	Linear	0.000000e+00	0.000000e+00	0.000000e+00	0.000000e+00	0	0	0.000	0.000

[Compound Results(Ch3)]
# of IDs	2
ID#	Name	R.Time	Area	Height	Conc.	Curve	3rd	2nd	1st	Constant	Area Ratio	Height Ratio	Conc. %	Norm Conc.
1	N2O	2.887	40032	7038	1.000	Linear	0.000000e+00	0.000000e+00	4.003225e+004	0.000000e+00	0	0	100.000	100.000
2	SF6	0.000	0	0	0.000	Linear	0.000000e+00	0.000000e+00	0.000000e+00	0.000000e+00	0	0	0.000	0.000

[Group Results(Ch1)]
# of Groups	0

[Group Results(Ch2)]
# of Groups	0

[Group Results(Ch3)]
# of Groups	0

[Chromatogram (Ch1)]
Interval(msec)	220
# of Points	1091
Start Time(min)	0.002
End Time(min)	3.998
R.Time (min)	Intensity
0.00167	17
0.00533	14
0.00900	9
0.01267	5
0.01633	5
0.02000	2
0.02367	-4
0.02733	-8
0.03100	-9
0.03467	-8
0.03833	-6
0.04200	-6
0.04567	-7
0.04933	-6
0.05300	-1
0.05667	9
0.06033	19
0.06400	25
0.06767	24
0.07133	15
0.07500	5
0.07867	-1
0.08233	-4
0.08600	-5
0.08967	-5
0.09333	-5
0.09700	-6
0.10067	-9
0.10433	-14
0.10800	-18
0.11167	-15
0.11533	-8
0.11900	-2
0.12267	2
0.12633	1
0.13000	-6
0.13367	-14
0.13733	-19
0.14100	-25
0.14467	-36
0.14833	-27
0.15200	-10
0.15567	-1
0.15933	2
0.16300	2
0.16667	0
0.17033	1
0.17400	3
0.17767	3
0.18133	1
0.18500	-2
0.18867	-1
0.19233	2
0.19600	2
0.19967	0
0.20333	-2
0.20700	-5
0.21067	-9
0.21433	-16
0.21800	-20
0.22167	-19
0.22533	-15
0.22900	-12
0.23267	-10
0.23633	-8
0.24000	-8
0.24367	-4
0.24733	0
0.25100	-1
0.25467	-6
0.25833	-10
0.26200	-13
0.26567	-18
0.26933	-27
0.27300	-37
0.27667	-42
0.28033	-41
0.28400	-33
0.28767	-21
0.29133	-10
0.29500	-3
0.29867	0
0.30233	4
0.30600	3
0.30967	-4
0.31333	-10
0.31700	-15
0.32067	-20
0.32433	-23
0.32800	-26
0.33167	-28
0.33533	-28
0.33900	-28
0.34267	-27
0.34633	-22
0.35000	-18
0.35367	-12
0.35733	-7
0.36100	-2
0.36467	1
0.36833	3
0.37200	-1
0.37567	-11
0.37933	-20
0.38300	-25
0.38667	-25
0.39033	-24
0.39400	-28
0.39767	-36
0.40133	-46
0.40500	-56
0.40867	-61
0.41233	-59
0.41600	-53
0.41967	-47
0.42333	-43
0.42700	-41
0.43067	-40
0.43433	-41
0.43800	-41
0.44167	-39
0.44533	-40
0.44900	-41
0.45267	-43
0.45633	-45
0.46000	-47
0.46367	-46
0.46733	-39
0.47100	-32
0.47467	-30
0.47833	-29
0.48200	-28
0.48567	-28
0.48933	-31
0.49300	-36
0.49667	-44
0.50033	-49
0.50400	-51
0.50767	-54
0.51133	-60
0.51500	-63
0.51867	-62
0.52233	-57
0.52600	-53
0.52967	-50
0.53333	-45
0.53700	-39
0.54067	-31
0.54433	-21
0.54800	-17
0.55167	-19
0.55533	-25
0.55900	-33
0.56267	-40
0.56633	-46
0.57000	-48
0.57367	-48
0.57733	-45
0.58100	-43
0.58467	-41
0.58833	-38
0.59200	-36
0.59567	-36
0.59933	-37
0.60300	-41
0.60667	-47
0.61033	-54
0.61400	-59
0.61767	-63
0.62133	-64
0.62500	-66
0.62867	-63
0.63233	-57
0.63600	-52
0.63967	-49
0.64333	-50
0.64700	-54
0.65067	-59
0.65433	-62
0.65800	-59
0.66167	-54
0.66533	-51
0.66900	-47
0.67267	-47
0.67633	-49
0.68000	-50
0.68367	-49
0.68733	-48
0.69100	-48
0.69467	-45
0.69833	-44
0.70200	-44
0.70567	-45
0.70933	-49
0.71300	-55
0.71667	-58
0.72033	-56
0.72400	-54
0.72767	-52
0.73133	-54
0.73500	-58
0.73867	-64
0.74233	-70
0.74600	-75
0.74967	-77
0.75333	-73
0.75700	-68
0.76067	-62
0.76433	-56
0.76800	-54
0.77167	-57
0.77533	-68
0.77900	-79
0.78267	-84
0.78633	-84
0.79000	-79
0.79367	-73
0.79733	-68
0.80100	-63
0.80467	-61
0.80833	-59
0.81200	-55
0.81567	-53
0.81933	-50
0.82300	-47
0.82667	-47
0.83033	-46
0.83400	-48
0.83767	-53
0.84133	-61
0.84500	-67
0.84867	-68
0.85233	-68
0.85600	-67
0.85967	-66
0.86333	-66
0.86700	-62
0.87067	-60
0.87433	-60
0.87800	-60
0.88167	-61
0.88533	-66
0.88900	-69
0.89267	-64
0.89633	-54
0.90000	-42
0.90367	-36
0.90733	-39
0.91100	-49
0.91467	-56
0.91833	-56
0.92200	-58
0.92567	-65
0.92933	-78
0.93300	-92
0.93667	-102
0.94033	-108
0.94400	-109
0.94767	-106
0.95133	-106
0.95500	-107
0.95867	-102
0.96233	-93
0.96600	-83
0.96967	-75
0.97333	-72
0.97700	-71
0.98067	-70
0.98433	-67
0.98800	-67
0.99167	-68
0.99533	-68
0.99900	-69
1.00267	-70
1.00633	-69
1.01000	-72
1.01367	-76
1.01733	-80
1.02100	-84
1.02467	-86
1.02833	-86
1.03200	-79
1.03567	-70
1.03933	-60
1.04300	-53
1.04667	-50
1.05033	-50
1.05400	-51
1.05767	-56
1.06133	-64
1.06500	-71
1.06867	-78
1.07233	-84
1.07600	-88
1.07967	-89
1.08333	-89
1.08700	-87
1.09067	-86
1.09433	-84
1.09800	-82
1.10167	-79
1.10533	-75
1.10900	-75
1.11267	-78
1.11633	-80
1.12000	-80
1.12367	-79
1.12733	-77
1.13100	-75
1.13467	-73
1.13833	-70
1.14200	-66
1.14567	-60
1.14933	-58
1.15300	-59
1.15667	-63
1.16033	-69
1.16400	-72
1.16767	-72
1.17133	-70
1.17500	-68
1.17867	-69
1.18233	-73
1.18600	-78
1.18967	-82
1.19333	-82
1.19700	-82
1.20067	-82
1.20433	-79
1.20800	-79
1.21167	-79
1.21533	-76
1.21900	-73
1.22267	-71
1.22633	-70
1.23000	-68
1.23367	-66
1.23733	-65
1.24100	-67
1.24467	-71
1.24833	-77
1.25200	-79
1.25567	-78
1.25933	-78
1.26300	-80
1.26667	-84
1.27033	-88
1.27400	-92
1.27767	-96
1.28133	-98
1.28500	-96
1.28867	-91
1.29233	-86
1.29600	-83
1.29967	-85
1.30333	-88
1.30700	-89
1.31067	-90
1.31433	-89
1.31800	-87
1.32167	-85
1.32533	-84
1.32900	-82
1.33267	-81
1.33633	-83
1.34000	-88
1.34367	-92
1.34733	-98
1.35100	-105
1.35467	-108
1.35833	-109
1.36200	-107
1.36567	-104
1.36933	-100
1.37300	-98
1.37667	-98
1.38033	-100
1.38400	-102
1.38767	-98
1.39133	-90
1.39500	-83
1.39867	-82
1.40233	-86
1.40600	-92
1.40967	-97
1.41333	-101
1.41700	-103
1.42067	-106
1.42433	-111
1.42800	-115
1.43167	-115
1.43533	-115
1.43900	-111
1.44267	-76
1.44633	67
1.45000	376
1.45367	872
1.45733	1602
1.46100	2527
1.46467	3478
1.46833	4299
1.47200	4904
1.47567	5261
1.47933	5332
1.48300	5089
1.48667	4551
1.49033	3817
1.49400	3026
1.49767	2294
1.50133	1687
1.50500	1213
1.50867	856
1.51233	591
1.51600	397
1.51967	254
1.52333	152
1.52700	79
1.53067	28
1.53433	-7
1.53800	-27
1.54167	-23
1.54533	42
1.54900	226
1.55267	557
1.55633	978
1.56000	1401
1.56367	1755
1.56733	2002
1.57100	2119
1.57467	2077
1.57833	1870
1.58200	1540
1.58567	1173
1.58933	836
1.59300	565
1.59667	364
1.60033	222
1.60400	123
1.60767	53
1.61133	1
1.61500	-41
1.61867	-76
1.62233	-104
1.62600	-122
1.62967	-132
1.63333	-135
1.63700	-136
1.64067	-136
1.64433	-136
1.64800	-136
1.65167	-135
1.65533	-133
1.65900	-133
1.66267	-134
1.66633	-134
1.67000	-132
1.67367	-126
1.67733	-119
1.68100	-114
1.68467	-113
1.68833	-114
1.69200	-118
1.69567	-120
1.69933	-123
1.70300	-126
1.70667	-127
1.71033	-127
1.71400	-128
1.71767	-130
1.72133	-130
1.72500	-125
1.72867	-119
1.73233	-117
1.73600	-114
1.73967	-112
1.74333	-111
1.74700	-109
1.75067	-110
1.75433	-113
1.75800	-114
1.76167	-114
1.76533	-116
1.76900	-121
1.77267	-122
1.77633	-124
1.78000	-126
1.78367	-127
1.78733	-130
1.79100	-131
1.79467	-130
1.79833	-129
1.80200	-129
1.80567	-128
1.80933	-126
1.81300	-125
1.81667	-126
1.82033	-129
1.82400	-131
1.82767	-131
1.83133	-129
1.83500	-124
1.83867	-117
1.84233	-112
1.84600	-108
1.84967	-104
1.85333	-103
1.85700	-102
1.86067	-101
1.86433	-101
1.86800	-105
1.87167	-111
1.87533	-119
1.87900	-124
1.88267	-123
1.88633	-123
1.89000	-124
1.89367	-123
1.89733	-121
1.90100	-117
1.90467	-111
1.90833	-108
1.91200	-110
1.91567	-115
1.91933	-120
1.92300	-119
1.92667	-115
1.93033	-110
1.93400	-109
1.93767	-110
1.94133	-113
1.94500	-117
1.94867	-119
1.95233	-114
1.95600	-91
1.95967	45
1.96333	842
1.96700	4591
1.97067	17959
1.97433	54389
1.97800	131348
1.98167	258377
1.98533	425020
1.98900	603341
1.99267	761328
1.99633	872980
2.00000	922121
2.00367	903493
2.00733	824257
2.01100	702933
2.01467	563647
2.01833	428587
2.02200	312261
2.02567	220399
2.02933	152283
2.03300	103973
2.03667	70739
2.04033	48321
2.04400	33364
2.04767	23420
2.05133	16796
2.05500	12347
2.05867	9324
2.06233	7236
2.06600	5765
2.06967	4704
2.07333	3920
2.07700	3326
2.08067	2865
2.08433	2499
2.08800	2204
2.09167	1966
2.09533	1771
2.09900	1606
2.10267	1465
2.10633	1343
2.11000	1240
2.11367	1151
2.11733	1073
2.12100	1005
2.12467	945
2.12833	889
2.13200	835
2.13567	786
2.13933	742
2.14300	705
2.14667	671
2.15033	636
2.15400	601
2.15767	564
2.16133	531
2.16500	504
2.16867	481
2.17233	461
2.17600	445
2.17967	427
2.18333	407
2.18700	388
2.19067	371
2.19433	356
2.19800	346
2.20167	344
2.20533	344
2.20900	342
2.21267	337
2.21633	328
2.22000	315
2.22367	302
2.22733	288
2.23100	276
2.23467	264
2.23833	251
2.24200	236
2.24567	223
2.24933	214
2.25300	207
2.25667	201
2.26033	196
2.26400	191
2.26767	186
2.27133	183
2.27500	182
2.27867	178
2.28233	172
2.28600	166
2.28967	158
2.29333	151
2.29700	146
2.30067	144
2.30433	142
2.30800	141
2.31167	137
2.31533	132
2.31900	126
2.32267	119
2.32633	115
2.33000	111
2.33367	112
2.33733	117
2.34100	120
2.34467	120
2.34833	117
2.35200	116
2.35567	117
2.35933	119
2.36300	120
2.36667	117
2.37033	113
2.37400	111
2.37767	113
2.38133	111
2.38500	108
2.38867	105
2.39233	104
2.39600	106
2.39967	103
2.40333	94
2.40700	84
2.41067	78
2.41433	79
2.41800	82
2.42167	86
2.42533	89
2.42900	90
2.43267	87
2.43633	82
2.44000	78
2.44367	77
2.44733	80
2.45100	83
2.45467	84
2.45833	83
2.46200	78
2.46567	75
2.46933	71
2.47300	66
2.47667	63
2.48033	62
2.48400	63
2.48767	64
2.49133	64
2.49500	63
2.49867	59
2.50233	52
2.50600	47
2.50967	48
2.51333	51
2.51700	54
2.52067	56
2.52433	56
2.52800	55
2.53167	54
2.53533	53
2.53900	53
2.54267	54
2.54633	56
2.55000	55
2.55367	54
2.55733	53
2.56100	47
2.56467	42
2.56833	40
2.57200	38
2.57567	35
2.57933	30
2.58300	27
2.58667	25
2.59033	21
2.59400	16
2.59767	11
2.60133	11
2.60500	16
2.60867	22
2.61233	26
2.61600	30
2.61967	34
2.62333	38
2.62700	39
2.63067	36
2.63433	29
2.63800	21
2.64167	14
2.64533	10
2.64900	9
2.65267	4
2.65633	-1
2.66000	-2
2.66367	2
2.66733	8
2.67100	11
2.67467	12
2.67833	10
2.68200	5
2.68567	-0
2.68933	-3
2.69300	-1
2.69667	5
2.70033	11
2.70400	18
2.70767	22
2.71133	24
2.71500	24
2.71867	18
2.72233	10
2.72600	3
2.72967	-1
2.73333	-0
2.73700	3
2.74067	4
2.74433	4
2.74800	4
2.75167	4
2.75533	4
2.75900	4
2.76267	3
2.76633	2
2.77000	0
2.77367	-3
2.77733	-5
2.78100	-5
2.78467	-4
2.78833	-2
2.79200	2
2.79567	7
2.79933	9
2.80300	9
2.80667	10
2.81033	13
2.81400	17
2.81767	19
2.82133	14
2.82500	7
2.82867	-0
2.83233	-8
2.83600	-14
2.83967	-17
2.84333	-18
2.84700	-18
2.85067	-17
2.85433	-15
2.85800	-8
2.86167	1
2.86533	10
2.86900	16
2.87267	17
2.87633	14
2.88000	7
2.88367	-2
2.88733	-8
2.89100	-12
2.89467	-12
2.89833	-9
2.90200	-6
2.90567	-4
2.90933	-2
2.91300	1
2.91667	2
2.92033	1
2.92400	1
2.92767	2
2.93133	4
2.93500	6
2.93867	5
2.94233	1
2.94600	-2
2.94967	-3
2.95333	-0
2.95700	3
2.96067	5
2.96433	4
2.96800	2
2.97167	0
2.97533	-1
2.97900	1
2.98267	5
2.98633	7
2.99000	5
2.99367	2
2.99733	0
3.00100	-0
3.00467	6
3.00833	18
3.01200	31
3.01567	39
3.01933	38
3.02300	32
3.02667	24
3.03033	13
3.03400	3
3.03767	-5
3.04133	-9
3.04500	-7
3.04867	-2
3.05233	-2
3.05600	-9
3.05967	-19
3.06333	-28
3.06700	-34
3.07067	-37
3.07433	-35
3.07800	-30
3.08167	-25
3.08533	-20
3.08900	-15
3.09267	-14
3.09633	-14
3.10000	-12
3.10367	-10
3.10733	-11
3.11100	-12
3.11467	-11
3.11833	-9
3.12200	-6
3.12567	-2
3.12933	0
3.13300	-2
3.13667	-7
3.14033	-13
3.14400	-18
3.14767	-20
3.15133	-19
3.15500	-18
3.15867	-17
3.16233	-15
3.16600	-12
3.16967	-10
3.17333	-7
3.17700	-4
3.18067	-4
3.18433	-7
3.18800	-12
3.19167	-16
3.19533	-20
3.19900	-21
3.20267	-17
3.20633	-12
3.21000	-10
3.21367	-11
3.21733	-12
3.22100	-13
3.22467	-13
3.22833	-12
3.23200	-10
3.23567	-11
3.23933	-13
3.24300	-14
3.24667	-15
3.25033	-17
3.25400	-20
3.25767	-23
3.26133	-24
3.26500	-24
3.26867	-24
3.27233	-26
3.27600	-27
3.27967	-26
3.28333	-24
3.28700	-22
3.29067	-16
3.29433	-5
3.29800	7
3.30167	13
3.30533	9
3.30900	-0
3.31267	-8
3.31633	-14
3.32000	-17
3.32367	-14
3.32733	-10
3.33100	-6
3.33467	-5
3.33833	-6
3.34200	-8
3.34567	-11
3.34933	-11
3.35300	-11
3.35667	-13
3.36033	-17
3.36400	-19
3.36767	-21
3.37133	-23
3.37500	-24
3.37867	-20
3.38233	-15
3.38600	-12
3.38967	-11
3.39333	-11
3.39700	-9
3.40067	-7
3.40433	-5
3.40800	-5
3.41167	-6
3.41533	-6
3.41900	-6
3.42267	-6
3.42633	-6
3.43000	-11
3.43367	-21
3.43733	-27
3.44100	-33
3.44467	-36
3.44833	-35
3.45200	-30
3.45567	-21
3.45933	-9
3.46300	2
3.46667	7
3.47033	8
3.47400	8
3.47767	7
3.48133	4
3.48500	-3
3.48867	-13
3.49233	-23
3.49600	-31
3.49967	-33
3.50333	-30
3.50700	-27
3.51067	-25
3.51433	-21
3.51800	-17
3.52167	-15
3.52533	-15
3.52900	-16
3.53267	-16
3.53633	-16
3.54000	-16
3.54367	-17
3.54733	-18
3.55100	-18
3.55467	-18
3.55833	-17
3.56200	-16
3.56567	-14
3.56933	-12
3.57300	-10
3.57667	-12
3.58033	-16
3.58400	-20
3.58767	-21
3.59133	-20
3.59500	-22
3.59867	-22
3.60233	-22
3.60600	-19
3.60967	-18
3.61333	-20
3.61700	-22
3.62067	-25
3.62433	-27
3.62800	-25
3.63167	-21
3.63533	-17
3.63900	-14
3.64267	-14
3.64633	-20
3.65000	-29
3.65367	-38
3.65733	-39
3.66100	-36
3.66467	-33
3.66833	-32
3.67200	-33
3.67567	-34
3.67933	-34
3.68300	-31
3.68667	-25
3.69033	-21
3.69400	-18
3.69767	-19
3.70133	-20
3.70500	-20
3.70867	-16
3.71233	-9
3.71600	-3
3.71967	-3
3.72333	-7
3.72700	-14
3.73067	-25
3.73433	-35
3.73800	-39
3.74167	-38
3.74533	-30
3.74900	-23
3.75267	-18
3.75633	-13
3.76000	-8
3.76367	-8
3.76733	-12
3.77100	-16
3.77467	-16
3.77833	-16
3.78200	-15
3.78567	-12
3.78933	-12
3.79300	-15
3.79667	-16
3.80033	-14
3.80400	-9
3.80767	-5
3.81133	-1
3.81500	3
3.81867	1
3.82233	-5
3.82600	-13
3.82967	-20
3.83333	-24
3.83700	-27
3.84067	-24
3.84433	-16
3.84800	-9
3.85167	-3
3.85533	-0
3.85900	2
3.86267	3
3.86633	3
3.87000	3
3.87367	5
3.87733	6
3.88100	7
3.88467	9
3.88833	11
3.89200	11
3.89567	6
3.89933	-3
3.90300	-7
3.90667	-5
3.91033	-3
3.91400	-4
3.91767	-7
3.92133	-10
3.92500	-11
3.92867	-12
3.93233	-14
3.93600	-12
3.93967	-9
3.94333	-4
3.94700	-3
3.95067	-6
3.95433	-9
3.95800	-8
3.96167	-5
3.96533	0
3.96900	2
3.97267	1
3.97633	3
3.98000	9
3.98367	13
3.98733	16
3.99100	18
3.99467	20
3.99833	17

[Chromatogram (Ch2)]
Interval(msec)	220
# of Points	1091
Start Time(min)	0.002
End Time(min)	3.998
R.Time (min)	Intensity
0.00167	1
0.00533	2
0.00900	2
0.01267	2
0.01633	2
0.02000	2
0.02367	2
0.02733	2
0.03100	3
0.03467	3
0.03833	3
0.04200	3
0.04567	3
0.04933	3
0.05300	3
0.05667	3
0.06033	4
0.06400	4
0.06767	3
0.07133	3
0.07500	3
0.07867	3
0.08233	3
0.08600	3
0.08967	3
0.09333	3
0.09700	4
0.10067	4
0.10433	4
0.10800	5
0.11167	5
0.11533	6
0.11900	6
0.12267	6
0.12633	6
0.13000	6
0.13367	6
0.13733	6
0.14100	6
0.14467	6
0.14833	6
0.15200	6
0.15567	6
0.15933	6
0.16300	6
0.16667	5
0.17033	5
0.17400	5
0.17767	4
0.18133	4
0.18500	3
0.18867	3
0.19233	3
0.19600	3
0.19967	2
0.20333	2
0.20700	2
0.21067	2
0.21433	2
0.21800	2
0.22167	3
0.22533	3
0.22900	3
0.23267	3
0.23633	3
0.24000	3
0.24367	3
0.24733	3
0.25100	3
0.25467	3
0.25833	3
0.26200	3
0.26567	3
0.26933	3
0.27300	3
0.27667	4
0.28033	4
0.28400	4
0.28767	4
0.29133	4
0.29500	4
0.29867	4
0.30233	4
0.30600	3
0.30967	3
0.31333	3
0.31700	3
0.32067	3
0.32433	3
0.32800	3
0.33167	4
0.33533	4
0.33900	3
0.34267	3
0.34633	3
0.35000	3
0.35367	2
0.35733	2
0.36100	1
0.36467	1
0.36833	1
0.37200	1
0.37567	0
0.37933	0
0.38300	-0
0.38667	-0
0.39033	-1
0.39400	-1
0.39767	-1
0.40133	-1
0.40500	-1
0.40867	-2
0.41233	-2
0.41600	-2
0.41967	-2
0.42333	-2
0.42700	-1
0.43067	-1
0.43433	-1
0.43800	-1
0.44167	-1
0.44533	-1
0.44900	-1
0.45267	-0
0.45633	-0
0.46000	-0
0.46367	-0
0.46733	-0
0.47100	-1
0.47467	-1
0.47833	-2
0.48200	-2
0.48567	-2
0.48933	-2
0.49300	-1
0.49667	-1
0.50033	-1
0.50400	-0
0.50767	0
0.51133	0
0.51500	1
0.51867	1
0.52233	1
0.52600	1
0.52967	2
0.53333	2
0.53700	2
0.54067	2
0.54433	2
0.54800	2
0.55167	2
0.55533	2
0.55900	2
0.56267	2
0.56633	2
0.57000	2
0.57367	3
0.57733	3
0.58100	3
0.58467	3
0.58833	3
0.59200	3
0.59567	3
0.59933	3
0.60300	2
0.60667	2
0.61033	2
0.61400	2
0.61767	2
0.62133	1
0.62500	1
0.62867	0
0.63233	-0
0.63600	-0
0.63967	-1
0.64333	-1
0.64700	-1
0.65067	-1
0.65433	-1
0.65800	-1
0.66167	-1
0.66533	-1
0.66900	-0
0.67267	-0
0.67633	-0
0.68000	-0
0.68367	-1
0.68733	-1
0.69100	-1
0.69467	-1
0.69833	-2
0.70200	-2
0.70567	-2
0.70933	-3
0.71300	-3
0.71667	-3
0.72033	-4
0.72400	-4
0.72767	-4
0.73133	-4
0.73500	-4
0.73867	-4
0.74233	-4
0.74600	-4
0.74967	-4
0.75333	-4
0.75700	-4
0.76067	-4
0.76433	-4
0.76800	-4
0.77167	-3
0.77533	-3
0.77900	-3
0.78267	-2
0.78633	-2
0.79000	-2
0.79367	-2
0.79733	-2
0.80100	-3
0.80467	-3
0.80833	-3
0.81200	-3
0.81567	-4
0.81933	-4
0.82300	-4
0.82667	-4
0.83033	-4
0.83400	-4
0.83767	-3
0.84133	-3
0.84500	-2
0.84867	-1
0.85233	0
0.85600	1
0.85967	2
0.86333	2
0.86700	3
0.87067	3
0.87433	3
0.87800	3
0.88167	3
0.88533	3
0.88900	3
0.89267	3
0.89633	2
0.90000	2
0.90367	2
0.90733	2
0.91100	2
0.91467	2
0.91833	2
0.92200	2
0.92567	2
0.92933	2
0.93300	1
0.93667	1
0.94033	1
0.94400	1
0.94767	0
0.95133	-0
0.95500	-0
0.95867	-1
0.96233	-1
0.96600	-1
0.96967	-2
0.97333	-2
0.97700	-2
0.98067	-2
0.98433	-2
0.98800	-2
0.99167	-2
0.99533	-2
0.99900	-1
1.00267	-1
1.00633	-2
1.01000	-2
1.01367	-1
1.01733	-1
1.02100	-1
1.02467	-1
1.02833	-1
1.03200	-1
1.03567	-1
1.03933	-1
1.04300	-0
1.04667	-0
1.05033	-0
1.05400	0
1.05767	0
1.06133	1
1.06500	1
1.06867	1
1.07233	1
1.07600	1
1.07967	1
1.08333	1
1.08700	1
1.09067	1
1.09433	1
1.09800	1
1.10167	1
1.10533	0
1.10900	0
1.11267	-0
1.11633	-1
1.12000	-1
1.12367	-1
1.12733	-2
1.13100	-2
1.13467	-2
1.13833	-2
1.14200	-2
1.14567	-2
1.14933	-2
1.15300	-2
1.15667	-3
1.16033	-3
1.16400	-3
1.16767	-3
1.17133	-3
1.17500	-2
1.17867	-2
1.18233	-2
1.18600	-2
1.18967	-2
1.19333	-2
1.19700	-2
1.20067	-2
1.20433	-2
1.20800	-2
1.21167	-2
1.21533	-1
1.21900	-1
1.22267	-0
1.22633	-0
1.23000	-0
1.23367	-0
1.23733	-0
1.24100	-1
1.24467	-1
1.24833	-1
1.25200	-1
1.25567	-1
1.25933	-1
1.26300	-1
1.26667	-0
1.27033	-0
1.27400	0
1.27767	1
1.28133	1
1.28500	1
1.28867	1
1.29233	1
1.29600	1
1.29967	1
1.30333	1
1.30700	1
1.31067	1
1.31433	1
1.31800	1
1.32167	1
1.32533	1
1.32900	0
1.33267	0
1.33633	0
1.34000	0
1.34367	0
1.34733	-0
1.35100	-0
1.35467	-1
1.35833	-1
1.36200	-1
1.36567	-1
1.36933	-1
1.37300	-1
1.37667	-2
1.38033	-2
1.38400	-2
1.38767	-3
1.39133	-3
1.39500	-4
1.39867	-4
1.40233	-4
1.40600	-4
1.40967	-4
1.41333	-4
1.41700	-4
1.42067	-3
1.42433	-3
1.42800	-3
1.43167	-3
1.43533	-2
1.43900	-2
1.44267	-2
1.44633	-2
1.45000	-2
1.45367	-2
1.45733	-2
1.46100	-2
1.46467	-3
1.46833	-3
1.47200	-3
1.47567	-3
1.47933	-4
1.48300	-4
1.48667	-4
1.49033	-4
1.49400	-4
1.49767	-4
1.50133	-4
1.50500	-4
1.50867	-4
1.51233	-4
1.51600	-4
1.51967	-4
1.52333	-5
1.52700	-5
1.53067	-5
1.53433	-4
1.53800	-4
1.54167	-4
1.54533	-4
1.54900	-4
1.55267	-3
1.55633	-3
1.56000	-3
1.56367	-3
1.56733	-3
1.57100	-3
1.57467	-3
1.57833	-2
1.58200	-2
1.58567	-2
1.58933	-2
1.59300	-2
1.59667	-3
1.60033	-3
1.60400	-4
1.60767	-5
1.61133	-6
1.61500	-8
1.61867	-10
1.62233	-12
1.62600	-15
1.62967	-18
1.63333	-21
1.63700	-24
1.64067	-28
1.64433	-31
1.64800	-34
1.65167	-38
1.65533	-41
1.65900	-45
1.66267	-49
1.66633	-52
1.67000	-57
1.67367	-61
1.67733	-66
1.68100	-70
1.68467	-75
1.68833	-80
1.69200	-84
1.69567	-88
1.69933	-92
1.70300	-95
1.70667	-98
1.71033	-100
1.71400	-102
1.71767	-104
1.72133	-105
1.72500	-107
1.72867	-108
1.73233	-109
1.73600	-109
1.73967	-110
1.74333	-111
1.74700	-111
1.75067	-112
1.75433	-113
1.75800	-113
1.76167	-113
1.76533	-114
1.76900	-114
1.77267	-115
1.77633	-115
1.78000	-116
1.78367	-117
1.78733	-118
1.79100	-118
1.79467	-118
1.79833	-118
1.80200	-118
1.80567	-118
1.80933	-118
1.81300	-117
1.81667	-117
1.82033	-117
1.82400	-117
1.82767	-117
1.83133	-118
1.83500	-118
1.83867	-118
1.84233	-119
1.84600	-119
1.84967	-119
1.85333	-119
1.85700	-119
1.86067	-120
1.86433	-120
1.86800	-120
1.87167	-120
1.87533	-120
1.87900	-120
1.88267	-120
1.88633	-119
1.89000	-118
1.89367	-118
1.89733	-117
1.90100	-117
1.90467	-116
1.90833	-116
1.91200	-116
1.91567	-117
1.91933	-117
1.92300	-117
1.92667	-116
1.93033	-116
1.93400	-117
1.93767	-117
1.94133	-116
1.94500	-116
1.94867	-116
1.95233	-115
1.95600	-114
1.95967	-114
1.96333	-114
1.96700	-114
1.97067	-114
1.97433	-114
1.97800	-114
1.98167	-114
1.98533	-114
1.98900	-114
1.99267	-113
1.99633	-112
2.00000	-111
2.00367	-110
2.00733	-110
2.01100	-110
2.01467	-110
2.01833	-110
2.02200	-111
2.02567	-111
2.02933	-111
2.03300	-111
2.03667	-110
2.04033	-109
2.04400	-109
2.04767	-108
2.05133	-107
2.05500	-106
2.05867	-105
2.06233	-104
2.06600	-104
2.06967	-104
2.07333	-104
2.07700	-104
2.08067	-104
2.08433	-104
2.08800	-105
2.09167	-105
2.09533	-105
2.09900	-105
2.10267	-104
2.10633	-104
2.11000	-104
2.11367	-103
2.11733	-103
2.12100	-103
2.12467	-103
2.12833	-103
2.13200	-102
2.13567	-102
2.13933	-102
2.14300	-102
2.14667	-102
2.15033	-102
2.15400	-101
2.15767	-101
2.16133	-100
2.16500	-100
2.16867	-99
2.17233	-99
2.17600	-99
2.17967	-98
2.18333	-98
2.18700	-97
2.19067	-96
2.19433	-96
2.19800	-95
2.20167	-94
2.20533	-94
2.20900	-94
2.21267	-93
2.21633	-93
2.22000	-93
2.22367	-93
2.22733	-93
2.23100	-93
2.23467	-93
2.23833	-93
2.24200	-93
2.24567	-93
2.24933	-92
2.25300	-92
2.25667	-92
2.26033	-92
2.26400	-92
2.26767	-92
2.27133	-92
2.27500	-92
2.27867	-92
2.28233	-91
2.28600	-91
2.28967	-90
2.29333	-89
2.29700	-89
2.30067	-88
2.30433	-88
2.30800	-88
2.31167	-87
2.31533	-87
2.31900	-87
2.32267	-86
2.32633	-86
2.33000	-86
2.33367	-85
2.33733	-84
2.34100	-84
2.34467	-83
2.34833	-82
2.35200	-81
2.35567	-80
2.35933	-80
2.36300	-79
2.36667	-79
2.37033	-78
2.37400	-77
2.37767	-75
2.38133	-73
2.38500	-70
2.38867	-66
2.39233	-62
2.39600	-58
2.39967	-54
2.40333	-49
2.40700	-45
2.41067	-40
2.41433	-36
2.41800	-32
2.42167	-29
2.42533	-25
2.42900	-22
2.43267	-19
2.43633	-17
2.44000	-14
2.44367	-12
2.44733	-11
2.45100	-9
2.45467	-8
2.45833	-6
2.46200	-5
2.46567	-3
2.46933	-2
2.47300	-0
2.47667	1
2.48033	2
2.48400	3
2.48767	4
2.49133	4
2.49500	5
2.49867	6
2.50233	7
2.50600	8
2.50967	9
2.51333	10
2.51700	11
2.52067	12
2.52433	12
2.52800	12
2.53167	13
2.53533	13
2.53900	13
2.54267	14
2.54633	14
2.55000	14
2.55367	15
2.55733	15
2.56100	15
2.56467	15
2.56833	15
2.57200	15
2.57567	15
2.57933	16
2.58300	16
2.58667	17
2.59033	17
2.59400	17
2.59767	17
2.60133	17
2.60500	16
2.60867	16
2.61233	16
2.61600	16
2.61967	16
2.62333	17
2.62700	17
2.63067	18
2.63433	19
2.63800	20
2.64167	21
2.64533	21
2.64900	21
2.65267	21
2.65633	21
2.66000	21
2.66367	21
2.66733	21
2.67100	21
2.67467	21
2.67833	22
2.68200	22
2.68567	23
2.68933	24
2.69300	24
2.69667	25
2.70033	25
2.70400	24
2.70767	24
2.71133	24
2.71500	24
2.71867	24
2.72233	24
2.72600	25
2.72967	25
2.73333	25
2.73700	25
2.74067	26
2.74433	25
2.74800	25
2.75167	25
2.75533	26
2.75900	26
2.76267	26
2.76633	26
2.77000	26
2.77367	26
2.77733	26
2.78100	26
2.78467	26
2.78833	26
2.79200	26
2.79567	26
2.79933	27
2.80300	27
2.80667	27
2.81033	27
2.81400	26
2.81767	26
2.82133	26
2.82500	26
2.82867	26
2.83233	26
2.83600	26
2.83967	26
2.84333	26
2.84700	25
2.85067	24
2.85433	22
2.85800	18
2.86167	11
2.86533	2
2.86900	-10
2.87267	-27
2.87633	-47
2.88000	-71
2.88367	-99
2.88733	-131
2.89100	-167
2.89467	-206
2.89833	-248
2.90200	-293
2.90567	-340
2.90933	-388
2.91300	-437
2.91667	-487
2.92033	-538
2.92400	-588
2.92767	-639
2.93133	-688
2.93500	-737
2.93867	-786
2.94233	-837
2.94600	-893
2.94967	-955
2.95333	-1015
2.95700	-1062
2.96067	-1088
2.96433	-1086
2.96800	-1059
2.97167	-1011
2.97533	-947
2.97900	-873
2.98267	-793
2.98633	-713
2.99000	-634
2.99367	-560
2.99733	-491
3.00100	-427
3.00467	-370
3.00833	-319
3.01200	-274
3.01567	-234
3.01933	-199
3.02300	-169
3.02667	-143
3.03033	-120
3.03400	-101
3.03767	-85
3.04133	-70
3.04500	-58
3.04867	-47
3.05233	-38
3.05600	-31
3.05967	-24
3.06333	-18
3.06700	-14
3.07067	-10
3.07433	-6
3.07800	-3
3.08167	-1
3.08533	1
3.08900	3
3.09267	5
3.09633	7
3.10000	8
3.10367	9
3.10733	10
3.11100	11
3.11467	12
3.11833	12
3.12200	13
3.12567	13
3.12933	14
3.13300	15
3.13667	15
3.14033	16
3.14400	17
3.14767	17
3.15133	18
3.15500	18
3.15867	19
3.16233	19
3.16600	20
3.16967	21
3.17333	21
3.17700	22
3.18067	22
3.18433	22
3.18800	23
3.19167	23
3.19533	23
3.19900	24
3.20267	24
3.20633	24
3.21000	24
3.21367	24
3.21733	24
3.22100	24
3.22467	24
3.22833	24
3.23200	25
3.23567	25
3.23933	25
3.24300	25
3.24667	25
3.25033	25
3.25400	25
3.25767	25
3.26133	25
3.26500	25
3.26867	25
3.27233	25
3.27600	25
3.27967	25
3.28333	25
3.28700	25
3.29067	25
3.29433	25
3.29800	25
3.30167	25
3.30533	25
3.30900	25
3.31267	25
3.31633	25
3.32000	25
3.32367	25
3.32733	25
3.33100	25
3.33467	25
3.33833	25
3.34200	26
3.34567	26
3.34933	26
3.35300	26
3.35667	26
3.36033	26
3.36400	26
3.36767	26
3.37133	26
3.37500	26
3.37867	25
3.38233	25
3.38600	25
3.38967	25
3.39333	25
3.39700	25
3.40067	25
3.40433	25
3.40800	26
3.41167	26
3.41533	26
3.41900	26
3.42267	26
3.42633	26
3.43000	26
3.43367	27
3.43733	27
3.44100	27
3.44467	27
3.44833	27
3.45200	28
3.45567	28
3.45933	28
3.46300	28
3.46667	28
3.47033	28
3.47400	28
3.47767	28
3.48133	28
3.48500	28
3.48867	28
3.49233	28
3.49600	28
3.49967	28
3.50333	28
3.50700	28
3.51067	27
3.51433	27
3.51800	27
3.52167	27
3.52533	27
3.52900	27
3.53267	27
3.53633	27
3.54000	27
3.54367	27
3.54733	27
3.55100	27
3.55467	27
3.55833	27
3.56200	27
3.56567	27
3.56933	27
3.57300	27
3.57667	27
3.58033	27
3.58400	27
3.58767	27
3.59133	26
3.59500	26
3.59867	26
3.60233	26
3.60600	26
3.60967	26
3.61333	26
3.61700	26
3.62067	26
3.62433	26
3.62800	25
3.63167	25
3.63533	25
3.63900	25
3.64267	25
3.64633	25
3.65000	25
3.65367	25
3.65733	25
3.66100	26
3.66467	26
3.66833	26
3.67200	27
3.67567	27
3.67933	28
3.68300	28
3.68667	28
3.69033	28
3.69400	28
3.69767	29
3.70133	29
3.70500	29
3.70867	29
3.71233	29
3.71600	29
3.71967	29
3.72333	29
3.72700	30
3.73067	30
3.73433	30
3.73800	30
3.74167	30
3.74533	30
3.74900	30
3.75267	30
3.75633	30
3.76000	30
3.76367	30
3.76733	30
3.77100	30
3.77467	29
3.77833	29
3.78200	29
3.78567	29
3.78933	29
3.79300	29
3.79667	28
3.80033	28
3.80400	28
3.80767	28
3.81133	28
3.81500	28
3.81867	28
3.82233	28
3.82600	27
3.82967	27
3.83333	27
3.83700	27
3.84067	27
3.84433	27
3.84800	27
3.85167	27
3.85533	27
3.85900	26
3.86267	26
3.86633	26
3.87000	26
3.87367	26
3.87733	26
3.88100	26
3.88467	26
3.88833	26
3.89200	26
3.89567	26
3.89933	26
3.90300	26
3.90667	26
3.91033	26
3.91400	26
3.91767	26
3.92133	26
3.92500	26
3.92867	26
3.93233	27
3.93600	27
3.93967	27
3.94333	27
3.94700	27
3.95067	27
3.95433	27
3.95800	27
3.96167	27
3.96533	28
3.96900	28
3.97267	28
3.97633	28
3.98000	28
3.98367	28
3.98733	28
3.99100	28
3.99467	28
3.99833	28

[Chromatogram (Ch3)]
Interval(msec)	220
# of Points	1091
Start Time(min)	0.002
End Time(min)	3.998
R.Time (min)	Intensity
0.00167	1
0.00533	3
0.00900	4
0.01267	2
0.01633	-0
0.02000	-2
0.02367	-2
0.02733	-1
0.03100	-0
0.03467	0
0.03833	-1
0.04200	-2
0.04567	-1
0.04933	-1
0.05300	-0
0.05667	1
0.06033	0
0.06400	2
0.06767	4
0.07133	4
0.07500	3
0.07867	1
0.08233	0
0.08600	-0
0.08967	0
0.09333	1
0.09700	2
0.10067	-0
0.10433	0
0.10800	1
0.11167	1
0.11533	1
0.11900	1
0.12267	0
0.12633	0
0.13000	-0
0.13367	1
0.13733	1
0.14100	-1
0.14467	-1
0.14833	-2
0.15200	-1
0.15567	0
0.15933	1
0.16300	3
0.16667	4
0.17033	5
0.17400	5
0.17767	5
0.18133	5
0.18500	2
0.18867	0
0.19233	0
0.19600	-1
0.19967	1
0.20333	3
0.20700	3
0.21067	5
0.21433	4
0.21800	2
0.22167	1
0.22533	4
0.22900	6
0.23267	6
0.23633	5
0.24000	5
0.24367	6
0.24733	7
0.25100	8
0.25467	9
0.25833	7
0.26200	4
0.26567	3
0.26933	2
0.27300	2
0.27667	1
0.28033	3
0.28400	4
0.28767	4
0.29133	3
0.29500	2
0.29867	2
0.30233	3
0.30600	4
0.30967	5
0.31333	7
0.31700	8
0.32067	10
0.32433	13
0.32800	15
0.33167	16
0.33533	16
0.33900	13
0.34267	11
0.34633	11
0.35000	13
0.35367	16
0.35733	18
0.36100	18
0.36467	17
0.36833	16
0.37200	15
0.37567	14
0.37933	14
0.38300	15
0.38667	15
0.39033	15
0.39400	16
0.39767	18
0.40133	19
0.40500	18
0.40867	19
0.41233	20
0.41600	22
0.41967	23
0.42333	23
0.42700	22
0.43067	22
0.43433	23
0.43800	23
0.44167	21
0.44533	21
0.44900	20
0.45267	21
0.45633	22
0.46000	22
0.46367	24
0.46733	25
0.47100	27
0.47467	27
0.47833	26
0.48200	24
0.48567	26
0.48933	26
0.49300	27
0.49667	29
0.50033	30
0.50400	31
0.50767	30
0.51133	30
0.51500	31
0.51867	29
0.52233	26
0.52600	24
0.52967	24
0.53333	26
0.53700	26
0.54067	26
0.54433	27
0.54800	28
0.55167	26
0.55533	24
0.55900	25
0.56267	25
0.56633	27
0.57000	27
0.57367	28
0.57733	26
0.58100	26
0.58467	28
0.58833	30
0.59200	30
0.59567	31
0.59933	30
0.60300	29
0.60667	28
0.61033	27
0.61400	28
0.61767	29
0.62133	30
0.62500	29
0.62867	29
0.63233	28
0.63600	29
0.63967	29
0.64333	31
0.64700	31
0.65067	30
0.65433	30
0.65800	29
0.66167	31
0.66533	34
0.66900	33
0.67267	33
0.67633	32
0.68000	30
0.68367	29
0.68733	31
0.69100	32
0.69467	33
0.69833	33
0.70200	32
0.70567	31
0.70933	33
0.71300	34
0.71667	36
0.72033	39
0.72400	42
0.72767	45
0.73133	44
0.73500	42
0.73867	41
0.74233	42
0.74600	41
0.74967	41
0.75333	41
0.75700	41
0.76067	43
0.76433	43
0.76800	41
0.77167	40
0.77533	42
0.77900	43
0.78267	44
0.78633	44
0.79000	46
0.79367	45
0.79733	44
0.80100	42
0.80467	40
0.80833	39
0.81200	37
0.81567	38
0.81933	39
0.82300	41
0.82667	42
0.83033	44
0.83400	43
0.83767	42
0.84133	41
0.84500	42
0.84867	43
0.85233	45
0.85600	44
0.85967	44
0.86333	45
0.86700	46
0.87067	46
0.87433	46
0.87800	46
0.88167	45
0.88533	45
0.88900	44
0.89267	44
0.89633	44
0.90000	44
0.90367	46
0.90733	46
0.91100	46
0.91467	46
0.91833	44
0.92200	45
0.92567	46
0.92933	48
0.93300	49
0.93667	48
0.94033	47
0.94400	46
0.94767	47
0.95133	50
0.95500	50
0.95867	51
0.96233	50
0.96600	49
0.96967	48
0.97333	47
0.97700	48
0.98067	49
0.98433	51
0.98800	51
0.99167	52
0.99533	51
0.99900	51
1.00267	51
1.00633	51
1.01000	49
1.01367	50
1.01733	50
1.02100	50
1.02467	51
1.02833	51
1.03200	52
1.03567	53
1.03933	54
1.04300	54
1.04667	54
1.05033	51
1.05400	51
1.05767	53
1.06133	53
1.06500	54
1.06867	55
1.07233	55
1.07600	56
1.07967	55
1.08333	53
1.08700	54
1.09067	57
1.09433	59
1.09800	60
1.10167	60
1.10533	59
1.10900	57
1.11267	56
1.11633	56
1.12000	57
1.12367	56
1.12733	56
1.13100	57
1.13467	58
1.13833	60
1.14200	60
1.14567	60
1.14933	59
1.15300	57
1.15667	58
1.16033	59
1.16400	61
1.16767	62
1.17133	61
1.17500	62
1.17867	62
1.18233	62
1.18600	61
1.18967	61
1.19333	60
1.19700	60
1.20067	61
1.20433	62
1.20800	61
1.21167	58
1.21533	57
1.21900	56
1.22267	56
1.22633	58
1.23000	57
1.23367	56
1.23733	55
1.24100	54
1.24467	56
1.24833	59
1.25200	61
1.25567	63
1.25933	62
1.26300	62
1.26667	62
1.27033	61
1.27400	60
1.27767	57
1.28133	56
1.28500	58
1.28867	61
1.29233	63
1.29600	63
1.29967	61
1.30333	59
1.30700	60
1.31067	61
1.31433	62
1.31800	61
1.32167	62
1.32533	62
1.32900	65
1.33267	66
1.33633	66
1.34000	67
1.34367	67
1.34733	66
1.35100	67
1.35467	69
1.35833	68
1.36200	68
1.36567	69
1.36933	71
1.37300	71
1.37667	69
1.38033	67
1.38400	67
1.38767	66
1.39133	64
1.39500	62
1.39867	62
1.40233	62
1.40600	63
1.40967	64
1.41333	64
1.41700	63
1.42067	62
1.42433	61
1.42800	61
1.43167	60
1.43533	60
1.43900	62
1.44267	64
1.44633	66
1.45000	69
1.45367	70
1.45733	71
1.46100	71
1.46467	70
1.46833	70
1.47200	69
1.47567	68
1.47933	68
1.48300	70
1.48667	71
1.49033	73
1.49400	73
1.49767	72
1.50133	71
1.50500	72
1.50867	72
1.51233	72
1.51600	69
1.51967	67
1.52333	66
1.52700	66
1.53067	65
1.53433	65
1.53800	65
1.54167	66
1.54533	68
1.54900	71
1.55267	74
1.55633	75
1.56000	76
1.56367	75
1.56733	75
1.57100	72
1.57467	70
1.57833	69
1.58200	67
1.58567	67
1.58933	69
1.59300	70
1.59667	72
1.60033	75
1.60400	77
1.60767	76
1.61133	74
1.61500	72
1.61867	71
1.62233	71
1.62600	73
1.62967	73
1.63333	70
1.63700	68
1.64067	69
1.64433	71
1.64800	72
1.65167	72
1.65533	73
1.65900	74
1.66267	76
1.66633	78
1.67000	81
1.67367	83
1.67733	85
1.68100	87
1.68467	88
1.68833	88
1.69200	89
1.69567	87
1.69933	84
1.70300	84
1.70667	85
1.71033	88
1.71400	90
1.71767	91
1.72133	92
1.72500	92
1.72867	92
1.73233	94
1.73600	95
1.73967	97
1.74333	100
1.74700	103
1.75067	104
1.75433	103
1.75800	102
1.76167	100
1.76533	99
1.76900	96
1.77267	96
1.77633	98
1.78000	100
1.78367	102
1.78733	102
1.79100	102
1.79467	102
1.79833	105
1.80200	107
1.80567	105
1.80933	104
1.81300	105
1.81667	105
1.82033	103
1.82400	104
1.82767	105
1.83133	106
1.83500	110
1.83867	112
1.84233	115
1.84600	116
1.84967	116
1.85333	117
1.85700	117
1.86067	117
1.86433	118
1.86800	116
1.87167	114
1.87533	114
1.87900	115
1.88267	114
1.88633	114
1.89000	114
1.89367	113
1.89733	111
1.90100	110
1.90467	111
1.90833	113
1.91200	115
1.91567	115
1.91933	115
1.92300	114
1.92667	113
1.93033	115
1.93400	118
1.93767	118
1.94133	119
1.94500	120
1.94867	121
1.95233	123
1.95600	125
1.95967	125
1.96333	125
1.96700	125
1.97067	127
1.97433	129
1.97800	131
1.98167	130
1.98533	129
1.98900	128
1.99267	130
1.99633	131
2.00000	131
2.00367	131
2.00733	134
2.01100	136
2.01467	139
2.01833	142
2.02200	143
2.02567	143
2.02933	144
2.03300	142
2.03667	142
2.04033	145
2.04400	147
2.04767	148
2.05133	149
2.05500	152
2.05867	153
2.06233	153
2.06600	152
2.06967	152
2.07333	153
2.07700	154
2.08067	157
2.08433	159
2.08800	160
2.09167	160
2.09533	161
2.09900	164
2.10267	166
2.10633	167
2.11000	168
2.11367	170
2.11733	172
2.12100	174
2.12467	176
2.12833	179
2.13200	179
2.13567	178
2.13933	177
2.14300	177
2.14667	177
2.15033	178
2.15400	178
2.15767	180
2.16133	184
2.16500	189
2.16867	191
2.17233	192
2.17600	191
2.17967	191
2.18333	192
2.18700	192
2.19067	193
2.19433	194
2.19800	194
2.20167	194
2.20533	196
2.20900	198
2.21267	198
2.21633	198
2.22000	197
2.22367	198
2.22733	202
2.23100	203
2.23467	205
2.23833	206
2.24200	206
2.24567	207
2.24933	208
2.25300	209
2.25667	209
2.26033	209
2.26400	208
2.26767	208
2.27133	209
2.27500	209
2.27867	210
2.28233	212
2.28600	211
2.28967	209
2.29333	208
2.29700	209
2.30067	212
2.30433	214
2.30800	216
2.31167	217
2.31533	218
2.31900	216
2.32267	214
2.32633	217
2.33000	220
2.33367	222
2.33733	223
2.34100	225
2.34467	227
2.34833	226
2.35200	224
2.35567	225
2.35933	228
2.36300	230
2.36667	232
2.37033	233
2.37400	231
2.37767	231
2.38133	230
2.38500	229
2.38867	227
2.39233	227
2.39600	227
2.39967	227
2.40333	228
2.40700	227
2.41067	229
2.41433	231
2.41800	234
2.42167	236
2.42533	236
2.42900	237
2.43267	237
2.43633	239
2.44000	242
2.44367	248
2.44733	266
2.45100	287
2.45467	302
2.45833	306
2.46200	299
2.46567	285
2.46933	270
2.47300	260
2.47667	253
2.48033	247
2.48400	243
2.48767	236
2.49133	228
2.49500	219
2.49867	211
2.50233	204
2.50600	197
2.50967	191
2.51333	186
2.51700	181
2.52067	179
2.52433	176
2.52800	173
2.53167	169
2.53533	168
2.53900	170
2.54267	167
2.54633	161
2.55000	154
2.55367	147
2.55733	144
2.56100	141
2.56467	138
2.56833	133
2.57200	127
2.57567	124
2.57933	120
2.58300	117
2.58667	115
2.59033	112
2.59400	106
2.59767	102
2.60133	96
2.60500	87
2.60867	70
2.61233	43
2.61600	9
2.61967	-31
2.62333	-72
2.62700	-113
2.63067	-152
2.63433	-189
2.63800	-221
2.64167	-248
2.64533	-269
2.64900	-303
2.65267	-353
2.65633	-376
2.66000	-357
2.66367	-304
2.66733	-229
2.67100	-143
2.67467	-54
2.67833	30
2.68200	110
2.68567	186
2.68933	258
2.69300	323
2.69667	382
2.70033	436
2.70400	486
2.70767	534
2.71133	576
2.71500	614
2.71867	647
2.72233	676
2.72600	703
2.72967	727
2.73333	749
2.73700	769
2.74067	786
2.74433	801
2.74800	813
2.75167	820
2.75533	827
2.75900	835
2.76267	841
2.76633	846
2.77000	850
2.77367	852
2.77733	856
2.78100	863
2.78467	866
2.78833	869
2.79200	870
2.79567	874
2.79933	877
2.80300	879
2.80667	879
2.81033	878
2.81400	877
2.81767	876
2.82133	876
2.82500	877
2.82867	882
2.83233	894
2.83600	923
2.83967	983
2.84333	1094
2.84700	1283
2.85067	1572
2.85433	1971
2.85800	2480
2.86167	3075
2.86533	3720
2.86900	4362
2.87267	4949
2.87633	5439
2.88000	5795
2.88367	5998
2.88733	6045
2.89100	5950
2.89467	5743
2.89833	5452
2.90200	5109
2.90567	4738
2.90933	4358
2.91300	3987
2.91667	3633
2.92033	3305
2.92400	3004
2.92767	2731
2.93133	2485
2.93500	2268
2.93867	2078
2.94233	1911
2.94600	1764
2.94967	1636
2.95333	1526
2.95700	1431
2.96067	1347
2.96433	1272
2.96800	1206
2.97167	1148
2.97533	1099
2.97900	1058
2.98267	1022
2.98633	988
2.99000	960
2.99367	937
2.99733	918
3.00100	900
3.00467	883
3.00833	872
3.01200	863
3.01567	854
3.01933	843
3.02300	834
3.02667	826
3.03033	818
3.03400	810
3.03767	804
3.04133	799
3.04500	793
3.04867	791
3.05233	790
3.05600	789
3.05967	784
3.06333	780
3.06700	778
3.07067	776
3.07433	774
3.07800	772
3.08167	766
3.08533	761
3.08900	757
3.09267	753
3.09633	749
3.10000	745
3.10367	743
3.10733	741
3.11100	740
3.11467	738
3.11833	734
3.12200	732
3.12567	732
3.12933	731
3.13300	728
3.13667	725
3.14033	723
3.14400	723
3.14767	721
3.15133	719
3.15500	716
3.15867	713
3.16233	713
3.16600	711
3.16967	706
3.17333	705
3.17700	703
3.18067	701
3.18433	699
3.18800	699
3.19167	699
3.19533	695
3.19900	692
3.20267	691
3.20633	690
3.21000	690
3.21367	689
3.21733	687
3.22100	684
3.22467	681
3.22833	681
3.23200	682
3.23567	679
3.23933	675
3.24300	673
3.24667	672
3.25033	670
3.25400	667
3.25767	666
3.26133	666
3.26500	666
3.26867	665
3.27233	663
3.27600	660
3.27967	657
3.28333	655
3.28700	654
3.29067	651
3.29433	650
3.29800	647
3.30167	642
3.30533	639
3.30900	638
3.31267	638
3.31633	635
3.32000	633
3.32367	631
3.32733	625
3.33100	621
3.33467	620
3.33833	620
3.34200	621
3.34567	618
3.34933	614
3.35300	609
3.35667	608
3.36033	607
3.36400	604
3.36767	602
3.37133	601
3.37500	599
3.37867	596
3.38233	592
3.38600	589
3.38967	587
3.39333	586
3.39700	584
3.40067	579
3.40433	577
3.40800	576
3.41167	575
3.41533	572
3.41900	569
3.42267	566
3.42633	563
3.43000	560
3.43367	557
3.43733	555
3.44100	553
3.44467	553
3.44833	550
3.45200	550
3.45567	550
3.45933	550
3.46300	546
3.46667	544
3.47033	541
3.47400	540
3.47767	538
3.48133	535
3.48500	535
3.48867	535
3.49233	533
3.49600	530
3.49967	528
3.50333	526
3.50700	523
3.51067	521
3.51433	519
3.51800	516
3.52167	515
3.52533	512
3.52900	508
3.53267	504
3.53633	498
3.54000	496
3.54367	496
3.54733	496
3.55100	498
3.55467	497
3.55833	495
3.56200	491
3.56567	487
3.56933	484
3.57300	482
3.57667	482
3.58033	483
3.58400	480
3.58767	478
3.59133	475
3.59500	473
3.59867	471
3.60233	469
3.60600	466
3.60967	464
3.61333	464
3.61700	462
3.62067	459
3.62433	458
3.62800	456
3.63167	456
3.63533	455
3.63900	452
3.64267	449
3.64633	447
3.65000	447
3.65367	447
3.65733	447
3.66100	446
3.66467	444
3.66833	441
3.67200	436
3.67567	432
3.67933	431
3.68300	431
3.68667	430
3.69033	427
3.69400	425
3.69767	425
3.70133	422
3.70500	421
3.70867	419
3.71233	416
3.71600	414
3.71967	412
3.72333	410
3.72700	408
3.73067	404
3.73433	401
3.73800	400
3.74167	400
3.74533	399
3.74900	397
3.75267	395
3.75633	393
3.76000	393
3.76367	395
3.76733	395
3.77100	391
3.77467	390
3.77833	390
3.78200	389
3.78567	386
3.78933	383
3.79300	383
3.79667	384
3.80033	383
3.80400	383
3.80767	381
3.81133	379
3.81500	376
3.81867	375
3.82233	373
3.82600	369
3.82967	366
3.83333	365
3.83700	363
3.84067	362
3.84433	362
3.84800	360
3.85167	361
3.85533	360
3.85900	358
3.86267	355
3.86633	353
3.87000	351
3.87367	351
3.87733	351
3.88100	352
3.88467	352
3.88833	350
3.89200	350
3.89567	350
3.89933	348
3.90300	345
3.90667	345
3.91033	345
3.91400	344
3.91767	342
3.92133	342
3.92500	339
3.92867	338
3.93233	338
3.93600	338
3.93967	338
3.94333	337
3.94700	335
3.95067	332
3.95433	330
3.95800	331
3.96167	331
3.96533	328
3.96900	328
3.97267	327
3.97633	326
3.98000	327
3.98367	327
3.98733	327
3.99100	327
3.99467	326
3.99833	326

[Status Trace (Column Oven Temperature)]
Interval(msec)	1000
# of Points	240
Start Time(min)	0.008
End Time(min)	3.991
Intensity Units	
Intensity Multiplier	1
R.Time (min)	Intensity
0.00773	35.08
0.02440	35.07
0.04107	35.07
0.05773	35.07
0.07440	35.06
0.09107	35.05
0.10773	35.03
0.12440	35.01
0.14107	35.00
0.15773	34.99
0.17440	34.99
0.19107	34.99
0.20773	34.99
0.22440	34.98
0.24107	34.98
0.25773	34.97
0.27440	34.96
0.29107	34.97
0.30773	34.96
0.32440	34.95
0.34107	34.95
0.35773	34.96
0.37440	34.96
0.39107	34.98
0.40773	34.99
0.42440	34.98
0.44107	34.98
0.45773	34.99
0.47440	35.00
0.49107	34.99
0.50773	34.99
0.52440	34.99
0.54107	34.98
0.55773	34.97
0.57440	34.96
0.59107	34.95
0.60773	34.94
0.62440	34.95
0.64107	34.95
0.65773	34.96
0.67440	34.97
0.69107	34.97
0.70773	34.99
0.72440	35.00
0.74107	35.02
0.75773	35.02
0.77440	35.02
0.79107	35.02
0.80773	35.03
0.82440	35.04
0.84107	35.02
0.85773	35.00
0.87440	34.99
0.89107	34.98
0.90773	34.97
0.92440	34.96
0.94107	34.97
0.95773	34.98
0.97440	34.98
0.99107	34.98
1.00773	34.98
1.02440	34.99
1.04107	34.98
1.05773	34.97
1.07440	34.97
1.09107	34.97
1.10773	34.97
1.12440	34.99
1.14107	34.99
1.15773	35.00
1.17440	35.00
1.19107	34.99
1.20773	34.99
1.22440	34.99
1.24107	34.98
1.25773	34.98
1.27440	34.98
1.29107	34.98
1.30773	34.98
1.32440	34.97
1.34107	34.97
1.35773	34.97
1.37440	34.98
1.39107	34.99
1.40773	35.00
1.42440	34.99
1.44107	34.98
1.45773	34.99
1.47440	35.01
1.49107	35.02
1.50773	35.03
1.52440	35.03
1.54107	35.04
1.55773	35.04
1.57440	35.03
1.59107	35.04
1.60773	35.09
1.62440	35.21
1.64107	35.39
1.65773	35.62
1.67440	35.95
1.69107	36.30
1.70773	36.66
1.72440	37.01
1.74107	37.35
1.75773	37.68
1.77440	38.02
1.79107	38.36
1.80773	38.67
1.82440	39.00
1.84107	39.34
1.85773	39.67
1.87440	40.01
1.89107	40.33
1.90773	40.66
1.92440	40.98
1.94107	41.32
1.95773	41.64
1.97440	41.98
1.99107	42.30
2.00773	42.62
2.02440	42.96
2.04107	43.28
2.05773	43.59
2.07440	43.92
2.09107	44.25
2.10773	44.56
2.12440	44.89
2.14107	45.23
2.15773	45.56
2.17440	45.90
2.19107	46.20
2.20773	46.54
2.22440	46.88
2.24107	47.20
2.25773	47.53
2.27440	47.87
2.29107	48.18
2.30773	48.52
2.32440	48.84
2.34107	49.15
2.35773	49.45
2.37440	49.65
2.39107	49.73
2.40773	49.72
2.42440	49.73
2.44107	49.73
2.45773	49.75
2.47440	49.74
2.49107	49.76
2.50773	49.76
2.52440	49.78
2.54107	49.79
2.55773	49.83
2.57440	49.83
2.59107	49.83
2.60773	49.85
2.62440	49.84
2.64107	49.84
2.65773	49.86
2.67440	49.85
2.69107	49.85
2.70773	49.87
2.72440	49.87
2.74107	49.86
2.75773	49.86
2.77440	49.85
2.79107	49.86
2.80773	49.87
2.82440	49.88
2.84107	49.90
2.85773	49.90
2.87440	49.92
2.89107	49.94
2.90773	49.95
2.92440	49.97
2.94107	49.99
2.95773	50.00
2.97440	50.01
2.99107	50.02
3.00773	50.04
3.02440	50.04
3.04107	50.05
3.05773	50.06
3.07440	50.07
3.09107	50.09
3.10773	50.09
3.12440	50.10
3.14107	50.10
3.15773	50.09
3.17440	50.08
3.19107	50.07
3.20773	50.06
3.22440	50.06
3.24107	50.07
3.25773	50.07
3.27440	50.07
3.29107	50.08
3.30773	50.08
3.32440	50.08
3.34107	50.09
3.35773	50.09
3.37440	50.10
3.39107	50.10
3.40773	50.09
3.42440	50.09
3.44107	50.08
3.45773	50.07
3.47440	50.06
3.49107	50.06
3.50773	50.06
3.52440	50.07
3.54107	50.06
3.55773	50.06
3.57440	50.06
3.59107	50.07
3.60773	50.08
3.62440	50.10
3.64107	50.11
3.65773	50.10
3.67440	50.09
3.69107	50.08
3.70773	50.07
3.72440	50.06
3.74107	50.04
3.75773	50.04
3.77440	50.03
3.79107	50.02
3.80773	50.02
3.82440	50.02
3.84107	50.03
3.85773	50.03
3.87440	50.05
3.89107	50.05
3.90773	50.06
3.92440	50.05
3.94107	50.04
3.95773	50.03
3.97440	50.02
3.99107	50.01

[Status Trace (Injection Unit Temperature)]
Interval(msec)	1000
# of Points	240
Start Time(min)	0.008
End Time(min)	3.991
Intensity Units	
Intensity Multiplier	1
R.Time (min)	Intensity
0.00773	99.98
0.02440	99.98
0.04107	99.98
0.05773	99.98
0.07440	99.98
0.09107	99.99
0.10773	99.99
0.12440	99.98
0.14107	99.98
0.15773	99.99
0.17440	99.99
0.19107	99.98
0.20773	99.98
0.22440	99.99
0.24107	99.98
0.25773	99.98
0.27440	99.98
0.29107	99.98
0.30773	99.98
0.32440	99.98
0.34107	99.98
0.35773	99.98
0.37440	99.97
0.39107	99.98
0.40773	99.98
0.42440	99.98
0.44107	99.98
0.45773	99.98
0.47440	99.98
0.49107	99.98
0.50773	99.97
0.52440	99.98
0.54107	99.98
0.55773	99.98
0.57440	99.97
0.59107	99.97
0.60773	99.98
0.62440	99.98
0.64107	99.98
0.65773	99.98
0.67440	99.98
0.69107	99.98
0.70773	99.98
0.72440	99.98
0.74107	99.98
0.75773	99.98
0.77440	99.98
0.79107	99.98
0.80773	99.98
0.82440	99.98
0.84107	99.98
0.85773	99.98
0.87440	99.98
0.89107	99.97
0.90773	99.98
0.92440	99.98
0.94107	99.98
0.95773	99.98
0.97440	99.98
0.99107	99.98
1.00773	99.98
1.02440	99.98
1.04107	99.98
1.05773	99.98
1.07440	99.99
1.09107	99.98
1.10773	99.98
1.12440	99.98
1.14107	99.98
1.15773	99.98
1.17440	99.98
1.19107	99.98
1.20773	99.98
1.22440	99.98
1.24107	99.98
1.25773	99.98
1.27440	99.98
1.29107	99.99
1.30773	99.98
1.32440	99.98
1.34107	99.98
1.35773	99.98
1.37440	99.99
1.39107	99.99
1.40773	99.99
1.42440	99.98
1.44107	99.98
1.45773	99.98
1.47440	99.99
1.49107	99.98
1.50773	99.99
1.52440	99.99
1.54107	99.99
1.55773	99.99
1.57440	99.99
1.59107	99.99
1.60773	99.99
1.62440	99.99
1.64107	99.99
1.65773	99.99
1.67440	99.99
1.69107	99.98
1.70773	99.99
1.72440	99.99
1.74107	99.99
1.75773	99.99
1.77440	99.99
1.79107	99.99
1.80773	99.98
1.82440	99.99
1.84107	99.98
1.85773	99.98
1.87440	99.98
1.89107	99.98
1.90773	99.98
1.92440	99.98
1.94107	99.98
1.95773	99.98
1.97440	99.98
1.99107	99.98
2.00773	99.98
2.02440	99.98
2.04107	99.98
2.05773	99.98
2.07440	99.98
2.09107	99.97
2.10773	99.98
2.12440	99.97
2.14107	99.98
2.15773	99.97
2.17440	99.97
2.19107	99.97
2.20773	99.97
2.22440	99.97
2.24107	99.97
2.25773	99.97
2.27440	99.97
2.29107	99.97
2.30773	99.97
2.32440	99.97
2.34107	99.97
2.35773	99.97
2.37440	99.97
2.39107	99.97
2.40773	99.96
2.42440	99.97
2.44107	99.97
2.45773	99.97
2.47440	99.97
2.49107	99.97
2.50773	99.97
2.52440	99.97
2.54107	99.97
2.55773	99.97
2.57440	99.97
2.59107	99.97
2.60773	99.98
2.62440	99.98
2.64107	99.98
2.65773	99.98
2.67440	99.98
2.69107	99.98
2.70773	99.98
2.72440	99.98
2.74107	99.98
2.75773	99.99
2.77440	99.99
2.79107	99.99
2.80773	99.99
2.82440	99.99
2.84107	99.99
2.85773	100.00
2.87440	100.00
2.89107	100.00
2.90773	100.00
2.92440	100.00
2.94107	100.00
2.95773	100.00
2.97440	100.01
2.99107	100.01
3.00773	100.01
3.02440	100.01
3.04107	100.01
3.05773	100.01
3.07440	100.02
3.09107	100.01
3.10773	100.02
3.12440	100.02
3.14107	100.02
3.15773	100.02
3.17440	100.02
3.19107	100.02
3.20773	100.02
3.22440	100.02
3.24107	100.03
3.25773	100.02
3.27440	100.03
3.29107	100.02
3.30773	100.03
3.32440	100.03
3.34107	100.03
3.35773	100.03
3.37440	100.03
3.39107	100.03
3.40773	100.03
3.42440	100.03
3.44107	100.03
3.45773	100.04
3.47440	100.04
3.49107	100.03
3.50773	100.04
3.52440	100.04
3.54107	100.04
3.55773	100.04
3.57440	100.04
3.59107	100.04
3.60773	100.04
3.62440	100.04
3.64107	100.04
3.65773	100.05
3.67440	100.04
3.69107	100.05
3.70773	100.04
3.72440	100.04
3.74107	100.04
3.75773	100.04
3.77440	100.05
3.79107	100.05
3.80773	100.04
3.82440	100.05
3.84107	100.04
3.85773	100.04
3.87440	100.04
3.89107	100.05
3.90773	100.05
3.92440	100.05
3.94107	100.04
3.95773	100.05
3.97440	100.05
3.99107	100.05

[Status Trace (Carrier Gas Pressure)]
Interval(msec)	1000
# of Points	240
Start Time(min)	0.008
End Time(min)	3.991
Intensity Units	
Intensity Multiplier	1
R.Time (min)	Intensity
0.00773	58.00
0.02440	55.41
0.04107	57.09
0.05773	59.14
0.07440	59.51
0.09107	58.07
0.10773	57.97
0.12440	58.01
0.14107	58.01
0.15773	58.01
0.17440	58.00
0.19107	58.00
0.20773	58.00
0.22440	58.00
0.24107	58.00
0.25773	58.00
0.27440	58.00
0.29107	58.00
0.30773	58.00
0.32440	58.00
0.34107	58.00
0.35773	58.00
0.37440	58.00
0.39107	58.00
0.40773	58.00
0.42440	58.00
0.44107	58.00
0.45773	58.00
0.47440	58.00
0.49107	58.00
0.50773	58.00
0.52440	58.00
0.54107	58.00
0.55773	58.00
0.57440	58.00
0.59107	58.00
0.60773	58.00
0.62440	58.00
0.64107	58.00
0.65773	58.00
0.67440	58.00
0.69107	58.00
0.70773	58.00
0.72440	58.00
0.74107	58.00
0.75773	58.00
0.77440	58.00
0.79107	58.00
0.80773	58.00
0.82440	58.00
0.84107	58.00
0.85773	58.00
0.87440	58.00
0.89107	58.00
0.90773	58.00
0.92440	58.00
0.94107	58.00
0.95773	58.00
0.97440	58.00
0.99107	58.00
1.00773	58.00
1.02440	58.00
1.04107	58.00
1.05773	58.00
1.07440	58.00
1.09107	58.00
1.10773	58.00
1.12440	58.00
1.14107	58.00
1.15773	58.00
1.17440	58.00
1.19107	58.00
1.20773	58.00
1.22440	58.00
1.24107	58.00
1.25773	58.00
1.27440	58.00
1.29107	58.00
1.30773	58.00
1.32440	58.00
1.34107	58.00
1.35773	58.00
1.37440	58.00
1.39107	58.00
1.40773	58.00
1.42440	58.00
1.44107	58.00
1.45773	58.00
1.47440	58.00
1.49107	58.00
1.50773	58.00
1.52440	58.00
1.54107	58.00
1.55773	58.00
1.57440	58.00
1.59107	58.00
1.60773	58.00
1.62440	58.00
1.64107	58.00
1.65773	58.00
1.67440	58.01
1.69107	58.01
1.70773	58.00
1.72440	58.00
1.74107	58.00
1.75773	58.00
1.77440	58.00
1.79107	58.00
1.80773	58.00
1.82440	58.00
1.84107	58.00
1.85773	58.00
1.87440	58.00
1.89107	58.00
1.90773	58.00
1.92440	58.00
1.94107	58.00
1.95773	58.00
1.97440	58.00
1.99107	58.00
2.00773	58.00
2.02440	58.00
2.04107	58.00
2.05773	58.00
2.07440	58.00
2.09107	58.00
2.10773	58.00
2.12440	58.00
2.14107	58.00
2.15773	58.00
2.17440	58.00
2.19107	58.00
2.20773	58.00
2.22440	58.00
2.24107	58.00
2.25773	58.00
2.27440	58.00
2.29107	58.00
2.30773	58.00
2.32440	58.00
2.34107	58.00
2.35773	58.00
2.37440	58.00
2.39107	57.99
2.40773	57.99
2.42440	58.00
2.44107	58.00
2.45773	58.00
2.47440	58.00
2.49107	58.00
2.50773	57.99
2.52440	57.99
2.54107	58.00
2.55773	58.00
2.57440	58.00
2.59107	58.00
2.60773	58.00
2.62440	58.00
2.64107	58.00
2.65773	58.00
2.67440	58.00
2.69107	58.00
2.70773	58.00
2.72440	58.00
2.74107	58.00
2.75773	58.00
2.77440	58.00
2.79107	58.00
2.80773	58.00
2.82440	58.00
2.84107	58.00
2.85773	58.00
2.87440	58.00
2.89107	58.00
2.90773	58.00
2.92440	58.00
2.94107	58.00
2.95773	58.00
2.97440	58.00
2.99107	58.00
3.00773	58.00
3.02440	58.00
3.04107	58.00
3.05773	58.00
3.07440	58.00
3.09107	58.00
3.10773	58.00
3.12440	58.00
3.14107	58.00
3.15773	58.00
3.17440	58.00
3.19107	58.00
3.20773	58.00
3.22440	58.00
3.24107	58.00
3.25773	58.00
3.27440	58.00
3.29107	58.00
3.30773	58.00
3.32440	58.00
3.34107	58.00
3.35773	58.00
3.37440	58.00
3.39107	58.00
3.40773	58.00
3.42440	58.00
3.44107	58.00
3.45773	58.00
3.47440	58.00
3.49107	58.00
3.50773	58.00
3.52440	58.00
3.54107	58.00
3.55773	58.00
3.57440	58.00
3.59107	58.00
3.60773	58.00
3.62440	58.00
3.64107	58.00
3.65773	58.00
3.67440	58.00
3.69107	58.00
3.70773	58.00
3.72440	58.00
3.74107	58.00
3.75773	58.00
3.77440	58.00
3.79107	58.00
3.80773	58.00
3.82440	58.00
3.84107	58.00
3.85773	58.00
3.87440	58.00
3.89107	58.00
3.90773	58.00
3.92440	58.00
3.94107	58.00
3.95773	58.00
3.97440	58.00
3.99107	58.00

[Status Trace (Carrier Gas Flow)]
Interval(msec)	1000
# of Points	240
Start Time(min)	0.008
End Time(min)	3.991
Intensity Units	
Intensity Multiplier	1
R.Time (min)	Intensity
0.00773	34.52
0.02440	34.54
0.04107	34.54
0.05773	34.54
0.07440	34.52
0.09107	34.52
0.10773	34.52
0.12440	34.52
0.14107	34.52
0.15773	34.52
0.17440	34.52
0.19107	34.52
0.20773	34.52
0.22440	34.52
0.24107	34.52
0.25773	34.52
0.27440	34.52
0.29107	34.52
0.30773	34.52
0.32440	34.52
0.34107	34.52
0.35773	34.52
0.37440	34.52
0.39107	34.52
0.40773	34.52
0.42440	34.52
0.44107	34.52
0.45773	34.52
0.47440	34.52
0.49107	34.52
0.50773	34.52
0.52440	34.52
0.54107	34.52
0.55773	34.52
0.57440	34.52
0.59107	34.52
0.60773	34.52
0.62440	34.52
0.64107	34.53
0.65773	34.52
0.67440	34.52
0.69107	34.52
0.70773	34.52
0.72440	34.52
0.74107	34.53
0.75773	34.52
0.77440	34.52
0.79107	34.52
0.80773	34.52
0.82440	34.52
0.84107	34.52
0.85773	34.52
0.87440	34.52
0.89107	34.53
0.90773	34.52
0.92440	34.51
0.94107	34.53
0.95773	34.52
0.97440	34.52
0.99107	34.52
1.00773	34.51
1.02440	34.52
1.04107	34.52
1.05773	34.52
1.07440	34.51
1.09107	34.52
1.10773	34.52
1.12440	34.52
1.14107	34.53
1.15773	34.52
1.17440	34.51
1.19107	34.52
1.20773	34.52
1.22440	34.52
1.24107	34.52
1.25773	34.51
1.27440	34.53
1.29107	34.52
1.30773	34.52
1.32440	34.52
1.34107	34.54
1.35773	34.54
1.37440	34.52
1.39107	34.52
1.40773	34.52
1.42440	34.52
1.44107	34.51
1.45773	34.52
1.47440	34.52
1.49107	34.52
1.50773	34.52
1.52440	34.53
1.54107	34.50
1.55773	34.52
1.57440	34.52
1.59107	34.53
1.60773	34.51
1.62440	34.52
1.64107	34.53
1.65773	34.50
1.67440	34.52
1.69107	34.52
1.70773	34.52
1.72440	34.52
1.74107	34.52
1.75773	34.53
1.77440	34.52
1.79107	34.51
1.80773	34.52
1.82440	34.52
1.84107	34.52
1.85773	34.52
1.87440	34.52
1.89107	34.52
1.90773	34.51
1.92440	34.53
1.94107	34.51
1.95773	34.52
1.97440	34.51
1.99107	34.52
2.00773	34.52
2.02440	34.51
2.04107	34.53
2.05773	34.54
2.07440	34.50
2.09107	34.52
2.10773	34.52
2.12440	34.52
2.14107	34.52
2.15773	34.51
2.17440	34.52
2.19107	34.52
2.20773	34.52
2.22440	34.52
2.24107	34.53
2.25773	34.53
2.27440	34.53
2.29107	34.52
2.30773	34.51
2.32440	34.51
2.34107	34.53
2.35773	34.51
2.37440	34.52
2.39107	34.53
2.40773	34.52
2.42440	34.52
2.44107	34.52
2.45773	34.52
2.47440	34.52
2.49107	34.52
2.50773	34.34
2.52440	34.52
2.54107	34.52
2.55773	34.52
2.57440	34.52
2.59107	34.52
2.60773	34.52
2.62440	34.52
2.64107	34.52
2.65773	34.52
2.67440	34.52
2.69107	34.52
2.70773	34.52
2.72440	34.52
2.74107	34.52
2.75773	34.52
2.77440	34.52
2.79107	34.52
2.80773	34.52
2.82440	34.52
2.84107	34.52
2.85773	34.52
2.87440	34.52
2.89107	34.52
2.90773	34.52
2.92440	34.52
2.94107	34.52
2.95773	34.52
2.97440	34.52
2.99107	34.52
3.00773	34.52
3.02440	34.52
3.04107	34.52
3.05773	34.52
3.07440	34.52
3.09107	34.52
3.10773	34.52
3.12440	34.52
3.14107	34.52
3.15773	34.52
3.17440	34.52
3.19107	34.52
3.20773	34.52
3.22440	34.52
3.24107	34.52
3.25773	34.52
3.27440	34.52
3.29107	34.52
3.30773	34.52
3.32440	34.52
3.34107	34.52
3.35773	34.52
3.37440	34.52
3.39107	34.52
3.40773	34.52
3.42440	34.52
3.44107	34.52
3.45773	34.52
3.47440	34.52
3.49107	34.52
3.50773	34.52
3.52440	34.52
3.54107	34.52
3.55773	34.53
3.57440	34.52
3.59107	34.52
3.60773	34.51
3.62440	34.52
3.64107	34.52
3.65773	34.52
3.67440	34.53
3.69107	34.52
3.70773	34.52
3.72440	34.52
3.74107	34.51
3.75773	34.52
3.77440	34.52
3.79107	34.52
3.80773	34.52
3.82440	34.53
3.84107	34.50
3.85773	34.52
3.87440	34.52
3.89107	34.52
3.90773	34.51
3.92440	34.52
3.94107	34.52
3.95773	34.52
3.97440	34.52
3.99107	34.52

[Status Trace (Column Flow)]
Interval(msec)	1000
# of Points	240
Start Time(min)	0.008
End Time(min)	3.991
Intensity Units	
Intensity Multiplier	1
R.Time (min)	Intensity
0.00773	5.46
0.02440	5.16
0.04107	5.35
0.05773	5.59
0.07440	5.63
0.09107	5.47
0.10773	5.46
0.12440	5.46
0.14107	5.46
0.15773	5.46
0.17440	5.46
0.19107	5.46
0.20773	5.46
0.22440	5.46
0.24107	5.46
0.25773	5.46
0.27440	5.46
0.29107	5.46
0.30773	5.46
0.32440	5.46
0.34107	5.46
0.35773	5.46
0.37440	5.46
0.39107	5.46
0.40773	5.46
0.42440	5.46
0.44107	5.46
0.45773	5.46
0.47440	5.46
0.49107	5.46
0.50773	5.46
0.52440	5.46
0.54107	5.46
0.55773	5.46
0.57440	5.46
0.59107	5.46
0.60773	5.46
0.62440	5.46
0.64107	5.46
0.65773	5.46
0.67440	5.46
0.69107	5.46
0.70773	5.46
0.72440	5.46
0.74107	5.46
0.75773	5.46
0.77440	5.46
0.79107	5.46
0.80773	5.46
0.82440	5.46
0.84107	5.46
0.85773	5.46
0.87440	5.46
0.89107	5.46
0.90773	5.46
0.92440	5.46
0.94107	5.46
0.95773	5.46
0.97440	5.46
0.99107	5.46
1.00773	5.46
1.02440	5.46
1.04107	5.46
1.05773	5.46
1.07440	5.46
1.09107	5.46
1.10773	5.46
1.12440	5.46
1.14107	5.46
1.15773	5.46
1.17440	5.46
1.19107	5.46
1.20773	5.46
1.22440	5.46
1.24107	5.46
1.25773	5.46
1.27440	5.46
1.29107	5.46
1.30773	5.46
1.32440	5.46
1.34107	5.46
1.35773	5.46
1.37440	5.46
1.39107	5.46
1.40773	5.46
1.42440	5.46
1.44107	5.46
1.45773	5.46
1.47440	5.46
1.49107	5.46
1.50773	5.46
1.52440	5.46
1.54107	5.46
1.55773	5.46
1.57440	5.46
1.59107	5.46
1.60773	5.46
1.62440	5.46
1.64107	5.45
1.65773	5.44
1.67440	5.43
1.69107	5.42
1.70773	5.41
1.72440	5.40
1.74107	5.39
1.75773	5.38
1.77440	5.37
1.79107	5.36
1.80773	5.35
1.82440	5.34
1.84107	5.33
1.85773	5.32
1.87440	5.31
1.89107	5.30
1.90773	5.29
1.92440	5.28
1.94107	5.27
1.95773	5.26
1.97440	5.25
1.99107	5.24
2.00773	5.23
2.02440	5.22
2.04107	5.21
2.05773	5.20
2.07440	5.19
2.09107	5.18
2.10773	5.18
2.12440	5.17
2.14107	5.16
2.15773	5.15
2.17440	5.14
2.19107	5.13
2.20773	5.12
2.22440	5.11
2.24107	5.10
2.25773	5.09
2.27440	5.08
2.29107	5.07
2.30773	5.06
2.32440	5.06
2.34107	5.05
2.35773	5.04
2.37440	5.03
2.39107	5.03
2.40773	5.03
2.42440	5.03
2.44107	5.03
2.45773	5.03
2.47440	5.03
2.49107	5.03
2.50773	5.03
2.52440	5.03
2.54107	5.03
2.55773	5.03
2.57440	5.03
2.59107	5.03
2.60773	5.03
2.62440	5.03
2.64107	5.03
2.65773	5.03
2.67440	5.03
2.69107	5.03
2.70773	5.03
2.72440	5.03
2.74107	5.03
2.75773	5.03
2.77440	5.03
2.79107	5.03
2.80773	5.03
2.82440	5.03
2.84107	5.03
2.85773	5.03
2.87440	5.03
2.89107	5.02
2.90773	5.02
2.92440	5.02
2.94107	5.02
2.95773	5.02
2.97440	5.02
2.99107	5.02
3.00773	5.02
3.02440	5.02
3.04107	5.02
3.05773	5.02
3.07440	5.02
3.09107	5.02
3.10773	5.02
3.12440	5.02
3.14107	5.02
3.15773	5.02
3.17440	5.02
3.19107	5.02
3.20773	5.02
3.22440	5.02
3.24107	5.02
3.25773	5.02
3.27440	5.02
3.29107	5.02
3.30773	5.02
3.32440	5.02
3.34107	5.02
3.35773	5.02
3.37440	5.02
3.39107	5.02
3.40773	5.02
3.42440	5.02
3.44107	5.02
3.45773	5.02
3.47440	5.02
3.49107	5.02
3.50773	5.02
3.52440	5.02
3.54107	5.02
3.55773	5.02
3.57440	5.02
3.59107	5.02
3.60773	5.02
3.62440	5.02
3.64107	5.02
3.65773	5.02
3.67440	5.02
3.69107	5.02
3.70773	5.02
3.72440	5.02
3.74107	5.02
3.75773	5.02
3.77440	5.02
3.79107	5.02
3.80773	5.02
3.82440	5.02
3.84107	5.02
3.85773	5.02
3.87440	5.02
3.89107	5.02
3.90773	5.02
3.92440	5.02
3.94107	5.02
3.95773	5.02
3.97440	5.02
3.99107	5.02

[Status Trace (Linear Velocity)]
Interval(msec)	1000
# of Points	240
Start Time(min)	0.008
End Time(min)	3.991
Intensity Units	
Intensity Multiplier	1
R.Time (min)	Intensity
0.00773	38.99
0.02440	37.30
0.04107	38.40
0.05773	39.74
0.07440	39.98
0.09107	39.04
0.10773	38.98
0.12440	39.01
0.14107	39.01
0.15773	39.01
0.17440	39.01
0.19107	39.00
0.20773	39.00
0.22440	39.01
0.24107	39.01
0.25773	39.01
0.27440	39.01
0.29107	39.01
0.30773	39.01
0.32440	39.01
0.34107	39.01
0.35773	39.01
0.37440	39.01
0.39107	39.01
0.40773	39.00
0.42440	39.00
0.44107	39.00
0.45773	39.00
0.47440	39.00
0.49107	39.00
0.50773	39.00
0.52440	39.00
0.54107	39.00
0.55773	39.01
0.57440	39.01
0.59107	39.01
0.60773	39.01
0.62440	39.01
0.64107	39.01
0.65773	39.01
0.67440	39.01
0.69107	39.01
0.70773	39.00
0.72440	39.00
0.74107	39.00
0.75773	39.00
0.77440	39.00
0.79107	39.00
0.80773	39.00
0.82440	39.00
0.84107	39.00
0.85773	39.00
0.87440	39.00
0.89107	39.00
0.90773	39.01
0.92440	39.01
0.94107	39.01
0.95773	39.00
0.97440	39.00
0.99107	39.00
1.00773	39.00
1.02440	39.00
1.04107	39.00
1.05773	39.00
1.07440	39.01
1.09107	39.01
1.10773	39.00
1.12440	39.00
1.14107	39.00
1.15773	39.00
1.17440	39.00
1.19107	39.00
1.20773	39.00
1.22440	39.00
1.24107	39.00
1.25773	39.00
1.27440	39.00
1.29107	39.00
1.30773	39.00
1.32440	39.00
1.34107	39.00
1.35773	39.01
1.37440	39.01
1.39107	39.00
1.40773	39.00
1.42440	39.00
1.44107	39.00
1.45773	39.00
1.47440	39.00
1.49107	39.00
1.50773	39.00
1.52440	39.00
1.54107	39.00
1.55773	39.00
1.57440	39.00
1.59107	39.00
1.60773	39.00
1.62440	38.99
1.64107	38.97
1.65773	38.95
1.67440	38.92
1.69107	38.88
1.70773	38.85
1.72440	38.81
1.74107	38.78
1.75773	38.75
1.77440	38.72
1.79107	38.68
1.80773	38.65
1.82440	38.63
1.84107	38.59
1.85773	38.56
1.87440	38.53
1.89107	38.50
1.90773	38.47
1.92440	38.44
1.94107	38.40
1.95773	38.38
1.97440	38.35
1.99107	38.31
2.00773	38.29
2.02440	38.26
2.04107	38.22
2.05773	38.20
2.07440	38.17
2.09107	38.14
2.10773	38.11
2.12440	38.08
2.14107	38.05
2.15773	38.02
2.17440	37.99
2.19107	37.96
2.20773	37.93
2.22440	37.90
2.24107	37.87
2.25773	37.84
2.27440	37.81
2.29107	37.78
2.30773	37.75
2.32440	37.72
2.34107	37.69
2.35773	37.67
2.37440	37.65
2.39107	37.64
2.40773	37.64
2.42440	37.64
2.44107	37.64
2.45773	37.64
2.47440	37.64
2.49107	37.64
2.50773	37.64
2.52440	37.63
2.54107	37.64
2.55773	37.64
2.57440	37.63
2.59107	37.63
2.60773	37.63
2.62440	37.63
2.64107	37.63
2.65773	37.63
2.67440	37.63
2.69107	37.63
2.70773	37.63
2.72440	37.63
2.74107	37.63
2.75773	37.63
2.77440	37.63
2.79107	37.63
2.80773	37.63
2.82440	37.63
2.84107	37.63
2.85773	37.63
2.87440	37.63
2.89107	37.62
2.90773	37.62
2.92440	37.62
2.94107	37.62
2.95773	37.62
2.97440	37.62
2.99107	37.62
3.00773	37.62
3.02440	37.62
3.04107	37.61
3.05773	37.61
3.07440	37.61
3.09107	37.61
3.10773	37.61
3.12440	37.61
3.14107	37.61
3.15773	37.61
3.17440	37.61
3.19107	37.61
3.20773	37.61
3.22440	37.61
3.24107	37.61
3.25773	37.61
3.27440	37.61
3.29107	37.61
3.30773	37.61
3.32440	37.61
3.34107	37.61
3.35773	37.61
3.37440	37.61
3.39107	37.61
3.40773	37.61
3.42440	37.61
3.44107	37.61
3.45773	37.61
3.47440	37.61
3.49107	37.61
3.50773	37.61
3.52440	37.61
3.54107	37.61
3.55773	37.61
3.57440	37.61
3.59107	37.61
3.60773	37.61
3.62440	37.61
3.64107	37.61
3.65773	37.61
3.67440	37.61
3.69107	37.61
3.70773	37.61
3.72440	37.61
3.74107	37.61
3.75773	37.62
3.77440	37.62
3.79107	37.62
3.80773	37.62
3.82440	37.62
3.84107	37.62
3.85773	37.62
3.87440	37.61
3.89107	37.61
3.90773	37.61
3.92440	37.61
3.94107	37.62
3.95773	37.62
3.97440	37.62
3.99107	37.62

