[Header]
Application Name	LabSolutions
Version	5.110
Data File Name	C:\Users\User\Desktop\GC Analyses\Jack\UIC Prairie Sampling\8.12.22\220812_087.gcd
Output Date	10/14/2022
Output Time	2:33:55 PM

[File Information]
Type	Data File
Generated	10/13/2022 2:15:08 PM
Generated by	System Administrator
Modified	10/13/2022 2:19:24 PM
Modified by	System Administrator

[Sample Information]
Operator Name	System Administrator
Acquired	10/13/2022 2:15:23 PM
Sample Type	1:Standard
Level	1
Sample Name	220812_UICPrairie
Sample ID	220812_UICPrairie
ISTD Amount1	1
ISTD Amount2	1
ISTD Amount3	1
ISTD Amount4	1
ISTD Amount5	1
ISTD Amount6	1
ISTD Amount7	1
ISTD Amount8	1
ISTD Amount9	1
ISTD Amount10	1
ISTD Amount11	1
ISTD Amount12	1
ISTD Amount13	1
ISTD Amount14	1
ISTD Amount15	1
ISTD Amount16	1
ISTD Amount17	1
ISTD Amount18	1
ISTD Amount19	1
ISTD Amount20	1
ISTD Amount21	1
ISTD Amount22	1
ISTD Amount23	1
ISTD Amount24	1
ISTD Amount25	1
ISTD Amount26	1
ISTD Amount27	1
ISTD Amount28	1
ISTD Amount29	1
ISTD Amount30	1
ISTD Amount31	1
ISTD Amount32	1
Sample Amount	1
Dilution Factor	1
Vial#	1
Injection Volume	1
Injection Count	1
Bar Code	

[Original Files]
Data File	C:\Users\User\Desktop\GC Analyses\Jack\UIC Prairie Sampling\8.12.22\220812_087.gcd
Method File	C:\LabSolutions\Data\GHG_4min_2022\ghg3_togas_w_acet_4 min_new_int.gcm
Batch File	
Report Format File	c:\LabSolutions\System\DEFAULT.lsr

[File Description]


[Configuration]
Instrument Name	C0B7VH3-Instrument1
Instrument #	1
Line #	1
# of Detectors	3
Detector ID	DET#1	DET#2	DET#3
Detector Name	FID	PTCD	ECD
# of Channels	1	1	1

[Peak Table(Ch1)]
# of Peaks	3
Peak#	R.Time	I.Time	F.Time	Area	Height	A/H	Conc.	Mark	ID#	Name	k'	Plate #	Plate Ht.	Tailing	Resolution	Sep.Factor	Area Ratio	Height Ratio	Conc. %	Norm Conc.
1	1.468	1.439	1.534	5036	1884	2.672	100.000	   	1	CO	0.000	6299	23.811	1.671	0.000	0.000	0	0	16.667	16.667
2	1.571	1.534	1.641	19971	10219	1.954	100.000	 V 	2	CH4	0.070	11578	12.955	1.242	1.551	0.000	0	0	16.667	16.667
3	2.000	1.949	2.301	2070217	1014027	2.042	400.000	   	3	CO2	0.362	17728	8.461	1.258	7.242	5.179	0	0	66.667	66.667

[Peak Table(Ch2)]
# of Peaks	0

[Peak Table(Ch3)]
# of Peaks	3
Peak#	R.Time	I.Time	F.Time	Area	Height	A/H	Conc.	Mark	ID#	Name	k'	Plate #	Plate Ht.	Tailing	Resolution	Sep.Factor	Area Ratio	Height Ratio	Conc. %	Norm Conc.
1	2.458	2.103	2.572	6411	421	15.219	0.000	   			0.000	68	2215.388	0.000	0.000	0.000	0	0	0.000	0.000
2	2.594	2.572	2.649	1109	346	3.207	0.000	 V 			0.055	194	773.950	0.000	0.140	0.000	0	0	0.000	0.000
3	2.887	2.660	3.965	72761	15687	4.638	1.000	   	1	N2O	0.175	12285	12.210	1.645	0.691	3.162	0	0	100.000	100.000

[Compound Results(Ch1)]
# of IDs	6
ID#	Name	R.Time	Area	Height	Conc.	Curve	3rd	2nd	1st	Constant	Area Ratio	Height Ratio	Conc. %	Norm Conc.
1	CO	1.468	5036	1884	100.000	Linear	0.000000e+00	0.000000e+00	5.036016e+001	0.000000e+00	0	0	16.667	16.667
2	CH4	1.571	19971	10219	100.000	Linear	0.000000e+00	0.000000e+00	1.997056e+002	0.000000e+00	0	0	16.667	16.667
3	CO2	2.000	2070217	1014027	400.000	Linear	0.000000e+00	0.000000e+00	5.175543e+003	0.000000e+00	0	0	66.667	66.667
4	Ethylene	0.000	0	0	0.000	Linear	0.000000e+00	0.000000e+00	0.000000e+00	0.000000e+00	0	0	0.000	0.000
5	Acetylene	0.000	0	0	0.000	Linear	0.000000e+00	0.000000e+00	0.000000e+00	0.000000e+00	0	0	0.000	0.000
6	Ethane	0.000	0	0	0.000	Linear	0.000000e+00	0.000000e+00	0.000000e+00	0.000000e+00	0	0	0.000	0.000

[Compound Results(Ch2)]
# of IDs	5
ID#	Name	R.Time	Area	Height	Conc.	Curve	3rd	2nd	1st	Constant	Area Ratio	Height Ratio	Conc. %	Norm Conc.
1	Hydrogen	0.000	0	0	0.000	Linear	0.000000e+00	0.000000e+00	0.000000e+00	0.000000e+00	0	0	0.000	0.000
2	Oxygen	0.000	0	0	0.000	Linear	0.000000e+00	0.000000e+00	0.000000e+00	0.000000e+00	0	0	0.000	0.000
3	Nitrogen	0.000	0	0	0.000	Linear	0.000000e+00	0.000000e+00	0.000000e+00	0.000000e+00	0	0	0.000	0.000
4	Methane	0.000	0	0	0.000	Linear	0.000000e+00	0.000000e+00	0.000000e+00	0.000000e+00	0	0	0.000	0.000
5	Carbon Monoxide	0.000	0	0	0.000	Linear	0.000000e+00	0.000000e+00	0.000000e+00	0.000000e+00	0	0	0.000	0.000

[Compound Results(Ch3)]
# of IDs	2
ID#	Name	R.Time	Area	Height	Conc.	Curve	3rd	2nd	1st	Constant	Area Ratio	Height Ratio	Conc. %	Norm Conc.
1	N2O	2.887	72761	15687	1.000	Linear	0.000000e+00	0.000000e+00	7.276093e+004	0.000000e+00	0	0	100.000	100.000
2	SF6	0.000	0	0	0.000	Linear	0.000000e+00	0.000000e+00	0.000000e+00	0.000000e+00	0	0	0.000	0.000

[Group Results(Ch1)]
# of Groups	0

[Group Results(Ch2)]
# of Groups	0

[Group Results(Ch3)]
# of Groups	0

[Chromatogram (Ch1)]
Interval(msec)	220
# of Points	1091
Start Time(min)	0.002
End Time(min)	3.998
R.Time (min)	Intensity
0.00167	-15
0.00533	-17
0.00900	-23
0.01267	-31
0.01633	-38
0.02000	-42
0.02367	-44
0.02733	-43
0.03100	-42
0.03467	-40
0.03833	-38
0.04200	-37
0.04567	-34
0.04933	-28
0.05300	-23
0.05667	-20
0.06033	-19
0.06400	-17
0.06767	-15
0.07133	-11
0.07500	-7
0.07867	-6
0.08233	-6
0.08600	-6
0.08967	-8
0.09333	-10
0.09700	-14
0.10067	-19
0.10433	-24
0.10800	-29
0.11167	-35
0.11533	-39
0.11900	-39
0.12267	-36
0.12633	-33
0.13000	-31
0.13367	-29
0.13733	-25
0.14100	-24
0.14467	-25
0.14833	-25
0.15200	-27
0.15567	-28
0.15933	-23
0.16300	-18
0.16667	-15
0.17033	-13
0.17400	-10
0.17767	-7
0.18133	-7
0.18500	-11
0.18867	-13
0.19233	-10
0.19600	-12
0.19967	-16
0.20333	-19
0.20700	-22
0.21067	-22
0.21433	-23
0.21800	-25
0.22167	-29
0.22533	-32
0.22900	-29
0.23267	-22
0.23633	-17
0.24000	-13
0.24367	-10
0.24733	-8
0.25100	-9
0.25467	-10
0.25833	-11
0.26200	-11
0.26567	-13
0.26933	-16
0.27300	-19
0.27667	-23
0.28033	-27
0.28400	-26
0.28767	-25
0.29133	-24
0.29500	-23
0.29867	-21
0.30233	-15
0.30600	-5
0.30967	-0
0.31333	-2
0.31700	-8
0.32067	-14
0.32433	-17
0.32800	-17
0.33167	-17
0.33533	-21
0.33900	-26
0.34267	-27
0.34633	-25
0.35000	-21
0.35367	-17
0.35733	-17
0.36100	-19
0.36467	-22
0.36833	-27
0.37200	-34
0.37567	-43
0.37933	-51
0.38300	-55
0.38667	-53
0.39033	-49
0.39400	-45
0.39767	-40
0.40133	-35
0.40500	-32
0.40867	-30
0.41233	-28
0.41600	-25
0.41967	-25
0.42333	-26
0.42700	-30
0.43067	-36
0.43433	-40
0.43800	-38
0.44167	-32
0.44533	-28
0.44900	-25
0.45267	-24
0.45633	-25
0.46000	-24
0.46367	-22
0.46733	-24
0.47100	-27
0.47467	-28
0.47833	-28
0.48200	-29
0.48567	-30
0.48933	-30
0.49300	-25
0.49667	-17
0.50033	-11
0.50400	-12
0.50767	-18
0.51133	-28
0.51500	-34
0.51867	-35
0.52233	-34
0.52600	-35
0.52967	-43
0.53333	-53
0.53700	-63
0.54067	-72
0.54433	-79
0.54800	-83
0.55167	-85
0.55533	-85
0.55900	-80
0.56267	-73
0.56633	-65
0.57000	-56
0.57367	-49
0.57733	-44
0.58100	-39
0.58467	-37
0.58833	-39
0.59200	-45
0.59567	-54
0.59933	-60
0.60300	-63
0.60667	-64
0.61033	-62
0.61400	-57
0.61767	-46
0.62133	-34
0.62500	-26
0.62867	-24
0.63233	-25
0.63600	-26
0.63967	-27
0.64333	-31
0.64700	-34
0.65067	-35
0.65433	-33
0.65800	-31
0.66167	-33
0.66533	-37
0.66900	-41
0.67267	-40
0.67633	-36
0.68000	-33
0.68367	-31
0.68733	-28
0.69100	-23
0.69467	-21
0.69833	-21
0.70200	-22
0.70567	-22
0.70933	-24
0.71300	-31
0.71667	-43
0.72033	-52
0.72400	-54
0.72767	-47
0.73133	-36
0.73500	-23
0.73867	-14
0.74233	-8
0.74600	-7
0.74967	-10
0.75333	-14
0.75700	-21
0.76067	-30
0.76433	-37
0.76800	-41
0.77167	-40
0.77533	-35
0.77900	-28
0.78267	-21
0.78633	-17
0.79000	-17
0.79367	-17
0.79733	-19
0.80100	-23
0.80467	-27
0.80833	-30
0.81200	-33
0.81567	-34
0.81933	-37
0.82300	-41
0.82667	-42
0.83033	-39
0.83400	-32
0.83767	-26
0.84133	-25
0.84500	-28
0.84867	-29
0.85233	-26
0.85600	-23
0.85967	-21
0.86333	-22
0.86700	-22
0.87067	-21
0.87433	-21
0.87800	-26
0.88167	-32
0.88533	-35
0.88900	-33
0.89267	-36
0.89633	-44
0.90000	-51
0.90367	-54
0.90733	-56
0.91100	-56
0.91467	-54
0.91833	-49
0.92200	-41
0.92567	-31
0.92933	-22
0.93300	-18
0.93667	-20
0.94033	-25
0.94400	-30
0.94767	-35
0.95133	-40
0.95500	-42
0.95867	-40
0.96233	-35
0.96600	-31
0.96967	-27
0.97333	-25
0.97700	-25
0.98067	-26
0.98433	-26
0.98800	-23
0.99167	-20
0.99533	-21
0.99900	-25
1.00267	-31
1.00633	-33
1.01000	-29
1.01367	-26
1.01733	-25
1.02100	-27
1.02467	-27
1.02833	-25
1.03200	-21
1.03567	-17
1.03933	-18
1.04300	-21
1.04667	-23
1.05033	-25
1.05400	-30
1.05767	-36
1.06133	-40
1.06500	-41
1.06867	-39
1.07233	-35
1.07600	-32
1.07967	-30
1.08333	-28
1.08700	-30
1.09067	-34
1.09433	-36
1.09800	-35
1.10167	-34
1.10533	-39
1.10900	-46
1.11267	-50
1.11633	-49
1.12000	-45
1.12367	-40
1.12733	-37
1.13100	-34
1.13467	-33
1.13833	-33
1.14200	-33
1.14567	-35
1.14933	-37
1.15300	-34
1.15667	-32
1.16033	-34
1.16400	-36
1.16767	-39
1.17133	-43
1.17500	-45
1.17867	-45
1.18233	-44
1.18600	-45
1.18967	-46
1.19333	-45
1.19700	-44
1.20067	-45
1.20433	-45
1.20800	-44
1.21167	-43
1.21533	-41
1.21900	-36
1.22267	-31
1.22633	-28
1.23000	-28
1.23367	-27
1.23733	-25
1.24100	-20
1.24467	-16
1.24833	-14
1.25200	-17
1.25567	-20
1.25933	-21
1.26300	-24
1.26667	-29
1.27033	-35
1.27400	-40
1.27767	-42
1.28133	-40
1.28500	-36
1.28867	-29
1.29233	-24
1.29600	-22
1.29967	-25
1.30333	-30
1.30700	-35
1.31067	-39
1.31433	-39
1.31800	-40
1.32167	-42
1.32533	-46
1.32900	-45
1.33267	-42
1.33633	-41
1.34000	-40
1.34367	-38
1.34733	-33
1.35100	-30
1.35467	-30
1.35833	-31
1.36200	-31
1.36567	-32
1.36933	-32
1.37300	-29
1.37667	-28
1.38033	-29
1.38400	-30
1.38767	-33
1.39133	-38
1.39500	-40
1.39867	-38
1.40233	-36
1.40600	-33
1.40967	-30
1.41333	-24
1.41700	-17
1.42067	-14
1.42433	-16
1.42800	-20
1.43167	-23
1.43533	-23
1.43900	-15
1.44267	38
1.44633	245
1.45000	653
1.45367	1112
1.45733	1482
1.46100	1720
1.46467	1840
1.46833	1870
1.47200	1839
1.47567	1763
1.47933	1655
1.48300	1523
1.48667	1368
1.49033	1191
1.49400	1004
1.49767	818
1.50133	647
1.50500	499
1.50867	376
1.51233	280
1.51600	209
1.51967	156
1.52333	113
1.52700	80
1.53067	55
1.53433	38
1.53800	37
1.54167	112
1.54533	454
1.54900	1358
1.55267	2934
1.55633	4920
1.56000	6884
1.56367	8516
1.56733	9666
1.57100	10209
1.57467	10009
1.57833	9042
1.58200	7530
1.58567	5838
1.58933	4274
1.59300	2995
1.59667	2031
1.60033	1345
1.60400	877
1.60767	565
1.61133	363
1.61500	231
1.61867	143
1.62233	84
1.62600	45
1.62967	19
1.63333	5
1.63700	-3
1.64067	-7
1.64433	-11
1.64800	-15
1.65167	-21
1.65533	-25
1.65900	-26
1.66267	-28
1.66633	-34
1.67000	-38
1.67367	-42
1.67733	-46
1.68100	-48
1.68467	-48
1.68833	-46
1.69200	-43
1.69567	-39
1.69933	-35
1.70300	-31
1.70667	-31
1.71033	-33
1.71400	-37
1.71767	-39
1.72133	-39
1.72500	-38
1.72867	-38
1.73233	-35
1.73600	-33
1.73967	-33
1.74333	-36
1.74700	-38
1.75067	-36
1.75433	-30
1.75800	-24
1.76167	-22
1.76533	-25
1.76900	-31
1.77267	-39
1.77633	-45
1.78000	-47
1.78367	-43
1.78733	-39
1.79100	-33
1.79467	-26
1.79833	-22
1.80200	-23
1.80567	-28
1.80933	-28
1.81300	-22
1.81667	-15
1.82033	-10
1.82400	-11
1.82767	-17
1.83133	-26
1.83500	-33
1.83867	-35
1.84233	-32
1.84600	-23
1.84967	-14
1.85333	-5
1.85700	-2
1.86067	-4
1.86433	-9
1.86800	-12
1.87167	-17
1.87533	-22
1.87900	-25
1.88267	-26
1.88633	-28
1.89000	-33
1.89367	-40
1.89733	-46
1.90100	-49
1.90467	-51
1.90833	-51
1.91200	-51
1.91567	-50
1.91933	-47
1.92300	-42
1.92667	-38
1.93033	-34
1.93400	-29
1.93767	-24
1.94133	-20
1.94500	-15
1.94867	-9
1.95233	-0
1.95600	27
1.95967	191
1.96333	1143
1.96700	5577
1.97067	21300
1.97433	63799
1.97800	152169
1.98167	295667
1.98533	481074
1.98900	676582
1.99267	847050
1.99633	964884
2.00000	1014068
2.00367	990077
2.00733	900985
2.01100	766775
2.01467	613803
2.01833	466059
2.02200	339137
2.02567	239098
2.02933	165023
2.03300	112551
2.03667	76495
2.04033	52196
2.04400	35999
2.04767	25246
2.05133	18099
2.05500	13315
2.05867	10070
2.06233	7830
2.06600	6251
2.06967	5114
2.07333	4273
2.07700	3638
2.08067	3148
2.08433	2765
2.08800	2460
2.09167	2210
2.09533	2000
2.09900	1824
2.10267	1673
2.10633	1543
2.11000	1429
2.11367	1333
2.11733	1255
2.12100	1190
2.12467	1131
2.12833	1075
2.13200	1020
2.13567	968
2.13933	924
2.14300	889
2.14667	856
2.15033	820
2.15400	783
2.15767	745
2.16133	709
2.16500	683
2.16867	662
2.17233	644
2.17600	625
2.17967	606
2.18333	586
2.18700	566
2.19067	547
2.19433	530
2.19800	517
2.20167	511
2.20533	507
2.20900	504
2.21267	502
2.21633	494
2.22000	482
2.22367	468
2.22733	449
2.23100	429
2.23467	413
2.23833	402
2.24200	397
2.24567	392
2.24933	388
2.25300	382
2.25667	374
2.26033	367
2.26400	361
2.26767	360
2.27133	362
2.27500	364
2.27867	362
2.28233	355
2.28600	346
2.28967	337
2.29333	334
2.29700	332
2.30067	328
2.30433	326
2.30800	325
2.31167	325
2.31533	325
2.31900	323
2.32267	320
2.32633	319
2.33000	320
2.33367	324
2.33733	330
2.34100	331
2.34467	325
2.34833	317
2.35200	307
2.35567	296
2.35933	283
2.36300	271
2.36667	261
2.37033	253
2.37400	248
2.37767	247
2.38133	249
2.38500	254
2.38867	261
2.39233	267
2.39600	271
2.39967	275
2.40333	281
2.40700	292
2.41067	304
2.41433	313
2.41800	313
2.42167	308
2.42533	297
2.42900	284
2.43267	274
2.43633	270
2.44000	268
2.44367	267
2.44733	268
2.45100	270
2.45467	273
2.45833	275
2.46200	275
2.46567	272
2.46933	266
2.47300	259
2.47667	256
2.48033	253
2.48400	253
2.48767	253
2.49133	253
2.49500	257
2.49867	260
2.50233	259
2.50600	255
2.50967	251
2.51333	249
2.51700	248
2.52067	247
2.52433	248
2.52800	252
2.53167	261
2.53533	269
2.53900	269
2.54267	265
2.54633	264
2.55000	261
2.55367	256
2.55733	251
2.56100	246
2.56467	240
2.56833	235
2.57200	230
2.57567	227
2.57933	227
2.58300	233
2.58667	244
2.59033	256
2.59400	260
2.59767	256
2.60133	250
2.60500	244
2.60867	241
2.61233	240
2.61600	239
2.61967	239
2.62333	235
2.62700	229
2.63067	221
2.63433	212
2.63800	204
2.64167	200
2.64533	201
2.64900	208
2.65267	216
2.65633	224
2.66000	232
2.66367	238
2.66733	237
2.67100	227
2.67467	217
2.67833	210
2.68200	206
2.68567	204
2.68933	201
2.69300	199
2.69667	199
2.70033	204
2.70400	210
2.70767	212
2.71133	209
2.71500	207
2.71867	204
2.72233	200
2.72600	197
2.72967	195
2.73333	194
2.73700	196
2.74067	200
2.74433	205
2.74800	208
2.75167	212
2.75533	214
2.75900	216
2.76267	219
2.76633	222
2.77000	224
2.77367	223
2.77733	220
2.78100	216
2.78467	213
2.78833	211
2.79200	211
2.79567	214
2.79933	221
2.80300	224
2.80667	222
2.81033	216
2.81400	211
2.81767	209
2.82133	208
2.82500	208
2.82867	208
2.83233	205
2.83600	201
2.83967	200
2.84333	203
2.84700	205
2.85067	211
2.85433	217
2.85800	219
2.86167	217
2.86533	216
2.86900	216
2.87267	212
2.87633	206
2.88000	201
2.88367	201
2.88733	202
2.89100	203
2.89467	203
2.89833	202
2.90200	201
2.90567	203
2.90933	204
2.91300	205
2.91667	210
2.92033	217
2.92400	220
2.92767	219
2.93133	216
2.93500	210
2.93867	204
2.94233	198
2.94600	194
2.94967	189
2.95333	185
2.95700	181
2.96067	176
2.96433	173
2.96800	175
2.97167	180
2.97533	189
2.97900	200
2.98267	205
2.98633	204
2.99000	198
2.99367	192
2.99733	190
3.00100	191
3.00467	194
3.00833	199
3.01200	204
3.01567	207
3.01933	207
3.02300	206
3.02667	205
3.03033	205
3.03400	202
3.03767	196
3.04133	192
3.04500	191
3.04867	195
3.05233	201
3.05600	205
3.05967	209
3.06333	211
3.06700	211
3.07067	212
3.07433	216
3.07800	217
3.08167	214
3.08533	209
3.08900	204
3.09267	202
3.09633	199
3.10000	199
3.10367	204
3.10733	208
3.11100	206
3.11467	200
3.11833	198
3.12200	198
3.12567	198
3.12933	197
3.13300	195
3.13667	195
3.14033	195
3.14400	198
3.14767	201
3.15133	204
3.15500	207
3.15867	211
3.16233	214
3.16600	215
3.16967	212
3.17333	206
3.17700	201
3.18067	199
3.18433	194
3.18800	188
3.19167	183
3.19533	181
3.19900	182
3.20267	185
3.20633	188
3.21000	191
3.21367	194
3.21733	194
3.22100	194
3.22467	195
3.22833	195
3.23200	194
3.23567	195
3.23933	194
3.24300	194
3.24667	192
3.25033	188
3.25400	183
3.25767	182
3.26133	183
3.26500	184
3.26867	187
3.27233	188
3.27600	190
3.27967	196
3.28333	205
3.28700	212
3.29067	217
3.29433	216
3.29800	209
3.30167	199
3.30533	191
3.30900	187
3.31267	182
3.31633	177
3.32000	177
3.32367	180
3.32733	184
3.33100	188
3.33467	190
3.33833	193
3.34200	199
3.34567	205
3.34933	205
3.35300	199
3.35667	190
3.36033	181
3.36400	173
3.36767	166
3.37133	163
3.37500	165
3.37867	168
3.38233	171
3.38600	172
3.38967	173
3.39333	174
3.39700	175
3.40067	177
3.40433	183
3.40800	188
3.41167	191
3.41533	190
3.41900	187
3.42267	185
3.42633	186
3.43000	187
3.43367	188
3.43733	188
3.44100	187
3.44467	183
3.44833	180
3.45200	181
3.45567	184
3.45933	186
3.46300	188
3.46667	188
3.47033	188
3.47400	189
3.47767	188
3.48133	186
3.48500	182
3.48867	180
3.49233	179
3.49600	183
3.49967	188
3.50333	196
3.50700	204
3.51067	205
3.51433	197
3.51800	185
3.52167	175
3.52533	171
3.52900	171
3.53267	173
3.53633	175
3.54000	179
3.54367	184
3.54733	190
3.55100	193
3.55467	193
3.55833	194
3.56200	194
3.56567	192
3.56933	187
3.57300	184
3.57667	184
3.58033	186
3.58400	187
3.58767	183
3.59133	180
3.59500	178
3.59867	174
3.60233	170
3.60600	169
3.60967	172
3.61333	177
3.61700	183
3.62067	187
3.62433	187
3.62800	183
3.63167	176
3.63533	171
3.63900	172
3.64267	176
3.64633	180
3.65000	184
3.65367	188
3.65733	187
3.66100	181
3.66467	175
3.66833	169
3.67200	167
3.67567	167
3.67933	172
3.68300	178
3.68667	183
3.69033	187
3.69400	194
3.69767	198
3.70133	199
3.70500	193
3.70867	187
3.71233	185
3.71600	186
3.71967	185
3.72333	179
3.72700	172
3.73067	166
3.73433	161
3.73800	157
3.74167	157
3.74533	158
3.74900	160
3.75267	164
3.75633	169
3.76000	174
3.76367	179
3.76733	185
3.77100	191
3.77467	194
3.77833	194
3.78200	191
3.78567	185
3.78933	181
3.79300	181
3.79667	184
3.80033	188
3.80400	193
3.80767	197
3.81133	196
3.81500	190
3.81867	181
3.82233	173
3.82600	167
3.82967	162
3.83333	161
3.83700	163
3.84067	164
3.84433	166
3.84800	168
3.85167	170
3.85533	172
3.85900	175
3.86267	181
3.86633	190
3.87000	200
3.87367	210
3.87733	214
3.88100	213
3.88467	207
3.88833	200
3.89200	196
3.89567	194
3.89933	193
3.90300	193
3.90667	193
3.91033	195
3.91400	198
3.91767	200
3.92133	202
3.92500	202
3.92867	202
3.93233	202
3.93600	202
3.93967	203
3.94333	202
3.94700	199
3.95067	194
3.95433	189
3.95800	184
3.96167	180
3.96533	177
3.96900	176
3.97267	176
3.97633	180
3.98000	184
3.98367	188
3.98733	191
3.99100	190
3.99467	186
3.99833	181

[Chromatogram (Ch2)]
Interval(msec)	220
# of Points	1091
Start Time(min)	0.002
End Time(min)	3.998
R.Time (min)	Intensity
0.00167	0
0.00533	0
0.00900	0
0.01267	0
0.01633	0
0.02000	-0
0.02367	-1
0.02733	-1
0.03100	-1
0.03467	-2
0.03833	-2
0.04200	-2
0.04567	-2
0.04933	-2
0.05300	-2
0.05667	-2
0.06033	-2
0.06400	-1
0.06767	-1
0.07133	-1
0.07500	-1
0.07867	-1
0.08233	-1
0.08600	-1
0.08967	-0
0.09333	-1
0.09700	-1
0.10067	-1
0.10433	-1
0.10800	-1
0.11167	-1
0.11533	-1
0.11900	-1
0.12267	-1
0.12633	-1
0.13000	-1
0.13367	-1
0.13733	-1
0.14100	-1
0.14467	-1
0.14833	-1
0.15200	-1
0.15567	-1
0.15933	-0
0.16300	-0
0.16667	-0
0.17033	-0
0.17400	-0
0.17767	-0
0.18133	-0
0.18500	0
0.18867	0
0.19233	0
0.19600	1
0.19967	1
0.20333	1
0.20700	1
0.21067	1
0.21433	2
0.21800	2
0.22167	2
0.22533	2
0.22900	2
0.23267	2
0.23633	2
0.24000	3
0.24367	3
0.24733	3
0.25100	3
0.25467	3
0.25833	3
0.26200	2
0.26567	2
0.26933	2
0.27300	3
0.27667	3
0.28033	3
0.28400	3
0.28767	3
0.29133	3
0.29500	2
0.29867	2
0.30233	2
0.30600	2
0.30967	3
0.31333	3
0.31700	3
0.32067	3
0.32433	3
0.32800	2
0.33167	2
0.33533	2
0.33900	2
0.34267	1
0.34633	1
0.35000	-0
0.35367	-1
0.35733	-1
0.36100	-2
0.36467	-2
0.36833	-2
0.37200	-2
0.37567	-2
0.37933	-2
0.38300	-2
0.38667	-2
0.39033	-2
0.39400	-2
0.39767	-2
0.40133	-1
0.40500	-1
0.40867	-1
0.41233	-1
0.41600	-2
0.41967	-2
0.42333	-2
0.42700	-2
0.43067	-2
0.43433	-2
0.43800	-2
0.44167	-2
0.44533	-2
0.44900	-1
0.45267	-1
0.45633	-1
0.46000	-1
0.46367	-0
0.46733	-0
0.47100	0
0.47467	1
0.47833	1
0.48200	1
0.48567	1
0.48933	1
0.49300	2
0.49667	2
0.50033	1
0.50400	1
0.50767	1
0.51133	1
0.51500	1
0.51867	1
0.52233	1
0.52600	1
0.52967	1
0.53333	1
0.53700	1
0.54067	1
0.54433	1
0.54800	1
0.55167	1
0.55533	1
0.55900	1
0.56267	1
0.56633	1
0.57000	0
0.57367	0
0.57733	0
0.58100	0
0.58467	0
0.58833	0
0.59200	0
0.59567	0
0.59933	1
0.60300	1
0.60667	1
0.61033	1
0.61400	1
0.61767	1
0.62133	1
0.62500	1
0.62867	0
0.63233	-0
0.63600	-0
0.63967	-1
0.64333	-1
0.64700	-1
0.65067	-1
0.65433	-1
0.65800	-1
0.66167	-1
0.66533	-1
0.66900	-1
0.67267	-2
0.67633	-2
0.68000	-2
0.68367	-2
0.68733	-2
0.69100	-2
0.69467	-2
0.69833	-2
0.70200	-3
0.70567	-3
0.70933	-3
0.71300	-3
0.71667	-3
0.72033	-3
0.72400	-3
0.72767	-4
0.73133	-3
0.73500	-3
0.73867	-3
0.74233	-3
0.74600	-2
0.74967	-2
0.75333	-2
0.75700	-1
0.76067	-1
0.76433	-1
0.76800	-1
0.77167	-0
0.77533	0
0.77900	0
0.78267	0
0.78633	1
0.79000	1
0.79367	1
0.79733	1
0.80100	1
0.80467	2
0.80833	2
0.81200	2
0.81567	1
0.81933	1
0.82300	1
0.82667	1
0.83033	0
0.83400	0
0.83767	0
0.84133	0
0.84500	0
0.84867	0
0.85233	1
0.85600	0
0.85967	0
0.86333	0
0.86700	1
0.87067	1
0.87433	1
0.87800	1
0.88167	1
0.88533	1
0.88900	1
0.89267	0
0.89633	0
0.90000	-0
0.90367	-1
0.90733	-1
0.91100	-2
0.91467	-2
0.91833	-2
0.92200	-2
0.92567	-3
0.92933	-3
0.93300	-3
0.93667	-3
0.94033	-3
0.94400	-3
0.94767	-3
0.95133	-2
0.95500	-2
0.95867	-1
0.96233	-1
0.96600	-0
0.96967	0
0.97333	0
0.97700	0
0.98067	0
0.98433	0
0.98800	1
0.99167	1
0.99533	1
0.99900	0
1.00267	0
1.00633	-0
1.01000	-1
1.01367	-1
1.01733	-2
1.02100	-2
1.02467	-3
1.02833	-3
1.03200	-3
1.03567	-3
1.03933	-4
1.04300	-4
1.04667	-4
1.05033	-3
1.05400	-3
1.05767	-3
1.06133	-3
1.06500	-2
1.06867	-2
1.07233	-1
1.07600	-1
1.07967	-1
1.08333	-1
1.08700	-1
1.09067	-1
1.09433	-1
1.09800	-1
1.10167	-1
1.10533	-1
1.10900	-1
1.11267	-1
1.11633	-1
1.12000	-2
1.12367	-2
1.12733	-2
1.13100	-2
1.13467	-2
1.13833	-2
1.14200	-2
1.14567	-2
1.14933	-2
1.15300	-2
1.15667	-2
1.16033	-2
1.16400	-2
1.16767	-2
1.17133	-2
1.17500	-2
1.17867	-2
1.18233	-2
1.18600	-1
1.18967	-1
1.19333	-0
1.19700	0
1.20067	1
1.20433	1
1.20800	1
1.21167	1
1.21533	2
1.21900	2
1.22267	2
1.22633	2
1.23000	3
1.23367	3
1.23733	3
1.24100	3
1.24467	3
1.24833	3
1.25200	3
1.25567	3
1.25933	3
1.26300	2
1.26667	2
1.27033	2
1.27400	2
1.27767	2
1.28133	2
1.28500	2
1.28867	1
1.29233	2
1.29600	2
1.29967	2
1.30333	3
1.30700	3
1.31067	3
1.31433	2
1.31800	2
1.32167	2
1.32533	1
1.32900	1
1.33267	1
1.33633	1
1.34000	0
1.34367	0
1.34733	0
1.35100	-0
1.35467	-0
1.35833	-0
1.36200	-0
1.36567	-0
1.36933	-0
1.37300	-0
1.37667	-0
1.38033	-0
1.38400	-0
1.38767	-0
1.39133	-0
1.39500	-0
1.39867	0
1.40233	0
1.40600	0
1.40967	0
1.41333	1
1.41700	1
1.42067	1
1.42433	1
1.42800	2
1.43167	2
1.43533	2
1.43900	2
1.44267	2
1.44633	2
1.45000	2
1.45367	2
1.45733	2
1.46100	3
1.46467	3
1.46833	3
1.47200	3
1.47567	3
1.47933	3
1.48300	2
1.48667	2
1.49033	2
1.49400	1
1.49767	1
1.50133	1
1.50500	1
1.50867	1
1.51233	1
1.51600	1
1.51967	2
1.52333	2
1.52700	2
1.53067	2
1.53433	2
1.53800	2
1.54167	2
1.54533	2
1.54900	1
1.55267	1
1.55633	1
1.56000	1
1.56367	0
1.56733	0
1.57100	0
1.57467	-0
1.57833	-0
1.58200	-1
1.58567	-1
1.58933	-1
1.59300	-2
1.59667	-2
1.60033	-3
1.60400	-3
1.60767	-5
1.61133	-6
1.61500	-8
1.61867	-10
1.62233	-12
1.62600	-14
1.62967	-17
1.63333	-20
1.63700	-23
1.64067	-26
1.64433	-29
1.64800	-33
1.65167	-36
1.65533	-40
1.65900	-44
1.66267	-49
1.66633	-54
1.67000	-59
1.67367	-64
1.67733	-69
1.68100	-75
1.68467	-80
1.68833	-84
1.69200	-88
1.69567	-91
1.69933	-94
1.70300	-97
1.70667	-99
1.71033	-100
1.71400	-102
1.71767	-103
1.72133	-105
1.72500	-106
1.72867	-108
1.73233	-110
1.73600	-111
1.73967	-112
1.74333	-113
1.74700	-113
1.75067	-113
1.75433	-113
1.75800	-113
1.76167	-113
1.76533	-114
1.76900	-114
1.77267	-115
1.77633	-115
1.78000	-116
1.78367	-117
1.78733	-117
1.79100	-118
1.79467	-118
1.79833	-118
1.80200	-118
1.80567	-118
1.80933	-118
1.81300	-118
1.81667	-118
1.82033	-118
1.82400	-119
1.82767	-119
1.83133	-118
1.83500	-118
1.83867	-118
1.84233	-118
1.84600	-118
1.84967	-117
1.85333	-117
1.85700	-117
1.86067	-117
1.86433	-117
1.86800	-118
1.87167	-118
1.87533	-118
1.87900	-118
1.88267	-118
1.88633	-118
1.89000	-117
1.89367	-117
1.89733	-116
1.90100	-115
1.90467	-115
1.90833	-114
1.91200	-114
1.91567	-114
1.91933	-115
1.92300	-115
1.92667	-114
1.93033	-114
1.93400	-113
1.93767	-113
1.94133	-112
1.94500	-112
1.94867	-113
1.95233	-113
1.95600	-113
1.95967	-112
1.96333	-112
1.96700	-112
1.97067	-113
1.97433	-113
1.97800	-113
1.98167	-113
1.98533	-114
1.98900	-114
1.99267	-113
1.99633	-113
2.00000	-113
2.00367	-113
2.00733	-112
2.01100	-112
2.01467	-112
2.01833	-112
2.02200	-112
2.02567	-112
2.02933	-112
2.03300	-111
2.03667	-110
2.04033	-109
2.04400	-108
2.04767	-107
2.05133	-106
2.05500	-106
2.05867	-105
2.06233	-105
2.06600	-106
2.06967	-106
2.07333	-106
2.07700	-106
2.08067	-106
2.08433	-106
2.08800	-105
2.09167	-105
2.09533	-105
2.09900	-104
2.10267	-104
2.10633	-104
2.11000	-103
2.11367	-103
2.11733	-102
2.12100	-101
2.12467	-101
2.12833	-100
2.13200	-100
2.13567	-99
2.13933	-99
2.14300	-98
2.14667	-98
2.15033	-97
2.15400	-97
2.15767	-97
2.16133	-97
2.16500	-97
2.16867	-97
2.17233	-96
2.17600	-96
2.17967	-96
2.18333	-95
2.18700	-94
2.19067	-93
2.19433	-92
2.19800	-91
2.20167	-91
2.20533	-90
2.20900	-90
2.21267	-90
2.21633	-90
2.22000	-90
2.22367	-90
2.22733	-90
2.23100	-91
2.23467	-91
2.23833	-91
2.24200	-90
2.24567	-90
2.24933	-90
2.25300	-90
2.25667	-89
2.26033	-89
2.26400	-89
2.26767	-89
2.27133	-89
2.27500	-89
2.27867	-89
2.28233	-89
2.28600	-89
2.28967	-88
2.29333	-88
2.29700	-88
2.30067	-87
2.30433	-87
2.30800	-86
2.31167	-85
2.31533	-84
2.31900	-84
2.32267	-83
2.32633	-83
2.33000	-83
2.33367	-83
2.33733	-83
2.34100	-82
2.34467	-82
2.34833	-82
2.35200	-81
2.35567	-81
2.35933	-80
2.36300	-80
2.36667	-79
2.37033	-78
2.37400	-77
2.37767	-75
2.38133	-73
2.38500	-69
2.38867	-66
2.39233	-62
2.39600	-58
2.39967	-53
2.40333	-48
2.40700	-43
2.41067	-39
2.41433	-34
2.41800	-30
2.42167	-26
2.42533	-23
2.42900	-20
2.43267	-18
2.43633	-15
2.44000	-14
2.44367	-12
2.44733	-10
2.45100	-8
2.45467	-6
2.45833	-5
2.46200	-4
2.46567	-3
2.46933	-1
2.47300	-0
2.47667	1
2.48033	3
2.48400	4
2.48767	6
2.49133	7
2.49500	8
2.49867	9
2.50233	10
2.50600	11
2.50967	12
2.51333	13
2.51700	13
2.52067	14
2.52433	14
2.52800	14
2.53167	14
2.53533	14
2.53900	14
2.54267	14
2.54633	14
2.55000	14
2.55367	14
2.55733	15
2.56100	16
2.56467	16
2.56833	17
2.57200	18
2.57567	19
2.57933	19
2.58300	19
2.58667	20
2.59033	20
2.59400	20
2.59767	21
2.60133	21
2.60500	22
2.60867	22
2.61233	23
2.61600	23
2.61967	23
2.62333	23
2.62700	23
2.63067	23
2.63433	23
2.63800	23
2.64167	23
2.64533	24
2.64900	24
2.65267	24
2.65633	24
2.66000	24
2.66367	24
2.66733	24
2.67100	24
2.67467	24
2.67833	24
2.68200	24
2.68567	24
2.68933	25
2.69300	25
2.69667	25
2.70033	26
2.70400	26
2.70767	26
2.71133	26
2.71500	26
2.71867	25
2.72233	25
2.72600	25
2.72967	25
2.73333	25
2.73700	25
2.74067	25
2.74433	25
2.74800	25
2.75167	26
2.75533	26
2.75900	27
2.76267	27
2.76633	28
2.77000	28
2.77367	29
2.77733	29
2.78100	29
2.78467	29
2.78833	29
2.79200	28
2.79567	28
2.79933	27
2.80300	26
2.80667	26
2.81033	25
2.81400	25
2.81767	25
2.82133	25
2.82500	25
2.82867	25
2.83233	25
2.83600	25
2.83967	26
2.84333	26
2.84700	25
2.85067	24
2.85433	21
2.85800	16
2.86167	8
2.86533	-4
2.86900	-20
2.87267	-41
2.87633	-66
2.88000	-97
2.88367	-133
2.88733	-174
2.89100	-220
2.89467	-271
2.89833	-326
2.90200	-385
2.90567	-448
2.90933	-515
2.91300	-585
2.91667	-657
2.92033	-732
2.92400	-808
2.92767	-888
2.93133	-969
2.93500	-1052
2.93867	-1136
2.94233	-1222
2.94600	-1309
2.94967	-1393
2.95333	-1462
2.95700	-1504
2.96067	-1512
2.96433	-1485
2.96800	-1427
2.97167	-1345
2.97533	-1247
2.97900	-1140
2.98267	-1030
2.98633	-921
2.99000	-817
2.99367	-719
2.99733	-629
3.00100	-548
3.00467	-474
3.00833	-409
3.01200	-351
3.01567	-301
3.01933	-257
3.02300	-219
3.02667	-186
3.03033	-157
3.03400	-133
3.03767	-112
3.04133	-94
3.04500	-78
3.04867	-65
3.05233	-54
3.05600	-44
3.05967	-36
3.06333	-29
3.06700	-23
3.07067	-18
3.07433	-13
3.07800	-10
3.08167	-7
3.08533	-4
3.08900	-2
3.09267	-0
3.09633	2
3.10000	4
3.10367	5
3.10733	6
3.11100	8
3.11467	9
3.11833	9
3.12200	10
3.12567	11
3.12933	12
3.13300	12
3.13667	12
3.14033	13
3.14400	13
3.14767	14
3.15133	14
3.15500	15
3.15867	15
3.16233	15
3.16600	16
3.16967	16
3.17333	16
3.17700	16
3.18067	17
3.18433	17
3.18800	17
3.19167	18
3.19533	18
3.19900	18
3.20267	19
3.20633	19
3.21000	20
3.21367	20
3.21733	21
3.22100	21
3.22467	22
3.22833	22
3.23200	22
3.23567	22
3.23933	23
3.24300	23
3.24667	23
3.25033	24
3.25400	24
3.25767	24
3.26133	24
3.26500	24
3.26867	25
3.27233	25
3.27600	25
3.27967	25
3.28333	25
3.28700	25
3.29067	25
3.29433	25
3.29800	25
3.30167	25
3.30533	25
3.30900	25
3.31267	25
3.31633	25
3.32000	25
3.32367	25
3.32733	25
3.33100	25
3.33467	25
3.33833	25
3.34200	25
3.34567	25
3.34933	25
3.35300	25
3.35667	25
3.36033	26
3.36400	27
3.36767	27
3.37133	28
3.37500	28
3.37867	28
3.38233	29
3.38600	29
3.38967	29
3.39333	30
3.39700	30
3.40067	30
3.40433	30
3.40800	30
3.41167	30
3.41533	30
3.41900	30
3.42267	30
3.42633	30
3.43000	30
3.43367	30
3.43733	30
3.44100	30
3.44467	30
3.44833	31
3.45200	31
3.45567	31
3.45933	31
3.46300	31
3.46667	31
3.47033	30
3.47400	30
3.47767	30
3.48133	30
3.48500	30
3.48867	31
3.49233	31
3.49600	31
3.49967	31
3.50333	31
3.50700	31
3.51067	31
3.51433	31
3.51800	31
3.52167	31
3.52533	31
3.52900	30
3.53267	30
3.53633	30
3.54000	30
3.54367	30
3.54733	30
3.55100	30
3.55467	30
3.55833	30
3.56200	30
3.56567	30
3.56933	29
3.57300	29
3.57667	29
3.58033	28
3.58400	28
3.58767	28
3.59133	27
3.59500	27
3.59867	27
3.60233	27
3.60600	27
3.60967	27
3.61333	27
3.61700	27
3.62067	27
3.62433	27
3.62800	27
3.63167	27
3.63533	28
3.63900	28
3.64267	28
3.64633	28
3.65000	28
3.65367	28
3.65733	28
3.66100	28
3.66467	28
3.66833	28
3.67200	28
3.67567	28
3.67933	28
3.68300	29
3.68667	29
3.69033	29
3.69400	29
3.69767	29
3.70133	29
3.70500	30
3.70867	30
3.71233	30
3.71600	30
3.71967	30
3.72333	30
3.72700	30
3.73067	30
3.73433	30
3.73800	30
3.74167	30
3.74533	30
3.74900	30
3.75267	30
3.75633	30
3.76000	30
3.76367	30
3.76733	30
3.77100	29
3.77467	29
3.77833	29
3.78200	29
3.78567	29
3.78933	29
3.79300	29
3.79667	28
3.80033	28
3.80400	28
3.80767	28
3.81133	29
3.81500	29
3.81867	29
3.82233	29
3.82600	29
3.82967	29
3.83333	29
3.83700	29
3.84067	29
3.84433	29
3.84800	29
3.85167	30
3.85533	29
3.85900	29
3.86267	29
3.86633	29
3.87000	28
3.87367	29
3.87733	29
3.88100	29
3.88467	29
3.88833	29
3.89200	29
3.89567	29
3.89933	29
3.90300	29
3.90667	29
3.91033	29
3.91400	29
3.91767	29
3.92133	30
3.92500	30
3.92867	30
3.93233	30
3.93600	30
3.93967	30
3.94333	30
3.94700	30
3.95067	30
3.95433	30
3.95800	30
3.96167	30
3.96533	30
3.96900	30
3.97267	29
3.97633	29
3.98000	29
3.98367	29
3.98733	29
3.99100	29
3.99467	29
3.99833	29

[Chromatogram (Ch3)]
Interval(msec)	220
# of Points	1091
Start Time(min)	0.002
End Time(min)	3.998
R.Time (min)	Intensity
0.00167	-1
0.00533	-1
0.00900	-1
0.01267	0
0.01633	0
0.02000	-2
0.02367	-4
0.02733	-2
0.03100	1
0.03467	1
0.03833	-1
0.04200	-3
0.04567	-3
0.04933	-4
0.05300	-4
0.05667	-7
0.06033	-5
0.06400	-4
0.06767	-3
0.07133	-4
0.07500	-4
0.07867	-3
0.08233	-3
0.08600	-2
0.08967	-2
0.09333	-2
0.09700	-4
0.10067	-4
0.10433	-8
0.10800	-10
0.11167	-9
0.11533	-6
0.11900	-4
0.12267	-2
0.12633	-3
0.13000	-4
0.13367	-5
0.13733	-5
0.14100	-5
0.14467	-4
0.14833	-2
0.15200	1
0.15567	-1
0.15933	-3
0.16300	-6
0.16667	-7
0.17033	-7
0.17400	-6
0.17767	-3
0.18133	-1
0.18500	-3
0.18867	-5
0.19233	-6
0.19600	-4
0.19967	-2
0.20333	-1
0.20700	-2
0.21067	-4
0.21433	-3
0.21800	-3
0.22167	-4
0.22533	-4
0.22900	-3
0.23267	-3
0.23633	-2
0.24000	-0
0.24367	-0
0.24733	-3
0.25100	-4
0.25467	-5
0.25833	-6
0.26200	-6
0.26567	-4
0.26933	-1
0.27300	0
0.27667	1
0.28033	2
0.28400	1
0.28767	1
0.29133	-0
0.29500	-3
0.29867	-6
0.30233	-6
0.30600	-6
0.30967	-6
0.31333	-6
0.31700	-5
0.32067	-4
0.32433	-4
0.32800	-4
0.33167	-5
0.33533	-6
0.33900	-8
0.34267	-9
0.34633	-10
0.35000	-9
0.35367	-9
0.35733	-7
0.36100	-3
0.36467	-0
0.36833	0
0.37200	2
0.37567	1
0.37933	-1
0.38300	-3
0.38667	-5
0.39033	-6
0.39400	-5
0.39767	-5
0.40133	-5
0.40500	-3
0.40867	-4
0.41233	-6
0.41600	-7
0.41967	-8
0.42333	-9
0.42700	-9
0.43067	-8
0.43433	-5
0.43800	-4
0.44167	-5
0.44533	-6
0.44900	-6
0.45267	-5
0.45633	-5
0.46000	-4
0.46367	-3
0.46733	-4
0.47100	-5
0.47467	-7
0.47833	-8
0.48200	-8
0.48567	-7
0.48933	-7
0.49300	-7
0.49667	-8
0.50033	-7
0.50400	-5
0.50767	-4
0.51133	-5
0.51500	-4
0.51867	-2
0.52233	-2
0.52600	-4
0.52967	-5
0.53333	-5
0.53700	-4
0.54067	-3
0.54433	-4
0.54800	-6
0.55167	-5
0.55533	-3
0.55900	-4
0.56267	-6
0.56633	-6
0.57000	-5
0.57367	-5
0.57733	-5
0.58100	-7
0.58467	-8
0.58833	-7
0.59200	-6
0.59567	-6
0.59933	-5
0.60300	-4
0.60667	-3
0.61033	-4
0.61400	-3
0.61767	0
0.62133	2
0.62500	1
0.62867	-1
0.63233	-1
0.63600	-0
0.63967	-1
0.64333	-2
0.64700	-4
0.65067	-6
0.65433	-5
0.65800	-5
0.66167	-4
0.66533	-2
0.66900	-0
0.67267	2
0.67633	3
0.68000	1
0.68367	-1
0.68733	-0
0.69100	-0
0.69467	1
0.69833	1
0.70200	0
0.70567	-1
0.70933	-1
0.71300	-2
0.71667	0
0.72033	1
0.72400	0
0.72767	-2
0.73133	-2
0.73500	-2
0.73867	-4
0.74233	-5
0.74600	-5
0.74967	-4
0.75333	-5
0.75700	-6
0.76067	-7
0.76433	-8
0.76800	-9
0.77167	-8
0.77533	-6
0.77900	-6
0.78267	-7
0.78633	-9
0.79000	-10
0.79367	-11
0.79733	-9
0.80100	-8
0.80467	-7
0.80833	-5
0.81200	-4
0.81567	-3
0.81933	-5
0.82300	-5
0.82667	-5
0.83033	-4
0.83400	-6
0.83767	-8
0.84133	-6
0.84500	-4
0.84867	-3
0.85233	-3
0.85600	-2
0.85967	-4
0.86333	-5
0.86700	-5
0.87067	-6
0.87433	-8
0.87800	-6
0.88167	-5
0.88533	-3
0.88900	-3
0.89267	-3
0.89633	-5
0.90000	-5
0.90367	-6
0.90733	-7
0.91100	-6
0.91467	-4
0.91833	-3
0.92200	-1
0.92567	-4
0.92933	-7
0.93300	-9
0.93667	-9
0.94033	-9
0.94400	-10
0.94767	-10
0.95133	-8
0.95500	-6
0.95867	-6
0.96233	-5
0.96600	-4
0.96967	-4
0.97333	-4
0.97700	-3
0.98067	-2
0.98433	-1
0.98800	0
0.99167	-0
0.99533	-2
0.99900	-3
1.00267	-3
1.00633	-3
1.01000	-4
1.01367	-4
1.01733	-5
1.02100	-5
1.02467	-6
1.02833	-7
1.03200	-6
1.03567	-7
1.03933	-7
1.04300	-8
1.04667	-10
1.05033	-12
1.05400	-13
1.05767	-12
1.06133	-10
1.06500	-7
1.06867	-5
1.07233	-4
1.07600	-4
1.07967	-3
1.08333	-5
1.08700	-7
1.09067	-8
1.09433	-7
1.09800	-5
1.10167	-2
1.10533	-4
1.10900	-6
1.11267	-5
1.11633	-4
1.12000	-6
1.12367	-8
1.12733	-11
1.13100	-10
1.13467	-9
1.13833	-11
1.14200	-13
1.14567	-13
1.14933	-12
1.15300	-9
1.15667	-5
1.16033	-3
1.16400	-1
1.16767	-1
1.17133	-1
1.17500	-2
1.17867	-3
1.18233	-5
1.18600	-6
1.18967	-6
1.19333	-5
1.19700	-4
1.20067	-5
1.20433	-5
1.20800	-3
1.21167	-0
1.21533	-1
1.21900	-1
1.22267	-5
1.22633	-7
1.23000	-8
1.23367	-7
1.23733	-4
1.24100	-2
1.24467	-1
1.24833	-1
1.25200	-1
1.25567	-3
1.25933	-3
1.26300	-2
1.26667	1
1.27033	2
1.27400	1
1.27767	0
1.28133	1
1.28500	1
1.28867	1
1.29233	2
1.29600	0
1.29967	-4
1.30333	-5
1.30700	-4
1.31067	-5
1.31433	-5
1.31800	-5
1.32167	-4
1.32533	-4
1.32900	-4
1.33267	-4
1.33633	-6
1.34000	-5
1.34367	-4
1.34733	-4
1.35100	-4
1.35467	-6
1.35833	-7
1.36200	-10
1.36567	-11
1.36933	-10
1.37300	-8
1.37667	-8
1.38033	-7
1.38400	-6
1.38767	-7
1.39133	-7
1.39500	-6
1.39867	-7
1.40233	-10
1.40600	-12
1.40967	-13
1.41333	-12
1.41700	-9
1.42067	-7
1.42433	-6
1.42800	-6
1.43167	-4
1.43533	-2
1.43900	-2
1.44267	-2
1.44633	-2
1.45000	-3
1.45367	-4
1.45733	-4
1.46100	-3
1.46467	-5
1.46833	-8
1.47200	-10
1.47567	-9
1.47933	-7
1.48300	-7
1.48667	-6
1.49033	-5
1.49400	-4
1.49767	-4
1.50133	-6
1.50500	-7
1.50867	-6
1.51233	-7
1.51600	-8
1.51967	-7
1.52333	-6
1.52700	-6
1.53067	-8
1.53433	-9
1.53800	-11
1.54167	-12
1.54533	-13
1.54900	-13
1.55267	-13
1.55633	-12
1.56000	-10
1.56367	-9
1.56733	-8
1.57100	-7
1.57467	-9
1.57833	-9
1.58200	-8
1.58567	-8
1.58933	-7
1.59300	-8
1.59667	-9
1.60033	-9
1.60400	-8
1.60767	-7
1.61133	-9
1.61500	-9
1.61867	-8
1.62233	-9
1.62600	-9
1.62967	-6
1.63333	-4
1.63700	-2
1.64067	-1
1.64433	-0
1.64800	0
1.65167	0
1.65533	1
1.65900	0
1.66267	-0
1.66633	1
1.67000	2
1.67367	2
1.67733	5
1.68100	7
1.68467	7
1.68833	5
1.69200	3
1.69567	3
1.69933	5
1.70300	6
1.70667	7
1.71033	10
1.71400	12
1.71767	12
1.72133	13
1.72500	13
1.72867	14
1.73233	15
1.73600	16
1.73967	18
1.74333	18
1.74700	18
1.75067	19
1.75433	20
1.75800	20
1.76167	19
1.76533	20
1.76900	21
1.77267	24
1.77633	26
1.78000	26
1.78367	25
1.78733	27
1.79100	30
1.79467	31
1.79833	34
1.80200	35
1.80567	37
1.80933	37
1.81300	36
1.81667	33
1.82033	32
1.82400	34
1.82767	36
1.83133	35
1.83500	34
1.83867	36
1.84233	36
1.84600	35
1.84967	34
1.85333	35
1.85700	38
1.86067	38
1.86433	38
1.86800	36
1.87167	37
1.87533	39
1.87900	39
1.88267	40
1.88633	40
1.89000	40
1.89367	38
1.89733	39
1.90100	40
1.90467	42
1.90833	41
1.91200	41
1.91567	42
1.91933	42
1.92300	42
1.92667	45
1.93033	48
1.93400	52
1.93767	51
1.94133	49
1.94500	49
1.94867	51
1.95233	54
1.95600	55
1.95967	57
1.96333	60
1.96700	63
1.97067	62
1.97433	62
1.97800	62
1.98167	65
1.98533	65
1.98900	66
1.99267	68
1.99633	68
2.00000	69
2.00367	69
2.00733	69
2.01100	68
2.01467	70
2.01833	70
2.02200	69
2.02567	71
2.02933	73
2.03300	73
2.03667	73
2.04033	77
2.04400	81
2.04767	84
2.05133	86
2.05500	88
2.05867	91
2.06233	93
2.06600	93
2.06967	94
2.07333	97
2.07700	100
2.08067	101
2.08433	101
2.08800	101
2.09167	98
2.09533	98
2.09900	98
2.10267	100
2.10633	102
2.11000	103
2.11367	103
2.11733	104
2.12100	108
2.12467	110
2.12833	110
2.13200	111
2.13567	112
2.13933	113
2.14300	114
2.14667	114
2.15033	118
2.15400	120
2.15767	123
2.16133	127
2.16500	129
2.16867	129
2.17233	129
2.17600	130
2.17967	128
2.18333	129
2.18700	129
2.19067	130
2.19433	132
2.19800	136
2.20167	140
2.20533	141
2.20900	141
2.21267	141
2.21633	139
2.22000	140
2.22367	142
2.22733	146
2.23100	150
2.23467	155
2.23833	158
2.24200	156
2.24567	154
2.24933	152
2.25300	153
2.25667	153
2.26033	153
2.26400	155
2.26767	158
2.27133	162
2.27500	164
2.27867	166
2.28233	167
2.28600	168
2.28967	169
2.29333	172
2.29700	174
2.30067	177
2.30433	179
2.30800	177
2.31167	177
2.31533	179
2.31900	180
2.32267	183
2.32633	185
2.33000	186
2.33367	188
2.33733	189
2.34100	190
2.34467	193
2.34833	196
2.35200	199
2.35567	202
2.35933	204
2.36300	208
2.36667	211
2.37033	213
2.37400	215
2.37767	216
2.38133	214
2.38500	210
2.38867	208
2.39233	209
2.39600	210
2.39967	212
2.40333	211
2.40700	213
2.41067	213
2.41433	216
2.41800	220
2.42167	222
2.42533	227
2.42900	229
2.43267	233
2.43633	234
2.44000	234
2.44367	239
2.44733	255
2.45100	275
2.45467	287
2.45833	287
2.46200	280
2.46567	270
2.46933	258
2.47300	246
2.47667	237
2.48033	228
2.48400	221
2.48767	213
2.49133	203
2.49500	197
2.49867	193
2.50233	188
2.50600	181
2.50967	174
2.51333	169
2.51700	165
2.52067	161
2.52433	160
2.52800	162
2.53167	164
2.53533	162
2.53900	157
2.54267	153
2.54633	149
2.55000	145
2.55367	140
2.55733	136
2.56100	135
2.56467	134
2.56833	131
2.57200	128
2.57567	126
2.57933	126
2.58300	126
2.58667	125
2.59033	124
2.59400	122
2.59767	120
2.60133	117
2.60500	108
2.60867	92
2.61233	67
2.61600	34
2.61967	-4
2.62333	-44
2.62700	-86
2.63067	-127
2.63433	-164
2.63800	-198
2.64167	-227
2.64533	-248
2.64900	-259
2.65267	-264
2.65633	-267
2.66000	-266
2.66367	-260
2.66733	-254
2.67100	-247
2.67467	-240
2.67833	-231
2.68200	-222
2.68567	-211
2.68933	-200
2.69300	-187
2.69667	-174
2.70033	-162
2.70400	-149
2.70767	-138
2.71133	-126
2.71500	-114
2.71867	-106
2.72233	-96
2.72600	-87
2.72967	-77
2.73333	-66
2.73700	-57
2.74067	-48
2.74433	-42
2.74800	-37
2.75167	-31
2.75533	-22
2.75900	-16
2.76267	-11
2.76633	-6
2.77000	-2
2.77367	3
2.77733	10
2.78100	16
2.78467	21
2.78833	24
2.79200	26
2.79567	31
2.79933	35
2.80300	36
2.80667	37
2.81033	39
2.81400	39
2.81767	41
2.82133	45
2.82500	55
2.82867	78
2.83233	124
2.83600	225
2.83967	429
2.84333	802
2.84700	1405
2.85067	2299
2.85433	3508
2.85800	5012
2.86167	6748
2.86533	8610
2.86900	10466
2.87267	12178
2.87633	13609
2.88000	14658
2.88367	15271
2.88733	15443
2.89100	15217
2.89467	14669
2.89833	13877
2.90200	12922
2.90567	11878
2.90933	10804
2.91300	9740
2.91667	8721
2.92033	7765
2.92400	6886
2.92767	6082
2.93133	5355
2.93500	4701
2.93867	4117
2.94233	3600
2.94600	3146
2.94967	2747
2.95333	2397
2.95700	2090
2.96067	1823
2.96433	1589
2.96800	1387
2.97167	1211
2.97533	1060
2.97900	929
2.98267	816
2.98633	716
2.99000	629
2.99367	556
2.99733	496
3.00100	440
3.00467	392
3.00833	352
3.01200	316
3.01567	286
3.01933	263
3.02300	241
3.02667	218
3.03033	199
3.03400	183
3.03767	171
3.04133	161
3.04500	152
3.04867	144
3.05233	137
3.05600	131
3.05967	129
3.06333	126
3.06700	124
3.07067	120
3.07433	116
3.07800	112
3.08167	109
3.08533	106
3.08900	104
3.09267	103
3.09633	101
3.10000	99
3.10367	97
3.10733	95
3.11100	94
3.11467	92
3.11833	90
3.12200	89
3.12567	88
3.12933	88
3.13300	89
3.13667	87
3.14033	84
3.14400	82
3.14767	79
3.15133	76
3.15500	74
3.15867	72
3.16233	71
3.16600	72
3.16967	74
3.17333	72
3.17700	69
3.18067	69
3.18433	69
3.18800	67
3.19167	66
3.19533	65
3.19900	64
3.20267	64
3.20633	63
3.21000	63
3.21367	64
3.21733	61
3.22100	59
3.22467	55
3.22833	53
3.23200	52
3.23567	51
3.23933	51
3.24300	49
3.24667	46
3.25033	45
3.25400	45
3.25767	44
3.26133	43
3.26500	43
3.26867	42
3.27233	40
3.27600	39
3.27967	38
3.28333	38
3.28700	35
3.29067	31
3.29433	29
3.29800	28
3.30167	30
3.30533	31
3.30900	30
3.31267	27
3.31633	25
3.32000	24
3.32367	24
3.32733	23
3.33100	22
3.33467	20
3.33833	17
3.34200	16
3.34567	14
3.34933	12
3.35300	12
3.35667	11
3.36033	9
3.36400	5
3.36767	1
3.37133	-1
3.37500	-2
3.37867	-2
3.38233	-1
3.38600	-3
3.38967	-7
3.39333	-11
3.39700	-12
3.40067	-11
3.40433	-13
3.40800	-15
3.41167	-18
3.41533	-19
3.41900	-20
3.42267	-22
3.42633	-24
3.43000	-28
3.43367	-30
3.43733	-31
3.44100	-31
3.44467	-30
3.44833	-32
3.45200	-34
3.45567	-38
3.45933	-43
3.46300	-45
3.46667	-44
3.47033	-43
3.47400	-45
3.47767	-47
3.48133	-49
3.48500	-52
3.48867	-54
3.49233	-55
3.49600	-55
3.49967	-56
3.50333	-59
3.50700	-61
3.51067	-63
3.51433	-64
3.51800	-65
3.52167	-68
3.52533	-68
3.52900	-71
3.53267	-75
3.53633	-77
3.54000	-79
3.54367	-81
3.54733	-80
3.55100	-80
3.55467	-80
3.55833	-83
3.56200	-88
3.56567	-91
3.56933	-93
3.57300	-93
3.57667	-94
3.58033	-95
3.58400	-95
3.58767	-97
3.59133	-100
3.59500	-101
3.59867	-101
3.60233	-102
3.60600	-105
3.60967	-105
3.61333	-104
3.61700	-104
3.62067	-103
3.62433	-104
3.62800	-109
3.63167	-114
3.63533	-116
3.63900	-115
3.64267	-116
3.64633	-118
3.65000	-120
3.65367	-122
3.65733	-123
3.66100	-126
3.66467	-129
3.66833	-128
3.67200	-128
3.67567	-127
3.67933	-125
3.68300	-127
3.68667	-127
3.69033	-127
3.69400	-128
3.69767	-129
3.70133	-130
3.70500	-131
3.70867	-132
3.71233	-131
3.71600	-133
3.71967	-133
3.72333	-132
3.72700	-132
3.73067	-131
3.73433	-132
3.73800	-134
3.74167	-136
3.74533	-137
3.74900	-139
3.75267	-140
3.75633	-139
3.76000	-138
3.76367	-139
3.76733	-138
3.77100	-137
3.77467	-137
3.77833	-138
3.78200	-137
3.78567	-137
3.78933	-138
3.79300	-137
3.79667	-137
3.80033	-139
3.80400	-141
3.80767	-139
3.81133	-137
3.81500	-136
3.81867	-138
3.82233	-139
3.82600	-140
3.82967	-141
3.83333	-143
3.83700	-143
3.84067	-142
3.84433	-142
3.84800	-140
3.85167	-140
3.85533	-141
3.85900	-142
3.86267	-143
3.86633	-145
3.87000	-145
3.87367	-145
3.87733	-143
3.88100	-142
3.88467	-142
3.88833	-142
3.89200	-141
3.89567	-140
3.89933	-140
3.90300	-141
3.90667	-142
3.91033	-140
3.91400	-141
3.91767	-140
3.92133	-139
3.92500	-141
3.92867	-144
3.93233	-143
3.93600	-142
3.93967	-144
3.94333	-145
3.94700	-144
3.95067	-143
3.95433	-142
3.95800	-142
3.96167	-143
3.96533	-143
3.96900	-143
3.97267	-143
3.97633	-144
3.98000	-146
3.98367	-147
3.98733	-146
3.99100	-143
3.99467	-141
3.99833	-138

[Status Trace (Column Oven Temperature)]
Interval(msec)	1000
# of Points	240
Start Time(min)	0.006
End Time(min)	3.990
Intensity Units	
Intensity Multiplier	1
R.Time (min)	Intensity
0.00647	35.02
0.02313	35.02
0.03980	35.02
0.05647	35.02
0.07313	35.02
0.08980	35.03
0.10647	35.04
0.12313	35.04
0.13980	35.05
0.15647	35.04
0.17313	35.04
0.18980	35.03
0.20647	35.02
0.22313	35.01
0.23980	35.01
0.25647	34.99
0.27313	34.98
0.28980	34.97
0.30647	34.97
0.32313	34.97
0.33980	34.97
0.35647	34.99
0.37313	35.00
0.38980	35.00
0.40647	35.01
0.42313	35.01
0.43980	35.01
0.45647	35.00
0.47313	34.99
0.48980	34.98
0.50647	34.98
0.52313	34.98
0.53980	34.97
0.55647	34.97
0.57313	34.97
0.58980	34.97
0.60647	34.97
0.62313	34.98
0.63980	34.98
0.65647	34.98
0.67313	34.99
0.68980	35.01
0.70647	35.01
0.72313	35.02
0.73980	35.01
0.75647	35.01
0.77313	35.00
0.78980	35.00
0.80647	34.99
0.82313	34.99
0.83980	34.99
0.85647	34.99
0.87313	34.99
0.88980	34.99
0.90647	35.00
0.92313	35.01
0.93980	35.02
0.95647	35.00
0.97313	34.99
0.98980	34.99
1.00647	35.00
1.02313	35.02
1.03980	35.03
1.05647	35.04
1.07313	35.03
1.08980	35.03
1.10647	35.04
1.12313	35.05
1.13980	35.06
1.15647	35.06
1.17313	35.07
1.18980	35.06
1.20647	35.04
1.22313	35.04
1.23980	35.03
1.25647	35.02
1.27313	35.01
1.28980	35.01
1.30647	35.01
1.32313	35.01
1.33980	35.01
1.35647	35.01
1.37313	35.01
1.38980	35.02
1.40647	35.01
1.42313	35.00
1.43980	35.00
1.45647	34.99
1.47313	34.98
1.48980	34.98
1.50647	34.97
1.52313	34.97
1.53980	34.96
1.55647	34.97
1.57313	34.98
1.58980	34.99
1.60647	35.04
1.62313	35.15
1.63980	35.33
1.65647	35.58
1.67313	35.93
1.68980	36.29
1.70647	36.63
1.72313	36.97
1.73980	37.32
1.75647	37.65
1.77313	37.99
1.78980	38.32
1.80647	38.66
1.82313	38.99
1.83980	39.30
1.85647	39.63
1.87313	39.98
1.88980	40.30
1.90647	40.61
1.92313	40.94
1.93980	41.26
1.95647	41.59
1.97313	41.94
1.98980	42.26
2.00647	42.60
2.02313	42.94
2.03980	43.25
2.05647	43.58
2.07313	43.90
2.08980	44.23
2.10647	44.56
2.12313	44.88
2.13980	45.20
2.15647	45.55
2.17313	45.87
2.18980	46.18
2.20647	46.50
2.22313	46.84
2.23980	47.18
2.25647	47.50
2.27313	47.83
2.28980	48.16
2.30647	48.47
2.32313	48.80
2.33980	49.13
2.35647	49.43
2.37313	49.64
2.38980	49.73
2.40647	49.72
2.42313	49.72
2.43980	49.72
2.45647	49.74
2.47313	49.75
2.48980	49.76
2.50647	49.76
2.52313	49.77
2.53980	49.82
2.55647	49.83
2.57313	49.83
2.58980	49.83
2.60647	49.83
2.62313	49.84
2.63980	49.84
2.65647	49.86
2.67313	49.86
2.68980	49.84
2.70647	49.85
2.72313	49.87
2.73980	49.86
2.75647	49.86
2.77313	49.84
2.78980	49.87
2.80647	49.89
2.82313	49.90
2.83980	49.91
2.85647	49.92
2.87313	49.91
2.88980	49.92
2.90647	49.93
2.92313	49.94
2.93980	49.95
2.95647	49.95
2.97313	49.96
2.98980	49.97
3.00647	49.98
3.02313	49.99
3.03980	49.99
3.05647	50.00
3.07313	50.01
3.08980	50.01
3.10647	50.01
3.12313	50.03
3.13980	50.04
3.15647	50.05
3.17313	50.07
3.18980	50.07
3.20647	50.08
3.22313	50.08
3.23980	50.08
3.25647	50.08
3.27313	50.08
3.28980	50.09
3.30647	50.09
3.32313	50.10
3.33980	50.11
3.35647	50.10
3.37313	50.09
3.38980	50.08
3.40647	50.07
3.42313	50.06
3.43980	50.05
3.45647	50.05
3.47313	50.04
3.48980	50.04
3.50647	50.03
3.52313	50.03
3.53980	50.03
3.55647	50.04
3.57313	50.06
3.58980	50.07
3.60647	50.08
3.62313	50.08
3.63980	50.08
3.65647	50.09
3.67313	50.10
3.68980	50.09
3.70647	50.09
3.72313	50.08
3.73980	50.08
3.75647	50.08
3.77313	50.08
3.78980	50.08
3.80647	50.09
3.82313	50.08
3.83980	50.08
3.85647	50.08
3.87313	50.09
3.88980	50.09
3.90647	50.08
3.92313	50.07
3.93980	50.06
3.95647	50.07
3.97313	50.08
3.98980	50.08

[Status Trace (Injection Unit Temperature)]
Interval(msec)	1000
# of Points	240
Start Time(min)	0.006
End Time(min)	3.990
Intensity Units	
Intensity Multiplier	1
R.Time (min)	Intensity
0.00647	100.00
0.02313	100.00
0.03980	100.00
0.05647	100.01
0.07313	100.00
0.08980	100.01
0.10647	100.01
0.12313	100.00
0.13980	100.00
0.15647	100.01
0.17313	100.00
0.18980	100.00
0.20647	100.00
0.22313	100.00
0.23980	100.01
0.25647	100.00
0.27313	100.00
0.28980	100.00
0.30647	100.01
0.32313	100.00
0.33980	100.00
0.35647	100.01
0.37313	100.00
0.38980	100.01
0.40647	100.01
0.42313	100.00
0.43980	100.01
0.45647	100.00
0.47313	100.00
0.48980	100.00
0.50647	100.01
0.52313	100.01
0.53980	100.01
0.55647	100.01
0.57313	100.01
0.58980	100.00
0.60647	100.00
0.62313	100.00
0.63980	100.01
0.65647	100.01
0.67313	100.00
0.68980	100.00
0.70647	100.00
0.72313	99.99
0.73980	100.00
0.75647	100.00
0.77313	100.00
0.78980	100.00
0.80647	100.00
0.82313	100.00
0.83980	100.00
0.85647	100.00
0.87313	100.00
0.88980	100.00
0.90647	100.00
0.92313	100.00
0.93980	100.00
0.95647	100.00
0.97313	100.00
0.98980	99.99
1.00647	100.00
1.02313	100.00
1.03980	100.00
1.05647	99.99
1.07313	100.00
1.08980	100.00
1.10647	100.00
1.12313	100.00
1.13980	99.99
1.15647	100.00
1.17313	100.00
1.18980	100.00
1.20647	100.00
1.22313	100.00
1.23980	100.00
1.25647	100.00
1.27313	99.99
1.28980	100.00
1.30647	100.00
1.32313	100.00
1.33980	100.00
1.35647	100.00
1.37313	100.01
1.38980	100.00
1.40647	100.00
1.42313	100.00
1.43980	100.00
1.45647	100.00
1.47313	100.00
1.48980	100.00
1.50647	100.00
1.52313	100.01
1.53980	100.00
1.55647	100.00
1.57313	100.00
1.58980	100.00
1.60647	100.00
1.62313	100.00
1.63980	100.00
1.65647	100.00
1.67313	100.00
1.68980	99.99
1.70647	100.00
1.72313	100.00
1.73980	100.00
1.75647	100.00
1.77313	100.00
1.78980	100.00
1.80647	100.00
1.82313	100.00
1.83980	100.00
1.85647	100.00
1.87313	100.00
1.88980	100.00
1.90647	100.00
1.92313	100.00
1.93980	100.00
1.95647	99.99
1.97313	99.99
1.98980	99.99
2.00647	100.00
2.02313	99.99
2.03980	99.99
2.05647	99.99
2.07313	99.99
2.08980	99.99
2.10647	99.99
2.12313	99.99
2.13980	99.98
2.15647	99.99
2.17313	99.98
2.18980	99.98
2.20647	99.98
2.22313	99.99
2.23980	99.99
2.25647	99.99
2.27313	99.98
2.28980	99.99
2.30647	99.99
2.32313	99.98
2.33980	99.98
2.35647	99.98
2.37313	99.98
2.38980	99.98
2.40647	99.98
2.42313	99.98
2.43980	99.98
2.45647	99.98
2.47313	99.98
2.48980	99.98
2.50647	99.98
2.52313	99.98
2.53980	99.98
2.55647	99.98
2.57313	99.99
2.58980	99.99
2.60647	99.99
2.62313	99.99
2.63980	99.99
2.65647	99.99
2.67313	99.99
2.68980	100.00
2.70647	100.00
2.72313	99.99
2.73980	100.00
2.75647	100.00
2.77313	100.00
2.78980	100.00
2.80647	100.00
2.82313	100.00
2.83980	100.01
2.85647	100.01
2.87313	100.00
2.88980	100.01
2.90647	100.01
2.92313	100.01
2.93980	100.01
2.95647	100.02
2.97313	100.02
2.98980	100.02
3.00647	100.02
3.02313	100.02
3.03980	100.02
3.05647	100.03
3.07313	100.03
3.08980	100.03
3.10647	100.03
3.12313	100.03
3.13980	100.03
3.15647	100.03
3.17313	100.04
3.18980	100.03
3.20647	100.04
3.22313	100.04
3.23980	100.04
3.25647	100.04
3.27313	100.04
3.28980	100.05
3.30647	100.04
3.32313	100.04
3.33980	100.05
3.35647	100.05
3.37313	100.05
3.38980	100.05
3.40647	100.05
3.42313	100.05
3.43980	100.05
3.45647	100.05
3.47313	100.05
3.48980	100.05
3.50647	100.05
3.52313	100.05
3.53980	100.05
3.55647	100.05
3.57313	100.06
3.58980	100.06
3.60647	100.06
3.62313	100.06
3.63980	100.06
3.65647	100.06
3.67313	100.06
3.68980	100.06
3.70647	100.06
3.72313	100.06
3.73980	100.06
3.75647	100.06
3.77313	100.06
3.78980	100.06
3.80647	100.06
3.82313	100.06
3.83980	100.06
3.85647	100.06
3.87313	100.06
3.88980	100.06
3.90647	100.06
3.92313	100.06
3.93980	100.06
3.95647	100.06
3.97313	100.06
3.98980	100.06

[Status Trace (Carrier Gas Pressure)]
Interval(msec)	1000
# of Points	240
Start Time(min)	0.006
End Time(min)	3.990
Intensity Units	
Intensity Multiplier	1
R.Time (min)	Intensity
0.00647	58.00
0.02313	55.60
0.03980	56.94
0.05647	59.03
0.07313	59.58
0.08980	58.10
0.10647	57.98
0.12313	58.01
0.13980	58.01
0.15647	58.01
0.17313	58.00
0.18980	58.00
0.20647	58.00
0.22313	58.00
0.23980	58.00
0.25647	58.00
0.27313	58.00
0.28980	58.00
0.30647	58.00
0.32313	58.00
0.33980	58.00
0.35647	58.00
0.37313	58.00
0.38980	58.00
0.40647	58.00
0.42313	58.00
0.43980	58.00
0.45647	58.00
0.47313	58.00
0.48980	58.00
0.50647	58.00
0.52313	58.00
0.53980	58.00
0.55647	58.00
0.57313	58.00
0.58980	58.00
0.60647	58.00
0.62313	58.00
0.63980	58.00
0.65647	58.00
0.67313	58.00
0.68980	58.00
0.70647	58.00
0.72313	58.00
0.73980	58.00
0.75647	58.00
0.77313	58.00
0.78980	58.00
0.80647	58.00
0.82313	58.00
0.83980	58.00
0.85647	58.00
0.87313	58.00
0.88980	58.00
0.90647	58.00
0.92313	58.00
0.93980	58.00
0.95647	58.00
0.97313	58.00
0.98980	58.00
1.00647	58.00
1.02313	58.00
1.03980	58.00
1.05647	58.00
1.07313	58.00
1.08980	58.00
1.10647	58.00
1.12313	58.00
1.13980	58.00
1.15647	58.00
1.17313	58.00
1.18980	58.00
1.20647	58.00
1.22313	58.00
1.23980	58.00
1.25647	58.00
1.27313	58.00
1.28980	58.00
1.30647	58.00
1.32313	58.00
1.33980	58.00
1.35647	58.00
1.37313	58.00
1.38980	58.00
1.40647	58.00
1.42313	58.00
1.43980	58.00
1.45647	58.00
1.47313	58.00
1.48980	58.00
1.50647	58.00
1.52313	58.00
1.53980	58.00
1.55647	58.00
1.57313	58.00
1.58980	58.00
1.60647	58.00
1.62313	58.00
1.63980	58.00
1.65647	58.00
1.67313	58.01
1.68980	58.00
1.70647	58.00
1.72313	58.00
1.73980	58.00
1.75647	58.00
1.77313	58.00
1.78980	58.00
1.80647	58.00
1.82313	58.00
1.83980	58.00
1.85647	58.00
1.87313	58.00
1.88980	58.00
1.90647	58.00
1.92313	58.00
1.93980	58.00
1.95647	58.00
1.97313	58.00
1.98980	58.00
2.00647	58.00
2.02313	58.00
2.03980	58.00
2.05647	58.00
2.07313	58.00
2.08980	58.00
2.10647	58.00
2.12313	58.00
2.13980	58.00
2.15647	58.00
2.17313	58.00
2.18980	58.00
2.20647	58.00
2.22313	58.00
2.23980	58.00
2.25647	58.00
2.27313	58.00
2.28980	58.00
2.30647	58.00
2.32313	58.00
2.33980	58.00
2.35647	58.00
2.37313	58.00
2.38980	57.99
2.40647	57.99
2.42313	58.00
2.43980	58.00
2.45647	58.00
2.47313	58.00
2.48980	58.00
2.50647	57.99
2.52313	57.98
2.53980	58.00
2.55647	58.00
2.57313	58.00
2.58980	58.00
2.60647	58.00
2.62313	58.00
2.63980	58.00
2.65647	58.00
2.67313	58.00
2.68980	58.00
2.70647	58.00
2.72313	58.00
2.73980	58.00
2.75647	58.00
2.77313	58.00
2.78980	58.00
2.80647	58.00
2.82313	58.00
2.83980	58.00
2.85647	58.00
2.87313	58.00
2.88980	58.00
2.90647	58.00
2.92313	58.00
2.93980	58.00
2.95647	58.00
2.97313	58.00
2.98980	58.00
3.00647	58.00
3.02313	58.00
3.03980	58.00
3.05647	58.00
3.07313	58.00
3.08980	58.00
3.10647	58.00
3.12313	58.00
3.13980	58.00
3.15647	58.00
3.17313	58.00
3.18980	58.00
3.20647	58.00
3.22313	58.00
3.23980	58.00
3.25647	58.00
3.27313	58.00
3.28980	58.00
3.30647	58.00
3.32313	58.00
3.33980	58.00
3.35647	58.00
3.37313	58.00
3.38980	58.00
3.40647	58.00
3.42313	58.00
3.43980	58.00
3.45647	58.00
3.47313	58.00
3.48980	58.00
3.50647	58.00
3.52313	58.00
3.53980	58.00
3.55647	58.00
3.57313	58.00
3.58980	58.00
3.60647	58.00
3.62313	58.00
3.63980	58.00
3.65647	58.00
3.67313	58.00
3.68980	58.00
3.70647	58.00
3.72313	58.00
3.73980	58.00
3.75647	58.00
3.77313	58.00
3.78980	58.00
3.80647	58.00
3.82313	58.00
3.83980	58.00
3.85647	58.00
3.87313	58.00
3.88980	58.00
3.90647	58.00
3.92313	58.00
3.93980	58.00
3.95647	58.00
3.97313	58.00
3.98980	58.00

[Status Trace (Carrier Gas Flow)]
Interval(msec)	1000
# of Points	240
Start Time(min)	0.006
End Time(min)	3.990
Intensity Units	
Intensity Multiplier	1
R.Time (min)	Intensity
0.00647	34.52
0.02313	34.55
0.03980	34.55
0.05647	34.55
0.07313	34.48
0.08980	34.52
0.10647	34.52
0.12313	34.53
0.13980	34.52
0.15647	34.49
0.17313	34.52
0.18980	34.52
0.20647	34.51
0.22313	34.53
0.23980	34.51
0.25647	34.51
0.27313	34.52
0.28980	34.50
0.30647	34.52
0.32313	34.51
0.33980	34.50
0.35647	34.52
0.37313	34.50
0.38980	34.50
0.40647	34.52
0.42313	34.52
0.43980	34.52
0.45647	34.52
0.47313	34.51
0.48980	34.54
0.50647	34.52
0.52313	34.51
0.53980	34.52
0.55647	34.52
0.57313	34.52
0.58980	34.52
0.60647	34.54
0.62313	34.52
0.63980	34.50
0.65647	34.52
0.67313	34.50
0.68980	34.52
0.70647	34.52
0.72313	34.52
0.73980	34.52
0.75647	34.52
0.77313	34.52
0.78980	34.52
0.80647	34.52
0.82313	34.52
0.83980	34.52
0.85647	34.50
0.87313	34.53
0.88980	34.52
0.90647	34.52
0.92313	34.52
0.93980	34.52
0.95647	34.52
0.97313	34.52
0.98980	34.52
1.00647	34.52
1.02313	34.52
1.03980	34.52
1.05647	34.52
1.07313	34.52
1.08980	34.52
1.10647	34.52
1.12313	34.52
1.13980	34.52
1.15647	34.50
1.17313	34.52
1.18980	34.50
1.20647	34.52
1.22313	34.50
1.23980	34.52
1.25647	34.52
1.27313	34.52
1.28980	34.52
1.30647	34.52
1.32313	34.51
1.33980	34.52
1.35647	34.52
1.37313	34.52
1.38980	34.52
1.40647	34.52
1.42313	34.52
1.43980	34.51
1.45647	34.52
1.47313	34.52
1.48980	34.52
1.50647	34.52
1.52313	34.52
1.53980	34.52
1.55647	34.52
1.57313	34.52
1.58980	34.52
1.60647	34.52
1.62313	34.52
1.63980	34.52
1.65647	34.52
1.67313	34.52
1.68980	34.52
1.70647	34.52
1.72313	34.52
1.73980	34.52
1.75647	34.52
1.77313	34.52
1.78980	34.52
1.80647	34.52
1.82313	34.52
1.83980	34.51
1.85647	34.52
1.87313	34.52
1.88980	34.52
1.90647	34.52
1.92313	34.52
1.93980	34.52
1.95647	34.54
1.97313	34.52
1.98980	34.52
2.00647	34.52
2.02313	34.52
2.03980	34.52
2.05647	34.52
2.07313	34.52
2.08980	34.52
2.10647	34.52
2.12313	34.52
2.13980	34.52
2.15647	34.52
2.17313	34.52
2.18980	34.52
2.20647	34.52
2.22313	34.52
2.23980	34.52
2.25647	34.52
2.27313	34.52
2.28980	34.52
2.30647	34.52
2.32313	34.52
2.33980	34.52
2.35647	34.50
2.37313	34.51
2.38980	34.52
2.40647	34.52
2.42313	34.53
2.43980	34.52
2.45647	34.52
2.47313	34.54
2.48980	34.52
2.50647	34.47
2.52313	34.52
2.53980	34.52
2.55647	34.52
2.57313	34.52
2.58980	34.52
2.60647	34.52
2.62313	34.52
2.63980	34.52
2.65647	34.52
2.67313	34.52
2.68980	34.52
2.70647	34.52
2.72313	34.51
2.73980	34.52
2.75647	34.52
2.77313	34.52
2.78980	34.52
2.80647	34.52
2.82313	34.52
2.83980	34.52
2.85647	34.52
2.87313	34.52
2.88980	34.53
2.90647	34.50
2.92313	34.52
2.93980	34.51
2.95647	34.53
2.97313	34.52
2.98980	34.50
3.00647	34.51
3.02313	34.52
3.03980	34.51
3.05647	34.50
3.07313	34.52
3.08980	34.52
3.10647	34.51
3.12313	34.51
3.13980	34.53
3.15647	34.52
3.17313	34.52
3.18980	34.52
3.20647	34.52
3.22313	34.52
3.23980	34.52
3.25647	34.52
3.27313	34.52
3.28980	34.52
3.30647	34.52
3.32313	34.52
3.33980	34.52
3.35647	34.52
3.37313	34.52
3.38980	34.52
3.40647	34.52
3.42313	34.52
3.43980	34.52
3.45647	34.52
3.47313	34.52
3.48980	34.52
3.50647	34.52
3.52313	34.52
3.53980	34.52
3.55647	34.52
3.57313	34.52
3.58980	34.52
3.60647	34.52
3.62313	34.52
3.63980	34.52
3.65647	34.52
3.67313	34.52
3.68980	34.52
3.70647	34.52
3.72313	34.52
3.73980	34.52
3.75647	34.52
3.77313	34.52
3.78980	34.52
3.80647	34.52
3.82313	34.52
3.83980	34.52
3.85647	34.52
3.87313	34.52
3.88980	34.52
3.90647	34.52
3.92313	34.52
3.93980	34.52
3.95647	34.52
3.97313	34.52
3.98980	34.52

[Status Trace (Column Flow)]
Interval(msec)	1000
# of Points	240
Start Time(min)	0.006
End Time(min)	3.990
Intensity Units	
Intensity Multiplier	1
R.Time (min)	Intensity
0.00647	5.45
0.02313	5.18
0.03980	5.33
0.05647	5.57
0.07313	5.64
0.08980	5.47
0.10647	5.45
0.12313	5.46
0.13980	5.45
0.15647	5.45
0.17313	5.45
0.18980	5.45
0.20647	5.46
0.22313	5.46
0.23980	5.46
0.25647	5.46
0.27313	5.46
0.28980	5.46
0.30647	5.46
0.32313	5.46
0.33980	5.46
0.35647	5.46
0.37313	5.46
0.38980	5.46
0.40647	5.46
0.42313	5.46
0.43980	5.46
0.45647	5.46
0.47313	5.46
0.48980	5.46
0.50647	5.46
0.52313	5.46
0.53980	5.46
0.55647	5.46
0.57313	5.46
0.58980	5.46
0.60647	5.46
0.62313	5.46
0.63980	5.46
0.65647	5.46
0.67313	5.46
0.68980	5.45
0.70647	5.45
0.72313	5.45
0.73980	5.45
0.75647	5.45
0.77313	5.45
0.78980	5.45
0.80647	5.45
0.82313	5.46
0.83980	5.45
0.85647	5.45
0.87313	5.45
0.88980	5.45
0.90647	5.45
0.92313	5.45
0.93980	5.45
0.95647	5.45
0.97313	5.46
0.98980	5.46
1.00647	5.46
1.02313	5.45
1.03980	5.45
1.05647	5.45
1.07313	5.45
1.08980	5.45
1.10647	5.45
1.12313	5.45
1.13980	5.45
1.15647	5.45
1.17313	5.45
1.18980	5.45
1.20647	5.45
1.22313	5.45
1.23980	5.45
1.25647	5.45
1.27313	5.45
1.28980	5.45
1.30647	5.45
1.32313	5.45
1.33980	5.45
1.35647	5.45
1.37313	5.45
1.38980	5.45
1.40647	5.46
1.42313	5.46
1.43980	5.46
1.45647	5.46
1.47313	5.46
1.48980	5.46
1.50647	5.46
1.52313	5.46
1.53980	5.46
1.55647	5.46
1.57313	5.46
1.58980	5.46
1.60647	5.45
1.62313	5.45
1.63980	5.45
1.65647	5.44
1.67313	5.43
1.68980	5.42
1.70647	5.41
1.72313	5.40
1.73980	5.38
1.75647	5.38
1.77313	5.37
1.78980	5.35
1.80647	5.34
1.82313	5.33
1.83980	5.32
1.85647	5.32
1.87313	5.30
1.88980	5.29
1.90647	5.29
1.92313	5.28
1.93980	5.27
1.95647	5.26
1.97313	5.25
1.98980	5.24
2.00647	5.23
2.02313	5.22
2.03980	5.21
2.05647	5.20
2.07313	5.19
2.08980	5.18
2.10647	5.17
2.12313	5.16
2.13980	5.15
2.15647	5.14
2.17313	5.13
2.18980	5.12
2.20647	5.12
2.22313	5.11
2.23980	5.10
2.25647	5.09
2.27313	5.08
2.28980	5.07
2.30647	5.06
2.32313	5.05
2.33980	5.04
2.35647	5.03
2.37313	5.03
2.38980	5.02
2.40647	5.02
2.42313	5.02
2.43980	5.02
2.45647	5.02
2.47313	5.02
2.48980	5.02
2.50647	5.02
2.52313	5.02
2.53980	5.02
2.55647	5.02
2.57313	5.02
2.58980	5.02
2.60647	5.02
2.62313	5.02
2.63980	5.02
2.65647	5.02
2.67313	5.02
2.68980	5.02
2.70647	5.02
2.72313	5.02
2.73980	5.02
2.75647	5.02
2.77313	5.02
2.78980	5.02
2.80647	5.02
2.82313	5.02
2.83980	5.02
2.85647	5.02
2.87313	5.02
2.88980	5.02
2.90647	5.02
2.92313	5.02
2.93980	5.02
2.95647	5.02
2.97313	5.02
2.98980	5.02
3.00647	5.02
3.02313	5.02
3.03980	5.02
3.05647	5.02
3.07313	5.02
3.08980	5.02
3.10647	5.02
3.12313	5.02
3.13980	5.02
3.15647	5.02
3.17313	5.02
3.18980	5.02
3.20647	5.02
3.22313	5.02
3.23980	5.02
3.25647	5.02
3.27313	5.02
3.28980	5.01
3.30647	5.01
3.32313	5.01
3.33980	5.01
3.35647	5.01
3.37313	5.01
3.38980	5.02
3.40647	5.02
3.42313	5.02
3.43980	5.02
3.45647	5.02
3.47313	5.02
3.48980	5.02
3.50647	5.02
3.52313	5.02
3.53980	5.02
3.55647	5.02
3.57313	5.02
3.58980	5.02
3.60647	5.02
3.62313	5.02
3.63980	5.02
3.65647	5.01
3.67313	5.02
3.68980	5.02
3.70647	5.02
3.72313	5.02
3.73980	5.02
3.75647	5.02
3.77313	5.02
3.78980	5.02
3.80647	5.02
3.82313	5.02
3.83980	5.02
3.85647	5.02
3.87313	5.02
3.88980	5.02
3.90647	5.02
3.92313	5.02
3.93980	5.02
3.95647	5.02
3.97313	5.02
3.98980	5.02

[Status Trace (Linear Velocity)]
Interval(msec)	1000
# of Points	240
Start Time(min)	0.006
End Time(min)	3.990
Intensity Units	
Intensity Multiplier	1
R.Time (min)	Intensity
0.00647	39.00
0.02313	37.43
0.03980	38.30
0.05647	39.67
0.07313	40.03
0.08980	39.06
0.10647	38.98
0.12313	39.00
0.13980	39.00
0.15647	39.00
0.17313	39.00
0.18980	39.00
0.20647	39.00
0.22313	39.00
0.23980	39.00
0.25647	39.00
0.27313	39.00
0.28980	39.00
0.30647	39.00
0.32313	39.01
0.33980	39.01
0.35647	39.00
0.37313	39.00
0.38980	39.00
0.40647	39.00
0.42313	39.00
0.43980	39.00
0.45647	39.00
0.47313	39.00
0.48980	39.00
0.50647	39.00
0.52313	39.00
0.53980	39.00
0.55647	39.00
0.57313	39.00
0.58980	39.00
0.60647	39.00
0.62313	39.00
0.63980	39.00
0.65647	39.00
0.67313	39.00
0.68980	39.00
0.70647	39.00
0.72313	39.00
0.73980	39.00
0.75647	39.00
0.77313	39.00
0.78980	39.00
0.80647	39.00
0.82313	39.00
0.83980	39.00
0.85647	39.00
0.87313	39.00
0.88980	39.00
0.90647	39.00
0.92313	39.00
0.93980	39.00
0.95647	39.00
0.97313	39.00
0.98980	39.00
1.00647	39.00
1.02313	39.00
1.03980	39.00
1.05647	39.00
1.07313	39.00
1.08980	39.00
1.10647	39.00
1.12313	39.00
1.13980	39.00
1.15647	38.99
1.17313	38.99
1.18980	38.99
1.20647	39.00
1.22313	39.00
1.23980	39.00
1.25647	39.00
1.27313	39.00
1.28980	39.00
1.30647	39.00
1.32313	39.00
1.33980	39.00
1.35647	39.00
1.37313	39.00
1.38980	39.00
1.40647	39.00
1.42313	39.00
1.43980	39.00
1.45647	39.00
1.47313	39.00
1.48980	39.00
1.50647	39.00
1.52313	39.00
1.53980	39.00
1.55647	39.00
1.57313	39.00
1.58980	39.00
1.60647	39.00
1.62313	38.99
1.63980	38.97
1.65647	38.95
1.67313	38.92
1.68980	38.88
1.70647	38.85
1.72313	38.82
1.73980	38.78
1.75647	38.75
1.77313	38.72
1.78980	38.68
1.80647	38.66
1.82313	38.62
1.83980	38.59
1.85647	38.56
1.87313	38.53
1.88980	38.50
1.90647	38.47
1.92313	38.44
1.93980	38.41
1.95647	38.38
1.97313	38.35
1.98980	38.32
2.00647	38.29
2.02313	38.26
2.03980	38.22
2.05647	38.20
2.07313	38.17
2.08980	38.14
2.10647	38.11
2.12313	38.08
2.13980	38.05
2.15647	38.02
2.17313	37.99
2.18980	37.96
2.20647	37.93
2.22313	37.90
2.23980	37.87
2.25647	37.84
2.27313	37.81
2.28980	37.78
2.30647	37.76
2.32313	37.73
2.33980	37.69
2.35647	37.67
2.37313	37.65
2.38980	37.64
2.40647	37.64
2.42313	37.64
2.43980	37.64
2.45647	37.64
2.47313	37.64
2.48980	37.64
2.50647	37.63
2.52313	37.63
2.53980	37.63
2.55647	37.63
2.57313	37.63
2.58980	37.63
2.60647	37.63
2.62313	37.63
2.63980	37.63
2.65647	37.63
2.67313	37.63
2.68980	37.63
2.70647	37.63
2.72313	37.63
2.73980	37.63
2.75647	37.63
2.77313	37.63
2.78980	37.63
2.80647	37.63
2.82313	37.63
2.83980	37.62
2.85647	37.63
2.87313	37.62
2.88980	37.62
2.90647	37.62
2.92313	37.62
2.93980	37.62
2.95647	37.62
2.97313	37.62
2.98980	37.62
3.00647	37.62
3.02313	37.62
3.03980	37.62
3.05647	37.62
3.07313	37.62
3.08980	37.62
3.10647	37.62
3.12313	37.62
3.13980	37.61
3.15647	37.61
3.17313	37.61
3.18980	37.61
3.20647	37.61
3.22313	37.61
3.23980	37.61
3.25647	37.61
3.27313	37.61
3.28980	37.61
3.30647	37.61
3.32313	37.61
3.33980	37.61
3.35647	37.61
3.37313	37.61
3.38980	37.61
3.40647	37.61
3.42313	37.61
3.43980	37.61
3.45647	37.61
3.47313	37.61
3.48980	37.61
3.50647	37.61
3.52313	37.61
3.53980	37.61
3.55647	37.61
3.57313	37.61
3.58980	37.61
3.60647	37.61
3.62313	37.61
3.63980	37.61
3.65647	37.61
3.67313	37.61
3.68980	37.61
3.70647	37.61
3.72313	37.61
3.73980	37.61
3.75647	37.61
3.77313	37.61
3.78980	37.61
3.80647	37.61
3.82313	37.61
3.83980	37.61
3.85647	37.61
3.87313	37.61
3.88980	37.61
3.90647	37.61
3.92313	37.61
3.93980	37.61
3.95647	37.61
3.97313	37.61
3.98980	37.61

