[Header]
Application Name	LabSolutions
Version	5.110
Data File Name	C:\Users\User\Desktop\GC Analyses\Jack\UIC Prairie Sampling\8.12.22\220812_031.gcd
Output Date	10/14/2022
Output Time	2:33:51 PM

[File Information]
Type	Data File
Generated	10/10/2022 12:51:33 PM
Generated by	System Administrator
Modified	10/10/2022 12:58:17 PM
Modified by	System Administrator

[Sample Information]
Operator Name	System Administrator
Acquired	10/10/2022 12:54:16 PM
Sample Type	1:Standard
Level	1
Sample Name	220812_UICPrairie
Sample ID	220812_UICPrairie
ISTD Amount1	1
ISTD Amount2	1
ISTD Amount3	1
ISTD Amount4	1
ISTD Amount5	1
ISTD Amount6	1
ISTD Amount7	1
ISTD Amount8	1
ISTD Amount9	1
ISTD Amount10	1
ISTD Amount11	1
ISTD Amount12	1
ISTD Amount13	1
ISTD Amount14	1
ISTD Amount15	1
ISTD Amount16	1
ISTD Amount17	1
ISTD Amount18	1
ISTD Amount19	1
ISTD Amount20	1
ISTD Amount21	1
ISTD Amount22	1
ISTD Amount23	1
ISTD Amount24	1
ISTD Amount25	1
ISTD Amount26	1
ISTD Amount27	1
ISTD Amount28	1
ISTD Amount29	1
ISTD Amount30	1
ISTD Amount31	1
ISTD Amount32	1
Sample Amount	1
Dilution Factor	1
Vial#	1
Injection Volume	1
Injection Count	1
Bar Code	

[Original Files]
Data File	C:\Users\User\Desktop\GC Analyses\Jack\UIC Prairie Sampling\8.12.22\220812_031.gcd
Method File	C:\LabSolutions\Data\GHG_4min_2022\ghg3_togas_w_acet_4 min_new_int.gcm
Batch File	
Report Format File	c:\LabSolutions\System\DEFAULT.lsr

[File Description]


[Configuration]
Instrument Name	C0B7VH3-Instrument1
Instrument #	1
Line #	1
# of Detectors	3
Detector ID	DET#1	DET#2	DET#3
Detector Name	FID	PTCD	ECD
# of Channels	1	1	1

[Peak Table(Ch1)]
# of Peaks	3
Peak#	R.Time	I.Time	F.Time	Area	Height	A/H	Conc.	Mark	ID#	Name	k'	Plate #	Plate Ht.	Tailing	Resolution	Sep.Factor	Area Ratio	Height Ratio	Conc. %	Norm Conc.
1	1.472	1.443	1.534	4668	1709	2.731	100.000	   	1	CO	0.000	6512	23.036	1.644	0.000	0.000	0	0	16.667	16.667
2	1.571	1.534	1.648	20557	10274	2.001	100.000	 V 	2	CH4	0.067	11299	13.275	1.264	1.499	0.000	0	0	16.667	16.667
3	2.000	1.949	2.389	2138233	1036381	2.063	400.000	   	3	CO2	0.359	17476	8.583	1.265	7.172	5.333	0	0	66.667	66.667

[Peak Table(Ch2)]
# of Peaks	0

[Peak Table(Ch3)]
# of Peaks	3
Peak#	R.Time	I.Time	F.Time	Area	Height	A/H	Conc.	Mark	ID#	Name	k'	Plate #	Plate Ht.	Tailing	Resolution	Sep.Factor	Area Ratio	Height Ratio	Conc. %	Norm Conc.
1	2.601	2.484	2.642	1030	225	4.576	0.000	   			0.000	5791	25.902	0.684	0.000	0.000	0	0	0.000	0.000
2	2.781	2.660	2.818	1315	187	7.046	0.021	   	1	N2O	0.069	419	357.983	0.000	0.528	0.000	0	0	2.138	2.138
3	2.884	2.818	3.276	60186	15205	3.958	0.979	 V 	1	N2O	0.109	12525	11.976	1.615	0.318	1.571	0	0	97.862	97.862

[Compound Results(Ch1)]
# of IDs	6
ID#	Name	R.Time	Area	Height	Conc.	Curve	3rd	2nd	1st	Constant	Area Ratio	Height Ratio	Conc. %	Norm Conc.
1	CO	1.472	4668	1709	100.000	Linear	0.000000e+00	0.000000e+00	4.667590e+001	0.000000e+00	0	0	16.667	16.667
2	CH4	1.571	20557	10274	100.000	Linear	0.000000e+00	0.000000e+00	2.055731e+002	0.000000e+00	0	0	16.667	16.667
3	CO2	2.000	2138233	1036381	400.000	Linear	0.000000e+00	0.000000e+00	5.345582e+003	0.000000e+00	0	0	66.667	66.667
4	Ethylene	0.000	0	0	0.000	Linear	0.000000e+00	0.000000e+00	0.000000e+00	0.000000e+00	0	0	0.000	0.000
5	Acetylene	0.000	0	0	0.000	Linear	0.000000e+00	0.000000e+00	0.000000e+00	0.000000e+00	0	0	0.000	0.000
6	Ethane	0.000	0	0	0.000	Linear	0.000000e+00	0.000000e+00	0.000000e+00	0.000000e+00	0	0	0.000	0.000

[Compound Results(Ch2)]
# of IDs	5
ID#	Name	R.Time	Area	Height	Conc.	Curve	3rd	2nd	1st	Constant	Area Ratio	Height Ratio	Conc. %	Norm Conc.
1	Hydrogen	0.000	0	0	0.000	Linear	0.000000e+00	0.000000e+00	0.000000e+00	0.000000e+00	0	0	0.000	0.000
2	Oxygen	0.000	0	0	0.000	Linear	0.000000e+00	0.000000e+00	0.000000e+00	0.000000e+00	0	0	0.000	0.000
3	Nitrogen	0.000	0	0	0.000	Linear	0.000000e+00	0.000000e+00	0.000000e+00	0.000000e+00	0	0	0.000	0.000
4	Methane	0.000	0	0	0.000	Linear	0.000000e+00	0.000000e+00	0.000000e+00	0.000000e+00	0	0	0.000	0.000
5	Carbon Monoxide	0.000	0	0	0.000	Linear	0.000000e+00	0.000000e+00	0.000000e+00	0.000000e+00	0	0	0.000	0.000

[Compound Results(Ch3)]
# of IDs	2
ID#	Name	R.Time	Area	Height	Conc.	Curve	3rd	2nd	1st	Constant	Area Ratio	Height Ratio	Conc. %	Norm Conc.
1	N2O	2.884	61500	15392	1.000	Linear	0.000000e+00	0.000000e+00	6.150044e+004	0.000000e+00	0	0	100.000	100.000
2	SF6	0.000	0	0	0.000	Linear	0.000000e+00	0.000000e+00	0.000000e+00	0.000000e+00	0	0	0.000	0.000

[Group Results(Ch1)]
# of Groups	0

[Group Results(Ch2)]
# of Groups	0

[Group Results(Ch3)]
# of Groups	0

[Chromatogram (Ch1)]
Interval(msec)	220
# of Points	1091
Start Time(min)	0.002
End Time(min)	3.998
R.Time (min)	Intensity
0.00167	-17
0.00533	-19
0.00900	-15
0.01267	-6
0.01633	-0
0.02000	-1
0.02367	-6
0.02733	-12
0.03100	-13
0.03467	-13
0.03833	-16
0.04200	-20
0.04567	-20
0.04933	-16
0.05300	-13
0.05667	-14
0.06033	-20
0.06400	-27
0.06767	-32
0.07133	-36
0.07500	-36
0.07867	-32
0.08233	-23
0.08600	-16
0.08967	-8
0.09333	-2
0.09700	2
0.10067	1
0.10433	-3
0.10800	-7
0.11167	-13
0.11533	-18
0.11900	-20
0.12267	-22
0.12633	-20
0.13000	-18
0.13367	-16
0.13733	-10
0.14100	-7
0.14467	-6
0.14833	-5
0.15200	-6
0.15567	-7
0.15933	-9
0.16300	-10
0.16667	-11
0.17033	-10
0.17400	-9
0.17767	-7
0.18133	-7
0.18500	-11
0.18867	-15
0.19233	-15
0.19600	-12
0.19967	-7
0.20333	-3
0.20700	-5
0.21067	-11
0.21433	-16
0.21800	-18
0.22167	-18
0.22533	-21
0.22900	-25
0.23267	-27
0.23633	-25
0.24000	-22
0.24367	-22
0.24733	-23
0.25100	-23
0.25467	-24
0.25833	-28
0.26200	-33
0.26567	-41
0.26933	-48
0.27300	-45
0.27667	-36
0.28033	-29
0.28400	-22
0.28767	-20
0.29133	-23
0.29500	-24
0.29867	-20
0.30233	-18
0.30600	-16
0.30967	-18
0.31333	-21
0.31700	-26
0.32067	-28
0.32433	-25
0.32800	-21
0.33167	-14
0.33533	-7
0.33900	-0
0.34267	2
0.34633	1
0.35000	-0
0.35367	-4
0.35733	2
0.36100	2
0.36467	-4
0.36833	-4
0.37200	-5
0.37567	-5
0.37933	-7
0.38300	-21
0.38667	-23
0.39033	-27
0.39400	-33
0.39767	-41
0.40133	-50
0.40500	-55
0.40867	-56
0.41233	-51
0.41600	-42
0.41967	-35
0.42333	-29
0.42700	-23
0.43067	-15
0.43433	-10
0.43800	-14
0.44167	-17
0.44533	-14
0.44900	-9
0.45267	-8
0.45633	-16
0.46000	-22
0.46367	-28
0.46733	-32
0.47100	-36
0.47467	-38
0.47833	-38
0.48200	-38
0.48567	-38
0.48933	-40
0.49300	-43
0.49667	-44
0.50033	-44
0.50400	-41
0.50767	-39
0.51133	-41
0.51500	-36
0.51867	-34
0.52233	-31
0.52600	-30
0.52967	-31
0.53333	-32
0.53700	-29
0.54067	-30
0.54433	-33
0.54800	-37
0.55167	-34
0.55533	-29
0.55900	-24
0.56267	-25
0.56633	-28
0.57000	-28
0.57367	-27
0.57733	-25
0.58100	-24
0.58467	-27
0.58833	-33
0.59200	-40
0.59567	-48
0.59933	-56
0.60300	-58
0.60667	-55
0.61033	-48
0.61400	-41
0.61767	-38
0.62133	-36
0.62500	-37
0.62867	-40
0.63233	-44
0.63600	-46
0.63967	-46
0.64333	-44
0.64700	-40
0.65067	-32
0.65433	-22
0.65800	-15
0.66167	-16
0.66533	-23
0.66900	-33
0.67267	-41
0.67633	-48
0.68000	-52
0.68367	-55
0.68733	-55
0.69100	-53
0.69467	-49
0.69833	-45
0.70200	-44
0.70567	-40
0.70933	-40
0.71300	-43
0.71667	-48
0.72033	-48
0.72400	-41
0.72767	-33
0.73133	-31
0.73500	-34
0.73867	-42
0.74233	-49
0.74600	-52
0.74967	-53
0.75333	-55
0.75700	-57
0.76067	-61
0.76433	-62
0.76800	-61
0.77167	-57
0.77533	-52
0.77900	-48
0.78267	-46
0.78633	-46
0.79000	-47
0.79367	-49
0.79733	-50
0.80100	-47
0.80467	-45
0.80833	-48
0.81200	-54
0.81567	-56
0.81933	-55
0.82300	-52
0.82667	-53
0.83033	-51
0.83400	-45
0.83767	-38
0.84133	-32
0.84500	-25
0.84867	-24
0.85233	-27
0.85600	-31
0.85967	-34
0.86333	-39
0.86700	-47
0.87067	-58
0.87433	-69
0.87800	-76
0.88167	-80
0.88533	-81
0.88900	-80
0.89267	-77
0.89633	-71
0.90000	-67
0.90367	-64
0.90733	-61
0.91100	-58
0.91467	-56
0.91833	-55
0.92200	-53
0.92567	-51
0.92933	-50
0.93300	-51
0.93667	-49
0.94033	-48
0.94400	-49
0.94767	-51
0.95133	-54
0.95500	-59
0.95867	-67
0.96233	-74
0.96600	-77
0.96967	-72
0.97333	-65
0.97700	-62
0.98067	-61
0.98433	-62
0.98800	-61
0.99167	-61
0.99533	-66
0.99900	-67
1.00267	-68
1.00633	-68
1.01000	-70
1.01367	-73
1.01733	-76
1.02100	-82
1.02467	-86
1.02833	-82
1.03200	-74
1.03567	-68
1.03933	-64
1.04300	-58
1.04667	-52
1.05033	-47
1.05400	-46
1.05767	-48
1.06133	-49
1.06500	-49
1.06867	-49
1.07233	-53
1.07600	-56
1.07967	-58
1.08333	-60
1.08700	-66
1.09067	-70
1.09433	-71
1.09800	-71
1.10167	-71
1.10533	-68
1.10900	-64
1.11267	-59
1.11633	-56
1.12000	-56
1.12367	-57
1.12733	-58
1.13100	-58
1.13467	-57
1.13833	-54
1.14200	-51
1.14567	-49
1.14933	-49
1.15300	-49
1.15667	-51
1.16033	-56
1.16400	-63
1.16767	-72
1.17133	-81
1.17500	-87
1.17867	-87
1.18233	-83
1.18600	-78
1.18967	-75
1.19333	-75
1.19700	-77
1.20067	-77
1.20433	-78
1.20800	-78
1.21167	-77
1.21533	-74
1.21900	-68
1.22267	-62
1.22633	-60
1.23000	-61
1.23367	-64
1.23733	-66
1.24100	-68
1.24467	-67
1.24833	-65
1.25200	-63
1.25567	-61
1.25933	-61
1.26300	-60
1.26667	-57
1.27033	-55
1.27400	-56
1.27767	-56
1.28133	-56
1.28500	-59
1.28867	-63
1.29233	-67
1.29600	-71
1.29967	-73
1.30333	-76
1.30700	-79
1.31067	-85
1.31433	-89
1.31800	-92
1.32167	-91
1.32533	-83
1.32900	-75
1.33267	-73
1.33633	-76
1.34000	-79
1.34367	-80
1.34733	-80
1.35100	-78
1.35467	-76
1.35833	-74
1.36200	-73
1.36567	-74
1.36933	-77
1.37300	-80
1.37667	-82
1.38033	-81
1.38400	-78
1.38767	-75
1.39133	-74
1.39500	-70
1.39867	-66
1.40233	-62
1.40600	-63
1.40967	-67
1.41333	-70
1.41700	-74
1.42067	-79
1.42433	-79
1.42800	-81
1.43167	-87
1.43533	-94
1.43900	-97
1.44267	-68
1.44633	73
1.45000	378
1.45367	762
1.45733	1117
1.46100	1379
1.46467	1540
1.46833	1620
1.47200	1639
1.47567	1610
1.47933	1544
1.48300	1447
1.48667	1313
1.49033	1144
1.49400	959
1.49767	775
1.50133	608
1.50500	465
1.50867	349
1.51233	256
1.51600	184
1.51967	130
1.52333	88
1.52700	56
1.53067	29
1.53433	10
1.53800	8
1.54167	83
1.54533	419
1.54900	1302
1.55267	2850
1.55633	4811
1.56000	6765
1.56367	8405
1.56733	9585
1.57100	10197
1.57467	10105
1.57833	9257
1.58200	7823
1.58567	6139
1.58933	4532
1.59300	3193
1.59667	2172
1.60033	1436
1.60400	925
1.60767	580
1.61133	357
1.61500	213
1.61867	117
1.62233	51
1.62600	6
1.62967	-26
1.63333	-47
1.63700	-63
1.64067	-73
1.64433	-78
1.64800	-83
1.65167	-84
1.65533	-84
1.65900	-82
1.66267	-81
1.66633	-80
1.67000	-82
1.67367	-84
1.67733	-84
1.68100	-85
1.68467	-87
1.68833	-88
1.69200	-92
1.69567	-94
1.69933	-93
1.70300	-89
1.70667	-83
1.71033	-81
1.71400	-85
1.71767	-92
1.72133	-99
1.72500	-102
1.72867	-101
1.73233	-100
1.73600	-101
1.73967	-100
1.74333	-99
1.74700	-96
1.75067	-93
1.75433	-87
1.75800	-84
1.76167	-84
1.76533	-88
1.76900	-92
1.77267	-94
1.77633	-97
1.78000	-97
1.78367	-95
1.78733	-92
1.79100	-93
1.79467	-93
1.79833	-90
1.80200	-88
1.80567	-88
1.80933	-90
1.81300	-96
1.81667	-101
1.82033	-104
1.82400	-104
1.82767	-102
1.83133	-100
1.83500	-100
1.83867	-102
1.84233	-102
1.84600	-101
1.84967	-98
1.85333	-96
1.85700	-96
1.86067	-99
1.86433	-99
1.86800	-98
1.87167	-94
1.87533	-88
1.87900	-81
1.88267	-73
1.88633	-66
1.89000	-62
1.89367	-60
1.89733	-57
1.90100	-57
1.90467	-60
1.90833	-65
1.91200	-68
1.91567	-72
1.91933	-77
1.92300	-81
1.92667	-83
1.93033	-84
1.93400	-84
1.93767	-85
1.94133	-89
1.94500	-91
1.94867	-86
1.95233	-73
1.95600	-37
1.95967	147
1.96333	1169
1.96700	5846
1.97067	22165
1.97433	65886
1.97800	156291
1.98167	302202
1.98533	490012
1.98900	687737
1.99267	860618
1.99633	982133
2.00000	1036323
2.00367	1017533
2.00733	932253
2.01100	799281
2.01467	644527
2.01833	492547
2.02200	360179
2.02567	254724
2.02933	176025
2.03300	119974
2.03667	81320
2.04033	55228
2.04400	37841
2.04767	26317
2.05133	18672
2.05500	13572
2.05867	10131
2.06233	7775
2.06600	6134
2.06967	4962
2.07333	4101
2.07700	3457
2.08067	2964
2.08433	2581
2.08800	2280
2.09167	2038
2.09533	1836
2.09900	1665
2.10267	1520
2.10633	1395
2.11000	1284
2.11367	1186
2.11733	1100
2.12100	1025
2.12467	958
2.12833	899
2.13200	850
2.13567	808
2.13933	771
2.14300	734
2.14667	699
2.15033	667
2.15400	639
2.15767	613
2.16133	588
2.16500	564
2.16867	542
2.17233	524
2.17600	507
2.17967	491
2.18333	475
2.18700	459
2.19067	443
2.19433	430
2.19800	418
2.20167	407
2.20533	396
2.20900	386
2.21267	377
2.21633	366
2.22000	356
2.22367	347
2.22733	337
2.23100	330
2.23467	325
2.23833	319
2.24200	311
2.24567	304
2.24933	293
2.25300	278
2.25667	266
2.26033	257
2.26400	251
2.26767	246
2.27133	244
2.27500	243
2.27867	241
2.28233	240
2.28600	237
2.28967	235
2.29333	233
2.29700	229
2.30067	224
2.30433	221
2.30800	219
2.31167	216
2.31533	212
2.31900	209
2.32267	207
2.32633	205
2.33000	202
2.33367	198
2.33733	193
2.34100	189
2.34467	186
2.34833	185
2.35200	184
2.35567	181
2.35933	179
2.36300	178
2.36667	177
2.37033	174
2.37400	170
2.37767	168
2.38133	168
2.38500	164
2.38867	159
2.39233	156
2.39600	156
2.39967	155
2.40333	154
2.40700	155
2.41067	158
2.41433	160
2.41800	161
2.42167	164
2.42533	168
2.42900	176
2.43267	183
2.43633	185
2.44000	186
2.44367	182
2.44733	177
2.45100	172
2.45467	168
2.45833	163
2.46200	157
2.46567	150
2.46933	144
2.47300	141
2.47667	139
2.48033	138
2.48400	138
2.48767	138
2.49133	139
2.49500	140
2.49867	141
2.50233	141
2.50600	142
2.50967	143
2.51333	147
2.51700	151
2.52067	154
2.52433	154
2.52800	151
2.53167	147
2.53533	142
2.53900	132
2.54267	123
2.54633	118
2.55000	114
2.55367	110
2.55733	108
2.56100	111
2.56467	111
2.56833	109
2.57200	108
2.57567	106
2.57933	103
2.58300	101
2.58667	105
2.59033	113
2.59400	119
2.59767	122
2.60133	121
2.60500	119
2.60867	118
2.61233	116
2.61600	113
2.61967	112
2.62333	109
2.62700	104
2.63067	99
2.63433	96
2.63800	95
2.64167	94
2.64533	93
2.64900	93
2.65267	94
2.65633	98
2.66000	102
2.66367	104
2.66733	103
2.67100	104
2.67467	106
2.67833	109
2.68200	112
2.68567	115
2.68933	114
2.69300	108
2.69667	99
2.70033	91
2.70400	88
2.70767	88
2.71133	90
2.71500	90
2.71867	89
2.72233	95
2.72600	102
2.72967	106
2.73333	107
2.73700	105
2.74067	103
2.74433	101
2.74800	99
2.75167	96
2.75533	93
2.75900	92
2.76267	96
2.76633	102
2.77000	106
2.77367	108
2.77733	102
2.78100	92
2.78467	82
2.78833	77
2.79200	73
2.79567	75
2.79933	82
2.80300	90
2.80667	97
2.81033	103
2.81400	105
2.81767	103
2.82133	98
2.82500	93
2.82867	88
2.83233	84
2.83600	82
2.83967	81
2.84333	80
2.84700	76
2.85067	72
2.85433	69
2.85800	71
2.86167	78
2.86533	89
2.86900	97
2.87267	102
2.87633	103
2.88000	103
2.88367	104
2.88733	103
2.89100	103
2.89467	103
2.89833	101
2.90200	96
2.90567	94
2.90933	96
2.91300	97
2.91667	97
2.92033	96
2.92400	91
2.92767	84
2.93133	78
2.93500	74
2.93867	72
2.94233	73
2.94600	75
2.94967	78
2.95333	79
2.95700	78
2.96067	75
2.96433	75
2.96800	77
2.97167	80
2.97533	83
2.97900	87
2.98267	93
2.98633	101
2.99000	106
2.99367	102
2.99733	95
3.00100	87
3.00467	80
3.00833	76
3.01200	72
3.01567	70
3.01933	70
3.02300	76
3.02667	86
3.03033	93
3.03400	92
3.03767	87
3.04133	81
3.04500	76
3.04867	74
3.05233	74
3.05600	75
3.05967	74
3.06333	72
3.06700	73
3.07067	77
3.07433	82
3.07800	85
3.08167	88
3.08533	94
3.08900	99
3.09267	103
3.09633	102
3.10000	99
3.10367	96
3.10733	90
3.11100	83
3.11467	78
3.11833	77
3.12200	78
3.12567	77
3.12933	77
3.13300	80
3.13667	83
3.14033	83
3.14400	81
3.14767	81
3.15133	84
3.15500	88
3.15867	95
3.16233	99
3.16600	98
3.16967	92
3.17333	82
3.17700	72
3.18067	67
3.18433	65
3.18800	66
3.19167	67
3.19533	66
3.19900	64
3.20267	65
3.20633	67
3.21000	70
3.21367	73
3.21733	76
3.22100	77
3.22467	75
3.22833	70
3.23200	64
3.23567	62
3.23933	64
3.24300	67
3.24667	70
3.25033	74
3.25400	77
3.25767	78
3.26133	81
3.26500	88
3.26867	98
3.27233	103
3.27600	101
3.27967	95
3.28333	90
3.28700	90
3.29067	94
3.29433	95
3.29800	91
3.30167	82
3.30533	74
3.30900	67
3.31267	68
3.31633	69
3.32000	70
3.32367	72
3.32733	74
3.33100	80
3.33467	86
3.33833	91
3.34200	94
3.34567	99
3.34933	99
3.35300	95
3.35667	93
3.36033	91
3.36400	89
3.36767	89
3.37133	93
3.37500	100
3.37867	105
3.38233	107
3.38600	103
3.38967	99
3.39333	99
3.39700	101
3.40067	99
3.40433	92
3.40800	85
3.41167	83
3.41533	84
3.41900	84
3.42267	84
3.42633	82
3.43000	79
3.43367	76
3.43733	76
3.44100	79
3.44467	85
3.44833	90
3.45200	92
3.45567	92
3.45933	91
3.46300	92
3.46667	94
3.47033	94
3.47400	95
3.47767	100
3.48133	103
3.48500	102
3.48867	98
3.49233	92
3.49600	82
3.49967	77
3.50333	73
3.50700	74
3.51067	75
3.51433	75
3.51800	74
3.52167	72
3.52533	72
3.52900	79
3.53267	89
3.53633	95
3.54000	99
3.54367	107
3.54733	110
3.55100	106
3.55467	101
3.55833	94
3.56200	88
3.56567	84
3.56933	80
3.57300	76
3.57667	73
3.58033	70
3.58400	70
3.58767	68
3.59133	66
3.59500	66
3.59867	66
3.60233	68
3.60600	69
3.60967	69
3.61333	72
3.61700	76
3.62067	86
3.62433	94
3.62800	97
3.63167	99
3.63533	101
3.63900	98
3.64267	93
3.64633	89
3.65000	84
3.65367	83
3.65733	83
3.66100	86
3.66467	91
3.66833	95
3.67200	98
3.67567	98
3.67933	93
3.68300	86
3.68667	82
3.69033	81
3.69400	80
3.69767	82
3.70133	86
3.70500	91
3.70867	95
3.71233	98
3.71600	98
3.71967	98
3.72333	99
3.72700	100
3.73067	101
3.73433	101
3.73800	98
3.74167	95
3.74533	95
3.74900	96
3.75267	98
3.75633	99
3.76000	96
3.76367	93
3.76733	93
3.77100	92
3.77467	88
3.77833	84
3.78200	82
3.78567	83
3.78933	86
3.79300	91
3.79667	96
3.80033	96
3.80400	92
3.80767	89
3.81133	91
3.81500	94
3.81867	97
3.82233	95
3.82600	90
3.82967	86
3.83333	85
3.83700	86
3.84067	84
3.84433	81
3.84800	78
3.85167	77
3.85533	77
3.85900	79
3.86267	85
3.86633	92
3.87000	98
3.87367	101
3.87733	99
3.88100	93
3.88467	86
3.88833	83
3.89200	85
3.89567	90
3.89933	96
3.90300	99
3.90667	101
3.91033	101
3.91400	98
3.91767	93
3.92133	91
3.92500	88
3.92867	85
3.93233	80
3.93600	79
3.93967	81
3.94333	84
3.94700	86
3.95067	87
3.95433	88
3.95800	89
3.96167	89
3.96533	90
3.96900	89
3.97267	88
3.97633	86
3.98000	85
3.98367	85
3.98733	87
3.99100	89
3.99467	90
3.99833	92

[Chromatogram (Ch2)]
Interval(msec)	220
# of Points	1091
Start Time(min)	0.002
End Time(min)	3.998
R.Time (min)	Intensity
0.00167	0
0.00533	0
0.00900	1
0.01267	2
0.01633	2
0.02000	3
0.02367	4
0.02733	4
0.03100	4
0.03467	5
0.03833	5
0.04200	5
0.04567	5
0.04933	4
0.05300	4
0.05667	5
0.06033	5
0.06400	5
0.06767	5
0.07133	5
0.07500	5
0.07867	5
0.08233	5
0.08600	5
0.08967	5
0.09333	5
0.09700	5
0.10067	4
0.10433	4
0.10800	4
0.11167	4
0.11533	3
0.11900	3
0.12267	3
0.12633	2
0.13000	2
0.13367	2
0.13733	2
0.14100	2
0.14467	2
0.14833	1
0.15200	2
0.15567	2
0.15933	2
0.16300	2
0.16667	3
0.17033	3
0.17400	3
0.17767	3
0.18133	3
0.18500	3
0.18867	3
0.19233	3
0.19600	4
0.19967	4
0.20333	4
0.20700	4
0.21067	4
0.21433	5
0.21800	5
0.22167	5
0.22533	5
0.22900	6
0.23267	6
0.23633	6
0.24000	6
0.24367	6
0.24733	5
0.25100	5
0.25467	5
0.25833	5
0.26200	6
0.26567	6
0.26933	6
0.27300	6
0.27667	6
0.28033	6
0.28400	6
0.28767	6
0.29133	6
0.29500	6
0.29867	6
0.30233	6
0.30600	6
0.30967	5
0.31333	5
0.31700	5
0.32067	5
0.32433	5
0.32800	5
0.33167	5
0.33533	5
0.33900	5
0.34267	6
0.34633	6
0.35000	6
0.35367	6
0.35733	6
0.36100	7
0.36467	6
0.36833	6
0.37200	6
0.37567	6
0.37933	6
0.38300	6
0.38667	6
0.39033	6
0.39400	5
0.39767	5
0.40133	5
0.40500	5
0.40867	5
0.41233	4
0.41600	4
0.41967	4
0.42333	4
0.42700	4
0.43067	4
0.43433	4
0.43800	4
0.44167	4
0.44533	4
0.44900	4
0.45267	4
0.45633	3
0.46000	2
0.46367	2
0.46733	2
0.47100	2
0.47467	2
0.47833	2
0.48200	2
0.48567	2
0.48933	2
0.49300	2
0.49667	2
0.50033	2
0.50400	1
0.50767	1
0.51133	1
0.51500	1
0.51867	1
0.52233	1
0.52600	1
0.52967	0
0.53333	0
0.53700	-0
0.54067	-0
0.54433	-0
0.54800	-0
0.55167	0
0.55533	0
0.55900	0
0.56267	0
0.56633	1
0.57000	1
0.57367	1
0.57733	1
0.58100	1
0.58467	1
0.58833	1
0.59200	1
0.59567	2
0.59933	2
0.60300	1
0.60667	1
0.61033	1
0.61400	1
0.61767	1
0.62133	1
0.62500	1
0.62867	2
0.63233	2
0.63600	2
0.63967	2
0.64333	2
0.64700	2
0.65067	2
0.65433	2
0.65800	2
0.66167	3
0.66533	3
0.66900	3
0.67267	3
0.67633	3
0.68000	3
0.68367	3
0.68733	3
0.69100	2
0.69467	2
0.69833	1
0.70200	1
0.70567	1
0.70933	1
0.71300	1
0.71667	1
0.72033	1
0.72400	1
0.72767	1
0.73133	0
0.73500	0
0.73867	-0
0.74233	-0
0.74600	-0
0.74967	-0
0.75333	-0
0.75700	0
0.76067	1
0.76433	1
0.76800	1
0.77167	2
0.77533	2
0.77900	2
0.78267	3
0.78633	3
0.79000	3
0.79367	4
0.79733	4
0.80100	4
0.80467	5
0.80833	5
0.81200	6
0.81567	6
0.81933	6
0.82300	5
0.82667	5
0.83033	5
0.83400	5
0.83767	5
0.84133	5
0.84500	4
0.84867	4
0.85233	4
0.85600	4
0.85967	4
0.86333	3
0.86700	3
0.87067	3
0.87433	2
0.87800	2
0.88167	2
0.88533	2
0.88900	2
0.89267	2
0.89633	2
0.90000	2
0.90367	2
0.90733	2
0.91100	2
0.91467	2
0.91833	2
0.92200	2
0.92567	2
0.92933	2
0.93300	2
0.93667	2
0.94033	2
0.94400	1
0.94767	1
0.95133	1
0.95500	1
0.95867	2
0.96233	2
0.96600	2
0.96967	2
0.97333	2
0.97700	2
0.98067	2
0.98433	2
0.98800	2
0.99167	2
0.99533	2
0.99900	2
1.00267	2
1.00633	2
1.01000	2
1.01367	2
1.01733	2
1.02100	2
1.02467	2
1.02833	2
1.03200	2
1.03567	2
1.03933	2
1.04300	2
1.04667	2
1.05033	1
1.05400	0
1.05767	-0
1.06133	-1
1.06500	-1
1.06867	-2
1.07233	-2
1.07600	-2
1.07967	-2
1.08333	-2
1.08700	-2
1.09067	-2
1.09433	-1
1.09800	-1
1.10167	-1
1.10533	-1
1.10900	-1
1.11267	-0
1.11633	-0
1.12000	-0
1.12367	-0
1.12733	-0
1.13100	-0
1.13467	-0
1.13833	-0
1.14200	0
1.14567	0
1.14933	0
1.15300	0
1.15667	0
1.16033	0
1.16400	0
1.16767	0
1.17133	-0
1.17500	-0
1.17867	-1
1.18233	-1
1.18600	-1
1.18967	-1
1.19333	-1
1.19700	-2
1.20067	-2
1.20433	-2
1.20800	-2
1.21167	-3
1.21533	-3
1.21900	-3
1.22267	-3
1.22633	-3
1.23000	-3
1.23367	-3
1.23733	-3
1.24100	-3
1.24467	-4
1.24833	-3
1.25200	-3
1.25567	-3
1.25933	-2
1.26300	-2
1.26667	-1
1.27033	-0
1.27400	0
1.27767	1
1.28133	1
1.28500	2
1.28867	2
1.29233	2
1.29600	2
1.29967	2
1.30333	2
1.30700	2
1.31067	2
1.31433	2
1.31800	2
1.32167	2
1.32533	2
1.32900	1
1.33267	1
1.33633	1
1.34000	1
1.34367	1
1.34733	1
1.35100	1
1.35467	1
1.35833	1
1.36200	1
1.36567	2
1.36933	2
1.37300	1
1.37667	1
1.38033	1
1.38400	1
1.38767	1
1.39133	0
1.39500	1
1.39867	1
1.40233	1
1.40600	1
1.40967	1
1.41333	1
1.41700	1
1.42067	1
1.42433	1
1.42800	1
1.43167	1
1.43533	1
1.43900	1
1.44267	1
1.44633	1
1.45000	1
1.45367	1
1.45733	1
1.46100	2
1.46467	2
1.46833	2
1.47200	2
1.47567	2
1.47933	3
1.48300	3
1.48667	3
1.49033	3
1.49400	4
1.49767	4
1.50133	4
1.50500	4
1.50867	4
1.51233	4
1.51600	4
1.51967	4
1.52333	4
1.52700	4
1.53067	4
1.53433	4
1.53800	4
1.54167	4
1.54533	3
1.54900	3
1.55267	3
1.55633	3
1.56000	3
1.56367	3
1.56733	2
1.57100	2
1.57467	2
1.57833	2
1.58200	1
1.58567	1
1.58933	1
1.59300	1
1.59667	0
1.60033	0
1.60400	-1
1.60767	-2
1.61133	-3
1.61500	-5
1.61867	-7
1.62233	-9
1.62600	-12
1.62967	-15
1.63333	-18
1.63700	-21
1.64067	-25
1.64433	-28
1.64800	-32
1.65167	-36
1.65533	-40
1.65900	-44
1.66267	-48
1.66633	-53
1.67000	-58
1.67367	-64
1.67733	-69
1.68100	-75
1.68467	-80
1.68833	-85
1.69200	-89
1.69567	-93
1.69933	-96
1.70300	-99
1.70667	-101
1.71033	-103
1.71400	-105
1.71767	-106
1.72133	-107
1.72500	-107
1.72867	-108
1.73233	-108
1.73600	-108
1.73967	-109
1.74333	-110
1.74700	-111
1.75067	-112
1.75433	-112
1.75800	-113
1.76167	-114
1.76533	-115
1.76900	-116
1.77267	-117
1.77633	-118
1.78000	-118
1.78367	-119
1.78733	-119
1.79100	-119
1.79467	-120
1.79833	-120
1.80200	-120
1.80567	-121
1.80933	-121
1.81300	-121
1.81667	-121
1.82033	-121
1.82400	-121
1.82767	-121
1.83133	-121
1.83500	-121
1.83867	-120
1.84233	-120
1.84600	-120
1.84967	-119
1.85333	-119
1.85700	-119
1.86067	-120
1.86433	-120
1.86800	-120
1.87167	-120
1.87533	-120
1.87900	-120
1.88267	-120
1.88633	-119
1.89000	-119
1.89367	-119
1.89733	-118
1.90100	-118
1.90467	-118
1.90833	-118
1.91200	-118
1.91567	-118
1.91933	-117
1.92300	-116
1.92667	-115
1.93033	-115
1.93400	-115
1.93767	-115
1.94133	-115
1.94500	-115
1.94867	-115
1.95233	-115
1.95600	-115
1.95967	-114
1.96333	-115
1.96700	-115
1.97067	-115
1.97433	-115
1.97800	-114
1.98167	-114
1.98533	-114
1.98900	-114
1.99267	-114
1.99633	-114
2.00000	-114
2.00367	-114
2.00733	-114
2.01100	-113
2.01467	-113
2.01833	-113
2.02200	-112
2.02567	-111
2.02933	-111
2.03300	-110
2.03667	-109
2.04033	-108
2.04400	-108
2.04767	-107
2.05133	-107
2.05500	-106
2.05867	-105
2.06233	-105
2.06600	-105
2.06967	-104
2.07333	-104
2.07700	-104
2.08067	-104
2.08433	-104
2.08800	-104
2.09167	-104
2.09533	-103
2.09900	-103
2.10267	-103
2.10633	-103
2.11000	-102
2.11367	-102
2.11733	-102
2.12100	-102
2.12467	-101
2.12833	-101
2.13200	-100
2.13567	-100
2.13933	-99
2.14300	-99
2.14667	-98
2.15033	-98
2.15400	-98
2.15767	-98
2.16133	-97
2.16500	-96
2.16867	-96
2.17233	-95
2.17600	-94
2.17967	-94
2.18333	-94
2.18700	-94
2.19067	-94
2.19433	-93
2.19800	-93
2.20167	-93
2.20533	-93
2.20900	-94
2.21267	-93
2.21633	-93
2.22000	-93
2.22367	-92
2.22733	-92
2.23100	-92
2.23467	-92
2.23833	-92
2.24200	-91
2.24567	-91
2.24933	-91
2.25300	-91
2.25667	-91
2.26033	-91
2.26400	-92
2.26767	-93
2.27133	-94
2.27500	-94
2.27867	-94
2.28233	-93
2.28600	-92
2.28967	-92
2.29333	-91
2.29700	-90
2.30067	-89
2.30433	-88
2.30800	-87
2.31167	-86
2.31533	-86
2.31900	-86
2.32267	-86
2.32633	-86
2.33000	-85
2.33367	-85
2.33733	-85
2.34100	-84
2.34467	-84
2.34833	-83
2.35200	-83
2.35567	-82
2.35933	-81
2.36300	-81
2.36667	-80
2.37033	-78
2.37400	-76
2.37767	-74
2.38133	-71
2.38500	-67
2.38867	-64
2.39233	-60
2.39600	-55
2.39967	-50
2.40333	-46
2.40700	-41
2.41067	-36
2.41433	-32
2.41800	-28
2.42167	-24
2.42533	-21
2.42900	-18
2.43267	-16
2.43633	-13
2.44000	-12
2.44367	-10
2.44733	-9
2.45100	-8
2.45467	-7
2.45833	-5
2.46200	-3
2.46567	-1
2.46933	0
2.47300	2
2.47667	3
2.48033	4
2.48400	4
2.48767	5
2.49133	6
2.49500	6
2.49867	7
2.50233	7
2.50600	8
2.50967	9
2.51333	10
2.51700	11
2.52067	12
2.52433	12
2.52800	13
2.53167	13
2.53533	13
2.53900	13
2.54267	13
2.54633	14
2.55000	14
2.55367	15
2.55733	16
2.56100	16
2.56467	17
2.56833	17
2.57200	18
2.57567	18
2.57933	18
2.58300	18
2.58667	18
2.59033	18
2.59400	18
2.59767	19
2.60133	19
2.60500	20
2.60867	20
2.61233	20
2.61600	21
2.61967	21
2.62333	21
2.62700	21
2.63067	21
2.63433	22
2.63800	22
2.64167	22
2.64533	22
2.64900	22
2.65267	22
2.65633	22
2.66000	22
2.66367	23
2.66733	23
2.67100	23
2.67467	23
2.67833	23
2.68200	23
2.68567	24
2.68933	24
2.69300	24
2.69667	25
2.70033	25
2.70400	25
2.70767	25
2.71133	25
2.71500	24
2.71867	24
2.72233	24
2.72600	24
2.72967	24
2.73333	24
2.73700	25
2.74067	25
2.74433	25
2.74800	25
2.75167	26
2.75533	26
2.75900	26
2.76267	27
2.76633	27
2.77000	27
2.77367	27
2.77733	27
2.78100	27
2.78467	27
2.78833	27
2.79200	27
2.79567	27
2.79933	27
2.80300	26
2.80667	26
2.81033	26
2.81400	26
2.81767	26
2.82133	26
2.82500	25
2.82867	25
2.83233	25
2.83600	25
2.83967	25
2.84333	25
2.84700	24
2.85067	21
2.85433	18
2.85800	11
2.86167	1
2.86533	-12
2.86900	-30
2.87267	-53
2.87633	-81
2.88000	-115
2.88367	-153
2.88733	-197
2.89100	-245
2.89467	-298
2.89833	-356
2.90200	-417
2.90567	-482
2.90933	-550
2.91300	-621
2.91667	-694
2.92033	-770
2.92400	-848
2.92767	-928
2.93133	-1010
2.93500	-1093
2.93867	-1178
2.94233	-1265
2.94600	-1352
2.94967	-1434
2.95333	-1498
2.95700	-1532
2.96067	-1531
2.96433	-1496
2.96800	-1431
2.97167	-1344
2.97533	-1242
2.97900	-1133
2.98267	-1022
2.98633	-913
2.99000	-808
2.99367	-711
2.99733	-622
3.00100	-541
3.00467	-469
3.00833	-404
3.01200	-348
3.01567	-298
3.01933	-255
3.02300	-218
3.02667	-185
3.03033	-158
3.03400	-134
3.03767	-113
3.04133	-95
3.04500	-80
3.04867	-67
3.05233	-56
3.05600	-47
3.05967	-38
3.06333	-31
3.06700	-25
3.07067	-20
3.07433	-16
3.07800	-12
3.08167	-9
3.08533	-6
3.08900	-4
3.09267	-1
3.09633	1
3.10000	2
3.10367	4
3.10733	5
3.11100	6
3.11467	7
3.11833	8
3.12200	9
3.12567	9
3.12933	10
3.13300	11
3.13667	11
3.14033	12
3.14400	12
3.14767	12
3.15133	13
3.15500	13
3.15867	14
3.16233	14
3.16600	14
3.16967	15
3.17333	15
3.17700	15
3.18067	16
3.18433	16
3.18800	16
3.19167	17
3.19533	17
3.19900	18
3.20267	18
3.20633	19
3.21000	19
3.21367	20
3.21733	20
3.22100	21
3.22467	21
3.22833	22
3.23200	22
3.23567	23
3.23933	23
3.24300	24
3.24667	24
3.25033	24
3.25400	25
3.25767	25
3.26133	25
3.26500	25
3.26867	25
3.27233	25
3.27600	25
3.27967	25
3.28333	25
3.28700	25
3.29067	25
3.29433	25
3.29800	25
3.30167	25
3.30533	25
3.30900	25
3.31267	25
3.31633	25
3.32000	25
3.32367	25
3.32733	25
3.33100	25
3.33467	26
3.33833	26
3.34200	26
3.34567	26
3.34933	26
3.35300	26
3.35667	26
3.36033	26
3.36400	26
3.36767	26
3.37133	26
3.37500	26
3.37867	26
3.38233	26
3.38600	26
3.38967	26
3.39333	26
3.39700	26
3.40067	26
3.40433	26
3.40800	26
3.41167	26
3.41533	26
3.41900	26
3.42267	26
3.42633	26
3.43000	26
3.43367	27
3.43733	27
3.44100	27
3.44467	27
3.44833	27
3.45200	27
3.45567	28
3.45933	28
3.46300	28
3.46667	28
3.47033	28
3.47400	28
3.47767	28
3.48133	28
3.48500	28
3.48867	28
3.49233	27
3.49600	27
3.49967	27
3.50333	27
3.50700	27
3.51067	27
3.51433	27
3.51800	27
3.52167	27
3.52533	28
3.52900	28
3.53267	28
3.53633	28
3.54000	28
3.54367	29
3.54733	29
3.55100	29
3.55467	30
3.55833	30
3.56200	30
3.56567	30
3.56933	30
3.57300	30
3.57667	31
3.58033	31
3.58400	31
3.58767	31
3.59133	31
3.59500	31
3.59867	32
3.60233	32
3.60600	32
3.60967	32
3.61333	33
3.61700	33
3.62067	33
3.62433	32
3.62800	32
3.63167	32
3.63533	32
3.63900	32
3.64267	32
3.64633	32
3.65000	32
3.65367	32
3.65733	31
3.66100	31
3.66467	31
3.66833	31
3.67200	31
3.67567	31
3.67933	31
3.68300	31
3.68667	31
3.69033	31
3.69400	31
3.69767	31
3.70133	31
3.70500	31
3.70867	30
3.71233	30
3.71600	30
3.71967	30
3.72333	30
3.72700	30
3.73067	30
3.73433	30
3.73800	30
3.74167	30
3.74533	30
3.74900	30
3.75267	30
3.75633	30
3.76000	30
3.76367	29
3.76733	29
3.77100	29
3.77467	29
3.77833	28
3.78200	28
3.78567	28
3.78933	28
3.79300	28
3.79667	28
3.80033	28
3.80400	28
3.80767	28
3.81133	28
3.81500	28
3.81867	28
3.82233	28
3.82600	28
3.82967	28
3.83333	28
3.83700	28
3.84067	28
3.84433	28
3.84800	28
3.85167	28
3.85533	28
3.85900	28
3.86267	28
3.86633	27
3.87000	27
3.87367	27
3.87733	27
3.88100	27
3.88467	27
3.88833	26
3.89200	26
3.89567	26
3.89933	26
3.90300	26
3.90667	26
3.91033	26
3.91400	26
3.91767	26
3.92133	26
3.92500	27
3.92867	27
3.93233	27
3.93600	28
3.93967	28
3.94333	28
3.94700	28
3.95067	28
3.95433	28
3.95800	28
3.96167	28
3.96533	28
3.96900	28
3.97267	29
3.97633	29
3.98000	29
3.98367	28
3.98733	28
3.99100	28
3.99467	28
3.99833	28

[Chromatogram (Ch3)]
Interval(msec)	220
# of Points	1091
Start Time(min)	0.002
End Time(min)	3.998
R.Time (min)	Intensity
0.00167	1
0.00533	-0
0.00900	-0
0.01267	0
0.01633	2
0.02000	2
0.02367	-0
0.02733	-2
0.03100	-1
0.03467	1
0.03833	1
0.04200	-1
0.04567	1
0.04933	2
0.05300	-0
0.05667	-0
0.06033	1
0.06400	3
0.06767	3
0.07133	3
0.07500	4
0.07867	4
0.08233	5
0.08600	2
0.08967	1
0.09333	1
0.09700	2
0.10067	3
0.10433	6
0.10800	10
0.11167	12
0.11533	13
0.11900	12
0.12267	10
0.12633	9
0.13000	8
0.13367	8
0.13733	10
0.14100	9
0.14467	8
0.14833	8
0.15200	7
0.15567	8
0.15933	7
0.16300	8
0.16667	9
0.17033	8
0.17400	6
0.17767	8
0.18133	10
0.18500	8
0.18867	5
0.19233	2
0.19600	0
0.19967	0
0.20333	1
0.20700	3
0.21067	5
0.21433	7
0.21800	8
0.22167	6
0.22533	5
0.22900	5
0.23267	5
0.23633	5
0.24000	5
0.24367	5
0.24733	4
0.25100	4
0.25467	4
0.25833	4
0.26200	5
0.26567	4
0.26933	3
0.27300	1
0.27667	-3
0.28033	-2
0.28400	-2
0.28767	-0
0.29133	-0
0.29500	1
0.29867	1
0.30233	2
0.30600	3
0.30967	4
0.31333	6
0.31700	5
0.32067	3
0.32433	1
0.32800	-3
0.33167	-4
0.33533	-6
0.33900	-6
0.34267	-5
0.34633	-2
0.35000	-1
0.35367	-2
0.35733	-3
0.36100	-4
0.36467	-4
0.36833	-4
0.37200	-3
0.37567	-1
0.37933	2
0.38300	3
0.38667	1
0.39033	-0
0.39400	-3
0.39767	-5
0.40133	-5
0.40500	-5
0.40867	-3
0.41233	-1
0.41600	1
0.41967	2
0.42333	2
0.42700	-0
0.43067	-3
0.43433	-6
0.43800	-8
0.44167	-8
0.44533	-9
0.44900	-8
0.45267	-7
0.45633	-7
0.46000	-11
0.46367	-12
0.46733	-12
0.47100	-8
0.47467	-3
0.47833	-2
0.48200	-3
0.48567	-6
0.48933	-6
0.49300	-9
0.49667	-10
0.50033	-10
0.50400	-11
0.50767	-12
0.51133	-10
0.51500	-8
0.51867	-9
0.52233	-11
0.52600	-12
0.52967	-12
0.53333	-10
0.53700	-10
0.54067	-12
0.54433	-15
0.54800	-16
0.55167	-16
0.55533	-15
0.55900	-15
0.56267	-11
0.56633	-10
0.57000	-11
0.57367	-14
0.57733	-14
0.58100	-11
0.58467	-9
0.58833	-9
0.59200	-10
0.59567	-14
0.59933	-15
0.60300	-14
0.60667	-13
0.61033	-14
0.61400	-16
0.61767	-16
0.62133	-16
0.62500	-16
0.62867	-14
0.63233	-15
0.63600	-15
0.63967	-15
0.64333	-14
0.64700	-13
0.65067	-11
0.65433	-11
0.65800	-12
0.66167	-14
0.66533	-14
0.66900	-15
0.67267	-15
0.67633	-17
0.68000	-18
0.68367	-19
0.68733	-18
0.69100	-17
0.69467	-17
0.69833	-17
0.70200	-16
0.70567	-14
0.70933	-12
0.71300	-12
0.71667	-15
0.72033	-19
0.72400	-21
0.72767	-21
0.73133	-17
0.73500	-15
0.73867	-16
0.74233	-16
0.74600	-16
0.74967	-15
0.75333	-14
0.75700	-14
0.76067	-18
0.76433	-22
0.76800	-22
0.77167	-19
0.77533	-16
0.77900	-14
0.78267	-13
0.78633	-12
0.79000	-10
0.79367	-9
0.79733	-12
0.80100	-15
0.80467	-17
0.80833	-17
0.81200	-18
0.81567	-19
0.81933	-19
0.82300	-16
0.82667	-15
0.83033	-15
0.83400	-14
0.83767	-15
0.84133	-18
0.84500	-18
0.84867	-16
0.85233	-16
0.85600	-17
0.85967	-17
0.86333	-15
0.86700	-14
0.87067	-13
0.87433	-13
0.87800	-16
0.88167	-18
0.88533	-19
0.88900	-20
0.89267	-22
0.89633	-22
0.90000	-21
0.90367	-19
0.90733	-19
0.91100	-19
0.91467	-19
0.91833	-19
0.92200	-19
0.92567	-18
0.92933	-17
0.93300	-16
0.93667	-18
0.94033	-20
0.94400	-21
0.94767	-20
0.95133	-20
0.95500	-20
0.95867	-21
0.96233	-22
0.96600	-20
0.96967	-19
0.97333	-20
0.97700	-20
0.98067	-20
0.98433	-20
0.98800	-19
0.99167	-19
0.99533	-18
0.99900	-15
1.00267	-15
1.00633	-16
1.01000	-18
1.01367	-17
1.01733	-17
1.02100	-17
1.02467	-16
1.02833	-16
1.03200	-15
1.03567	-16
1.03933	-14
1.04300	-12
1.04667	-10
1.05033	-11
1.05400	-12
1.05767	-11
1.06133	-10
1.06500	-9
1.06867	-9
1.07233	-8
1.07600	-8
1.07967	-9
1.08333	-11
1.08700	-13
1.09067	-15
1.09433	-15
1.09800	-13
1.10167	-14
1.10533	-14
1.10900	-15
1.11267	-14
1.11633	-13
1.12000	-15
1.12367	-15
1.12733	-16
1.13100	-16
1.13467	-17
1.13833	-18
1.14200	-18
1.14567	-15
1.14933	-13
1.15300	-12
1.15667	-13
1.16033	-16
1.16400	-16
1.16767	-15
1.17133	-17
1.17500	-17
1.17867	-17
1.18233	-16
1.18600	-14
1.18967	-13
1.19333	-14
1.19700	-16
1.20067	-16
1.20433	-16
1.20800	-15
1.21167	-17
1.21533	-18
1.21900	-16
1.22267	-15
1.22633	-14
1.23000	-12
1.23367	-11
1.23733	-14
1.24100	-15
1.24467	-18
1.24833	-18
1.25200	-17
1.25567	-16
1.25933	-16
1.26300	-14
1.26667	-12
1.27033	-12
1.27400	-12
1.27767	-12
1.28133	-13
1.28500	-11
1.28867	-11
1.29233	-11
1.29600	-13
1.29967	-13
1.30333	-12
1.30700	-14
1.31067	-15
1.31433	-14
1.31800	-12
1.32167	-13
1.32533	-16
1.32900	-15
1.33267	-14
1.33633	-12
1.34000	-10
1.34367	-10
1.34733	-12
1.35100	-15
1.35467	-14
1.35833	-12
1.36200	-10
1.36567	-10
1.36933	-10
1.37300	-10
1.37667	-7
1.38033	-4
1.38400	-4
1.38767	-4
1.39133	-5
1.39500	-6
1.39867	-6
1.40233	-7
1.40600	-8
1.40967	-9
1.41333	-10
1.41700	-11
1.42067	-11
1.42433	-11
1.42800	-11
1.43167	-10
1.43533	-9
1.43900	-8
1.44267	-8
1.44633	-9
1.45000	-9
1.45367	-11
1.45733	-12
1.46100	-12
1.46467	-11
1.46833	-12
1.47200	-12
1.47567	-9
1.47933	-9
1.48300	-12
1.48667	-14
1.49033	-15
1.49400	-16
1.49767	-17
1.50133	-15
1.50500	-14
1.50867	-12
1.51233	-11
1.51600	-14
1.51967	-18
1.52333	-18
1.52700	-17
1.53067	-19
1.53433	-20
1.53800	-18
1.54167	-16
1.54533	-17
1.54900	-18
1.55267	-20
1.55633	-21
1.56000	-21
1.56367	-18
1.56733	-18
1.57100	-20
1.57467	-19
1.57833	-15
1.58200	-14
1.58567	-15
1.58933	-15
1.59300	-17
1.59667	-20
1.60033	-21
1.60400	-20
1.60767	-19
1.61133	-21
1.61500	-21
1.61867	-19
1.62233	-19
1.62600	-18
1.62967	-18
1.63333	-19
1.63700	-18
1.64067	-17
1.64433	-19
1.64800	-19
1.65167	-20
1.65533	-20
1.65900	-20
1.66267	-18
1.66633	-16
1.67000	-14
1.67367	-13
1.67733	-14
1.68100	-12
1.68467	-10
1.68833	-9
1.69200	-9
1.69567	-9
1.69933	-9
1.70300	-11
1.70667	-12
1.71033	-10
1.71400	-10
1.71767	-9
1.72133	-9
1.72500	-7
1.72867	-4
1.73233	-2
1.73600	-1
1.73967	-2
1.74333	-3
1.74700	-4
1.75067	-3
1.75433	-3
1.75800	-3
1.76167	-2
1.76533	-2
1.76900	-1
1.77267	-3
1.77633	-3
1.78000	-1
1.78367	2
1.78733	2
1.79100	3
1.79467	6
1.79833	9
1.80200	10
1.80567	11
1.80933	11
1.81300	12
1.81667	14
1.82033	15
1.82400	15
1.82767	17
1.83133	17
1.83500	13
1.83867	7
1.84233	5
1.84600	6
1.84967	7
1.85333	9
1.85700	11
1.86067	14
1.86433	16
1.86800	18
1.87167	20
1.87533	21
1.87900	21
1.88267	21
1.88633	23
1.89000	25
1.89367	25
1.89733	25
1.90100	24
1.90467	23
1.90833	25
1.91200	27
1.91567	29
1.91933	31
1.92300	33
1.92667	35
1.93033	37
1.93400	38
1.93767	39
1.94133	38
1.94500	37
1.94867	37
1.95233	36
1.95600	37
1.95967	41
1.96333	45
1.96700	45
1.97067	46
1.97433	46
1.97800	46
1.98167	44
1.98533	43
1.98900	42
1.99267	43
1.99633	43
2.00000	44
2.00367	45
2.00733	47
2.01100	47
2.01467	48
2.01833	49
2.02200	53
2.02567	55
2.02933	59
2.03300	61
2.03667	63
2.04033	63
2.04400	64
2.04767	65
2.05133	65
2.05500	66
2.05867	67
2.06233	66
2.06600	66
2.06967	66
2.07333	68
2.07700	66
2.08067	66
2.08433	69
2.08800	71
2.09167	73
2.09533	74
2.09900	74
2.10267	74
2.10633	76
2.11000	78
2.11367	80
2.11733	81
2.12100	83
2.12467	83
2.12833	83
2.13200	84
2.13567	85
2.13933	86
2.14300	86
2.14667	87
2.15033	90
2.15400	93
2.15767	95
2.16133	96
2.16500	96
2.16867	94
2.17233	95
2.17600	94
2.17967	94
2.18333	94
2.18700	95
2.19067	98
2.19433	100
2.19800	102
2.20167	102
2.20533	104
2.20900	106
2.21267	107
2.21633	110
2.22000	113
2.22367	116
2.22733	118
2.23100	121
2.23467	124
2.23833	125
2.24200	128
2.24567	128
2.24933	126
2.25300	126
2.25667	126
2.26033	126
2.26400	130
2.26767	132
2.27133	134
2.27500	135
2.27867	137
2.28233	141
2.28600	142
2.28967	143
2.29333	146
2.29700	149
2.30067	151
2.30433	153
2.30800	152
2.31167	152
2.31533	154
2.31900	156
2.32267	157
2.32633	157
2.33000	155
2.33367	156
2.33733	160
2.34100	163
2.34467	166
2.34833	167
2.35200	168
2.35567	169
2.35933	170
2.36300	173
2.36667	177
2.37033	179
2.37400	180
2.37767	180
2.38133	181
2.38500	182
2.38867	182
2.39233	182
2.39600	181
2.39967	179
2.40333	180
2.40700	181
2.41067	184
2.41433	187
2.41800	189
2.42167	192
2.42533	194
2.42900	193
2.43267	191
2.43633	194
2.44000	194
2.44367	196
2.44733	204
2.45100	209
2.45467	204
2.45833	188
2.46200	169
2.46567	150
2.46933	131
2.47300	117
2.47667	106
2.48033	98
2.48400	94
2.48767	90
2.49133	83
2.49500	77
2.49867	72
2.50233	67
2.50600	66
2.50967	67
2.51333	68
2.51700	68
2.52067	70
2.52433	71
2.52800	74
2.53167	76
2.53533	78
2.53900	77
2.54267	74
2.54633	73
2.55000	72
2.55367	71
2.55733	69
2.56100	70
2.56467	73
2.56833	77
2.57200	78
2.57567	77
2.57933	74
2.58300	71
2.58667	72
2.59033	75
2.59400	78
2.59767	77
2.60133	70
2.60500	61
2.60867	44
2.61233	18
2.61600	-14
2.61967	-51
2.62333	-90
2.62700	-129
2.63067	-165
2.63433	-195
2.63800	-221
2.64167	-240
2.64533	-254
2.64900	-263
2.65267	-267
2.65633	-268
2.66000	-266
2.66367	-259
2.66733	-251
2.67100	-242
2.67467	-228
2.67833	-215
2.68200	-205
2.68567	-193
2.68933	-182
2.69300	-172
2.69667	-161
2.70033	-150
2.70400	-142
2.70767	-134
2.71133	-124
2.71500	-115
2.71867	-109
2.72233	-103
2.72600	-98
2.72967	-91
2.73333	-84
2.73700	-76
2.74067	-71
2.74433	-67
2.74800	-66
2.75167	-65
2.75533	-65
2.75900	-67
2.76267	-68
2.76633	-66
2.77000	-64
2.77367	-62
2.77733	-59
2.78100	-57
2.78467	-57
2.78833	-59
2.79200	-60
2.79567	-60
2.79933	-62
2.80300	-62
2.80667	-62
2.81033	-62
2.81400	-63
2.81767	-65
2.82133	-62
2.82500	-52
2.82867	-18
2.83233	63
2.83600	230
2.83967	539
2.84333	1064
2.84700	1860
2.85067	2958
2.85433	4353
2.85800	5995
2.86167	7789
2.86533	9613
2.86900	11332
2.87267	12813
2.87633	13952
2.88000	14681
2.88367	14981
2.88733	14880
2.89100	14435
2.89467	13725
2.89833	12829
2.90200	11824
2.90567	10769
2.90933	9714
2.91300	8690
2.91667	7722
2.92033	6827
2.92400	6009
2.92767	5269
2.93133	4605
2.93500	4015
2.93867	3489
2.94233	3024
2.94600	2613
2.94967	2254
2.95333	1942
2.95700	1671
2.96067	1431
2.96433	1223
2.96800	1044
2.97167	888
2.97533	753
2.97900	637
2.98267	538
2.98633	448
2.99000	371
2.99367	308
2.99733	252
3.00100	202
3.00467	161
3.00833	126
3.01200	94
3.01567	65
3.01933	42
3.02300	23
3.02667	6
3.03033	-8
3.03400	-22
3.03767	-34
3.04133	-44
3.04500	-54
3.04867	-59
3.05233	-66
3.05600	-72
3.05967	-78
3.06333	-83
3.06700	-85
3.07067	-88
3.07433	-91
3.07800	-95
3.08167	-99
3.08533	-103
3.08900	-105
3.09267	-105
3.09633	-105
3.10000	-107
3.10367	-106
3.10733	-107
3.11100	-109
3.11467	-111
3.11833	-114
3.12200	-115
3.12567	-116
3.12933	-119
3.13300	-122
3.13667	-123
3.14033	-123
3.14400	-123
3.14767	-123
3.15133	-123
3.15500	-120
3.15867	-120
3.16233	-123
3.16600	-125
3.16967	-127
3.17333	-125
3.17700	-125
3.18067	-127
3.18433	-126
3.18800	-126
3.19167	-126
3.19533	-127
3.19900	-129
3.20267	-129
3.20633	-131
3.21000	-132
3.21367	-132
3.21733	-135
3.22100	-136
3.22467	-135
3.22833	-136
3.23200	-138
3.23567	-140
3.23933	-142
3.24300	-142
3.24667	-142
3.25033	-141
3.25400	-142
3.25767	-144
3.26133	-145
3.26500	-146
3.26867	-148
3.27233	-150
3.27600	-151
3.27967	-154
3.28333	-158
3.28700	-161
3.29067	-162
3.29433	-163
3.29800	-162
3.30167	-161
3.30533	-163
3.30900	-166
3.31267	-167
3.31633	-169
3.32000	-174
3.32367	-174
3.32733	-172
3.33100	-171
3.33467	-170
3.33833	-172
3.34200	-174
3.34567	-176
3.34933	-178
3.35300	-179
3.35667	-181
3.36033	-184
3.36400	-188
3.36767	-189
3.37133	-192
3.37500	-194
3.37867	-195
3.38233	-196
3.38600	-197
3.38967	-199
3.39333	-198
3.39700	-199
3.40067	-199
3.40433	-200
3.40800	-204
3.41167	-207
3.41533	-209
3.41900	-211
3.42267	-213
3.42633	-214
3.43000	-215
3.43367	-215
3.43733	-215
3.44100	-217
3.44467	-220
3.44833	-223
3.45200	-224
3.45567	-224
3.45933	-228
3.46300	-231
3.46667	-236
3.47033	-236
3.47400	-235
3.47767	-235
3.48133	-236
3.48500	-238
3.48867	-241
3.49233	-243
3.49600	-243
3.49967	-243
3.50333	-243
3.50700	-247
3.51067	-250
3.51433	-250
3.51800	-250
3.52167	-252
3.52533	-255
3.52900	-259
3.53267	-262
3.53633	-264
3.54000	-262
3.54367	-261
3.54733	-260
3.55100	-259
3.55467	-259
3.55833	-260
3.56200	-261
3.56567	-265
3.56933	-267
3.57300	-269
3.57667	-273
3.58033	-276
3.58400	-279
3.58767	-279
3.59133	-278
3.59500	-279
3.59867	-280
3.60233	-281
3.60600	-281
3.60967	-279
3.61333	-278
3.61700	-279
3.62067	-279
3.62433	-281
3.62800	-283
3.63167	-285
3.63533	-287
3.63900	-284
3.64267	-281
3.64633	-280
3.65000	-282
3.65367	-282
3.65733	-283
3.66100	-285
3.66467	-284
3.66833	-283
3.67200	-284
3.67567	-285
3.67933	-285
3.68300	-284
3.68667	-282
3.69033	-282
3.69400	-283
3.69767	-284
3.70133	-287
3.70500	-289
3.70867	-290
3.71233	-289
3.71600	-288
3.71967	-287
3.72333	-287
3.72700	-289
3.73067	-291
3.73433	-292
3.73800	-292
3.74167	-290
3.74533	-288
3.74900	-284
3.75267	-283
3.75633	-282
3.76000	-281
3.76367	-281
3.76733	-281
3.77100	-281
3.77467	-280
3.77833	-279
3.78200	-276
3.78567	-277
3.78933	-281
3.79300	-280
3.79667	-279
3.80033	-279
3.80400	-277
3.80767	-275
3.81133	-275
3.81500	-275
3.81867	-276
3.82233	-278
3.82600	-279
3.82967	-279
3.83333	-280
3.83700	-280
3.84067	-278
3.84433	-277
3.84800	-276
3.85167	-274
3.85533	-272
3.85900	-270
3.86267	-269
3.86633	-268
3.87000	-265
3.87367	-265
3.87733	-266
3.88100	-266
3.88467	-265
3.88833	-264
3.89200	-265
3.89567	-267
3.89933	-267
3.90300	-266
3.90667	-262
3.91033	-260
3.91400	-258
3.91767	-256
3.92133	-255
3.92500	-254
3.92867	-253
3.93233	-252
3.93600	-252
3.93967	-252
3.94333	-251
3.94700	-253
3.95067	-251
3.95433	-248
3.95800	-245
3.96167	-244
3.96533	-245
3.96900	-247
3.97267	-248
3.97633	-245
3.98000	-241
3.98367	-239
3.98733	-239
3.99100	-240
3.99467	-239
3.99833	-236

[Status Trace (Column Oven Temperature)]
Interval(msec)	1000
# of Points	240
Start Time(min)	0.005
End Time(min)	3.988
Intensity Units	
Intensity Multiplier	1
R.Time (min)	Intensity
0.00462	35.05
0.02128	35.03
0.03795	35.02
0.05462	35.01
0.07128	35.00
0.08795	35.00
0.10462	35.01
0.12128	35.02
0.13795	35.03
0.15462	35.05
0.17128	35.05
0.18795	35.04
0.20462	35.03
0.22128	35.02
0.23795	35.01
0.25462	34.99
0.27128	34.98
0.28795	34.97
0.30462	34.97
0.32128	34.96
0.33795	34.95
0.35462	34.94
0.37128	34.95
0.38795	34.95
0.40462	34.94
0.42128	34.94
0.43795	34.94
0.45462	34.95
0.47128	34.95
0.48795	34.96
0.50462	34.96
0.52128	34.97
0.53795	34.99
0.55462	35.00
0.57128	35.00
0.58795	35.00
0.60462	35.00
0.62128	35.01
0.63795	34.99
0.65462	35.00
0.67128	35.00
0.68795	35.01
0.70462	35.02
0.72128	35.02
0.73795	35.03
0.75462	35.02
0.77128	35.00
0.78795	34.99
0.80462	34.97
0.82128	34.97
0.83795	34.97
0.85462	34.97
0.87128	34.97
0.88795	34.97
0.90462	34.97
0.92128	34.97
0.93795	34.97
0.95462	34.97
0.97128	34.97
0.98795	34.98
1.00462	34.97
1.02128	34.96
1.03795	34.97
1.05462	34.99
1.07128	35.00
1.08795	35.01
1.10462	35.00
1.12128	35.00
1.13795	35.00
1.15462	35.00
1.17128	35.01
1.18795	35.02
1.20462	35.04
1.22128	35.04
1.23795	35.06
1.25462	35.05
1.27128	35.04
1.28795	35.03
1.30462	35.02
1.32128	35.03
1.33795	35.03
1.35462	35.03
1.37128	35.03
1.38795	35.02
1.40462	35.02
1.42128	35.02
1.43795	35.02
1.45462	35.02
1.47128	35.03
1.48795	35.01
1.50462	35.00
1.52128	34.98
1.53795	34.97
1.55462	34.98
1.57128	34.99
1.58795	35.00
1.60462	35.03
1.62128	35.13
1.63795	35.29
1.65462	35.52
1.67128	35.86
1.68795	36.23
1.70462	36.58
1.72128	36.92
1.73795	37.26
1.75462	37.59
1.77128	37.94
1.78795	38.28
1.80462	38.62
1.82128	38.94
1.83795	39.27
1.85462	39.61
1.87128	39.94
1.88795	40.26
1.90462	40.60
1.92128	40.92
1.93795	41.25
1.95462	41.57
1.97128	41.90
1.98795	42.24
2.00462	42.57
2.02128	42.89
2.03795	43.21
2.05462	43.54
2.07128	43.85
2.08795	44.18
2.10462	44.51
2.12128	44.83
2.13795	45.16
2.15462	45.46
2.17128	45.79
2.18795	46.11
2.20462	46.44
2.22128	46.76
2.23795	47.08
2.25462	47.42
2.27128	47.81
2.28795	48.11
2.30462	48.44
2.32128	48.77
2.33795	49.09
2.35462	49.39
2.37128	49.59
2.38795	49.67
2.40462	49.66
2.42128	49.67
2.43795	49.68
2.45462	49.69
2.47128	49.69
2.48795	49.71
2.50462	49.72
2.52128	49.74
2.53795	49.76
2.55462	49.78
2.57128	49.79
2.58795	49.81
2.60462	49.80
2.62128	49.82
2.63795	49.83
2.65462	49.84
2.67128	49.85
2.68795	49.85
2.70462	49.85
2.72128	49.86
2.73795	49.86
2.75462	49.85
2.77128	49.85
2.78795	49.85
2.80462	49.86
2.82128	49.87
2.83795	49.87
2.85462	49.89
2.87128	49.91
2.88795	49.93
2.90462	49.94
2.92128	49.96
2.93795	49.97
2.95462	49.99
2.97128	50.00
2.98795	50.00
3.00462	50.00
3.02128	50.01
3.03795	50.02
3.05462	50.02
3.07128	50.03
3.08795	50.04
3.10462	50.05
3.12128	50.06
3.13795	50.08
3.15462	50.09
3.17128	50.10
3.18795	50.10
3.20462	50.10
3.22128	50.09
3.23795	50.07
3.25462	50.07
3.27128	50.06
3.28795	50.06
3.30462	50.06
3.32128	50.07
3.33795	50.07
3.35462	50.08
3.37128	50.08
3.38795	50.08
3.40462	50.08
3.42128	50.09
3.43795	50.08
3.45462	50.08
3.47128	50.08
3.48795	50.10
3.50462	50.11
3.52128	50.11
3.53795	50.10
3.55462	50.09
3.57128	50.07
3.58795	50.05
3.60462	50.03
3.62128	50.02
3.63795	50.01
3.65462	50.00
3.67128	49.99
3.68795	49.99
3.70462	49.98
3.72128	49.98
3.73795	49.98
3.75462	49.98
3.77128	49.99
3.78795	49.99
3.80462	50.00
3.82128	50.00
3.83795	50.00
3.85462	50.01
3.87128	50.01
3.88795	50.02
3.90462	50.02
3.92128	50.02
3.93795	50.02
3.95462	50.03
3.97128	50.04
3.98795	50.04

[Status Trace (Injection Unit Temperature)]
Interval(msec)	1000
# of Points	240
Start Time(min)	0.005
End Time(min)	3.988
Intensity Units	
Intensity Multiplier	1
R.Time (min)	Intensity
0.00462	99.99
0.02128	100.00
0.03795	100.00
0.05462	100.00
0.07128	100.00
0.08795	100.00
0.10462	100.00
0.12128	99.99
0.13795	100.00
0.15462	100.00
0.17128	100.00
0.18795	99.99
0.20462	99.99
0.22128	100.00
0.23795	100.00
0.25462	100.00
0.27128	100.00
0.28795	100.00
0.30462	100.00
0.32128	100.00
0.33795	100.00
0.35462	100.00
0.37128	100.00
0.38795	100.00
0.40462	100.00
0.42128	100.00
0.43795	100.00
0.45462	100.00
0.47128	100.00
0.48795	99.99
0.50462	100.00
0.52128	100.00
0.53795	100.00
0.55462	100.00
0.57128	100.00
0.58795	100.00
0.60462	99.99
0.62128	100.00
0.63795	100.00
0.65462	100.00
0.67128	100.00
0.68795	100.00
0.70462	100.00
0.72128	100.00
0.73795	100.00
0.75462	99.99
0.77128	100.00
0.78795	100.00
0.80462	100.00
0.82128	100.00
0.83795	100.00
0.85462	100.00
0.87128	100.00
0.88795	100.00
0.90462	100.00
0.92128	100.00
0.93795	99.99
0.95462	99.99
0.97128	100.00
0.98795	99.99
1.00462	100.00
1.02128	99.99
1.03795	99.99
1.05462	100.00
1.07128	99.99
1.08795	99.99
1.10462	99.99
1.12128	99.99
1.13795	99.99
1.15462	99.99
1.17128	99.99
1.18795	99.99
1.20462	99.99
1.22128	99.99
1.23795	99.99
1.25462	99.99
1.27128	100.00
1.28795	100.00
1.30462	99.99
1.32128	99.99
1.33795	99.99
1.35462	99.99
1.37128	99.99
1.38795	99.99
1.40462	99.99
1.42128	99.99
1.43795	99.99
1.45462	100.00
1.47128	99.99
1.48795	99.99
1.50462	99.99
1.52128	99.99
1.53795	99.99
1.55462	99.99
1.57128	100.00
1.58795	99.99
1.60462	99.99
1.62128	99.99
1.63795	99.99
1.65462	99.99
1.67128	100.00
1.68795	99.99
1.70462	99.99
1.72128	99.99
1.73795	99.99
1.75462	99.99
1.77128	99.99
1.78795	99.99
1.80462	99.98
1.82128	99.99
1.83795	99.99
1.85462	99.99
1.87128	99.99
1.88795	99.99
1.90462	99.99
1.92128	99.98
1.93795	99.99
1.95462	99.99
1.97128	99.98
1.98795	99.98
2.00462	99.99
2.02128	99.98
2.03795	99.98
2.05462	99.98
2.07128	99.98
2.08795	99.98
2.10462	99.98
2.12128	99.98
2.13795	99.98
2.15462	99.98
2.17128	99.98
2.18795	99.97
2.20462	99.98
2.22128	99.98
2.23795	99.98
2.25462	99.98
2.27128	99.97
2.28795	99.98
2.30462	99.98
2.32128	99.98
2.33795	99.98
2.35462	99.97
2.37128	99.98
2.38795	99.98
2.40462	99.98
2.42128	99.98
2.43795	99.98
2.45462	99.98
2.47128	99.97
2.48795	99.98
2.50462	99.98
2.52128	99.97
2.53795	99.98
2.55462	99.98
2.57128	99.98
2.58795	99.98
2.60462	99.98
2.62128	99.98
2.63795	99.99
2.65462	99.99
2.67128	99.99
2.68795	99.98
2.70462	99.99
2.72128	99.99
2.73795	100.00
2.75462	99.99
2.77128	99.99
2.78795	99.99
2.80462	100.00
2.82128	100.00
2.83795	100.00
2.85462	100.00
2.87128	100.00
2.88795	100.00
2.90462	100.00
2.92128	100.01
2.93795	100.00
2.95462	100.01
2.97128	100.01
2.98795	100.01
3.00462	100.01
3.02128	100.01
3.03795	100.01
3.05462	100.01
3.07128	100.02
3.08795	100.02
3.10462	100.02
3.12128	100.02
3.13795	100.02
3.15462	100.02
3.17128	100.02
3.18795	100.03
3.20462	100.02
3.22128	100.02
3.23795	100.03
3.25462	100.03
3.27128	100.03
3.28795	100.03
3.30462	100.03
3.32128	100.03
3.33795	100.04
3.35462	100.04
3.37128	100.04
3.38795	100.03
3.40462	100.04
3.42128	100.04
3.43795	100.04
3.45462	100.04
3.47128	100.04
3.48795	100.05
3.50462	100.04
3.52128	100.04
3.53795	100.05
3.55462	100.05
3.57128	100.05
3.58795	100.05
3.60462	100.05
3.62128	100.05
3.63795	100.06
3.65462	100.05
3.67128	100.05
3.68795	100.05
3.70462	100.05
3.72128	100.06
3.73795	100.06
3.75462	100.05
3.77128	100.05
3.78795	100.06
3.80462	100.05
3.82128	100.06
3.83795	100.05
3.85462	100.05
3.87128	100.06
3.88795	100.06
3.90462	100.06
3.92128	100.06
3.93795	100.06
3.95462	100.06
3.97128	100.06
3.98795	100.06

[Status Trace (Carrier Gas Pressure)]
Interval(msec)	1000
# of Points	240
Start Time(min)	0.005
End Time(min)	3.988
Intensity Units	
Intensity Multiplier	1
R.Time (min)	Intensity
0.00462	58.00
0.02128	55.83
0.03795	56.56
0.05462	58.79
0.07128	59.76
0.08795	58.22
0.10462	57.97
0.12128	58.01
0.13795	58.01
0.15462	58.01
0.17128	58.00
0.18795	58.00
0.20462	58.00
0.22128	58.00
0.23795	58.00
0.25462	58.00
0.27128	58.00
0.28795	58.00
0.30462	58.00
0.32128	58.00
0.33795	58.00
0.35462	58.00
0.37128	58.00
0.38795	58.00
0.40462	58.00
0.42128	58.00
0.43795	58.00
0.45462	58.00
0.47128	58.00
0.48795	58.00
0.50462	58.00
0.52128	58.00
0.53795	58.00
0.55462	58.00
0.57128	58.00
0.58795	58.00
0.60462	58.00
0.62128	58.00
0.63795	58.00
0.65462	58.00
0.67128	58.00
0.68795	58.00
0.70462	58.00
0.72128	58.00
0.73795	58.00
0.75462	58.00
0.77128	58.00
0.78795	58.00
0.80462	58.00
0.82128	58.00
0.83795	58.00
0.85462	58.00
0.87128	58.00
0.88795	58.00
0.90462	58.00
0.92128	58.00
0.93795	58.00
0.95462	58.00
0.97128	58.00
0.98795	58.00
1.00462	58.00
1.02128	58.00
1.03795	58.00
1.05462	58.00
1.07128	58.00
1.08795	58.00
1.10462	58.00
1.12128	58.00
1.13795	58.00
1.15462	58.00
1.17128	58.00
1.18795	58.00
1.20462	58.00
1.22128	58.00
1.23795	58.00
1.25462	58.00
1.27128	58.00
1.28795	58.00
1.30462	58.00
1.32128	58.00
1.33795	58.00
1.35462	58.00
1.37128	58.00
1.38795	58.00
1.40462	58.00
1.42128	58.00
1.43795	58.00
1.45462	58.00
1.47128	58.00
1.48795	58.00
1.50462	58.00
1.52128	58.00
1.53795	58.00
1.55462	58.00
1.57128	58.00
1.58795	58.00
1.60462	58.00
1.62128	58.00
1.63795	58.00
1.65462	58.01
1.67128	58.01
1.68795	58.01
1.70462	58.00
1.72128	58.00
1.73795	58.00
1.75462	58.00
1.77128	58.00
1.78795	58.00
1.80462	58.00
1.82128	58.00
1.83795	58.00
1.85462	58.00
1.87128	58.00
1.88795	58.00
1.90462	58.00
1.92128	58.00
1.93795	58.00
1.95462	58.00
1.97128	58.00
1.98795	58.00
2.00462	58.00
2.02128	58.00
2.03795	58.00
2.05462	58.00
2.07128	58.00
2.08795	58.00
2.10462	58.00
2.12128	58.00
2.13795	58.00
2.15462	58.00
2.17128	58.00
2.18795	58.00
2.20462	58.00
2.22128	58.00
2.23795	58.00
2.25462	58.00
2.27128	58.00
2.28795	58.00
2.30462	58.00
2.32128	58.00
2.33795	58.00
2.35462	58.00
2.37128	58.00
2.38795	57.99
2.40462	57.99
2.42128	58.00
2.43795	58.00
2.45462	58.00
2.47128	58.00
2.48795	58.00
2.50462	57.99
2.52128	57.99
2.53795	58.00
2.55462	58.00
2.57128	58.00
2.58795	58.00
2.60462	58.00
2.62128	58.00
2.63795	58.00
2.65462	58.00
2.67128	58.00
2.68795	58.00
2.70462	58.00
2.72128	58.00
2.73795	58.00
2.75462	58.00
2.77128	58.00
2.78795	58.00
2.80462	58.00
2.82128	58.00
2.83795	58.00
2.85462	58.00
2.87128	58.00
2.88795	58.00
2.90462	58.00
2.92128	58.00
2.93795	58.00
2.95462	58.00
2.97128	58.00
2.98795	58.00
3.00462	58.00
3.02128	58.00
3.03795	58.00
3.05462	58.00
3.07128	58.00
3.08795	58.00
3.10462	58.00
3.12128	58.00
3.13795	58.00
3.15462	58.00
3.17128	58.00
3.18795	58.00
3.20462	58.00
3.22128	58.00
3.23795	58.00
3.25462	58.00
3.27128	58.00
3.28795	58.00
3.30462	58.00
3.32128	58.00
3.33795	58.00
3.35462	58.00
3.37128	58.00
3.38795	58.00
3.40462	58.00
3.42128	58.00
3.43795	58.00
3.45462	58.00
3.47128	58.00
3.48795	58.00
3.50462	58.00
3.52128	58.00
3.53795	58.00
3.55462	58.00
3.57128	58.00
3.58795	58.00
3.60462	58.00
3.62128	58.00
3.63795	58.00
3.65462	58.00
3.67128	58.00
3.68795	58.00
3.70462	58.00
3.72128	58.00
3.73795	58.00
3.75462	58.00
3.77128	58.00
3.78795	58.00
3.80462	58.00
3.82128	58.00
3.83795	58.00
3.85462	58.00
3.87128	58.00
3.88795	58.00
3.90462	58.00
3.92128	58.00
3.93795	58.00
3.95462	58.00
3.97128	58.00
3.98795	58.00

[Status Trace (Carrier Gas Flow)]
Interval(msec)	1000
# of Points	240
Start Time(min)	0.005
End Time(min)	3.988
Intensity Units	
Intensity Multiplier	1
R.Time (min)	Intensity
0.00462	34.52
0.02128	34.56
0.03795	34.54
0.05462	34.55
0.07128	34.49
0.08795	34.52
0.10462	34.52
0.12128	34.52
0.13795	34.52
0.15462	34.52
0.17128	34.52
0.18795	34.52
0.20462	34.52
0.22128	34.52
0.23795	34.52
0.25462	34.52
0.27128	34.52
0.28795	34.52
0.30462	34.52
0.32128	34.52
0.33795	34.52
0.35462	34.52
0.37128	34.51
0.38795	34.51
0.40462	34.52
0.42128	34.51
0.43795	34.52
0.45462	34.52
0.47128	34.53
0.48795	34.52
0.50462	34.53
0.52128	34.50
0.53795	34.52
0.55462	34.51
0.57128	34.52
0.58795	34.52
0.60462	34.52
0.62128	34.52
0.63795	34.52
0.65462	34.52
0.67128	34.52
0.68795	34.52
0.70462	34.52
0.72128	34.51
0.73795	34.52
0.75462	34.53
0.77128	34.54
0.78795	34.52
0.80462	34.52
0.82128	34.52
0.83795	34.52
0.85462	34.52
0.87128	34.52
0.88795	34.52
0.90462	34.52
0.92128	34.52
0.93795	34.52
0.95462	34.52
0.97128	34.51
0.98795	34.52
1.00462	34.52
1.02128	34.51
1.03795	34.51
1.05462	34.52
1.07128	34.52
1.08795	34.52
1.10462	34.52
1.12128	34.52
1.13795	34.52
1.15462	34.52
1.17128	34.52
1.18795	34.52
1.20462	34.52
1.22128	34.52
1.23795	34.52
1.25462	34.52
1.27128	34.52
1.28795	34.52
1.30462	34.52
1.32128	34.52
1.33795	34.52
1.35462	34.52
1.37128	34.52
1.38795	34.52
1.40462	34.52
1.42128	34.52
1.43795	34.52
1.45462	34.52
1.47128	34.52
1.48795	34.52
1.50462	34.52
1.52128	34.52
1.53795	34.52
1.55462	34.52
1.57128	34.52
1.58795	34.52
1.60462	34.52
1.62128	34.52
1.63795	34.52
1.65462	34.52
1.67128	34.52
1.68795	34.52
1.70462	34.52
1.72128	34.52
1.73795	34.52
1.75462	34.52
1.77128	34.52
1.78795	34.52
1.80462	34.52
1.82128	34.52
1.83795	34.52
1.85462	34.52
1.87128	34.52
1.88795	34.52
1.90462	34.52
1.92128	34.52
1.93795	34.52
1.95462	34.52
1.97128	34.52
1.98795	34.51
2.00462	34.52
2.02128	34.52
2.03795	34.52
2.05462	34.52
2.07128	34.53
2.08795	34.52
2.10462	34.53
2.12128	34.52
2.13795	34.52
2.15462	34.52
2.17128	34.52
2.18795	34.51
2.20462	34.53
2.22128	34.52
2.23795	34.52
2.25462	34.52
2.27128	34.51
2.28795	34.52
2.30462	34.52
2.32128	34.52
2.33795	34.52
2.35462	34.52
2.37128	34.52
2.38795	34.54
2.40462	34.52
2.42128	34.52
2.43795	34.52
2.45462	34.52
2.47128	34.51
2.48795	34.51
2.50462	34.58
2.52128	34.52
2.53795	34.52
2.55462	34.52
2.57128	34.52
2.58795	34.52
2.60462	34.52
2.62128	34.52
2.63795	34.52
2.65462	34.52
2.67128	34.52
2.68795	34.52
2.70462	34.52
2.72128	34.52
2.73795	34.52
2.75462	34.52
2.77128	34.52
2.78795	34.52
2.80462	34.52
2.82128	34.52
2.83795	34.52
2.85462	34.52
2.87128	34.52
2.88795	34.52
2.90462	34.52
2.92128	34.52
2.93795	34.52
2.95462	34.52
2.97128	34.52
2.98795	34.52
3.00462	34.52
3.02128	34.52
3.03795	34.52
3.05462	34.52
3.07128	34.52
3.08795	34.52
3.10462	34.52
3.12128	34.52
3.13795	34.52
3.15462	34.52
3.17128	34.52
3.18795	34.52
3.20462	34.52
3.22128	34.52
3.23795	34.52
3.25462	34.52
3.27128	34.52
3.28795	34.52
3.30462	34.52
3.32128	34.52
3.33795	34.52
3.35462	34.52
3.37128	34.52
3.38795	34.52
3.40462	34.52
3.42128	34.52
3.43795	34.52
3.45462	34.52
3.47128	34.52
3.48795	34.52
3.50462	34.52
3.52128	34.52
3.53795	34.52
3.55462	34.52
3.57128	34.52
3.58795	34.52
3.60462	34.52
3.62128	34.52
3.63795	34.52
3.65462	34.52
3.67128	34.52
3.68795	34.52
3.70462	34.52
3.72128	34.52
3.73795	34.52
3.75462	34.52
3.77128	34.52
3.78795	34.52
3.80462	34.52
3.82128	34.52
3.83795	34.52
3.85462	34.50
3.87128	34.52
3.88795	34.53
3.90462	34.51
3.92128	34.52
3.93795	34.52
3.95462	34.50
3.97128	34.52
3.98795	34.52

[Status Trace (Column Flow)]
Interval(msec)	1000
# of Points	240
Start Time(min)	0.005
End Time(min)	3.988
Intensity Units	
Intensity Multiplier	1
R.Time (min)	Intensity
0.00462	5.53
0.02128	5.28
0.03795	5.36
0.05462	5.62
0.07128	5.74
0.08795	5.56
0.10462	5.53
0.12128	5.53
0.13795	5.53
0.15462	5.53
0.17128	5.53
0.18795	5.53
0.20462	5.53
0.22128	5.53
0.23795	5.53
0.25462	5.53
0.27128	5.53
0.28795	5.53
0.30462	5.53
0.32128	5.53
0.33795	5.53
0.35462	5.53
0.37128	5.53
0.38795	5.53
0.40462	5.53
0.42128	5.53
0.43795	5.53
0.45462	5.53
0.47128	5.53
0.48795	5.53
0.50462	5.53
0.52128	5.53
0.53795	5.53
0.55462	5.53
0.57128	5.53
0.58795	5.53
0.60462	5.53
0.62128	5.53
0.63795	5.53
0.65462	5.53
0.67128	5.53
0.68795	5.53
0.70462	5.53
0.72128	5.53
0.73795	5.53
0.75462	5.53
0.77128	5.53
0.78795	5.53
0.80462	5.53
0.82128	5.53
0.83795	5.53
0.85462	5.53
0.87128	5.53
0.88795	5.53
0.90462	5.53
0.92128	5.53
0.93795	5.53
0.95462	5.53
0.97128	5.53
0.98795	5.53
1.00462	5.53
1.02128	5.53
1.03795	5.53
1.05462	5.53
1.07128	5.53
1.08795	5.53
1.10462	5.53
1.12128	5.53
1.13795	5.53
1.15462	5.53
1.17128	5.53
1.18795	5.53
1.20462	5.53
1.22128	5.53
1.23795	5.53
1.25462	5.53
1.27128	5.53
1.28795	5.53
1.30462	5.53
1.32128	5.53
1.33795	5.53
1.35462	5.53
1.37128	5.53
1.38795	5.53
1.40462	5.53
1.42128	5.53
1.43795	5.53
1.45462	5.53
1.47128	5.53
1.48795	5.53
1.50462	5.53
1.52128	5.53
1.53795	5.53
1.55462	5.53
1.57128	5.53
1.58795	5.53
1.60462	5.53
1.62128	5.53
1.63795	5.52
1.65462	5.51
1.67128	5.50
1.68795	5.49
1.70462	5.48
1.72128	5.47
1.73795	5.46
1.75462	5.45
1.77128	5.44
1.78795	5.43
1.80462	5.42
1.82128	5.41
1.83795	5.40
1.85462	5.39
1.87128	5.38
1.88795	5.37
1.90462	5.36
1.92128	5.35
1.93795	5.34
1.95462	5.33
1.97128	5.32
1.98795	5.31
2.00462	5.30
2.02128	5.29
2.03795	5.28
2.05462	5.27
2.07128	5.26
2.08795	5.25
2.10462	5.24
2.12128	5.23
2.13795	5.22
2.15462	5.21
2.17128	5.20
2.18795	5.20
2.20462	5.19
2.22128	5.18
2.23795	5.17
2.25462	5.16
2.27128	5.15
2.28795	5.14
2.30462	5.13
2.32128	5.12
2.33795	5.11
2.35462	5.10
2.37128	5.10
2.38795	5.09
2.40462	5.09
2.42128	5.10
2.43795	5.10
2.45462	5.09
2.47128	5.09
2.48795	5.09
2.50462	5.09
2.52128	5.09
2.53795	5.09
2.55462	5.09
2.57128	5.09
2.58795	5.09
2.60462	5.09
2.62128	5.09
2.63795	5.09
2.65462	5.09
2.67128	5.09
2.68795	5.09
2.70462	5.09
2.72128	5.09
2.73795	5.09
2.75462	5.09
2.77128	5.09
2.78795	5.09
2.80462	5.09
2.82128	5.09
2.83795	5.09
2.85462	5.09
2.87128	5.09
2.88795	5.09
2.90462	5.09
2.92128	5.09
2.93795	5.09
2.95462	5.09
2.97128	5.09
2.98795	5.09
3.00462	5.09
3.02128	5.09
3.03795	5.09
3.05462	5.09
3.07128	5.09
3.08795	5.08
3.10462	5.08
3.12128	5.08
3.13795	5.08
3.15462	5.08
3.17128	5.08
3.18795	5.08
3.20462	5.08
3.22128	5.08
3.23795	5.08
3.25462	5.08
3.27128	5.08
3.28795	5.08
3.30462	5.08
3.32128	5.08
3.33795	5.08
3.35462	5.08
3.37128	5.08
3.38795	5.08
3.40462	5.08
3.42128	5.08
3.43795	5.08
3.45462	5.08
3.47128	5.08
3.48795	5.08
3.50462	5.08
3.52128	5.08
3.53795	5.08
3.55462	5.08
3.57128	5.08
3.58795	5.08
3.60462	5.09
3.62128	5.09
3.63795	5.09
3.65462	5.09
3.67128	5.09
3.68795	5.09
3.70462	5.09
3.72128	5.09
3.73795	5.09
3.75462	5.09
3.77128	5.09
3.78795	5.09
3.80462	5.09
3.82128	5.09
3.83795	5.09
3.85462	5.09
3.87128	5.09
3.88795	5.09
3.90462	5.09
3.92128	5.09
3.93795	5.09
3.95462	5.09
3.97128	5.08
3.98795	5.08

[Status Trace (Linear Velocity)]
Interval(msec)	1000
# of Points	240
Start Time(min)	0.005
End Time(min)	3.988
Intensity Units	
Intensity Multiplier	1
R.Time (min)	Intensity
0.00462	39.01
0.02128	37.59
0.03795	38.07
0.05462	39.54
0.07128	40.17
0.08795	39.16
0.10462	39.00
0.12128	39.02
0.13795	39.02
0.15462	39.02
0.17128	39.02
0.18795	39.02
0.20462	39.02
0.22128	39.02
0.23795	39.02
0.25462	39.02
0.27128	39.02
0.28795	39.02
0.30462	39.02
0.32128	39.02
0.33795	39.02
0.35462	39.02
0.37128	39.02
0.38795	39.02
0.40462	39.02
0.42128	39.02
0.43795	39.02
0.45462	39.02
0.47128	39.02
0.48795	39.02
0.50462	39.02
0.52128	39.02
0.53795	39.02
0.55462	39.02
0.57128	39.02
0.58795	39.02
0.60462	39.02
0.62128	39.02
0.63795	39.02
0.65462	39.02
0.67128	39.02
0.68795	39.02
0.70462	39.02
0.72128	39.02
0.73795	39.02
0.75462	39.02
0.77128	39.02
0.78795	39.02
0.80462	39.02
0.82128	39.02
0.83795	39.02
0.85462	39.02
0.87128	39.02
0.88795	39.02
0.90462	39.02
0.92128	39.02
0.93795	39.02
0.95462	39.02
0.97128	39.02
0.98795	39.02
1.00462	39.02
1.02128	39.02
1.03795	39.02
1.05462	39.02
1.07128	39.02
1.08795	39.02
1.10462	39.02
1.12128	39.02
1.13795	39.02
1.15462	39.02
1.17128	39.02
1.18795	39.02
1.20462	39.02
1.22128	39.01
1.23795	39.01
1.25462	39.01
1.27128	39.01
1.28795	39.02
1.30462	39.02
1.32128	39.02
1.33795	39.02
1.35462	39.02
1.37128	39.02
1.38795	39.02
1.40462	39.02
1.42128	39.02
1.43795	39.02
1.45462	39.02
1.47128	39.02
1.48795	39.02
1.50462	39.02
1.52128	39.02
1.53795	39.02
1.55462	39.02
1.57128	39.02
1.58795	39.02
1.60462	39.02
1.62128	39.01
1.63795	39.00
1.65462	38.97
1.67128	38.94
1.68795	38.91
1.70462	38.87
1.72128	38.84
1.73795	38.81
1.75462	38.77
1.77128	38.74
1.78795	38.71
1.80462	38.67
1.82128	38.64
1.83795	38.62
1.85462	38.58
1.87128	38.55
1.88795	38.52
1.90462	38.49
1.92128	38.46
1.93795	38.43
1.95462	38.40
1.97128	38.37
1.98795	38.34
2.00462	38.31
2.02128	38.27
2.03795	38.25
2.05462	38.22
2.07128	38.19
2.08795	38.16
2.10462	38.13
2.12128	38.10
2.13795	38.07
2.15462	38.04
2.17128	38.01
2.18795	37.99
2.20462	37.95
2.22128	37.92
2.23795	37.90
2.25462	37.86
2.27128	37.83
2.28795	37.80
2.30462	37.77
2.32128	37.74
2.33795	37.72
2.35462	37.69
2.37128	37.67
2.38795	37.66
2.40462	37.66
2.42128	37.66
2.43795	37.66
2.45462	37.66
2.47128	37.66
2.48795	37.66
2.50462	37.65
2.52128	37.65
2.53795	37.65
2.55462	37.65
2.57128	37.65
2.58795	37.65
2.60462	37.65
2.62128	37.65
2.63795	37.65
2.65462	37.65
2.67128	37.65
2.68795	37.65
2.70462	37.65
2.72128	37.65
2.73795	37.65
2.75462	37.65
2.77128	37.65
2.78795	37.65
2.80462	37.65
2.82128	37.65
2.83795	37.65
2.85462	37.64
2.87128	37.64
2.88795	37.64
2.90462	37.64
2.92128	37.64
2.93795	37.64
2.95462	37.64
2.97128	37.63
2.98795	37.63
3.00462	37.63
3.02128	37.63
3.03795	37.63
3.05462	37.63
3.07128	37.63
3.08795	37.63
3.10462	37.63
3.12128	37.63
3.13795	37.63
3.15462	37.63
3.17128	37.63
3.18795	37.63
3.20462	37.63
3.22128	37.63
3.23795	37.63
3.25462	37.63
3.27128	37.63
3.28795	37.63
3.30462	37.63
3.32128	37.63
3.33795	37.63
3.35462	37.63
3.37128	37.63
3.38795	37.63
3.40462	37.63
3.42128	37.63
3.43795	37.63
3.45462	37.63
3.47128	37.63
3.48795	37.63
3.50462	37.62
3.52128	37.62
3.53795	37.63
3.55462	37.63
3.57128	37.63
3.58795	37.63
3.60462	37.63
3.62128	37.63
3.63795	37.63
3.65462	37.63
3.67128	37.64
3.68795	37.64
3.70462	37.64
3.72128	37.64
3.73795	37.64
3.75462	37.64
3.77128	37.64
3.78795	37.64
3.80462	37.63
3.82128	37.63
3.83795	37.63
3.85462	37.63
3.87128	37.63
3.88795	37.63
3.90462	37.63
3.92128	37.63
3.93795	37.63
3.95462	37.63
3.97128	37.63
3.98795	37.63

