[Header]
Application Name	LabSolutions
Version	5.110
Data File Name	C:\Users\User\Desktop\GC Analyses\Jack\UIC Prairie Sampling\8.12.22\220812_079.gcd
Output Date	10/14/2022
Output Time	2:33:55 PM

[File Information]
Type	Data File
Generated	10/12/2022 12:56:00 PM
Generated by	System Administrator
Modified	10/12/2022 1:00:51 PM
Modified by	System Administrator

[Sample Information]
Operator Name	System Administrator
Acquired	10/12/2022 12:56:51 PM
Sample Type	1:Standard
Level	1
Sample Name	220812_UICPrairie
Sample ID	220812_UICPrairie
ISTD Amount1	1
ISTD Amount2	1
ISTD Amount3	1
ISTD Amount4	1
ISTD Amount5	1
ISTD Amount6	1
ISTD Amount7	1
ISTD Amount8	1
ISTD Amount9	1
ISTD Amount10	1
ISTD Amount11	1
ISTD Amount12	1
ISTD Amount13	1
ISTD Amount14	1
ISTD Amount15	1
ISTD Amount16	1
ISTD Amount17	1
ISTD Amount18	1
ISTD Amount19	1
ISTD Amount20	1
ISTD Amount21	1
ISTD Amount22	1
ISTD Amount23	1
ISTD Amount24	1
ISTD Amount25	1
ISTD Amount26	1
ISTD Amount27	1
ISTD Amount28	1
ISTD Amount29	1
ISTD Amount30	1
ISTD Amount31	1
ISTD Amount32	1
Sample Amount	1
Dilution Factor	1
Vial#	1
Injection Volume	1
Injection Count	1
Bar Code	

[Original Files]
Data File	C:\Users\User\Desktop\GC Analyses\Jack\UIC Prairie Sampling\8.12.22\220812_079.gcd
Method File	C:\LabSolutions\Data\GHG_4min_2022\ghg3_togas_w_acet_4 min_new_int.gcm
Batch File	
Report Format File	c:\LabSolutions\System\DEFAULT.lsr

[File Description]


[Configuration]
Instrument Name	C0B7VH3-Instrument1
Instrument #	1
Line #	1
# of Detectors	3
Detector ID	DET#1	DET#2	DET#3
Detector Name	FID	PTCD	ECD
# of Channels	1	1	1

[Peak Table(Ch1)]
# of Peaks	3
Peak#	R.Time	I.Time	F.Time	Area	Height	A/H	Conc.	Mark	ID#	Name	k'	Plate #	Plate Ht.	Tailing	Resolution	Sep.Factor	Area Ratio	Height Ratio	Conc. %	Norm Conc.
1	1.468	1.424	1.531	4564	1625	2.808	100.000	   	1	CO	0.000	5643	26.580	0.000	0.000	0.000	0	0	16.667	16.667
2	1.567	1.531	1.641	19999	10201	1.961	100.000	 V 	2	CH4	0.067	11505	13.038	1.245	1.449	0.000	0	0	16.667	16.667
3	1.996	1.949	2.315	2079237	1020620	2.037	400.000	   	3	CO2	0.360	17537	8.553	1.229	7.225	5.333	0	0	66.667	66.667

[Peak Table(Ch2)]
# of Peaks	0

[Peak Table(Ch3)]
# of Peaks	3
Peak#	R.Time	I.Time	F.Time	Area	Height	A/H	Conc.	Mark	ID#	Name	k'	Plate #	Plate Ht.	Tailing	Resolution	Sep.Factor	Area Ratio	Height Ratio	Conc. %	Norm Conc.
1	2.455	2.403	2.469	107	75	1.429	0.000	   			0.000	72297	2.075	0.000	0.000	0.000	0	0	0.000	0.000
2	2.594	2.469	2.653	2666	402	6.628	0.000	 V 			0.057	3810	39.370	0.000	1.362	0.000	0	0	0.000	0.000
3	2.880	2.653	3.936	71433	15937	4.482	1.000	 V 	1	N2O	0.173	12235	12.260	1.647	2.101	3.053	0	0	100.000	100.000

[Compound Results(Ch1)]
# of IDs	6
ID#	Name	R.Time	Area	Height	Conc.	Curve	3rd	2nd	1st	Constant	Area Ratio	Height Ratio	Conc. %	Norm Conc.
1	CO	1.468	4564	1625	100.000	Linear	0.000000e+00	0.000000e+00	4.564135e+001	0.000000e+00	0	0	16.667	16.667
2	CH4	1.567	19999	10201	100.000	Linear	0.000000e+00	0.000000e+00	1.999892e+002	0.000000e+00	0	0	16.667	16.667
3	CO2	1.996	2079237	1020620	400.000	Linear	0.000000e+00	0.000000e+00	5.198092e+003	0.000000e+00	0	0	66.667	66.667
4	Ethylene	0.000	0	0	0.000	Linear	0.000000e+00	0.000000e+00	0.000000e+00	0.000000e+00	0	0	0.000	0.000
5	Acetylene	0.000	0	0	0.000	Linear	0.000000e+00	0.000000e+00	0.000000e+00	0.000000e+00	0	0	0.000	0.000
6	Ethane	0.000	0	0	0.000	Linear	0.000000e+00	0.000000e+00	0.000000e+00	0.000000e+00	0	0	0.000	0.000

[Compound Results(Ch2)]
# of IDs	5
ID#	Name	R.Time	Area	Height	Conc.	Curve	3rd	2nd	1st	Constant	Area Ratio	Height Ratio	Conc. %	Norm Conc.
1	Hydrogen	0.000	0	0	0.000	Linear	0.000000e+00	0.000000e+00	0.000000e+00	0.000000e+00	0	0	0.000	0.000
2	Oxygen	0.000	0	0	0.000	Linear	0.000000e+00	0.000000e+00	0.000000e+00	0.000000e+00	0	0	0.000	0.000
3	Nitrogen	0.000	0	0	0.000	Linear	0.000000e+00	0.000000e+00	0.000000e+00	0.000000e+00	0	0	0.000	0.000
4	Methane	0.000	0	0	0.000	Linear	0.000000e+00	0.000000e+00	0.000000e+00	0.000000e+00	0	0	0.000	0.000
5	Carbon Monoxide	0.000	0	0	0.000	Linear	0.000000e+00	0.000000e+00	0.000000e+00	0.000000e+00	0	0	0.000	0.000

[Compound Results(Ch3)]
# of IDs	2
ID#	Name	R.Time	Area	Height	Conc.	Curve	3rd	2nd	1st	Constant	Area Ratio	Height Ratio	Conc. %	Norm Conc.
1	N2O	2.880	71433	15937	1.000	Linear	0.000000e+00	0.000000e+00	7.143277e+004	0.000000e+00	0	0	100.000	100.000
2	SF6	0.000	0	0	0.000	Linear	0.000000e+00	0.000000e+00	0.000000e+00	0.000000e+00	0	0	0.000	0.000

[Group Results(Ch1)]
# of Groups	0

[Group Results(Ch2)]
# of Groups	0

[Group Results(Ch3)]
# of Groups	0

[Chromatogram (Ch1)]
Interval(msec)	220
# of Points	1091
Start Time(min)	0.002
End Time(min)	3.998
R.Time (min)	Intensity
0.00167	8
0.00533	4
0.00900	3
0.01267	4
0.01633	7
0.02000	9
0.02367	8
0.02733	5
0.03100	1
0.03467	0
0.03833	2
0.04200	4
0.04567	5
0.04933	4
0.05300	1
0.05667	-3
0.06033	-4
0.06400	-2
0.06767	-1
0.07133	-2
0.07500	-2
0.07867	-0
0.08233	3
0.08600	6
0.08967	9
0.09333	14
0.09700	21
0.10067	25
0.10433	26
0.10800	23
0.11167	17
0.11533	13
0.11900	8
0.12267	1
0.12633	-7
0.13000	-17
0.13367	-30
0.13733	-39
0.14100	-41
0.14467	-39
0.14833	-39
0.15200	-37
0.15567	-32
0.15933	-30
0.16300	-32
0.16667	-35
0.17033	-36
0.17400	-33
0.17767	-29
0.18133	-27
0.18500	-30
0.18867	-33
0.19233	-35
0.19600	-33
0.19967	-28
0.20333	-21
0.20700	-14
0.21067	-8
0.21433	-3
0.21800	1
0.22167	2
0.22533	3
0.22900	2
0.23267	-1
0.23633	-7
0.24000	-16
0.24367	-23
0.24733	-23
0.25100	-18
0.25467	-11
0.25833	-2
0.26200	-0
0.26567	-8
0.26933	-17
0.27300	-24
0.27667	-29
0.28033	-33
0.28400	-36
0.28767	-36
0.29133	-34
0.29500	-28
0.29867	-23
0.30233	-21
0.30600	-20
0.30967	-17
0.31333	-15
0.31700	-18
0.32067	-23
0.32433	-29
0.32800	-32
0.33167	-30
0.33533	-26
0.33900	-24
0.34267	-25
0.34633	-28
0.35000	-32
0.35367	-36
0.35733	-38
0.36100	-37
0.36467	-37
0.36833	-36
0.37200	-33
0.37567	-32
0.37933	-30
0.38300	-26
0.38667	-19
0.39033	-11
0.39400	-5
0.39767	-6
0.40133	-13
0.40500	-24
0.40867	-34
0.41233	-40
0.41600	-42
0.41967	-42
0.42333	-39
0.42700	-35
0.43067	-30
0.43433	-31
0.43800	-35
0.44167	-41
0.44533	-47
0.44900	-50
0.45267	-52
0.45633	-51
0.46000	-49
0.46367	-47
0.46733	-43
0.47100	-37
0.47467	-36
0.47833	-38
0.48200	-39
0.48567	-41
0.48933	-43
0.49300	-44
0.49667	-45
0.50033	-44
0.50400	-42
0.50767	-41
0.51133	-40
0.51500	-39
0.51867	-40
0.52233	-42
0.52600	-44
0.52967	-48
0.53333	-53
0.53700	-57
0.54067	-58
0.54433	-56
0.54800	-51
0.55167	-45
0.55533	-43
0.55900	-45
0.56267	-49
0.56633	-51
0.57000	-51
0.57367	-50
0.57733	-47
0.58100	-46
0.58467	-51
0.58833	-58
0.59200	-64
0.59567	-66
0.59933	-66
0.60300	-65
0.60667	-63
0.61033	-62
0.61400	-62
0.61767	-62
0.62133	-59
0.62500	-51
0.62867	-41
0.63233	-37
0.63600	-38
0.63967	-44
0.64333	-52
0.64700	-58
0.65067	-58
0.65433	-52
0.65800	-47
0.66167	-44
0.66533	-45
0.66900	-51
0.67267	-59
0.67633	-64
0.68000	-65
0.68367	-67
0.68733	-72
0.69100	-78
0.69467	-80
0.69833	-79
0.70200	-78
0.70567	-75
0.70933	-71
0.71300	-67
0.71667	-67
0.72033	-71
0.72400	-77
0.72767	-80
0.73133	-83
0.73500	-82
0.73867	-78
0.74233	-71
0.74600	-63
0.74967	-53
0.75333	-47
0.75700	-45
0.76067	-45
0.76433	-46
0.76800	-49
0.77167	-54
0.77533	-60
0.77900	-62
0.78267	-61
0.78633	-57
0.79000	-52
0.79367	-48
0.79733	-46
0.80100	-49
0.80467	-56
0.80833	-63
0.81200	-68
0.81567	-71
0.81933	-72
0.82300	-68
0.82667	-62
0.83033	-59
0.83400	-63
0.83767	-70
0.84133	-78
0.84500	-86
0.84867	-91
0.85233	-92
0.85600	-90
0.85967	-86
0.86333	-84
0.86700	-86
0.87067	-87
0.87433	-86
0.87800	-83
0.88167	-76
0.88533	-69
0.88900	-67
0.89267	-67
0.89633	-67
0.90000	-65
0.90367	-66
0.90733	-69
0.91100	-75
0.91467	-81
0.91833	-86
0.92200	-89
0.92567	-90
0.92933	-91
0.93300	-92
0.93667	-91
0.94033	-89
0.94400	-85
0.94767	-82
0.95133	-80
0.95500	-80
0.95867	-81
0.96233	-79
0.96600	-77
0.96967	-78
0.97333	-81
0.97700	-82
0.98067	-81
0.98433	-76
0.98800	-70
0.99167	-64
0.99533	-61
0.99900	-61
1.00267	-62
1.00633	-62
1.01000	-62
1.01367	-62
1.01733	-64
1.02100	-67
1.02467	-73
1.02833	-77
1.03200	-80
1.03567	-83
1.03933	-85
1.04300	-85
1.04667	-85
1.05033	-86
1.05400	-87
1.05767	-89
1.06133	-89
1.06500	-87
1.06867	-82
1.07233	-75
1.07600	-66
1.07967	-61
1.08333	-61
1.08700	-62
1.09067	-64
1.09433	-63
1.09800	-57
1.10167	-49
1.10533	-46
1.10900	-48
1.11267	-54
1.11633	-62
1.12000	-71
1.12367	-79
1.12733	-87
1.13100	-98
1.13467	-107
1.13833	-107
1.14200	-100
1.14567	-92
1.14933	-87
1.15300	-87
1.15667	-91
1.16033	-99
1.16400	-110
1.16767	-119
1.17133	-121
1.17500	-118
1.17867	-114
1.18233	-108
1.18600	-99
1.18967	-92
1.19333	-84
1.19700	-74
1.20067	-66
1.20433	-62
1.20800	-61
1.21167	-63
1.21533	-65
1.21900	-67
1.22267	-73
1.22633	-84
1.23000	-90
1.23367	-88
1.23733	-83
1.24100	-84
1.24467	-88
1.24833	-96
1.25200	-103
1.25567	-109
1.25933	-111
1.26300	-107
1.26667	-101
1.27033	-94
1.27400	-90
1.27767	-88
1.28133	-90
1.28500	-94
1.28867	-97
1.29233	-99
1.29600	-101
1.29967	-103
1.30333	-104
1.30700	-101
1.31067	-95
1.31433	-88
1.31800	-84
1.32167	-83
1.32533	-82
1.32900	-81
1.33267	-80
1.33633	-80
1.34000	-80
1.34367	-84
1.34733	-89
1.35100	-93
1.35467	-92
1.35833	-89
1.36200	-88
1.36567	-91
1.36933	-94
1.37300	-91
1.37667	-84
1.38033	-80
1.38400	-81
1.38767	-86
1.39133	-89
1.39500	-93
1.39867	-98
1.40233	-103
1.40600	-109
1.40967	-114
1.41333	-117
1.41700	-117
1.42067	-115
1.42433	-110
1.42800	-105
1.43167	-98
1.43533	-90
1.43900	-59
1.44267	68
1.44633	342
1.45000	694
1.45367	1019
1.45733	1263
1.46100	1416
1.46467	1494
1.46833	1515
1.47200	1490
1.47567	1434
1.47933	1352
1.48300	1236
1.48667	1084
1.49033	916
1.49400	748
1.49767	589
1.50133	447
1.50500	325
1.50867	226
1.51233	148
1.51600	90
1.51967	48
1.52333	17
1.52700	-6
1.53067	-23
1.53433	-26
1.53800	43
1.54167	376
1.54533	1263
1.54900	2823
1.55267	4796
1.55633	6753
1.56000	8384
1.56367	9536
1.56733	10089
1.57100	9900
1.57467	8946
1.57833	7441
1.58200	5748
1.58567	4182
1.58933	2903
1.59300	1939
1.59667	1254
1.60033	787
1.60400	479
1.60767	274
1.61133	137
1.61500	45
1.61867	-15
1.62233	-52
1.62600	-74
1.62967	-89
1.63333	-101
1.63700	-108
1.64067	-111
1.64433	-115
1.64800	-117
1.65167	-118
1.65533	-118
1.65900	-120
1.66267	-124
1.66633	-130
1.67000	-137
1.67367	-140
1.67733	-139
1.68100	-134
1.68467	-128
1.68833	-124
1.69200	-124
1.69567	-123
1.69933	-123
1.70300	-127
1.70667	-131
1.71033	-134
1.71400	-134
1.71767	-132
1.72133	-131
1.72500	-130
1.72867	-127
1.73233	-125
1.73600	-126
1.73967	-126
1.74333	-126
1.74700	-125
1.75067	-128
1.75433	-133
1.75800	-138
1.76167	-141
1.76533	-143
1.76900	-143
1.77267	-140
1.77633	-133
1.78000	-118
1.78367	-102
1.78733	-97
1.79100	-101
1.79467	-109
1.79833	-119
1.80200	-131
1.80567	-139
1.80933	-141
1.81300	-141
1.81667	-140
1.82033	-141
1.82400	-142
1.82767	-141
1.83133	-140
1.83500	-140
1.83867	-142
1.84233	-141
1.84600	-137
1.84967	-132
1.85333	-128
1.85700	-130
1.86067	-135
1.86433	-135
1.86800	-136
1.87167	-140
1.87533	-143
1.87900	-143
1.88267	-142
1.88633	-137
1.89000	-130
1.89367	-123
1.89733	-119
1.90100	-118
1.90467	-116
1.90833	-114
1.91200	-116
1.91567	-121
1.91933	-128
1.92300	-132
1.92667	-131
1.93033	-127
1.93400	-123
1.93767	-121
1.94133	-120
1.94500	-119
1.94867	-117
1.95233	-90
1.95600	118
1.95967	1360
1.96333	6939
1.96700	25810
1.97067	74590
1.97433	172022
1.97800	324131
1.98167	513958
1.98533	708652
1.98900	873470
1.99267	982401
1.99633	1020541
2.00000	984982
2.00367	886318
2.00733	746435
2.01100	592071
2.01467	446148
2.01833	322706
2.02200	226493
2.02567	155826
2.02933	106042
2.03300	71953
2.03667	49032
2.04033	33778
2.04400	23660
2.04767	16937
2.05133	12433
2.05500	9374
2.05867	7258
2.06233	5767
2.06600	4691
2.06967	3900
2.07333	3303
2.07700	2843
2.08067	2481
2.08433	2193
2.08800	1962
2.09167	1774
2.09533	1618
2.09900	1483
2.10267	1362
2.10633	1253
2.11000	1160
2.11367	1079
2.11733	1005
2.12100	936
2.12467	874
2.12833	819
2.13200	770
2.13567	724
2.13933	686
2.14300	654
2.14667	627
2.15033	603
2.15400	583
2.15767	561
2.16133	537
2.16500	512
2.16867	489
2.17233	466
2.17600	444
2.17967	424
2.18333	407
2.18700	392
2.19067	380
2.19433	371
2.19800	362
2.20167	353
2.20533	344
2.20900	336
2.21267	329
2.21633	321
2.22000	311
2.22367	301
2.22733	290
2.23100	277
2.23467	264
2.23833	255
2.24200	246
2.24567	240
2.24933	236
2.25300	233
2.25667	232
2.26033	232
2.26400	236
2.26767	241
2.27133	243
2.27500	239
2.27867	231
2.28233	221
2.28600	208
2.28967	196
2.29333	189
2.29700	186
2.30067	188
2.30433	187
2.30800	180
2.31167	172
2.31533	167
2.31900	166
2.32267	162
2.32633	157
2.33000	152
2.33367	148
2.33733	144
2.34100	142
2.34467	143
2.34833	142
2.35200	143
2.35567	146
2.35933	151
2.36300	154
2.36667	155
2.37033	151
2.37400	147
2.37767	144
2.38133	140
2.38500	132
2.38867	128
2.39233	129
2.39600	133
2.39967	137
2.40333	138
2.40700	138
2.41067	135
2.41433	132
2.41800	135
2.42167	143
2.42533	151
2.42900	156
2.43267	156
2.43633	153
2.44000	148
2.44367	140
2.44733	128
2.45100	113
2.45467	100
2.45833	89
2.46200	80
2.46567	76
2.46933	80
2.47300	88
2.47667	97
2.48033	106
2.48400	114
2.48767	117
2.49133	116
2.49500	113
2.49867	113
2.50233	110
2.50600	97
2.50967	82
2.51333	69
2.51700	59
2.52067	47
2.52433	38
2.52800	32
2.53167	28
2.53533	25
2.53900	25
2.54267	28
2.54633	35
2.55000	43
2.55367	51
2.55733	59
2.56100	68
2.56467	72
2.56833	72
2.57200	72
2.57567	70
2.57933	68
2.58300	67
2.58667	66
2.59033	62
2.59400	57
2.59767	52
2.60133	48
2.60500	45
2.60867	45
2.61233	45
2.61600	45
2.61967	45
2.62333	44
2.62700	44
2.63067	46
2.63433	50
2.63800	58
2.64167	68
2.64533	76
2.64900	80
2.65267	78
2.65633	74
2.66000	67
2.66367	58
2.66733	48
2.67100	41
2.67467	36
2.67833	35
2.68200	39
2.68567	40
2.68933	40
2.69300	38
2.69667	38
2.70033	40
2.70400	40
2.70767	39
2.71133	37
2.71500	40
2.71867	45
2.72233	51
2.72600	53
2.72967	51
2.73333	49
2.73700	48
2.74067	47
2.74433	47
2.74800	45
2.75167	43
2.75533	42
2.75900	44
2.76267	48
2.76633	55
2.77000	61
2.77367	61
2.77733	56
2.78100	47
2.78467	37
2.78833	31
2.79200	29
2.79567	27
2.79933	25
2.80300	24
2.80667	25
2.81033	28
2.81400	31
2.81767	34
2.82133	38
2.82500	40
2.82867	41
2.83233	42
2.83600	42
2.83967	38
2.84333	33
2.84700	33
2.85067	32
2.85433	31
2.85800	32
2.86167	36
2.86533	41
2.86900	45
2.87267	47
2.87633	48
2.88000	51
2.88367	54
2.88733	55
2.89100	52
2.89467	48
2.89833	47
2.90200	46
2.90567	46
2.90933	45
2.91300	46
2.91667	46
2.92033	44
2.92400	42
2.92767	43
2.93133	44
2.93500	40
2.93867	36
2.94233	34
2.94600	34
2.94967	33
2.95333	28
2.95700	22
2.96067	16
2.96433	13
2.96800	16
2.97167	19
2.97533	22
2.97900	26
2.98267	31
2.98633	35
2.99000	40
2.99367	42
2.99733	39
3.00100	36
3.00467	35
3.00833	34
3.01200	30
3.01567	26
3.01933	25
3.02300	27
3.02667	30
3.03033	34
3.03400	38
3.03767	39
3.04133	37
3.04500	36
3.04867	34
3.05233	33
3.05600	33
3.05967	34
3.06333	34
3.06700	29
3.07067	24
3.07433	20
3.07800	21
3.08167	23
3.08533	28
3.08900	36
3.09267	40
3.09633	41
3.10000	40
3.10367	36
3.10733	31
3.11100	22
3.11467	16
3.11833	16
3.12200	22
3.12567	26
3.12933	27
3.13300	29
3.13667	30
3.14033	30
3.14400	31
3.14767	32
3.15133	33
3.15500	33
3.15867	33
3.16233	31
3.16600	29
3.16967	29
3.17333	32
3.17700	34
3.18067	32
3.18433	27
3.18800	21
3.19167	17
3.19533	15
3.19900	14
3.20267	15
3.20633	16
3.21000	17
3.21367	21
3.21733	22
3.22100	22
3.22467	20
3.22833	20
3.23200	19
3.23567	18
3.23933	18
3.24300	21
3.24667	27
3.25033	30
3.25400	29
3.25767	28
3.26133	30
3.26500	33
3.26867	37
3.27233	41
3.27600	45
3.27967	48
3.28333	46
3.28700	39
3.29067	33
3.29433	27
3.29800	23
3.30167	21
3.30533	18
3.30900	15
3.31267	12
3.31633	10
3.32000	5
3.32367	-2
3.32733	-7
3.33100	-9
3.33467	-7
3.33833	-3
3.34200	3
3.34567	9
3.34933	13
3.35300	18
3.35667	25
3.36033	31
3.36400	36
3.36767	38
3.37133	37
3.37500	33
3.37867	27
3.38233	23
3.38600	20
3.38967	19
3.39333	24
3.39700	30
3.40067	35
3.40433	39
3.40800	39
3.41167	38
3.41533	37
3.41900	38
3.42267	38
3.42633	38
3.43000	32
3.43367	25
3.43733	19
3.44100	16
3.44467	16
3.44833	19
3.45200	21
3.45567	23
3.45933	24
3.46300	28
3.46667	32
3.47033	33
3.47400	29
3.47767	23
3.48133	17
3.48500	15
3.48867	22
3.49233	30
3.49600	36
3.49967	36
3.50333	31
3.50700	25
3.51067	21
3.51433	21
3.51800	23
3.52167	23
3.52533	24
3.52900	27
3.53267	30
3.53633	33
3.54000	33
3.54367	32
3.54733	30
3.55100	28
3.55467	24
3.55833	19
3.56200	17
3.56567	17
3.56933	20
3.57300	22
3.57667	21
3.58033	17
3.58400	15
3.58767	12
3.59133	12
3.59500	17
3.59867	21
3.60233	20
3.60600	21
3.60967	25
3.61333	30
3.61700	33
3.62067	35
3.62433	37
3.62800	38
3.63167	40
3.63533	42
3.63900	40
3.64267	36
3.64633	30
3.65000	25
3.65367	22
3.65733	20
3.66100	21
3.66467	24
3.66833	30
3.67200	37
3.67567	47
3.67933	60
3.68300	68
3.68667	65
3.69033	53
3.69400	35
3.69767	18
3.70133	7
3.70500	2
3.70867	1
3.71233	4
3.71600	10
3.71967	17
3.72333	22
3.72700	23
3.73067	23
3.73433	24
3.73800	26
3.74167	32
3.74533	37
3.74900	36
3.75267	33
3.75633	29
3.76000	24
3.76367	19
3.76733	21
3.77100	24
3.77467	27
3.77833	27
3.78200	30
3.78567	32
3.78933	35
3.79300	40
3.79667	45
3.80033	44
3.80400	42
3.80767	42
3.81133	42
3.81500	42
3.81867	43
3.82233	47
3.82600	53
3.82967	55
3.83333	53
3.83700	50
3.84067	49
3.84433	46
3.84800	42
3.85167	39
3.85533	38
3.85900	39
3.86267	43
3.86633	47
3.87000	49
3.87367	48
3.87733	50
3.88100	57
3.88467	61
3.88833	56
3.89200	44
3.89567	33
3.89933	26
3.90300	24
3.90667	24
3.91033	28
3.91400	34
3.91767	40
3.92133	42
3.92500	42
3.92867	41
3.93233	38
3.93600	35
3.93967	34
3.94333	36
3.94700	40
3.95067	48
3.95433	60
3.95800	74
3.96167	82
3.96533	78
3.96900	67
3.97267	53
3.97633	42
3.98000	38
3.98367	38
3.98733	40
3.99100	49
3.99467	63
3.99833	76

[Chromatogram (Ch2)]
Interval(msec)	220
# of Points	1091
Start Time(min)	0.002
End Time(min)	3.998
R.Time (min)	Intensity
0.00167	-0
0.00533	-0
0.00900	-0
0.01267	-1
0.01633	-1
0.02000	-1
0.02367	-1
0.02733	-1
0.03100	-1
0.03467	-1
0.03833	-1
0.04200	-1
0.04567	-1
0.04933	-1
0.05300	-1
0.05667	-0
0.06033	-0
0.06400	0
0.06767	0
0.07133	1
0.07500	1
0.07867	1
0.08233	1
0.08600	2
0.08967	2
0.09333	2
0.09700	3
0.10067	3
0.10433	3
0.10800	3
0.11167	2
0.11533	2
0.11900	2
0.12267	1
0.12633	1
0.13000	1
0.13367	1
0.13733	1
0.14100	1
0.14467	1
0.14833	1
0.15200	1
0.15567	0
0.15933	0
0.16300	0
0.16667	0
0.17033	1
0.17400	1
0.17767	1
0.18133	1
0.18500	2
0.18867	2
0.19233	2
0.19600	3
0.19967	3
0.20333	3
0.20700	3
0.21067	3
0.21433	3
0.21800	3
0.22167	3
0.22533	3
0.22900	3
0.23267	3
0.23633	3
0.24000	3
0.24367	3
0.24733	3
0.25100	3
0.25467	3
0.25833	3
0.26200	3
0.26567	3
0.26933	4
0.27300	4
0.27667	4
0.28033	4
0.28400	4
0.28767	4
0.29133	4
0.29500	4
0.29867	3
0.30233	3
0.30600	3
0.30967	3
0.31333	3
0.31700	3
0.32067	3
0.32433	3
0.32800	3
0.33167	3
0.33533	3
0.33900	3
0.34267	3
0.34633	3
0.35000	3
0.35367	3
0.35733	3
0.36100	3
0.36467	3
0.36833	2
0.37200	2
0.37567	2
0.37933	2
0.38300	2
0.38667	1
0.39033	1
0.39400	1
0.39767	1
0.40133	1
0.40500	1
0.40867	0
0.41233	0
0.41600	0
0.41967	0
0.42333	-0
0.42700	-0
0.43067	0
0.43433	0
0.43800	1
0.44167	1
0.44533	1
0.44900	1
0.45267	1
0.45633	1
0.46000	1
0.46367	1
0.46733	1
0.47100	1
0.47467	1
0.47833	1
0.48200	1
0.48567	1
0.48933	1
0.49300	1
0.49667	1
0.50033	1
0.50400	1
0.50767	1
0.51133	1
0.51500	1
0.51867	1
0.52233	1
0.52600	1
0.52967	1
0.53333	1
0.53700	1
0.54067	1
0.54433	1
0.54800	0
0.55167	0
0.55533	-0
0.55900	-1
0.56267	-1
0.56633	-1
0.57000	-2
0.57367	-2
0.57733	-3
0.58100	-3
0.58467	-3
0.58833	-3
0.59200	-3
0.59567	-3
0.59933	-3
0.60300	-3
0.60667	-3
0.61033	-2
0.61400	-2
0.61767	-2
0.62133	-2
0.62500	-2
0.62867	-2
0.63233	-2
0.63600	-2
0.63967	-2
0.64333	-2
0.64700	-2
0.65067	-1
0.65433	-1
0.65800	-1
0.66167	-1
0.66533	-1
0.66900	-0
0.67267	-0
0.67633	-1
0.68000	-1
0.68367	-1
0.68733	-1
0.69100	-1
0.69467	-0
0.69833	-0
0.70200	-0
0.70567	0
0.70933	0
0.71300	0
0.71667	1
0.72033	1
0.72400	0
0.72767	0
0.73133	0
0.73500	0
0.73867	0
0.74233	0
0.74600	0
0.74967	-0
0.75333	-0
0.75700	-0
0.76067	-1
0.76433	-1
0.76800	-1
0.77167	-1
0.77533	-1
0.77900	-1
0.78267	-1
0.78633	-2
0.79000	-2
0.79367	-2
0.79733	-2
0.80100	-3
0.80467	-3
0.80833	-4
0.81200	-4
0.81567	-4
0.81933	-4
0.82300	-4
0.82667	-4
0.83033	-4
0.83400	-4
0.83767	-4
0.84133	-4
0.84500	-4
0.84867	-3
0.85233	-3
0.85600	-4
0.85967	-4
0.86333	-4
0.86700	-4
0.87067	-4
0.87433	-4
0.87800	-4
0.88167	-3
0.88533	-3
0.88900	-3
0.89267	-3
0.89633	-3
0.90000	-3
0.90367	-3
0.90733	-3
0.91100	-3
0.91467	-3
0.91833	-3
0.92200	-4
0.92567	-4
0.92933	-4
0.93300	-4
0.93667	-4
0.94033	-4
0.94400	-4
0.94767	-3
0.95133	-3
0.95500	-3
0.95867	-2
0.96233	-2
0.96600	-1
0.96967	-1
0.97333	-1
0.97700	-1
0.98067	-1
0.98433	-1
0.98800	-1
0.99167	-0
0.99533	-0
0.99900	-0
1.00267	-1
1.00633	-0
1.01000	-0
1.01367	-0
1.01733	-0
1.02100	-0
1.02467	-0
1.02833	-0
1.03200	-1
1.03567	-1
1.03933	-1
1.04300	-1
1.04667	-2
1.05033	-2
1.05400	-2
1.05767	-2
1.06133	-2
1.06500	-2
1.06867	-1
1.07233	-1
1.07600	-0
1.07967	-0
1.08333	0
1.08700	0
1.09067	1
1.09433	1
1.09800	1
1.10167	1
1.10533	1
1.10900	1
1.11267	2
1.11633	2
1.12000	2
1.12367	1
1.12733	1
1.13100	1
1.13467	1
1.13833	1
1.14200	1
1.14567	1
1.14933	1
1.15300	0
1.15667	0
1.16033	0
1.16400	0
1.16767	0
1.17133	0
1.17500	0
1.17867	0
1.18233	0
1.18600	0
1.18967	0
1.19333	-0
1.19700	-0
1.20067	-0
1.20433	-0
1.20800	-0
1.21167	-1
1.21533	-1
1.21900	-1
1.22267	-1
1.22633	-1
1.23000	-2
1.23367	-2
1.23733	-2
1.24100	-3
1.24467	-3
1.24833	-3
1.25200	-3
1.25567	-4
1.25933	-4
1.26300	-4
1.26667	-4
1.27033	-5
1.27400	-5
1.27767	-5
1.28133	-5
1.28500	-6
1.28867	-6
1.29233	-6
1.29600	-6
1.29967	-5
1.30333	-5
1.30700	-5
1.31067	-4
1.31433	-4
1.31800	-4
1.32167	-4
1.32533	-3
1.32900	-3
1.33267	-3
1.33633	-2
1.34000	-2
1.34367	-1
1.34733	-1
1.35100	-1
1.35467	-1
1.35833	-1
1.36200	-1
1.36567	-1
1.36933	-0
1.37300	-0
1.37667	-1
1.38033	-1
1.38400	-1
1.38767	-1
1.39133	-2
1.39500	-2
1.39867	-2
1.40233	-2
1.40600	-2
1.40967	-2
1.41333	-1
1.41700	-2
1.42067	-2
1.42433	-2
1.42800	-3
1.43167	-3
1.43533	-3
1.43900	-4
1.44267	-4
1.44633	-5
1.45000	-5
1.45367	-5
1.45733	-5
1.46100	-5
1.46467	-5
1.46833	-4
1.47200	-4
1.47567	-4
1.47933	-4
1.48300	-4
1.48667	-4
1.49033	-4
1.49400	-4
1.49767	-4
1.50133	-4
1.50500	-4
1.50867	-4
1.51233	-3
1.51600	-3
1.51967	-3
1.52333	-3
1.52700	-3
1.53067	-3
1.53433	-3
1.53800	-3
1.54167	-3
1.54533	-3
1.54900	-3
1.55267	-3
1.55633	-3
1.56000	-3
1.56367	-2
1.56733	-2
1.57100	-2
1.57467	-2
1.57833	-1
1.58200	-1
1.58567	-1
1.58933	-1
1.59300	-2
1.59667	-2
1.60033	-3
1.60400	-3
1.60767	-5
1.61133	-6
1.61500	-8
1.61867	-10
1.62233	-12
1.62600	-15
1.62967	-18
1.63333	-21
1.63700	-24
1.64067	-28
1.64433	-32
1.64800	-36
1.65167	-40
1.65533	-43
1.65900	-47
1.66267	-51
1.66633	-55
1.67000	-60
1.67367	-65
1.67733	-70
1.68100	-75
1.68467	-80
1.68833	-85
1.69200	-89
1.69567	-94
1.69933	-98
1.70300	-101
1.70667	-103
1.71033	-105
1.71400	-107
1.71767	-108
1.72133	-109
1.72500	-110
1.72867	-110
1.73233	-110
1.73600	-110
1.73967	-110
1.74333	-110
1.74700	-110
1.75067	-110
1.75433	-110
1.75800	-111
1.76167	-112
1.76533	-113
1.76900	-115
1.77267	-116
1.77633	-117
1.78000	-118
1.78367	-119
1.78733	-119
1.79100	-119
1.79467	-119
1.79833	-119
1.80200	-120
1.80567	-120
1.80933	-121
1.81300	-121
1.81667	-121
1.82033	-121
1.82400	-121
1.82767	-121
1.83133	-121
1.83500	-121
1.83867	-121
1.84233	-121
1.84600	-121
1.84967	-121
1.85333	-121
1.85700	-121
1.86067	-121
1.86433	-120
1.86800	-120
1.87167	-120
1.87533	-120
1.87900	-119
1.88267	-119
1.88633	-120
1.89000	-120
1.89367	-120
1.89733	-120
1.90100	-120
1.90467	-119
1.90833	-119
1.91200	-118
1.91567	-118
1.91933	-117
1.92300	-116
1.92667	-116
1.93033	-116
1.93400	-116
1.93767	-116
1.94133	-117
1.94500	-117
1.94867	-116
1.95233	-116
1.95600	-116
1.95967	-116
1.96333	-115
1.96700	-116
1.97067	-116
1.97433	-116
1.97800	-115
1.98167	-115
1.98533	-115
1.98900	-114
1.99267	-114
1.99633	-113
2.00000	-112
2.00367	-111
2.00733	-111
2.01100	-110
2.01467	-110
2.01833	-109
2.02200	-109
2.02567	-108
2.02933	-107
2.03300	-107
2.03667	-106
2.04033	-106
2.04400	-105
2.04767	-106
2.05133	-106
2.05500	-107
2.05867	-107
2.06233	-108
2.06600	-108
2.06967	-108
2.07333	-108
2.07700	-108
2.08067	-107
2.08433	-107
2.08800	-107
2.09167	-107
2.09533	-107
2.09900	-107
2.10267	-107
2.10633	-107
2.11000	-107
2.11367	-106
2.11733	-106
2.12100	-106
2.12467	-105
2.12833	-104
2.13200	-104
2.13567	-103
2.13933	-102
2.14300	-102
2.14667	-101
2.15033	-101
2.15400	-101
2.15767	-101
2.16133	-101
2.16500	-100
2.16867	-100
2.17233	-99
2.17600	-98
2.17967	-97
2.18333	-96
2.18700	-95
2.19067	-95
2.19433	-94
2.19800	-94
2.20167	-93
2.20533	-92
2.20900	-92
2.21267	-91
2.21633	-91
2.22000	-91
2.22367	-91
2.22733	-91
2.23100	-91
2.23467	-91
2.23833	-91
2.24200	-92
2.24567	-92
2.24933	-93
2.25300	-94
2.25667	-94
2.26033	-94
2.26400	-93
2.26767	-92
2.27133	-92
2.27500	-91
2.27867	-90
2.28233	-90
2.28600	-90
2.28967	-89
2.29333	-89
2.29700	-89
2.30067	-89
2.30433	-89
2.30800	-90
2.31167	-90
2.31533	-90
2.31900	-90
2.32267	-90
2.32633	-89
2.33000	-89
2.33367	-88
2.33733	-88
2.34100	-87
2.34467	-86
2.34833	-85
2.35200	-84
2.35567	-83
2.35933	-82
2.36300	-81
2.36667	-80
2.37033	-79
2.37400	-77
2.37767	-75
2.38133	-72
2.38500	-69
2.38867	-65
2.39233	-61
2.39600	-57
2.39967	-53
2.40333	-48
2.40700	-44
2.41067	-40
2.41433	-35
2.41800	-31
2.42167	-28
2.42533	-24
2.42900	-21
2.43267	-18
2.43633	-16
2.44000	-14
2.44367	-12
2.44733	-10
2.45100	-7
2.45467	-6
2.45833	-4
2.46200	-3
2.46567	-2
2.46933	-1
2.47300	0
2.47667	1
2.48033	2
2.48400	3
2.48767	4
2.49133	5
2.49500	6
2.49867	7
2.50233	7
2.50600	7
2.50967	8
2.51333	8
2.51700	9
2.52067	9
2.52433	10
2.52800	11
2.53167	11
2.53533	12
2.53900	13
2.54267	14
2.54633	14
2.55000	15
2.55367	15
2.55733	16
2.56100	16
2.56467	17
2.56833	17
2.57200	17
2.57567	17
2.57933	17
2.58300	17
2.58667	17
2.59033	17
2.59400	17
2.59767	18
2.60133	18
2.60500	18
2.60867	17
2.61233	17
2.61600	16
2.61967	16
2.62333	16
2.62700	16
2.63067	17
2.63433	17
2.63800	18
2.64167	18
2.64533	19
2.64900	19
2.65267	20
2.65633	21
2.66000	21
2.66367	22
2.66733	23
2.67100	24
2.67467	24
2.67833	24
2.68200	24
2.68567	23
2.68933	22
2.69300	22
2.69667	22
2.70033	21
2.70400	21
2.70767	21
2.71133	21
2.71500	21
2.71867	22
2.72233	22
2.72600	23
2.72967	23
2.73333	24
2.73700	24
2.74067	25
2.74433	25
2.74800	25
2.75167	26
2.75533	26
2.75900	26
2.76267	27
2.76633	27
2.77000	27
2.77367	26
2.77733	26
2.78100	26
2.78467	26
2.78833	26
2.79200	25
2.79567	25
2.79933	25
2.80300	25
2.80667	25
2.81033	25
2.81400	25
2.81767	24
2.82133	24
2.82500	25
2.82867	25
2.83233	25
2.83600	25
2.83967	24
2.84333	22
2.84700	19
2.85067	13
2.85433	4
2.85800	-9
2.86167	-25
2.86533	-47
2.86900	-73
2.87267	-104
2.87633	-141
2.88000	-183
2.88367	-230
2.88733	-281
2.89100	-337
2.89467	-397
2.89833	-460
2.90200	-527
2.90567	-597
2.90933	-670
2.91300	-745
2.91667	-822
2.92033	-902
2.92400	-983
2.92767	-1066
2.93133	-1150
2.93500	-1235
2.93867	-1322
2.94233	-1405
2.94600	-1471
2.94967	-1511
2.95333	-1516
2.95700	-1487
2.96067	-1426
2.96433	-1343
2.96800	-1244
2.97167	-1136
2.97533	-1026
2.97900	-917
2.98267	-813
2.98633	-715
2.99000	-626
2.99367	-545
2.99733	-472
3.00100	-407
3.00467	-350
3.00833	-300
3.01200	-256
3.01567	-219
3.01933	-186
3.02300	-158
3.02667	-133
3.03033	-113
3.03400	-95
3.03767	-79
3.04133	-67
3.04500	-56
3.04867	-46
3.05233	-38
3.05600	-31
3.05967	-25
3.06333	-20
3.06700	-16
3.07067	-12
3.07433	-9
3.07800	-6
3.08167	-4
3.08533	-1
3.08900	0
3.09267	2
3.09633	4
3.10000	5
3.10367	6
3.10733	7
3.11100	8
3.11467	8
3.11833	9
3.12200	9
3.12567	10
3.12933	10
3.13300	11
3.13667	11
3.14033	12
3.14400	12
3.14767	13
3.15133	14
3.15500	14
3.15867	15
3.16233	15
3.16600	16
3.16967	16
3.17333	17
3.17700	17
3.18067	18
3.18433	18
3.18800	18
3.19167	18
3.19533	18
3.19900	19
3.20267	19
3.20633	19
3.21000	19
3.21367	19
3.21733	19
3.22100	20
3.22467	20
3.22833	20
3.23200	20
3.23567	21
3.23933	21
3.24300	21
3.24667	21
3.25033	22
3.25400	22
3.25767	22
3.26133	23
3.26500	24
3.26867	24
3.27233	24
3.27600	25
3.27967	25
3.28333	25
3.28700	25
3.29067	25
3.29433	25
3.29800	25
3.30167	25
3.30533	26
3.30900	25
3.31267	25
3.31633	25
3.32000	25
3.32367	25
3.32733	25
3.33100	25
3.33467	25
3.33833	25
3.34200	25
3.34567	26
3.34933	26
3.35300	26
3.35667	26
3.36033	26
3.36400	26
3.36767	26
3.37133	26
3.37500	26
3.37867	26
3.38233	26
3.38600	26
3.38967	26
3.39333	26
3.39700	26
3.40067	26
3.40433	26
3.40800	26
3.41167	26
3.41533	26
3.41900	26
3.42267	26
3.42633	26
3.43000	26
3.43367	26
3.43733	26
3.44100	26
3.44467	26
3.44833	26
3.45200	26
3.45567	26
3.45933	26
3.46300	26
3.46667	26
3.47033	26
3.47400	26
3.47767	26
3.48133	26
3.48500	26
3.48867	26
3.49233	27
3.49600	27
3.49967	27
3.50333	27
3.50700	27
3.51067	27
3.51433	27
3.51800	26
3.52167	26
3.52533	26
3.52900	26
3.53267	26
3.53633	26
3.54000	26
3.54367	26
3.54733	27
3.55100	27
3.55467	27
3.55833	27
3.56200	27
3.56567	27
3.56933	28
3.57300	28
3.57667	28
3.58033	28
3.58400	28
3.58767	28
3.59133	28
3.59500	28
3.59867	28
3.60233	28
3.60600	28
3.60967	28
3.61333	28
3.61700	28
3.62067	28
3.62433	28
3.62800	29
3.63167	29
3.63533	29
3.63900	29
3.64267	29
3.64633	29
3.65000	28
3.65367	28
3.65733	28
3.66100	28
3.66467	28
3.66833	28
3.67200	28
3.67567	28
3.67933	28
3.68300	27
3.68667	27
3.69033	27
3.69400	27
3.69767	27
3.70133	27
3.70500	27
3.70867	27
3.71233	27
3.71600	27
3.71967	27
3.72333	27
3.72700	26
3.73067	26
3.73433	26
3.73800	26
3.74167	26
3.74533	26
3.74900	26
3.75267	26
3.75633	26
3.76000	26
3.76367	26
3.76733	26
3.77100	26
3.77467	26
3.77833	25
3.78200	25
3.78567	25
3.78933	25
3.79300	25
3.79667	26
3.80033	26
3.80400	26
3.80767	27
3.81133	27
3.81500	27
3.81867	27
3.82233	27
3.82600	26
3.82967	26
3.83333	26
3.83700	26
3.84067	26
3.84433	26
3.84800	26
3.85167	26
3.85533	26
3.85900	26
3.86267	25
3.86633	25
3.87000	25
3.87367	25
3.87733	25
3.88100	25
3.88467	25
3.88833	25
3.89200	25
3.89567	25
3.89933	25
3.90300	25
3.90667	25
3.91033	25
3.91400	25
3.91767	25
3.92133	25
3.92500	25
3.92867	25
3.93233	25
3.93600	25
3.93967	25
3.94333	26
3.94700	26
3.95067	26
3.95433	26
3.95800	26
3.96167	26
3.96533	26
3.96900	26
3.97267	26
3.97633	26
3.98000	26
3.98367	26
3.98733	26
3.99100	26
3.99467	26
3.99833	26

[Chromatogram (Ch3)]
Interval(msec)	220
# of Points	1091
Start Time(min)	0.002
End Time(min)	3.998
R.Time (min)	Intensity
0.00167	1
0.00533	3
0.00900	3
0.01267	3
0.01633	3
0.02000	4
0.02367	4
0.02733	4
0.03100	6
0.03467	7
0.03833	5
0.04200	4
0.04567	4
0.04933	5
0.05300	6
0.05667	4
0.06033	3
0.06400	2
0.06767	2
0.07133	4
0.07500	6
0.07867	8
0.08233	7
0.08600	8
0.08967	8
0.09333	6
0.09700	6
0.10067	6
0.10433	6
0.10800	7
0.11167	8
0.11533	9
0.11900	9
0.12267	8
0.12633	7
0.13000	7
0.13367	8
0.13733	10
0.14100	11
0.14467	11
0.14833	7
0.15200	6
0.15567	6
0.15933	8
0.16300	10
0.16667	8
0.17033	6
0.17400	6
0.17767	8
0.18133	7
0.18500	6
0.18867	5
0.19233	5
0.19600	8
0.19967	10
0.20333	12
0.20700	14
0.21067	15
0.21433	15
0.21800	15
0.22167	16
0.22533	16
0.22900	15
0.23267	16
0.23633	14
0.24000	15
0.24367	17
0.24733	18
0.25100	17
0.25467	17
0.25833	18
0.26200	17
0.26567	17
0.26933	18
0.27300	19
0.27667	19
0.28033	18
0.28400	16
0.28767	17
0.29133	17
0.29500	16
0.29867	14
0.30233	13
0.30600	12
0.30967	13
0.31333	13
0.31700	13
0.32067	15
0.32433	18
0.32800	18
0.33167	16
0.33533	15
0.33900	13
0.34267	12
0.34633	11
0.35000	10
0.35367	12
0.35733	12
0.36100	11
0.36467	11
0.36833	13
0.37200	14
0.37567	14
0.37933	13
0.38300	14
0.38667	15
0.39033	16
0.39400	18
0.39767	16
0.40133	13
0.40500	12
0.40867	13
0.41233	12
0.41600	12
0.41967	12
0.42333	12
0.42700	13
0.43067	14
0.43433	14
0.43800	14
0.44167	15
0.44533	17
0.44900	18
0.45267	19
0.45633	21
0.46000	22
0.46367	22
0.46733	23
0.47100	21
0.47467	19
0.47833	16
0.48200	14
0.48567	16
0.48933	18
0.49300	20
0.49667	22
0.50033	22
0.50400	18
0.50767	17
0.51133	19
0.51500	20
0.51867	22
0.52233	23
0.52600	22
0.52967	17
0.53333	14
0.53700	15
0.54067	17
0.54433	16
0.54800	15
0.55167	14
0.55533	14
0.55900	14
0.56267	17
0.56633	16
0.57000	17
0.57367	18
0.57733	20
0.58100	19
0.58467	18
0.58833	17
0.59200	16
0.59567	15
0.59933	18
0.60300	19
0.60667	18
0.61033	19
0.61400	19
0.61767	17
0.62133	15
0.62500	14
0.62867	15
0.63233	16
0.63600	18
0.63967	18
0.64333	16
0.64700	16
0.65067	17
0.65433	16
0.65800	14
0.66167	16
0.66533	19
0.66900	20
0.67267	19
0.67633	20
0.68000	21
0.68367	21
0.68733	19
0.69100	18
0.69467	15
0.69833	13
0.70200	12
0.70567	12
0.70933	13
0.71300	12
0.71667	12
0.72033	15
0.72400	16
0.72767	17
0.73133	17
0.73500	20
0.73867	21
0.74233	19
0.74600	17
0.74967	18
0.75333	17
0.75700	17
0.76067	15
0.76433	16
0.76800	16
0.77167	16
0.77533	15
0.77900	13
0.78267	12
0.78633	13
0.79000	14
0.79367	15
0.79733	15
0.80100	15
0.80467	16
0.80833	18
0.81200	17
0.81567	17
0.81933	18
0.82300	19
0.82667	17
0.83033	19
0.83400	21
0.83767	22
0.84133	22
0.84500	20
0.84867	17
0.85233	14
0.85600	14
0.85967	16
0.86333	18
0.86700	18
0.87067	16
0.87433	15
0.87800	17
0.88167	17
0.88533	17
0.88900	15
0.89267	12
0.89633	11
0.90000	11
0.90367	12
0.90733	14
0.91100	16
0.91467	17
0.91833	17
0.92200	18
0.92567	17
0.92933	17
0.93300	18
0.93667	16
0.94033	16
0.94400	18
0.94767	19
0.95133	19
0.95500	18
0.95867	18
0.96233	17
0.96600	16
0.96967	16
0.97333	14
0.97700	14
0.98067	15
0.98433	18
0.98800	18
0.99167	18
0.99533	18
0.99900	18
1.00267	19
1.00633	18
1.01000	16
1.01367	15
1.01733	14
1.02100	15
1.02467	19
1.02833	23
1.03200	25
1.03567	24
1.03933	21
1.04300	20
1.04667	20
1.05033	22
1.05400	22
1.05767	20
1.06133	19
1.06500	16
1.06867	14
1.07233	15
1.07600	14
1.07967	12
1.08333	11
1.08700	14
1.09067	16
1.09433	18
1.09800	18
1.10167	17
1.10533	16
1.10900	18
1.11267	19
1.11633	19
1.12000	19
1.12367	20
1.12733	22
1.13100	24
1.13467	24
1.13833	23
1.14200	22
1.14567	21
1.14933	17
1.15300	15
1.15667	13
1.16033	15
1.16400	17
1.16767	19
1.17133	20
1.17500	20
1.17867	20
1.18233	19
1.18600	17
1.18967	15
1.19333	15
1.19700	15
1.20067	16
1.20433	17
1.20800	18
1.21167	19
1.21533	20
1.21900	20
1.22267	20
1.22633	23
1.23000	24
1.23367	22
1.23733	19
1.24100	19
1.24467	18
1.24833	20
1.25200	20
1.25567	19
1.25933	18
1.26300	18
1.26667	20
1.27033	19
1.27400	19
1.27767	20
1.28133	22
1.28500	23
1.28867	21
1.29233	19
1.29600	19
1.29967	19
1.30333	18
1.30700	18
1.31067	17
1.31433	18
1.31800	17
1.32167	16
1.32533	16
1.32900	18
1.33267	19
1.33633	21
1.34000	20
1.34367	18
1.34733	17
1.35100	15
1.35467	15
1.35833	13
1.36200	11
1.36567	11
1.36933	13
1.37300	16
1.37667	18
1.38033	20
1.38400	20
1.38767	19
1.39133	20
1.39500	20
1.39867	18
1.40233	17
1.40600	18
1.40967	18
1.41333	17
1.41700	16
1.42067	16
1.42433	17
1.42800	18
1.43167	19
1.43533	18
1.43900	15
1.44267	14
1.44633	16
1.45000	19
1.45367	21
1.45733	22
1.46100	22
1.46467	21
1.46833	19
1.47200	18
1.47567	17
1.47933	16
1.48300	16
1.48667	16
1.49033	19
1.49400	22
1.49767	22
1.50133	21
1.50500	19
1.50867	18
1.51233	18
1.51600	18
1.51967	19
1.52333	22
1.52700	23
1.53067	22
1.53433	22
1.53800	19
1.54167	17
1.54533	16
1.54900	17
1.55267	16
1.55633	16
1.56000	15
1.56367	12
1.56733	12
1.57100	13
1.57467	15
1.57833	15
1.58200	13
1.58567	13
1.58933	16
1.59300	19
1.59667	21
1.60033	20
1.60400	19
1.60767	20
1.61133	21
1.61500	20
1.61867	19
1.62233	19
1.62600	20
1.62967	22
1.63333	22
1.63700	23
1.64067	22
1.64433	22
1.64800	23
1.65167	23
1.65533	23
1.65900	23
1.66267	25
1.66633	29
1.67000	32
1.67367	33
1.67733	32
1.68100	32
1.68467	34
1.68833	35
1.69200	34
1.69567	32
1.69933	31
1.70300	33
1.70667	35
1.71033	34
1.71400	32
1.71767	31
1.72133	31
1.72500	31
1.72867	30
1.73233	33
1.73600	36
1.73967	35
1.74333	34
1.74700	33
1.75067	33
1.75433	36
1.75800	38
1.76167	38
1.76533	38
1.76900	38
1.77267	40
1.77633	40
1.78000	37
1.78367	37
1.78733	40
1.79100	42
1.79467	42
1.79833	43
1.80200	41
1.80567	41
1.80933	43
1.81300	45
1.81667	47
1.82033	50
1.82400	51
1.82767	51
1.83133	51
1.83500	49
1.83867	48
1.84233	47
1.84600	46
1.84967	48
1.85333	49
1.85700	49
1.86067	50
1.86433	50
1.86800	50
1.87167	50
1.87533	51
1.87900	51
1.88267	50
1.88633	50
1.89000	51
1.89367	52
1.89733	52
1.90100	51
1.90467	51
1.90833	52
1.91200	53
1.91567	55
1.91933	56
1.92300	57
1.92667	57
1.93033	57
1.93400	58
1.93767	58
1.94133	58
1.94500	57
1.94867	56
1.95233	57
1.95600	61
1.95967	64
1.96333	64
1.96700	64
1.97067	63
1.97433	62
1.97800	62
1.98167	63
1.98533	62
1.98900	64
1.99267	68
1.99633	71
2.00000	70
2.00367	70
2.00733	69
2.01100	71
2.01467	72
2.01833	73
2.02200	74
2.02567	75
2.02933	75
2.03300	77
2.03667	80
2.04033	80
2.04400	79
2.04767	80
2.05133	78
2.05500	76
2.05867	77
2.06233	77
2.06600	77
2.06967	78
2.07333	79
2.07700	80
2.08067	83
2.08433	84
2.08800	85
2.09167	87
2.09533	89
2.09900	91
2.10267	90
2.10633	90
2.11000	93
2.11367	94
2.11733	95
2.12100	95
2.12467	96
2.12833	96
2.13200	95
2.13567	94
2.13933	95
2.14300	97
2.14667	97
2.15033	99
2.15400	103
2.15767	103
2.16133	101
2.16500	99
2.16867	100
2.17233	102
2.17600	103
2.17967	106
2.18333	109
2.18700	108
2.19067	108
2.19433	108
2.19800	109
2.20167	110
2.20533	112
2.20900	112
2.21267	112
2.21633	113
2.22000	114
2.22367	116
2.22733	118
2.23100	121
2.23467	124
2.23833	126
2.24200	126
2.24567	126
2.24933	124
2.25300	122
2.25667	123
2.26033	124
2.26400	125
2.26767	125
2.27133	125
2.27500	126
2.27867	126
2.28233	124
2.28600	123
2.28967	122
2.29333	123
2.29700	126
2.30067	128
2.30433	130
2.30800	132
2.31167	134
2.31533	135
2.31900	138
2.32267	139
2.32633	138
2.33000	137
2.33367	138
2.33733	139
2.34100	139
2.34467	140
2.34833	141
2.35200	142
2.35567	143
2.35933	143
2.36300	142
2.36667	140
2.37033	142
2.37400	143
2.37767	146
2.38133	148
2.38500	149
2.38867	149
2.39233	150
2.39600	149
2.39967	149
2.40333	151
2.40700	152
2.41067	154
2.41433	158
2.41800	160
2.42167	163
2.42533	165
2.42900	167
2.43267	168
2.43633	170
2.44000	171
2.44367	177
2.44733	194
2.45100	215
2.45467	223
2.45833	210
2.46200	187
2.46567	172
2.46933	168
2.47300	173
2.47667	183
2.48033	195
2.48400	212
2.48767	231
2.49133	252
2.49500	274
2.49867	300
2.50233	325
2.50600	348
2.50967	372
2.51333	392
2.51700	407
2.52067	418
2.52433	425
2.52800	430
2.53167	438
2.53533	447
2.53900	455
2.54267	462
2.54633	468
2.55000	473
2.55367	483
2.55733	492
2.56100	497
2.56467	505
2.56833	512
2.57200	517
2.57567	523
2.57933	531
2.58300	534
2.58667	536
2.59033	539
2.59400	543
2.59767	540
2.60133	529
2.60500	512
2.60867	488
2.61233	454
2.61600	415
2.61967	373
2.62333	330
2.62700	290
2.63067	256
2.63433	228
2.63800	205
2.64167	188
2.64533	179
2.64900	174
2.65267	172
2.65633	176
2.66000	182
2.66367	187
2.66733	195
2.67100	207
2.67467	220
2.67833	231
2.68200	244
2.68567	257
2.68933	266
2.69300	275
2.69667	284
2.70033	294
2.70400	301
2.70767	308
2.71133	315
2.71500	321
2.71867	326
2.72233	330
2.72600	333
2.72967	336
2.73333	340
2.73700	344
2.74067	348
2.74433	354
2.74800	359
2.75167	361
2.75533	364
2.75900	369
2.76267	374
2.76633	377
2.77000	379
2.77367	380
2.77733	383
2.78100	385
2.78467	387
2.78833	391
2.79200	393
2.79567	397
2.79933	401
2.80300	402
2.80667	404
2.81033	404
2.81400	403
2.81767	406
2.82133	418
2.82500	455
2.82867	538
2.83233	717
2.83600	1054
2.83967	1611
2.84333	2450
2.84700	3607
2.85067	5071
2.85433	6789
2.85800	8660
2.86167	10557
2.86533	12338
2.86900	13865
2.87267	15028
2.87633	15767
2.88000	16062
2.88367	15943
2.88733	15472
2.89100	14730
2.89467	13798
2.89833	12755
2.90200	11663
2.90567	10568
2.90933	9515
2.91300	8521
2.91667	7598
2.92033	6754
2.92400	5987
2.92767	5297
2.93133	4683
2.93500	4138
2.93867	3658
2.94233	3230
2.94600	2854
2.94967	2525
2.95333	2240
2.95700	1988
2.96067	1770
2.96433	1581
2.96800	1417
2.97167	1277
2.97533	1153
2.97900	1044
2.98267	949
2.98633	869
2.99000	800
2.99367	740
2.99733	687
3.00100	640
3.00467	601
3.00833	567
3.01200	539
3.01567	515
3.01933	492
3.02300	473
3.02667	455
3.03033	441
3.03400	428
3.03767	416
3.04133	406
3.04500	397
3.04867	389
3.05233	383
3.05600	378
3.05967	375
3.06333	372
3.06700	367
3.07067	364
3.07433	358
3.07800	353
3.08167	348
3.08533	344
3.08900	341
3.09267	341
3.09633	339
3.10000	338
3.10367	337
3.10733	337
3.11100	336
3.11467	333
3.11833	330
3.12200	328
3.12567	325
3.12933	324
3.13300	323
3.13667	324
3.14033	322
3.14400	320
3.14767	318
3.15133	315
3.15500	314
3.15867	315
3.16233	318
3.16600	318
3.16967	316
3.17333	313
3.17700	309
3.18067	307
3.18433	307
3.18800	308
3.19167	308
3.19533	307
3.19900	305
3.20267	304
3.20633	304
3.21000	304
3.21367	305
3.21733	306
3.22100	306
3.22467	307
3.22833	306
3.23200	304
3.23567	299
3.23933	296
3.24300	294
3.24667	289
3.25033	284
3.25400	281
3.25767	281
3.26133	283
3.26500	281
3.26867	279
3.27233	276
3.27600	275
3.27967	273
3.28333	270
3.28700	268
3.29067	267
3.29433	266
3.29800	266
3.30167	265
3.30533	263
3.30900	261
3.31267	258
3.31633	255
3.32000	252
3.32367	250
3.32733	250
3.33100	251
3.33467	252
3.33833	253
3.34200	253
3.34567	250
3.34933	245
3.35300	240
3.35667	238
3.36033	235
3.36400	234
3.36767	234
3.37133	234
3.37500	235
3.37867	236
3.38233	235
3.38600	232
3.38967	228
3.39333	226
3.39700	224
3.40067	222
3.40433	220
3.40800	217
3.41167	216
3.41533	215
3.41900	216
3.42267	216
3.42633	215
3.43000	215
3.43367	212
3.43733	211
3.44100	208
3.44467	206
3.44833	204
3.45200	202
3.45567	199
3.45933	198
3.46300	196
3.46667	196
3.47033	195
3.47400	194
3.47767	194
3.48133	194
3.48500	192
3.48867	189
3.49233	187
3.49600	185
3.49967	185
3.50333	183
3.50700	181
3.51067	179
3.51433	176
3.51800	174
3.52167	172
3.52533	172
3.52900	170
3.53267	168
3.53633	168
3.54000	166
3.54367	163
3.54733	164
3.55100	166
3.55467	168
3.55833	168
3.56200	167
3.56567	165
3.56933	164
3.57300	161
3.57667	157
3.58033	154
3.58400	152
3.58767	152
3.59133	154
3.59500	153
3.59867	153
3.60233	152
3.60600	151
3.60967	152
3.61333	151
3.61700	150
3.62067	151
3.62433	150
3.62800	148
3.63167	146
3.63533	144
3.63900	141
3.64267	138
3.64633	136
3.65000	133
3.65367	133
3.65733	135
3.66100	135
3.66467	134
3.66833	133
3.67200	132
3.67567	131
3.67933	131
3.68300	129
3.68667	128
3.69033	126
3.69400	123
3.69767	121
3.70133	120
3.70500	119
3.70867	118
3.71233	119
3.71600	120
3.71967	119
3.72333	115
3.72700	113
3.73067	111
3.73433	110
3.73800	111
3.74167	111
3.74533	111
3.74900	111
3.75267	110
3.75633	109
3.76000	108
3.76367	109
3.76733	110
3.77100	108
3.77467	106
3.77833	105
3.78200	103
3.78567	102
3.78933	102
3.79300	101
3.79667	101
3.80033	98
3.80400	95
3.80767	93
3.81133	93
3.81500	93
3.81867	91
3.82233	93
3.82600	94
3.82967	92
3.83333	89
3.83700	89
3.84067	86
3.84433	86
3.84800	87
3.85167	88
3.85533	88
3.85900	86
3.86267	86
3.86633	85
3.87000	83
3.87367	81
3.87733	82
3.88100	84
3.88467	84
3.88833	85
3.89200	83
3.89567	78
3.89933	76
3.90300	78
3.90667	79
3.91033	80
3.91400	78
3.91767	75
3.92133	73
3.92500	70
3.92867	69
3.93233	70
3.93600	69
3.93967	67
3.94333	64
3.94700	63
3.95067	61
3.95433	59
3.95800	59
3.96167	61
3.96533	61
3.96900	59
3.97267	56
3.97633	53
3.98000	52
3.98367	54
3.98733	57
3.99100	60
3.99467	62
3.99833	64

[Status Trace (Column Oven Temperature)]
Interval(msec)	1000
# of Points	240
Start Time(min)	0.000
End Time(min)	3.984
Intensity Units	
Intensity Multiplier	1
R.Time (min)	Intensity
0.00048	35.05
0.01715	35.05
0.03382	35.05
0.05048	35.05
0.06715	35.05
0.08382	35.04
0.10048	35.04
0.11715	35.04
0.13382	35.05
0.15048	35.06
0.16715	35.06
0.18382	35.04
0.20048	35.03
0.21715	35.03
0.23382	35.02
0.25048	35.00
0.26715	34.99
0.28382	34.98
0.30048	34.98
0.31715	34.98
0.33382	34.98
0.35048	34.98
0.36715	34.97
0.38382	34.98
0.40048	34.97
0.41715	34.97
0.43382	34.98
0.45048	34.97
0.46715	34.97
0.48382	34.96
0.50048	34.96
0.51715	34.95
0.53382	34.95
0.55048	34.96
0.56715	34.96
0.58382	34.98
0.60048	34.99
0.61715	34.99
0.63382	34.99
0.65048	34.99
0.66715	34.98
0.68382	34.98
0.70048	34.98
0.71715	34.97
0.73382	34.97
0.75048	34.97
0.76715	34.97
0.78382	34.98
0.80048	34.99
0.81715	34.99
0.83382	35.00
0.85048	35.02
0.86715	35.02
0.88382	35.02
0.90048	35.03
0.91715	35.03
0.93382	35.03
0.95048	35.03
0.96715	35.02
0.98382	35.01
1.00048	35.00
1.01715	35.00
1.03382	34.99
1.05048	35.00
1.06715	35.00
1.08382	35.00
1.10048	34.98
1.11715	34.97
1.13382	34.97
1.15048	34.96
1.16715	34.96
1.18382	34.95
1.20048	34.95
1.21715	34.95
1.23382	34.97
1.25048	34.97
1.26715	34.98
1.28382	34.99
1.30048	34.99
1.31715	35.00
1.33382	35.00
1.35048	34.99
1.36715	34.98
1.38382	34.98
1.40048	34.97
1.41715	34.97
1.43382	34.97
1.45048	34.98
1.46715	34.99
1.48382	35.00
1.50048	35.00
1.51715	35.00
1.53382	35.00
1.55048	35.01
1.56715	35.01
1.58382	35.00
1.60048	35.03
1.61715	35.11
1.63382	35.26
1.65048	35.47
1.66715	35.76
1.68382	36.14
1.70048	36.51
1.71715	36.86
1.73382	37.18
1.75048	37.49
1.76715	37.84
1.78382	38.16
1.80048	38.51
1.81715	38.84
1.83382	39.17
1.85048	39.51
1.86715	39.83
1.88382	40.16
1.90048	40.50
1.91715	40.80
1.93382	41.14
1.95048	41.45
1.96715	41.78
1.98382	42.12
2.00048	42.44
2.01715	42.76
2.03382	43.07
2.05048	43.40
2.06715	43.73
2.08382	44.07
2.10048	44.41
2.11715	44.74
2.13382	45.06
2.15048	45.40
2.16715	45.72
2.18382	46.03
2.20048	46.34
2.21715	46.67
2.23382	46.99
2.25048	47.35
2.26715	47.66
2.28382	47.98
2.30048	48.33
2.31715	48.67
2.33382	49.01
2.35048	49.29
2.36715	49.55
2.38382	49.66
2.40048	49.68
2.41715	49.66
2.43382	49.68
2.45048	49.68
2.46715	49.72
2.48382	49.71
2.50048	49.74
2.51715	49.74
2.53382	49.76
2.55048	49.77
2.56715	49.78
2.58382	49.80
2.60048	49.82
2.61715	49.85
2.63382	49.86
2.65048	49.85
2.66715	49.82
2.68382	49.84
2.70048	49.86
2.71715	49.87
2.73382	49.85
2.75048	49.85
2.76715	49.85
2.78382	49.87
2.80048	49.89
2.81715	49.90
2.83382	49.90
2.85048	49.91
2.86715	49.92
2.88382	49.94
2.90048	49.96
2.91715	49.97
2.93382	49.98
2.95048	49.98
2.96715	49.99
2.98382	49.99
3.00048	50.00
3.01715	50.01
3.03382	50.01
3.05048	50.02
3.06715	50.03
3.08382	50.04
3.10048	50.06
3.11715	50.06
3.13382	50.06
3.15048	50.07
3.16715	50.07
3.18382	50.08
3.20048	50.10
3.21715	50.10
3.23382	50.10
3.25048	50.09
3.26715	50.08
3.28382	50.08
3.30048	50.07
3.31715	50.07
3.33382	50.07
3.35048	50.07
3.36715	50.07
3.38382	50.07
3.40048	50.08
3.41715	50.08
3.43382	50.09
3.45048	50.09
3.46715	50.09
3.48382	50.09
3.50048	50.09
3.51715	50.10
3.53382	50.10
3.55048	50.10
3.56715	50.09
3.58382	50.08
3.60048	50.08
3.61715	50.08
3.63382	50.07
3.65048	50.06
3.66715	50.06
3.68382	50.06
3.70048	50.04
3.71715	50.05
3.73382	50.05
3.75048	50.06
3.76715	50.05
3.78382	50.06
3.80048	50.06
3.81715	50.06
3.83382	50.06
3.85048	50.05
3.86715	50.06
3.88382	50.06
3.90048	50.06
3.91715	50.07
3.93382	50.07
3.95048	50.06
3.96715	50.05
3.98382	50.05

[Status Trace (Injection Unit Temperature)]
Interval(msec)	1000
# of Points	240
Start Time(min)	0.000
End Time(min)	3.984
Intensity Units	
Intensity Multiplier	1
R.Time (min)	Intensity
0.00048	99.99
0.01715	99.98
0.03382	99.99
0.05048	99.98
0.06715	99.98
0.08382	99.99
0.10048	99.99
0.11715	99.98
0.13382	99.99
0.15048	99.99
0.16715	99.99
0.18382	99.99
0.20048	99.98
0.21715	99.99
0.23382	99.99
0.25048	99.99
0.26715	99.98
0.28382	99.99
0.30048	99.98
0.31715	99.98
0.33382	99.99
0.35048	99.98
0.36715	99.98
0.38382	99.99
0.40048	99.98
0.41715	99.98
0.43382	99.99
0.45048	99.99
0.46715	99.99
0.48382	99.98
0.50048	99.98
0.51715	99.99
0.53382	99.98
0.55048	99.99
0.56715	99.99
0.58382	99.99
0.60048	99.99
0.61715	99.99
0.63382	99.99
0.65048	99.99
0.66715	99.98
0.68382	99.99
0.70048	99.99
0.71715	99.99
0.73382	99.99
0.75048	99.99
0.76715	99.99
0.78382	99.99
0.80048	99.99
0.81715	99.99
0.83382	99.99
0.85048	99.99
0.86715	99.99
0.88382	99.99
0.90048	99.99
0.91715	99.99
0.93382	99.99
0.95048	99.99
0.96715	99.99
0.98382	99.99
1.00048	99.99
1.01715	99.98
1.03382	99.99
1.05048	99.99
1.06715	99.98
1.08382	99.99
1.10048	99.99
1.11715	99.99
1.13382	99.99
1.15048	99.99
1.16715	99.99
1.18382	99.99
1.20048	99.99
1.21715	99.99
1.23382	99.99
1.25048	99.99
1.26715	99.99
1.28382	99.98
1.30048	99.99
1.31715	99.99
1.33382	99.99
1.35048	99.99
1.36715	99.99
1.38382	99.99
1.40048	99.99
1.41715	99.99
1.43382	99.99
1.45048	99.99
1.46715	99.99
1.48382	99.99
1.50048	99.99
1.51715	99.98
1.53382	99.99
1.55048	99.99
1.56715	99.99
1.58382	99.99
1.60048	99.99
1.61715	99.98
1.63382	99.99
1.65048	99.99
1.66715	99.99
1.68382	99.99
1.70048	99.99
1.71715	99.99
1.73382	99.99
1.75048	99.99
1.76715	99.99
1.78382	99.98
1.80048	99.98
1.81715	99.99
1.83382	99.99
1.85048	99.98
1.86715	99.98
1.88382	99.98
1.90048	99.98
1.91715	99.98
1.93382	99.98
1.95048	99.98
1.96715	99.98
1.98382	99.98
2.00048	99.97
2.01715	99.97
2.03382	99.97
2.05048	99.97
2.06715	99.97
2.08382	99.98
2.10048	99.97
2.11715	99.97
2.13382	99.97
2.15048	99.97
2.16715	99.97
2.18382	99.97
2.20048	99.97
2.21715	99.97
2.23382	99.97
2.25048	99.97
2.26715	99.97
2.28382	99.97
2.30048	99.97
2.31715	99.97
2.33382	99.97
2.35048	99.97
2.36715	99.97
2.38382	99.97
2.40048	99.97
2.41715	99.97
2.43382	99.97
2.45048	99.97
2.46715	99.97
2.48382	99.97
2.50048	99.97
2.51715	99.97
2.53382	99.97
2.55048	99.97
2.56715	99.98
2.58382	99.98
2.60048	99.98
2.61715	99.97
2.63382	99.98
2.65048	99.98
2.66715	99.99
2.68382	99.98
2.70048	99.98
2.71715	99.99
2.73382	99.99
2.75048	99.99
2.76715	99.99
2.78382	99.99
2.80048	99.99
2.81715	100.00
2.83382	100.00
2.85048	100.00
2.86715	100.00
2.88382	100.00
2.90048	100.00
2.91715	100.01
2.93382	100.00
2.95048	100.01
2.96715	100.01
2.98382	100.02
3.00048	100.01
3.01715	100.01
3.03382	100.01
3.05048	100.02
3.06715	100.02
3.08382	100.02
3.10048	100.02
3.11715	100.03
3.13382	100.03
3.15048	100.03
3.16715	100.02
3.18382	100.03
3.20048	100.03
3.21715	100.03
3.23382	100.03
3.25048	100.03
3.26715	100.03
3.28382	100.03
3.30048	100.03
3.31715	100.03
3.33382	100.03
3.35048	100.03
3.36715	100.03
3.38382	100.04
3.40048	100.03
3.41715	100.04
3.43382	100.03
3.45048	100.03
3.46715	100.03
3.48382	100.04
3.50048	100.03
3.51715	100.03
3.53382	100.04
3.55048	100.04
3.56715	100.04
3.58382	100.04
3.60048	100.04
3.61715	100.04
3.63382	100.04
3.65048	100.04
3.66715	100.04
3.68382	100.04
3.70048	100.04
3.71715	100.04
3.73382	100.04
3.75048	100.04
3.76715	100.04
3.78382	100.04
3.80048	100.05
3.81715	100.04
3.83382	100.05
3.85048	100.04
3.86715	100.05
3.88382	100.05
3.90048	100.05
3.91715	100.05
3.93382	100.05
3.95048	100.05
3.96715	100.05
3.98382	100.05

[Status Trace (Carrier Gas Pressure)]
Interval(msec)	1000
# of Points	240
Start Time(min)	0.000
End Time(min)	3.984
Intensity Units	
Intensity Multiplier	1
R.Time (min)	Intensity
0.00048	58.00
0.01715	56.62
0.03382	55.91
0.05048	58.02
0.06715	59.92
0.08382	58.50
0.10048	57.97
0.11715	58.00
0.13382	58.01
0.15048	58.01
0.16715	58.00
0.18382	58.00
0.20048	58.00
0.21715	58.00
0.23382	58.00
0.25048	58.00
0.26715	58.00
0.28382	58.00
0.30048	58.00
0.31715	58.00
0.33382	58.00
0.35048	58.00
0.36715	58.00
0.38382	58.00
0.40048	58.00
0.41715	58.00
0.43382	58.00
0.45048	58.00
0.46715	58.00
0.48382	58.00
0.50048	58.00
0.51715	58.00
0.53382	58.00
0.55048	58.00
0.56715	58.00
0.58382	58.00
0.60048	58.00
0.61715	58.00
0.63382	58.00
0.65048	58.00
0.66715	58.00
0.68382	58.00
0.70048	58.00
0.71715	58.00
0.73382	58.00
0.75048	58.00
0.76715	58.00
0.78382	58.00
0.80048	58.00
0.81715	58.00
0.83382	58.00
0.85048	58.00
0.86715	58.00
0.88382	58.00
0.90048	58.00
0.91715	58.00
0.93382	58.00
0.95048	58.00
0.96715	58.00
0.98382	58.00
1.00048	58.00
1.01715	58.00
1.03382	58.00
1.05048	58.00
1.06715	58.00
1.08382	58.00
1.10048	58.00
1.11715	58.00
1.13382	58.00
1.15048	58.00
1.16715	58.00
1.18382	58.00
1.20048	58.00
1.21715	58.00
1.23382	58.00
1.25048	58.00
1.26715	58.00
1.28382	58.00
1.30048	58.00
1.31715	58.00
1.33382	58.00
1.35048	58.00
1.36715	58.00
1.38382	58.00
1.40048	58.00
1.41715	58.00
1.43382	58.00
1.45048	58.00
1.46715	58.00
1.48382	58.00
1.50048	58.00
1.51715	58.00
1.53382	58.00
1.55048	58.00
1.56715	58.00
1.58382	58.00
1.60048	58.00
1.61715	58.00
1.63382	58.01
1.65048	58.00
1.66715	58.01
1.68382	58.01
1.70048	58.00
1.71715	58.00
1.73382	58.00
1.75048	58.00
1.76715	58.00
1.78382	58.00
1.80048	58.00
1.81715	58.00
1.83382	58.00
1.85048	58.00
1.86715	58.00
1.88382	58.00
1.90048	58.00
1.91715	58.00
1.93382	58.00
1.95048	58.00
1.96715	58.00
1.98382	58.00
2.00048	58.00
2.01715	58.00
2.03382	58.00
2.05048	58.00
2.06715	58.00
2.08382	58.00
2.10048	58.00
2.11715	58.00
2.13382	58.00
2.15048	58.00
2.16715	58.00
2.18382	58.00
2.20048	58.00
2.21715	58.00
2.23382	58.00
2.25048	58.00
2.26715	58.00
2.28382	58.00
2.30048	58.00
2.31715	58.00
2.33382	58.00
2.35048	58.00
2.36715	58.00
2.38382	57.99
2.40048	57.99
2.41715	58.00
2.43382	58.00
2.45048	58.00
2.46715	58.00
2.48382	58.00
2.50048	58.00
2.51715	57.98
2.53382	57.99
2.55048	58.00
2.56715	58.00
2.58382	58.00
2.60048	58.00
2.61715	58.00
2.63382	58.00
2.65048	58.00
2.66715	58.00
2.68382	58.00
2.70048	58.00
2.71715	58.00
2.73382	58.00
2.75048	58.00
2.76715	58.00
2.78382	58.00
2.80048	58.00
2.81715	58.00
2.83382	58.00
2.85048	58.00
2.86715	58.00
2.88382	58.00
2.90048	58.00
2.91715	58.00
2.93382	58.00
2.95048	58.00
2.96715	58.00
2.98382	58.00
3.00048	58.00
3.01715	58.00
3.03382	58.00
3.05048	58.00
3.06715	58.00
3.08382	58.00
3.10048	58.00
3.11715	58.00
3.13382	58.00
3.15048	58.00
3.16715	58.00
3.18382	58.00
3.20048	58.00
3.21715	58.00
3.23382	58.00
3.25048	58.00
3.26715	58.00
3.28382	58.00
3.30048	58.00
3.31715	58.00
3.33382	58.00
3.35048	58.00
3.36715	58.00
3.38382	58.00
3.40048	58.00
3.41715	58.00
3.43382	58.00
3.45048	58.00
3.46715	58.00
3.48382	58.00
3.50048	58.00
3.51715	58.00
3.53382	58.00
3.55048	58.00
3.56715	58.00
3.58382	58.00
3.60048	58.00
3.61715	58.00
3.63382	58.00
3.65048	58.00
3.66715	58.00
3.68382	58.00
3.70048	58.00
3.71715	58.00
3.73382	58.00
3.75048	58.00
3.76715	58.00
3.78382	58.00
3.80048	58.00
3.81715	58.00
3.83382	58.00
3.85048	58.00
3.86715	58.00
3.88382	58.00
3.90048	58.00
3.91715	58.00
3.93382	58.00
3.95048	58.00
3.96715	58.00
3.98382	58.00

[Status Trace (Carrier Gas Flow)]
Interval(msec)	1000
# of Points	240
Start Time(min)	0.000
End Time(min)	3.984
Intensity Units	
Intensity Multiplier	1
R.Time (min)	Intensity
0.00048	34.52
0.01715	33.87
0.03382	34.54
0.05048	34.54
0.06715	34.51
0.08382	34.51
0.10048	34.52
0.11715	34.52
0.13382	34.52
0.15048	34.52
0.16715	34.52
0.18382	34.52
0.20048	34.52
0.21715	34.52
0.23382	34.52
0.25048	34.52
0.26715	34.52
0.28382	34.52
0.30048	34.52
0.31715	34.52
0.33382	34.52
0.35048	34.52
0.36715	34.52
0.38382	34.52
0.40048	34.52
0.41715	34.52
0.43382	34.52
0.45048	34.52
0.46715	34.52
0.48382	34.52
0.50048	34.52
0.51715	34.52
0.53382	34.52
0.55048	34.52
0.56715	34.52
0.58382	34.52
0.60048	34.52
0.61715	34.52
0.63382	34.52
0.65048	34.52
0.66715	34.52
0.68382	34.52
0.70048	34.52
0.71715	34.52
0.73382	34.52
0.75048	34.52
0.76715	34.52
0.78382	34.52
0.80048	34.52
0.81715	34.52
0.83382	34.52
0.85048	34.52
0.86715	34.52
0.88382	34.52
0.90048	34.52
0.91715	34.52
0.93382	34.52
0.95048	34.52
0.96715	34.52
0.98382	34.52
1.00048	34.52
1.01715	34.52
1.03382	34.52
1.05048	34.52
1.06715	34.52
1.08382	34.52
1.10048	34.52
1.11715	34.52
1.13382	34.52
1.15048	34.52
1.16715	34.52
1.18382	34.52
1.20048	34.52
1.21715	34.52
1.23382	34.52
1.25048	34.52
1.26715	34.52
1.28382	34.52
1.30048	34.52
1.31715	34.52
1.33382	34.52
1.35048	34.52
1.36715	34.52
1.38382	34.52
1.40048	34.52
1.41715	34.52
1.43382	34.52
1.45048	34.52
1.46715	34.52
1.48382	34.52
1.50048	34.52
1.51715	34.52
1.53382	34.52
1.55048	34.52
1.56715	34.52
1.58382	34.52
1.60048	34.52
1.61715	34.52
1.63382	34.52
1.65048	34.52
1.66715	34.52
1.68382	34.52
1.70048	34.52
1.71715	34.52
1.73382	34.52
1.75048	34.52
1.76715	34.52
1.78382	34.52
1.80048	34.52
1.81715	34.52
1.83382	34.52
1.85048	34.52
1.86715	34.52
1.88382	34.52
1.90048	34.52
1.91715	34.52
1.93382	34.52
1.95048	34.52
1.96715	34.52
1.98382	34.52
2.00048	34.52
2.01715	34.52
2.03382	34.52
2.05048	34.52
2.06715	34.52
2.08382	34.52
2.10048	34.52
2.11715	34.52
2.13382	34.52
2.15048	34.52
2.16715	34.52
2.18382	34.52
2.20048	34.52
2.21715	34.52
2.23382	34.52
2.25048	34.52
2.26715	34.52
2.28382	34.52
2.30048	34.52
2.31715	34.52
2.33382	34.52
2.35048	34.52
2.36715	34.52
2.38382	34.52
2.40048	34.52
2.41715	34.52
2.43382	34.52
2.45048	34.52
2.46715	34.52
2.48382	34.52
2.50048	34.52
2.51715	34.52
2.53382	34.52
2.55048	34.52
2.56715	34.52
2.58382	34.52
2.60048	34.52
2.61715	34.52
2.63382	34.52
2.65048	34.53
2.66715	34.52
2.68382	34.52
2.70048	34.52
2.71715	34.51
2.73382	34.51
2.75048	34.53
2.76715	34.50
2.78382	34.52
2.80048	34.50
2.81715	34.52
2.83382	34.53
2.85048	34.52
2.86715	34.52
2.88382	34.52
2.90048	34.52
2.91715	34.52
2.93382	34.52
2.95048	34.52
2.96715	34.52
2.98382	34.52
3.00048	34.52
3.01715	34.52
3.03382	34.52
3.05048	34.52
3.06715	34.52
3.08382	34.52
3.10048	34.52
3.11715	34.52
3.13382	34.52
3.15048	34.52
3.16715	34.52
3.18382	34.52
3.20048	34.52
3.21715	34.52
3.23382	34.52
3.25048	34.52
3.26715	34.52
3.28382	34.52
3.30048	34.52
3.31715	34.52
3.33382	34.52
3.35048	34.52
3.36715	34.52
3.38382	34.52
3.40048	34.52
3.41715	34.52
3.43382	34.52
3.45048	34.52
3.46715	34.52
3.48382	34.52
3.50048	34.52
3.51715	34.52
3.53382	34.52
3.55048	34.52
3.56715	34.52
3.58382	34.52
3.60048	34.52
3.61715	34.52
3.63382	34.52
3.65048	34.52
3.66715	34.52
3.68382	34.52
3.70048	34.52
3.71715	34.52
3.73382	34.52
3.75048	34.52
3.76715	34.52
3.78382	34.52
3.80048	34.52
3.81715	34.52
3.83382	34.52
3.85048	34.52
3.86715	34.52
3.88382	34.52
3.90048	34.52
3.91715	34.52
3.93382	34.52
3.95048	34.52
3.96715	34.52
3.98382	34.52

[Status Trace (Column Flow)]
Interval(msec)	1000
# of Points	240
Start Time(min)	0.000
End Time(min)	3.984
Intensity Units	
Intensity Multiplier	1
R.Time (min)	Intensity
0.00048	5.45
0.01715	5.30
0.03382	5.21
0.05048	5.46
0.06715	5.68
0.08382	5.51
0.10048	5.45
0.11715	5.45
0.13382	5.46
0.15048	5.45
0.16715	5.45
0.18382	5.45
0.20048	5.46
0.21715	5.46
0.23382	5.46
0.25048	5.46
0.26715	5.46
0.28382	5.46
0.30048	5.46
0.31715	5.46
0.33382	5.46
0.35048	5.46
0.36715	5.46
0.38382	5.46
0.40048	5.46
0.41715	5.46
0.43382	5.46
0.45048	5.46
0.46715	5.46
0.48382	5.46
0.50048	5.46
0.51715	5.46
0.53382	5.46
0.55048	5.46
0.56715	5.46
0.58382	5.46
0.60048	5.46
0.61715	5.46
0.63382	5.46
0.65048	5.46
0.66715	5.46
0.68382	5.46
0.70048	5.46
0.71715	5.46
0.73382	5.46
0.75048	5.46
0.76715	5.46
0.78382	5.46
0.80048	5.46
0.81715	5.46
0.83382	5.46
0.85048	5.46
0.86715	5.46
0.88382	5.46
0.90048	5.46
0.91715	5.45
0.93382	5.46
0.95048	5.46
0.96715	5.46
0.98382	5.46
1.00048	5.46
1.01715	5.46
1.03382	5.46
1.05048	5.46
1.06715	5.46
1.08382	5.46
1.10048	5.46
1.11715	5.46
1.13382	5.46
1.15048	5.46
1.16715	5.46
1.18382	5.46
1.20048	5.46
1.21715	5.46
1.23382	5.46
1.25048	5.46
1.26715	5.46
1.28382	5.46
1.30048	5.46
1.31715	5.46
1.33382	5.46
1.35048	5.46
1.36715	5.46
1.38382	5.46
1.40048	5.46
1.41715	5.46
1.43382	5.46
1.45048	5.46
1.46715	5.46
1.48382	5.46
1.50048	5.46
1.51715	5.46
1.53382	5.46
1.55048	5.46
1.56715	5.46
1.58382	5.46
1.60048	5.46
1.61715	5.45
1.63382	5.45
1.65048	5.44
1.66715	5.43
1.68382	5.42
1.70048	5.41
1.71715	5.40
1.73382	5.39
1.75048	5.38
1.76715	5.37
1.78382	5.36
1.80048	5.35
1.81715	5.34
1.83382	5.33
1.85048	5.32
1.86715	5.31
1.88382	5.30
1.90048	5.29
1.91715	5.28
1.93382	5.27
1.95048	5.26
1.96715	5.25
1.98382	5.24
2.00048	5.23
2.01715	5.22
2.03382	5.21
2.05048	5.20
2.06715	5.19
2.08382	5.18
2.10048	5.17
2.11715	5.17
2.13382	5.16
2.15048	5.15
2.16715	5.14
2.18382	5.13
2.20048	5.12
2.21715	5.11
2.23382	5.10
2.25048	5.09
2.26715	5.08
2.28382	5.07
2.30048	5.06
2.31715	5.05
2.33382	5.05
2.35048	5.04
2.36715	5.03
2.38382	5.03
2.40048	5.03
2.41715	5.03
2.43382	5.03
2.45048	5.03
2.46715	5.03
2.48382	5.03
2.50048	5.02
2.51715	5.02
2.53382	5.02
2.55048	5.02
2.56715	5.02
2.58382	5.02
2.60048	5.02
2.61715	5.02
2.63382	5.02
2.65048	5.02
2.66715	5.02
2.68382	5.02
2.70048	5.02
2.71715	5.02
2.73382	5.02
2.75048	5.02
2.76715	5.02
2.78382	5.02
2.80048	5.02
2.81715	5.02
2.83382	5.02
2.85048	5.02
2.86715	5.02
2.88382	5.02
2.90048	5.02
2.91715	5.02
2.93382	5.02
2.95048	5.02
2.96715	5.02
2.98382	5.02
3.00048	5.02
3.01715	5.02
3.03382	5.02
3.05048	5.02
3.06715	5.02
3.08382	5.02
3.10048	5.02
3.11715	5.02
3.13382	5.02
3.15048	5.02
3.16715	5.02
3.18382	5.02
3.20048	5.01
3.21715	5.01
3.23382	5.01
3.25048	5.02
3.26715	5.02
3.28382	5.02
3.30048	5.02
3.31715	5.02
3.33382	5.02
3.35048	5.02
3.36715	5.02
3.38382	5.02
3.40048	5.02
3.41715	5.02
3.43382	5.02
3.45048	5.02
3.46715	5.02
3.48382	5.02
3.50048	5.02
3.51715	5.02
3.53382	5.02
3.55048	5.02
3.56715	5.02
3.58382	5.02
3.60048	5.02
3.61715	5.02
3.63382	5.02
3.65048	5.02
3.66715	5.02
3.68382	5.02
3.70048	5.02
3.71715	5.02
3.73382	5.02
3.75048	5.02
3.76715	5.02
3.78382	5.02
3.80048	5.02
3.81715	5.02
3.83382	5.02
3.85048	5.02
3.86715	5.02
3.88382	5.02
3.90048	5.02
3.91715	5.02
3.93382	5.02
3.95048	5.02
3.96715	5.02
3.98382	5.02

[Status Trace (Linear Velocity)]
Interval(msec)	1000
# of Points	240
Start Time(min)	0.000
End Time(min)	3.984
Intensity Units	
Intensity Multiplier	1
R.Time (min)	Intensity
0.00048	39.00
0.01715	38.09
0.03382	37.63
0.05048	39.01
0.06715	40.25
0.08382	39.32
0.10048	38.98
0.11715	39.00
0.13382	39.00
0.15048	39.00
0.16715	39.00
0.18382	39.00
0.20048	39.00
0.21715	39.00
0.23382	39.00
0.25048	39.00
0.26715	39.00
0.28382	39.00
0.30048	39.00
0.31715	39.00
0.33382	39.00
0.35048	39.00
0.36715	39.00
0.38382	39.00
0.40048	39.00
0.41715	39.00
0.43382	39.00
0.45048	39.00
0.46715	39.00
0.48382	39.00
0.50048	39.00
0.51715	39.01
0.53382	39.01
0.55048	39.01
0.56715	39.01
0.58382	39.00
0.60048	39.00
0.61715	39.00
0.63382	39.00
0.65048	39.00
0.66715	39.00
0.68382	39.00
0.70048	39.00
0.71715	39.00
0.73382	39.00
0.75048	39.00
0.76715	39.00
0.78382	39.00
0.80048	39.00
0.81715	39.00
0.83382	39.00
0.85048	39.00
0.86715	39.00
0.88382	39.00
0.90048	39.00
0.91715	39.00
0.93382	39.00
0.95048	39.00
0.96715	39.00
0.98382	39.00
1.00048	39.00
1.01715	39.00
1.03382	39.00
1.05048	39.00
1.06715	39.00
1.08382	39.00
1.10048	39.00
1.11715	39.00
1.13382	39.00
1.15048	39.01
1.16715	39.01
1.18382	39.01
1.20048	39.01
1.21715	39.01
1.23382	39.00
1.25048	39.00
1.26715	39.00
1.28382	39.00
1.30048	39.00
1.31715	39.00
1.33382	39.00
1.35048	39.00
1.36715	39.00
1.38382	39.00
1.40048	39.00
1.41715	39.00
1.43382	39.00
1.45048	39.00
1.46715	39.00
1.48382	39.00
1.50048	39.00
1.51715	39.00
1.53382	39.00
1.55048	39.00
1.56715	39.00
1.58382	39.00
1.60048	39.00
1.61715	38.99
1.63382	38.98
1.65048	38.96
1.66715	38.93
1.68382	38.90
1.70048	38.86
1.71715	38.82
1.73382	38.79
1.75048	38.76
1.76715	38.73
1.78382	38.70
1.80048	38.67
1.81715	38.64
1.83382	38.60
1.85048	38.57
1.86715	38.54
1.88382	38.51
1.90048	38.48
1.91715	38.45
1.93382	38.42
1.95048	38.39
1.96715	38.36
1.98382	38.33
2.00048	38.30
2.01715	38.27
2.03382	38.24
2.05048	38.21
2.06715	38.18
2.08382	38.15
2.10048	38.12
2.11715	38.09
2.13382	38.06
2.15048	38.03
2.16715	38.00
2.18382	37.97
2.20048	37.94
2.21715	37.92
2.23382	37.89
2.25048	37.85
2.26715	37.82
2.28382	37.80
2.30048	37.77
2.31715	37.74
2.33382	37.71
2.35048	37.68
2.36715	37.66
2.38382	37.64
2.40048	37.64
2.41715	37.64
2.43382	37.64
2.45048	37.64
2.46715	37.64
2.48382	37.64
2.50048	37.64
2.51715	37.63
2.53382	37.63
2.55048	37.64
2.56715	37.64
2.58382	37.64
2.60048	37.63
2.61715	37.63
2.63382	37.63
2.65048	37.63
2.66715	37.63
2.68382	37.63
2.70048	37.63
2.71715	37.63
2.73382	37.63
2.75048	37.63
2.76715	37.63
2.78382	37.63
2.80048	37.63
2.81715	37.63
2.83382	37.63
2.85048	37.63
2.86715	37.62
2.88382	37.62
2.90048	37.62
2.91715	37.62
2.93382	37.62
2.95048	37.62
2.96715	37.62
2.98382	37.62
3.00048	37.62
3.01715	37.62
3.03382	37.62
3.05048	37.62
3.06715	37.61
3.08382	37.61
3.10048	37.61
3.11715	37.61
3.13382	37.61
3.15048	37.61
3.16715	37.61
3.18382	37.61
3.20048	37.61
3.21715	37.61
3.23382	37.61
3.25048	37.61
3.26715	37.61
3.28382	37.61
3.30048	37.61
3.31715	37.61
3.33382	37.61
3.35048	37.61
3.36715	37.61
3.38382	37.61
3.40048	37.61
3.41715	37.61
3.43382	37.61
3.45048	37.61
3.46715	37.61
3.48382	37.61
3.50048	37.61
3.51715	37.61
3.53382	37.61
3.55048	37.61
3.56715	37.61
3.58382	37.61
3.60048	37.61
3.61715	37.61
3.63382	37.61
3.65048	37.61
3.66715	37.61
3.68382	37.61
3.70048	37.61
3.71715	37.61
3.73382	37.61
3.75048	37.61
3.76715	37.61
3.78382	37.61
3.80048	37.61
3.81715	37.61
3.83382	37.61
3.85048	37.61
3.86715	37.61
3.88382	37.61
3.90048	37.61
3.91715	37.61
3.93382	37.61
3.95048	37.61
3.96715	37.61
3.98382	37.61

