[Header]
Application Name	LabSolutions
Version	5.110
Data File Name	C:\Users\User\Desktop\GC Analyses\Jack\UIC Prairie Sampling\8.12.22\220812_102.gcd
Output Date	10/14/2022
Output Time	2:33:56 PM

[File Information]
Type	Data File
Generated	10/14/2022 12:43:04 PM
Generated by	System Administrator
Modified	10/14/2022 12:47:35 PM
Modified by	System Administrator

[Sample Information]
Operator Name	System Administrator
Acquired	10/14/2022 12:43:34 PM
Sample Type	1:Standard
Level	1
Sample Name	220812_UICPrairie
Sample ID	220812_UICPrairie
ISTD Amount1	1
ISTD Amount2	1
ISTD Amount3	1
ISTD Amount4	1
ISTD Amount5	1
ISTD Amount6	1
ISTD Amount7	1
ISTD Amount8	1
ISTD Amount9	1
ISTD Amount10	1
ISTD Amount11	1
ISTD Amount12	1
ISTD Amount13	1
ISTD Amount14	1
ISTD Amount15	1
ISTD Amount16	1
ISTD Amount17	1
ISTD Amount18	1
ISTD Amount19	1
ISTD Amount20	1
ISTD Amount21	1
ISTD Amount22	1
ISTD Amount23	1
ISTD Amount24	1
ISTD Amount25	1
ISTD Amount26	1
ISTD Amount27	1
ISTD Amount28	1
ISTD Amount29	1
ISTD Amount30	1
ISTD Amount31	1
ISTD Amount32	1
Sample Amount	1
Dilution Factor	1
Vial#	1
Injection Volume	1
Injection Count	1
Bar Code	

[Original Files]
Data File	C:\Users\User\Desktop\GC Analyses\Jack\UIC Prairie Sampling\8.12.22\220812_102.gcd
Method File	C:\LabSolutions\Data\GHG_4min_2022\ghg3_togas_w_acet_4 min_new_int.gcm
Batch File	
Report Format File	c:\LabSolutions\System\DEFAULT.lsr

[File Description]


[Configuration]
Instrument Name	C0B7VH3-Instrument1
Instrument #	1
Line #	1
# of Detectors	3
Detector ID	DET#1	DET#2	DET#3
Detector Name	FID	PTCD	ECD
# of Channels	1	1	1

[Peak Table(Ch1)]
# of Peaks	3
Peak#	R.Time	I.Time	F.Time	Area	Height	A/H	Conc.	Mark	ID#	Name	k'	Plate #	Plate Ht.	Tailing	Resolution	Sep.Factor	Area Ratio	Height Ratio	Conc. %	Norm Conc.
1	1.472	1.439	1.538	4552	1596	2.851	100.000	   	1	CO	0.000	5842	25.675	1.537	0.000	0.000	0	0	16.667	16.667
2	1.571	1.538	1.652	20593	10401	1.980	100.000	 V 	2	CH4	0.067	11618	12.911	1.287	1.463	0.000	0	0	16.667	16.667
3	2.004	1.956	2.334	2112843	1025660	2.060	400.000	   	3	CO2	0.361	17923	8.369	1.163	7.323	5.370	0	0	66.667	66.667

[Peak Table(Ch2)]
# of Peaks	0

[Peak Table(Ch3)]
# of Peaks	2
Peak#	R.Time	I.Time	F.Time	Area	Height	A/H	Conc.	Mark	ID#	Name	k'	Plate #	Plate Ht.	Tailing	Resolution	Sep.Factor	Area Ratio	Height Ratio	Conc. %	Norm Conc.
1	2.598	2.392	2.660	3714	471	7.878	0.000	   			0.000	2687	55.814	0.000	0.000	0.000	0	0	0.000	0.000
2	2.891	2.660	3.940	76923	16611	4.631	1.000	 V 	1	N2O	0.113	12257	12.237	1.578	1.924	0.000	0	0	100.000	100.000

[Compound Results(Ch1)]
# of IDs	6
ID#	Name	R.Time	Area	Height	Conc.	Curve	3rd	2nd	1st	Constant	Area Ratio	Height Ratio	Conc. %	Norm Conc.
1	CO	1.472	4552	1596	100.000	Linear	0.000000e+00	0.000000e+00	4.551805e+001	0.000000e+00	0	0	16.667	16.667
2	CH4	1.571	20593	10401	100.000	Linear	0.000000e+00	0.000000e+00	2.059263e+002	0.000000e+00	0	0	16.667	16.667
3	CO2	2.004	2112843	1025660	400.000	Linear	0.000000e+00	0.000000e+00	5.282109e+003	0.000000e+00	0	0	66.667	66.667
4	Ethylene	0.000	0	0	0.000	Linear	0.000000e+00	0.000000e+00	0.000000e+00	0.000000e+00	0	0	0.000	0.000
5	Acetylene	0.000	0	0	0.000	Linear	0.000000e+00	0.000000e+00	0.000000e+00	0.000000e+00	0	0	0.000	0.000
6	Ethane	0.000	0	0	0.000	Linear	0.000000e+00	0.000000e+00	0.000000e+00	0.000000e+00	0	0	0.000	0.000

[Compound Results(Ch2)]
# of IDs	5
ID#	Name	R.Time	Area	Height	Conc.	Curve	3rd	2nd	1st	Constant	Area Ratio	Height Ratio	Conc. %	Norm Conc.
1	Hydrogen	0.000	0	0	0.000	Linear	0.000000e+00	0.000000e+00	0.000000e+00	0.000000e+00	0	0	0.000	0.000
2	Oxygen	0.000	0	0	0.000	Linear	0.000000e+00	0.000000e+00	0.000000e+00	0.000000e+00	0	0	0.000	0.000
3	Nitrogen	0.000	0	0	0.000	Linear	0.000000e+00	0.000000e+00	0.000000e+00	0.000000e+00	0	0	0.000	0.000
4	Methane	0.000	0	0	0.000	Linear	0.000000e+00	0.000000e+00	0.000000e+00	0.000000e+00	0	0	0.000	0.000
5	Carbon Monoxide	0.000	0	0	0.000	Linear	0.000000e+00	0.000000e+00	0.000000e+00	0.000000e+00	0	0	0.000	0.000

[Compound Results(Ch3)]
# of IDs	2
ID#	Name	R.Time	Area	Height	Conc.	Curve	3rd	2nd	1st	Constant	Area Ratio	Height Ratio	Conc. %	Norm Conc.
1	N2O	2.891	76923	16611	1.000	Linear	0.000000e+00	0.000000e+00	7.692253e+004	0.000000e+00	0	0	100.000	100.000
2	SF6	0.000	0	0	0.000	Linear	0.000000e+00	0.000000e+00	0.000000e+00	0.000000e+00	0	0	0.000	0.000

[Group Results(Ch1)]
# of Groups	0

[Group Results(Ch2)]
# of Groups	0

[Group Results(Ch3)]
# of Groups	0

[Chromatogram (Ch1)]
Interval(msec)	220
# of Points	1091
Start Time(min)	0.002
End Time(min)	3.998
R.Time (min)	Intensity
0.00167	2
0.00533	7
0.00900	15
0.01267	22
0.01633	26
0.02000	29
0.02367	31
0.02733	31
0.03100	29
0.03467	24
0.03833	18
0.04200	13
0.04567	9
0.04933	7
0.05300	4
0.05667	1
0.06033	-2
0.06400	-2
0.06767	-4
0.07133	-5
0.07500	-3
0.07867	3
0.08233	9
0.08600	11
0.08967	11
0.09333	8
0.09700	5
0.10067	6
0.10433	9
0.10800	13
0.11167	12
0.11533	7
0.11900	2
0.12267	1
0.12633	4
0.13000	5
0.13367	5
0.13733	8
0.14100	12
0.14467	19
0.14833	25
0.15200	28
0.15567	27
0.15933	25
0.16300	22
0.16667	21
0.17033	21
0.17400	22
0.17767	19
0.18133	15
0.18500	16
0.18867	18
0.19233	13
0.19600	3
0.19967	-6
0.20333	-10
0.20700	-6
0.21067	-2
0.21433	-0
0.21800	2
0.22167	6
0.22533	6
0.22900	2
0.23267	-2
0.23633	-4
0.24000	-7
0.24367	-10
0.24733	-13
0.25100	-16
0.25467	-15
0.25833	-13
0.26200	-9
0.26567	-4
0.26933	-0
0.27300	-1
0.27667	-1
0.28033	1
0.28400	5
0.28767	9
0.29133	13
0.29500	16
0.29867	20
0.30233	22
0.30600	22
0.30967	20
0.31333	19
0.31700	19
0.32067	16
0.32433	11
0.32800	8
0.33167	5
0.33533	2
0.33900	-1
0.34267	-5
0.34633	-11
0.35000	-15
0.35367	-14
0.35733	-10
0.36100	-5
0.36467	-1
0.36833	1
0.37200	3
0.37567	6
0.37933	11
0.38300	16
0.38667	15
0.39033	8
0.39400	3
0.39767	-1
0.40133	-2
0.40500	-4
0.40867	-7
0.41233	-7
0.41600	-2
0.41967	3
0.42333	5
0.42700	5
0.43067	3
0.43433	2
0.43800	-2
0.44167	-9
0.44533	-16
0.44900	-20
0.45267	-22
0.45633	-21
0.46000	-21
0.46367	-16
0.46733	-12
0.47100	-12
0.47467	-13
0.47833	-12
0.48200	-11
0.48567	-7
0.48933	-5
0.49300	-2
0.49667	2
0.50033	5
0.50400	6
0.50767	6
0.51133	6
0.51500	5
0.51867	2
0.52233	-4
0.52600	-12
0.52967	-17
0.53333	-19
0.53700	-19
0.54067	-21
0.54433	-24
0.54800	-24
0.55167	-16
0.55533	-5
0.55900	1
0.56267	1
0.56633	-2
0.57000	-2
0.57367	-3
0.57733	-7
0.58100	-12
0.58467	-17
0.58833	-20
0.59200	-20
0.59567	-19
0.59933	-18
0.60300	-19
0.60667	-22
0.61033	-24
0.61400	-28
0.61767	-32
0.62133	-34
0.62500	-33
0.62867	-27
0.63233	-16
0.63600	-9
0.63967	-5
0.64333	-7
0.64700	-13
0.65067	-19
0.65433	-23
0.65800	-28
0.66167	-31
0.66533	-29
0.66900	-25
0.67267	-21
0.67633	-20
0.68000	-19
0.68367	-17
0.68733	-15
0.69100	-15
0.69467	-14
0.69833	-11
0.70200	-7
0.70567	-4
0.70933	2
0.71300	6
0.71667	5
0.72033	-3
0.72400	-13
0.72767	-21
0.73133	-24
0.73500	-23
0.73867	-17
0.74233	-12
0.74600	-8
0.74967	-5
0.75333	-2
0.75700	-1
0.76067	-2
0.76433	-3
0.76800	-6
0.77167	-10
0.77533	-17
0.77900	-24
0.78267	-27
0.78633	-28
0.79000	-31
0.79367	-34
0.79733	-34
0.80100	-26
0.80467	-18
0.80833	-12
0.81200	-7
0.81567	-6
0.81933	-6
0.82300	-4
0.82667	-4
0.83033	-8
0.83400	-13
0.83767	-15
0.84133	-15
0.84500	-16
0.84867	-16
0.85233	-14
0.85600	-15
0.85967	-15
0.86333	-14
0.86700	-10
0.87067	-8
0.87433	-7
0.87800	-11
0.88167	-17
0.88533	-23
0.88900	-28
0.89267	-29
0.89633	-27
0.90000	-24
0.90367	-21
0.90733	-19
0.91100	-21
0.91467	-24
0.91833	-26
0.92200	-25
0.92567	-23
0.92933	-22
0.93300	-15
0.93667	-4
0.94033	4
0.94400	3
0.94767	-4
0.95133	-13
0.95500	-22
0.95867	-31
0.96233	-39
0.96600	-38
0.96967	-32
0.97333	-22
0.97700	-15
0.98067	-16
0.98433	-25
0.98800	-37
0.99167	-45
0.99533	-50
0.99900	-53
1.00267	-57
1.00633	-62
1.01000	-67
1.01367	-68
1.01733	-64
1.02100	-56
1.02467	-46
1.02833	-35
1.03200	-28
1.03567	-27
1.03933	-29
1.04300	-33
1.04667	-33
1.05033	-30
1.05400	-23
1.05767	-12
1.06133	-3
1.06500	-2
1.06867	-6
1.07233	-11
1.07600	-16
1.07967	-22
1.08333	-29
1.08700	-34
1.09067	-36
1.09433	-38
1.09800	-36
1.10167	-28
1.10533	-18
1.10900	-12
1.11267	-10
1.11633	-11
1.12000	-13
1.12367	-16
1.12733	-20
1.13100	-26
1.13467	-29
1.13833	-29
1.14200	-30
1.14567	-30
1.14933	-30
1.15300	-32
1.15667	-35
1.16033	-35
1.16400	-33
1.16767	-31
1.17133	-29
1.17500	-26
1.17867	-22
1.18233	-20
1.18600	-18
1.18967	-18
1.19333	-20
1.19700	-20
1.20067	-19
1.20433	-20
1.20800	-18
1.21167	-15
1.21533	-14
1.21900	-14
1.22267	-13
1.22633	-14
1.23000	-18
1.23367	-24
1.23733	-24
1.24100	-18
1.24467	-11
1.24833	-5
1.25200	-1
1.25567	-0
1.25933	-4
1.26300	-11
1.26667	-18
1.27033	-22
1.27400	-23
1.27767	-25
1.28133	-29
1.28500	-31
1.28867	-32
1.29233	-30
1.29600	-26
1.29967	-25
1.30333	-25
1.30700	-25
1.31067	-22
1.31433	-18
1.31800	-14
1.32167	-10
1.32533	-6
1.32900	-0
1.33267	4
1.33633	4
1.34000	-0
1.34367	-8
1.34733	-19
1.35100	-27
1.35467	-32
1.35833	-33
1.36200	-31
1.36567	-25
1.36933	-18
1.37300	-14
1.37667	-15
1.38033	-21
1.38400	-25
1.38767	-28
1.39133	-33
1.39500	-40
1.39867	-47
1.40233	-50
1.40600	-50
1.40967	-46
1.41333	-41
1.41700	-39
1.42067	-39
1.42433	-38
1.42800	-38
1.43167	-39
1.43533	-37
1.43900	-27
1.44267	12
1.44633	147
1.45000	432
1.45367	793
1.45733	1118
1.46100	1353
1.46467	1492
1.46833	1556
1.47200	1568
1.47567	1543
1.47933	1486
1.48300	1402
1.48667	1291
1.49033	1152
1.49400	993
1.49767	828
1.50133	675
1.50500	545
1.50867	436
1.51233	342
1.51600	264
1.51967	199
1.52333	143
1.52700	92
1.53067	48
1.53433	19
1.53800	12
1.54167	65
1.54533	330
1.54900	1097
1.55267	2560
1.55633	4535
1.56000	6584
1.56367	8352
1.56733	9654
1.57100	10370
1.57467	10364
1.57833	9564
1.58200	8132
1.58567	6418
1.58933	4765
1.59300	3376
1.59667	2308
1.60033	1537
1.60400	1004
1.60767	647
1.61133	414
1.61500	261
1.61867	160
1.62233	95
1.62600	54
1.62967	30
1.63333	14
1.63700	1
1.64067	-12
1.64433	-23
1.64800	-30
1.65167	-34
1.65533	-32
1.65900	-29
1.66267	-27
1.66633	-28
1.67000	-34
1.67367	-43
1.67733	-48
1.68100	-49
1.68467	-48
1.68833	-48
1.69200	-45
1.69567	-39
1.69933	-35
1.70300	-32
1.70667	-30
1.71033	-29
1.71400	-27
1.71767	-27
1.72133	-29
1.72500	-34
1.72867	-39
1.73233	-43
1.73600	-46
1.73967	-48
1.74333	-50
1.74700	-49
1.75067	-46
1.75433	-41
1.75800	-37
1.76167	-34
1.76533	-31
1.76900	-28
1.77267	-25
1.77633	-23
1.78000	-29
1.78367	-40
1.78733	-50
1.79100	-59
1.79467	-61
1.79833	-53
1.80200	-40
1.80567	-32
1.80933	-30
1.81300	-29
1.81667	-26
1.82033	-24
1.82400	-27
1.82767	-33
1.83133	-38
1.83500	-41
1.83867	-42
1.84233	-41
1.84600	-41
1.84967	-41
1.85333	-44
1.85700	-49
1.86067	-53
1.86433	-54
1.86800	-54
1.87167	-49
1.87533	-45
1.87900	-42
1.88267	-44
1.88633	-48
1.89000	-50
1.89367	-47
1.89733	-43
1.90100	-39
1.90467	-36
1.90833	-34
1.91200	-31
1.91567	-30
1.91933	-30
1.92300	-33
1.92667	-35
1.93033	-35
1.93400	-35
1.93767	-38
1.94133	-44
1.94500	-47
1.94867	-47
1.95233	-46
1.95600	-33
1.95967	55
1.96333	588
1.96700	3306
1.97067	13907
1.97433	45427
1.97800	117375
1.98167	244409
1.98533	421384
1.98900	620862
1.99267	806905
1.99633	948089
2.00000	1023952
2.00367	1025662
2.00733	956878
2.01100	834025
2.01467	682274
2.01833	527656
2.02200	389527
2.02567	277447
2.02933	192705
2.03300	131799
2.03667	89542
2.04033	60906
2.04400	41776
2.04767	29078
2.05133	20648
2.05500	15022
2.05867	11231
2.06233	8641
2.06600	6835
2.06967	5547
2.07333	4608
2.07700	3904
2.08067	3363
2.08433	2941
2.08800	2609
2.09167	2340
2.09533	2117
2.09900	1928
2.10267	1767
2.10633	1633
2.11000	1519
2.11367	1420
2.11733	1332
2.12100	1254
2.12467	1182
2.12833	1114
2.13200	1052
2.13567	995
2.13933	944
2.14300	897
2.14667	856
2.15033	818
2.15400	783
2.15767	752
2.16133	722
2.16500	692
2.16867	665
2.17233	637
2.17600	608
2.17967	582
2.18333	560
2.18700	542
2.19067	526
2.19433	514
2.19800	505
2.20167	496
2.20533	485
2.20900	470
2.21267	455
2.21633	444
2.22000	434
2.22367	422
2.22733	407
2.23100	394
2.23467	384
2.23833	374
2.24200	365
2.24567	357
2.24933	352
2.25300	350
2.25667	348
2.26033	344
2.26400	340
2.26767	334
2.27133	327
2.27500	318
2.27867	310
2.28233	306
2.28600	303
2.28967	302
2.29333	303
2.29700	302
2.30067	298
2.30433	287
2.30800	274
2.31167	262
2.31533	253
2.31900	248
2.32267	246
2.32633	244
2.33000	243
2.33367	243
2.33733	240
2.34100	234
2.34467	230
2.34833	230
2.35200	235
2.35567	240
2.35933	238
2.36300	229
2.36667	213
2.37033	194
2.37400	176
2.37767	160
2.38133	147
2.38500	140
2.38867	139
2.39233	140
2.39600	139
2.39967	137
2.40333	138
2.40700	141
2.41067	147
2.41433	151
2.41800	153
2.42167	157
2.42533	159
2.42900	159
2.43267	162
2.43633	166
2.44000	167
2.44367	168
2.44733	168
2.45100	171
2.45467	175
2.45833	180
2.46200	182
2.46567	177
2.46933	170
2.47300	165
2.47667	161
2.48033	160
2.48400	162
2.48767	164
2.49133	165
2.49500	162
2.49867	156
2.50233	150
2.50600	146
2.50967	142
2.51333	141
2.51700	142
2.52067	145
2.52433	148
2.52800	150
2.53167	150
2.53533	148
2.53900	145
2.54267	144
2.54633	142
2.55000	139
2.55367	138
2.55733	139
2.56100	139
2.56467	137
2.56833	135
2.57200	131
2.57567	128
2.57933	127
2.58300	133
2.58667	140
2.59033	143
2.59400	140
2.59767	135
2.60133	134
2.60500	136
2.60867	136
2.61233	133
2.61600	125
2.61967	113
2.62333	103
2.62700	97
2.63067	96
2.63433	101
2.63800	109
2.64167	114
2.64533	113
2.64900	111
2.65267	108
2.65633	105
2.66000	102
2.66367	102
2.66733	107
2.67100	115
2.67467	123
2.67833	128
2.68200	127
2.68567	121
2.68933	117
2.69300	117
2.69667	115
2.70033	109
2.70400	102
2.70767	97
2.71133	93
2.71500	94
2.71867	99
2.72233	104
2.72600	108
2.72967	110
2.73333	111
2.73700	107
2.74067	102
2.74433	97
2.74800	92
2.75167	87
2.75533	85
2.75900	89
2.76267	97
2.76633	103
2.77000	106
2.77367	105
2.77733	103
2.78100	101
2.78467	96
2.78833	92
2.79200	91
2.79567	94
2.79933	98
2.80300	101
2.80667	105
2.81033	109
2.81400	108
2.81767	102
2.82133	97
2.82500	95
2.82867	93
2.83233	88
2.83600	84
2.83967	82
2.84333	84
2.84700	87
2.85067	89
2.85433	88
2.85800	85
2.86167	81
2.86533	80
2.86900	76
2.87267	70
2.87633	67
2.88000	69
2.88367	76
2.88733	84
2.89100	92
2.89467	97
2.89833	99
2.90200	102
2.90567	105
2.90933	108
2.91300	110
2.91667	112
2.92033	112
2.92400	111
2.92767	110
2.93133	109
2.93500	106
2.93867	101
2.94233	96
2.94600	91
2.94967	86
2.95333	82
2.95700	81
2.96067	82
2.96433	83
2.96800	82
2.97167	82
2.97533	82
2.97900	82
2.98267	80
2.98633	77
2.99000	75
2.99367	74
2.99733	77
3.00100	80
3.00467	80
3.00833	80
3.01200	84
3.01567	93
3.01933	99
3.02300	100
3.02667	98
3.03033	92
3.03400	89
3.03767	92
3.04133	98
3.04500	101
3.04867	98
3.05233	91
3.05600	84
3.05967	78
3.06333	76
3.06700	75
3.07067	75
3.07433	78
3.07800	84
3.08167	92
3.08533	94
3.08900	92
3.09267	89
3.09633	87
3.10000	88
3.10367	89
3.10733	90
3.11100	90
3.11467	90
3.11833	89
3.12200	89
3.12567	86
3.12933	83
3.13300	82
3.13667	82
3.14033	84
3.14400	89
3.14767	93
3.15133	96
3.15500	96
3.15867	93
3.16233	89
3.16600	85
3.16967	82
3.17333	82
3.17700	87
3.18067	96
3.18433	102
3.18800	104
3.19167	105
3.19533	105
3.19900	106
3.20267	105
3.20633	99
3.21000	94
3.21367	91
3.21733	89
3.22100	89
3.22467	93
3.22833	100
3.23200	109
3.23567	119
3.23933	126
3.24300	128
3.24667	127
3.25033	123
3.25400	113
3.25767	106
3.26133	102
3.26500	100
3.26867	103
3.27233	105
3.27600	105
3.27967	102
3.28333	98
3.28700	92
3.29067	89
3.29433	89
3.29800	90
3.30167	92
3.30533	91
3.30900	93
3.31267	95
3.31633	94
3.32000	91
3.32367	88
3.32733	89
3.33100	91
3.33467	89
3.33833	89
3.34200	91
3.34567	92
3.34933	92
3.35300	91
3.35667	89
3.36033	87
3.36400	82
3.36767	73
3.37133	64
3.37500	63
3.37867	68
3.38233	76
3.38600	83
3.38967	86
3.39333	86
3.39700	84
3.40067	82
3.40433	83
3.40800	89
3.41167	95
3.41533	96
3.41900	91
3.42267	79
3.42633	68
3.43000	61
3.43367	58
3.43733	56
3.44100	57
3.44467	61
3.44833	64
3.45200	66
3.45567	70
3.45933	72
3.46300	72
3.46667	69
3.47033	63
3.47400	54
3.47767	48
3.48133	48
3.48500	50
3.48867	52
3.49233	54
3.49600	56
3.49967	60
3.50333	66
3.50700	73
3.51067	76
3.51433	76
3.51800	75
3.52167	75
3.52533	75
3.52900	72
3.53267	70
3.53633	67
3.54000	68
3.54367	73
3.54733	79
3.55100	81
3.55467	78
3.55833	72
3.56200	68
3.56567	70
3.56933	73
3.57300	75
3.57667	72
3.58033	67
3.58400	63
3.58767	62
3.59133	60
3.59500	57
3.59867	54
3.60233	51
3.60600	52
3.60967	56
3.61333	63
3.61700	71
3.62067	79
3.62433	85
3.62800	87
3.63167	85
3.63533	82
3.63900	79
3.64267	76
3.64633	73
3.65000	72
3.65367	70
3.65733	65
3.66100	62
3.66467	63
3.66833	69
3.67200	77
3.67567	80
3.67933	78
3.68300	73
3.68667	66
3.69033	59
3.69400	54
3.69767	52
3.70133	52
3.70500	52
3.70867	52
3.71233	53
3.71600	52
3.71967	52
3.72333	53
3.72700	57
3.73067	65
3.73433	73
3.73800	80
3.74167	85
3.74533	86
3.74900	84
3.75267	79
3.75633	74
3.76000	72
3.76367	74
3.76733	77
3.77100	79
3.77467	81
3.77833	84
3.78200	86
3.78567	86
3.78933	83
3.79300	76
3.79667	68
3.80033	62
3.80400	59
3.80767	56
3.81133	54
3.81500	53
3.81867	55
3.82233	59
3.82600	63
3.82967	66
3.83333	70
3.83700	74
3.84067	75
3.84433	77
3.84800	76
3.85167	73
3.85533	68
3.85900	61
3.86267	54
3.86633	50
3.87000	53
3.87367	56
3.87733	56
3.88100	59
3.88467	63
3.88833	63
3.89200	63
3.89567	61
3.89933	62
3.90300	66
3.90667	67
3.91033	66
3.91400	64
3.91767	64
3.92133	65
3.92500	67
3.92867	69
3.93233	74
3.93600	79
3.93967	80
3.94333	76
3.94700	72
3.95067	69
3.95433	65
3.95800	57
3.96167	49
3.96533	46
3.96900	48
3.97267	49
3.97633	51
3.98000	51
3.98367	52
3.98733	53
3.99100	52
3.99467	53
3.99833	52

[Chromatogram (Ch2)]
Interval(msec)	220
# of Points	1091
Start Time(min)	0.002
End Time(min)	3.998
R.Time (min)	Intensity
0.00167	1
0.00533	1
0.00900	0
0.01267	0
0.01633	0
0.02000	0
0.02367	1
0.02733	1
0.03100	1
0.03467	1
0.03833	1
0.04200	2
0.04567	2
0.04933	1
0.05300	1
0.05667	1
0.06033	1
0.06400	1
0.06767	0
0.07133	0
0.07500	-0
0.07867	-0
0.08233	-1
0.08600	-1
0.08967	-0
0.09333	-0
0.09700	-0
0.10067	-0
0.10433	0
0.10800	0
0.11167	0
0.11533	1
0.11900	1
0.12267	1
0.12633	1
0.13000	1
0.13367	1
0.13733	1
0.14100	1
0.14467	1
0.14833	1
0.15200	1
0.15567	1
0.15933	1
0.16300	1
0.16667	1
0.17033	1
0.17400	0
0.17767	0
0.18133	-0
0.18500	-0
0.18867	-1
0.19233	-1
0.19600	-1
0.19967	-1
0.20333	-1
0.20700	-1
0.21067	-2
0.21433	-2
0.21800	-2
0.22167	-2
0.22533	-1
0.22900	-1
0.23267	-1
0.23633	-0
0.24000	0
0.24367	1
0.24733	1
0.25100	2
0.25467	2
0.25833	3
0.26200	3
0.26567	4
0.26933	4
0.27300	4
0.27667	4
0.28033	4
0.28400	4
0.28767	4
0.29133	4
0.29500	4
0.29867	4
0.30233	4
0.30600	4
0.30967	3
0.31333	3
0.31700	3
0.32067	3
0.32433	2
0.32800	2
0.33167	3
0.33533	3
0.33900	3
0.34267	3
0.34633	3
0.35000	3
0.35367	2
0.35733	2
0.36100	2
0.36467	2
0.36833	2
0.37200	2
0.37567	2
0.37933	2
0.38300	2
0.38667	2
0.39033	2
0.39400	2
0.39767	2
0.40133	2
0.40500	1
0.40867	1
0.41233	1
0.41600	1
0.41967	1
0.42333	1
0.42700	1
0.43067	1
0.43433	1
0.43800	1
0.44167	0
0.44533	-0
0.44900	-0
0.45267	-0
0.45633	-0
0.46000	-0
0.46367	-0
0.46733	-0
0.47100	-0
0.47467	-0
0.47833	-0
0.48200	-0
0.48567	-0
0.48933	-0
0.49300	-1
0.49667	-1
0.50033	-1
0.50400	-1
0.50767	-1
0.51133	-1
0.51500	-1
0.51867	-2
0.52233	-2
0.52600	-2
0.52967	-2
0.53333	-2
0.53700	-3
0.54067	-3
0.54433	-3
0.54800	-4
0.55167	-4
0.55533	-5
0.55900	-5
0.56267	-6
0.56633	-6
0.57000	-6
0.57367	-7
0.57733	-7
0.58100	-7
0.58467	-7
0.58833	-7
0.59200	-7
0.59567	-7
0.59933	-6
0.60300	-6
0.60667	-5
0.61033	-5
0.61400	-4
0.61767	-3
0.62133	-3
0.62500	-2
0.62867	-2
0.63233	-2
0.63600	-1
0.63967	-1
0.64333	-1
0.64700	-1
0.65067	-1
0.65433	-0
0.65800	-0
0.66167	0
0.66533	0
0.66900	0
0.67267	0
0.67633	1
0.68000	1
0.68367	1
0.68733	1
0.69100	1
0.69467	0
0.69833	0
0.70200	0
0.70567	0
0.70933	1
0.71300	1
0.71667	1
0.72033	1
0.72400	2
0.72767	2
0.73133	2
0.73500	2
0.73867	2
0.74233	2
0.74600	2
0.74967	1
0.75333	1
0.75700	1
0.76067	1
0.76433	0
0.76800	0
0.77167	-0
0.77533	-0
0.77900	-0
0.78267	-1
0.78633	-1
0.79000	-1
0.79367	-1
0.79733	-1
0.80100	-1
0.80467	-1
0.80833	-1
0.81200	-1
0.81567	-1
0.81933	-1
0.82300	-1
0.82667	-1
0.83033	-1
0.83400	-1
0.83767	-1
0.84133	-1
0.84500	-1
0.84867	-1
0.85233	-1
0.85600	-1
0.85967	-1
0.86333	-0
0.86700	-0
0.87067	-1
0.87433	-1
0.87800	-1
0.88167	-1
0.88533	-1
0.88900	-1
0.89267	-1
0.89633	-1
0.90000	-1
0.90367	-1
0.90733	-2
0.91100	-1
0.91467	-1
0.91833	-1
0.92200	-2
0.92567	-2
0.92933	-2
0.93300	-2
0.93667	-2
0.94033	-2
0.94400	-2
0.94767	-2
0.95133	-2
0.95500	-2
0.95867	-2
0.96233	-2
0.96600	-2
0.96967	-2
0.97333	-2
0.97700	-2
0.98067	-2
0.98433	-2
0.98800	-2
0.99167	-2
0.99533	-1
0.99900	-1
1.00267	-0
1.00633	-0
1.01000	0
1.01367	0
1.01733	0
1.02100	0
1.02467	0
1.02833	0
1.03200	1
1.03567	1
1.03933	0
1.04300	0
1.04667	0
1.05033	0
1.05400	0
1.05767	0
1.06133	0
1.06500	-0
1.06867	-0
1.07233	-0
1.07600	-0
1.07967	-1
1.08333	-1
1.08700	-1
1.09067	-1
1.09433	-2
1.09800	-2
1.10167	-2
1.10533	-2
1.10900	-2
1.11267	-2
1.11633	-2
1.12000	-1
1.12367	-1
1.12733	-1
1.13100	-1
1.13467	-1
1.13833	-1
1.14200	-1
1.14567	-1
1.14933	-1
1.15300	-1
1.15667	-1
1.16033	-2
1.16400	-2
1.16767	-2
1.17133	-1
1.17500	-1
1.17867	-1
1.18233	-1
1.18600	-1
1.18967	-1
1.19333	-1
1.19700	-1
1.20067	-1
1.20433	-2
1.20800	-2
1.21167	-2
1.21533	-2
1.21900	-3
1.22267	-3
1.22633	-3
1.23000	-4
1.23367	-4
1.23733	-4
1.24100	-3
1.24467	-3
1.24833	-3
1.25200	-3
1.25567	-3
1.25933	-3
1.26300	-3
1.26667	-3
1.27033	-3
1.27400	-3
1.27767	-3
1.28133	-3
1.28500	-3
1.28867	-2
1.29233	-2
1.29600	-2
1.29967	-1
1.30333	-1
1.30700	-1
1.31067	-1
1.31433	-0
1.31800	-0
1.32167	-0
1.32533	0
1.32900	0
1.33267	0
1.33633	1
1.34000	1
1.34367	1
1.34733	1
1.35100	0
1.35467	0
1.35833	0
1.36200	0
1.36567	0
1.36933	0
1.37300	-0
1.37667	-0
1.38033	0
1.38400	0
1.38767	-0
1.39133	-0
1.39500	-0
1.39867	-0
1.40233	-1
1.40600	-1
1.40967	-1
1.41333	-1
1.41700	-1
1.42067	-1
1.42433	-1
1.42800	-1
1.43167	-1
1.43533	-1
1.43900	-1
1.44267	-1
1.44633	-1
1.45000	-1
1.45367	-1
1.45733	-1
1.46100	-2
1.46467	-2
1.46833	-2
1.47200	-2
1.47567	-3
1.47933	-3
1.48300	-3
1.48667	-3
1.49033	-3
1.49400	-3
1.49767	-3
1.50133	-4
1.50500	-4
1.50867	-4
1.51233	-5
1.51600	-5
1.51967	-6
1.52333	-6
1.52700	-6
1.53067	-6
1.53433	-7
1.53800	-7
1.54167	-7
1.54533	-7
1.54900	-7
1.55267	-7
1.55633	-6
1.56000	-6
1.56367	-6
1.56733	-5
1.57100	-5
1.57467	-4
1.57833	-4
1.58200	-3
1.58567	-2
1.58933	-2
1.59300	-2
1.59667	-2
1.60033	-2
1.60400	-3
1.60767	-4
1.61133	-6
1.61500	-7
1.61867	-10
1.62233	-12
1.62600	-14
1.62967	-17
1.63333	-20
1.63700	-23
1.64067	-26
1.64433	-29
1.64800	-33
1.65167	-36
1.65533	-40
1.65900	-44
1.66267	-48
1.66633	-53
1.67000	-58
1.67367	-63
1.67733	-69
1.68100	-74
1.68467	-80
1.68833	-84
1.69200	-88
1.69567	-92
1.69933	-95
1.70300	-98
1.70667	-100
1.71033	-102
1.71400	-104
1.71767	-105
1.72133	-106
1.72500	-107
1.72867	-108
1.73233	-108
1.73600	-108
1.73967	-109
1.74333	-109
1.74700	-110
1.75067	-110
1.75433	-111
1.75800	-111
1.76167	-112
1.76533	-113
1.76900	-114
1.77267	-114
1.77633	-115
1.78000	-115
1.78367	-116
1.78733	-116
1.79100	-116
1.79467	-116
1.79833	-116
1.80200	-116
1.80567	-117
1.80933	-118
1.81300	-118
1.81667	-119
1.82033	-119
1.82400	-120
1.82767	-120
1.83133	-120
1.83500	-121
1.83867	-121
1.84233	-121
1.84600	-120
1.84967	-120
1.85333	-120
1.85700	-120
1.86067	-120
1.86433	-119
1.86800	-119
1.87167	-119
1.87533	-119
1.87900	-119
1.88267	-119
1.88633	-119
1.89000	-118
1.89367	-118
1.89733	-117
1.90100	-117
1.90467	-118
1.90833	-118
1.91200	-118
1.91567	-118
1.91933	-118
1.92300	-118
1.92667	-118
1.93033	-118
1.93400	-118
1.93767	-117
1.94133	-116
1.94500	-116
1.94867	-115
1.95233	-115
1.95600	-115
1.95967	-114
1.96333	-114
1.96700	-114
1.97067	-114
1.97433	-114
1.97800	-114
1.98167	-114
1.98533	-114
1.98900	-114
1.99267	-114
1.99633	-113
2.00000	-113
2.00367	-112
2.00733	-111
2.01100	-111
2.01467	-110
2.01833	-110
2.02200	-109
2.02567	-109
2.02933	-109
2.03300	-108
2.03667	-108
2.04033	-108
2.04400	-108
2.04767	-108
2.05133	-107
2.05500	-107
2.05867	-106
2.06233	-106
2.06600	-105
2.06967	-105
2.07333	-105
2.07700	-105
2.08067	-104
2.08433	-104
2.08800	-104
2.09167	-104
2.09533	-104
2.09900	-104
2.10267	-105
2.10633	-105
2.11000	-105
2.11367	-104
2.11733	-104
2.12100	-103
2.12467	-102
2.12833	-101
2.13200	-101
2.13567	-101
2.13933	-100
2.14300	-100
2.14667	-100
2.15033	-99
2.15400	-99
2.15767	-99
2.16133	-98
2.16500	-98
2.16867	-97
2.17233	-97
2.17600	-96
2.17967	-96
2.18333	-95
2.18700	-95
2.19067	-94
2.19433	-93
2.19800	-93
2.20167	-92
2.20533	-92
2.20900	-91
2.21267	-91
2.21633	-92
2.22000	-92
2.22367	-92
2.22733	-93
2.23100	-93
2.23467	-92
2.23833	-92
2.24200	-92
2.24567	-91
2.24933	-91
2.25300	-91
2.25667	-91
2.26033	-91
2.26400	-91
2.26767	-91
2.27133	-90
2.27500	-90
2.27867	-90
2.28233	-90
2.28600	-89
2.28967	-89
2.29333	-88
2.29700	-88
2.30067	-88
2.30433	-87
2.30800	-87
2.31167	-87
2.31533	-87
2.31900	-86
2.32267	-86
2.32633	-85
2.33000	-84
2.33367	-83
2.33733	-83
2.34100	-83
2.34467	-83
2.34833	-84
2.35200	-84
2.35567	-84
2.35933	-84
2.36300	-84
2.36667	-83
2.37033	-81
2.37400	-78
2.37767	-75
2.38133	-72
2.38500	-69
2.38867	-65
2.39233	-61
2.39600	-57
2.39967	-52
2.40333	-48
2.40700	-43
2.41067	-38
2.41433	-34
2.41800	-30
2.42167	-27
2.42533	-24
2.42900	-21
2.43267	-19
2.43633	-16
2.44000	-14
2.44367	-12
2.44733	-10
2.45100	-8
2.45467	-7
2.45833	-6
2.46200	-4
2.46567	-3
2.46933	-2
2.47300	-0
2.47667	1
2.48033	2
2.48400	3
2.48767	4
2.49133	4
2.49500	5
2.49867	6
2.50233	6
2.50600	7
2.50967	8
2.51333	8
2.51700	10
2.52067	11
2.52433	12
2.52800	13
2.53167	14
2.53533	14
2.53900	15
2.54267	15
2.54633	15
2.55000	15
2.55367	15
2.55733	15
2.56100	16
2.56467	17
2.56833	18
2.57200	18
2.57567	19
2.57933	19
2.58300	19
2.58667	19
2.59033	19
2.59400	18
2.59767	18
2.60133	18
2.60500	18
2.60867	18
2.61233	19
2.61600	19
2.61967	20
2.62333	20
2.62700	21
2.63067	21
2.63433	21
2.63800	22
2.64167	22
2.64533	22
2.64900	22
2.65267	22
2.65633	22
2.66000	23
2.66367	23
2.66733	24
2.67100	24
2.67467	24
2.67833	25
2.68200	25
2.68567	25
2.68933	25
2.69300	25
2.69667	24
2.70033	24
2.70400	23
2.70767	23
2.71133	23
2.71500	23
2.71867	23
2.72233	23
2.72600	23
2.72967	23
2.73333	23
2.73700	24
2.74067	24
2.74433	25
2.74800	26
2.75167	26
2.75533	26
2.75900	27
2.76267	27
2.76633	28
2.77000	28
2.77367	28
2.77733	28
2.78100	28
2.78467	28
2.78833	27
2.79200	27
2.79567	27
2.79933	27
2.80300	27
2.80667	27
2.81033	27
2.81400	26
2.81767	26
2.82133	26
2.82500	27
2.82867	27
2.83233	26
2.83600	26
2.83967	26
2.84333	26
2.84700	26
2.85067	25
2.85433	23
2.85800	19
2.86167	13
2.86533	3
2.86900	-10
2.87267	-27
2.87633	-50
2.88000	-77
2.88367	-110
2.88733	-148
2.89100	-191
2.89467	-239
2.89833	-292
2.90200	-350
2.90567	-411
2.90933	-477
2.91300	-545
2.91667	-617
2.92033	-691
2.92400	-768
2.92767	-847
2.93133	-929
2.93500	-1012
2.93867	-1097
2.94233	-1184
2.94600	-1271
2.94967	-1360
2.95333	-1440
2.95700	-1502
2.96067	-1533
2.96433	-1528
2.96800	-1489
2.97167	-1421
2.97533	-1331
2.97900	-1228
2.98267	-1118
2.98633	-1007
2.99000	-898
2.99367	-795
2.99733	-698
3.00100	-610
3.00467	-531
3.00833	-460
3.01200	-396
3.01567	-341
3.01933	-292
3.02300	-250
3.02667	-213
3.03033	-181
3.03400	-154
3.03767	-131
3.04133	-110
3.04500	-93
3.04867	-78
3.05233	-65
3.05600	-54
3.05967	-45
3.06333	-37
3.06700	-30
3.07067	-24
3.07433	-19
3.07800	-14
3.08167	-10
3.08533	-7
3.08900	-4
3.09267	-1
3.09633	1
3.10000	3
3.10367	5
3.10733	7
3.11100	8
3.11467	10
3.11833	11
3.12200	12
3.12567	13
3.12933	14
3.13300	15
3.13667	16
3.14033	17
3.14400	17
3.14767	18
3.15133	18
3.15500	19
3.15867	19
3.16233	20
3.16600	20
3.16967	21
3.17333	21
3.17700	21
3.18067	22
3.18433	22
3.18800	22
3.19167	23
3.19533	23
3.19900	23
3.20267	24
3.20633	24
3.21000	24
3.21367	24
3.21733	24
3.22100	25
3.22467	25
3.22833	25
3.23200	25
3.23567	25
3.23933	25
3.24300	25
3.24667	25
3.25033	25
3.25400	25
3.25767	25
3.26133	25
3.26500	25
3.26867	25
3.27233	25
3.27600	25
3.27967	25
3.28333	25
3.28700	25
3.29067	25
3.29433	25
3.29800	25
3.30167	25
3.30533	25
3.30900	25
3.31267	26
3.31633	26
3.32000	26
3.32367	26
3.32733	26
3.33100	26
3.33467	26
3.33833	26
3.34200	26
3.34567	26
3.34933	26
3.35300	26
3.35667	26
3.36033	26
3.36400	26
3.36767	26
3.37133	26
3.37500	26
3.37867	26
3.38233	26
3.38600	26
3.38967	26
3.39333	26
3.39700	26
3.40067	26
3.40433	26
3.40800	26
3.41167	27
3.41533	27
3.41900	27
3.42267	27
3.42633	27
3.43000	27
3.43367	27
3.43733	27
3.44100	27
3.44467	27
3.44833	27
3.45200	27
3.45567	27
3.45933	27
3.46300	27
3.46667	27
3.47033	27
3.47400	27
3.47767	27
3.48133	26
3.48500	26
3.48867	26
3.49233	26
3.49600	26
3.49967	26
3.50333	26
3.50700	26
3.51067	26
3.51433	26
3.51800	26
3.52167	26
3.52533	26
3.52900	26
3.53267	26
3.53633	26
3.54000	26
3.54367	27
3.54733	27
3.55100	27
3.55467	28
3.55833	28
3.56200	28
3.56567	29
3.56933	29
3.57300	29
3.57667	29
3.58033	29
3.58400	30
3.58767	30
3.59133	30
3.59500	30
3.59867	30
3.60233	30
3.60600	30
3.60967	30
3.61333	29
3.61700	29
3.62067	29
3.62433	29
3.62800	28
3.63167	28
3.63533	28
3.63900	28
3.64267	28
3.64633	28
3.65000	28
3.65367	29
3.65733	29
3.66100	29
3.66467	29
3.66833	29
3.67200	29
3.67567	29
3.67933	29
3.68300	30
3.68667	30
3.69033	30
3.69400	30
3.69767	30
3.70133	30
3.70500	30
3.70867	30
3.71233	30
3.71600	30
3.71967	30
3.72333	30
3.72700	30
3.73067	30
3.73433	30
3.73800	30
3.74167	30
3.74533	29
3.74900	29
3.75267	29
3.75633	29
3.76000	30
3.76367	30
3.76733	30
3.77100	31
3.77467	31
3.77833	31
3.78200	31
3.78567	31
3.78933	31
3.79300	31
3.79667	31
3.80033	31
3.80400	31
3.80767	31
3.81133	31
3.81500	31
3.81867	31
3.82233	31
3.82600	31
3.82967	31
3.83333	31
3.83700	31
3.84067	31
3.84433	31
3.84800	31
3.85167	31
3.85533	31
3.85900	31
3.86267	30
3.86633	30
3.87000	30
3.87367	30
3.87733	30
3.88100	29
3.88467	29
3.88833	29
3.89200	30
3.89567	30
3.89933	30
3.90300	30
3.90667	30
3.91033	30
3.91400	30
3.91767	30
3.92133	30
3.92500	30
3.92867	30
3.93233	30
3.93600	29
3.93967	29
3.94333	29
3.94700	29
3.95067	29
3.95433	29
3.95800	29
3.96167	30
3.96533	30
3.96900	30
3.97267	30
3.97633	30
3.98000	30
3.98367	31
3.98733	31
3.99100	31
3.99467	31
3.99833	31

[Chromatogram (Ch3)]
Interval(msec)	220
# of Points	1091
Start Time(min)	0.002
End Time(min)	3.998
R.Time (min)	Intensity
0.00167	1
0.00533	2
0.00900	5
0.01267	6
0.01633	8
0.02000	9
0.02367	10
0.02733	10
0.03100	9
0.03467	9
0.03833	7
0.04200	5
0.04567	5
0.04933	5
0.05300	5
0.05667	6
0.06033	5
0.06400	4
0.06767	5
0.07133	5
0.07500	7
0.07867	8
0.08233	10
0.08600	9
0.08967	6
0.09333	5
0.09700	6
0.10067	8
0.10433	8
0.10800	5
0.11167	3
0.11533	1
0.11900	-2
0.12267	-0
0.12633	2
0.13000	4
0.13367	6
0.13733	7
0.14100	6
0.14467	4
0.14833	3
0.15200	3
0.15567	2
0.15933	4
0.16300	5
0.16667	7
0.17033	8
0.17400	8
0.17767	8
0.18133	7
0.18500	5
0.18867	5
0.19233	7
0.19600	10
0.19967	11
0.20333	10
0.20700	9
0.21067	7
0.21433	5
0.21800	3
0.22167	3
0.22533	4
0.22900	2
0.23267	2
0.23633	3
0.24000	4
0.24367	3
0.24733	3
0.25100	2
0.25467	1
0.25833	1
0.26200	4
0.26567	5
0.26933	7
0.27300	8
0.27667	6
0.28033	6
0.28400	7
0.28767	7
0.29133	7
0.29500	6
0.29867	4
0.30233	5
0.30600	5
0.30967	5
0.31333	4
0.31700	5
0.32067	4
0.32433	3
0.32800	4
0.33167	3
0.33533	2
0.33900	3
0.34267	4
0.34633	7
0.35000	9
0.35367	11
0.35733	14
0.36100	14
0.36467	12
0.36833	10
0.37200	9
0.37567	7
0.37933	7
0.38300	7
0.38667	7
0.39033	6
0.39400	9
0.39767	8
0.40133	6
0.40500	5
0.40867	5
0.41233	6
0.41600	7
0.41967	8
0.42333	9
0.42700	11
0.43067	11
0.43433	10
0.43800	9
0.44167	8
0.44533	8
0.44900	9
0.45267	10
0.45633	10
0.46000	10
0.46367	10
0.46733	10
0.47100	9
0.47467	9
0.47833	7
0.48200	6
0.48567	6
0.48933	6
0.49300	4
0.49667	2
0.50033	1
0.50400	2
0.50767	4
0.51133	7
0.51500	9
0.51867	11
0.52233	12
0.52600	12
0.52967	12
0.53333	12
0.53700	11
0.54067	12
0.54433	13
0.54800	13
0.55167	13
0.55533	11
0.55900	11
0.56267	11
0.56633	12
0.57000	13
0.57367	13
0.57733	9
0.58100	6
0.58467	6
0.58833	4
0.59200	3
0.59567	2
0.59933	3
0.60300	4
0.60667	6
0.61033	9
0.61400	11
0.61767	10
0.62133	10
0.62500	10
0.62867	11
0.63233	12
0.63600	9
0.63967	7
0.64333	8
0.64700	10
0.65067	12
0.65433	13
0.65800	11
0.66167	7
0.66533	5
0.66900	6
0.67267	7
0.67633	8
0.68000	7
0.68367	9
0.68733	10
0.69100	12
0.69467	12
0.69833	11
0.70200	12
0.70567	12
0.70933	14
0.71300	15
0.71667	14
0.72033	12
0.72400	10
0.72767	9
0.73133	10
0.73500	10
0.73867	10
0.74233	11
0.74600	12
0.74967	14
0.75333	15
0.75700	15
0.76067	15
0.76433	15
0.76800	16
0.77167	17
0.77533	16
0.77900	13
0.78267	11
0.78633	10
0.79000	10
0.79367	10
0.79733	13
0.80100	15
0.80467	15
0.80833	12
0.81200	11
0.81567	11
0.81933	11
0.82300	10
0.82667	11
0.83033	12
0.83400	13
0.83767	14
0.84133	15
0.84500	12
0.84867	12
0.85233	14
0.85600	16
0.85967	16
0.86333	15
0.86700	17
0.87067	17
0.87433	12
0.87800	10
0.88167	10
0.88533	12
0.88900	12
0.89267	11
0.89633	9
0.90000	7
0.90367	7
0.90733	10
0.91100	12
0.91467	13
0.91833	13
0.92200	15
0.92567	15
0.92933	14
0.93300	13
0.93667	12
0.94033	12
0.94400	15
0.94767	16
0.95133	17
0.95500	18
0.95867	19
0.96233	20
0.96600	19
0.96967	18
0.97333	17
0.97700	18
0.98067	17
0.98433	15
0.98800	13
0.99167	9
0.99533	7
0.99900	7
1.00267	8
1.00633	8
1.01000	8
1.01367	10
1.01733	13
1.02100	15
1.02467	16
1.02833	16
1.03200	15
1.03567	15
1.03933	14
1.04300	13
1.04667	11
1.05033	12
1.05400	12
1.05767	11
1.06133	10
1.06500	12
1.06867	12
1.07233	12
1.07600	14
1.07967	16
1.08333	15
1.08700	14
1.09067	13
1.09433	11
1.09800	12
1.10167	12
1.10533	13
1.10900	14
1.11267	13
1.11633	13
1.12000	14
1.12367	14
1.12733	14
1.13100	17
1.13467	17
1.13833	14
1.14200	13
1.14567	11
1.14933	10
1.15300	9
1.15667	9
1.16033	10
1.16400	11
1.16767	14
1.17133	16
1.17500	16
1.17867	17
1.18233	18
1.18600	18
1.18967	17
1.19333	16
1.19700	15
1.20067	13
1.20433	10
1.20800	8
1.21167	7
1.21533	9
1.21900	9
1.22267	8
1.22633	4
1.23000	2
1.23367	2
1.23733	4
1.24100	8
1.24467	10
1.24833	13
1.25200	13
1.25567	12
1.25933	7
1.26300	5
1.26667	7
1.27033	9
1.27400	9
1.27767	9
1.28133	9
1.28500	10
1.28867	10
1.29233	8
1.29600	9
1.29967	10
1.30333	7
1.30700	8
1.31067	11
1.31433	12
1.31800	12
1.32167	12
1.32533	13
1.32900	13
1.33267	15
1.33633	14
1.34000	12
1.34367	11
1.34733	9
1.35100	10
1.35467	13
1.35833	13
1.36200	10
1.36567	9
1.36933	9
1.37300	9
1.37667	10
1.38033	9
1.38400	8
1.38767	9
1.39133	11
1.39500	11
1.39867	10
1.40233	9
1.40600	10
1.40967	10
1.41333	10
1.41700	12
1.42067	13
1.42433	13
1.42800	13
1.43167	12
1.43533	11
1.43900	9
1.44267	9
1.44633	10
1.45000	10
1.45367	10
1.45733	10
1.46100	10
1.46467	10
1.46833	9
1.47200	6
1.47567	6
1.47933	5
1.48300	5
1.48667	7
1.49033	8
1.49400	9
1.49767	9
1.50133	8
1.50500	7
1.50867	7
1.51233	7
1.51600	7
1.51967	8
1.52333	7
1.52700	5
1.53067	5
1.53433	5
1.53800	6
1.54167	7
1.54533	7
1.54900	7
1.55267	7
1.55633	6
1.56000	5
1.56367	6
1.56733	8
1.57100	10
1.57467	10
1.57833	9
1.58200	11
1.58567	11
1.58933	10
1.59300	10
1.59667	11
1.60033	10
1.60400	10
1.60767	11
1.61133	14
1.61500	15
1.61867	12
1.62233	9
1.62600	8
1.62967	8
1.63333	10
1.63700	11
1.64067	13
1.64433	15
1.64800	14
1.65167	12
1.65533	10
1.65900	9
1.66267	9
1.66633	10
1.67000	11
1.67367	13
1.67733	16
1.68100	18
1.68467	18
1.68833	17
1.69200	16
1.69567	17
1.69933	19
1.70300	20
1.70667	21
1.71033	23
1.71400	24
1.71767	23
1.72133	22
1.72500	24
1.72867	28
1.73233	28
1.73600	27
1.73967	26
1.74333	26
1.74700	26
1.75067	25
1.75433	21
1.75800	18
1.76167	18
1.76533	19
1.76900	21
1.77267	21
1.77633	21
1.78000	20
1.78367	22
1.78733	23
1.79100	26
1.79467	25
1.79833	22
1.80200	22
1.80567	24
1.80933	27
1.81300	27
1.81667	27
1.82033	26
1.82400	25
1.82767	27
1.83133	32
1.83500	35
1.83867	32
1.84233	31
1.84600	31
1.84967	31
1.85333	32
1.85700	32
1.86067	30
1.86433	28
1.86800	28
1.87167	30
1.87533	34
1.87900	35
1.88267	34
1.88633	34
1.89000	34
1.89367	35
1.89733	36
1.90100	36
1.90467	36
1.90833	37
1.91200	38
1.91567	37
1.91933	34
1.92300	32
1.92667	32
1.93033	33
1.93400	33
1.93767	35
1.94133	37
1.94500	41
1.94867	43
1.95233	44
1.95600	45
1.95967	44
1.96333	43
1.96700	46
1.97067	48
1.97433	50
1.97800	50
1.98167	50
1.98533	49
1.98900	48
1.99267	45
1.99633	44
2.00000	45
2.00367	46
2.00733	49
2.01100	53
2.01467	52
2.01833	52
2.02200	52
2.02567	50
2.02933	48
2.03300	47
2.03667	47
2.04033	48
2.04400	52
2.04767	56
2.05133	60
2.05500	61
2.05867	60
2.06233	59
2.06600	58
2.06967	58
2.07333	60
2.07700	62
2.08067	62
2.08433	63
2.08800	66
2.09167	69
2.09533	71
2.09900	71
2.10267	72
2.10633	71
2.11000	70
2.11367	70
2.11733	70
2.12100	71
2.12467	73
2.12833	75
2.13200	75
2.13567	76
2.13933	75
2.14300	75
2.14667	80
2.15033	83
2.15400	85
2.15767	84
2.16133	84
2.16500	84
2.16867	83
2.17233	84
2.17600	86
2.17967	89
2.18333	90
2.18700	89
2.19067	91
2.19433	93
2.19800	94
2.20167	94
2.20533	94
2.20900	90
2.21267	88
2.21633	88
2.22000	92
2.22367	95
2.22733	98
2.23100	102
2.23467	104
2.23833	104
2.24200	104
2.24567	105
2.24933	104
2.25300	103
2.25667	102
2.26033	100
2.26400	100
2.26767	100
2.27133	102
2.27500	103
2.27867	104
2.28233	103
2.28600	104
2.28967	106
2.29333	107
2.29700	107
2.30067	108
2.30433	108
2.30800	110
2.31167	113
2.31533	113
2.31900	113
2.32267	114
2.32633	116
2.33000	117
2.33367	117
2.33733	120
2.34100	123
2.34467	124
2.34833	126
2.35200	127
2.35567	128
2.35933	128
2.36300	126
2.36667	125
2.37033	123
2.37400	120
2.37767	119
2.38133	115
2.38500	113
2.38867	115
2.39233	121
2.39600	125
2.39967	126
2.40333	127
2.40700	128
2.41067	131
2.41433	134
2.41800	134
2.42167	136
2.42533	138
2.42900	141
2.43267	142
2.43633	140
2.44000	141
2.44367	151
2.44733	170
2.45100	190
2.45467	206
2.45833	218
2.46200	227
2.46567	236
2.46933	248
2.47300	260
2.47667	271
2.48033	279
2.48400	288
2.48767	301
2.49133	319
2.49500	337
2.49867	356
2.50233	375
2.50600	395
2.50967	414
2.51333	430
2.51700	444
2.52067	455
2.52433	467
2.52800	476
2.53167	483
2.53533	490
2.53900	500
2.54267	507
2.54633	515
2.55000	522
2.55367	528
2.55733	535
2.56100	542
2.56467	549
2.56833	555
2.57200	564
2.57567	572
2.57933	580
2.58300	586
2.58667	593
2.59033	598
2.59400	603
2.59767	606
2.60133	606
2.60500	602
2.60867	592
2.61233	574
2.61600	547
2.61967	512
2.62333	469
2.62700	423
2.63067	377
2.63433	335
2.63800	298
2.64167	267
2.64533	241
2.64900	223
2.65267	211
2.65633	206
2.66000	204
2.66367	208
2.66733	217
2.67100	225
2.67467	231
2.67833	237
2.68200	249
2.68567	262
2.68933	276
2.69300	289
2.69667	301
2.70033	312
2.70400	322
2.70767	331
2.71133	340
2.71500	350
2.71867	361
2.72233	373
2.72600	382
2.72967	389
2.73333	396
2.73700	405
2.74067	415
2.74433	422
2.74800	429
2.75167	433
2.75533	437
2.75900	441
2.76267	445
2.76633	451
2.77000	457
2.77367	463
2.77733	468
2.78100	472
2.78467	476
2.78833	478
2.79200	478
2.79567	480
2.79933	484
2.80300	487
2.80667	490
2.81033	493
2.81400	496
2.81767	499
2.82133	501
2.82500	508
2.82867	518
2.83233	543
2.83600	607
2.83967	753
2.84333	1042
2.84700	1541
2.85067	2320
2.85433	3423
2.85800	4846
2.86167	6553
2.86533	8457
2.86900	10435
2.87267	12342
2.87633	14033
2.88000	15384
2.88367	16304
2.88733	16760
2.89100	16764
2.89467	16380
2.89833	15687
2.90200	14773
2.90567	13720
2.90933	12594
2.91300	11453
2.91667	10343
2.92033	9288
2.92400	8304
2.92767	7400
2.93133	6578
2.93500	5840
2.93867	5180
2.94233	4590
2.94600	4065
2.94967	3602
2.95333	3198
2.95700	2841
2.96067	2528
2.96433	2258
2.96800	2022
2.97167	1815
2.97533	1635
2.97900	1478
2.98267	1341
2.98633	1221
2.99000	1117
2.99367	1028
2.99733	950
3.00100	882
3.00467	823
3.00833	774
3.01200	734
3.01567	699
3.01933	667
3.02300	640
3.02667	618
3.03033	599
3.03400	584
3.03767	570
3.04133	558
3.04500	547
3.04867	539
3.05233	529
3.05600	518
3.05967	508
3.06333	501
3.06700	495
3.07067	492
3.07433	487
3.07800	483
3.08167	481
3.08533	476
3.08900	474
3.09267	471
3.09633	466
3.10000	460
3.10367	457
3.10733	457
3.11100	456
3.11467	455
3.11833	455
3.12200	453
3.12567	450
3.12933	445
3.13300	442
3.13667	439
3.14033	436
3.14400	435
3.14767	434
3.15133	432
3.15500	430
3.15867	427
3.16233	427
3.16600	427
3.16967	425
3.17333	424
3.17700	423
3.18067	422
3.18433	421
3.18800	420
3.19167	419
3.19533	416
3.19900	411
3.20267	407
3.20633	407
3.21000	408
3.21367	408
3.21733	406
3.22100	404
3.22467	404
3.22833	405
3.23200	404
3.23567	404
3.23933	403
3.24300	401
3.24667	399
3.25033	398
3.25400	396
3.25767	394
3.26133	393
3.26500	394
3.26867	393
3.27233	394
3.27600	393
3.27967	392
3.28333	390
3.28700	388
3.29067	387
3.29433	384
3.29800	382
3.30167	381
3.30533	380
3.30900	380
3.31267	379
3.31633	379
3.32000	380
3.32367	377
3.32733	373
3.33100	372
3.33467	373
3.33833	374
3.34200	374
3.34567	371
3.34933	367
3.35300	362
3.35667	359
3.36033	357
3.36400	357
3.36767	358
3.37133	357
3.37500	356
3.37867	355
3.38233	351
3.38600	349
3.38967	348
3.39333	348
3.39700	345
3.40067	343
3.40433	338
3.40800	334
3.41167	332
3.41533	331
3.41900	333
3.42267	334
3.42633	335
3.43000	336
3.43367	336
3.43733	337
3.44100	336
3.44467	333
3.44833	332
3.45200	331
3.45567	329
3.45933	326
3.46300	323
3.46667	322
3.47033	323
3.47400	323
3.47767	322
3.48133	320
3.48500	318
3.48867	315
3.49233	313
3.49600	310
3.49967	308
3.50333	308
3.50700	309
3.51067	308
3.51433	307
3.51800	306
3.52167	305
3.52533	307
3.52900	308
3.53267	306
3.53633	305
3.54000	304
3.54367	302
3.54733	300
3.55100	297
3.55467	296
3.55833	296
3.56200	295
3.56567	293
3.56933	291
3.57300	289
3.57667	286
3.58033	285
3.58400	284
3.58767	284
3.59133	285
3.59500	286
3.59867	285
3.60233	283
3.60600	284
3.60967	286
3.61333	286
3.61700	285
3.62067	285
3.62433	283
3.62800	281
3.63167	278
3.63533	276
3.63900	274
3.64267	274
3.64633	274
3.65000	274
3.65367	275
3.65733	275
3.66100	275
3.66467	275
3.66833	276
3.67200	275
3.67567	272
3.67933	270
3.68300	270
3.68667	269
3.69033	268
3.69400	270
3.69767	271
3.70133	272
3.70500	271
3.70867	268
3.71233	265
3.71600	264
3.71967	263
3.72333	263
3.72700	263
3.73067	261
3.73433	259
3.73800	258
3.74167	259
3.74533	259
3.74900	258
3.75267	256
3.75633	253
3.76000	253
3.76367	253
3.76733	254
3.77100	255
3.77467	257
3.77833	258
3.78200	255
3.78567	252
3.78933	250
3.79300	246
3.79667	243
3.80033	242
3.80400	242
3.80767	243
3.81133	246
3.81500	248
3.81867	248
3.82233	247
3.82600	244
3.82967	241
3.83333	239
3.83700	240
3.84067	240
3.84433	241
3.84800	241
3.85167	240
3.85533	239
3.85900	239
3.86267	237
3.86633	236
3.87000	236
3.87367	235
3.87733	236
3.88100	236
3.88467	236
3.88833	236
3.89200	235
3.89567	233
3.89933	231
3.90300	230
3.90667	231
3.91033	231
3.91400	230
3.91767	229
3.92133	231
3.92500	230
3.92867	228
3.93233	226
3.93600	225
3.93967	223
3.94333	221
3.94700	219
3.95067	219
3.95433	220
3.95800	223
3.96167	225
3.96533	227
3.96900	227
3.97267	226
3.97633	226
3.98000	226
3.98367	225
3.98733	225
3.99100	225
3.99467	223
3.99833	221

[Status Trace (Column Oven Temperature)]
Interval(msec)	1000
# of Points	240
Start Time(min)	0.009
End Time(min)	3.993
Intensity Units	
Intensity Multiplier	1
R.Time (min)	Intensity
0.00922	35.03
0.02588	35.03
0.04255	35.02
0.05922	35.02
0.07588	35.02
0.09255	35.03
0.10922	35.04
0.12588	35.04
0.14255	35.03
0.15922	35.02
0.17588	35.03
0.19255	35.03
0.20922	35.03
0.22588	35.03
0.24255	35.02
0.25922	34.99
0.27588	34.97
0.29255	34.97
0.30922	34.96
0.32588	34.96
0.34255	34.96
0.35922	34.95
0.37588	34.95
0.39255	34.95
0.40922	34.94
0.42588	34.95
0.44255	34.94
0.45922	34.95
0.47588	34.95
0.49255	34.96
0.50922	34.96
0.52588	34.97
0.54255	34.98
0.55922	35.00
0.57588	35.02
0.59255	35.03
0.60922	35.03
0.62588	35.03
0.64255	35.02
0.65922	35.01
0.67588	35.00
0.69255	35.00
0.70922	34.99
0.72588	34.97
0.74255	34.96
0.75922	34.97
0.77588	34.97
0.79255	34.98
0.80922	34.99
0.82588	34.99
0.84255	35.00
0.85922	35.00
0.87588	34.99
0.89255	34.99
0.90922	34.99
0.92588	34.98
0.94255	34.99
0.95922	35.00
0.97588	34.99
0.99255	34.99
1.00922	34.99
1.02588	34.97
1.04255	34.96
1.05922	34.95
1.07588	34.96
1.09255	34.97
1.10922	34.96
1.12588	34.97
1.14255	34.98
1.15922	34.98
1.17588	34.98
1.19255	34.99
1.20922	35.00
1.22588	35.01
1.24255	35.01
1.25922	35.03
1.27588	35.02
1.29255	35.02
1.30922	35.00
1.32588	34.99
1.34255	34.98
1.35922	34.98
1.37588	34.98
1.39255	34.97
1.40922	34.97
1.42588	34.97
1.44255	34.97
1.45922	34.98
1.47588	34.99
1.49255	35.00
1.50922	35.03
1.52588	35.06
1.54255	35.06
1.55922	35.05
1.57588	35.04
1.59255	35.04
1.60922	35.10
1.62588	35.21
1.64255	35.38
1.65922	35.65
1.67588	36.01
1.69255	36.38
1.70922	36.72
1.72588	37.05
1.74255	37.37
1.75922	37.71
1.77588	38.06
1.79255	38.37
1.80922	38.70
1.82588	39.05
1.84255	39.37
1.85922	39.70
1.87588	40.03
1.89255	40.35
1.90922	40.68
1.92588	41.01
1.94255	41.34
1.95922	41.67
1.97588	42.02
1.99255	42.33
2.00922	42.65
2.02588	42.97
2.04255	43.29
2.05922	43.62
2.07588	43.95
2.09255	44.28
2.10922	44.61
2.12588	44.93
2.14255	45.26
2.15922	45.58
2.17588	45.93
2.19255	46.23
2.20922	46.54
2.22588	46.89
2.24255	47.21
2.25922	47.54
2.27588	47.87
2.29255	48.19
2.30922	48.54
2.32588	48.84
2.34255	49.18
2.35922	49.49
2.37588	49.65
2.39255	49.70
2.40922	49.69
2.42588	49.72
2.44255	49.74
2.45922	49.75
2.47588	49.76
2.49255	49.77
2.50922	49.79
2.52588	49.79
2.54255	49.81
2.55922	49.81
2.57588	49.81
2.59255	49.83
2.60922	49.84
2.62588	49.85
2.64255	49.86
2.65922	49.85
2.67588	49.85
2.69255	49.86
2.70922	49.88
2.72588	49.90
2.74255	49.89
2.75922	49.88
2.77588	49.87
2.79255	49.88
2.80922	49.89
2.82588	49.90
2.84255	49.91
2.85922	49.94
2.87588	49.95
2.89255	49.97
2.90922	49.99
2.92588	50.01
2.94255	50.03
2.95922	50.03
2.97588	50.04
2.99255	50.06
3.00922	50.08
3.02588	50.10
3.04255	50.11
3.05922	50.11
3.07588	50.11
3.09255	50.10
3.10922	50.09
3.12588	50.08
3.14255	50.06
3.15922	50.04
3.17588	50.02
3.19255	50.02
3.20922	50.01
3.22588	49.99
3.24255	49.99
3.25922	49.99
3.27588	49.99
3.29255	49.99
3.30922	49.99
3.32588	49.99
3.34255	50.00
3.35922	50.00
3.37588	50.01
3.39255	50.02
3.40922	50.02
3.42588	50.03
3.44255	50.03
3.45922	50.03
3.47588	50.05
3.49255	50.05
3.50922	50.06
3.52588	50.07
3.54255	50.07
3.55922	50.06
3.57588	50.06
3.59255	50.05
3.60922	50.06
3.62588	50.07
3.64255	50.07
3.65922	50.07
3.67588	50.07
3.69255	50.07
3.70922	50.08
3.72588	50.08
3.74255	50.08
3.75922	50.08
3.77588	50.08
3.79255	50.07
3.80922	50.07
3.82588	50.07
3.84255	50.06
3.85922	50.05
3.87588	50.06
3.89255	50.06
3.90922	50.07
3.92588	50.07
3.94255	50.07
3.95922	50.08
3.97588	50.07
3.99255	50.07

[Status Trace (Injection Unit Temperature)]
Interval(msec)	1000
# of Points	240
Start Time(min)	0.009
End Time(min)	3.993
Intensity Units	
Intensity Multiplier	1
R.Time (min)	Intensity
0.00922	99.99
0.02588	99.99
0.04255	99.99
0.05922	99.99
0.07588	99.99
0.09255	99.99
0.10922	99.99
0.12588	99.99
0.14255	99.99
0.15922	99.99
0.17588	99.99
0.19255	99.99
0.20922	99.99
0.22588	99.99
0.24255	99.99
0.25922	99.99
0.27588	99.99
0.29255	99.99
0.30922	99.99
0.32588	99.99
0.34255	99.99
0.35922	99.99
0.37588	99.99
0.39255	99.98
0.40922	99.98
0.42588	99.99
0.44255	99.99
0.45922	99.99
0.47588	99.99
0.49255	99.99
0.50922	99.99
0.52588	99.99
0.54255	99.98
0.55922	99.99
0.57588	99.98
0.59255	99.99
0.60922	99.99
0.62588	99.99
0.64255	99.98
0.65922	99.99
0.67588	99.99
0.69255	99.99
0.70922	99.98
0.72588	99.98
0.74255	99.99
0.75922	99.99
0.77588	99.99
0.79255	99.99
0.80922	99.98
0.82588	99.99
0.84255	99.98
0.85922	99.99
0.87588	99.99
0.89255	99.99
0.90922	99.99
0.92588	99.99
0.94255	99.99
0.95922	99.99
0.97588	99.98
0.99255	99.99
1.00922	99.99
1.02588	99.98
1.04255	99.99
1.05922	99.99
1.07588	99.99
1.09255	99.99
1.10922	99.99
1.12588	99.99
1.14255	99.99
1.15922	99.98
1.17588	99.99
1.19255	99.99
1.20922	99.99
1.22588	99.99
1.24255	99.99
1.25922	99.99
1.27588	99.99
1.29255	99.99
1.30922	99.99
1.32588	99.99
1.34255	99.99
1.35922	99.99
1.37588	99.99
1.39255	99.99
1.40922	99.99
1.42588	99.99
1.44255	99.99
1.45922	99.99
1.47588	99.99
1.49255	99.99
1.50922	99.98
1.52588	99.99
1.54255	99.99
1.55922	99.99
1.57588	99.99
1.59255	99.99
1.60922	99.99
1.62588	99.99
1.64255	99.99
1.65922	99.98
1.67588	99.99
1.69255	99.98
1.70922	99.99
1.72588	99.98
1.74255	99.99
1.75922	99.99
1.77588	99.99
1.79255	99.99
1.80922	99.99
1.82588	99.99
1.84255	99.99
1.85922	99.99
1.87588	99.99
1.89255	99.99
1.90922	99.99
1.92588	99.98
1.94255	99.99
1.95922	99.99
1.97588	99.99
1.99255	99.98
2.00922	99.98
2.02588	99.98
2.04255	99.99
2.05922	99.98
2.07588	99.98
2.09255	99.98
2.10922	99.98
2.12588	99.98
2.14255	99.98
2.15922	99.98
2.17588	99.98
2.19255	99.98
2.20922	99.98
2.22588	99.98
2.24255	99.98
2.25922	99.98
2.27588	99.98
2.29255	99.97
2.30922	99.98
2.32588	99.97
2.34255	99.98
2.35922	99.98
2.37588	99.98
2.39255	99.98
2.40922	99.98
2.42588	99.97
2.44255	99.98
2.45922	99.98
2.47588	99.98
2.49255	99.98
2.50922	99.98
2.52588	99.98
2.54255	99.98
2.55922	99.98
2.57588	99.98
2.59255	99.99
2.60922	99.99
2.62588	99.99
2.64255	99.99
2.65922	99.98
2.67588	99.99
2.69255	99.99
2.70922	99.99
2.72588	99.99
2.74255	100.00
2.75922	100.00
2.77588	100.00
2.79255	100.00
2.80922	100.00
2.82588	100.00
2.84255	100.01
2.85922	100.00
2.87588	100.00
2.89255	100.01
2.90922	100.01
2.92588	100.01
2.94255	100.01
2.95922	100.01
2.97588	100.02
2.99255	100.02
3.00922	100.02
3.02588	100.02
3.04255	100.02
3.05922	100.02
3.07588	100.03
3.09255	100.03
3.10922	100.03
3.12588	100.03
3.14255	100.03
3.15922	100.03
3.17588	100.03
3.19255	100.03
3.20922	100.03
3.22588	100.03
3.24255	100.04
3.25922	100.03
3.27588	100.04
3.29255	100.04
3.30922	100.04
3.32588	100.04
3.34255	100.04
3.35922	100.05
3.37588	100.04
3.39255	100.04
3.40922	100.05
3.42588	100.05
3.44255	100.05
3.45922	100.05
3.47588	100.05
3.49255	100.05
3.50922	100.04
3.52588	100.05
3.54255	100.04
3.55922	100.05
3.57588	100.05
3.59255	100.05
3.60922	100.05
3.62588	100.05
3.64255	100.05
3.65922	100.06
3.67588	100.05
3.69255	100.05
3.70922	100.05
3.72588	100.05
3.74255	100.05
3.75922	100.05
3.77588	100.05
3.79255	100.06
3.80922	100.06
3.82588	100.05
3.84255	100.06
3.85922	100.05
3.87588	100.05
3.89255	100.06
3.90922	100.05
3.92588	100.05
3.94255	100.05
3.95922	100.05
3.97588	100.05
3.99255	100.05

[Status Trace (Carrier Gas Pressure)]
Interval(msec)	1000
# of Points	240
Start Time(min)	0.009
End Time(min)	3.993
Intensity Units	
Intensity Multiplier	1
R.Time (min)	Intensity
0.00922	58.00
0.02588	55.19
0.04255	57.20
0.05922	59.37
0.07588	59.28
0.09255	58.05
0.10922	57.99
0.12588	58.01
0.14255	58.01
0.15922	58.01
0.17588	58.00
0.19255	58.00
0.20922	58.00
0.22588	58.00
0.24255	58.00
0.25922	58.00
0.27588	58.00
0.29255	58.00
0.30922	58.00
0.32588	58.00
0.34255	58.00
0.35922	58.00
0.37588	58.00
0.39255	58.00
0.40922	58.00
0.42588	58.00
0.44255	58.00
0.45922	58.00
0.47588	58.00
0.49255	58.00
0.50922	58.00
0.52588	58.00
0.54255	58.00
0.55922	58.00
0.57588	58.00
0.59255	58.00
0.60922	58.00
0.62588	58.00
0.64255	58.00
0.65922	58.00
0.67588	58.00
0.69255	58.00
0.70922	58.00
0.72588	58.00
0.74255	58.00
0.75922	58.00
0.77588	58.00
0.79255	58.00
0.80922	58.00
0.82588	58.00
0.84255	58.00
0.85922	58.00
0.87588	58.00
0.89255	58.00
0.90922	58.00
0.92588	58.00
0.94255	58.00
0.95922	58.00
0.97588	58.00
0.99255	58.00
1.00922	58.00
1.02588	58.00
1.04255	58.00
1.05922	58.00
1.07588	58.00
1.09255	58.00
1.10922	58.00
1.12588	58.00
1.14255	58.00
1.15922	58.00
1.17588	58.00
1.19255	58.00
1.20922	58.00
1.22588	58.00
1.24255	58.00
1.25922	58.00
1.27588	58.00
1.29255	58.00
1.30922	58.00
1.32588	58.00
1.34255	58.00
1.35922	58.00
1.37588	58.00
1.39255	58.00
1.40922	58.00
1.42588	58.00
1.44255	58.00
1.45922	58.00
1.47588	58.00
1.49255	58.00
1.50922	58.00
1.52588	58.00
1.54255	58.00
1.55922	58.00
1.57588	58.00
1.59255	58.00
1.60922	58.00
1.62588	58.00
1.64255	58.00
1.65922	58.00
1.67588	58.01
1.69255	58.00
1.70922	58.00
1.72588	58.00
1.74255	58.00
1.75922	58.00
1.77588	58.00
1.79255	58.00
1.80922	58.00
1.82588	58.00
1.84255	58.00
1.85922	58.00
1.87588	58.00
1.89255	58.00
1.90922	58.00
1.92588	58.00
1.94255	58.00
1.95922	58.00
1.97588	58.00
1.99255	58.00
2.00922	58.00
2.02588	58.00
2.04255	58.00
2.05922	58.00
2.07588	58.00
2.09255	58.00
2.10922	58.00
2.12588	58.00
2.14255	58.00
2.15922	58.00
2.17588	58.00
2.19255	58.00
2.20922	58.00
2.22588	58.00
2.24255	58.00
2.25922	58.00
2.27588	58.00
2.29255	58.00
2.30922	58.00
2.32588	58.00
2.34255	58.00
2.35922	58.00
2.37588	57.99
2.39255	57.99
2.40922	57.99
2.42588	58.00
2.44255	58.00
2.45922	58.00
2.47588	58.00
2.49255	58.00
2.50922	58.00
2.52588	57.98
2.54255	58.00
2.55922	58.00
2.57588	58.00
2.59255	58.00
2.60922	58.00
2.62588	58.00
2.64255	58.00
2.65922	58.00
2.67588	58.00
2.69255	58.00
2.70922	58.00
2.72588	58.00
2.74255	58.00
2.75922	58.00
2.77588	58.00
2.79255	58.00
2.80922	58.00
2.82588	58.00
2.84255	58.00
2.85922	58.00
2.87588	58.00
2.89255	58.00
2.90922	58.00
2.92588	58.00
2.94255	58.00
2.95922	58.00
2.97588	58.00
2.99255	58.00
3.00922	58.00
3.02588	58.00
3.04255	58.00
3.05922	58.00
3.07588	58.00
3.09255	58.00
3.10922	58.00
3.12588	58.00
3.14255	58.00
3.15922	58.00
3.17588	58.00
3.19255	58.00
3.20922	58.00
3.22588	58.00
3.24255	58.00
3.25922	58.00
3.27588	58.00
3.29255	58.00
3.30922	58.00
3.32588	58.00
3.34255	58.00
3.35922	58.00
3.37588	58.00
3.39255	58.00
3.40922	58.00
3.42588	58.00
3.44255	58.00
3.45922	58.00
3.47588	58.00
3.49255	58.00
3.50922	58.00
3.52588	58.00
3.54255	58.00
3.55922	58.00
3.57588	58.00
3.59255	58.00
3.60922	58.00
3.62588	58.00
3.64255	58.00
3.65922	58.00
3.67588	58.00
3.69255	58.00
3.70922	58.00
3.72588	58.00
3.74255	58.00
3.75922	58.00
3.77588	58.00
3.79255	58.00
3.80922	58.00
3.82588	58.00
3.84255	58.00
3.85922	58.00
3.87588	58.00
3.89255	58.00
3.90922	58.00
3.92588	58.00
3.94255	58.00
3.95922	58.00
3.97588	58.00
3.99255	58.00

[Status Trace (Carrier Gas Flow)]
Interval(msec)	1000
# of Points	240
Start Time(min)	0.009
End Time(min)	3.993
Intensity Units	
Intensity Multiplier	1
R.Time (min)	Intensity
0.00922	34.50
0.02588	34.54
0.04255	34.56
0.05922	34.55
0.07588	34.51
0.09255	34.52
0.10922	34.52
0.12588	34.52
0.14255	34.52
0.15922	34.52
0.17588	34.52
0.19255	34.52
0.20922	34.52
0.22588	34.52
0.24255	34.52
0.25922	34.52
0.27588	34.52
0.29255	34.52
0.30922	34.52
0.32588	34.52
0.34255	34.52
0.35922	34.52
0.37588	34.52
0.39255	34.52
0.40922	34.52
0.42588	34.52
0.44255	34.52
0.45922	34.52
0.47588	34.52
0.49255	34.52
0.50922	34.52
0.52588	34.52
0.54255	34.52
0.55922	34.52
0.57588	34.52
0.59255	34.52
0.60922	34.52
0.62588	34.52
0.64255	34.52
0.65922	34.52
0.67588	34.52
0.69255	34.52
0.70922	34.52
0.72588	34.52
0.74255	34.52
0.75922	34.52
0.77588	34.52
0.79255	34.52
0.80922	34.52
0.82588	34.52
0.84255	34.52
0.85922	34.52
0.87588	34.52
0.89255	34.52
0.90922	34.52
0.92588	34.52
0.94255	34.52
0.95922	34.52
0.97588	34.52
0.99255	34.52
1.00922	34.52
1.02588	34.52
1.04255	34.51
1.05922	34.52
1.07588	34.52
1.09255	34.52
1.10922	34.52
1.12588	34.52
1.14255	34.52
1.15922	34.52
1.17588	34.52
1.19255	34.52
1.20922	34.52
1.22588	34.52
1.24255	34.52
1.25922	34.52
1.27588	34.52
1.29255	34.52
1.30922	34.52
1.32588	34.52
1.34255	34.52
1.35922	34.52
1.37588	34.52
1.39255	34.52
1.40922	34.52
1.42588	34.52
1.44255	34.52
1.45922	34.52
1.47588	34.52
1.49255	34.52
1.50922	34.52
1.52588	34.52
1.54255	34.52
1.55922	34.52
1.57588	34.52
1.59255	34.52
1.60922	34.52
1.62588	34.52
1.64255	34.52
1.65922	34.52
1.67588	34.52
1.69255	34.52
1.70922	34.52
1.72588	34.52
1.74255	34.52
1.75922	34.52
1.77588	34.52
1.79255	34.52
1.80922	34.52
1.82588	34.52
1.84255	34.52
1.85922	34.52
1.87588	34.52
1.89255	34.52
1.90922	34.52
1.92588	34.52
1.94255	34.52
1.95922	34.52
1.97588	34.52
1.99255	34.52
2.00922	34.52
2.02588	34.52
2.04255	34.52
2.05922	34.52
2.07588	34.52
2.09255	34.52
2.10922	34.52
2.12588	34.52
2.14255	34.52
2.15922	34.52
2.17588	34.52
2.19255	34.52
2.20922	34.52
2.22588	34.52
2.24255	34.52
2.25922	34.52
2.27588	34.52
2.29255	34.52
2.30922	34.52
2.32588	34.52
2.34255	34.52
2.35922	34.52
2.37588	34.52
2.39255	34.53
2.40922	34.52
2.42588	34.52
2.44255	34.52
2.45922	34.52
2.47588	34.53
2.49255	34.52
2.50922	34.49
2.52588	34.52
2.54255	34.52
2.55922	34.52
2.57588	34.52
2.59255	34.52
2.60922	34.51
2.62588	34.52
2.64255	34.52
2.65922	34.52
2.67588	34.52
2.69255	34.52
2.70922	34.52
2.72588	34.52
2.74255	34.52
2.75922	34.52
2.77588	34.52
2.79255	34.50
2.80922	34.51
2.82588	34.52
2.84255	34.52
2.85922	34.52
2.87588	34.52
2.89255	34.51
2.90922	34.51
2.92588	34.52
2.94255	34.52
2.95922	34.52
2.97588	34.52
2.99255	34.51
3.00922	34.52
3.02588	34.52
3.04255	34.53
3.05922	34.52
3.07588	34.52
3.09255	34.52
3.10922	34.52
3.12588	34.51
3.14255	34.52
3.15922	34.52
3.17588	34.52
3.19255	34.52
3.20922	34.52
3.22588	34.52
3.24255	34.52
3.25922	34.52
3.27588	34.52
3.29255	34.52
3.30922	34.52
3.32588	34.52
3.34255	34.52
3.35922	34.52
3.37588	34.52
3.39255	34.52
3.40922	34.52
3.42588	34.52
3.44255	34.52
3.45922	34.52
3.47588	34.52
3.49255	34.52
3.50922	34.52
3.52588	34.52
3.54255	34.52
3.55922	34.52
3.57588	34.52
3.59255	34.52
3.60922	34.52
3.62588	34.52
3.64255	34.52
3.65922	34.52
3.67588	34.52
3.69255	34.52
3.70922	34.52
3.72588	34.52
3.74255	34.52
3.75922	34.52
3.77588	34.52
3.79255	34.52
3.80922	34.52
3.82588	34.52
3.84255	34.52
3.85922	34.52
3.87588	34.52
3.89255	34.52
3.90922	34.52
3.92588	34.52
3.94255	34.52
3.95922	34.52
3.97588	34.52
3.99255	34.52

[Status Trace (Column Flow)]
Interval(msec)	1000
# of Points	240
Start Time(min)	0.009
End Time(min)	3.993
Intensity Units	
Intensity Multiplier	1
R.Time (min)	Intensity
0.00922	5.46
0.02588	5.13
0.04255	5.36
0.05922	5.61
0.07588	5.60
0.09255	5.46
0.10922	5.45
0.12588	5.46
0.14255	5.46
0.15922	5.46
0.17588	5.46
0.19255	5.46
0.20922	5.46
0.22588	5.46
0.24255	5.46
0.25922	5.46
0.27588	5.46
0.29255	5.46
0.30922	5.46
0.32588	5.46
0.34255	5.46
0.35922	5.46
0.37588	5.46
0.39255	5.46
0.40922	5.46
0.42588	5.46
0.44255	5.46
0.45922	5.46
0.47588	5.46
0.49255	5.46
0.50922	5.46
0.52588	5.46
0.54255	5.46
0.55922	5.46
0.57588	5.46
0.59255	5.46
0.60922	5.46
0.62588	5.46
0.64255	5.46
0.65922	5.46
0.67588	5.46
0.69255	5.46
0.70922	5.46
0.72588	5.46
0.74255	5.46
0.75922	5.46
0.77588	5.46
0.79255	5.46
0.80922	5.46
0.82588	5.46
0.84255	5.46
0.85922	5.46
0.87588	5.46
0.89255	5.46
0.90922	5.46
0.92588	5.46
0.94255	5.46
0.95922	5.46
0.97588	5.46
0.99255	5.46
1.00922	5.46
1.02588	5.46
1.04255	5.46
1.05922	5.46
1.07588	5.46
1.09255	5.46
1.10922	5.46
1.12588	5.46
1.14255	5.46
1.15922	5.46
1.17588	5.46
1.19255	5.46
1.20922	5.46
1.22588	5.46
1.24255	5.46
1.25922	5.46
1.27588	5.46
1.29255	5.46
1.30922	5.46
1.32588	5.46
1.34255	5.46
1.35922	5.46
1.37588	5.46
1.39255	5.46
1.40922	5.46
1.42588	5.46
1.44255	5.46
1.45922	5.46
1.47588	5.46
1.49255	5.46
1.50922	5.46
1.52588	5.45
1.54255	5.45
1.55922	5.45
1.57588	5.45
1.59255	5.45
1.60922	5.45
1.62588	5.45
1.64255	5.45
1.65922	5.44
1.67588	5.43
1.69255	5.41
1.70922	5.40
1.72588	5.39
1.74255	5.38
1.75922	5.37
1.77588	5.36
1.79255	5.35
1.80922	5.34
1.82588	5.33
1.84255	5.32
1.85922	5.31
1.87588	5.30
1.89255	5.29
1.90922	5.28
1.92588	5.27
1.94255	5.26
1.95922	5.25
1.97588	5.24
1.99255	5.24
2.00922	5.23
2.02588	5.22
2.04255	5.21
2.05922	5.20
2.07588	5.19
2.09255	5.18
2.10922	5.17
2.12588	5.16
2.14255	5.15
2.15922	5.14
2.17588	5.13
2.19255	5.12
2.20922	5.12
2.22588	5.11
2.24255	5.10
2.25922	5.09
2.27588	5.08
2.29255	5.07
2.30922	5.06
2.32588	5.05
2.34255	5.04
2.35922	5.03
2.37588	5.03
2.39255	5.03
2.40922	5.03
2.42588	5.03
2.44255	5.02
2.45922	5.02
2.47588	5.02
2.49255	5.02
2.50922	5.02
2.52588	5.02
2.54255	5.02
2.55922	5.02
2.57588	5.02
2.59255	5.02
2.60922	5.02
2.62588	5.02
2.64255	5.02
2.65922	5.02
2.67588	5.02
2.69255	5.02
2.70922	5.02
2.72588	5.02
2.74255	5.02
2.75922	5.02
2.77588	5.02
2.79255	5.02
2.80922	5.02
2.82588	5.02
2.84255	5.02
2.85922	5.02
2.87588	5.02
2.89255	5.02
2.90922	5.02
2.92588	5.02
2.94255	5.02
2.95922	5.02
2.97588	5.02
2.99255	5.02
3.00922	5.02
3.02588	5.02
3.04255	5.01
3.05922	5.01
3.07588	5.01
3.09255	5.01
3.10922	5.02
3.12588	5.02
3.14255	5.02
3.15922	5.02
3.17588	5.02
3.19255	5.02
3.20922	5.02
3.22588	5.02
3.24255	5.02
3.25922	5.02
3.27588	5.02
3.29255	5.02
3.30922	5.02
3.32588	5.02
3.34255	5.02
3.35922	5.02
3.37588	5.02
3.39255	5.02
3.40922	5.02
3.42588	5.02
3.44255	5.02
3.45922	5.02
3.47588	5.02
3.49255	5.02
3.50922	5.02
3.52588	5.02
3.54255	5.02
3.55922	5.02
3.57588	5.02
3.59255	5.02
3.60922	5.02
3.62588	5.02
3.64255	5.02
3.65922	5.02
3.67588	5.02
3.69255	5.02
3.70922	5.02
3.72588	5.02
3.74255	5.02
3.75922	5.02
3.77588	5.02
3.79255	5.02
3.80922	5.02
3.82588	5.02
3.84255	5.02
3.85922	5.02
3.87588	5.02
3.89255	5.02
3.90922	5.02
3.92588	5.02
3.94255	5.02
3.95922	5.02
3.97588	5.02
3.99255	5.02

[Status Trace (Linear Velocity)]
Interval(msec)	1000
# of Points	240
Start Time(min)	0.009
End Time(min)	3.993
Intensity Units	
Intensity Multiplier	1
R.Time (min)	Intensity
0.00922	39.00
0.02588	37.16
0.04255	38.48
0.05922	39.90
0.07588	39.84
0.09255	39.03
0.10922	38.99
0.12588	39.01
0.14255	39.00
0.15922	39.00
0.17588	39.00
0.19255	39.00
0.20922	39.00
0.22588	39.00
0.24255	39.00
0.25922	39.00
0.27588	39.00
0.29255	39.00
0.30922	39.01
0.32588	39.01
0.34255	39.01
0.35922	39.01
0.37588	39.01
0.39255	39.01
0.40922	39.01
0.42588	39.01
0.44255	39.01
0.45922	39.01
0.47588	39.01
0.49255	39.01
0.50922	39.01
0.52588	39.00
0.54255	39.00
0.55922	39.00
0.57588	39.00
0.59255	39.00
0.60922	39.00
0.62588	39.00
0.64255	39.00
0.65922	39.00
0.67588	39.00
0.69255	39.00
0.70922	39.00
0.72588	39.00
0.74255	39.01
0.75922	39.00
0.77588	39.00
0.79255	39.00
0.80922	39.00
0.82588	39.00
0.84255	39.00
0.85922	39.00
0.87588	39.00
0.89255	39.00
0.90922	39.00
0.92588	39.00
0.94255	39.00
0.95922	39.00
0.97588	39.00
0.99255	39.00
1.00922	39.00
1.02588	39.00
1.04255	39.00
1.05922	39.01
1.07588	39.00
1.09255	39.00
1.10922	39.01
1.12588	39.00
1.14255	39.00
1.15922	39.00
1.17588	39.00
1.19255	39.00
1.20922	39.00
1.22588	39.00
1.24255	39.00
1.25922	39.00
1.27588	39.00
1.29255	39.00
1.30922	39.00
1.32588	39.00
1.34255	39.00
1.35922	39.00
1.37588	39.00
1.39255	39.00
1.40922	39.00
1.42588	39.00
1.44255	39.00
1.45922	39.00
1.47588	39.00
1.49255	39.00
1.50922	39.00
1.52588	39.00
1.54255	38.99
1.55922	39.00
1.57588	39.00
1.59255	39.00
1.60922	38.99
1.62588	38.99
1.64255	38.97
1.65922	38.94
1.67588	38.91
1.69255	38.87
1.70922	38.84
1.72588	38.81
1.74255	38.78
1.75922	38.75
1.77588	38.71
1.79255	38.68
1.80922	38.65
1.82588	38.62
1.84255	38.59
1.85922	38.56
1.87588	38.53
1.89255	38.50
1.90922	38.47
1.92588	38.43
1.94255	38.40
1.95922	38.37
1.97588	38.34
1.99255	38.31
2.00922	38.28
2.02588	38.25
2.04255	38.22
2.05922	38.19
2.07588	38.17
2.09255	38.13
2.10922	38.10
2.12588	38.07
2.14255	38.04
2.15922	38.02
2.17588	37.98
2.19255	37.96
2.20922	37.93
2.22588	37.90
2.24255	37.87
2.25922	37.84
2.27588	37.81
2.29255	37.78
2.30922	37.75
2.32588	37.72
2.34255	37.69
2.35922	37.67
2.37588	37.65
2.39255	37.64
2.40922	37.64
2.42588	37.64
2.44255	37.64
2.45922	37.64
2.47588	37.64
2.49255	37.64
2.50922	37.63
2.52588	37.62
2.54255	37.63
2.55922	37.63
2.57588	37.63
2.59255	37.63
2.60922	37.63
2.62588	37.63
2.64255	37.63
2.65922	37.63
2.67588	37.63
2.69255	37.63
2.70922	37.63
2.72588	37.63
2.74255	37.63
2.75922	37.63
2.77588	37.63
2.79255	37.63
2.80922	37.63
2.82588	37.63
2.84255	37.63
2.85922	37.62
2.87588	37.62
2.89255	37.62
2.90922	37.62
2.92588	37.62
2.94255	37.61
2.95922	37.62
2.97588	37.61
2.99255	37.61
3.00922	37.61
3.02588	37.61
3.04255	37.61
3.05922	37.61
3.07588	37.61
3.09255	37.61
3.10922	37.61
3.12588	37.61
3.14255	37.61
3.15922	37.61
3.17588	37.62
3.19255	37.62
3.20922	37.62
3.22588	37.62
3.24255	37.62
3.25922	37.62
3.27588	37.62
3.29255	37.62
3.30922	37.62
3.32588	37.62
3.34255	37.62
3.35922	37.62
3.37588	37.62
3.39255	37.62
3.40922	37.62
3.42588	37.62
3.44255	37.61
3.45922	37.61
3.47588	37.61
3.49255	37.61
3.50922	37.61
3.52588	37.61
3.54255	37.61
3.55922	37.61
3.57588	37.61
3.59255	37.61
3.60922	37.61
3.62588	37.61
3.64255	37.61
3.65922	37.61
3.67588	37.61
3.69255	37.61
3.70922	37.61
3.72588	37.61
3.74255	37.61
3.75922	37.61
3.77588	37.61
3.79255	37.61
3.80922	37.61
3.82588	37.61
3.84255	37.61
3.85922	37.61
3.87588	37.61
3.89255	37.61
3.90922	37.61
3.92588	37.61
3.94255	37.61
3.95922	37.61
3.97588	37.61
3.99255	37.61

