[Header]
Application Name	LabSolutions
Version	5.110
Data File Name	C:\Users\User\Desktop\GC Analyses\Jack\UIC Prairie Sampling\8.12.22\220812_045.gcd
Output Date	10/14/2022
Output Time	2:33:52 PM

[File Information]
Type	Data File
Generated	10/11/2022 9:50:24 AM
Generated by	System Administrator
Modified	10/11/2022 9:54:57 AM
Modified by	System Administrator

[Sample Information]
Operator Name	System Administrator
Acquired	10/11/2022 9:50:57 AM
Sample Type	1:Standard
Level	1
Sample Name	220812_UICPrairie
Sample ID	220812_UICPrairie
ISTD Amount1	1
ISTD Amount2	1
ISTD Amount3	1
ISTD Amount4	1
ISTD Amount5	1
ISTD Amount6	1
ISTD Amount7	1
ISTD Amount8	1
ISTD Amount9	1
ISTD Amount10	1
ISTD Amount11	1
ISTD Amount12	1
ISTD Amount13	1
ISTD Amount14	1
ISTD Amount15	1
ISTD Amount16	1
ISTD Amount17	1
ISTD Amount18	1
ISTD Amount19	1
ISTD Amount20	1
ISTD Amount21	1
ISTD Amount22	1
ISTD Amount23	1
ISTD Amount24	1
ISTD Amount25	1
ISTD Amount26	1
ISTD Amount27	1
ISTD Amount28	1
ISTD Amount29	1
ISTD Amount30	1
ISTD Amount31	1
ISTD Amount32	1
Sample Amount	1
Dilution Factor	1
Vial#	1
Injection Volume	1
Injection Count	1
Bar Code	

[Original Files]
Data File	C:\Users\User\Desktop\GC Analyses\Jack\UIC Prairie Sampling\8.12.22\220812_045.gcd
Method File	C:\LabSolutions\Data\GHG_4min_2022\ghg3_togas_w_acet_4 min_new_int.gcm
Batch File	
Report Format File	c:\LabSolutions\System\DEFAULT.lsr

[File Description]


[Configuration]
Instrument Name	C0B7VH3-Instrument1
Instrument #	1
Line #	1
# of Detectors	3
Detector ID	DET#1	DET#2	DET#3
Detector Name	FID	PTCD	ECD
# of Channels	1	1	1

[Peak Table(Ch1)]
# of Peaks	3
Peak#	R.Time	I.Time	F.Time	Area	Height	A/H	Conc.	Mark	ID#	Name	k'	Plate #	Plate Ht.	Tailing	Resolution	Sep.Factor	Area Ratio	Height Ratio	Conc. %	Norm Conc.
1	1.468	1.439	1.534	4788	1718	2.786	100.000	   	1	CO	0.000	5972	25.116	1.701	0.000	0.000	0	0	16.667	16.667
2	1.571	1.534	1.652	20948	10484	1.998	100.000	 V 	2	CH4	0.070	11383	13.178	1.161	1.522	0.000	0	0	16.667	16.667
3	2.000	1.952	2.315	2151431	1038980	2.071	400.000	   	3	CO2	0.362	17621	8.513	1.164	7.200	5.179	0	0	66.667	66.667

[Peak Table(Ch2)]
# of Peaks	0

[Peak Table(Ch3)]
# of Peaks	4
Peak#	R.Time	I.Time	F.Time	Area	Height	A/H	Conc.	Mark	ID#	Name	k'	Plate #	Plate Ht.	Tailing	Resolution	Sep.Factor	Area Ratio	Height Ratio	Conc. %	Norm Conc.
1	2.458	2.183	2.645	6794	431	15.756	0.000	   			0.000	401	374.466	0.844	0.000	0.000	0	0	0.000	0.000
2	2.759	2.656	2.814	1446	214	6.769	0.023	   	1	N2O	0.122	538	278.659	0.000	0.622	0.000	0	0	1.140	1.140
3	2.880	2.814	3.148	62005	15636	3.966	0.977	 V 	1	N2O	0.172	12465	12.034	1.627	0.418	1.402	0	0	48.860	48.860
4	3.280	3.151	3.995	17883	659	27.140	1.000	   	2	SF6	0.334	231	648.230	3.203	0.828	1.948	0	0	50.000	50.000

[Compound Results(Ch1)]
# of IDs	6
ID#	Name	R.Time	Area	Height	Conc.	Curve	3rd	2nd	1st	Constant	Area Ratio	Height Ratio	Conc. %	Norm Conc.
1	CO	1.468	4788	1718	100.000	Linear	0.000000e+00	0.000000e+00	4.788210e+001	0.000000e+00	0	0	16.667	16.667
2	CH4	1.571	20948	10484	100.000	Linear	0.000000e+00	0.000000e+00	2.094757e+002	0.000000e+00	0	0	16.667	16.667
3	CO2	2.000	2151431	1038980	400.000	Linear	0.000000e+00	0.000000e+00	5.378576e+003	0.000000e+00	0	0	66.667	66.667
4	Ethylene	0.000	0	0	0.000	Linear	0.000000e+00	0.000000e+00	0.000000e+00	0.000000e+00	0	0	0.000	0.000
5	Acetylene	0.000	0	0	0.000	Linear	0.000000e+00	0.000000e+00	0.000000e+00	0.000000e+00	0	0	0.000	0.000
6	Ethane	0.000	0	0	0.000	Linear	0.000000e+00	0.000000e+00	0.000000e+00	0.000000e+00	0	0	0.000	0.000

[Compound Results(Ch2)]
# of IDs	5
ID#	Name	R.Time	Area	Height	Conc.	Curve	3rd	2nd	1st	Constant	Area Ratio	Height Ratio	Conc. %	Norm Conc.
1	Hydrogen	0.000	0	0	0.000	Linear	0.000000e+00	0.000000e+00	0.000000e+00	0.000000e+00	0	0	0.000	0.000
2	Oxygen	0.000	0	0	0.000	Linear	0.000000e+00	0.000000e+00	0.000000e+00	0.000000e+00	0	0	0.000	0.000
3	Nitrogen	0.000	0	0	0.000	Linear	0.000000e+00	0.000000e+00	0.000000e+00	0.000000e+00	0	0	0.000	0.000
4	Methane	0.000	0	0	0.000	Linear	0.000000e+00	0.000000e+00	0.000000e+00	0.000000e+00	0	0	0.000	0.000
5	Carbon Monoxide	0.000	0	0	0.000	Linear	0.000000e+00	0.000000e+00	0.000000e+00	0.000000e+00	0	0	0.000	0.000

[Compound Results(Ch3)]
# of IDs	2
ID#	Name	R.Time	Area	Height	Conc.	Curve	3rd	2nd	1st	Constant	Area Ratio	Height Ratio	Conc. %	Norm Conc.
1	N2O	2.880	63451	15850	1.000	Linear	0.000000e+00	0.000000e+00	6.345118e+004	0.000000e+00	0	0	50.000	50.000
2	SF6	3.280	17883	659	1.000	Linear	0.000000e+00	0.000000e+00	1.788332e+004	0.000000e+00	0	0	50.000	50.000

[Group Results(Ch1)]
# of Groups	0

[Group Results(Ch2)]
# of Groups	0

[Group Results(Ch3)]
# of Groups	0

[Chromatogram (Ch1)]
Interval(msec)	220
# of Points	1091
Start Time(min)	0.002
End Time(min)	3.998
R.Time (min)	Intensity
0.00167	-24
0.00533	-24
0.00900	-26
0.01267	-25
0.01633	-19
0.02000	-17
0.02367	-16
0.02733	-16
0.03100	-20
0.03467	-28
0.03833	-34
0.04200	-37
0.04567	-38
0.04933	-35
0.05300	-29
0.05667	-18
0.06033	-7
0.06400	5
0.06767	14
0.07133	16
0.07500	10
0.07867	-0
0.08233	-11
0.08600	-22
0.08967	-32
0.09333	-41
0.09700	-45
0.10067	-44
0.10433	-41
0.10800	-41
0.11167	-42
0.11533	-45
0.11900	-48
0.12267	-49
0.12633	-49
0.13000	-48
0.13367	-48
0.13733	-51
0.14100	-54
0.14467	-58
0.14833	-63
0.15200	-68
0.15567	-68
0.15933	-64
0.16300	-56
0.16667	-48
0.17033	-42
0.17400	-42
0.17767	-45
0.18133	-51
0.18500	-56
0.18867	-55
0.19233	-51
0.19600	-45
0.19967	-43
0.20333	-45
0.20700	-48
0.21067	-51
0.21433	-50
0.21800	-50
0.22167	-50
0.22533	-49
0.22900	-47
0.23267	-46
0.23633	-46
0.24000	-44
0.24367	-41
0.24733	-36
0.25100	-33
0.25467	-34
0.25833	-37
0.26200	-42
0.26567	-44
0.26933	-46
0.27300	-48
0.27667	-50
0.28033	-51
0.28400	-51
0.28767	-48
0.29133	-47
0.29500	-46
0.29867	-48
0.30233	-54
0.30600	-61
0.30967	-67
0.31333	-69
0.31700	-67
0.32067	-59
0.32433	-47
0.32800	-41
0.33167	-44
0.33533	-51
0.33900	-58
0.34267	-64
0.34633	-68
0.35000	-69
0.35367	-68
0.35733	-67
0.36100	-68
0.36467	-69
0.36833	-67
0.37200	-62
0.37567	-57
0.37933	-52
0.38300	-50
0.38667	-51
0.39033	-54
0.39400	-54
0.39767	-56
0.40133	-57
0.40500	-57
0.40867	-58
0.41233	-60
0.41600	-63
0.41967	-65
0.42333	-66
0.42700	-67
0.43067	-64
0.43433	-61
0.43800	-61
0.44167	-64
0.44533	-65
0.44900	-65
0.45267	-66
0.45633	-65
0.46000	-62
0.46367	-56
0.46733	-50
0.47100	-46
0.47467	-46
0.47833	-52
0.48200	-58
0.48567	-61
0.48933	-59
0.49300	-56
0.49667	-57
0.50033	-59
0.50400	-60
0.50767	-60
0.51133	-61
0.51500	-59
0.51867	-58
0.52233	-56
0.52600	-53
0.52967	-52
0.53333	-55
0.53700	-58
0.54067	-61
0.54433	-64
0.54800	-66
0.55167	-66
0.55533	-66
0.55900	-66
0.56267	-65
0.56633	-64
0.57000	-63
0.57367	-65
0.57733	-69
0.58100	-70
0.58467	-70
0.58833	-70
0.59200	-70
0.59567	-71
0.59933	-70
0.60300	-68
0.60667	-67
0.61033	-70
0.61400	-76
0.61767	-80
0.62133	-83
0.62500	-83
0.62867	-80
0.63233	-76
0.63600	-70
0.63967	-66
0.64333	-65
0.64700	-67
0.65067	-69
0.65433	-74
0.65800	-80
0.66167	-81
0.66533	-79
0.66900	-78
0.67267	-78
0.67633	-83
0.68000	-89
0.68367	-94
0.68733	-98
0.69100	-96
0.69467	-90
0.69833	-82
0.70200	-73
0.70567	-65
0.70933	-61
0.71300	-59
0.71667	-60
0.72033	-64
0.72400	-65
0.72767	-61
0.73133	-53
0.73500	-46
0.73867	-46
0.74233	-52
0.74600	-57
0.74967	-57
0.75333	-56
0.75700	-60
0.76067	-71
0.76433	-83
0.76800	-90
0.77167	-92
0.77533	-95
0.77900	-98
0.78267	-99
0.78633	-99
0.79000	-102
0.79367	-103
0.79733	-103
0.80100	-98
0.80467	-87
0.80833	-75
0.81200	-65
0.81567	-60
0.81933	-58
0.82300	-59
0.82667	-63
0.83033	-69
0.83400	-77
0.83767	-88
0.84133	-100
0.84500	-106
0.84867	-106
0.85233	-104
0.85600	-99
0.85967	-93
0.86333	-89
0.86700	-85
0.87067	-80
0.87433	-75
0.87800	-71
0.88167	-69
0.88533	-66
0.88900	-64
0.89267	-60
0.89633	-58
0.90000	-60
0.90367	-64
0.90733	-70
0.91100	-79
0.91467	-86
0.91833	-91
0.92200	-91
0.92567	-87
0.92933	-79
0.93300	-67
0.93667	-53
0.94033	-43
0.94400	-38
0.94767	-42
0.95133	-53
0.95500	-65
0.95867	-77
0.96233	-88
0.96600	-99
0.96967	-106
0.97333	-108
0.97700	-104
0.98067	-99
0.98433	-94
0.98800	-92
0.99167	-93
0.99533	-94
0.99900	-95
1.00267	-99
1.00633	-100
1.01000	-98
1.01367	-97
1.01733	-94
1.02100	-90
1.02467	-86
1.02833	-84
1.03200	-83
1.03567	-82
1.03933	-83
1.04300	-84
1.04667	-82
1.05033	-80
1.05400	-81
1.05767	-85
1.06133	-89
1.06500	-90
1.06867	-90
1.07233	-87
1.07600	-79
1.07967	-69
1.08333	-61
1.08700	-61
1.09067	-69
1.09433	-80
1.09800	-89
1.10167	-91
1.10533	-87
1.10900	-83
1.11267	-83
1.11633	-87
1.12000	-92
1.12367	-96
1.12733	-97
1.13100	-96
1.13467	-96
1.13833	-98
1.14200	-102
1.14567	-105
1.14933	-107
1.15300	-107
1.15667	-105
1.16033	-102
1.16400	-95
1.16767	-84
1.17133	-70
1.17500	-59
1.17867	-57
1.18233	-64
1.18600	-74
1.18967	-83
1.19333	-91
1.19700	-97
1.20067	-100
1.20433	-101
1.20800	-104
1.21167	-104
1.21533	-103
1.21900	-99
1.22267	-95
1.22633	-91
1.23000	-89
1.23367	-91
1.23733	-95
1.24100	-98
1.24467	-100
1.24833	-103
1.25200	-105
1.25567	-104
1.25933	-103
1.26300	-102
1.26667	-101
1.27033	-99
1.27400	-98
1.27767	-96
1.28133	-94
1.28500	-90
1.28867	-85
1.29233	-85
1.29600	-92
1.29967	-101
1.30333	-108
1.30700	-114
1.31067	-116
1.31433	-114
1.31800	-110
1.32167	-106
1.32533	-101
1.32900	-96
1.33267	-94
1.33633	-96
1.34000	-97
1.34367	-98
1.34733	-99
1.35100	-100
1.35467	-102
1.35833	-105
1.36200	-110
1.36567	-112
1.36933	-108
1.37300	-97
1.37667	-85
1.38033	-81
1.38400	-85
1.38767	-93
1.39133	-101
1.39500	-109
1.39867	-116
1.40233	-121
1.40600	-120
1.40967	-119
1.41333	-119
1.41700	-118
1.42067	-115
1.42433	-113
1.42800	-111
1.43167	-112
1.43533	-112
1.43900	-100
1.44267	-26
1.44633	187
1.45000	531
1.45367	904
1.45733	1217
1.46100	1437
1.46467	1563
1.46833	1615
1.47200	1610
1.47567	1565
1.47933	1483
1.48300	1365
1.48667	1214
1.49033	1041
1.49400	870
1.49767	707
1.50133	558
1.50500	430
1.50867	324
1.51233	235
1.51600	158
1.51967	93
1.52333	37
1.52700	-6
1.53067	-34
1.53433	-43
1.53800	-8
1.54167	188
1.54533	809
1.54900	2094
1.55267	3950
1.55633	5985
1.56000	7814
1.56367	9230
1.56733	10125
1.57100	10368
1.57467	9840
1.57833	8605
1.58200	6955
1.58567	5255
1.58933	3767
1.59300	2598
1.59667	1733
1.60033	1121
1.60400	700
1.60767	421
1.61133	242
1.61500	129
1.61867	61
1.62233	20
1.62600	-7
1.62967	-32
1.63333	-56
1.63700	-78
1.64067	-97
1.64433	-113
1.64800	-122
1.65167	-126
1.65533	-127
1.65900	-125
1.66267	-122
1.66633	-122
1.67000	-124
1.67367	-130
1.67733	-137
1.68100	-143
1.68467	-148
1.68833	-148
1.69200	-146
1.69567	-144
1.69933	-143
1.70300	-142
1.70667	-144
1.71033	-145
1.71400	-143
1.71767	-136
1.72133	-128
1.72500	-120
1.72867	-117
1.73233	-117
1.73600	-119
1.73967	-121
1.74333	-124
1.74700	-131
1.75067	-139
1.75433	-144
1.75800	-145
1.76167	-142
1.76533	-138
1.76900	-132
1.77267	-121
1.77633	-114
1.78000	-112
1.78367	-112
1.78733	-115
1.79100	-117
1.79467	-116
1.79833	-118
1.80200	-122
1.80567	-125
1.80933	-124
1.81300	-121
1.81667	-121
1.82033	-123
1.82400	-127
1.82767	-131
1.83133	-131
1.83500	-132
1.83867	-134
1.84233	-136
1.84600	-139
1.84967	-142
1.85333	-141
1.85700	-139
1.86067	-137
1.86433	-137
1.86800	-138
1.87167	-138
1.87533	-137
1.87900	-135
1.88267	-131
1.88633	-128
1.89000	-125
1.89367	-123
1.89733	-125
1.90100	-126
1.90467	-125
1.90833	-124
1.91200	-123
1.91567	-121
1.91933	-120
1.92300	-118
1.92667	-117
1.93033	-115
1.93400	-112
1.93767	-110
1.94133	-109
1.94500	-108
1.94867	-106
1.95233	-93
1.95600	-1
1.95967	588
1.96333	3543
1.96700	14826
1.97067	47755
1.97433	121801
1.97800	250845
1.98167	428940
1.98533	628968
1.98900	814899
1.99267	956339
1.99633	1034083
2.00000	1038919
2.00367	973053
2.00733	851839
2.01100	699887
2.01467	543396
2.01833	402405
2.02200	287237
2.02567	199723
2.02933	136603
2.03300	92707
2.03667	62911
2.04033	42995
2.04400	29781
2.04767	21022
2.05133	15184
2.05500	11247
2.05867	8552
2.06233	6675
2.06600	5343
2.06967	4378
2.07333	3660
2.07700	3112
2.08067	2686
2.08433	2351
2.08800	2082
2.09167	1864
2.09533	1685
2.09900	1535
2.10267	1409
2.10633	1303
2.11000	1213
2.11367	1131
2.11733	1050
2.12100	973
2.12467	904
2.12833	842
2.13200	785
2.13567	735
2.13933	692
2.14300	656
2.14667	626
2.15033	600
2.15400	577
2.15767	552
2.16133	528
2.16500	507
2.16867	491
2.17233	477
2.17600	463
2.17967	451
2.18333	439
2.18700	425
2.19067	409
2.19433	390
2.19800	372
2.20167	358
2.20533	348
2.20900	339
2.21267	331
2.21633	324
2.22000	316
2.22367	305
2.22733	291
2.23100	279
2.23467	270
2.23833	265
2.24200	260
2.24567	254
2.24933	250
2.25300	244
2.25667	235
2.26033	229
2.26400	223
2.26767	216
2.27133	208
2.27500	201
2.27867	198
2.28233	199
2.28600	199
2.28967	196
2.29333	190
2.29700	183
2.30067	177
2.30433	170
2.30800	163
2.31167	156
2.31533	149
2.31900	144
2.32267	142
2.32633	142
2.33000	146
2.33367	151
2.33733	157
2.34100	160
2.34467	160
2.34833	158
2.35200	153
2.35567	148
2.35933	145
2.36300	142
2.36667	138
2.37033	136
2.37400	133
2.37767	130
2.38133	127
2.38500	129
2.38867	133
2.39233	134
2.39600	130
2.39967	123
2.40333	117
2.40700	111
2.41067	107
2.41433	105
2.41800	106
2.42167	110
2.42533	115
2.42900	117
2.43267	117
2.43633	113
2.44000	108
2.44367	106
2.44733	108
2.45100	111
2.45467	114
2.45833	115
2.46200	114
2.46567	115
2.46933	119
2.47300	119
2.47667	113
2.48033	103
2.48400	97
2.48767	91
2.49133	85
2.49500	79
2.49867	74
2.50233	72
2.50600	72
2.50967	73
2.51333	78
2.51700	85
2.52067	92
2.52433	94
2.52800	92
2.53167	86
2.53533	79
2.53900	75
2.54267	75
2.54633	75
2.55000	74
2.55367	68
2.55733	61
2.56100	56
2.56467	54
2.56833	54
2.57200	57
2.57567	57
2.57933	56
2.58300	54
2.58667	50
2.59033	48
2.59400	48
2.59767	44
2.60133	41
2.60500	40
2.60867	41
2.61233	44
2.61600	47
2.61967	48
2.62333	47
2.62700	47
2.63067	48
2.63433	50
2.63800	52
2.64167	54
2.64533	53
2.64900	50
2.65267	49
2.65633	51
2.66000	56
2.66367	61
2.66733	65
2.67100	63
2.67467	58
2.67833	50
2.68200	38
2.68567	34
2.68933	38
2.69300	43
2.69667	42
2.70033	37
2.70400	31
2.70767	28
2.71133	28
2.71500	28
2.71867	30
2.72233	31
2.72600	30
2.72967	27
2.73333	21
2.73700	12
2.74067	3
2.74433	-1
2.74800	-1
2.75167	4
2.75533	10
2.75900	18
2.76267	25
2.76633	28
2.77000	28
2.77367	27
2.77733	27
2.78100	28
2.78467	27
2.78833	25
2.79200	24
2.79567	26
2.79933	27
2.80300	24
2.80667	16
2.81033	6
2.81400	-2
2.81767	-5
2.82133	-3
2.82500	1
2.82867	7
2.83233	13
2.83600	16
2.83967	17
2.84333	17
2.84700	17
2.85067	16
2.85433	14
2.85800	15
2.86167	14
2.86533	13
2.86900	13
2.87267	13
2.87633	12
2.88000	11
2.88367	12
2.88733	16
2.89100	19
2.89467	21
2.89833	23
2.90200	21
2.90567	19
2.90933	20
2.91300	23
2.91667	25
2.92033	27
2.92400	24
2.92767	21
2.93133	19
2.93500	18
2.93867	18
2.94233	16
2.94600	13
2.94967	10
2.95333	7
2.95700	5
2.96067	4
2.96433	6
2.96800	9
2.97167	10
2.97533	9
2.97900	6
2.98267	4
2.98633	5
2.99000	10
2.99367	16
2.99733	22
3.00100	27
3.00467	31
3.00833	30
3.01200	23
3.01567	15
3.01933	8
3.02300	4
3.02667	1
3.03033	-0
3.03400	0
3.03767	-0
3.04133	-5
3.04500	-10
3.04867	-10
3.05233	-8
3.05600	-4
3.05967	2
3.06333	10
3.06700	14
3.07067	10
3.07433	1
3.07800	-6
3.08167	-8
3.08533	-6
3.08900	-6
3.09267	-4
3.09633	-3
3.10000	-4
3.10367	-6
3.10733	-6
3.11100	-3
3.11467	-1
3.11833	-3
3.12200	-9
3.12567	-17
3.12933	-23
3.13300	-23
3.13667	-20
3.14033	-16
3.14400	-11
3.14767	-7
3.15133	-1
3.15500	5
3.15867	3
3.16233	-5
3.16600	-14
3.16967	-17
3.17333	-19
3.17700	-18
3.18067	-15
3.18433	-11
3.18800	-6
3.19167	2
3.19533	8
3.19900	8
3.20267	5
3.20633	7
3.21000	3
3.21367	-5
3.21733	-11
3.22100	-13
3.22467	-12
3.22833	-8
3.23200	0
3.23567	9
3.23933	12
3.24300	10
3.24667	10
3.25033	11
3.25400	9
3.25767	7
3.26133	3
3.26500	-3
3.26867	-7
3.27233	-11
3.27600	-13
3.27967	-12
3.28333	-11
3.28700	-10
3.29067	-9
3.29433	-5
3.29800	1
3.30167	5
3.30533	8
3.30900	10
3.31267	10
3.31633	9
3.32000	6
3.32367	2
3.32733	-4
3.33100	-9
3.33467	-10
3.33833	-12
3.34200	-14
3.34567	-16
3.34933	-18
3.35300	-22
3.35667	-24
3.36033	-24
3.36400	-22
3.36767	-18
3.37133	-13
3.37500	-10
3.37867	-5
3.38233	-1
3.38600	3
3.38967	7
3.39333	13
3.39700	20
3.40067	27
3.40433	29
3.40800	25
3.41167	17
3.41533	6
3.41900	-4
3.42267	-11
3.42633	-13
3.43000	-12
3.43367	-11
3.43733	-11
3.44100	-10
3.44467	-6
3.44833	-1
3.45200	3
3.45567	6
3.45933	8
3.46300	9
3.46667	8
3.47033	7
3.47400	4
3.47767	-0
3.48133	-6
3.48500	-11
3.48867	-16
3.49233	-17
3.49600	-12
3.49967	-5
3.50333	-1
3.50700	1
3.51067	1
3.51433	-2
3.51800	-5
3.52167	-3
3.52533	2
3.52900	8
3.53267	10
3.53633	7
3.54000	4
3.54367	1
3.54733	-2
3.55100	-3
3.55467	-3
3.55833	-3
3.56200	-3
3.56567	-7
3.56933	-13
3.57300	-19
3.57667	-22
3.58033	-23
3.58400	-19
3.58767	-11
3.59133	-3
3.59500	2
3.59867	1
3.60233	-1
3.60600	-3
3.60967	-3
3.61333	-3
3.61700	-3
3.62067	-5
3.62433	-12
3.62800	-22
3.63167	-23
3.63533	-17
3.63900	-12
3.64267	-9
3.64633	-7
3.65000	-7
3.65367	-8
3.65733	-7
3.66100	-3
3.66467	2
3.66833	6
3.67200	11
3.67567	15
3.67933	18
3.68300	15
3.68667	11
3.69033	8
3.69400	11
3.69767	21
3.70133	29
3.70500	31
3.70867	23
3.71233	11
3.71600	2
3.71967	-6
3.72333	-12
3.72700	-14
3.73067	-12
3.73433	-8
3.73800	-6
3.74167	-8
3.74533	-11
3.74900	-13
3.75267	-15
3.75633	-16
3.76000	-14
3.76367	-11
3.76733	-6
3.77100	-1
3.77467	0
3.77833	-3
3.78200	-9
3.78567	-15
3.78933	-16
3.79300	-15
3.79667	-13
3.80033	-13
3.80400	-13
3.80767	-12
3.81133	-11
3.81500	-11
3.81867	-11
3.82233	-9
3.82600	-2
3.82967	5
3.83333	8
3.83700	8
3.84067	5
3.84433	1
3.84800	-1
3.85167	-3
3.85533	1
3.85900	8
3.86267	11
3.86633	11
3.87000	10
3.87367	7
3.87733	5
3.88100	3
3.88467	-0
3.88833	-1
3.89200	-1
3.89567	-3
3.89933	-3
3.90300	-4
3.90667	-5
3.91033	-5
3.91400	1
3.91767	8
3.92133	9
3.92500	10
3.92867	10
3.93233	8
3.93600	7
3.93967	6
3.94333	5
3.94700	5
3.95067	5
3.95433	7
3.95800	6
3.96167	5
3.96533	2
3.96900	0
3.97267	-2
3.97633	-6
3.98000	-8
3.98367	-9
3.98733	-11
3.99100	-12
3.99467	-11
3.99833	-10

[Chromatogram (Ch2)]
Interval(msec)	220
# of Points	1091
Start Time(min)	0.002
End Time(min)	3.998
R.Time (min)	Intensity
0.00167	1
0.00533	1
0.00900	1
0.01267	0
0.01633	-0
0.02000	-0
0.02367	-1
0.02733	-1
0.03100	-1
0.03467	-1
0.03833	-2
0.04200	-2
0.04567	-2
0.04933	-2
0.05300	-2
0.05667	-2
0.06033	-2
0.06400	-1
0.06767	-1
0.07133	-0
0.07500	-0
0.07867	0
0.08233	0
0.08600	1
0.08967	1
0.09333	1
0.09700	1
0.10067	2
0.10433	2
0.10800	2
0.11167	2
0.11533	2
0.11900	2
0.12267	2
0.12633	2
0.13000	2
0.13367	2
0.13733	2
0.14100	1
0.14467	1
0.14833	1
0.15200	1
0.15567	1
0.15933	1
0.16300	1
0.16667	1
0.17033	1
0.17400	1
0.17767	2
0.18133	2
0.18500	2
0.18867	2
0.19233	2
0.19600	2
0.19967	2
0.20333	1
0.20700	1
0.21067	1
0.21433	1
0.21800	1
0.22167	1
0.22533	1
0.22900	0
0.23267	0
0.23633	-0
0.24000	-1
0.24367	-1
0.24733	-1
0.25100	-2
0.25467	-2
0.25833	-2
0.26200	-2
0.26567	-2
0.26933	-3
0.27300	-3
0.27667	-3
0.28033	-3
0.28400	-3
0.28767	-4
0.29133	-4
0.29500	-4
0.29867	-4
0.30233	-5
0.30600	-5
0.30967	-5
0.31333	-5
0.31700	-5
0.32067	-5
0.32433	-5
0.32800	-4
0.33167	-4
0.33533	-4
0.33900	-4
0.34267	-4
0.34633	-4
0.35000	-4
0.35367	-4
0.35733	-5
0.36100	-5
0.36467	-4
0.36833	-4
0.37200	-4
0.37567	-4
0.37933	-4
0.38300	-3
0.38667	-3
0.39033	-3
0.39400	-2
0.39767	-2
0.40133	-2
0.40500	-2
0.40867	-2
0.41233	-2
0.41600	-2
0.41967	-2
0.42333	-2
0.42700	-2
0.43067	-2
0.43433	-2
0.43800	-2
0.44167	-2
0.44533	-2
0.44900	-2
0.45267	-2
0.45633	-2
0.46000	-2
0.46367	-2
0.46733	-2
0.47100	-2
0.47467	-2
0.47833	-2
0.48200	-2
0.48567	-3
0.48933	-3
0.49300	-3
0.49667	-3
0.50033	-3
0.50400	-3
0.50767	-3
0.51133	-3
0.51500	-3
0.51867	-3
0.52233	-3
0.52600	-3
0.52967	-3
0.53333	-3
0.53700	-4
0.54067	-4
0.54433	-4
0.54800	-4
0.55167	-5
0.55533	-5
0.55900	-5
0.56267	-5
0.56633	-4
0.57000	-4
0.57367	-4
0.57733	-4
0.58100	-3
0.58467	-3
0.58833	-3
0.59200	-3
0.59567	-3
0.59933	-2
0.60300	-2
0.60667	-2
0.61033	-2
0.61400	-2
0.61767	-3
0.62133	-3
0.62500	-3
0.62867	-3
0.63233	-3
0.63600	-4
0.63967	-4
0.64333	-4
0.64700	-4
0.65067	-4
0.65433	-4
0.65800	-4
0.66167	-4
0.66533	-4
0.66900	-4
0.67267	-4
0.67633	-4
0.68000	-4
0.68367	-4
0.68733	-4
0.69100	-4
0.69467	-4
0.69833	-5
0.70200	-5
0.70567	-5
0.70933	-5
0.71300	-5
0.71667	-5
0.72033	-5
0.72400	-5
0.72767	-5
0.73133	-5
0.73500	-5
0.73867	-5
0.74233	-6
0.74600	-6
0.74967	-6
0.75333	-6
0.75700	-6
0.76067	-6
0.76433	-7
0.76800	-7
0.77167	-7
0.77533	-8
0.77900	-8
0.78267	-8
0.78633	-8
0.79000	-8
0.79367	-8
0.79733	-8
0.80100	-8
0.80467	-8
0.80833	-8
0.81200	-8
0.81567	-8
0.81933	-8
0.82300	-8
0.82667	-9
0.83033	-9
0.83400	-9
0.83767	-9
0.84133	-9
0.84500	-9
0.84867	-9
0.85233	-9
0.85600	-9
0.85967	-9
0.86333	-9
0.86700	-8
0.87067	-8
0.87433	-8
0.87800	-8
0.88167	-8
0.88533	-7
0.88900	-7
0.89267	-7
0.89633	-7
0.90000	-6
0.90367	-6
0.90733	-5
0.91100	-5
0.91467	-4
0.91833	-4
0.92200	-4
0.92567	-4
0.92933	-3
0.93300	-3
0.93667	-3
0.94033	-3
0.94400	-3
0.94767	-3
0.95133	-3
0.95500	-3
0.95867	-3
0.96233	-3
0.96600	-3
0.96967	-3
0.97333	-3
0.97700	-3
0.98067	-4
0.98433	-4
0.98800	-4
0.99167	-4
0.99533	-4
0.99900	-4
1.00267	-4
1.00633	-4
1.01000	-4
1.01367	-5
1.01733	-5
1.02100	-5
1.02467	-5
1.02833	-5
1.03200	-5
1.03567	-5
1.03933	-6
1.04300	-6
1.04667	-6
1.05033	-6
1.05400	-6
1.05767	-6
1.06133	-6
1.06500	-6
1.06867	-6
1.07233	-6
1.07600	-6
1.07967	-6
1.08333	-7
1.08700	-7
1.09067	-7
1.09433	-8
1.09800	-8
1.10167	-8
1.10533	-9
1.10900	-9
1.11267	-9
1.11633	-9
1.12000	-9
1.12367	-9
1.12733	-9
1.13100	-9
1.13467	-9
1.13833	-9
1.14200	-9
1.14567	-9
1.14933	-9
1.15300	-9
1.15667	-9
1.16033	-9
1.16400	-9
1.16767	-8
1.17133	-8
1.17500	-8
1.17867	-7
1.18233	-7
1.18600	-7
1.18967	-7
1.19333	-7
1.19700	-7
1.20067	-7
1.20433	-7
1.20800	-7
1.21167	-7
1.21533	-7
1.21900	-7
1.22267	-6
1.22633	-6
1.23000	-6
1.23367	-6
1.23733	-6
1.24100	-5
1.24467	-6
1.24833	-6
1.25200	-6
1.25567	-6
1.25933	-6
1.26300	-7
1.26667	-7
1.27033	-6
1.27400	-6
1.27767	-6
1.28133	-6
1.28500	-6
1.28867	-6
1.29233	-6
1.29600	-6
1.29967	-6
1.30333	-6
1.30700	-5
1.31067	-5
1.31433	-5
1.31800	-5
1.32167	-5
1.32533	-5
1.32900	-5
1.33267	-5
1.33633	-6
1.34000	-6
1.34367	-6
1.34733	-6
1.35100	-6
1.35467	-6
1.35833	-6
1.36200	-6
1.36567	-6
1.36933	-6
1.37300	-6
1.37667	-6
1.38033	-7
1.38400	-7
1.38767	-7
1.39133	-7
1.39500	-8
1.39867	-8
1.40233	-8
1.40600	-9
1.40967	-9
1.41333	-10
1.41700	-10
1.42067	-10
1.42433	-10
1.42800	-10
1.43167	-10
1.43533	-10
1.43900	-10
1.44267	-10
1.44633	-10
1.45000	-9
1.45367	-9
1.45733	-9
1.46100	-9
1.46467	-9
1.46833	-9
1.47200	-9
1.47567	-9
1.47933	-9
1.48300	-9
1.48667	-10
1.49033	-10
1.49400	-10
1.49767	-10
1.50133	-10
1.50500	-10
1.50867	-10
1.51233	-10
1.51600	-10
1.51967	-10
1.52333	-10
1.52700	-10
1.53067	-10
1.53433	-10
1.53800	-10
1.54167	-10
1.54533	-11
1.54900	-11
1.55267	-11
1.55633	-11
1.56000	-11
1.56367	-11
1.56733	-11
1.57100	-11
1.57467	-10
1.57833	-10
1.58200	-10
1.58567	-10
1.58933	-10
1.59300	-10
1.59667	-11
1.60033	-11
1.60400	-13
1.60767	-14
1.61133	-16
1.61500	-18
1.61867	-20
1.62233	-23
1.62600	-25
1.62967	-28
1.63333	-32
1.63700	-35
1.64067	-38
1.64433	-42
1.64800	-45
1.65167	-49
1.65533	-52
1.65900	-56
1.66267	-60
1.66633	-65
1.67000	-70
1.67367	-75
1.67733	-80
1.68100	-85
1.68467	-90
1.68833	-95
1.69200	-99
1.69567	-102
1.69933	-106
1.70300	-108
1.70667	-110
1.71033	-112
1.71400	-114
1.71767	-116
1.72133	-117
1.72500	-118
1.72867	-120
1.73233	-121
1.73600	-123
1.73967	-124
1.74333	-125
1.74700	-125
1.75067	-126
1.75433	-126
1.75800	-126
1.76167	-125
1.76533	-125
1.76900	-125
1.77267	-125
1.77633	-125
1.78000	-125
1.78367	-125
1.78733	-126
1.79100	-127
1.79467	-127
1.79833	-128
1.80200	-128
1.80567	-128
1.80933	-129
1.81300	-129
1.81667	-129
1.82033	-129
1.82400	-130
1.82767	-131
1.83133	-131
1.83500	-131
1.83867	-132
1.84233	-132
1.84600	-132
1.84967	-132
1.85333	-132
1.85700	-132
1.86067	-132
1.86433	-132
1.86800	-132
1.87167	-132
1.87533	-131
1.87900	-131
1.88267	-130
1.88633	-129
1.89000	-129
1.89367	-128
1.89733	-128
1.90100	-128
1.90467	-127
1.90833	-128
1.91200	-128
1.91567	-129
1.91933	-130
1.92300	-130
1.92667	-130
1.93033	-130
1.93400	-129
1.93767	-129
1.94133	-128
1.94500	-128
1.94867	-127
1.95233	-127
1.95600	-127
1.95967	-127
1.96333	-127
1.96700	-126
1.97067	-126
1.97433	-126
1.97800	-125
1.98167	-125
1.98533	-124
1.98900	-124
1.99267	-123
1.99633	-123
2.00000	-123
2.00367	-123
2.00733	-123
2.01100	-123
2.01467	-123
2.01833	-123
2.02200	-123
2.02567	-122
2.02933	-122
2.03300	-121
2.03667	-121
2.04033	-120
2.04400	-120
2.04767	-119
2.05133	-119
2.05500	-119
2.05867	-119
2.06233	-118
2.06600	-119
2.06967	-119
2.07333	-119
2.07700	-119
2.08067	-118
2.08433	-118
2.08800	-118
2.09167	-117
2.09533	-117
2.09900	-116
2.10267	-116
2.10633	-116
2.11000	-116
2.11367	-116
2.11733	-116
2.12100	-116
2.12467	-116
2.12833	-115
2.13200	-115
2.13567	-114
2.13933	-114
2.14300	-114
2.14667	-114
2.15033	-114
2.15400	-113
2.15767	-113
2.16133	-112
2.16500	-111
2.16867	-111
2.17233	-110
2.17600	-110
2.17967	-110
2.18333	-110
2.18700	-109
2.19067	-109
2.19433	-108
2.19800	-108
2.20167	-107
2.20533	-107
2.20900	-106
2.21267	-106
2.21633	-105
2.22000	-105
2.22367	-105
2.22733	-105
2.23100	-105
2.23467	-105
2.23833	-105
2.24200	-105
2.24567	-105
2.24933	-105
2.25300	-105
2.25667	-105
2.26033	-105
2.26400	-105
2.26767	-105
2.27133	-105
2.27500	-104
2.27867	-104
2.28233	-103
2.28600	-103
2.28967	-103
2.29333	-102
2.29700	-102
2.30067	-102
2.30433	-102
2.30800	-102
2.31167	-102
2.31533	-101
2.31900	-100
2.32267	-99
2.32633	-98
2.33000	-98
2.33367	-97
2.33733	-97
2.34100	-97
2.34467	-97
2.34833	-96
2.35200	-96
2.35567	-96
2.35933	-95
2.36300	-94
2.36667	-93
2.37033	-91
2.37400	-89
2.37767	-86
2.38133	-83
2.38500	-79
2.38867	-75
2.39233	-71
2.39600	-66
2.39967	-62
2.40333	-57
2.40700	-52
2.41067	-48
2.41433	-45
2.41800	-42
2.42167	-39
2.42533	-36
2.42900	-33
2.43267	-30
2.43633	-28
2.44000	-25
2.44367	-23
2.44733	-21
2.45100	-19
2.45467	-17
2.45833	-16
2.46200	-15
2.46567	-14
2.46933	-13
2.47300	-12
2.47667	-10
2.48033	-9
2.48400	-8
2.48767	-7
2.49133	-6
2.49500	-5
2.49867	-4
2.50233	-3
2.50600	-3
2.50967	-3
2.51333	-3
2.51700	-3
2.52067	-3
2.52433	-3
2.52800	-3
2.53167	-2
2.53533	-1
2.53900	-1
2.54267	0
2.54633	0
2.55000	0
2.55367	0
2.55733	0
2.56100	0
2.56467	1
2.56833	1
2.57200	2
2.57567	2
2.57933	2
2.58300	3
2.58667	3
2.59033	3
2.59400	3
2.59767	3
2.60133	3
2.60500	3
2.60867	4
2.61233	4
2.61600	4
2.61967	5
2.62333	5
2.62700	6
2.63067	7
2.63433	8
2.63800	8
2.64167	8
2.64533	8
2.64900	8
2.65267	8
2.65633	7
2.66000	7
2.66367	7
2.66733	6
2.67100	6
2.67467	6
2.67833	7
2.68200	7
2.68567	7
2.68933	8
2.69300	8
2.69667	8
2.70033	8
2.70400	9
2.70767	9
2.71133	9
2.71500	9
2.71867	9
2.72233	9
2.72600	8
2.72967	8
2.73333	8
2.73700	7
2.74067	7
2.74433	7
2.74800	7
2.75167	7
2.75533	8
2.75900	8
2.76267	9
2.76633	9
2.77000	10
2.77367	10
2.77733	11
2.78100	11
2.78467	11
2.78833	12
2.79200	12
2.79567	12
2.79933	11
2.80300	11
2.80667	11
2.81033	11
2.81400	12
2.81767	12
2.82133	12
2.82500	12
2.82867	12
2.83233	12
2.83600	12
2.83967	11
2.84333	10
2.84700	8
2.85067	3
2.85433	-3
2.85800	-13
2.86167	-27
2.86533	-45
2.86900	-68
2.87267	-96
2.87633	-129
2.88000	-168
2.88367	-211
2.88733	-260
2.89100	-313
2.89467	-370
2.89833	-432
2.90200	-496
2.90567	-565
2.90933	-636
2.91300	-710
2.91667	-786
2.92033	-864
2.92400	-945
2.92767	-1027
2.93133	-1112
2.93500	-1197
2.93867	-1285
2.94233	-1373
2.94600	-1455
2.94967	-1519
2.95333	-1553
2.95700	-1552
2.96067	-1516
2.96433	-1450
2.96800	-1363
2.97167	-1260
2.97533	-1151
2.97900	-1039
2.98267	-930
2.98633	-825
2.99000	-728
2.99367	-639
2.99733	-558
3.00100	-486
3.00467	-422
3.00833	-365
3.01200	-315
3.01567	-272
3.01933	-235
3.02300	-202
3.02667	-174
3.03033	-150
3.03400	-129
3.03767	-111
3.04133	-96
3.04500	-83
3.04867	-72
3.05233	-63
3.05600	-55
3.05967	-48
3.06333	-42
3.06700	-36
3.07067	-32
3.07433	-28
3.07800	-24
3.08167	-21
3.08533	-19
3.08900	-17
3.09267	-15
3.09633	-13
3.10000	-12
3.10367	-11
3.10733	-9
3.11100	-9
3.11467	-8
3.11833	-7
3.12200	-7
3.12567	-6
3.12933	-5
3.13300	-5
3.13667	-4
3.14033	-4
3.14400	-4
3.14767	-4
3.15133	-3
3.15500	-3
3.15867	-3
3.16233	-2
3.16600	-2
3.16967	-2
3.17333	-1
3.17700	-1
3.18067	-1
3.18433	-1
3.18800	-0
3.19167	0
3.19533	1
3.19900	1
3.20267	2
3.20633	2
3.21000	3
3.21367	3
3.21733	4
3.22100	4
3.22467	5
3.22833	5
3.23200	6
3.23567	6
3.23933	6
3.24300	7
3.24667	7
3.25033	8
3.25400	8
3.25767	8
3.26133	8
3.26500	9
3.26867	9
3.27233	9
3.27600	9
3.27967	9
3.28333	9
3.28700	9
3.29067	9
3.29433	9
3.29800	9
3.30167	9
3.30533	9
3.30900	10
3.31267	10
3.31633	10
3.32000	10
3.32367	10
3.32733	10
3.33100	11
3.33467	11
3.33833	11
3.34200	11
3.34567	11
3.34933	11
3.35300	11
3.35667	11
3.36033	11
3.36400	11
3.36767	11
3.37133	11
3.37500	10
3.37867	10
3.38233	10
3.38600	10
3.38967	10
3.39333	10
3.39700	10
3.40067	10
3.40433	10
3.40800	10
3.41167	10
3.41533	10
3.41900	10
3.42267	10
3.42633	10
3.43000	10
3.43367	10
3.43733	10
3.44100	10
3.44467	10
3.44833	10
3.45200	10
3.45567	10
3.45933	10
3.46300	10
3.46667	10
3.47033	10
3.47400	10
3.47767	10
3.48133	10
3.48500	10
3.48867	10
3.49233	10
3.49600	10
3.49967	10
3.50333	9
3.50700	9
3.51067	9
3.51433	9
3.51800	9
3.52167	9
3.52533	9
3.52900	9
3.53267	9
3.53633	9
3.54000	9
3.54367	9
3.54733	9
3.55100	9
3.55467	9
3.55833	9
3.56200	9
3.56567	9
3.56933	9
3.57300	9
3.57667	9
3.58033	9
3.58400	9
3.58767	9
3.59133	9
3.59500	9
3.59867	9
3.60233	9
3.60600	9
3.60967	9
3.61333	9
3.61700	9
3.62067	9
3.62433	9
3.62800	9
3.63167	9
3.63533	9
3.63900	9
3.64267	9
3.64633	9
3.65000	9
3.65367	8
3.65733	8
3.66100	8
3.66467	9
3.66833	9
3.67200	9
3.67567	9
3.67933	9
3.68300	9
3.68667	9
3.69033	9
3.69400	9
3.69767	9
3.70133	9
3.70500	9
3.70867	9
3.71233	9
3.71600	9
3.71967	9
3.72333	9
3.72700	9
3.73067	9
3.73433	9
3.73800	9
3.74167	9
3.74533	9
3.74900	9
3.75267	9
3.75633	9
3.76000	9
3.76367	9
3.76733	9
3.77100	9
3.77467	8
3.77833	8
3.78200	8
3.78567	8
3.78933	8
3.79300	7
3.79667	7
3.80033	7
3.80400	7
3.80767	8
3.81133	8
3.81500	8
3.81867	8
3.82233	8
3.82600	8
3.82967	8
3.83333	9
3.83700	9
3.84067	9
3.84433	9
3.84800	9
3.85167	9
3.85533	9
3.85900	9
3.86267	9
3.86633	9
3.87000	9
3.87367	9
3.87733	9
3.88100	9
3.88467	9
3.88833	9
3.89200	9
3.89567	9
3.89933	9
3.90300	9
3.90667	9
3.91033	8
3.91400	8
3.91767	9
3.92133	9
3.92500	9
3.92867	9
3.93233	9
3.93600	9
3.93967	9
3.94333	9
3.94700	9
3.95067	9
3.95433	9
3.95800	9
3.96167	9
3.96533	9
3.96900	9
3.97267	8
3.97633	9
3.98000	9
3.98367	9
3.98733	9
3.99100	8
3.99467	8
3.99833	8

[Chromatogram (Ch3)]
Interval(msec)	220
# of Points	1091
Start Time(min)	0.002
End Time(min)	3.998
R.Time (min)	Intensity
0.00167	-1
0.00533	-3
0.00900	-4
0.01267	-3
0.01633	-2
0.02000	-1
0.02367	0
0.02733	2
0.03100	3
0.03467	3
0.03833	0
0.04200	-1
0.04567	-1
0.04933	-0
0.05300	3
0.05667	4
0.06033	4
0.06400	4
0.06767	6
0.07133	7
0.07500	7
0.07867	7
0.08233	7
0.08600	4
0.08967	4
0.09333	3
0.09700	3
0.10067	4
0.10433	4
0.10800	4
0.11167	4
0.11533	3
0.11900	1
0.12267	0
0.12633	-2
0.13000	-0
0.13367	5
0.13733	8
0.14100	8
0.14467	6
0.14833	6
0.15200	6
0.15567	6
0.15933	7
0.16300	6
0.16667	5
0.17033	5
0.17400	6
0.17767	8
0.18133	9
0.18500	11
0.18867	10
0.19233	9
0.19600	8
0.19967	9
0.20333	10
0.20700	10
0.21067	11
0.21433	13
0.21800	16
0.22167	14
0.22533	14
0.22900	16
0.23267	16
0.23633	15
0.24000	16
0.24367	16
0.24733	17
0.25100	17
0.25467	16
0.25833	17
0.26200	19
0.26567	22
0.26933	24
0.27300	23
0.27667	22
0.28033	20
0.28400	17
0.28767	17
0.29133	18
0.29500	19
0.29867	20
0.30233	19
0.30600	18
0.30967	19
0.31333	18
0.31700	18
0.32067	20
0.32433	22
0.32800	21
0.33167	20
0.33533	17
0.33900	15
0.34267	15
0.34633	16
0.35000	18
0.35367	20
0.35733	23
0.36100	24
0.36467	26
0.36833	26
0.37200	27
0.37567	27
0.37933	26
0.38300	25
0.38667	24
0.39033	25
0.39400	26
0.39767	25
0.40133	25
0.40500	24
0.40867	23
0.41233	24
0.41600	24
0.41967	23
0.42333	24
0.42700	23
0.43067	24
0.43433	26
0.43800	25
0.44167	26
0.44533	28
0.44900	29
0.45267	29
0.45633	28
0.46000	26
0.46367	26
0.46733	27
0.47100	28
0.47467	28
0.47833	29
0.48200	30
0.48567	29
0.48933	30
0.49300	29
0.49667	28
0.50033	26
0.50400	26
0.50767	25
0.51133	26
0.51500	27
0.51867	29
0.52233	31
0.52600	31
0.52967	32
0.53333	30
0.53700	28
0.54067	30
0.54433	32
0.54800	32
0.55167	30
0.55533	28
0.55900	26
0.56267	27
0.56633	29
0.57000	30
0.57367	30
0.57733	30
0.58100	30
0.58467	30
0.58833	31
0.59200	31
0.59567	31
0.59933	31
0.60300	31
0.60667	31
0.61033	30
0.61400	31
0.61767	32
0.62133	32
0.62500	31
0.62867	29
0.63233	30
0.63600	31
0.63967	30
0.64333	29
0.64700	29
0.65067	30
0.65433	32
0.65800	35
0.66167	36
0.66533	36
0.66900	38
0.67267	38
0.67633	39
0.68000	37
0.68367	34
0.68733	33
0.69100	33
0.69467	33
0.69833	32
0.70200	32
0.70567	34
0.70933	36
0.71300	37
0.71667	38
0.72033	35
0.72400	33
0.72767	33
0.73133	34
0.73500	37
0.73867	40
0.74233	42
0.74600	43
0.74967	42
0.75333	40
0.75700	38
0.76067	38
0.76433	39
0.76800	40
0.77167	41
0.77533	40
0.77900	39
0.78267	38
0.78633	40
0.79000	41
0.79367	41
0.79733	42
0.80100	43
0.80467	44
0.80833	44
0.81200	44
0.81567	45
0.81933	44
0.82300	41
0.82667	40
0.83033	41
0.83400	43
0.83767	43
0.84133	45
0.84500	45
0.84867	46
0.85233	48
0.85600	48
0.85967	46
0.86333	46
0.86700	48
0.87067	49
0.87433	48
0.87800	47
0.88167	46
0.88533	45
0.88900	45
0.89267	44
0.89633	44
0.90000	44
0.90367	45
0.90733	46
0.91100	47
0.91467	47
0.91833	47
0.92200	47
0.92567	47
0.92933	48
0.93300	48
0.93667	48
0.94033	47
0.94400	45
0.94767	42
0.95133	42
0.95500	43
0.95867	44
0.96233	45
0.96600	45
0.96967	46
0.97333	45
0.97700	47
0.98067	48
0.98433	49
0.98800	51
0.99167	52
0.99533	54
0.99900	54
1.00267	50
1.00633	47
1.01000	47
1.01367	50
1.01733	51
1.02100	51
1.02467	52
1.02833	53
1.03200	53
1.03567	52
1.03933	52
1.04300	52
1.04667	52
1.05033	53
1.05400	53
1.05767	51
1.06133	52
1.06500	51
1.06867	53
1.07233	56
1.07600	56
1.07967	54
1.08333	52
1.08700	53
1.09067	51
1.09433	49
1.09800	49
1.10167	49
1.10533	50
1.10900	53
1.11267	54
1.11633	55
1.12000	54
1.12367	50
1.12733	49
1.13100	50
1.13467	54
1.13833	56
1.14200	56
1.14567	56
1.14933	55
1.15300	55
1.15667	56
1.16033	56
1.16400	55
1.16767	57
1.17133	58
1.17500	57
1.17867	57
1.18233	59
1.18600	60
1.18967	62
1.19333	63
1.19700	62
1.20067	60
1.20433	58
1.20800	55
1.21167	52
1.21533	52
1.21900	52
1.22267	54
1.22633	55
1.23000	55
1.23367	55
1.23733	55
1.24100	58
1.24467	58
1.24833	57
1.25200	55
1.25567	53
1.25933	53
1.26300	53
1.26667	55
1.27033	55
1.27400	56
1.27767	54
1.28133	55
1.28500	56
1.28867	58
1.29233	59
1.29600	58
1.29967	58
1.30333	59
1.30700	59
1.31067	56
1.31433	55
1.31800	55
1.32167	56
1.32533	57
1.32900	59
1.33267	60
1.33633	59
1.34000	57
1.34367	55
1.34733	54
1.35100	55
1.35467	58
1.35833	61
1.36200	63
1.36567	65
1.36933	66
1.37300	65
1.37667	65
1.38033	65
1.38400	67
1.38767	67
1.39133	66
1.39500	65
1.39867	64
1.40233	63
1.40600	61
1.40967	60
1.41333	61
1.41700	62
1.42067	62
1.42433	62
1.42800	64
1.43167	65
1.43533	63
1.43900	62
1.44267	62
1.44633	62
1.45000	64
1.45367	64
1.45733	65
1.46100	66
1.46467	67
1.46833	68
1.47200	68
1.47567	68
1.47933	69
1.48300	68
1.48667	66
1.49033	65
1.49400	64
1.49767	64
1.50133	65
1.50500	65
1.50867	64
1.51233	64
1.51600	66
1.51967	66
1.52333	67
1.52700	69
1.53067	67
1.53433	66
1.53800	64
1.54167	65
1.54533	64
1.54900	65
1.55267	65
1.55633	64
1.56000	63
1.56367	62
1.56733	62
1.57100	63
1.57467	63
1.57833	63
1.58200	64
1.58567	65
1.58933	66
1.59300	66
1.59667	66
1.60033	64
1.60400	65
1.60767	66
1.61133	67
1.61500	69
1.61867	71
1.62233	71
1.62600	71
1.62967	71
1.63333	71
1.63700	73
1.64067	76
1.64433	78
1.64800	80
1.65167	81
1.65533	81
1.65900	80
1.66267	80
1.66633	79
1.67000	79
1.67367	79
1.67733	82
1.68100	84
1.68467	85
1.68833	86
1.69200	85
1.69567	87
1.69933	88
1.70300	87
1.70667	85
1.71033	86
1.71400	87
1.71767	89
1.72133	91
1.72500	92
1.72867	89
1.73233	90
1.73600	92
1.73967	95
1.74333	97
1.74700	97
1.75067	98
1.75433	97
1.75800	95
1.76167	96
1.76533	95
1.76900	97
1.77267	99
1.77633	102
1.78000	102
1.78367	103
1.78733	103
1.79100	101
1.79467	99
1.79833	99
1.80200	100
1.80567	103
1.80933	106
1.81300	108
1.81667	108
1.82033	110
1.82400	112
1.82767	113
1.83133	112
1.83500	109
1.83867	110
1.84233	112
1.84600	114
1.84967	114
1.85333	114
1.85700	115
1.86067	116
1.86433	118
1.86800	119
1.87167	119
1.87533	119
1.87900	118
1.88267	117
1.88633	119
1.89000	120
1.89367	120
1.89733	120
1.90100	121
1.90467	123
1.90833	126
1.91200	128
1.91567	128
1.91933	128
1.92300	128
1.92667	129
1.93033	129
1.93400	130
1.93767	134
1.94133	135
1.94500	135
1.94867	135
1.95233	139
1.95600	142
1.95967	144
1.96333	145
1.96700	147
1.97067	149
1.97433	150
1.97800	149
1.98167	147
1.98533	146
1.98900	148
1.99267	152
1.99633	155
2.00000	157
2.00367	157
2.00733	158
2.01100	157
2.01467	158
2.01833	160
2.02200	163
2.02567	166
2.02933	167
2.03300	167
2.03667	166
2.04033	168
2.04400	171
2.04767	174
2.05133	174
2.05500	176
2.05867	176
2.06233	179
2.06600	182
2.06967	182
2.07333	184
2.07700	188
2.08067	189
2.08433	189
2.08800	190
2.09167	191
2.09533	193
2.09900	195
2.10267	197
2.10633	196
2.11000	197
2.11367	199
2.11733	201
2.12100	203
2.12467	203
2.12833	204
2.13200	205
2.13567	209
2.13933	212
2.14300	214
2.14667	217
2.15033	219
2.15400	222
2.15767	224
2.16133	223
2.16500	223
2.16867	223
2.17233	223
2.17600	224
2.17967	225
2.18333	227
2.18700	230
2.19067	232
2.19433	232
2.19800	232
2.20167	235
2.20533	239
2.20900	243
2.21267	246
2.21633	248
2.22000	246
2.22367	244
2.22733	245
2.23100	246
2.23467	247
2.23833	250
2.24200	252
2.24567	251
2.24933	251
2.25300	252
2.25667	255
2.26033	259
2.26400	262
2.26767	264
2.27133	266
2.27500	268
2.27867	270
2.28233	272
2.28600	275
2.28967	276
2.29333	279
2.29700	282
2.30067	285
2.30433	285
2.30800	285
2.31167	289
2.31533	291
2.31900	291
2.32267	290
2.32633	289
2.33000	291
2.33367	294
2.33733	299
2.34100	304
2.34467	305
2.34833	304
2.35200	304
2.35567	304
2.35933	304
2.36300	304
2.36667	306
2.37033	308
2.37400	307
2.37767	308
2.38133	309
2.38500	308
2.38867	309
2.39233	309
2.39600	308
2.39967	309
2.40333	311
2.40700	314
2.41067	317
2.41433	319
2.41800	322
2.42167	326
2.42533	330
2.42900	333
2.43267	334
2.43633	335
2.44000	335
2.44367	337
2.44733	346
2.45100	355
2.45467	360
2.45833	357
2.46200	350
2.46567	339
2.46933	327
2.47300	315
2.47667	305
2.48033	296
2.48400	287
2.48767	277
2.49133	265
2.49500	252
2.49867	237
2.50233	223
2.50600	209
2.50967	199
2.51333	192
2.51700	186
2.52067	183
2.52433	179
2.52800	173
2.53167	166
2.53533	161
2.53900	156
2.54267	153
2.54633	150
2.55000	146
2.55367	143
2.55733	140
2.56100	137
2.56467	135
2.56833	130
2.57200	123
2.57567	116
2.57933	114
2.58300	112
2.58667	108
2.59033	106
2.59400	105
2.59767	97
2.60133	84
2.60500	62
2.60867	33
2.61233	-4
2.61600	-44
2.61967	-88
2.62333	-130
2.62700	-170
2.63067	-203
2.63433	-230
2.63800	-254
2.64167	-269
2.64533	-278
2.64900	-284
2.65267	-286
2.65633	-283
2.66000	-276
2.66367	-267
2.66733	-258
2.67100	-248
2.67467	-234
2.67833	-222
2.68200	-212
2.68567	-199
2.68933	-185
2.69300	-173
2.69667	-160
2.70033	-148
2.70400	-138
2.70767	-130
2.71133	-121
2.71500	-111
2.71867	-102
2.72233	-96
2.72600	-91
2.72967	-84
2.73333	-75
2.73700	-67
2.74067	-60
2.74433	-54
2.74800	-49
2.75167	-44
2.75533	-41
2.75900	-38
2.76267	-37
2.76633	-36
2.77000	-38
2.77367	-37
2.77733	-36
2.78100	-36
2.78467	-36
2.78833	-38
2.79200	-37
2.79567	-36
2.79933	-36
2.80300	-36
2.80667	-38
2.81033	-39
2.81400	-40
2.81767	-37
2.82133	-28
2.82500	4
2.82867	77
2.83233	236
2.83600	541
2.83967	1058
2.84333	1846
2.84700	2940
2.85067	4341
2.85433	6001
2.85800	7829
2.86167	9706
2.86533	11492
2.86900	13052
2.87267	14267
2.87633	15064
2.88000	15421
2.88367	15364
2.88733	14947
2.89100	14246
2.89467	13344
2.89833	12319
2.90200	11236
2.90567	10151
2.90933	9096
2.91300	8098
2.91667	7171
2.92033	6321
2.92400	5551
2.92767	4860
2.93133	4241
2.93500	3690
2.93867	3205
2.94233	2780
2.94600	2405
2.94967	2076
2.95333	1786
2.95700	1537
2.96067	1319
2.96433	1128
2.96800	964
2.97167	820
2.97533	699
2.97900	596
2.98267	507
2.98633	427
2.99000	358
2.99367	299
2.99733	246
3.00100	203
3.00467	166
3.00833	132
3.01200	104
3.01567	81
3.01933	61
3.02300	46
3.02667	32
3.03033	19
3.03400	7
3.03767	-4
3.04133	-11
3.04500	-16
3.04867	-21
3.05233	-27
3.05600	-31
3.05967	-32
3.06333	-36
3.06700	-39
3.07067	-41
3.07433	-43
3.07800	-45
3.08167	-44
3.08533	-41
3.08900	-41
3.09267	-44
3.09633	-45
3.10000	-45
3.10367	-45
3.10733	-44
3.11100	-45
3.11467	-45
3.11833	-45
3.12200	-46
3.12567	-48
3.12933	-50
3.13300	-48
3.13667	-48
3.14033	-73
3.14400	-112
3.14767	-133
3.15133	-126
3.15500	-100
3.15867	-61
3.16233	-17
3.16600	30
3.16967	76
3.17333	118
3.17700	157
3.18067	195
3.18433	230
3.18800	262
3.19167	291
3.19533	318
3.19900	343
3.20267	367
3.20633	390
3.21000	410
3.21367	429
3.21733	447
3.22100	465
3.22467	483
3.22833	494
3.23200	504
3.23567	516
3.23933	526
3.24300	533
3.24667	538
3.25033	544
3.25400	549
3.25767	554
3.26133	558
3.26500	560
3.26867	562
3.27233	565
3.27600	569
3.27967	572
3.28333	573
3.28700	574
3.29067	575
3.29433	577
3.29800	577
3.30167	576
3.30533	572
3.30900	568
3.31267	565
3.31633	565
3.32000	563
3.32367	559
3.32733	556
3.33100	555
3.33467	554
3.33833	552
3.34200	549
3.34567	546
3.34933	545
3.35300	542
3.35667	540
3.36033	541
3.36400	539
3.36767	537
3.37133	535
3.37500	533
3.37867	532
3.38233	531
3.38600	531
3.38967	528
3.39333	525
3.39700	520
3.40067	515
3.40433	509
3.40800	507
3.41167	506
3.41533	505
3.41900	504
3.42267	505
3.42633	504
3.43000	504
3.43367	501
3.43733	497
3.44100	491
3.44467	484
3.44833	480
3.45200	478
3.45567	475
3.45933	473
3.46300	472
3.46667	470
3.47033	467
3.47400	465
3.47767	462
3.48133	458
3.48500	453
3.48867	449
3.49233	447
3.49600	446
3.49967	443
3.50333	440
3.50700	438
3.51067	436
3.51433	433
3.51800	429
3.52167	426
3.52533	423
3.52900	420
3.53267	417
3.53633	414
3.54000	412
3.54367	410
3.54733	405
3.55100	400
3.55467	398
3.55833	398
3.56200	398
3.56567	394
3.56933	391
3.57300	388
3.57667	386
3.58033	385
3.58400	385
3.58767	384
3.59133	384
3.59500	381
3.59867	377
3.60233	373
3.60600	371
3.60967	369
3.61333	366
3.61700	362
3.62067	358
3.62433	357
3.62800	356
3.63167	355
3.63533	355
3.63900	354
3.64267	350
3.64633	346
3.65000	345
3.65367	344
3.65733	343
3.66100	342
3.66467	341
3.66833	337
3.67200	335
3.67567	334
3.67933	331
3.68300	327
3.68667	324
3.69033	321
3.69400	318
3.69767	314
3.70133	307
3.70500	303
3.70867	301
3.71233	300
3.71600	301
3.71967	299
3.72333	295
3.72700	291
3.73067	290
3.73433	288
3.73800	284
3.74167	281
3.74533	280
3.74900	277
3.75267	274
3.75633	273
3.76000	273
3.76367	272
3.76733	271
3.77100	269
3.77467	267
3.77833	264
3.78200	260
3.78567	257
3.78933	255
3.79300	251
3.79667	247
3.80033	246
3.80400	246
3.80767	245
3.81133	242
3.81500	240
3.81867	238
3.82233	237
3.82600	237
3.82967	233
3.83333	229
3.83700	225
3.84067	222
3.84433	222
3.84800	222
3.85167	219
3.85533	218
3.85900	216
3.86267	215
3.86633	213
3.87000	211
3.87367	210
3.87733	207
3.88100	204
3.88467	201
3.88833	200
3.89200	196
3.89567	193
3.89933	191
3.90300	189
3.90667	186
3.91033	182
3.91400	178
3.91767	175
3.92133	171
3.92500	168
3.92867	166
3.93233	166
3.93600	164
3.93967	160
3.94333	157
3.94700	153
3.95067	151
3.95433	149
3.95800	148
3.96167	148
3.96533	148
3.96900	146
3.97267	143
3.97633	143
3.98000	140
3.98367	137
3.98733	134
3.99100	133
3.99467	132
3.99833	132

[Status Trace (Column Oven Temperature)]
Interval(msec)	1000
# of Points	240
Start Time(min)	0.009
End Time(min)	3.992
Intensity Units	
Intensity Multiplier	1
R.Time (min)	Intensity
0.00850	35.01
0.02517	35.02
0.04183	35.03
0.05850	35.03
0.07517	35.03
0.09183	35.02
0.10850	35.01
0.12517	35.01
0.14183	35.01
0.15850	34.99
0.17517	34.99
0.19183	34.97
0.20850	34.97
0.22517	34.96
0.24183	34.97
0.25850	34.98
0.27517	34.98
0.29183	35.00
0.30850	35.01
0.32517	35.01
0.34183	35.01
0.35850	35.01
0.37517	35.01
0.39183	35.00
0.40850	35.00
0.42517	34.99
0.44183	34.99
0.45850	35.00
0.47517	35.00
0.49183	34.99
0.50850	34.99
0.52517	35.01
0.54183	35.01
0.55850	35.00
0.57517	34.99
0.59183	34.98
0.60850	34.98
0.62517	34.98
0.64183	34.98
0.65850	34.98
0.67517	34.98
0.69183	34.97
0.70850	34.97
0.72517	34.98
0.74183	34.98
0.75850	35.00
0.77517	35.01
0.79183	35.01
0.80850	35.01
0.82517	35.02
0.84183	35.03
0.85850	35.05
0.87517	35.05
0.89183	35.05
0.90850	35.03
0.92517	35.01
0.94183	35.00
0.95850	35.00
0.97517	34.98
0.99183	34.98
1.00850	34.97
1.02517	34.97
1.04183	34.97
1.05850	34.97
1.07517	34.98
1.09183	35.00
1.10850	35.01
1.12517	35.01
1.14183	35.02
1.15850	35.02
1.17517	35.02
1.19183	35.02
1.20850	35.01
1.22517	35.01
1.24183	35.00
1.25850	35.00
1.27517	34.99
1.29183	34.99
1.30850	34.98
1.32517	34.97
1.34183	34.97
1.35850	34.96
1.37517	34.96
1.39183	34.96
1.40850	34.97
1.42517	34.98
1.44183	34.98
1.45850	34.99
1.47517	34.99
1.49183	34.99
1.50850	34.99
1.52517	34.98
1.54183	34.98
1.55850	34.98
1.57517	34.98
1.59183	34.98
1.60850	35.05
1.62517	35.18
1.64183	35.37
1.65850	35.63
1.67517	35.97
1.69183	36.33
1.70850	36.68
1.72517	37.03
1.74183	37.37
1.75850	37.69
1.77517	38.01
1.79183	38.36
1.80850	38.69
1.82517	39.03
1.84183	39.36
1.85850	39.70
1.87517	40.01
1.89183	40.33
1.90850	40.66
1.92517	40.98
1.94183	41.31
1.95850	41.64
1.97517	41.97
1.99183	42.29
2.00850	42.62
2.02517	42.93
2.04183	43.27
2.05850	43.60
2.07517	43.94
2.09183	44.25
2.10850	44.59
2.12517	44.92
2.14183	45.25
2.15850	45.58
2.17517	45.92
2.19183	46.25
2.20850	46.56
2.22517	46.90
2.24183	47.22
2.25850	47.57
2.27517	47.89
2.29183	48.21
2.30850	48.56
2.32517	48.87
2.34183	49.19
2.35850	49.45
2.37517	49.61
2.39183	49.64
2.40850	49.65
2.42517	49.65
2.44183	49.66
2.45850	49.67
2.47517	49.69
2.49183	49.69
2.50850	49.71
2.52517	49.73
2.54183	49.75
2.55850	49.77
2.57517	49.78
2.59183	49.80
2.60850	49.82
2.62517	49.82
2.64183	49.83
2.65850	49.85
2.67517	49.86
2.69183	49.85
2.70850	49.85
2.72517	49.87
2.74183	49.89
2.75850	49.89
2.77517	49.88
2.79183	49.89
2.80850	49.88
2.82517	49.89
2.84183	49.89
2.85850	49.90
2.87517	49.91
2.89183	49.93
2.90850	49.94
2.92517	49.96
2.94183	49.98
2.95850	49.99
2.97517	50.00
2.99183	50.01
3.00850	50.02
3.02517	50.02
3.04183	50.03
3.05850	50.04
3.07517	50.04
3.09183	50.04
3.10850	50.05
3.12517	50.05
3.14183	50.06
3.15850	50.08
3.17517	50.10
3.19183	50.11
3.20850	50.11
3.22517	50.10
3.24183	50.08
3.25850	50.07
3.27517	50.07
3.29183	50.06
3.30850	50.05
3.32517	50.05
3.34183	50.04
3.35850	50.02
3.37517	50.02
3.39183	50.01
3.40850	50.02
3.42517	50.02
3.44183	50.02
3.45850	50.02
3.47517	50.03
3.49183	50.03
3.50850	50.04
3.52517	50.04
3.54183	50.05
3.55850	50.06
3.57517	50.06
3.59183	50.07
3.60850	50.07
3.62517	50.07
3.64183	50.08
3.65850	50.07
3.67517	50.06
3.69183	50.07
3.70850	50.07
3.72517	50.07
3.74183	50.07
3.75850	50.07
3.77517	50.08
3.79183	50.09
3.80850	50.09
3.82517	50.09
3.84183	50.08
3.85850	50.08
3.87517	50.08
3.89183	50.07
3.90850	50.06
3.92517	50.05
3.94183	50.06
3.95850	50.06
3.97517	50.05
3.99183	50.06

[Status Trace (Injection Unit Temperature)]
Interval(msec)	1000
# of Points	240
Start Time(min)	0.009
End Time(min)	3.992
Intensity Units	
Intensity Multiplier	1
R.Time (min)	Intensity
0.00850	99.99
0.02517	99.99
0.04183	99.99
0.05850	99.99
0.07517	99.99
0.09183	99.99
0.10850	99.99
0.12517	99.99
0.14183	99.99
0.15850	99.99
0.17517	99.99
0.19183	99.99
0.20850	99.99
0.22517	99.99
0.24183	99.98
0.25850	99.98
0.27517	99.99
0.29183	99.99
0.30850	99.99
0.32517	99.99
0.34183	99.98
0.35850	99.99
0.37517	99.98
0.39183	99.99
0.40850	99.99
0.42517	99.98
0.44183	99.98
0.45850	99.99
0.47517	99.98
0.49183	99.98
0.50850	99.99
0.52517	99.98
0.54183	99.98
0.55850	99.98
0.57517	99.98
0.59183	99.99
0.60850	99.98
0.62517	99.99
0.64183	99.99
0.65850	99.99
0.67517	99.99
0.69183	99.99
0.70850	99.99
0.72517	99.98
0.74183	99.99
0.75850	99.99
0.77517	99.98
0.79183	99.98
0.80850	99.99
0.82517	99.99
0.84183	99.98
0.85850	99.99
0.87517	99.98
0.89183	99.99
0.90850	99.99
0.92517	99.99
0.94183	99.98
0.95850	99.98
0.97517	99.98
0.99183	99.98
1.00850	99.99
1.02517	99.98
1.04183	99.99
1.05850	99.99
1.07517	99.99
1.09183	99.99
1.10850	99.99
1.12517	99.99
1.14183	99.99
1.15850	99.98
1.17517	99.99
1.19183	99.98
1.20850	99.98
1.22517	99.98
1.24183	99.99
1.25850	99.98
1.27517	99.98
1.29183	99.98
1.30850	99.99
1.32517	99.98
1.34183	99.99
1.35850	99.99
1.37517	99.99
1.39183	99.98
1.40850	99.99
1.42517	99.99
1.44183	99.99
1.45850	99.98
1.47517	99.99
1.49183	99.99
1.50850	99.99
1.52517	99.98
1.54183	99.98
1.55850	99.99
1.57517	99.98
1.59183	99.99
1.60850	99.99
1.62517	99.98
1.64183	99.99
1.65850	99.98
1.67517	99.99
1.69183	99.99
1.70850	99.99
1.72517	99.99
1.74183	99.98
1.75850	99.99
1.77517	99.99
1.79183	99.99
1.80850	99.99
1.82517	99.98
1.84183	99.98
1.85850	99.98
1.87517	99.98
1.89183	99.98
1.90850	99.99
1.92517	99.99
1.94183	99.98
1.95850	99.98
1.97517	99.99
1.99183	99.98
2.00850	99.99
2.02517	99.98
2.04183	99.98
2.05850	99.98
2.07517	99.98
2.09183	99.98
2.10850	99.98
2.12517	99.98
2.14183	99.98
2.15850	99.98
2.17517	99.97
2.19183	99.98
2.20850	99.98
2.22517	99.98
2.24183	99.97
2.25850	99.97
2.27517	99.98
2.29183	99.98
2.30850	99.98
2.32517	99.98
2.34183	99.98
2.35850	99.98
2.37517	99.97
2.39183	99.97
2.40850	99.97
2.42517	99.97
2.44183	99.97
2.45850	99.97
2.47517	99.98
2.49183	99.97
2.50850	99.97
2.52517	99.98
2.54183	99.97
2.55850	99.98
2.57517	99.98
2.59183	99.98
2.60850	99.98
2.62517	99.98
2.64183	99.98
2.65850	99.98
2.67517	99.99
2.69183	99.99
2.70850	99.98
2.72517	99.99
2.74183	99.99
2.75850	99.99
2.77517	99.99
2.79183	99.99
2.80850	99.99
2.82517	99.99
2.84183	100.00
2.85850	100.00
2.87517	100.00
2.89183	100.00
2.90850	100.00
2.92517	100.00
2.94183	100.00
2.95850	100.00
2.97517	100.01
2.99183	100.01
3.00850	100.01
3.02517	100.01
3.04183	100.01
3.05850	100.01
3.07517	100.01
3.09183	100.02
3.10850	100.01
3.12517	100.02
3.14183	100.02
3.15850	100.02
3.17517	100.02
3.19183	100.02
3.20850	100.02
3.22517	100.02
3.24183	100.03
3.25850	100.02
3.27517	100.02
3.29183	100.03
3.30850	100.03
3.32517	100.03
3.34183	100.03
3.35850	100.03
3.37517	100.03
3.39183	100.03
3.40850	100.03
3.42517	100.03
3.44183	100.03
3.45850	100.03
3.47517	100.04
3.49183	100.04
3.50850	100.03
3.52517	100.03
3.54183	100.04
3.55850	100.03
3.57517	100.03
3.59183	100.04
3.60850	100.03
3.62517	100.04
3.64183	100.04
3.65850	100.04
3.67517	100.04
3.69183	100.03
3.70850	100.04
3.72517	100.04
3.74183	100.03
3.75850	100.04
3.77517	100.04
3.79183	100.04
3.80850	100.04
3.82517	100.04
3.84183	100.04
3.85850	100.04
3.87517	100.04
3.89183	100.04
3.90850	100.04
3.92517	100.04
3.94183	100.04
3.95850	100.04
3.97517	100.04
3.99183	100.04

[Status Trace (Carrier Gas Pressure)]
Interval(msec)	1000
# of Points	240
Start Time(min)	0.009
End Time(min)	3.992
Intensity Units	
Intensity Multiplier	1
R.Time (min)	Intensity
0.00850	58.00
0.02517	55.28
0.04183	57.09
0.05850	59.26
0.07517	59.39
0.09183	58.08
0.10850	57.99
0.12517	58.01
0.14183	58.01
0.15850	58.01
0.17517	58.00
0.19183	58.00
0.20850	58.00
0.22517	58.00
0.24183	58.00
0.25850	58.00
0.27517	58.00
0.29183	58.00
0.30850	58.00
0.32517	58.00
0.34183	58.00
0.35850	58.00
0.37517	58.00
0.39183	58.00
0.40850	58.00
0.42517	58.00
0.44183	58.00
0.45850	58.00
0.47517	58.00
0.49183	58.00
0.50850	58.00
0.52517	58.00
0.54183	58.00
0.55850	58.00
0.57517	58.00
0.59183	58.00
0.60850	58.00
0.62517	58.00
0.64183	58.00
0.65850	58.00
0.67517	58.00
0.69183	58.00
0.70850	58.00
0.72517	58.00
0.74183	58.00
0.75850	58.00
0.77517	58.00
0.79183	58.00
0.80850	58.00
0.82517	58.00
0.84183	58.00
0.85850	58.00
0.87517	58.00
0.89183	58.00
0.90850	58.00
0.92517	58.00
0.94183	58.00
0.95850	58.00
0.97517	58.00
0.99183	58.00
1.00850	58.00
1.02517	58.00
1.04183	58.00
1.05850	58.00
1.07517	58.00
1.09183	58.00
1.10850	58.00
1.12517	58.00
1.14183	58.00
1.15850	58.00
1.17517	58.00
1.19183	58.00
1.20850	58.00
1.22517	58.00
1.24183	58.00
1.25850	58.00
1.27517	58.00
1.29183	58.00
1.30850	58.00
1.32517	58.00
1.34183	58.00
1.35850	58.00
1.37517	58.00
1.39183	58.00
1.40850	58.00
1.42517	58.00
1.44183	58.00
1.45850	58.00
1.47517	58.00
1.49183	58.00
1.50850	58.00
1.52517	58.00
1.54183	58.00
1.55850	58.00
1.57517	58.00
1.59183	58.00
1.60850	58.00
1.62517	58.00
1.64183	58.00
1.65850	58.00
1.67517	58.01
1.69183	58.00
1.70850	58.00
1.72517	58.00
1.74183	58.00
1.75850	58.00
1.77517	58.00
1.79183	58.00
1.80850	58.00
1.82517	58.00
1.84183	58.00
1.85850	58.00
1.87517	58.00
1.89183	58.00
1.90850	58.00
1.92517	58.00
1.94183	58.00
1.95850	58.00
1.97517	58.00
1.99183	58.00
2.00850	58.00
2.02517	58.00
2.04183	58.00
2.05850	58.00
2.07517	58.00
2.09183	58.00
2.10850	58.00
2.12517	58.00
2.14183	58.00
2.15850	58.00
2.17517	58.00
2.19183	58.00
2.20850	58.00
2.22517	58.00
2.24183	58.00
2.25850	58.00
2.27517	58.00
2.29183	58.00
2.30850	58.00
2.32517	58.00
2.34183	58.00
2.35850	58.00
2.37517	57.99
2.39183	57.99
2.40850	57.99
2.42517	58.00
2.44183	58.00
2.45850	58.00
2.47517	58.00
2.49183	58.00
2.50850	57.99
2.52517	57.98
2.54183	58.00
2.55850	58.00
2.57517	58.00
2.59183	58.00
2.60850	58.00
2.62517	58.00
2.64183	58.00
2.65850	58.00
2.67517	58.00
2.69183	58.00
2.70850	58.00
2.72517	58.00
2.74183	58.00
2.75850	58.00
2.77517	58.00
2.79183	58.00
2.80850	58.00
2.82517	58.00
2.84183	58.00
2.85850	58.00
2.87517	58.00
2.89183	58.00
2.90850	58.00
2.92517	58.00
2.94183	58.00
2.95850	58.00
2.97517	58.00
2.99183	58.00
3.00850	58.00
3.02517	58.00
3.04183	58.00
3.05850	58.00
3.07517	58.00
3.09183	58.00
3.10850	58.00
3.12517	58.00
3.14183	58.00
3.15850	58.00
3.17517	58.00
3.19183	58.00
3.20850	58.00
3.22517	58.00
3.24183	58.00
3.25850	58.00
3.27517	58.00
3.29183	58.00
3.30850	58.00
3.32517	58.00
3.34183	58.00
3.35850	58.00
3.37517	58.00
3.39183	58.00
3.40850	58.00
3.42517	58.00
3.44183	58.00
3.45850	58.00
3.47517	58.00
3.49183	58.00
3.50850	58.00
3.52517	58.00
3.54183	58.00
3.55850	58.00
3.57517	58.00
3.59183	58.00
3.60850	58.00
3.62517	58.00
3.64183	58.00
3.65850	58.00
3.67517	58.00
3.69183	58.00
3.70850	58.00
3.72517	58.00
3.74183	58.00
3.75850	58.00
3.77517	58.00
3.79183	58.00
3.80850	58.00
3.82517	58.00
3.84183	58.00
3.85850	58.00
3.87517	58.00
3.89183	58.00
3.90850	58.00
3.92517	58.00
3.94183	58.00
3.95850	58.00
3.97517	58.00
3.99183	58.00

[Status Trace (Carrier Gas Flow)]
Interval(msec)	1000
# of Points	240
Start Time(min)	0.009
End Time(min)	3.992
Intensity Units	
Intensity Multiplier	1
R.Time (min)	Intensity
0.00850	34.52
0.02517	34.54
0.04183	34.54
0.05850	34.56
0.07517	34.49
0.09183	34.52
0.10850	34.52
0.12517	34.52
0.14183	34.52
0.15850	34.52
0.17517	34.52
0.19183	34.52
0.20850	34.52
0.22517	34.52
0.24183	34.52
0.25850	34.52
0.27517	34.52
0.29183	34.52
0.30850	34.52
0.32517	34.52
0.34183	34.51
0.35850	34.52
0.37517	34.52
0.39183	34.52
0.40850	34.52
0.42517	34.52
0.44183	34.52
0.45850	34.52
0.47517	34.52
0.49183	34.52
0.50850	34.52
0.52517	34.51
0.54183	34.52
0.55850	34.51
0.57517	34.52
0.59183	34.52
0.60850	34.52
0.62517	34.51
0.64183	34.52
0.65850	34.52
0.67517	34.52
0.69183	34.52
0.70850	34.52
0.72517	34.52
0.74183	34.52
0.75850	34.52
0.77517	34.52
0.79183	34.52
0.80850	34.52
0.82517	34.52
0.84183	34.52
0.85850	34.52
0.87517	34.52
0.89183	34.52
0.90850	34.54
0.92517	34.52
0.94183	34.52
0.95850	34.52
0.97517	34.52
0.99183	34.52
1.00850	34.52
1.02517	34.52
1.04183	34.52
1.05850	34.52
1.07517	34.50
1.09183	34.52
1.10850	34.52
1.12517	34.52
1.14183	34.52
1.15850	34.52
1.17517	34.52
1.19183	34.52
1.20850	34.52
1.22517	34.52
1.24183	34.52
1.25850	34.52
1.27517	34.52
1.29183	34.52
1.30850	34.52
1.32517	34.52
1.34183	34.52
1.35850	34.52
1.37517	34.52
1.39183	34.52
1.40850	34.51
1.42517	34.52
1.44183	34.52
1.45850	34.52
1.47517	34.52
1.49183	34.52
1.50850	34.53
1.52517	34.51
1.54183	34.52
1.55850	34.52
1.57517	34.54
1.59183	34.50
1.60850	34.52
1.62517	34.52
1.64183	34.52
1.65850	34.52
1.67517	34.52
1.69183	34.52
1.70850	34.52
1.72517	34.52
1.74183	34.52
1.75850	34.52
1.77517	34.52
1.79183	34.53
1.80850	34.52
1.82517	34.52
1.84183	34.52
1.85850	34.51
1.87517	34.52
1.89183	34.52
1.90850	34.53
1.92517	34.52
1.94183	34.52
1.95850	34.52
1.97517	34.52
1.99183	34.52
2.00850	34.52
2.02517	34.52
2.04183	34.52
2.05850	34.52
2.07517	34.52
2.09183	34.52
2.10850	34.52
2.12517	34.53
2.14183	34.52
2.15850	34.52
2.17517	34.52
2.19183	34.52
2.20850	34.51
2.22517	34.51
2.24183	34.51
2.25850	34.54
2.27517	34.52
2.29183	34.52
2.30850	34.54
2.32517	34.52
2.34183	34.52
2.35850	34.52
2.37517	34.52
2.39183	34.52
2.40850	34.52
2.42517	34.52
2.44183	34.52
2.45850	34.52
2.47517	34.52
2.49183	34.52
2.50850	34.43
2.52517	34.52
2.54183	34.52
2.55850	34.53
2.57517	34.51
2.59183	34.52
2.60850	34.52
2.62517	34.52
2.64183	34.52
2.65850	34.52
2.67517	34.52
2.69183	34.52
2.70850	34.52
2.72517	34.52
2.74183	34.52
2.75850	34.52
2.77517	34.50
2.79183	34.52
2.80850	34.52
2.82517	34.52
2.84183	34.52
2.85850	34.54
2.87517	34.52
2.89183	34.52
2.90850	34.52
2.92517	34.52
2.94183	34.52
2.95850	34.52
2.97517	34.52
2.99183	34.52
3.00850	34.52
3.02517	34.52
3.04183	34.52
3.05850	34.52
3.07517	34.52
3.09183	34.52
3.10850	34.52
3.12517	34.52
3.14183	34.52
3.15850	34.52
3.17517	34.52
3.19183	34.52
3.20850	34.51
3.22517	34.51
3.24183	34.52
3.25850	34.52
3.27517	34.52
3.29183	34.52
3.30850	34.51
3.32517	34.53
3.34183	34.53
3.35850	34.51
3.37517	34.52
3.39183	34.52
3.40850	34.52
3.42517	34.52
3.44183	34.52
3.45850	34.52
3.47517	34.52
3.49183	34.52
3.50850	34.52
3.52517	34.52
3.54183	34.53
3.55850	34.52
3.57517	34.52
3.59183	34.52
3.60850	34.52
3.62517	34.52
3.64183	34.52
3.65850	34.52
3.67517	34.52
3.69183	34.52
3.70850	34.52
3.72517	34.52
3.74183	34.52
3.75850	34.52
3.77517	34.51
3.79183	34.52
3.80850	34.51
3.82517	34.52
3.84183	34.52
3.85850	34.52
3.87517	34.51
3.89183	34.52
3.90850	34.52
3.92517	34.52
3.94183	34.52
3.95850	34.52
3.97517	34.52
3.99183	34.52

[Status Trace (Column Flow)]
Interval(msec)	1000
# of Points	240
Start Time(min)	0.009
End Time(min)	3.992
Intensity Units	
Intensity Multiplier	1
R.Time (min)	Intensity
0.00850	5.52
0.02517	5.21
0.04183	5.41
0.05850	5.67
0.07517	5.68
0.09183	5.53
0.10850	5.52
0.12517	5.52
0.14183	5.52
0.15850	5.52
0.17517	5.52
0.19183	5.52
0.20850	5.52
0.22517	5.52
0.24183	5.52
0.25850	5.52
0.27517	5.52
0.29183	5.52
0.30850	5.52
0.32517	5.52
0.34183	5.52
0.35850	5.52
0.37517	5.52
0.39183	5.52
0.40850	5.52
0.42517	5.52
0.44183	5.52
0.45850	5.52
0.47517	5.52
0.49183	5.52
0.50850	5.52
0.52517	5.52
0.54183	5.52
0.55850	5.52
0.57517	5.52
0.59183	5.52
0.60850	5.52
0.62517	5.52
0.64183	5.52
0.65850	5.52
0.67517	5.52
0.69183	5.52
0.70850	5.52
0.72517	5.52
0.74183	5.52
0.75850	5.52
0.77517	5.52
0.79183	5.52
0.80850	5.52
0.82517	5.52
0.84183	5.52
0.85850	5.52
0.87517	5.52
0.89183	5.52
0.90850	5.52
0.92517	5.52
0.94183	5.52
0.95850	5.52
0.97517	5.52
0.99183	5.52
1.00850	5.52
1.02517	5.52
1.04183	5.52
1.05850	5.52
1.07517	5.52
1.09183	5.52
1.10850	5.52
1.12517	5.52
1.14183	5.52
1.15850	5.52
1.17517	5.52
1.19183	5.52
1.20850	5.52
1.22517	5.52
1.24183	5.52
1.25850	5.52
1.27517	5.52
1.29183	5.52
1.30850	5.52
1.32517	5.52
1.34183	5.52
1.35850	5.52
1.37517	5.52
1.39183	5.52
1.40850	5.52
1.42517	5.52
1.44183	5.52
1.45850	5.52
1.47517	5.52
1.49183	5.52
1.50850	5.52
1.52517	5.52
1.54183	5.52
1.55850	5.52
1.57517	5.52
1.59183	5.52
1.60850	5.52
1.62517	5.52
1.64183	5.51
1.65850	5.50
1.67517	5.49
1.69183	5.48
1.70850	5.47
1.72517	5.46
1.74183	5.45
1.75850	5.44
1.77517	5.43
1.79183	5.42
1.80850	5.41
1.82517	5.40
1.84183	5.39
1.85850	5.38
1.87517	5.37
1.89183	5.36
1.90850	5.35
1.92517	5.34
1.94183	5.33
1.95850	5.32
1.97517	5.31
1.99183	5.30
2.00850	5.29
2.02517	5.28
2.04183	5.27
2.05850	5.26
2.07517	5.25
2.09183	5.24
2.10850	5.23
2.12517	5.22
2.14183	5.21
2.15850	5.20
2.17517	5.19
2.19183	5.18
2.20850	5.18
2.22517	5.17
2.24183	5.16
2.25850	5.15
2.27517	5.14
2.29183	5.13
2.30850	5.12
2.32517	5.11
2.34183	5.10
2.35850	5.09
2.37517	5.09
2.39183	5.09
2.40850	5.09
2.42517	5.09
2.44183	5.09
2.45850	5.09
2.47517	5.09
2.49183	5.09
2.50850	5.09
2.52517	5.08
2.54183	5.09
2.55850	5.08
2.57517	5.08
2.59183	5.08
2.60850	5.08
2.62517	5.08
2.64183	5.08
2.65850	5.08
2.67517	5.08
2.69183	5.08
2.70850	5.08
2.72517	5.08
2.74183	5.08
2.75850	5.08
2.77517	5.08
2.79183	5.08
2.80850	5.08
2.82517	5.08
2.84183	5.08
2.85850	5.08
2.87517	5.08
2.89183	5.08
2.90850	5.08
2.92517	5.08
2.94183	5.08
2.95850	5.08
2.97517	5.08
2.99183	5.08
3.00850	5.08
3.02517	5.08
3.04183	5.08
3.05850	5.08
3.07517	5.08
3.09183	5.08
3.10850	5.08
3.12517	5.08
3.14183	5.08
3.15850	5.08
3.17517	5.08
3.19183	5.08
3.20850	5.08
3.22517	5.08
3.24183	5.08
3.25850	5.08
3.27517	5.08
3.29183	5.08
3.30850	5.08
3.32517	5.08
3.34183	5.08
3.35850	5.08
3.37517	5.08
3.39183	5.08
3.40850	5.08
3.42517	5.08
3.44183	5.08
3.45850	5.08
3.47517	5.08
3.49183	5.08
3.50850	5.08
3.52517	5.08
3.54183	5.08
3.55850	5.08
3.57517	5.08
3.59183	5.08
3.60850	5.08
3.62517	5.08
3.64183	5.08
3.65850	5.08
3.67517	5.08
3.69183	5.08
3.70850	5.08
3.72517	5.08
3.74183	5.08
3.75850	5.08
3.77517	5.08
3.79183	5.08
3.80850	5.08
3.82517	5.08
3.84183	5.08
3.85850	5.08
3.87517	5.08
3.89183	5.08
3.90850	5.08
3.92517	5.08
3.94183	5.08
3.95850	5.08
3.97517	5.08
3.99183	5.08

[Status Trace (Linear Velocity)]
Interval(msec)	1000
# of Points	240
Start Time(min)	0.009
End Time(min)	3.992
Intensity Units	
Intensity Multiplier	1
R.Time (min)	Intensity
0.00850	39.02
0.02517	37.23
0.04183	38.42
0.05850	39.84
0.07517	39.92
0.09183	39.06
0.10850	39.01
0.12517	39.02
0.14183	39.02
0.15850	39.02
0.17517	39.02
0.19183	39.02
0.20850	39.02
0.22517	39.02
0.24183	39.02
0.25850	39.02
0.27517	39.02
0.29183	39.02
0.30850	39.02
0.32517	39.02
0.34183	39.02
0.35850	39.01
0.37517	39.02
0.39183	39.02
0.40850	39.02
0.42517	39.02
0.44183	39.02
0.45850	39.02
0.47517	39.02
0.49183	39.02
0.50850	39.02
0.52517	39.02
0.54183	39.02
0.55850	39.02
0.57517	39.02
0.59183	39.02
0.60850	39.02
0.62517	39.02
0.64183	39.02
0.65850	39.02
0.67517	39.02
0.69183	39.02
0.70850	39.02
0.72517	39.02
0.74183	39.02
0.75850	39.02
0.77517	39.02
0.79183	39.02
0.80850	39.02
0.82517	39.02
0.84183	39.01
0.85850	39.01
0.87517	39.01
0.89183	39.01
0.90850	39.01
0.92517	39.02
0.94183	39.02
0.95850	39.02
0.97517	39.02
0.99183	39.02
1.00850	39.02
1.02517	39.02
1.04183	39.02
1.05850	39.02
1.07517	39.02
1.09183	39.02
1.10850	39.02
1.12517	39.02
1.14183	39.01
1.15850	39.01
1.17517	39.01
1.19183	39.01
1.20850	39.02
1.22517	39.02
1.24183	39.02
1.25850	39.02
1.27517	39.02
1.29183	39.02
1.30850	39.02
1.32517	39.02
1.34183	39.02
1.35850	39.02
1.37517	39.02
1.39183	39.02
1.40850	39.02
1.42517	39.02
1.44183	39.02
1.45850	39.02
1.47517	39.02
1.49183	39.02
1.50850	39.02
1.52517	39.02
1.54183	39.02
1.55850	39.02
1.57517	39.02
1.59183	39.02
1.60850	39.01
1.62517	39.00
1.64183	38.99
1.65850	38.96
1.67517	38.93
1.69183	38.89
1.70850	38.86
1.72517	38.82
1.74183	38.79
1.75850	38.76
1.77517	38.73
1.79183	38.70
1.80850	38.67
1.82517	38.63
1.84183	38.61
1.85850	38.57
1.87517	38.54
1.89183	38.51
1.90850	38.48
1.92517	38.45
1.94183	38.42
1.95850	38.39
1.97517	38.36
1.99183	38.33
2.00850	38.30
2.02517	38.27
2.04183	38.24
2.05850	38.21
2.07517	38.18
2.09183	38.15
2.10850	38.12
2.12517	38.09
2.14183	38.06
2.15850	38.03
2.17517	38.00
2.19183	37.97
2.20850	37.94
2.22517	37.91
2.24183	37.88
2.25850	37.85
2.27517	37.82
2.29183	37.79
2.30850	37.76
2.32517	37.73
2.34183	37.71
2.35850	37.68
2.37517	37.66
2.39183	37.66
2.40850	37.66
2.42517	37.66
2.44183	37.66
2.45850	37.66
2.47517	37.66
2.49183	37.66
2.50850	37.66
2.52517	37.64
2.54183	37.65
2.55850	37.65
2.57517	37.65
2.59183	37.65
2.60850	37.65
2.62517	37.65
2.64183	37.65
2.65850	37.65
2.67517	37.64
2.69183	37.64
2.70850	37.65
2.72517	37.64
2.74183	37.64
2.75850	37.64
2.77517	37.64
2.79183	37.64
2.80850	37.64
2.82517	37.64
2.84183	37.64
2.85850	37.64
2.87517	37.64
2.89183	37.64
2.90850	37.64
2.92517	37.64
2.94183	37.63
2.95850	37.63
2.97517	37.63
2.99183	37.63
3.00850	37.63
3.02517	37.63
3.04183	37.63
3.05850	37.63
3.07517	37.63
3.09183	37.63
3.10850	37.63
3.12517	37.63
3.14183	37.63
3.15850	37.63
3.17517	37.62
3.19183	37.62
3.20850	37.62
3.22517	37.62
3.24183	37.62
3.25850	37.63
3.27517	37.63
3.29183	37.63
3.30850	37.63
3.32517	37.63
3.34183	37.63
3.35850	37.63
3.37517	37.63
3.39183	37.63
3.40850	37.63
3.42517	37.63
3.44183	37.63
3.45850	37.63
3.47517	37.63
3.49183	37.63
3.50850	37.63
3.52517	37.63
3.54183	37.63
3.55850	37.63
3.57517	37.63
3.59183	37.63
3.60850	37.63
3.62517	37.63
3.64183	37.63
3.65850	37.63
3.67517	37.63
3.69183	37.63
3.70850	37.63
3.72517	37.63
3.74183	37.63
3.75850	37.63
3.77517	37.63
3.79183	37.63
3.80850	37.62
3.82517	37.62
3.84183	37.62
3.85850	37.63
3.87517	37.63
3.89183	37.63
3.90850	37.63
3.92517	37.63
3.94183	37.63
3.95850	37.63
3.97517	37.63
3.99183	37.63

